Video ID: 	3eeGgQUgTTI
H: 	2160
W: 	3840
FPS: 	25.0

FRAME INDEX X0 Y0 W H [Landmarks (5 Points)]

00005081 00000000 1168.44 265.01 963.52 1439.46 1500.24 879.56 1942.21 817.13 1818.16 1142.90 1627.75 1399.73 1957.59 1346.30
00005082 00000001 1160.75 260.67 959.59 1445.34 1488.88 877.24 1930.33 820.18 1802.73 1146.10 1612.44 1401.62 1936.87 1353.85
00005083 00000002 1156.36 266.48 962.49 1444.92 1480.83 883.79 1921.99 824.68 1790.92 1157.47 1606.56 1407.05 1932.62 1357.95
00005084 00000003 1149.04 273.05 965.54 1452.24 1468.28 893.77 1912.33 833.55 1779.46 1176.75 1596.00 1418.54 1927.92 1368.85
00005085 00000004 1138.56 284.39 962.34 1443.05 1454.66 909.69 1898.32 840.71 1767.06 1187.90 1585.60 1420.86 1925.22 1364.25
00005086 00000005 1130.40 296.52 965.82 1448.28 1444.01 921.73 1891.97 846.16 1761.11 1196.97 1572.49 1421.19 1930.55 1358.81
00005087 00000006 1129.69 310.57 962.97 1442.02 1446.93 923.95 1877.66 844.32 1767.00 1194.92 1575.62 1424.41 1930.18 1354.10
00005088 00000007 1138.79 281.60 971.74 1453.05 1460.70 908.63 1901.00 830.53 1779.63 1174.56 1574.57 1391.78 1948.16 1326.90
00005089 00000008 1153.77 271.43 964.32 1438.88 1484.42 894.38 1923.02 816.99 1808.23 1145.68 1605.33 1384.89 1964.75 1320.15
00005090 00000009 1180.29 284.50 961.39 1424.33 1511.94 889.30 1961.45 801.17 1848.25 1130.78 1642.11 1390.28 1996.15 1312.20
00005091 DELETE   1208.28 264.77 954.41 1438.42 1554.31 887.09 1984.15 822.36 1882.94 1131.60 1664.12 1370.23 2020.23 1316.27
00005092 00000011 1243.15 283.13 936.12 1441.78 1586.78 891.59 2007.94 830.25 1915.37 1140.84 1698.13 1389.28 2039.66 1339.05
00005093 00000012 1249.10 271.84 939.36 1478.13 1599.56 900.36 2027.24 848.20 1923.06 1165.56 1706.54 1419.86 2036.93 1376.76
00005094 00000013 1249.04 285.76 933.04 1470.75 1589.07 909.56 2020.62 863.48 1910.36 1180.44 1705.46 1446.48 2019.41 1408.24
00005095 00000014 1252.12 297.74 933.44 1456.37 1584.46 920.07 2025.34 878.89 1900.95 1197.69 1695.00 1455.94 2009.40 1422.67
00005096 00000015 1242.76 308.94 931.95 1448.05 1573.51 928.68 2016.16 888.55 1889.68 1213.50 1682.91 1458.33 1998.53 1425.76
00005097 00000016 1241.88 319.22 931.51 1442.40 1574.64 937.12 2018.63 892.41 1894.87 1218.58 1684.03 1460.38 2006.11 1423.96
00005098 00000017 1235.27 327.70 927.48 1431.99 1565.85 940.94 2005.45 895.89 1884.82 1215.34 1675.44 1456.18 1998.19 1419.27
00005099 00000018 1220.82 313.67 938.21 1435.54 1559.11 938.76 1999.62 893.83 1875.81 1212.94 1659.56 1440.58 1994.50 1403.57
00005100 00000019 1209.33 312.14 940.91 1428.47 1554.66 932.45 1994.87 895.59 1865.27 1210.18 1637.48 1426.97 1975.55 1396.91
00005101 00000020 1187.58 311.75 939.31 1419.07 1543.98 922.81 1973.70 894.84 1842.74 1206.61 1614.48 1427.79 1944.70 1403.60
00005102 00000021 1194.01 315.66 934.50 1418.40 1553.70 919.57 1980.24 894.86 1852.56 1205.90 1627.08 1432.35 1950.16 1410.98
00005103 00000022 1195.98 313.96 927.91 1420.83 1560.88 916.82 1980.51 894.48 1856.78 1205.34 1634.51 1438.36 1944.43 1419.03
00005104 00000023 1195.33 313.53 914.39 1432.54 1561.60 904.07 1983.28 879.96 1878.77 1200.02 1657.68 1456.01 1945.28 1432.02
00005105 00000024 1199.24 304.85 914.74 1435.43 1562.72 897.20 1986.25 876.88 1878.09 1191.20 1655.71 1450.65 1942.92 1429.86
00005106 00000025 1196.85 299.02 916.82 1438.26 1557.66 888.65 1982.25 877.19 1869.19 1182.67 1644.15 1442.19 1932.66 1428.46
00005107 00000026 1203.49 291.62 917.21 1440.58 1560.47 885.05 1986.79 872.39 1872.38 1179.92 1646.83 1438.79 1937.92 1424.03
00005108 00000027 1208.41 299.74 913.67 1434.57 1566.82 888.60 1992.22 879.10 1878.07 1180.94 1646.91 1437.30 1943.72 1425.14
00005109 00000028 1219.31 315.75 907.63 1418.07 1577.57 904.16 2003.25 882.98 1893.95 1190.63 1659.49 1443.26 1969.45 1421.34
00005110 00000029 1246.78 321.16 908.47 1421.75 1608.73 911.18 2026.45 904.38 1911.69 1191.06 1664.06 1425.28 1974.61 1420.97
00005111 00000030 1246.70 330.22 910.05 1430.49 1617.79 925.95 2033.42 917.89 1919.85 1203.42 1666.68 1436.24 1978.52 1430.93
00005112 00000031 1256.15 333.70 906.05 1439.88 1627.58 933.13 2037.75 927.20 1927.03 1214.78 1667.98 1443.34 1977.74 1439.93
00005113 00000032 1238.45 338.58 909.47 1441.10 1625.99 925.39 2022.70 939.06 1919.94 1229.07 1663.27 1455.37 1960.16 1465.27
00005114 00000033 1235.64 337.18 898.76 1425.35 1615.92 917.39 2020.35 912.74 1919.88 1218.43 1678.76 1470.85 1967.98 1464.89
00005115 00000034 1244.09 316.06 890.16 1410.18 1606.75 902.35 2007.19 898.04 1904.37 1178.07 1669.71 1418.31 1952.18 1416.45
00005116 00000035 1240.54 306.69 893.45 1404.38 1606.68 880.72 2007.67 883.63 1904.72 1161.90 1651.06 1378.00 1958.63 1381.50
00005117 00000036 1236.49 300.83 902.20 1400.08 1602.38 865.15 2002.09 876.90 1894.98 1147.15 1626.75 1348.79 1952.56 1359.56
00005118 00000037 1239.03 294.01 905.31 1408.76 1600.01 855.13 2002.44 870.70 1892.41 1139.40 1610.03 1337.58 1951.09 1352.34
00005119 00000038 1238.73 289.44 908.89 1408.45 1597.01 853.24 2002.67 871.85 1888.16 1137.35 1616.27 1344.67 1950.14 1361.29
00005120 00000039 1248.76 286.44 907.37 1406.48 1611.62 863.43 2015.32 869.97 1901.70 1144.38 1648.22 1361.19 1956.05 1368.26
00005121 00000040 1260.79 295.31 905.31 1409.37 1640.17 877.42 2038.37 878.35 1932.49 1156.56 1686.06 1384.10 1978.34 1386.76
00005122 DELETE   1285.07 329.05 913.98 1390.17 1692.16 900.03 2081.16 899.78 1995.51 1184.71 1749.54 1420.41 2029.17 1420.87
00005123 DELETE   1311.35 336.37 913.02 1389.85 1726.80 908.02 2115.53 904.82 2037.63 1194.12 1779.98 1425.81 2067.44 1423.73
00005124 00000043 1334.44 322.49 915.94 1414.93 1759.38 906.66 2140.92 905.05 2077.42 1194.71 1786.58 1411.68 2074.38 1412.38
00005125 00000044 1339.26 317.90 924.39 1419.34 1766.75 902.78 2151.42 912.64 2080.15 1196.93 1758.97 1389.22 2071.23 1401.01
00005126 00000045 1337.94 324.81 929.11 1421.81 1764.34 891.42 2150.07 918.15 2065.35 1196.89 1734.43 1373.91 2058.01 1400.17
00005127 00000046 1339.84 323.13 932.23 1427.23 1765.88 885.72 2150.52 913.51 2067.12 1190.46 1733.36 1369.67 2058.81 1396.83
00005128 00000047 1360.85 312.43 921.24 1424.99 1768.69 888.09 2160.12 905.77 2072.19 1176.81 1771.95 1382.83 2080.47 1400.65
00005129 00000048 1369.73 309.56 914.53 1410.38 1773.72 888.75 2165.95 901.55 2072.74 1174.79 1796.93 1392.27 2085.34 1405.68
00005130 00000049 1371.82 305.71 919.30 1415.59 1777.14 890.52 2172.87 905.54 2073.56 1175.62 1808.38 1401.28 2092.34 1415.57
00005131 00000050 1377.15 304.08 920.16 1412.23 1787.46 890.87 2182.21 906.11 2079.27 1181.01 1814.59 1405.86 2092.42 1420.66
00005132 00000051 1387.61 298.50 919.60 1418.66 1804.12 884.54 2198.18 904.74 2095.35 1180.55 1825.32 1403.45 2103.97 1421.83
00005133 00000052 1387.04 296.06 928.72 1432.98 1825.44 881.45 2212.25 910.92 2114.77 1183.14 1830.48 1396.71 2116.59 1421.47
00005134 00000053 1381.73 292.67 939.10 1442.00 1840.55 900.78 2217.44 926.32 2128.68 1191.53 1836.05 1396.99 2122.63 1418.52
00005135 00000054 1389.91 294.32 952.85 1432.84 1851.94 922.16 2237.50 953.32 2140.68 1195.71 1843.16 1399.20 2142.44 1424.50
00005136 00000055 1383.22 301.23 957.67 1444.56 1856.86 927.99 2237.05 951.71 2150.16 1215.61 1838.44 1413.61 2137.67 1433.72
00005137 00000056 1393.77 333.34 953.97 1421.30 1860.03 942.65 2246.07 963.45 2158.45 1236.99 1840.54 1430.82 2148.01 1449.61
00005138 00000057 1405.68 354.00 940.39 1414.63 1861.47 959.24 2247.13 983.85 2150.33 1255.89 1835.70 1444.53 2143.68 1466.70
00005139 00000058 1395.65 366.28 945.03 1425.89 1865.42 964.71 2240.86 990.61 2149.87 1282.11 1839.07 1466.95 2131.17 1488.66
00005140 00000059 1402.48 374.04 937.80 1418.62 1867.32 966.47 2241.19 992.18 2151.86 1280.86 1839.32 1467.12 2130.00 1489.25
00005141 00000060 1409.14 362.60 932.61 1408.15 1857.04 965.38 2245.99 989.05 2146.89 1260.74 1836.99 1453.21 2143.46 1474.62
00005142 00000061 1411.66 345.66 936.22 1415.18 1868.16 951.37 2251.76 972.04 2165.94 1243.89 1851.11 1443.84 2153.50 1462.66
00005143 00000062 1398.28 334.64 940.51 1424.66 1858.58 936.33 2243.34 964.13 2159.55 1225.15 1851.47 1439.90 2146.32 1463.63
00005144 00000063 1371.49 310.28 948.10 1445.13 1847.16 915.71 2229.64 950.24 2143.67 1205.63 1846.35 1425.69 2129.52 1453.60
00005145 00000064 1371.46 297.32 934.13 1448.31 1846.08 898.04 2219.71 936.48 2136.68 1188.74 1849.16 1412.73 2118.95 1443.50
00005146 00000065 1366.14 300.69 917.78 1433.20 1831.87 891.83 2201.49 929.75 2121.68 1177.26 1840.78 1403.20 2105.39 1433.77
00005147 00000066 1360.29 309.57 916.63 1428.42 1815.94 907.64 2188.13 934.13 2107.80 1190.61 1822.70 1415.65 2089.08 1437.87
00005148 00000067 1353.72 337.60 906.44 1414.44 1799.38 925.97 2167.30 928.50 2097.77 1214.20 1825.17 1453.32 2089.60 1454.81
00005149 00000068 1348.31 344.89 901.35 1419.39 1791.70 935.98 2154.15 938.53 2090.41 1219.04 1814.32 1461.47 2079.35 1463.45
00005150 00000069 1337.59 342.59 901.85 1417.50 1778.69 926.47 2143.60 939.74 2078.50 1205.70 1808.59 1454.85 2071.15 1465.20
00005151 DELETE   1323.80 333.86 916.21 1405.06 1765.77 890.01 2133.07 925.47 2063.20 1163.50 1796.96 1403.46 2057.73 1432.22
00005152 DELETE   1303.77 330.03 908.75 1375.87 1738.35 845.07 2114.52 887.16 2035.76 1126.27 1781.81 1378.83 2047.99 1408.49
00005153 DELETE   1280.72 301.90 916.25 1369.44 1702.52 812.66 2071.09 862.55 1976.85 1101.05 1726.23 1344.66 1989.73 1387.37
00005154 00000073 1276.02 266.51 919.61 1406.53 1686.92 787.84 2066.41 852.37 1951.02 1085.10 1692.03 1330.29 1960.88 1384.13
00005155 00000074 1287.73 275.29 917.72 1404.16 1687.51 799.15 2068.44 865.42 1945.78 1093.43 1678.95 1326.01 1958.53 1382.30
00005156 DELETE   1305.64 301.01 917.82 1382.42 1691.07 823.36 2083.92 878.94 1953.92 1124.75 1685.26 1335.22 1987.10 1383.04
00005157 00000076 1332.45 331.83 918.11 1378.23 1716.87 836.54 2119.80 883.58 1992.75 1139.25 1713.94 1351.82 2028.21 1387.53
00005158 00000077 1356.61 325.54 919.06 1390.48 1746.21 839.92 2148.95 882.79 2025.60 1138.31 1732.01 1350.95 2065.08 1384.07
00005159 00000078 1383.46 314.01 912.28 1415.89 1772.73 831.45 2163.39 899.01 2047.88 1140.49 1726.02 1324.69 2068.21 1383.35
00005160 00000079 1394.50 314.25 914.02 1425.65 1785.93 828.81 2179.11 899.70 2060.63 1137.11 1740.90 1332.38 2077.53 1393.80
00005161 00000080 1400.44 304.79 925.48 1408.53 1800.98 820.68 2192.60 882.61 2075.26 1114.76 1773.90 1328.60 2093.17 1382.61
00005162 00000081 1408.69 297.70 928.99 1404.49 1816.45 800.80 2209.88 869.94 2076.74 1103.75 1801.83 1315.17 2093.81 1368.22
00005163 00000082 1410.20 291.89 929.89 1419.55 1821.84 796.22 2214.17 870.17 2082.97 1104.18 1806.51 1317.94 2096.28 1374.88
00005164 00000083 1412.25 309.67 933.43 1418.71 1824.19 816.66 2216.93 885.49 2090.70 1123.88 1794.78 1330.62 2105.88 1384.20
00005165 00000084 1419.34 323.54 939.43 1417.62 1837.87 836.49 2230.17 901.26 2107.51 1147.36 1808.05 1348.59 2128.14 1399.36
00005166 00000085 1425.86 329.77 952.20 1423.29 1852.19 848.73 2237.94 911.91 2117.00 1159.07 1813.82 1359.78 2133.51 1410.57
00005167 00000086 1442.12 342.50 941.83 1418.76 1840.77 851.34 2249.40 911.59 2110.76 1154.65 1807.33 1371.74 2127.25 1423.06
00005168 00000087 1446.61 337.62 944.14 1423.27 1845.99 849.95 2253.82 907.70 2117.27 1151.07 1806.21 1367.89 2133.60 1417.75
00005169 00000088 1432.11 292.33 954.75 1470.04 1853.54 836.07 2241.17 895.62 2118.67 1151.46 1792.99 1351.53 2130.84 1400.30
00005170 00000089 1433.90 286.70 956.44 1473.41 1854.96 831.86 2247.96 889.95 2122.86 1149.13 1787.65 1341.78 2140.79 1389.41
00005171 00000090 1444.03 274.14 959.82 1476.80 1862.53 822.68 2267.09 883.07 2131.90 1144.78 1794.74 1331.22 2161.57 1380.83
00005172 00000091 1465.43 262.80 949.62 1462.78 1874.14 810.98 2274.70 885.74 2141.92 1139.71 1805.81 1301.92 2187.63 1365.57
00005173 00000092 1480.12 259.08 947.37 1456.96 1885.02 808.91 2291.79 885.42 2158.36 1136.64 1814.72 1293.29 2203.48 1358.66
00005174 00000093 1491.39 252.50 951.51 1455.01 1889.85 809.32 2306.49 886.19 2161.97 1137.18 1821.07 1285.52 2217.38 1350.71
00005175 00000094 1504.55 257.64 954.52 1444.21 1900.31 818.43 2316.71 890.62 2171.62 1146.69 1837.04 1286.32 2232.21 1347.58
00005176 00000095 1517.78 252.66 952.06 1449.32 1914.44 824.36 2330.95 890.00 2186.83 1153.37 1850.35 1295.23 2242.95 1351.17
00005177 00000096 1516.09 251.48 955.75 1457.01 1918.78 823.04 2331.64 892.29 2188.77 1148.52 1851.89 1295.04 2241.04 1354.00
00005178 00000097 1510.53 251.94 959.09 1480.25 1916.80 816.63 2323.02 891.92 2184.12 1142.11 1840.08 1289.73 2235.39 1353.60
00005179 00000098 1510.39 247.93 957.31 1489.16 1915.25 815.56 2318.17 891.61 2181.64 1140.28 1832.47 1281.20 2232.72 1345.87
00005180 00000099 1511.01 250.09 959.95 1489.57 1917.40 812.91 2318.20 891.02 2184.03 1138.91 1825.34 1275.34 2232.05 1341.85
00005181 00000100 1508.47 254.69 951.61 1489.67 1918.24 820.53 2314.51 900.04 2185.03 1153.64 1815.30 1275.42 2224.72 1344.47
00005182 00000101 1503.62 291.19 941.06 1467.33 1912.40 835.86 2305.86 920.21 2174.40 1172.45 1797.61 1292.22 2209.15 1365.91
00005183 DELETE   1493.19 326.63 946.07 1458.71 1916.97 884.60 2301.81 960.25 2178.36 1208.03 1793.58 1315.66 2199.72 1382.84
00005184 DELETE   1471.43 397.06 957.93 1418.31 1929.91 935.93 2300.22 989.76 2210.65 1281.02 1803.36 1380.89 2193.53 1433.96
00005185 00000104 1481.29 421.45 948.39 1422.08 1948.37 974.05 2317.91 1035.09 2228.69 1320.88 1804.70 1407.60 2191.35 1468.03
00005186 00000105 1487.88 430.23 935.91 1418.22 1957.68 993.01 2318.12 1055.26 2232.34 1338.22 1808.10 1419.44 2181.83 1481.40
00005187 00000106 1478.54 436.12 934.01 1401.36 1944.11 993.86 2308.89 1051.16 2221.02 1336.50 1802.09 1421.60 2174.05 1479.89
00005188 00000107 1466.47 440.50 931.67 1385.31 1930.07 989.93 2295.42 1043.66 2204.01 1332.14 1795.22 1422.10 2155.96 1477.41
00005189 00000108 1450.21 432.20 929.29 1385.24 1909.80 991.90 2272.36 1035.82 2181.21 1325.24 1790.82 1431.43 2133.92 1477.17
00005190 00000109 1444.69 424.47 924.16 1391.66 1898.73 991.46 2262.57 1035.85 2170.03 1325.99 1787.85 1443.06 2122.86 1488.15
00005191 00000110 1430.89 427.69 928.63 1394.12 1888.71 1006.56 2248.52 1044.41 2157.21 1335.73 1784.66 1457.69 2111.40 1496.43
00005192 00000111 1416.99 415.46 931.67 1417.94 1879.34 1019.02 2240.51 1058.66 2150.16 1338.70 1787.32 1483.38 2091.16 1522.61
00005193 00000112 1414.79 419.03 927.68 1435.55 1878.18 1023.78 2241.21 1067.36 2151.02 1343.60 1782.90 1494.72 2089.84 1536.64
00005194 00000113 1414.33 424.38 926.56 1434.76 1876.90 1024.25 2240.70 1069.80 2149.94 1343.10 1781.72 1497.17 2087.34 1540.64
00005195 00000114 1406.81 417.76 924.25 1429.42 1875.28 1017.98 2231.81 1066.26 2146.25 1338.86 1775.37 1488.70 2074.42 1535.13
00005196 00000115 1408.36 414.81 925.57 1420.23 1884.75 1012.85 2232.49 1059.43 2154.06 1330.75 1782.86 1480.59 2076.88 1525.83
00005197 00000116 1412.14 417.66 925.78 1401.97 1892.89 1012.03 2232.68 1054.07 2159.72 1327.06 1792.67 1472.35 2077.99 1514.31
00005198 00000117 1412.60 415.28 927.93 1401.23 1895.88 1010.44 2235.13 1051.30 2163.81 1327.71 1795.35 1472.22 2078.25 1513.38
00005199 00000118 1424.12 416.41 924.35 1398.74 1906.12 1013.89 2244.55 1055.48 2170.44 1332.84 1803.15 1473.31 2083.76 1515.06
00005200 00000119 1429.42 423.59 913.70 1386.33 1910.22 1000.54 2254.34 1049.52 2179.17 1342.45 1798.49 1475.62 2085.53 1524.90
00005201 00000120 1433.12 426.93 913.88 1379.22 1919.24 1007.89 2260.42 1051.59 2189.67 1339.28 1811.17 1476.71 2093.33 1521.18
00005202 00000121 1436.73 425.31 926.37 1378.21 1936.25 1012.95 2277.23 1059.92 2206.44 1331.99 1835.00 1476.41 2109.52 1522.30
00005203 00000122 1445.21 417.48 931.56 1384.05 1948.10 1013.38 2287.82 1059.39 2220.88 1332.38 1855.78 1481.53 2122.38 1525.82
00005204 00000123 1452.68 419.09 933.57 1381.45 1963.76 1014.46 2297.14 1064.57 2232.69 1325.15 1884.16 1475.65 2142.66 1522.00
00005205 00000124 1448.79 413.37 940.32 1377.63 1974.83 1012.74 2300.94 1060.76 2241.93 1321.93 1899.17 1470.73 2148.35 1515.07
00005206 00000125 1453.67 404.08 934.84 1380.60 1976.74 1008.19 2299.99 1053.98 2245.47 1315.14 1902.89 1463.83 2150.49 1506.73
00005207 00000126 1457.49 399.79 935.34 1378.62 1982.35 1002.86 2305.96 1049.04 2250.36 1312.70 1906.29 1457.55 2153.51 1500.98
00005208 00000127 1449.42 388.71 941.09 1387.02 1977.19 1001.42 2301.29 1046.97 2244.33 1312.34 1900.12 1459.57 2143.21 1502.40
00005209 00000128 1446.57 395.06 935.73 1380.94 1963.54 998.53 2291.29 1043.36 2232.37 1311.57 1887.62 1463.02 2133.83 1505.47
00005210 00000129 1442.54 402.76 941.54 1379.19 1964.81 1024.92 2277.25 1041.33 2229.49 1321.72 1901.77 1492.71 2124.47 1512.99
00005211 00000130 1426.64 400.83 950.06 1405.97 1956.27 1023.42 2266.79 1045.76 2223.21 1325.40 1875.18 1493.64 2106.40 1520.09
00005212 00000131 1425.48 398.90 946.26 1419.76 1949.25 1020.33 2262.05 1051.52 2212.95 1331.86 1848.74 1493.03 2088.70 1527.63
00005213 00000132 1427.75 405.61 934.51 1413.36 1946.55 999.29 2264.09 1050.59 2206.49 1337.62 1820.77 1482.97 2074.77 1533.40
00005214 00000133 1422.92 406.48 931.52 1404.35 1937.94 1001.38 2256.30 1046.59 2200.10 1337.77 1812.16 1480.63 2071.28 1526.59
00005215 00000134 1420.72 399.03 942.41 1403.54 1943.93 1020.42 2251.90 1049.72 2203.83 1333.31 1830.69 1480.60 2070.65 1514.40
00005216 00000135 1414.03 400.61 947.30 1382.95 1945.40 1019.35 2252.41 1045.23 2207.11 1329.15 1843.65 1472.61 2077.01 1502.65
00005217 00000136 1413.95 400.22 934.65 1368.94 1940.61 1014.64 2246.01 1042.94 2197.90 1319.78 1845.41 1463.90 2073.19 1495.03
00005218 00000137 1402.21 401.37 939.62 1357.33 1927.96 1014.75 2242.92 1038.34 2190.85 1317.04 1845.92 1465.02 2075.82 1491.70
00005219 00000138 1395.52 396.14 935.53 1364.00 1920.73 1013.58 2236.58 1039.56 2184.69 1316.05 1840.48 1464.75 2072.89 1492.60
00005220 00000139 1395.63 398.72 929.00 1364.86 1916.64 1016.17 2232.62 1040.93 2180.71 1315.63 1841.10 1466.32 2075.16 1492.70
00005221 00000140 1396.84 398.04 931.68 1368.91 1919.08 1019.60 2235.68 1038.81 2185.12 1318.35 1845.26 1472.51 2078.46 1494.37
00005222 00000141 1402.58 402.03 929.91 1362.82 1921.86 1023.07 2237.68 1036.75 2187.88 1317.46 1854.13 1475.24 2083.97 1492.51
00005223 00000142 1410.51 398.18 925.67 1362.09 1926.92 1019.04 2243.40 1033.47 2192.89 1312.26 1867.57 1474.60 2094.77 1491.73
00005224 00000143 1410.28 390.80 927.05 1354.25 1933.56 1017.55 2244.45 1030.34 2196.93 1303.16 1875.70 1466.05 2091.78 1481.14
00005225 00000144 1411.89 362.94 933.96 1371.30 1925.80 1038.54 2257.87 1049.45 2202.70 1312.53 1855.62 1465.86 2107.86 1482.31
00005226 00000145 1400.27 355.15 941.35 1379.57 1912.96 1034.14 2248.79 1042.44 2187.80 1317.69 1852.41 1474.54 2095.91 1488.49
00005227 00000146 1372.78 361.13 942.78 1385.62 1909.14 1000.15 2225.50 1026.39 2172.16 1295.07 1857.01 1464.08 2066.08 1488.25
00005228 00000147 1359.31 348.59 945.54 1397.76 1901.04 989.70 2220.51 1017.38 2167.95 1294.20 1845.57 1462.20 2059.59 1487.85
00005229 00000148 1363.04 346.63 939.95 1394.41 1886.47 993.88 2221.92 1017.03 2157.81 1305.72 1821.59 1462.76 2059.63 1487.77
00005230 00000149 1351.72 339.13 940.29 1399.69 1881.49 987.47 2214.32 1012.43 2154.24 1303.58 1806.74 1456.79 2045.51 1483.39
00005231 00000150 1329.88 335.86 952.67 1400.59 1874.97 969.37 2195.31 1007.96 2140.21 1289.65 1799.96 1443.94 2030.17 1479.60
00005232 00000151 1329.96 341.85 947.97 1400.39 1868.31 965.15 2187.65 1009.02 2131.50 1284.95 1793.49 1441.55 2025.78 1481.94
00005233 00000152 1330.97 342.22 947.51 1411.93 1869.99 965.21 2186.18 1013.40 2129.05 1289.79 1786.45 1446.45 2015.44 1491.15
00005234 00000153 1321.72 343.79 950.86 1421.03 1860.07 964.12 2179.32 1015.75 2119.38 1294.34 1766.31 1451.05 1999.96 1499.67
00005235 00000154 1310.10 348.27 958.56 1434.95 1854.43 962.42 2174.38 1021.05 2116.32 1302.17 1742.27 1459.61 1979.88 1514.86
00005236 00000155 1314.12 353.37 957.72 1433.64 1859.18 960.48 2175.16 1022.89 2120.96 1303.96 1738.78 1458.66 1976.04 1517.65
00005237 00000156 1314.46 352.43 958.90 1437.64 1859.05 961.98 2175.83 1023.13 2121.29 1307.35 1731.81 1456.01 1975.50 1514.40
