Video ID: 	RfFTIJ_4E1U
H: 	1080
W: 	1920
FPS: 	29.97002997002997

FRAME INDEX X0 Y0 W H [Landmarks (5 Points)]

00002220 00000000 1038.81 199.98 378.65 539.33 1146.40 412.88 1322.86 421.73 1236.86 494.38 1161.60 606.08 1301.58 615.01
00002221 00000001 1036.71 202.43 376.99 541.49 1141.74 415.23 1318.16 424.74 1230.44 500.38 1157.60 612.37 1294.10 621.97
00002222 DELETE   1031.96 212.71 380.45 539.91 1147.78 419.07 1316.52 428.45 1233.40 497.53 1160.47 609.60 1285.90 617.65
00002223 00000003 1030.54 216.43 379.71 538.89 1147.07 424.05 1313.11 433.86 1232.08 505.66 1160.40 614.70 1281.66 623.54
00002224 00000004 1035.34 215.75 374.82 542.59 1136.26 423.65 1310.25 426.49 1229.99 509.69 1155.93 632.70 1275.73 635.92
00002225 00000005 1035.23 214.27 373.12 546.96 1134.70 426.50 1310.11 428.92 1228.92 513.19 1154.61 633.25 1280.76 635.95
00002226 00000006 1036.40 208.21 371.09 549.66 1130.89 425.98 1311.77 426.36 1226.74 511.28 1151.95 630.78 1289.42 631.66
00002227 00000007 1035.38 210.56 371.54 546.09 1131.02 426.05 1311.02 426.62 1227.60 510.85 1152.40 629.61 1289.28 630.69
00002228 00000008 1030.68 207.36 374.60 536.21 1131.52 422.26 1309.69 430.28 1220.50 508.82 1150.13 611.93 1292.06 620.27
00002229 DELETE   1032.14 201.01 374.17 537.07 1131.90 415.37 1312.30 427.08 1219.86 498.72 1144.82 601.35 1295.35 612.76
00002230 00000010 1032.12 197.69 374.30 536.18 1132.42 410.39 1313.59 422.52 1220.98 491.78 1144.28 596.83 1296.05 608.71
00002231 00000011 1034.98 197.38 372.76 539.85 1135.17 410.51 1312.73 420.63 1222.46 490.62 1147.07 597.81 1295.53 608.20
00002232 00000012 1033.67 197.35 374.05 539.55 1134.90 409.72 1313.13 420.14 1222.73 490.95 1146.79 598.40 1295.28 609.08
00002233 00000013 1035.63 199.15 372.84 541.03 1138.19 410.31 1314.68 419.78 1226.36 492.05 1150.15 600.67 1296.24 610.55
00002234 00000014 1036.12 198.52 373.23 542.72 1138.85 413.30 1316.07 422.24 1228.26 496.47 1152.27 603.03 1299.24 612.30
00002235 00000015 1034.77 199.77 374.62 540.09 1137.42 416.36 1317.21 425.66 1228.08 502.22 1151.88 604.58 1301.37 613.94
00002236 00000016 1036.37 203.98 372.98 539.38 1138.05 420.71 1318.36 427.63 1229.30 506.39 1153.07 608.71 1303.71 616.03
00002237 00000017 1036.27 203.56 373.20 539.95 1138.23 420.34 1318.93 427.54 1229.33 505.30 1153.07 608.57 1303.89 616.11
00002238 00000018 1037.16 204.41 372.64 540.25 1139.66 421.26 1319.75 428.24 1231.55 505.72 1153.85 608.63 1305.31 615.91
00002239 00000019 1037.18 203.89 372.74 538.61 1139.43 420.42 1320.79 428.66 1231.24 504.52 1152.96 605.96 1307.25 614.19
00002240 00000020 1037.59 202.13 373.06 533.78 1140.42 416.01 1321.83 425.83 1231.55 499.80 1152.70 600.70 1307.45 610.36
00002241 00000021 1036.68 201.13 373.33 525.53 1140.44 411.78 1322.85 422.94 1232.64 494.58 1151.90 594.25 1306.95 605.31
00002242 00000022 1037.16 199.48 373.02 524.50 1140.03 411.16 1323.26 422.06 1232.00 493.48 1152.08 593.80 1307.57 604.63
00002243 00000023 1036.20 197.00 373.98 522.13 1141.03 408.09 1322.21 420.14 1233.24 489.75 1151.09 587.08 1305.81 598.71
00002244 00000024 1034.96 195.30 375.40 523.32 1139.04 407.55 1321.94 419.82 1231.54 488.91 1148.55 586.72 1305.21 598.51
00002245 00000025 1034.30 196.05 374.10 525.88 1137.67 408.79 1321.17 420.71 1230.61 492.35 1149.34 590.97 1305.21 602.67
00002246 00000026 1033.31 200.25 375.04 538.88 1136.53 410.89 1320.26 423.68 1229.27 496.94 1145.85 596.39 1305.54 608.44
00002247 00000027 1033.56 200.53 374.23 537.86 1135.92 411.56 1319.67 423.67 1227.91 498.41 1146.10 597.31 1305.06 608.91
00002248 00000028 1032.50 201.84 374.98 540.70 1133.70 417.33 1319.48 428.94 1226.35 506.17 1145.36 602.62 1305.43 613.56
00002249 00000029 1032.59 205.56 374.02 538.56 1133.24 420.56 1317.97 430.98 1225.30 511.15 1145.16 605.45 1304.92 615.55
00002250 00000030 1032.11 206.66 374.72 538.42 1132.64 423.06 1319.02 431.66 1227.63 515.03 1147.32 608.40 1308.60 616.80
00002251 00000031 1031.64 205.76 376.34 538.83 1132.88 424.68 1319.49 431.88 1229.22 515.93 1149.32 609.67 1309.96 616.78
00002252 00000032 1031.58 205.93 376.55 538.82 1132.97 424.78 1319.60 431.98 1229.43 515.79 1149.37 609.73 1309.96 616.84
00002253 00000033 1032.04 204.68 377.20 540.56 1134.91 424.29 1320.77 431.58 1232.24 514.89 1151.99 609.07 1311.07 616.03
00002254 00000034 1032.97 204.45 376.22 541.22 1136.35 423.33 1321.34 430.14 1233.16 513.63 1153.74 609.68 1311.28 616.25
00002255 00000035 1035.00 205.86 375.53 540.78 1138.10 422.37 1322.78 429.80 1233.11 512.30 1154.50 609.60 1311.83 616.71
00002256 00000036 1035.57 203.90 375.84 542.80 1139.56 421.97 1322.34 428.15 1234.22 510.13 1156.91 610.43 1310.21 616.60
00002257 00000037 1035.51 203.66 375.85 542.82 1139.61 421.88 1322.25 428.28 1234.11 510.05 1156.75 610.32 1309.96 616.70
00002258 00000038 1036.06 203.20 376.01 542.37 1140.55 421.05 1321.33 427.11 1234.44 509.84 1158.21 610.41 1308.61 616.58
00002259 00000039 1035.51 202.20 376.59 543.23 1140.63 420.24 1320.26 426.26 1234.19 508.90 1158.44 611.49 1305.38 617.76
00002260 00000040 1035.18 202.14 376.89 545.12 1141.07 419.39 1319.05 425.27 1234.17 507.96 1159.02 613.30 1302.50 619.61
00002261 00000041 1036.34 202.38 375.61 541.85 1140.25 419.57 1320.51 426.22 1233.34 509.33 1157.18 611.76 1304.83 618.72
00002262 00000042 1036.44 202.50 375.72 541.25 1140.96 419.73 1321.53 426.31 1234.44 508.19 1157.58 611.14 1306.02 618.03
00002263 00000043 1037.88 203.48 374.29 538.87 1141.83 419.02 1323.86 427.02 1236.50 507.26 1156.45 606.65 1310.98 614.51
00002264 00000044 1037.45 202.64 375.04 539.70 1141.79 418.63 1324.23 426.62 1237.14 506.40 1156.40 605.57 1312.49 613.26
00002265 00000045 1036.59 201.44 375.48 539.25 1142.00 418.69 1324.34 426.77 1238.17 504.87 1156.74 604.18 1313.90 611.89
00002266 00000046 1036.96 200.76 375.32 538.16 1142.79 418.14 1325.84 425.91 1239.79 503.42 1157.40 602.92 1315.79 610.41
00002267 00000047 1036.95 201.10 375.33 537.38 1142.74 418.05 1325.98 425.96 1239.59 503.03 1157.29 602.66 1315.65 610.30
00002268 00000048 1036.44 200.59 375.57 537.74 1142.47 417.91 1326.40 425.93 1240.09 503.01 1157.30 602.40 1316.69 610.06
00002269 00000049 1036.11 201.30 375.87 537.06 1142.25 418.20 1326.93 426.61 1240.03 503.89 1157.20 602.85 1317.16 610.86
00002270 00000050 1037.30 202.26 374.45 536.79 1142.86 418.70 1327.54 427.71 1240.42 504.61 1156.74 602.79 1317.78 611.31
00002271 00000051 1036.83 203.14 374.39 536.68 1142.88 418.85 1327.95 428.17 1241.12 504.99 1156.34 602.80 1318.43 611.54
00002272 00000052 1037.80 204.47 373.66 536.50 1143.58 418.91 1328.40 428.55 1241.45 505.41 1156.55 602.85 1318.57 611.85
00002273 00000053 1038.00 204.82 373.31 537.62 1143.37 419.05 1328.78 428.92 1241.43 505.21 1155.67 602.91 1318.93 612.09
00002274 00000054 1038.39 204.59 372.66 538.72 1143.73 419.43 1328.83 429.43 1241.65 505.47 1155.28 603.30 1318.76 612.58
00002275 00000055 1039.61 206.01 371.26 539.55 1143.99 419.60 1329.00 429.27 1241.81 506.13 1155.54 605.04 1318.51 614.11
00002276 00000056 1038.99 205.07 371.90 539.40 1144.34 419.29 1327.52 429.34 1241.51 505.71 1155.80 604.69 1315.81 614.20
00002277 00000057 1038.54 205.28 372.47 538.93 1143.92 419.23 1327.06 429.42 1240.96 505.94 1155.43 604.36 1315.28 613.95
00002278 DELETE   1035.65 202.06 371.70 537.23 1144.69 426.40 1318.69 433.98 1240.09 504.46 1157.86 602.60 1307.60 609.78
00002279 00000059 1034.76 205.58 370.50 532.55 1144.24 429.67 1319.09 439.82 1237.10 501.22 1155.20 599.57 1307.11 608.44
00002280 DELETE   1030.96 201.76 374.43 531.76 1140.30 425.06 1314.29 432.02 1235.40 500.01 1156.44 601.15 1302.45 607.80
00002281 00000061 1031.21 197.73 373.85 538.26 1139.32 418.81 1312.49 425.90 1234.90 500.57 1156.98 601.63 1301.10 608.94
00002282 00000062 1030.17 198.57 374.35 537.76 1138.72 418.82 1311.66 425.93 1234.24 499.82 1156.70 602.01 1299.49 609.30
00002283 00000063 1027.78 197.68 375.84 540.36 1136.50 417.15 1309.27 423.06 1231.87 501.00 1157.86 605.54 1296.04 612.02
00002284 00000064 1027.54 197.98 374.90 539.94 1134.55 415.49 1306.53 420.67 1228.91 501.92 1156.52 606.26 1291.92 612.34
00002285 00000065 1027.11 196.33 374.30 538.79 1131.38 413.39 1304.82 419.40 1224.79 497.49 1151.30 602.94 1289.55 609.88
00002286 00000066 1025.91 194.44 373.86 537.33 1129.75 410.82 1301.68 416.41 1221.23 493.23 1148.91 601.19 1283.33 608.03
00002287 00000067 1025.12 194.31 374.45 535.68 1128.92 410.97 1301.32 415.72 1221.09 492.04 1149.56 601.44 1283.31 607.49
00002288 00000068 1024.48 195.13 374.04 537.39 1127.48 408.56 1299.18 414.87 1218.00 486.62 1144.17 597.99 1279.55 605.53
00002289 00000069 1022.55 195.89 373.90 536.66 1124.68 406.13 1298.96 413.02 1215.01 483.34 1138.73 594.59 1279.17 602.35
00002290 00000070 1021.85 193.91 374.21 538.19 1122.25 404.78 1300.30 413.49 1213.03 482.70 1135.61 592.99 1282.09 601.99
00002291 00000071 1021.88 193.77 374.52 537.33 1122.06 403.84 1301.46 413.38 1212.60 482.06 1134.49 591.82 1282.90 601.47
00002292 00000072 1021.76 193.76 374.64 536.78 1121.70 404.05 1301.43 413.40 1212.37 481.68 1134.59 592.07 1283.02 601.57
00002293 00000073 1022.28 193.57 374.45 536.12 1120.82 403.06 1302.92 412.37 1212.07 480.20 1133.74 591.39 1285.72 600.88
00002294 00000074 1022.72 193.18 374.41 536.97 1121.12 403.36 1302.81 412.16 1212.31 480.32 1134.43 591.66 1286.38 600.62
00002295 00000075 1026.37 192.51 371.60 545.58 1123.04 403.18 1305.59 411.77 1213.45 480.37 1132.35 593.58 1287.79 602.64
00002296 00000076 1026.99 194.08 371.78 544.21 1124.43 403.98 1305.30 411.92 1214.51 481.82 1132.76 593.68 1287.42 602.41
00002297 00000077 1026.61 193.76 372.12 544.60 1124.34 403.81 1305.51 412.14 1214.57 481.30 1132.82 593.58 1287.71 602.57
00002298 00000078 1025.64 193.99 373.26 534.66 1124.70 404.99 1303.80 413.37 1214.72 481.21 1137.26 592.06 1286.66 600.99
00002299 00000079 1024.49 193.64 375.39 528.75 1125.82 404.67 1302.66 413.73 1215.87 481.04 1140.01 588.90 1286.34 598.02
00002300 00000080 1026.68 191.57 374.85 528.71 1126.99 403.79 1302.25 410.76 1216.38 479.28 1141.79 586.40 1288.08 593.61
00002301 00000081 1026.37 190.41 375.53 529.38 1128.74 400.20 1298.92 405.86 1216.67 476.99 1143.37 582.65 1284.83 588.75
00002302 00000082 1025.56 190.30 375.72 529.23 1128.96 399.55 1298.74 405.86 1217.32 476.54 1142.98 582.02 1284.08 588.70
00002303 00000083 1026.49 185.33 375.56 530.72 1128.97 395.08 1298.23 399.04 1217.76 467.88 1144.26 578.85 1283.79 583.28
00002304 00000084 1027.52 184.35 373.63 531.35 1128.96 391.85 1298.62 396.62 1215.72 464.10 1142.44 576.55 1281.77 581.93
00002305 00000085 1027.87 183.98 373.49 531.25 1128.19 391.75 1297.53 398.10 1213.53 466.15 1141.21 577.02 1279.32 583.69
00002306 00000086 1027.79 185.80 374.07 534.65 1127.69 396.07 1297.00 398.52 1213.67 470.30 1143.76 586.47 1275.40 590.26
00002307 00000087 1027.96 185.39 373.79 534.14 1127.75 395.93 1296.63 398.25 1214.09 470.51 1145.07 586.90 1275.39 590.56
00002308 00000088 1030.87 189.52 371.47 543.14 1129.67 400.76 1296.52 401.42 1218.41 474.63 1148.42 597.49 1274.68 600.24
00002309 00000089 1032.90 191.17 371.59 547.15 1129.01 404.24 1300.22 403.68 1218.47 475.51 1147.38 601.43 1280.58 603.43
00002310 00000090 1034.46 191.41 372.76 546.31 1131.23 405.92 1304.05 405.13 1221.61 476.61 1150.71 601.48 1287.99 603.00
00002311 00000091 1034.63 192.41 374.35 542.12 1132.88 405.86 1307.28 405.97 1224.30 477.39 1152.19 599.37 1292.57 601.42
00002312 00000092 1034.44 191.92 374.63 542.01 1132.90 406.09 1307.51 406.30 1224.40 477.26 1152.20 598.97 1293.08 601.06
00002313 00000093 1034.79 189.41 374.82 534.63 1134.24 405.41 1309.54 406.78 1225.30 477.29 1153.14 594.48 1296.17 597.33
00002314 00000094 1035.09 187.78 375.38 527.24 1134.18 404.50 1310.57 407.79 1224.43 477.51 1153.01 590.70 1297.36 594.88
00002315 00000095 1034.12 187.36 376.68 525.83 1134.82 404.00 1311.06 407.20 1226.55 476.70 1153.00 586.90 1299.76 590.67
00002316 00000096 1033.42 187.49 377.05 526.61 1135.36 403.15 1309.38 406.10 1226.76 476.24 1152.71 584.92 1298.74 588.51
00002317 00000097 1033.39 188.12 376.88 525.56 1135.40 403.24 1308.90 406.24 1226.45 476.15 1152.44 584.47 1298.06 588.11
00002318 00000098 1032.18 188.28 376.51 526.95 1134.60 402.93 1307.19 405.70 1226.01 476.29 1151.95 584.16 1297.20 587.71
00002319 00000099 1031.55 187.35 376.17 528.10 1133.08 402.99 1306.82 405.35 1225.34 475.29 1151.30 584.03 1298.08 586.99
00002320 00000100 1031.54 186.88 374.79 529.03 1131.43 402.47 1306.68 404.44 1223.46 474.23 1149.45 584.06 1297.80 586.70
00002321 00000101 1030.13 187.23 375.10 529.26 1130.58 401.92 1305.63 404.62 1222.92 474.84 1148.45 583.45 1296.82 586.66
00002322 00000102 1030.17 186.78 375.00 529.95 1129.97 401.70 1305.48 404.92 1221.31 474.49 1147.24 583.30 1295.92 586.91
00002323 00000103 1030.86 186.84 372.85 530.17 1129.21 400.46 1304.73 405.01 1219.40 474.04 1145.41 582.85 1294.12 587.75
00002324 00000104 1030.06 187.77 372.53 530.88 1128.21 400.01 1303.94 405.74 1218.27 474.10 1143.71 583.29 1292.20 589.31
00002325 00000105 1029.14 186.63 371.87 531.93 1125.77 400.33 1302.21 406.71 1215.41 474.85 1143.31 586.77 1289.09 593.31
00002326 00000106 1027.91 188.08 371.74 530.23 1125.35 401.86 1301.63 407.44 1215.96 477.67 1145.04 589.14 1288.92 595.10
00002327 00000107 1028.47 189.23 371.46 527.16 1125.35 402.27 1301.72 407.64 1215.91 477.94 1145.16 588.81 1288.85 594.68
00002328 00000108 1027.16 188.02 373.23 526.37 1123.85 403.52 1303.70 409.11 1217.14 479.02 1143.29 584.09 1295.71 589.50
00002329 00000109 1027.25 189.31 372.20 524.79 1124.94 405.45 1304.36 409.60 1219.52 481.51 1145.90 583.26 1299.22 587.33
00002330 00000110 1026.65 190.97 372.84 525.34 1126.16 407.52 1305.26 408.90 1221.89 482.15 1148.84 584.02 1302.98 585.71
00002331 00000111 1026.41 192.69 373.33 526.68 1126.26 409.58 1306.75 410.80 1224.02 485.17 1149.54 587.02 1305.22 588.59
00002332 00000112 1026.36 192.84 373.30 526.63 1125.80 409.87 1306.55 411.08 1223.75 485.27 1149.34 587.54 1304.70 589.13
00002333 00000113 1026.82 192.59 370.72 531.00 1124.13 411.38 1307.38 413.67 1222.99 487.97 1149.41 594.88 1302.95 597.66
00002334 00000114 1024.23 195.57 372.20 540.62 1124.43 412.04 1301.06 412.28 1220.79 487.23 1146.52 599.66 1292.52 601.48
00002335 00000115 1024.19 195.21 370.30 545.38 1121.98 411.09 1300.77 412.29 1218.01 485.68 1142.68 600.94 1293.04 603.52
00002336 00000116 1023.24 193.01 369.39 549.43 1119.92 407.77 1300.17 411.47 1214.38 481.37 1136.69 599.05 1289.06 603.64
00002337 00000117 1023.72 193.36 368.99 548.34 1119.91 407.74 1299.61 411.26 1213.52 481.76 1136.68 598.96 1288.29 603.44
00002338 00000118 1022.05 191.35 368.65 553.26 1118.09 404.77 1298.84 410.59 1211.62 479.81 1132.84 597.84 1286.13 604.16
00002339 00000119 1016.30 185.17 372.51 558.97 1113.73 401.52 1297.23 408.81 1208.24 476.22 1129.84 594.06 1286.09 600.85
00002340 00000120 1013.55 186.72 373.88 546.05 1112.45 404.50 1293.57 413.68 1204.79 472.86 1130.77 589.48 1282.24 597.74
00002341 00000121 1009.20 190.47 372.53 529.64 1112.63 407.84 1286.56 419.36 1201.32 474.84 1129.25 581.35 1274.09 591.72
00002342 00000122 1010.83 189.84 370.65 529.94 1113.29 408.03 1285.59 419.02 1201.02 474.76 1130.15 581.23 1274.15 591.15
00002343 00000123 1004.66 191.41 374.46 528.24 1107.59 409.75 1285.22 421.80 1198.11 478.64 1122.93 581.51 1273.72 592.08
00002344 00000124 997.45 192.39 380.14 530.16 1099.80 409.41 1282.96 418.85 1194.49 479.22 1118.38 585.15 1271.93 593.77
00002345 00000125 994.91 192.84 381.57 534.82 1096.05 410.31 1276.68 415.92 1189.64 483.62 1119.25 590.45 1266.67 595.88
00002346 00000126 996.38 189.92 378.77 551.22 1094.67 409.03 1276.08 415.88 1185.93 488.95 1114.72 597.45 1263.84 604.05
00002347 00000127 996.08 189.58 378.84 552.77 1094.47 409.09 1276.42 416.72 1185.80 489.31 1113.99 597.39 1263.78 604.51
00002348 00000128 994.44 187.95 379.76 558.38 1092.27 409.57 1276.71 416.28 1184.42 491.78 1112.27 601.60 1263.73 607.94
00002349 00000129 991.44 189.07 380.50 553.82 1093.72 411.64 1271.98 419.41 1184.58 493.13 1114.03 601.71 1255.00 609.21
00002350 00000130 990.87 190.25 379.74 549.48 1093.27 411.15 1268.98 416.85 1183.97 491.64 1113.70 601.49 1249.59 607.60
00002351 00000131 991.08 190.42 378.53 546.98 1093.61 408.70 1267.63 413.17 1183.56 488.14 1114.33 600.54 1246.88 605.75
00002352 00000132 991.21 190.82 378.55 546.22 1093.67 409.21 1267.60 413.35 1183.42 488.05 1114.33 600.36 1246.73 605.30
00002353 00000133 992.37 189.42 376.88 542.00 1092.49 405.63 1265.29 410.15 1180.65 482.82 1114.37 595.69 1246.56 601.01
00002354 00000134 992.70 187.95 376.33 536.81 1092.02 402.46 1266.00 408.96 1180.05 479.83 1111.31 589.84 1246.61 596.68
00002355 00000135 993.20 186.15 375.46 535.58 1091.18 398.96 1265.54 406.07 1179.19 477.19 1109.57 584.63 1247.52 592.01
00002356 00000136 993.35 185.42 375.19 535.44 1091.36 397.91 1265.05 405.33 1178.90 478.28 1111.93 584.13 1244.67 591.69
00002357 00000137 993.17 185.16 375.52 536.44 1090.65 397.78 1265.36 404.98 1178.34 478.95 1111.28 584.73 1244.33 592.10
00002358 00000138 994.42 187.13 374.40 535.11 1092.25 399.90 1265.38 407.12 1179.08 479.98 1112.63 585.78 1243.15 593.26
00002359 00000139 992.75 187.70 377.10 539.72 1091.15 402.10 1265.97 407.57 1179.68 482.35 1113.82 592.49 1243.12 598.53
00002360 00000140 994.19 187.71 377.28 546.17 1091.72 403.40 1267.90 409.46 1179.90 481.54 1112.14 594.46 1250.42 600.99
00002361 00000141 997.28 186.07 377.01 557.10 1091.67 400.85 1274.20 408.41 1180.00 481.59 1108.24 593.65 1259.37 600.88
00002362 00000142 996.89 186.35 377.59 556.79 1092.12 400.63 1274.46 407.85 1181.04 481.30 1109.15 593.91 1259.64 600.92
00002363 00000143 998.16 186.48 377.21 558.34 1093.94 400.24 1277.04 408.24 1183.92 480.31 1109.88 595.18 1260.63 603.01
00002364 00000144 1000.17 185.35 377.09 557.42 1097.63 400.21 1277.28 408.09 1187.23 479.14 1112.75 593.71 1259.51 601.53
00002365 00000145 1002.26 185.87 378.48 548.54 1101.62 399.46 1278.09 407.87 1190.01 479.56 1115.68 591.01 1257.65 599.37
00002366 00000146 1004.33 184.92 378.74 544.08 1104.15 399.17 1278.86 405.26 1192.62 478.72 1122.24 590.98 1257.96 597.20
00002367 00000147 1003.86 185.80 379.52 543.00 1103.69 398.82 1279.26 404.48 1192.58 478.29 1122.40 591.36 1258.47 597.27
00002368 00000148 1006.37 186.85 380.04 538.26 1107.52 396.49 1282.66 403.77 1195.91 477.78 1125.12 589.06 1260.71 596.32
00002369 00000149 1008.68 187.06 380.59 536.74 1110.12 395.27 1285.47 403.49 1197.66 475.69 1126.50 587.81 1263.20 595.77
00002370 00000150 1011.60 185.50 378.75 537.06 1112.78 394.33 1287.88 403.02 1199.93 475.41 1128.68 587.87 1265.37 596.20
00002371 00000151 1013.89 185.09 378.83 537.06 1112.68 395.11 1291.26 404.58 1200.01 474.92 1128.75 587.02 1271.59 595.86
00002372 00000152 1014.01 185.87 378.80 535.91 1112.93 394.76 1291.47 404.51 1199.93 474.42 1128.73 586.52 1271.31 595.63
00002373 DELETE   1019.67 190.08 374.10 530.14 1118.06 399.35 1291.12 411.34 1199.97 475.70 1130.77 582.84 1273.79 594.16
00002374 00000154 1021.93 190.08 374.40 535.24 1118.32 404.67 1292.66 416.08 1199.28 474.48 1130.51 584.12 1278.24 594.46
00002375 DELETE   1025.28 188.23 372.55 542.22 1115.68 404.05 1292.76 414.41 1194.14 476.54 1127.08 587.51 1278.00 597.05
00002376 00000156 1023.78 185.24 375.64 545.21 1111.00 401.84 1289.93 410.45 1188.04 477.86 1122.33 588.08 1275.01 596.21
00002377 00000157 1024.18 185.87 374.92 544.01 1111.07 401.78 1289.75 410.53 1187.36 477.64 1121.94 587.52 1274.53 595.84
00002378 00000158 1023.65 187.75 375.96 539.85 1104.67 401.68 1284.81 409.05 1176.74 478.95 1113.89 586.53 1269.65 593.84
00002379 00000159 1022.73 191.32 374.31 534.23 1099.72 400.50 1276.66 406.47 1165.63 482.54 1106.52 585.31 1260.69 592.05
00002380 00000160 1018.58 192.88 376.02 532.53 1093.22 401.57 1269.04 407.38 1155.85 481.47 1100.75 584.09 1253.64 590.71
00002381 00000161 1012.47 195.51 378.39 530.84 1087.23 403.89 1261.08 409.23 1147.02 483.12 1095.23 585.73 1243.15 591.77
00002382 00000162 1012.34 195.88 379.09 531.00 1087.40 404.19 1261.23 409.34 1147.04 483.87 1095.50 585.97 1243.31 591.89
