Video ID: 	WzHMRG7jhpQ
H: 	1080
W: 	1920
FPS: 	23.976023976023978

FRAME INDEX X0 Y0 W H [Landmarks (5 Points)]

00001256 00000000 518.36 124.26 512.54 748.42 695.33 438.42 923.91 399.48 870.27 553.16 732.51 677.51 959.54 645.00
00001257 00000001 510.83 121.03 515.24 748.44 690.70 435.11 920.06 399.89 864.22 552.44 726.87 674.06 952.80 644.23
00001258 00000002 508.27 125.22 516.14 745.14 689.38 434.33 920.96 403.57 861.97 554.76 717.73 672.43 947.05 646.49
00001259 00000003 510.32 130.05 515.27 745.38 688.79 436.19 922.35 404.76 862.65 558.73 712.42 675.19 948.09 649.04
00001260 00000004 508.30 132.09 517.42 742.07 687.31 434.82 924.94 404.78 862.98 560.01 706.10 674.41 946.78 649.73
00001261 00000005 504.98 134.95 517.50 742.34 683.49 434.20 923.35 406.77 857.67 562.18 701.09 677.11 941.50 654.48
00001262 00000006 503.96 137.58 514.60 743.28 681.69 440.99 920.40 416.13 852.35 564.83 697.64 681.11 935.62 660.29
00001263 00000007 499.90 133.54 517.73 760.51 681.23 442.13 919.85 424.07 848.70 562.16 698.03 687.91 930.85 671.81
00001264 00000008 496.45 135.37 520.79 779.66 689.30 434.20 910.51 414.69 848.65 554.92 711.71 704.15 918.66 687.11
00001265 00000009 496.20 134.65 522.80 800.44 690.01 419.94 910.35 402.08 853.02 545.85 720.60 709.78 921.41 693.82
00001266 00000010 498.83 133.67 524.06 805.25 689.48 410.36 913.29 394.50 853.98 538.35 727.64 711.59 923.55 696.98
00001267 00000011 505.44 139.06 522.90 797.05 695.96 407.58 919.37 395.07 858.41 536.63 733.56 707.40 927.69 695.56
00001268 00000012 517.94 131.80 520.49 784.38 708.83 407.77 933.84 398.66 868.01 546.16 741.40 698.40 935.49 688.93
00001269 00000013 531.29 124.55 517.41 771.96 713.99 407.11 952.18 398.82 879.13 548.32 749.33 688.11 951.33 678.04
00001270 DELETE   539.70 121.68 520.20 752.28 721.04 412.44 955.22 398.78 885.36 540.89 761.62 675.15 967.69 662.26
00001271 DELETE   549.78 121.83 519.53 747.87 729.48 411.85 964.73 396.70 895.05 537.56 768.59 671.87 979.27 658.10
00001272 00000016 555.01 127.16 524.02 737.26 741.01 414.92 982.65 393.84 913.25 534.63 781.09 674.31 992.07 654.03
00001273 00000017 563.48 135.89 523.26 733.48 750.41 414.85 989.71 393.58 922.88 537.95 789.45 674.70 1001.88 654.63
00001274 00000018 573.75 127.91 519.22 742.94 755.75 422.59 988.09 404.00 923.54 536.29 783.25 670.27 1010.77 653.65
00001275 DELETE   581.84 123.67 522.43 741.75 759.18 425.16 995.20 403.87 926.77 530.49 786.95 667.34 1019.82 648.64
00001276 DELETE   594.24 119.95 521.38 739.18 764.84 410.28 1004.86 392.01 930.80 520.69 802.66 663.14 1031.04 646.29
00001277 00000021 604.37 116.84 517.18 736.92 771.41 404.30 1015.45 386.96 939.17 517.10 809.57 660.17 1039.86 643.77
00001278 00000022 606.64 120.35 513.33 733.80 774.85 406.72 1013.64 388.92 940.04 519.49 819.49 665.52 1035.76 649.02
00001279 00000023 606.07 119.09 509.90 741.50 778.33 409.66 1014.32 396.21 939.94 526.11 826.61 678.39 1023.72 666.15
00001280 00000024 604.31 122.81 509.27 741.94 779.48 410.92 1012.30 396.55 941.37 528.61 829.28 681.97 1021.85 669.04
00001281 00000025 601.48 119.48 509.11 741.80 776.21 407.63 1009.56 392.72 938.48 527.96 827.36 680.25 1018.50 666.60
00001282 00000026 595.56 121.35 511.86 738.87 769.52 407.56 1002.35 387.14 933.68 523.70 824.99 681.44 1015.11 663.53
00001283 00000027 586.53 121.26 515.94 735.24 758.90 406.06 996.74 385.08 924.35 523.27 812.01 678.45 1010.96 660.03
00001284 00000028 573.11 130.03 520.44 734.09 750.52 407.90 991.75 380.28 925.43 524.13 815.47 686.26 1003.28 660.31
00001285 00000029 568.67 142.35 513.39 742.12 744.77 407.50 985.67 389.93 918.56 531.63 797.27 692.72 992.24 675.11
00001286 00000030 559.04 140.39 515.37 752.05 740.51 408.90 976.43 398.61 909.46 536.15 783.80 692.80 977.78 681.54
00001287 00000031 548.32 141.53 513.61 747.03 729.88 406.07 966.02 401.22 892.74 535.86 770.88 687.78 962.01 680.85
00001288 00000032 546.14 141.87 505.73 735.98 719.67 396.93 957.27 396.77 874.80 540.46 761.02 683.45 943.08 680.34
00001289 00000033 542.59 141.77 503.13 725.95 710.91 398.14 948.27 397.80 865.97 533.06 749.13 678.67 934.81 677.41
00001290 00000034 535.11 143.80 503.70 721.84 705.60 396.39 943.95 395.15 859.04 529.57 740.18 674.70 929.48 672.69
00001291 00000035 532.58 141.55 503.71 722.00 702.80 397.92 939.95 394.61 856.43 527.89 735.67 671.25 932.51 667.50
00001292 00000036 530.34 141.22 502.18 722.29 699.66 400.02 936.70 394.73 854.04 530.02 735.16 672.91 931.74 667.65
00001293 00000037 528.09 140.97 501.01 721.36 698.31 400.31 932.57 393.94 851.87 528.44 741.82 676.31 925.43 670.47
00001294 00000038 525.54 145.64 500.65 717.31 692.92 398.67 930.32 389.61 851.66 526.15 744.86 682.75 923.38 674.88
00001295 00000039 514.49 142.86 509.44 723.85 683.66 398.32 926.42 376.66 853.48 526.67 749.82 690.15 926.95 669.96
00001296 00000040 512.07 140.23 511.30 729.70 680.86 399.81 922.91 375.85 850.79 526.89 749.40 692.24 925.02 670.02
00001297 00000041 513.52 144.02 511.23 731.55 679.47 401.03 923.24 375.24 850.96 528.41 752.93 698.97 924.23 675.77
00001298 00000042 520.22 127.63 509.13 738.37 688.03 414.46 924.03 390.05 851.23 530.15 752.47 689.33 936.08 668.92
00001299 DELETE   525.24 118.84 510.87 745.70 698.79 420.79 930.80 391.30 866.13 524.09 763.57 687.27 957.60 662.28
00001300 DELETE   535.01 121.86 507.39 737.85 705.78 433.02 933.24 393.15 875.98 518.47 781.65 689.97 971.29 657.45
00001301 00000045 533.65 122.85 512.79 742.24 712.68 435.74 931.58 390.80 886.51 516.30 798.46 693.54 978.47 656.58
00001302 00000046 533.66 123.15 513.45 743.07 720.32 436.68 935.85 392.08 897.45 517.45 808.59 695.47 982.41 658.59
00001303 00000047 533.03 122.41 518.02 750.00 722.74 435.31 938.48 392.04 900.30 519.11 809.43 695.83 985.10 659.79
00001304 00000048 533.62 124.47 516.73 754.41 718.62 435.43 939.84 393.73 896.13 521.22 799.85 697.14 982.02 662.86
00001305 00000049 532.67 126.60 515.38 756.44 712.96 433.11 937.67 394.99 888.68 523.11 783.88 694.29 976.76 663.06
00001306 00000050 530.72 126.72 516.76 755.79 711.67 435.34 938.73 398.22 887.12 526.09 776.02 690.16 978.19 659.49
00001307 00000051 528.54 128.30 516.54 751.64 709.75 439.53 938.61 404.12 885.40 532.07 770.40 689.07 977.06 659.49
00001308 00000052 530.75 133.87 512.54 743.05 708.57 445.23 939.32 408.63 884.66 538.88 767.93 688.31 978.42 657.85
00001309 00000053 528.88 136.82 514.22 739.68 706.41 447.67 939.78 410.83 883.57 542.54 764.39 689.83 978.73 658.96
00001310 00000054 531.29 143.82 510.82 733.50 708.55 449.63 941.65 415.17 884.33 549.84 767.20 694.46 975.66 665.59
00001311 00000055 532.20 147.53 514.39 737.74 713.73 450.15 943.82 416.38 890.09 551.41 783.33 708.56 975.27 680.10
00001312 00000056 533.50 146.76 514.35 739.06 716.61 451.47 944.01 417.19 891.68 552.15 787.30 707.82 978.45 678.75
00001313 00000057 531.63 147.24 515.39 739.46 715.66 449.92 943.82 415.64 892.06 550.47 787.02 707.91 978.75 678.88
00001314 00000058 534.78 152.45 509.29 733.64 710.67 445.39 941.50 414.38 884.89 542.05 782.77 709.72 970.49 683.49
00001315 DELETE   524.64 149.52 506.54 735.38 704.92 439.88 936.26 417.77 873.40 531.56 761.66 699.80 957.75 681.18
00001316 DELETE   511.96 145.23 512.83 738.52 699.87 421.83 930.72 412.19 865.99 520.73 744.51 689.38 940.61 680.41
00001317 00000061 495.39 150.15 523.07 730.39 684.16 411.57 926.46 406.94 855.44 519.64 729.83 686.49 924.83 680.15
00001318 00000062 487.67 150.40 523.69 727.48 679.69 406.37 919.33 406.53 846.57 515.82 717.72 677.70 913.91 674.84
00001319 00000063 480.40 154.85 524.62 717.60 677.05 402.13 915.01 409.19 840.47 505.01 711.29 668.17 906.01 670.71
00001320 00000064 477.87 149.84 523.93 718.58 675.76 393.40 911.57 399.89 838.48 497.32 710.66 661.14 903.23 662.96
00001321 00000065 474.58 143.38 520.71 719.74 674.88 388.66 907.77 394.93 839.49 487.11 712.36 655.67 901.77 657.32
00001322 00000066 476.41 131.07 517.72 732.25 678.18 385.50 908.60 390.36 844.89 482.35 718.02 656.57 903.70 657.51
00001323 00000067 476.90 126.23 520.34 736.69 683.23 384.35 908.71 386.97 850.37 481.23 727.05 657.89 907.01 657.24
00001324 00000068 479.55 133.27 521.40 727.04 692.00 381.48 917.75 384.82 861.04 485.33 733.27 657.24 915.15 657.22
00001325 00000069 484.08 131.71 522.46 724.98 696.56 382.03 925.88 383.10 869.24 486.17 737.08 654.33 924.64 652.66
00001326 00000070 487.51 130.01 521.37 726.09 703.38 381.07 929.38 381.22 875.54 484.93 745.33 655.71 926.88 653.81
00001327 00000071 489.67 129.46 521.91 723.04 705.37 381.78 927.39 377.60 876.96 480.12 751.29 654.09 928.15 648.95
00001328 00000072 492.40 125.74 519.35 721.02 707.01 379.51 928.27 377.46 879.42 475.57 751.43 650.17 926.94 647.01
00001329 00000073 501.72 124.26 517.65 711.72 707.81 366.81 934.21 379.04 873.20 466.39 737.02 625.79 936.51 634.33
00001330 00000074 512.15 119.74 509.40 702.35 710.48 359.16 936.18 370.41 871.53 459.24 739.34 617.60 936.25 625.30
00001331 00000075 513.58 118.25 508.55 696.74 713.39 354.67 939.41 368.56 874.05 450.41 743.90 611.64 936.43 621.48
00001332 00000076 511.30 117.88 513.00 692.77 714.92 350.94 941.01 369.49 876.16 445.60 740.88 603.09 936.42 616.68
00001333 00000077 516.53 120.80 514.68 681.26 713.55 355.39 948.08 360.03 883.70 456.68 742.31 605.60 945.30 609.20
00001334 00000078 517.76 120.47 514.07 677.90 715.41 353.93 950.43 361.01 884.52 454.75 740.25 601.65 944.67 607.46
00001335 00000079 517.88 121.11 514.38 673.20 715.49 353.41 950.88 361.56 884.47 450.10 739.81 598.63 944.24 605.25
00001336 00000080 516.74 119.69 517.09 674.87 716.67 352.10 951.18 361.61 885.33 444.94 742.63 598.99 943.00 606.46
00001337 00000081 513.49 114.41 518.31 705.46 719.86 340.81 949.80 367.99 881.92 431.48 741.42 603.15 936.30 623.68
00001338 00000082 514.11 113.26 518.35 736.63 717.04 344.04 948.00 364.96 877.87 431.47 740.55 616.27 937.61 631.10
00001339 00000083 512.16 112.78 519.94 744.18 713.23 345.05 946.71 366.98 876.53 428.74 734.29 620.06 933.88 635.58
00001340 00000084 503.11 103.23 526.04 751.96 710.50 345.47 946.02 367.84 880.26 425.77 728.43 617.02 935.23 633.03
00001341 00000085 498.38 106.86 532.45 731.46 702.78 347.91 940.67 372.94 877.76 425.88 714.60 606.93 936.68 626.28
00001342 00000086 494.79 102.14 533.98 727.48 703.01 347.97 938.40 371.20 878.61 422.91 720.14 602.54 939.91 620.13
00001343 00000087 502.35 96.84 521.02 737.10 702.92 339.41 930.80 360.66 878.39 412.45 733.63 609.62 937.06 624.99
00001344 00000088 505.51 96.76 513.17 767.90 706.92 335.29 923.22 357.07 875.82 398.37 764.42 627.00 934.37 642.06
00001345 00000089 506.71 91.41 511.84 788.82 704.63 343.70 917.50 351.22 878.46 399.23 776.51 649.66 933.48 655.26
00001346 00000090 506.54 86.05 513.70 798.52 702.15 344.84 913.86 347.22 875.35 395.87 779.19 651.08 935.81 652.72
00001347 00000091 503.46 88.17 516.35 790.27 698.22 348.09 909.82 345.23 874.91 394.28 781.66 649.48 939.24 646.52
00001348 00000092 500.20 89.74 516.66 783.20 694.05 349.86 900.76 341.93 868.53 392.75 781.62 647.67 934.69 640.77
00001349 00000093 498.86 89.38 515.67 779.28 689.10 347.96 894.29 333.82 864.31 389.83 782.07 645.79 933.65 633.42
00001350 00000094 494.73 89.20 515.43 774.09 687.72 346.79 887.58 331.65 861.65 388.55 781.79 640.46 929.58 627.01
00001351 00000095 494.11 87.94 512.96 773.17 684.16 346.16 883.67 326.94 856.69 385.75 779.57 638.98 928.73 621.74
00001352 00000096 490.68 85.07 515.90 774.04 681.17 344.94 881.46 325.10 853.08 386.40 774.71 635.19 927.80 617.40
00001353 00000097 489.02 82.12 514.40 773.53 679.31 343.34 878.80 324.31 851.38 383.49 771.77 630.96 925.85 613.60
00001354 00000098 486.87 81.48 514.58 769.55 675.19 342.46 874.87 321.40 847.44 382.11 769.90 629.87 924.03 610.71
00001355 00000099 484.59 80.57 515.38 766.73 671.36 342.06 875.66 320.02 842.65 380.22 764.97 629.14 922.69 609.11
00001356 00000100 481.33 80.31 517.08 765.62 669.05 342.61 871.35 319.20 840.46 380.82 763.59 628.54 919.44 607.07
00001357 00000101 478.64 78.06 517.39 766.48 667.57 343.31 869.38 320.08 838.79 381.60 760.95 627.47 917.37 605.96
00001358 00000102 476.78 79.06 517.49 763.97 666.29 343.21 867.90 319.76 837.42 381.18 759.22 626.77 915.46 605.02
00001359 00000103 473.84 77.65 517.82 765.41 664.67 343.34 866.41 321.21 836.50 380.59 756.86 625.93 913.93 605.07
00001360 00000104 473.11 75.31 516.26 768.16 663.04 343.07 864.20 322.14 835.07 380.15 755.87 627.29 911.64 607.35
00001361 00000105 471.96 76.64 517.12 766.52 662.64 343.57 864.26 322.06 835.39 379.96 755.62 626.83 912.23 606.42
00001362 00000106 470.32 75.74 517.65 767.99 661.84 343.31 865.02 323.34 835.75 379.49 754.72 628.27 911.50 609.03
00001363 00000107 470.97 74.39 517.36 769.25 661.89 343.22 865.42 322.79 834.92 380.50 754.14 628.66 911.53 609.13
00001364 00000108 470.18 74.42 516.33 768.87 660.93 345.03 865.30 324.69 834.03 382.11 752.43 629.45 910.75 609.97
00001365 00000109 469.12 75.06 516.73 769.68 660.67 344.29 864.35 325.21 833.90 382.17 753.16 630.57 909.87 612.29
00001366 00000110 468.50 77.56 516.55 767.00 661.86 344.68 863.11 326.22 835.10 383.22 755.12 630.05 909.52 612.36
00001367 00000111 467.71 76.17 517.19 769.49 661.15 345.13 862.13 325.32 834.22 385.89 755.91 630.50 909.94 611.86
00001368 00000112 466.99 76.54 516.99 767.38 660.03 345.68 860.31 325.17 833.65 387.07 756.42 630.97 910.11 611.89
00001369 00000113 467.26 77.36 517.18 765.81 659.64 345.86 860.57 323.98 832.99 389.51 756.25 631.69 910.19 611.60
00001370 00000114 467.41 80.08 517.59 761.56 660.22 348.59 859.07 325.45 832.31 390.16 755.82 629.72 909.22 608.61
00001371 00000115 467.23 81.59 517.59 757.15 658.25 350.20 858.25 325.65 831.35 390.36 755.33 629.91 910.40 607.50
00001372 00000116 466.06 83.51 517.81 748.75 658.55 350.76 857.82 327.20 830.95 390.82 754.52 627.44 908.78 605.99
00001373 00000117 466.79 85.71 517.48 741.64 660.01 351.74 858.27 328.64 831.49 388.78 754.20 624.91 907.61 603.91
00001374 00000118 466.02 85.22 517.49 740.20 660.40 352.49 858.60 328.97 832.64 389.96 754.09 623.94 908.61 602.48
00001375 00000119 465.12 86.53 517.34 737.60 659.20 352.86 859.75 330.48 831.63 390.94 750.72 624.11 907.37 603.34
00001376 00000120 461.28 87.11 519.41 736.10 656.81 352.92 858.70 333.37 830.45 391.89 747.60 624.54 905.15 606.04
00001377 00000121 459.98 87.32 519.95 734.71 654.67 353.03 859.52 332.06 829.55 392.17 747.12 625.99 905.51 606.05
00001378 00000122 457.30 87.34 522.78 730.83 652.12 353.11 858.40 331.35 827.53 392.68 744.11 624.07 904.50 603.25
00001379 00000123 455.35 87.64 524.59 726.23 650.13 353.03 856.98 331.74 825.84 392.72 743.05 622.85 902.89 602.51
00001380 00000124 454.43 87.37 524.96 725.08 649.35 353.25 855.37 331.23 823.86 393.08 742.55 621.40 901.47 600.45
00001381 00000125 451.64 86.55 525.56 724.78 646.63 351.10 853.97 330.45 822.03 392.12 740.13 621.81 899.13 601.72
00001382 00000126 450.03 90.30 525.80 719.99 645.43 353.98 851.12 330.92 818.97 392.64 733.81 617.74 896.43 595.17
00001383 00000127 448.29 89.25 529.47 710.48 643.31 355.34 850.19 332.76 814.47 394.44 729.69 613.57 892.43 591.51
00001384 00000128 447.53 86.66 529.22 706.65 641.68 357.24 850.91 333.92 811.72 393.96 721.47 607.65 890.74 584.97
00001385 00000129 441.31 82.26 533.92 706.33 637.68 353.65 855.11 331.32 812.91 392.40 714.99 602.20 894.14 580.14
00001386 00000130 442.14 82.05 532.75 703.55 637.40 353.27 856.02 329.11 810.64 392.95 712.12 599.11 893.54 575.59
00001387 00000131 442.15 88.81 525.51 692.30 636.87 363.16 861.25 348.99 817.90 392.75 704.24 591.90 896.42 576.02
00001388 00000132 441.90 75.07 538.13 710.35 641.49 360.52 860.60 340.82 810.38 396.95 709.02 592.97 892.77 573.42
00001389 00000133 446.94 83.31 534.89 702.71 642.07 364.54 854.59 338.82 810.55 396.00 715.88 594.81 895.50 570.52
00001390 00000134 447.56 79.22 536.30 712.21 640.41 361.37 859.96 332.36 815.59 397.22 714.06 596.79 902.33 569.52
00001391 00000135 455.07 85.92 521.69 699.57 645.44 361.53 868.19 339.15 821.04 398.28 712.56 597.15 903.94 574.23
00001392 00000136 461.19 89.31 518.38 694.26 646.85 359.98 871.32 335.54 821.85 401.42 715.43 600.47 906.47 575.95
00001393 00000137 460.91 87.91 519.97 701.66 646.25 358.91 869.98 336.88 819.70 399.84 716.11 603.34 902.84 580.96
00001394 00000138 458.96 87.74 524.17 709.61 641.76 358.82 870.68 337.09 819.06 401.58 711.98 610.59 906.06 588.02
00001395 00000139 457.95 88.29 524.24 707.09 639.73 359.69 870.45 339.23 817.94 402.27 708.78 610.43 905.63 588.84
00001396 00000140 457.16 87.83 521.96 708.61 639.23 360.79 870.59 340.83 817.58 404.85 707.21 611.28 903.53 590.29
00001397 00000141 456.66 89.66 522.47 703.97 638.32 362.63 869.81 342.00 817.80 405.04 707.53 611.01 904.88 589.41
00001398 00000142 456.81 89.03 523.89 702.36 636.87 364.46 871.95 343.01 817.84 405.54 707.07 611.49 908.11 589.20
00001399 00000143 456.53 90.06 524.36 703.98 637.76 364.92 871.47 342.96 818.33 405.51 707.89 612.31 908.21 589.63
00001400 00000144 457.88 89.63 524.04 710.58 638.33 364.62 871.27 343.48 817.28 406.77 705.46 613.92 907.18 592.02
00001401 00000145 456.59 90.86 523.23 717.52 639.92 363.05 869.85 342.52 818.31 407.49 702.34 614.92 905.25 593.76
00001402 00000146 455.55 92.37 525.97 727.64 636.12 362.07 870.64 341.77 817.41 409.98 695.00 619.45 907.37 598.56
00001403 00000147 454.89 94.67 524.21 725.46 635.05 362.45 870.96 342.63 818.08 412.91 691.26 619.56 907.52 599.17
00001404 00000148 449.02 98.35 527.08 719.17 634.96 369.20 865.28 349.46 814.97 414.59 693.70 618.45 903.69 598.69
00001405 00000149 453.69 95.48 524.72 726.98 639.79 377.96 855.08 346.20 808.66 415.78 722.44 633.08 898.65 602.63
00001406 00000150 447.07 95.05 523.66 714.12 634.57 368.98 854.63 339.63 809.08 406.38 716.28 622.34 901.70 594.26
00001407 00000151 446.11 87.95 524.12 717.61 627.61 361.98 858.58 330.66 806.77 407.08 713.34 626.22 902.77 595.55
00001408 00000152 445.43 92.99 525.90 709.36 614.30 363.08 852.12 326.39 801.02 411.31 710.47 623.93 908.04 591.47
00001409 00000153 444.52 89.65 528.44 703.92 608.75 364.31 851.34 323.40 795.87 407.82 705.27 620.57 908.72 584.92
00001410 00000154 446.33 92.17 526.54 688.79 609.29 365.70 847.18 321.84 795.56 407.82 709.68 617.34 908.21 579.92
00001411 00000155 446.83 93.69 526.54 682.14 608.69 365.50 846.71 320.97 796.22 407.12 709.50 614.60 909.70 576.55
00001412 00000156 444.77 95.47 529.99 678.75 609.57 365.56 846.22 320.53 798.94 405.71 712.38 612.84 911.68 574.27
00001413 00000157 447.27 93.52 527.19 682.12 611.04 366.79 844.70 318.16 799.63 407.05 714.03 613.10 912.21 571.95
00001414 00000158 452.09 91.87 524.73 685.30 613.12 368.01 845.79 318.78 799.77 409.48 713.31 613.24 912.29 571.90
00001415 00000159 453.71 94.95 527.98 689.03 613.73 369.04 851.91 319.33 806.80 411.07 716.81 617.93 920.33 575.92
00001416 00000160 452.35 92.61 532.64 692.95 625.17 369.15 869.36 324.53 817.59 415.20 720.66 628.56 928.06 586.06
00001417 00000161 452.92 93.10 535.92 698.08 626.99 372.89 868.96 326.31 818.67 418.41 724.73 632.66 929.11 589.25
00001418 00000162 457.51 94.27 531.68 701.57 633.58 373.97 872.55 329.41 825.04 424.69 729.01 634.77 932.77 593.28
00001419 00000163 464.36 96.14 524.43 700.45 638.53 377.69 870.19 333.05 822.05 433.94 728.30 634.29 928.22 593.06
00001420 00000164 467.26 100.16 520.38 697.79 640.49 379.38 874.99 337.67 824.83 441.46 729.26 637.73 929.75 599.08
00001421 00000165 465.56 100.91 521.84 701.07 641.24 380.74 878.54 340.26 828.34 446.11 728.96 639.60 931.87 602.02
00001422 00000166 464.47 103.52 522.84 709.42 644.36 382.12 880.89 345.73 831.76 453.30 725.52 642.42 930.16 609.03
00001423 00000167 468.21 105.76 521.27 711.92 646.02 384.76 883.45 347.50 834.62 454.71 729.26 648.64 932.46 615.06
00001424 00000168 469.27 106.87 522.97 716.30 648.70 387.05 885.88 350.97 840.27 456.63 733.68 653.99 935.32 621.65
00001425 00000169 470.08 106.16 524.28 727.39 649.05 391.06 886.51 354.19 841.57 458.80 733.17 659.47 936.22 626.93
00001426 00000170 476.14 110.34 517.17 733.96 647.01 398.87 886.05 351.10 833.17 466.90 735.52 676.26 933.40 632.61
