Video ID: 	8wGy8H6bRoI
H: 	1080
W: 	1920
FPS: 	25.0

FRAME INDEX X0 Y0 W H [Landmarks (5 Points)]

00006655 00000000 623.86 92.44 370.30 575.28 779.91 334.43 937.63 334.00 899.65 437.32 813.94 540.75 934.42 539.40
00006656 DELETE   627.17 92.41 371.17 575.93 786.73 337.26 941.00 338.04 904.69 437.97 819.67 542.41 935.86 542.04
00006657 DELETE   635.84 93.29 368.60 573.22 796.25 341.51 946.91 340.52 910.83 439.85 826.99 540.74 942.52 539.28
00006658 00000003 644.91 96.33 366.88 570.22 804.05 344.66 955.35 342.86 919.18 438.38 833.96 540.51 951.85 538.10
00006659 00000004 647.81 101.96 366.37 564.39 808.45 345.04 961.28 344.79 925.18 438.19 835.18 540.21 954.67 539.28
00006660 00000005 650.15 99.87 366.43 565.19 810.45 343.03 963.59 346.04 925.84 438.27 834.58 538.28 954.73 540.23
00006661 00000006 651.25 95.49 367.42 570.11 811.58 342.37 964.96 346.83 927.48 437.70 835.01 537.35 955.90 540.48
00006662 00000007 652.06 94.92 366.47 570.09 814.22 341.90 966.44 347.62 929.94 437.21 836.23 536.43 956.72 540.70
00006663 00000008 650.78 92.51 367.07 572.54 814.82 341.71 965.86 346.76 930.77 437.06 838.04 536.81 956.82 540.36
00006664 00000009 649.95 95.02 366.57 570.26 811.24 342.05 963.57 345.94 927.32 435.67 836.16 537.15 955.20 539.64
00006665 00000010 646.73 94.55 367.76 571.92 808.22 340.42 958.14 345.45 922.81 433.44 833.06 536.34 950.98 539.81
00006666 00000011 643.69 92.02 368.41 574.19 805.43 339.23 955.48 345.15 920.26 431.97 830.64 534.34 948.88 538.55
00006667 00000012 639.97 88.83 370.44 577.50 802.66 337.54 952.76 342.49 917.97 430.78 829.53 533.50 946.65 536.84
00006668 00000013 636.41 83.81 371.23 583.18 800.22 335.79 948.69 340.75 915.25 431.70 827.00 533.14 942.35 536.57
00006669 00000014 632.86 88.36 370.00 578.49 795.69 336.35 945.83 339.37 911.21 432.99 823.85 534.78 938.25 536.79
00006670 00000015 627.80 88.98 371.40 577.93 791.86 335.31 941.89 337.59 907.88 433.66 821.29 536.61 933.77 537.81
00006671 00000016 623.53 87.72 371.60 579.84 786.48 335.09 937.45 336.20 903.89 433.69 818.02 537.52 930.90 537.55
00006672 00000017 621.28 85.78 369.97 581.34 781.94 331.98 935.17 333.39 899.74 433.55 811.40 533.82 928.77 534.31
00006673 00000018 618.33 82.89 367.89 583.00 776.12 331.96 929.96 333.89 894.07 432.52 801.87 528.52 926.43 529.73
00006674 00000019 617.42 82.37 367.79 583.39 775.41 330.85 927.16 332.86 891.43 433.61 800.68 530.25 922.51 531.70
00006675 00000020 615.47 83.97 368.21 585.75 773.13 329.36 924.79 331.56 889.38 435.93 796.81 531.46 919.99 533.24
00006676 00000021 613.60 81.69 368.49 595.02 770.84 329.25 922.69 331.48 888.45 439.43 790.77 534.13 918.36 535.87
00006677 00000022 608.22 78.07 370.90 607.69 769.62 341.72 925.04 339.60 893.17 443.20 781.69 542.33 915.57 541.69
00006678 DELETE   599.69 79.81 371.32 607.40 751.26 342.09 913.49 342.69 871.87 441.36 764.74 540.86 907.26 542.18
00006679 00000024 596.28 85.82 369.33 597.72 737.92 341.50 902.10 342.86 853.59 442.58 754.19 537.74 898.23 539.04
00006680 00000025 591.82 86.78 369.69 593.89 732.90 342.40 893.96 341.13 846.22 444.31 752.72 539.02 892.16 537.84
00006681 00000026 591.45 89.89 368.78 584.93 732.06 343.73 893.88 340.36 846.19 443.80 754.81 539.58 891.22 536.76
00006682 00000027 590.73 90.70 368.29 581.81 732.83 344.79 894.38 338.28 848.58 442.54 759.50 540.03 893.36 534.27
00006683 00000028 590.58 91.18 367.39 577.78 732.61 345.49 894.91 336.61 850.18 441.84 762.39 540.10 895.37 532.36
00006684 00000029 590.06 88.53 367.26 578.14 731.58 345.30 893.64 334.99 849.29 440.97 763.59 539.89 895.02 531.00
00006685 00000030 588.72 86.21 368.18 579.79 729.75 344.49 892.00 335.27 847.14 438.26 762.37 538.50 893.84 530.45
00006686 00000031 586.56 88.67 369.49 577.62 728.94 344.72 890.38 335.51 845.23 437.05 761.68 538.10 892.69 529.94
00006687 00000032 585.52 87.91 369.42 578.55 726.81 345.22 887.90 334.57 842.50 437.35 760.54 538.34 891.77 529.00
00006688 00000033 584.85 89.07 369.40 578.82 724.66 345.74 885.52 334.69 839.93 437.08 759.18 539.06 891.55 529.30
00006689 00000034 584.61 87.74 369.61 579.32 722.73 346.45 884.06 335.52 837.93 436.17 758.07 538.75 891.62 529.11
00006690 00000035 584.85 88.78 369.09 577.05 721.46 346.25 883.74 335.23 836.85 434.92 757.44 538.33 891.40 528.68
00006691 00000036 583.79 85.66 370.35 579.90 720.09 345.21 882.68 335.37 835.16 431.82 757.02 537.59 890.67 528.74
00006692 00000037 582.30 85.66 371.43 579.33 719.51 343.75 881.54 333.81 834.56 430.74 757.36 537.22 888.95 528.20
00006693 00000038 582.89 84.67 370.98 580.33 719.95 343.22 882.16 333.96 835.16 430.24 757.47 537.04 888.85 528.60
00006694 00000039 584.69 83.86 371.09 581.68 720.98 343.64 883.70 334.96 836.30 430.89 757.40 536.92 890.39 529.14
00006695 00000040 586.85 88.64 368.89 576.94 723.88 344.68 885.66 334.41 839.04 435.71 758.38 537.42 890.98 528.50
00006696 00000041 590.45 87.87 367.41 577.80 725.53 346.45 888.57 335.48 841.46 439.81 760.79 540.05 893.77 530.61
00006697 00000042 593.05 88.07 367.35 578.05 727.80 346.84 892.63 336.89 844.43 440.75 761.96 541.19 896.56 532.80
00006698 00000043 596.96 88.75 366.78 578.63 730.72 346.30 895.46 335.58 848.16 441.00 763.93 541.51 899.15 532.80
00006699 00000044 600.03 89.28 367.03 581.37 734.70 345.65 900.15 335.79 853.04 440.35 765.35 541.92 902.18 533.99
00006700 00000045 602.84 89.42 366.56 581.79 738.22 343.76 905.08 336.64 858.19 438.00 767.36 540.90 905.65 535.54
00006701 00000046 604.99 91.02 366.00 580.22 741.10 341.38 908.48 334.51 862.03 436.06 769.38 539.80 907.75 534.71
00006702 00000047 606.14 90.14 367.02 580.73 743.35 339.00 910.90 333.63 864.31 434.38 770.87 538.74 909.11 535.09
00006703 00000048 607.40 87.77 367.32 582.51 745.89 339.00 913.35 333.29 868.80 433.59 773.50 537.82 912.84 533.98
00006704 00000049 608.53 86.77 368.42 583.07 749.64 339.15 916.07 332.64 873.60 432.86 776.48 537.40 914.89 533.06
00006705 00000050 610.06 81.60 371.10 586.33 753.69 337.35 918.48 332.86 878.11 431.98 779.85 535.98 916.76 533.31
00006706 00000051 613.01 85.21 371.13 582.85 759.81 333.84 925.42 329.58 884.37 428.09 782.87 533.18 921.91 530.86
00006707 00000052 617.57 87.11 370.74 580.19 769.24 330.87 933.34 328.44 892.12 423.02 790.66 530.43 927.45 529.44
00006708 DELETE   626.09 73.41 367.95 596.85 779.78 323.49 935.12 325.97 900.58 421.65 808.51 528.86 932.00 529.86
00006709 DELETE   635.75 94.19 369.13 574.96 794.14 334.79 947.20 335.59 912.92 425.26 820.24 528.15 944.95 528.18
00006710 DELETE   642.55 94.95 369.84 572.92 805.74 343.24 958.14 343.31 925.78 434.68 834.81 537.18 956.73 536.31
00006711 00000056 643.50 97.90 370.89 571.69 806.78 348.87 964.17 347.13 928.57 444.70 837.77 545.32 960.39 542.62
00006712 DELETE   639.22 97.11 374.08 582.92 797.33 353.81 957.35 350.74 916.93 452.69 832.03 553.48 957.74 548.86
00006713 DELETE   631.19 96.60 375.04 587.83 790.62 354.39 944.13 357.83 901.98 461.29 819.46 556.53 938.88 557.48
00006714 DELETE   626.72 101.37 370.50 578.85 777.96 350.92 936.39 357.31 886.00 464.51 802.89 553.98 922.87 558.41
00006715 00000060 619.92 109.02 370.40 571.48 773.38 350.09 931.41 355.89 880.24 464.94 795.37 551.45 915.84 556.12
00006716 00000061 619.37 107.80 369.07 573.89 774.38 351.65 930.09 354.00 882.89 466.08 798.98 553.78 917.91 555.60
00006717 00000062 620.34 109.80 367.90 574.15 777.94 355.01 931.30 353.24 889.10 469.80 804.94 558.60 923.09 556.83
00006718 00000063 618.99 114.87 367.71 571.07 777.80 359.16 929.93 353.54 890.52 469.12 809.99 561.82 925.49 557.00
00006719 00000064 615.80 114.68 368.59 572.58 774.99 361.12 928.24 354.03 888.52 470.39 808.40 562.76 926.15 556.79
00006720 DELETE   612.38 112.92 368.41 572.12 765.04 359.84 922.62 352.76 879.61 468.54 798.18 557.62 923.36 551.65
00006721 00000066 609.28 113.73 368.49 572.99 749.45 364.51 918.84 351.03 870.71 464.12 781.49 565.55 915.93 554.25
00006722 00000067 604.40 109.98 369.16 574.06 740.86 360.95 910.25 351.19 858.42 461.89 773.96 562.38 909.22 554.06
00006723 00000068 602.24 107.35 369.79 573.91 738.01 360.01 907.79 349.34 856.16 460.13 772.77 561.29 907.77 552.27
00006724 00000069 603.46 107.80 369.15 571.56 742.14 357.91 912.10 346.02 862.92 458.17 776.50 559.30 911.59 549.47
00006725 00000070 605.65 106.36 368.73 571.51 747.05 355.17 916.51 342.90 870.59 455.02 781.28 556.98 916.20 546.91
00006726 00000071 606.80 104.79 368.58 572.59 748.26 354.13 917.35 341.88 871.10 454.28 781.58 555.79 916.88 545.74
00006727 00000072 605.57 106.39 369.40 570.43 746.56 352.79 915.13 342.63 866.55 453.83 778.01 554.13 913.07 545.82
00006728 00000073 605.66 101.94 369.60 574.46 746.64 350.55 914.50 343.01 865.55 452.48 776.06 552.43 910.78 546.48
00006729 00000074 607.11 99.77 368.54 575.53 750.24 349.35 916.32 342.80 870.12 450.29 778.26 550.54 911.66 545.65
00006730 00000075 608.48 95.62 370.99 578.63 757.53 348.38 920.86 341.36 879.01 449.86 785.15 550.09 916.26 544.74
00006731 00000076 609.51 91.73 372.78 583.77 762.87 346.78 925.65 339.84 884.20 449.17 790.41 550.59 920.72 545.02
00006732 00000077 611.71 90.32 371.52 582.55 762.61 345.18 926.12 339.13 883.19 448.01 788.88 548.34 920.40 543.70
00006733 00000078 612.18 85.32 371.49 587.46 762.36 343.94 925.75 339.85 882.43 447.58 786.06 546.21 918.77 543.14
00006734 00000079 612.18 85.33 372.50 585.75 762.54 342.24 926.72 339.18 882.11 446.68 785.42 544.94 918.77 542.89
00006735 00000080 613.59 83.41 371.48 586.54 765.08 341.35 929.08 337.24 885.35 445.64 788.84 544.64 921.50 541.61
00006736 00000081 614.40 80.72 371.51 590.58 767.41 340.72 929.31 335.87 887.92 444.38 790.95 544.48 922.55 540.89
00006737 00000082 613.40 81.83 371.68 589.25 766.31 338.87 928.20 335.05 886.82 441.92 788.02 541.55 921.21 539.08
00006738 00000083 610.38 84.95 372.84 584.57 762.07 337.80 926.05 334.98 883.89 439.60 783.25 538.59 919.25 537.21
00006739 00000084 609.73 82.56 372.01 584.43 756.97 339.14 924.29 334.58 880.30 439.68 780.42 538.17 918.91 535.06
00006740 00000085 608.71 80.64 371.63 585.57 755.39 339.31 921.68 335.70 877.52 440.01 778.79 537.81 915.80 535.51
00006741 00000086 608.56 79.80 370.53 581.35 754.45 339.68 920.01 336.27 875.71 439.69 778.00 535.65 913.68 533.46
00006742 00000087 609.22 80.48 369.35 576.76 753.79 339.50 918.92 336.20 874.10 438.64 777.72 533.95 912.41 531.89
00006743 00000088 609.10 81.80 369.52 575.49 754.02 338.90 917.87 336.42 873.46 438.61 777.43 533.89 911.00 532.64
00006744 00000089 609.31 83.24 369.35 572.91 753.34 338.12 918.12 336.15 872.94 437.37 776.69 533.30 910.69 532.48
00006745 00000090 609.04 80.70 369.46 575.58 753.06 338.28 917.44 336.24 872.98 438.33 776.95 533.80 910.56 532.86
00006746 00000091 608.83 81.36 368.88 577.33 753.04 338.62 918.77 335.55 874.38 438.42 777.17 534.70 912.13 532.84
00006747 00000092 607.91 81.74 369.20 580.49 752.52 338.70 920.42 333.77 877.73 437.76 778.55 536.08 916.03 532.58
00006748 00000093 608.08 80.65 369.23 585.03 753.62 339.30 918.46 334.97 877.35 438.79 780.13 538.66 914.30 536.04
00006749 00000094 608.05 82.68 368.95 588.17 754.07 340.11 917.43 335.33 876.72 439.12 780.51 541.08 913.57 538.20
00006750 00000095 607.46 83.83 369.12 587.51 752.92 340.98 917.21 336.52 875.33 440.55 779.60 542.50 912.99 539.81
00006751 00000096 606.92 81.92 369.25 590.63 753.31 341.23 916.91 337.51 875.28 441.29 779.17 542.98 912.19 540.88
00006752 00000097 606.11 82.31 369.74 590.62 753.42 341.84 916.58 338.39 874.88 441.81 778.84 543.15 911.93 541.23
00006753 00000098 605.14 83.98 369.65 590.72 753.04 342.58 916.73 338.81 874.86 442.89 778.36 544.28 912.12 542.02
00006754 00000099 604.85 84.10 369.76 590.88 753.10 343.89 916.54 339.89 875.08 443.91 778.66 544.91 912.58 542.37
00006755 00000100 604.70 85.78 368.79 588.34 751.75 344.10 916.00 339.70 874.09 443.56 777.29 544.66 911.95 541.90
00006756 00000101 604.39 86.52 369.05 585.53 750.53 343.67 915.81 339.26 873.15 442.13 776.39 543.83 911.10 541.11
00006757 00000102 603.17 86.68 369.76 583.57 748.92 342.96 916.34 338.84 872.03 440.95 774.80 542.87 910.50 540.31
00006758 00000103 602.63 87.52 369.70 581.42 747.01 342.83 915.29 338.23 869.93 440.20 773.69 542.07 909.48 539.03
00006759 00000104 602.65 89.80 368.72 578.08 746.88 343.02 914.72 338.48 869.83 439.44 773.40 540.93 909.49 538.01
00006760 00000105 602.72 89.59 368.60 579.57 747.98 342.79 915.29 337.95 870.72 439.92 773.56 541.10 909.98 537.95
00006761 00000106 602.79 89.62 368.28 584.17 750.16 343.52 915.03 338.41 873.61 440.39 773.39 540.63 911.42 537.29
00006762 00000107 602.64 84.11 369.56 591.39 760.71 341.66 920.29 334.75 887.29 439.04 781.44 539.90 915.37 535.36
00006763 DELETE   608.04 82.02 371.45 586.72 775.26 338.77 930.57 330.77 903.72 428.65 796.25 533.74 927.12 527.90
00006764 00000109 616.25 76.21 364.55 588.40 776.12 332.11 925.51 319.24 901.61 423.37 816.96 526.26 937.76 515.05
00006765 00000110 617.64 78.07 364.49 581.99 782.18 331.84 926.08 316.02 906.93 417.38 826.20 524.39 938.82 511.11
00006766 00000111 616.80 77.90 362.92 582.51 779.49 330.01 924.88 315.17 905.82 415.30 824.45 523.79 938.67 511.15
00006767 00000112 615.91 86.06 363.82 578.54 785.80 334.67 935.58 327.22 914.07 418.84 811.45 529.61 936.78 523.48
00006768 00000113 608.20 86.18 366.89 576.68 778.18 338.02 930.80 325.37 908.40 424.44 805.21 533.39 931.80 523.35
00006769 00000114 598.98 83.36 370.74 580.54 768.67 343.83 921.59 325.98 900.76 426.68 799.24 537.38 925.16 522.88
00006770 00000115 592.74 82.67 373.22 584.48 757.35 347.81 915.12 328.14 890.07 433.67 790.83 543.67 918.02 527.73
00006771 00000116 588.22 81.72 371.46 591.24 744.21 352.73 905.30 330.25 874.81 444.46 782.58 552.70 910.89 533.93
00006772 00000117 586.33 86.20 370.93 587.81 740.50 356.31 904.14 331.22 871.60 447.59 782.36 556.62 910.77 535.50
00006773 00000118 585.69 90.48 371.99 587.66 744.47 359.64 905.28 330.83 877.67 448.10 787.21 561.26 913.31 537.50
00006774 00000119 585.14 90.58 372.97 591.66 746.16 362.00 904.11 332.48 880.00 448.77 789.89 564.37 914.00 539.98
00006775 00000120 584.69 92.47 372.17 590.51 740.85 362.02 900.50 333.22 873.50 450.56 784.44 563.36 911.68 539.16
00006776 00000121 584.11 91.01 372.39 593.59 736.90 357.99 898.07 331.69 866.68 450.38 778.15 560.62 907.73 538.38
00006777 00000122 587.86 84.40 372.17 597.90 741.85 353.15 902.02 331.77 870.94 445.94 777.58 553.63 908.69 535.62
00006778 DELETE   591.79 80.09 376.33 597.18 758.24 347.61 914.87 328.21 891.86 436.15 789.19 545.96 918.60 530.23
00006779 DELETE   607.24 89.10 368.36 583.44 779.49 344.25 930.41 329.94 910.48 428.85 806.28 537.42 934.13 525.41
00006780 DELETE   616.99 84.20 364.29 583.07 784.35 340.42 925.38 319.28 910.41 427.65 829.82 533.28 942.77 515.47
00006781 00000126 619.12 84.46 368.81 580.33 789.60 337.72 931.33 318.19 915.07 425.99 833.98 531.82 944.71 515.39
00006782 00000127 617.85 83.03 371.94 580.08 789.45 334.70 932.53 318.38 914.22 423.75 832.06 529.61 942.70 515.73
00006783 00000128 620.21 78.93 371.27 580.40 789.38 331.35 933.32 317.32 913.49 418.75 832.99 527.06 942.04 514.97
00006784 00000129 622.56 77.42 372.54 578.06 797.59 329.56 938.73 315.37 923.66 412.51 840.61 523.18 947.45 511.04
00006785 00000130 626.73 73.99 373.05 579.46 806.70 326.60 944.09 311.52 934.32 408.21 848.80 520.96 953.85 507.65
00006786 00000131 629.75 74.43 371.95 578.01 808.47 326.00 946.25 311.99 936.01 407.17 849.93 519.62 956.46 507.17
00006787 00000132 630.02 74.22 370.57 578.80 807.47 325.17 944.94 312.52 933.87 408.17 847.88 520.55 953.27 509.38
00006788 00000133 628.91 74.01 370.16 580.87 806.73 325.90 943.41 313.60 932.27 409.61 845.89 522.20 949.84 511.51
00006789 00000134 629.95 75.19 368.79 578.91 806.81 325.56 943.21 313.47 932.23 409.69 845.92 521.81 949.49 511.33
00006790 00000135 628.61 73.24 368.76 578.06 806.65 325.14 940.62 312.23 930.87 408.81 846.56 520.78 947.64 509.74
00006791 00000136 626.08 74.15 367.98 574.37 801.11 324.62 937.57 310.03 925.79 407.40 844.22 518.68 946.44 506.40
00006792 00000137 622.29 68.97 368.09 579.52 796.24 322.58 933.92 307.55 921.12 408.38 838.69 516.48 943.08 503.78
00006793 00000138 618.93 68.82 364.69 579.91 790.65 322.26 929.47 306.43 913.54 408.48 835.04 516.49 938.87 503.00
00006794 00000139 616.73 66.37 363.01 581.67 784.72 322.63 924.76 306.12 908.26 404.53 831.56 515.65 937.54 501.62
00006795 00000140 616.98 67.55 363.05 579.10 784.24 328.40 931.18 314.75 914.23 403.72 815.79 518.95 940.22 508.37
00006796 00000141 615.57 66.51 362.18 579.32 780.26 327.86 928.78 313.03 910.50 403.59 811.68 518.13 938.46 506.54
00006797 00000142 610.23 70.23 363.53 575.73 774.83 327.31 926.20 310.59 907.58 404.03 806.85 517.53 937.34 504.09
00006798 00000143 604.35 62.71 366.81 582.76 771.04 327.09 921.80 310.74 905.32 403.94 804.65 517.66 933.85 504.44
00006799 00000144 602.80 60.86 366.28 584.07 767.87 327.61 917.73 311.73 902.54 404.80 803.11 517.92 931.08 505.06
00006800 00000145 601.33 63.15 365.92 582.21 765.38 327.78 916.93 310.83 900.45 406.47 800.86 518.44 929.45 504.56
00006801 00000146 598.31 60.36 367.01 585.84 763.40 328.43 914.60 311.52 898.46 406.54 798.76 518.93 927.34 505.07
00006802 00000147 595.78 60.24 366.35 584.15 760.38 326.91 912.93 309.63 895.53 406.09 796.42 518.87 923.85 504.64
00006803 00000148 593.91 57.54 365.99 585.53 757.94 325.89 909.69 307.53 893.23 405.78 793.81 517.76 921.05 502.80
00006804 00000149 588.70 53.68 367.52 590.85 755.66 324.13 906.46 307.16 891.07 404.63 792.44 518.12 917.36 504.16
00006805 DELETE   584.40 55.55 368.38 590.20 749.41 328.60 897.67 311.70 882.03 405.99 790.64 520.85 911.48 506.53
00006806 DELETE   581.86 62.47 367.05 586.38 740.73 333.08 890.44 314.95 871.18 412.06 783.24 524.22 903.72 508.69
00006807 00000152 574.32 68.90 370.14 585.54 725.84 336.95 880.34 320.06 853.40 419.17 772.00 530.19 893.48 515.26
00006808 DELETE   570.29 73.95 372.30 583.72 715.63 341.77 873.91 325.86 840.16 427.69 761.10 533.84 887.39 519.81
00006809 DELETE   567.39 79.29 370.77 577.49 709.24 343.33 868.14 327.12 831.79 428.60 757.51 535.22 882.30 520.86
00006810 00000155 565.30 80.53 370.36 578.11 706.68 343.94 864.63 328.61 826.91 430.78 753.53 535.11 878.78 521.43
00006811 00000156 564.60 81.27 371.21 578.92 706.21 343.36 863.82 328.96 825.33 431.31 752.44 535.31 877.63 522.37
00006812 00000157 564.42 81.65 370.73 580.10 706.55 344.23 863.03 329.61 825.59 431.93 752.66 536.17 877.43 523.01
00006813 00000158 564.55 83.13 370.35 579.20 706.79 343.93 863.68 329.62 825.51 432.54 753.16 537.31 877.14 524.31
00006814 00000159 565.09 86.04 369.06 578.28 708.33 344.89 861.96 330.93 824.08 433.51 755.31 539.52 875.37 526.78
00006815 00000160 564.48 86.32 368.98 582.37 707.94 346.75 861.34 332.89 824.12 435.75 754.00 542.11 875.63 529.16
00006816 00000161 565.39 87.95 368.26 582.88 709.32 347.00 862.11 333.32 824.92 438.23 754.49 544.05 875.58 531.19
00006817 00000162 565.93 87.22 368.69 583.44 710.03 347.70 863.41 334.07 825.83 438.70 754.65 544.52 876.59 531.75
00006818 00000163 567.71 89.43 367.44 579.82 711.02 347.70 865.90 334.54 826.93 439.33 754.88 544.22 877.76 532.02
00006819 00000164 569.11 89.97 367.31 576.69 711.64 348.29 867.91 335.02 828.19 440.83 755.76 545.07 878.40 532.84
00006820 00000165 569.98 90.69 367.09 574.60 712.16 349.19 869.00 335.45 828.61 441.20 755.78 544.32 879.22 531.79
00006821 00000166 570.49 90.76 367.14 573.14 712.19 349.08 869.66 335.21 828.71 440.67 755.95 543.84 879.43 531.27
00006822 00000167 570.15 89.25 367.90 574.10 711.45 347.79 868.37 334.21 827.45 438.49 755.38 542.16 878.51 529.90
00006823 00000168 569.20 87.75 368.29 575.42 709.15 346.98 865.74 332.71 824.54 437.86 754.57 541.91 876.93 528.99
00006824 00000169 566.94 88.25 369.71 575.41 705.08 345.71 861.14 330.49 820.03 437.20 752.22 541.72 873.58 527.96
00006825 00000170 566.23 87.26 370.34 577.38 703.78 345.89 860.89 330.69 819.40 437.47 750.90 540.97 874.25 527.16
00006826 00000171 568.15 86.40 370.11 577.78 707.17 347.60 866.84 331.68 825.39 439.46 753.73 542.13 879.32 527.67
