Video ID: 	3wBslXG5QkY
H: 	1080
W: 	1920
FPS: 	23.976023976023978

FRAME INDEX X0 Y0 W H [Landmarks (5 Points)]

00000352 00000000 608.48 156.61 511.83 710.70 863.28 480.16 1055.80 408.85 1066.17 580.42 926.25 730.75 1083.62 673.76
00000353 00000001 607.44 156.81 514.47 741.94 861.86 475.84 1058.25 412.55 1066.08 584.58 915.68 739.55 1083.81 689.16
00000354 00000002 608.70 163.35 509.05 709.25 854.83 480.92 1055.17 411.65 1059.72 583.40 918.12 733.20 1083.19 677.64
00000355 00000003 601.68 164.93 509.06 712.08 857.22 480.24 1053.03 413.35 1062.84 582.66 918.98 732.78 1079.16 679.07
00000356 00000004 601.92 173.27 502.45 701.42 852.79 478.75 1045.31 413.83 1054.34 581.93 911.92 727.69 1070.83 675.64
00000357 00000005 600.00 174.82 501.11 693.47 850.47 478.70 1038.35 410.96 1050.32 579.90 909.78 723.62 1064.17 669.12
00000358 00000006 599.34 173.28 497.98 695.78 847.58 475.38 1037.07 409.77 1047.92 580.77 910.68 726.23 1062.90 673.19
00000359 00000007 598.91 163.78 495.44 712.63 844.55 480.35 1036.90 414.13 1043.64 582.98 914.02 731.14 1065.39 676.92
00000360 00000008 593.79 157.93 491.98 722.26 840.09 493.15 1030.63 425.35 1037.18 600.02 902.84 741.54 1058.14 686.16
00000361 DELETE   603.18 167.97 483.24 705.85 818.92 513.34 1028.35 449.28 1013.32 613.23 893.33 749.36 1049.15 698.11
00000362 00000010 581.59 168.74 499.45 725.89 805.84 522.70 1007.38 465.10 996.66 628.14 860.74 757.26 1029.02 711.99
00000363 00000011 568.68 170.50 507.38 746.09 797.29 525.35 1002.80 469.68 987.61 639.79 847.28 765.87 1019.32 721.83
00000364 00000012 565.42 170.50 506.02 752.97 788.74 527.39 997.29 471.65 980.74 640.10 838.61 768.07 1014.34 723.83
00000365 00000013 560.92 172.72 506.89 745.07 783.86 526.42 991.20 472.43 973.10 638.99 836.19 766.98 1006.87 724.19
00000366 00000014 556.35 188.34 513.84 737.22 781.27 523.96 990.81 474.30 972.03 635.87 835.69 767.77 1008.86 727.90
00000367 00000015 554.84 196.28 513.31 730.20 781.12 522.58 988.41 475.75 969.64 632.87 833.98 766.76 1004.37 729.21
00000368 00000016 556.71 193.77 510.24 721.56 779.74 524.70 989.58 474.30 969.86 635.56 841.58 769.03 1009.19 728.44
00000369 00000017 558.12 197.45 512.40 713.18 782.82 529.25 995.68 474.86 976.08 642.96 844.32 771.51 1010.39 728.41
00000370 00000018 561.80 196.44 511.14 715.80 785.41 528.25 999.60 471.58 980.93 644.03 850.74 771.65 1018.29 726.37
00000371 00000019 577.15 191.45 501.08 711.55 795.16 528.79 1009.93 471.81 991.92 637.30 864.24 763.84 1036.79 715.19
00000372 DELETE   578.11 208.45 500.79 678.13 803.13 511.01 1010.79 455.29 1002.20 617.82 879.35 744.46 1046.28 697.76
00000373 DELETE   592.66 197.53 485.87 677.57 810.38 505.23 1012.10 433.15 1010.94 604.98 883.93 733.76 1048.52 676.48
00000374 00000022 601.54 179.29 481.28 693.35 812.70 493.42 1013.78 425.02 1007.26 592.34 892.22 727.57 1052.10 672.89
00000375 00000023 591.93 173.43 503.53 690.60 821.07 484.59 1010.56 407.97 1020.76 573.79 901.91 723.69 1058.25 661.12
00000376 00000024 596.30 182.36 490.49 689.12 816.71 486.79 1015.22 411.78 1019.70 581.20 902.50 723.76 1059.52 664.32
00000377 00000025 584.71 184.70 504.30 673.96 818.49 476.25 1015.02 408.72 1019.96 569.96 898.80 725.17 1053.80 670.38
00000378 00000026 588.71 170.31 505.27 695.40 820.69 480.91 1011.38 404.13 1022.13 568.69 896.67 723.16 1055.44 660.63
00000379 00000027 580.84 175.03 511.08 684.85 817.61 471.66 1011.12 399.13 1020.88 564.60 892.76 719.01 1050.07 660.79
00000380 00000028 587.73 172.83 510.17 711.26 817.68 461.52 1009.74 396.13 1017.68 559.17 886.50 718.52 1055.74 665.45
00000381 00000029 590.41 163.21 509.81 719.44 818.55 457.18 1014.69 391.65 1018.72 557.56 887.75 720.19 1057.58 667.00
00000382 00000030 588.44 157.82 514.25 713.05 822.51 455.58 1018.07 384.22 1024.13 553.67 896.79 715.04 1062.28 656.54
00000383 00000031 591.77 166.09 501.77 687.63 829.28 457.17 1019.69 393.28 1030.32 549.79 909.99 712.03 1062.29 659.47
00000384 00000032 597.14 157.54 500.10 701.83 838.00 454.65 1028.15 385.76 1033.53 553.15 912.23 710.39 1062.84 653.43
00000385 00000033 603.06 160.79 500.61 698.66 841.29 453.63 1034.43 385.19 1038.23 555.38 913.60 712.09 1066.25 655.75
00000386 00000034 602.18 161.37 505.83 699.68 843.04 456.37 1037.78 386.50 1042.01 559.73 911.34 712.10 1069.54 654.75
00000387 00000035 604.58 161.73 508.60 707.52 844.77 456.07 1040.76 387.60 1043.25 562.12 911.64 715.03 1072.76 658.73
00000388 00000036 605.40 167.56 509.23 696.91 847.15 459.25 1044.19 386.78 1047.46 562.74 919.09 717.41 1077.08 657.88
00000389 00000037 608.20 153.39 512.07 711.88 851.20 458.44 1046.55 383.34 1051.01 557.13 926.47 717.27 1082.47 655.95
00000390 00000038 608.76 156.90 511.96 709.85 854.33 454.80 1051.10 381.90 1057.09 553.29 928.54 714.67 1088.01 654.98
00000391 00000039 610.36 161.40 509.74 704.52 856.55 455.00 1055.88 384.88 1058.64 554.99 927.93 713.15 1088.66 655.25
00000392 00000040 613.44 167.36 509.36 690.62 859.66 453.33 1059.92 384.18 1063.30 556.17 930.43 711.76 1089.79 655.09
00000393 00000041 613.06 160.81 510.75 697.97 860.46 448.44 1060.68 383.04 1063.65 552.03 930.98 708.91 1090.89 654.99
00000394 00000042 610.68 162.56 512.67 699.63 860.07 444.56 1059.85 383.51 1061.97 550.84 930.37 708.19 1088.58 657.87
00000395 00000043 610.30 157.34 511.74 702.70 858.63 442.58 1056.23 382.70 1058.92 548.75 930.56 708.34 1085.33 659.01
00000396 00000044 610.39 155.73 508.47 703.47 858.22 440.72 1054.61 383.38 1057.42 547.69 932.72 707.84 1085.06 660.20
00000397 00000045 609.58 147.78 510.58 716.03 855.30 435.80 1056.08 381.72 1054.66 546.79 933.69 708.10 1088.09 662.47
00000398 00000046 608.69 150.32 510.58 708.15 855.35 432.86 1055.52 378.80 1053.41 542.77 932.58 703.15 1088.03 657.32
00000399 00000047 609.33 158.80 506.54 688.66 853.22 429.23 1053.03 376.60 1049.79 538.52 931.11 697.93 1082.85 653.23
00000400 00000048 610.69 145.40 500.54 696.42 856.00 428.66 1047.83 374.01 1047.44 535.04 932.77 694.62 1075.11 648.52
00000401 00000049 608.77 141.80 504.97 709.41 854.58 426.38 1044.82 369.22 1048.14 529.15 933.84 695.00 1079.09 646.68
00000402 00000050 614.19 130.25 504.40 717.52 854.76 426.11 1046.44 366.55 1050.24 532.18 935.13 693.32 1085.04 645.26
00000403 00000051 615.54 134.92 502.29 704.59 858.04 424.65 1044.68 366.74 1049.82 529.62 939.57 688.53 1083.16 641.99
00000404 00000052 617.07 141.43 502.22 701.74 860.51 416.51 1048.38 363.27 1052.47 519.00 932.08 684.42 1082.23 639.51
00000405 00000053 617.97 142.69 498.49 697.25 864.18 417.98 1046.90 364.42 1053.78 519.17 931.81 679.94 1078.78 634.89
00000406 00000054 619.11 131.25 496.89 701.70 854.47 418.77 1044.11 359.64 1049.22 522.01 921.70 674.07 1079.94 627.01
00000407 00000055 620.53 124.81 498.44 718.09 850.45 417.57 1045.94 359.08 1047.66 520.27 911.28 675.29 1081.47 628.83
00000408 00000056 616.46 131.29 497.05 700.78 852.03 425.63 1037.20 363.78 1046.27 520.21 908.58 671.16 1071.66 622.60
00000409 00000057 612.43 127.88 498.06 700.67 852.63 423.62 1033.72 359.90 1047.23 515.68 910.97 668.35 1071.06 618.30
00000410 00000058 611.99 132.22 493.71 698.53 844.15 418.07 1029.50 357.56 1040.08 510.48 907.35 666.90 1069.20 619.13
00000411 00000059 610.33 130.93 489.17 710.01 843.12 412.86 1022.07 355.65 1037.70 509.46 911.53 669.40 1064.70 623.72
00000412 00000060 607.19 131.86 488.09 701.57 857.14 408.03 1021.94 356.55 1039.79 504.33 927.69 669.41 1061.12 625.71
00000413 00000061 607.67 135.87 484.04 683.80 855.73 411.78 1019.89 355.74 1038.92 502.32 928.21 662.64 1061.23 615.16
00000414 00000062 605.89 133.18 481.51 683.11 858.11 410.72 1022.48 356.20 1046.11 501.89 932.77 661.18 1064.30 614.94
00000415 00000063 606.26 132.10 482.08 681.70 860.66 408.95 1022.51 353.30 1046.19 501.42 935.07 659.01 1062.36 611.69
00000416 00000064 610.07 129.68 477.38 677.30 848.35 410.55 1018.42 347.98 1043.74 498.59 925.49 657.20 1060.94 607.03
00000417 00000065 603.42 128.88 480.00 672.71 843.41 411.98 1013.74 347.63 1036.12 495.82 917.93 652.61 1056.29 600.89
00000418 00000066 595.62 120.72 483.28 685.81 834.17 409.81 1004.90 347.73 1027.20 494.05 910.06 653.65 1051.08 603.52
00000419 00000067 581.84 124.40 487.56 683.12 837.39 407.65 1001.48 350.36 1027.73 498.77 917.25 662.13 1047.12 614.39
00000420 00000068 571.11 121.83 499.73 702.38 831.26 414.29 998.36 355.52 1028.02 508.77 904.04 671.15 1040.00 623.23
00000421 00000069 575.61 126.41 498.73 694.61 830.31 417.66 1002.61 351.58 1031.40 510.10 903.33 670.90 1045.47 617.15
00000422 00000070 574.87 131.57 500.04 703.70 830.25 417.55 1002.27 355.06 1031.09 511.71 901.24 674.98 1046.00 624.44
00000423 00000071 575.09 136.94 501.72 716.25 829.53 414.89 1000.83 359.85 1030.78 509.32 889.40 674.29 1043.83 630.69
00000424 00000072 575.36 131.79 501.76 711.41 831.13 413.55 1000.28 354.39 1030.38 505.62 886.78 666.60 1041.60 619.27
00000425 00000073 579.76 134.62 493.51 688.25 834.94 413.17 1001.80 351.90 1031.22 502.31 892.76 658.82 1040.62 609.59
00000426 00000074 592.81 127.47 479.38 683.23 831.54 413.01 1001.60 353.04 1029.08 502.95 887.49 653.71 1039.71 606.43
00000427 00000075 593.80 121.48 480.02 697.49 833.97 414.72 1003.65 355.47 1026.55 506.26 887.49 656.00 1041.93 609.32
00000428 00000076 595.94 125.42 479.50 695.49 837.19 414.02 1005.83 353.53 1030.50 506.53 893.82 657.77 1044.85 610.05
00000429 00000077 584.66 132.72 493.77 696.87 844.08 411.62 1006.35 355.69 1041.01 504.53 905.06 658.75 1048.00 613.55
00000430 00000078 585.72 139.66 493.36 686.85 842.60 412.96 1009.09 356.21 1040.48 511.79 902.79 660.35 1049.59 614.37
00000431 00000079 580.37 136.06 504.03 706.31 840.58 416.97 1012.70 359.29 1042.46 516.21 892.81 665.74 1047.61 619.33
00000432 00000080 583.91 143.56 500.12 696.80 838.43 416.83 1014.66 361.33 1039.99 518.23 895.59 669.97 1050.10 624.81
00000433 00000081 581.85 140.84 501.98 703.33 839.29 416.08 1016.18 364.22 1039.78 519.82 893.97 671.19 1048.74 628.96
00000434 00000082 587.80 149.45 491.12 676.69 838.36 418.11 1018.84 366.80 1035.66 524.41 897.06 670.32 1048.74 627.94
00000435 00000083 587.87 148.01 488.39 685.69 837.57 419.54 1021.26 373.98 1037.66 531.63 891.39 676.03 1046.01 638.49
00000436 00000084 590.94 158.22 480.45 680.18 837.06 429.06 1022.85 384.46 1034.68 541.38 887.32 683.88 1042.00 647.48
00000437 00000085 589.78 164.20 480.58 690.84 838.57 436.93 1022.56 395.31 1035.32 551.98 878.95 689.83 1039.52 656.51
00000438 00000086 590.56 168.96 478.81 688.90 840.51 443.19 1024.00 402.12 1037.01 561.72 876.78 694.28 1037.80 661.92
00000439 00000087 593.42 173.40 477.07 680.67 842.50 444.63 1024.17 401.91 1038.48 561.09 881.64 694.60 1037.99 660.66
00000440 00000088 589.94 175.95 480.00 678.68 841.70 435.62 1025.44 399.48 1038.07 555.10 879.58 687.92 1038.13 658.96
00000441 00000089 586.39 161.39 484.97 699.30 840.47 434.68 1024.31 400.03 1035.29 550.48 879.58 690.51 1036.67 662.49
00000442 00000090 588.14 160.14 481.54 696.16 838.49 433.97 1021.30 398.78 1031.40 548.44 880.40 690.29 1034.15 661.88
00000443 00000091 587.07 155.13 482.50 709.25 838.22 432.76 1019.41 396.69 1030.35 546.45 876.89 690.57 1032.43 661.71
00000444 00000092 585.75 161.84 483.80 696.31 836.30 429.99 1019.14 395.49 1028.16 547.69 876.43 690.07 1030.92 662.66
00000445 00000093 581.13 168.17 489.90 699.56 836.69 425.82 1019.13 395.02 1028.07 546.87 874.26 691.22 1030.52 666.59
00000446 00000094 582.43 175.54 487.21 696.63 836.24 426.85 1014.40 394.32 1025.84 547.37 871.66 691.71 1027.17 665.92
00000447 00000095 579.85 172.25 487.41 686.40 831.86 426.83 1012.17 392.10 1022.36 546.13 870.25 687.62 1024.98 660.50
00000448 00000096 572.76 175.77 487.86 681.68 826.72 429.62 1005.79 391.09 1018.21 547.52 863.42 685.33 1017.34 655.17
00000449 00000097 572.37 183.65 486.43 660.74 826.49 432.28 1006.08 396.42 1014.92 551.45 868.10 687.96 1015.57 659.63
00000450 00000098 572.04 187.92 487.09 667.49 824.69 433.03 1003.62 395.42 1014.73 550.55 865.98 688.31 1017.05 658.21
00000451 00000099 568.99 183.64 490.39 674.89 822.64 433.53 1005.91 395.30 1015.27 550.52 860.38 688.13 1019.06 657.74
00000452 00000100 570.84 182.39 488.08 669.42 820.89 435.88 1005.93 396.09 1014.14 549.79 864.47 689.49 1022.97 657.50
00000453 00000101 567.75 180.53 490.98 677.53 819.52 436.37 1004.65 397.04 1014.80 549.82 858.31 687.40 1021.15 656.13
00000454 00000102 566.43 176.64 490.23 677.34 817.46 438.98 1003.44 398.46 1011.32 549.84 859.93 689.53 1020.90 656.95
00000455 00000103 563.91 182.87 487.24 676.50 813.98 446.15 998.29 407.18 1007.91 550.05 849.76 688.30 1015.15 657.34
00000456 00000104 562.62 188.01 486.72 662.99 812.02 444.59 997.20 400.76 1005.48 551.35 850.15 689.57 1012.17 654.58
00000457 DELETE   555.63 167.67 486.46 683.97 805.14 447.41 994.01 405.72 998.59 552.87 841.14 690.63 1005.07 657.36
00000458 DELETE   550.16 169.56 493.23 678.38 789.94 442.86 991.28 404.14 986.38 544.98 834.69 687.47 1007.37 655.94
00000459 00000107 545.45 172.67 495.55 677.90 782.32 439.13 982.10 397.95 975.08 545.11 826.73 684.98 999.50 650.81
00000460 00000108 545.22 166.59 494.76 686.26 777.56 436.50 977.55 394.30 967.85 543.61 820.61 685.57 995.24 650.04
00000461 00000109 540.74 165.39 496.16 684.25 772.24 433.22 977.53 390.74 963.50 544.96 817.10 683.87 993.35 647.74
00000462 00000110 538.56 155.22 494.36 695.92 768.90 430.90 976.32 392.28 959.41 541.27 815.45 684.31 991.78 650.66
00000463 00000111 541.81 155.43 486.64 700.64 763.05 437.78 963.42 396.44 949.56 547.65 811.25 686.75 986.29 653.70
00000464 00000112 538.36 139.76 487.75 715.01 759.55 440.88 962.10 397.94 946.73 547.37 809.42 688.51 984.70 654.29
00000465 00000113 537.21 145.03 488.99 715.11 754.50 448.36 961.22 410.44 939.37 552.48 806.39 691.18 984.13 660.69
00000466 00000114 528.28 152.18 490.22 715.27 744.74 463.47 952.40 425.92 929.19 561.19 799.16 697.00 975.17 666.47
00000467 00000115 521.89 151.29 492.98 732.18 737.75 470.64 944.46 431.08 922.80 571.28 789.49 705.83 970.07 673.39
00000468 00000116 519.80 142.81 495.03 744.73 729.71 470.06 942.83 435.92 910.49 574.38 788.33 709.75 968.38 680.93
00000469 00000117 515.92 141.80 498.08 759.62 720.91 473.70 933.90 440.36 900.25 574.86 782.28 716.25 965.83 687.12
00000470 00000118 516.78 146.43 498.30 741.67 716.64 477.05 934.49 444.58 892.63 579.87 775.61 716.45 959.41 688.43
00000471 00000119 515.05 152.66 501.36 744.14 718.00 477.62 933.51 450.76 891.00 580.80 765.30 713.71 954.82 690.23
00000472 00000120 517.78 148.40 501.96 752.51 719.16 478.81 934.51 449.16 893.32 582.02 766.03 712.20 961.32 686.45
00000473 00000121 522.99 152.37 500.70 756.06 722.70 483.84 941.57 452.93 897.16 591.18 774.97 723.34 966.45 696.20
00000474 00000122 527.25 158.89 499.21 745.26 718.51 490.12 943.00 455.99 893.47 599.65 774.49 730.47 967.06 700.75
00000475 00000123 522.47 160.81 508.43 738.84 716.13 488.03 937.87 465.55 881.87 608.64 763.64 730.12 959.45 710.51
00000476 00000124 519.32 171.70 512.81 737.87 715.36 489.65 940.99 472.26 878.61 617.22 758.75 735.15 955.26 719.92
00000477 00000125 519.47 175.00 512.15 734.09 715.49 494.76 943.04 477.30 878.99 627.12 757.67 740.37 952.91 725.64
00000478 00000126 522.89 160.41 510.01 765.13 722.97 497.40 942.89 479.03 884.75 626.04 766.30 746.68 956.53 730.75
00000479 00000127 532.30 178.40 505.94 750.98 735.77 502.81 950.86 477.62 899.68 625.47 779.15 752.32 965.82 730.88
00000480 00000128 542.98 182.52 500.97 742.52 750.03 507.34 967.43 478.45 918.68 632.76 790.73 757.63 978.31 733.08
00000481 00000129 549.25 179.71 499.96 749.21 759.09 510.84 975.31 481.44 931.33 635.66 796.22 761.01 985.97 735.85
00000482 00000130 552.35 188.02 499.49 741.90 757.65 514.91 977.13 486.97 927.61 640.66 798.42 764.18 987.20 740.13
00000483 00000131 552.33 200.67 499.64 731.49 756.16 515.91 974.07 486.69 923.09 642.54 798.69 765.84 985.19 741.09
CROP_BBOX: 138 0 1323 1080
