Video ID: 	WpxatihUOIM
H: 	1080
W: 	1920
FPS: 	25.0

FRAME INDEX X0 Y0 W H [Landmarks (5 Points)]

00003338 00000000 865.00 134.38 545.81 846.17 921.52 456.96 1139.05 441.84 956.10 631.34 971.26 773.10 1150.46 759.53
00003339 DELETE   863.62 135.48 540.86 844.74 920.51 455.06 1138.93 441.90 956.06 630.77 969.48 771.31 1150.01 759.39
00003340 00000002 862.95 130.91 547.22 849.54 920.07 453.43 1138.80 441.31 953.19 630.41 968.54 771.01 1148.92 759.99
00003341 00000003 862.54 131.75 556.84 863.93 919.11 458.10 1136.16 441.34 950.82 631.02 970.24 778.95 1154.50 763.75
00003342 00000004 862.20 139.66 558.53 865.65 922.67 460.76 1137.83 444.29 953.22 633.52 972.63 786.98 1155.67 771.80
00003343 00000005 865.86 144.44 552.99 860.10 926.05 464.93 1136.84 452.35 949.45 639.40 972.37 790.15 1151.50 778.32
00003344 00000006 867.59 144.69 552.35 860.79 927.41 467.56 1136.18 456.52 949.84 647.57 974.33 795.95 1150.15 785.58
00003345 00000007 866.73 145.51 545.01 862.73 927.87 470.65 1137.05 458.86 953.06 653.23 974.27 799.46 1151.69 788.73
00003346 00000008 867.71 143.88 546.65 865.16 927.86 472.88 1138.82 462.41 953.29 657.76 975.36 802.47 1153.59 792.91
00003347 00000009 865.98 139.89 546.68 869.89 927.83 474.10 1144.05 465.99 956.01 660.21 972.30 803.21 1152.53 795.99
00003348 00000010 866.50 134.57 555.86 874.78 928.23 474.68 1145.40 469.00 955.67 660.77 972.21 802.61 1150.13 797.39
00003349 00000011 870.91 148.08 557.71 856.82 935.99 472.36 1151.36 472.35 965.48 665.81 977.11 795.99 1152.82 797.60
00003350 00000012 876.20 146.22 549.81 858.00 940.62 473.58 1157.58 474.24 972.61 669.91 983.25 796.07 1158.03 798.29
00003351 00000013 879.08 143.47 550.68 858.58 945.84 471.20 1165.55 474.59 980.65 672.20 987.44 793.47 1163.73 797.99
00003352 00000014 882.48 139.79 559.34 865.00 946.48 468.21 1169.56 475.59 974.62 670.65 985.30 796.73 1168.94 803.12
00003353 00000015 886.10 140.60 556.33 857.55 950.95 469.49 1173.36 476.00 980.56 669.15 989.77 795.72 1171.35 801.58
00003354 00000016 891.53 140.03 552.06 857.68 956.55 466.69 1179.95 474.00 986.03 666.22 991.37 794.73 1174.54 801.40
00003355 00000017 894.40 139.99 548.23 857.60 958.41 465.09 1188.94 474.53 993.55 663.89 991.05 793.45 1178.76 801.99
00003356 00000018 901.06 148.39 547.80 849.04 962.65 464.56 1196.25 477.19 998.55 663.19 992.23 791.11 1183.57 802.51
00003357 00000019 905.01 148.24 542.31 850.14 967.23 462.59 1202.22 474.51 1005.74 665.07 995.62 793.31 1186.12 804.36
00003358 00000020 913.29 142.83 547.07 861.63 976.99 461.78 1210.04 477.50 1012.77 663.46 1001.83 793.90 1191.71 807.98
00003359 00000021 921.18 154.09 553.97 844.89 992.24 473.22 1219.10 486.93 1023.34 657.59 1011.82 784.77 1196.76 798.39
00003360 00000022 933.52 150.93 562.40 848.58 996.25 470.57 1227.15 495.73 1020.46 663.28 1012.59 787.42 1200.57 808.95
00003361 00000023 941.17 154.87 558.26 843.54 1009.24 467.90 1241.10 491.88 1036.90 660.49 1018.64 779.18 1209.39 800.66
00003362 00000024 950.29 158.41 551.00 847.26 1012.40 462.77 1253.10 496.13 1045.56 665.32 1018.64 787.41 1209.95 816.94
00003363 00000025 961.05 169.64 548.34 834.42 1026.51 461.49 1260.15 493.77 1057.30 660.93 1030.91 778.33 1221.14 808.25
00003364 00000026 964.72 176.54 551.15 824.77 1032.76 457.24 1270.58 495.64 1064.21 662.76 1032.63 773.57 1225.17 808.58
00003365 00000027 967.14 163.25 555.05 836.57 1033.95 454.24 1279.67 495.33 1067.54 663.99 1033.14 772.67 1229.34 810.08
00003366 00000028 969.64 157.26 554.47 845.08 1033.31 453.03 1285.57 497.94 1068.64 675.77 1033.95 778.82 1240.35 817.88
00003367 00000029 973.57 160.15 559.85 842.45 1041.41 456.04 1289.11 500.56 1072.33 669.37 1038.39 775.32 1237.87 814.94
00003368 00000030 974.73 164.50 557.47 837.09 1043.48 455.08 1292.46 501.41 1075.17 669.90 1040.55 775.30 1239.57 816.18
00003369 00000031 975.56 161.15 555.96 842.97 1045.30 456.53 1293.22 502.58 1077.67 671.59 1042.12 777.78 1241.20 818.61
00003370 00000032 975.32 163.90 556.60 840.92 1045.79 458.83 1293.71 503.49 1078.63 672.54 1043.18 778.99 1241.47 818.76
00003371 00000033 974.55 162.13 558.20 843.42 1045.55 458.70 1293.61 503.37 1078.26 672.67 1043.48 779.02 1241.87 818.85
00003372 00000034 973.95 161.28 556.97 843.97 1044.71 457.33 1294.14 501.16 1079.41 672.27 1043.13 779.20 1241.86 818.32
00003373 00000035 972.52 166.33 559.45 837.69 1043.18 456.50 1294.18 500.04 1079.90 671.54 1041.78 779.12 1240.00 817.82
00003374 00000036 970.26 165.15 561.85 838.75 1041.41 456.66 1291.26 498.42 1077.04 670.61 1042.17 777.70 1238.46 814.97
00003375 00000037 968.84 159.56 561.61 842.23 1038.06 456.59 1289.66 495.15 1076.85 671.18 1042.77 781.07 1238.66 815.89
00003376 00000038 968.15 164.46 562.94 838.65 1037.75 454.44 1289.58 494.24 1075.35 669.73 1041.26 779.32 1238.18 815.00
00003377 00000039 966.92 161.42 566.11 846.97 1037.99 457.88 1285.30 496.92 1070.88 668.93 1038.77 779.95 1235.21 815.17
00003378 00000040 967.08 165.41 565.39 845.01 1036.25 459.40 1284.69 496.56 1070.67 670.49 1039.06 784.66 1238.36 818.44
00003379 00000041 966.64 165.17 562.05 839.23 1033.87 460.19 1284.52 498.32 1071.36 671.11 1037.09 782.59 1237.68 817.27
00003380 00000042 965.47 164.62 561.81 839.70 1034.14 459.27 1284.27 497.73 1071.27 670.21 1035.86 779.52 1236.11 814.43
00003381 00000043 965.78 163.24 561.41 841.63 1035.03 459.35 1282.81 497.27 1069.83 668.65 1035.56 777.38 1235.94 811.84
00003382 00000044 966.46 162.01 559.89 844.67 1035.18 457.97 1282.22 496.30 1069.13 667.95 1035.24 776.28 1236.95 810.81
00003383 00000045 966.58 168.35 559.13 839.77 1035.93 458.97 1281.15 496.71 1068.68 666.97 1036.22 777.14 1237.70 811.01
00003384 00000046 966.02 166.89 562.79 842.90 1035.35 460.58 1282.09 496.89 1069.29 669.12 1037.12 781.13 1238.13 814.17
00003385 00000047 965.18 170.06 563.95 840.37 1034.79 462.09 1281.55 497.51 1069.51 670.54 1038.03 782.86 1237.75 815.23
00003386 00000048 965.15 169.91 562.32 839.91 1034.12 463.01 1281.47 498.15 1069.77 671.13 1037.78 783.27 1238.61 815.32
00003387 00000049 963.82 169.63 563.34 840.69 1033.71 463.24 1281.32 496.90 1070.28 669.87 1037.04 783.93 1236.38 814.95
00003388 00000050 962.26 167.62 561.59 840.63 1033.17 460.33 1281.05 496.51 1070.77 669.85 1035.87 780.63 1234.87 813.77
00003389 00000051 962.55 169.13 560.18 836.24 1030.69 460.76 1282.19 495.10 1072.80 671.72 1036.29 782.56 1234.87 814.33
00003390 00000052 964.06 173.02 558.59 831.95 1030.58 463.93 1280.47 497.77 1070.92 672.74 1036.25 784.14 1234.17 815.31
00003391 00000053 964.36 176.95 554.45 827.12 1031.08 462.46 1278.46 500.15 1069.60 672.28 1033.79 782.24 1231.95 816.47
00003392 00000054 963.35 173.81 555.48 830.82 1031.16 462.50 1277.28 499.59 1068.82 670.24 1033.46 782.64 1231.98 816.58
00003393 00000055 963.52 168.16 556.87 833.87 1030.44 461.72 1276.42 498.29 1067.89 668.77 1033.28 782.46 1232.01 816.06
00003394 00000056 962.76 170.20 556.11 832.29 1029.54 461.22 1273.72 496.99 1065.91 667.25 1033.49 781.80 1229.37 814.79
00003395 00000057 960.97 172.21 552.88 828.97 1028.46 460.52 1271.96 496.61 1066.31 667.98 1033.02 780.68 1227.52 813.94
00003396 00000058 960.07 170.02 551.91 832.07 1027.43 461.36 1268.72 496.82 1063.68 667.50 1032.32 781.21 1225.70 813.90
00003397 00000059 959.51 168.13 558.75 832.03 1023.96 462.84 1272.31 493.07 1064.30 668.20 1024.29 785.37 1224.02 812.26
00003398 00000060 960.65 175.77 551.14 823.12 1027.52 463.79 1273.09 497.80 1069.76 670.43 1033.81 781.58 1230.17 813.05
00003399 00000061 961.46 168.12 552.30 832.05 1030.36 463.69 1281.36 497.58 1076.95 671.56 1036.27 782.49 1236.55 813.97
00003400 00000062 962.85 169.00 551.23 831.79 1031.04 465.24 1283.61 493.93 1080.15 671.16 1040.42 786.37 1242.10 813.42
00003401 00000063 962.44 168.97 556.17 832.35 1031.46 468.10 1283.30 493.75 1080.36 671.19 1042.92 787.88 1244.83 812.31
00003402 00000064 961.48 155.28 557.14 849.19 1026.16 464.53 1285.86 495.91 1078.59 683.64 1039.34 791.45 1251.84 819.11
00003403 00000065 962.29 157.87 556.15 844.44 1026.17 465.96 1286.34 496.00 1081.12 685.12 1042.07 791.68 1254.60 818.31
00003404 00000066 960.50 160.29 558.06 842.74 1025.23 466.32 1286.42 495.06 1081.75 685.69 1041.74 792.68 1254.63 818.14
00003405 00000067 960.90 168.99 557.40 833.17 1030.28 472.79 1285.13 493.46 1086.86 675.29 1048.37 792.06 1254.64 811.93
00003406 00000068 960.41 179.40 557.23 822.84 1030.38 474.09 1283.65 493.68 1086.28 673.53 1048.00 793.09 1253.65 811.94
00003407 00000069 958.44 178.69 558.60 826.41 1030.44 476.17 1283.17 492.75 1088.41 675.07 1050.75 796.68 1253.62 813.03
00003408 00000070 957.43 178.06 558.02 827.90 1030.60 476.13 1281.08 491.34 1087.43 673.39 1051.95 795.79 1252.60 810.98
00003409 00000071 954.55 173.18 562.16 834.92 1028.95 475.45 1280.23 489.40 1087.41 673.01 1051.88 797.37 1251.20 811.73
00003410 00000072 953.50 172.87 561.76 839.48 1029.28 474.56 1279.17 486.71 1088.02 669.56 1050.65 796.55 1250.33 809.43
00003411 00000073 951.39 175.68 561.23 833.86 1028.16 473.35 1278.17 485.97 1088.05 669.99 1050.73 794.64 1248.35 807.72
00003412 00000074 948.93 174.68 563.26 837.96 1027.18 475.13 1277.72 484.49 1090.00 671.79 1050.75 797.47 1248.86 807.63
00003413 00000075 949.20 173.12 560.25 841.35 1026.88 474.79 1279.09 483.70 1092.46 674.27 1051.51 800.78 1249.65 810.63
00003414 00000076 948.77 174.44 561.62 843.93 1028.10 476.12 1276.42 485.18 1089.61 674.94 1053.54 801.45 1249.50 811.02
00003415 00000077 949.28 175.21 563.58 840.94 1027.87 479.21 1276.70 485.62 1089.68 674.30 1056.09 804.32 1252.05 811.82
00003416 00000078 950.61 177.08 561.88 843.70 1028.70 480.64 1279.79 486.54 1091.81 673.43 1053.60 809.66 1247.85 816.85
00003417 00000079 953.28 176.27 558.01 839.87 1028.98 477.76 1281.86 484.61 1093.16 673.12 1053.62 805.81 1248.35 813.89
00003418 00000080 953.09 175.73 560.15 842.88 1029.67 477.29 1281.93 484.69 1093.51 672.41 1053.65 802.03 1257.56 810.06
00003419 00000081 951.78 173.41 565.84 847.51 1031.94 477.42 1279.78 483.42 1092.94 669.64 1060.49 801.46 1261.45 808.09
00003420 00000082 952.69 175.75 567.27 849.46 1033.02 478.12 1279.64 484.08 1091.35 669.12 1060.55 802.78 1263.54 809.07
00003421 00000083 953.31 177.08 567.55 847.08 1032.94 480.26 1278.28 484.90 1089.23 668.07 1061.86 803.50 1264.75 808.59
00003422 00000084 953.66 179.16 568.70 845.75 1032.88 482.17 1277.06 485.36 1087.13 667.22 1063.51 805.08 1265.12 808.83
00003423 00000085 954.13 178.34 568.84 845.17 1032.66 481.86 1276.61 484.57 1087.37 666.65 1062.69 805.11 1264.29 808.47
00003424 00000086 951.76 171.47 563.12 847.68 1030.22 478.49 1272.10 479.33 1088.69 666.16 1058.73 798.22 1261.68 800.24
00003425 00000087 949.43 154.05 562.65 861.81 1018.87 469.05 1265.85 480.66 1074.83 673.80 1052.66 794.40 1262.41 804.61
00003426 00000088 946.27 152.12 563.27 855.86 1018.17 467.21 1264.52 477.93 1073.55 668.93 1050.86 790.03 1260.86 799.39
00003427 00000089 950.01 148.44 561.01 856.45 1022.84 471.37 1263.62 469.35 1077.25 659.75 1048.51 786.70 1252.77 785.04
00003428 00000090 948.05 154.56 555.98 855.66 1016.90 469.55 1256.04 472.25 1072.83 662.91 1048.76 787.72 1259.77 788.90
00003429 00000091 943.76 150.34 557.99 856.28 1011.82 470.78 1248.82 469.96 1068.31 659.64 1045.50 788.19 1253.78 786.63
00003430 00000092 938.03 147.35 561.52 857.85 1006.07 468.53 1242.51 466.99 1059.41 655.12 1041.25 786.02 1248.20 783.66
00003431 00000093 933.52 151.70 566.66 856.76 1003.88 465.35 1237.22 464.98 1052.18 650.69 1036.00 784.31 1242.24 782.97
00003432 00000094 928.46 143.10 571.13 854.36 1002.40 467.26 1241.34 465.68 1048.93 649.60 1028.99 779.03 1229.63 778.91
00003433 00000095 924.24 150.40 564.77 854.89 991.12 464.06 1228.37 465.64 1033.92 650.57 1019.72 783.87 1225.75 784.65
00003434 00000096 918.40 150.80 550.63 848.12 982.90 461.26 1215.60 461.78 1027.12 649.07 1012.61 778.07 1220.94 777.95
00003435 00000097 914.06 145.97 550.96 848.27 976.61 461.40 1209.44 464.15 1017.78 648.25 1004.42 778.00 1210.30 780.38
00003436 00000098 910.44 151.15 549.20 843.02 971.82 459.56 1205.04 463.02 1013.26 649.44 1001.64 778.05 1205.33 781.11
00003437 00000099 905.12 145.99 552.00 847.27 968.19 460.91 1201.70 463.68 1009.80 650.07 998.20 779.33 1200.32 781.92
00003438 00000100 904.03 149.49 556.53 845.69 964.60 462.15 1198.36 465.81 1003.02 652.75 996.25 781.20 1197.13 784.57
00003439 00000101 904.72 144.52 547.74 852.83 966.46 463.85 1198.17 467.43 1004.42 652.89 996.49 783.30 1194.52 786.68
CROP_BBOX: 571 0 1824 1080
