Video ID: 	-LU6SAtmBK0
H: 	1080
W: 	1920
FPS: 	25.0

FRAME INDEX X0 Y0 W H [Landmarks (5 Points)]

00053826 00000000 633.01 256.60 483.01 618.10 878.78 462.63 1082.26 463.93 1050.05 592.96 896.20 706.18 1059.76 706.53
00053827 DELETE   640.83 259.74 484.84 618.70 887.12 467.62 1092.61 468.19 1060.42 600.24 908.73 715.53 1069.79 715.05
00053828 00000002 652.78 255.19 483.49 626.46 898.14 473.36 1105.53 475.55 1071.63 610.84 917.11 725.72 1075.66 727.11
00053829 00000003 649.86 250.61 490.50 633.89 907.36 484.49 1108.77 485.63 1082.44 628.48 922.06 729.29 1075.87 733.14
00053830 00000004 659.26 251.20 485.00 636.91 908.91 485.91 1112.04 488.27 1082.66 632.34 921.50 732.45 1075.89 737.35
00053831 00000005 661.29 253.96 486.49 635.31 911.49 488.47 1112.75 494.27 1080.03 631.49 924.41 731.30 1076.12 738.53
00053832 00000006 662.81 251.45 485.10 638.21 912.70 490.04 1113.05 495.02 1080.89 631.83 923.27 731.83 1075.21 738.61
00053833 00000007 660.78 253.49 487.68 637.97 910.08 491.96 1114.68 494.50 1082.33 634.20 921.43 734.29 1078.21 739.22
00053834 00000008 670.11 264.05 475.41 636.73 908.69 488.47 1117.68 498.90 1076.11 630.98 919.01 738.33 1081.58 746.30
00053835 00000009 662.96 269.85 477.14 637.88 907.91 494.82 1116.73 503.74 1077.69 635.29 916.17 741.97 1081.42 748.73
00053836 00000010 655.27 262.99 481.87 638.89 906.00 503.35 1108.72 503.43 1082.62 645.06 917.99 745.84 1073.32 748.88
00053837 00000011 651.28 279.23 483.70 634.84 905.36 500.59 1107.26 505.25 1073.58 641.26 911.45 745.88 1072.54 749.63
00053838 00000012 653.11 248.77 481.35 647.17 903.27 493.49 1099.87 496.37 1071.19 636.39 904.96 736.41 1056.68 742.57
00053839 00000013 645.10 243.08 487.00 635.66 905.15 485.74 1099.02 487.10 1073.06 622.82 912.37 724.30 1059.38 728.74
00053840 00000014 643.56 236.06 484.04 632.60 907.18 473.85 1101.22 469.12 1079.11 606.49 919.24 710.43 1068.42 707.88
00053841 00000015 644.67 233.20 482.12 629.96 898.13 466.75 1099.97 464.26 1069.10 594.53 911.76 699.14 1072.69 697.58
00053842 00000016 642.03 218.37 477.33 640.68 897.82 462.42 1095.97 458.46 1070.71 587.62 908.24 696.44 1066.27 693.71
00053843 00000017 637.30 214.20 474.99 638.03 897.02 454.88 1092.40 459.31 1065.87 581.94 908.98 691.15 1059.84 694.79
00053844 00000018 628.35 210.44 479.91 641.74 888.02 453.33 1085.51 455.27 1062.32 578.56 902.24 690.78 1055.25 692.41
00053845 00000019 617.74 211.48 486.28 642.52 879.71 450.36 1075.41 448.76 1055.77 575.90 892.80 689.10 1046.80 688.16
00053846 00000020 612.98 202.02 484.03 640.98 865.01 446.65 1057.87 442.96 1041.43 576.53 881.55 687.40 1027.99 687.27
00053847 DELETE   597.03 195.14 491.41 632.42 843.76 433.59 1043.85 435.48 1013.35 559.42 874.10 675.58 1018.89 679.08
00053848 DELETE   587.85 190.51 484.20 618.19 817.58 409.28 1031.24 420.80 980.17 537.71 839.71 655.14 1001.29 662.92
00053849 DELETE   570.09 188.37 486.82 607.62 800.89 390.71 1013.32 406.70 961.10 519.74 820.09 635.39 985.98 647.39
00053850 00000024 566.99 178.06 483.22 609.81 794.32 378.55 1003.74 384.93 957.85 502.43 820.79 621.14 983.41 625.61
00053851 00000025 564.54 149.44 483.59 632.12 793.80 379.22 998.80 382.86 956.96 494.26 821.86 618.00 979.59 620.10
00053852 00000026 564.23 162.59 479.17 629.36 792.45 375.94 995.01 381.37 954.58 494.84 824.61 621.88 978.86 624.88
00053853 00000027 561.94 154.85 483.17 631.50 792.31 386.18 990.59 388.26 950.45 505.56 818.88 626.49 969.53 628.04
00053854 00000028 562.01 161.68 485.39 634.78 792.39 394.36 990.03 395.83 949.21 514.39 820.47 637.01 967.12 638.55
00053855 00000029 560.03 174.80 487.68 630.78 786.84 401.57 990.77 399.35 949.05 528.62 819.95 648.43 972.53 647.28
00053856 00000030 564.01 184.54 486.94 639.25 792.57 405.77 1007.09 408.78 960.09 538.06 817.12 661.17 982.73 662.30
00053857 00000031 568.76 190.30 480.83 645.07 794.77 418.06 1005.66 421.61 958.90 545.85 823.78 671.04 981.74 672.08
00053858 00000032 570.00 192.86 483.92 652.32 798.06 420.18 1004.49 428.07 955.48 550.26 820.28 675.01 972.43 679.27
00053859 00000033 565.37 201.15 489.90 644.30 796.57 422.28 1001.12 431.82 952.34 552.05 817.33 674.55 970.25 680.26
00053860 00000034 563.48 204.33 491.03 643.86 795.15 423.72 999.18 432.45 951.15 553.74 815.13 677.06 968.92 682.18
00053861 00000035 563.38 208.42 490.63 640.25 794.30 425.00 1000.28 432.56 953.10 555.04 815.45 678.13 971.54 682.54
00053862 00000036 564.93 206.74 490.46 642.55 793.72 428.29 1004.94 434.19 955.97 558.18 818.25 680.02 980.04 683.12
00053863 00000037 564.19 211.48 489.96 632.96 793.60 433.22 1008.72 436.04 962.05 563.67 817.79 680.64 983.99 682.04
00053864 00000038 565.30 214.67 490.30 631.01 794.46 433.99 1008.28 437.03 961.96 564.79 818.94 681.41 983.99 683.01
00053865 00000039 564.56 214.88 490.07 629.78 797.27 436.73 1012.42 438.70 968.28 568.13 824.74 685.16 986.39 685.74
00053866 00000040 565.35 219.67 490.50 631.74 800.40 440.42 1007.53 444.73 962.90 573.98 827.05 690.09 979.52 692.20
00053867 00000041 568.50 230.17 492.70 628.36 799.54 449.22 1005.05 451.60 958.70 586.24 823.82 695.81 979.80 697.48
00053868 00000042 572.72 230.65 485.92 631.41 800.74 462.11 999.82 462.25 954.45 594.43 826.91 703.96 976.21 703.25
00053869 00000043 571.96 231.72 487.47 633.00 800.60 465.26 998.64 464.11 954.31 598.31 827.31 706.82 976.88 705.00
00053870 00000044 577.56 247.69 484.27 624.22 800.61 455.98 1007.34 460.26 956.26 595.77 827.23 710.47 980.18 712.16
00053871 00000045 581.46 246.46 481.41 625.48 804.10 456.52 1008.57 459.05 959.27 594.20 829.64 709.10 983.39 709.52
00053872 00000046 583.48 245.46 482.24 625.52 806.23 453.96 1011.44 456.89 960.84 592.88 832.04 707.44 986.20 708.00
00053873 00000047 585.05 250.93 482.29 620.39 807.70 456.16 1011.96 459.12 961.50 592.62 834.28 708.10 987.54 708.56
00053874 00000048 586.87 253.45 483.48 624.98 809.96 459.17 1012.08 464.42 961.51 595.60 833.63 708.36 988.54 710.79
00053875 00000049 586.57 262.53 485.74 617.57 809.33 459.82 1013.29 464.09 962.16 596.54 834.30 709.22 991.43 710.84
00053876 00000050 584.48 263.08 489.62 622.99 808.40 459.39 1013.76 464.16 961.82 597.34 833.02 711.46 991.16 713.31
00053877 00000051 583.52 259.30 488.80 629.60 808.52 460.04 1012.17 466.92 961.20 596.94 829.96 710.78 989.14 714.60
00053878 00000052 583.11 264.47 486.78 619.28 808.90 460.73 1012.85 464.76 963.93 597.96 828.75 709.53 989.39 711.41
00053879 00000053 584.16 264.70 483.45 608.16 806.42 463.49 1013.26 463.97 964.80 599.16 827.80 708.97 991.10 708.32
00053880 00000054 581.18 267.00 482.90 598.82 803.44 464.73 1013.67 463.47 965.76 601.81 824.20 707.57 991.34 706.11
00053881 00000055 578.72 272.12 484.94 588.93 801.39 464.54 1012.10 463.25 963.29 599.80 824.18 705.36 990.09 703.72
00053882 00000056 576.23 258.63 493.99 598.48 798.90 474.07 1010.25 463.25 964.24 607.83 823.30 700.52 994.06 692.66
00053883 00000057 575.22 258.68 496.18 595.91 798.61 473.31 1011.36 462.62 965.39 607.16 822.56 697.64 995.52 689.90
00053884 00000058 574.39 255.31 497.52 597.67 799.12 474.43 1011.06 462.85 965.62 607.33 821.07 695.98 995.54 687.61
00053885 00000059 573.26 255.80 498.96 596.28 799.73 474.21 1011.02 463.59 966.02 607.09 821.05 694.68 995.09 687.08
00053886 00000060 573.18 258.39 499.37 591.93 800.34 474.10 1011.33 463.34 967.26 607.40 822.63 694.13 996.05 686.59
00053887 00000061 573.57 256.04 499.07 594.15 800.36 473.78 1011.86 463.87 966.59 607.55 822.97 694.58 996.64 687.49
00053888 00000062 574.04 251.17 498.38 603.99 798.10 475.31 1011.56 466.47 962.60 608.67 820.11 698.04 995.33 691.68
00053889 00000063 575.46 254.45 496.23 604.95 796.93 474.35 1011.86 467.00 961.57 609.08 821.15 701.41 995.75 696.16
00053890 00000064 576.30 255.68 491.56 611.22 796.80 474.97 1009.83 468.28 961.38 609.01 822.16 707.75 993.26 703.29
00053891 00000065 575.95 265.73 486.39 611.16 801.48 467.99 1015.45 471.17 967.00 607.64 820.94 714.18 990.59 716.52
00053892 00000066 575.86 266.75 486.57 610.50 802.21 468.39 1016.08 472.22 967.58 608.24 821.43 715.07 990.30 717.96
00053893 00000067 573.83 265.73 488.27 621.69 802.24 468.22 1016.30 473.66 967.49 608.15 821.57 717.48 990.92 721.23
00053894 00000068 573.07 268.71 487.42 615.47 801.72 468.38 1015.94 476.17 965.11 610.59 818.47 718.41 987.39 724.33
00053895 00000069 572.02 272.34 489.36 617.10 802.13 466.20 1012.15 476.66 959.77 607.01 822.11 718.15 984.05 725.40
00053896 00000070 570.57 269.71 490.55 623.75 800.35 465.38 1009.81 476.13 957.39 606.58 818.81 719.65 980.18 726.95
00053897 00000071 570.03 269.18 491.51 627.56 799.54 464.50 1006.63 475.09 954.49 605.64 815.00 718.34 977.63 725.65
00053898 00000072 568.97 265.95 492.37 630.27 800.13 464.74 1007.54 474.26 956.07 605.36 814.18 718.01 976.78 724.49
00053899 00000073 569.19 266.17 491.64 630.74 800.06 465.27 1006.76 473.93 956.06 606.44 813.84 718.74 975.97 724.53
00053900 00000074 570.21 261.15 493.01 635.87 800.49 464.15 1005.93 475.59 953.42 604.47 812.48 715.49 974.60 723.30
00053901 00000075 568.00 254.45 491.72 630.97 800.93 461.09 1003.72 471.77 954.08 600.15 812.31 707.39 971.61 714.59
00053902 00000076 561.19 234.00 490.39 645.69 802.84 449.64 1001.60 459.19 959.21 587.39 810.02 695.63 967.61 702.70
00053903 00000077 552.23 221.35 493.68 637.43 794.34 439.81 998.73 444.88 956.46 580.73 804.90 687.40 964.85 691.64
00053904 00000078 551.18 218.66 494.68 630.94 790.29 430.88 988.60 440.64 944.51 565.64 803.64 675.44 958.93 682.63
00053905 00000079 552.08 217.99 484.08 615.15 788.44 422.88 988.22 433.40 942.65 555.54 805.04 664.35 956.86 671.50
00053906 00000080 547.10 206.97 486.05 614.48 772.37 418.02 971.58 417.52 932.39 550.91 803.84 658.13 949.70 659.65
00053907 00000081 539.74 199.27 491.54 610.73 768.70 412.01 972.74 412.40 929.31 546.41 796.12 649.47 950.24 651.50
00053908 00000082 536.80 186.01 492.91 611.93 765.64 406.38 970.15 404.29 926.75 540.32 795.53 641.72 949.46 641.43
00053909 00000083 534.31 180.52 492.46 618.80 763.49 398.21 961.00 398.32 918.57 531.55 789.98 636.72 941.15 638.32
00053910 00000084 527.86 172.11 494.55 624.82 759.71 396.29 953.65 395.31 912.53 527.38 785.15 632.09 936.73 632.20
00053911 00000085 522.78 166.59 493.56 626.92 757.69 394.17 947.18 390.79 910.64 520.57 779.74 624.70 934.14 622.82
00053912 00000086 517.89 167.67 499.21 620.51 752.73 390.06 947.03 391.21 904.99 517.39 778.38 620.48 934.26 621.46
00053913 00000087 516.24 163.38 498.81 623.77 750.52 391.47 946.26 389.97 904.62 518.83 777.15 622.24 934.69 620.92
00053914 00000088 515.61 162.74 499.07 624.24 750.59 391.11 946.75 389.91 904.88 519.59 777.12 622.43 934.61 621.34
00053915 00000089 517.46 170.69 499.74 619.23 751.66 392.97 948.28 390.60 906.66 523.45 778.98 625.90 936.41 624.29
00053916 00000090 517.56 172.71 496.73 622.76 753.20 393.97 948.52 394.18 907.50 529.55 779.98 631.57 933.62 632.24
00053917 00000091 519.23 178.20 503.14 629.16 757.65 397.27 955.59 398.92 913.28 537.36 781.59 640.86 932.84 643.38
00053918 00000092 523.04 180.61 502.17 637.53 760.27 397.16 955.69 399.70 914.63 537.17 782.75 645.70 932.98 649.37
00053919 00000093 526.54 179.33 499.02 640.74 762.48 397.89 957.73 399.47 918.64 536.17 785.87 649.07 935.22 651.81
00053920 00000094 525.51 179.64 501.38 639.72 764.47 397.75 959.04 397.49 922.05 535.85 787.66 648.69 935.72 650.20
00053921 00000095 527.06 174.82 499.79 645.00 767.12 396.88 959.45 397.18 922.99 535.21 787.27 647.38 935.74 649.45
00053922 00000096 529.85 176.85 497.59 640.01 766.33 396.28 959.67 398.36 921.08 532.74 789.85 645.22 938.02 648.31
00053923 00000097 528.54 176.15 498.48 637.60 767.67 397.88 959.67 399.15 922.72 533.05 791.05 643.85 937.69 646.36
00053924 00000098 529.15 173.81 497.04 635.23 766.65 400.69 958.93 399.34 921.99 536.34 791.58 644.20 937.72 644.54
00053925 00000099 527.12 181.31 497.58 630.68 764.05 403.35 958.51 402.27 921.36 540.57 791.92 647.81 938.19 648.40
00053926 00000100 525.85 182.36 498.57 629.49 762.38 404.99 959.49 403.78 920.50 542.85 791.50 648.92 938.32 649.36
00053927 00000101 526.65 185.75 497.94 627.40 762.40 406.00 962.32 406.74 922.30 543.83 791.71 650.45 939.95 652.53
00053928 00000102 525.02 191.23 498.08 626.26 764.13 409.47 960.69 409.44 923.64 546.16 793.32 653.10 938.49 654.53
00053929 00000103 523.44 191.97 497.41 633.70 763.67 409.13 959.44 409.83 923.37 546.90 791.37 655.29 937.80 657.25
00053930 00000104 534.17 207.23 485.73 619.14 756.32 402.27 966.15 400.88 919.27 541.70 785.29 659.46 946.93 656.60
00053931 00000105 532.82 203.30 485.42 622.20 756.53 404.60 963.18 402.84 918.82 540.91 785.17 658.86 944.34 655.91
00053932 00000106 532.34 204.87 486.82 626.52 756.62 404.83 962.41 403.42 918.84 540.60 783.93 659.48 944.78 656.85
00053933 00000107 533.86 204.78 485.37 630.44 757.25 406.50 961.31 405.47 918.58 542.66 781.71 660.12 943.91 658.05
00053934 00000108 533.19 205.58 486.51 630.10 758.05 406.27 961.99 403.65 921.06 542.13 782.24 661.44 943.97 658.40
00053935 00000109 532.60 207.21 489.61 628.88 758.44 407.90 962.57 404.60 920.96 545.08 780.82 660.80 943.71 657.21
00053936 00000110 530.24 202.10 490.47 636.55 756.75 413.30 961.52 409.29 919.93 548.69 778.29 662.59 942.80 658.48
00053937 00000111 530.56 201.40 483.96 630.92 754.20 416.54 962.24 414.55 917.60 549.89 777.79 664.14 941.89 661.50
00053938 00000112 526.31 203.90 488.62 633.71 752.60 421.48 961.13 417.69 918.88 550.55 774.75 669.28 940.45 665.24
00053939 00000113 519.44 201.31 492.55 637.56 747.66 431.81 950.16 426.29 915.78 564.49 778.32 671.48 933.50 669.07
00053940 DELETE   512.68 222.37 494.60 628.84 737.57 440.74 945.95 435.31 899.99 572.56 755.63 680.41 924.24 675.54
00053941 00000115 504.95 209.29 499.61 645.36 723.82 441.58 939.39 444.20 880.79 579.08 743.47 685.28 913.10 686.09
00053942 00000116 500.23 207.96 496.31 647.01 718.95 443.83 928.81 444.15 874.13 579.30 734.88 683.20 904.76 682.37
00053943 00000117 500.78 209.28 496.67 644.36 720.02 443.21 932.27 442.16 876.69 578.40 740.44 684.86 909.50 682.53
00053944 00000118 506.54 214.60 496.42 639.57 724.05 443.86 938.20 441.63 883.17 580.25 749.20 689.71 916.52 686.40
00053945 00000119 512.30 221.99 495.33 636.69 727.23 451.24 939.90 443.70 886.75 586.76 752.31 692.71 923.20 685.34
00053946 00000120 518.25 224.85 496.33 639.35 733.03 455.09 937.28 445.21 889.96 586.33 756.35 693.54 917.35 684.34
00053947 00000121 524.63 226.57 492.25 640.42 738.36 459.08 941.80 447.99 895.98 588.49 760.21 696.50 922.99 686.32
00053948 00000122 522.88 223.74 496.16 638.85 757.55 460.88 946.47 453.01 907.70 593.04 768.53 694.18 924.19 688.54
00053949 00000123 527.74 222.47 494.50 642.47 760.39 461.92 953.03 454.88 913.91 594.88 773.62 697.06 932.55 692.12
00053950 00000124 534.37 221.70 497.41 646.91 766.73 462.60 962.28 456.10 920.12 597.79 780.88 700.74 940.40 696.16
00053951 00000125 537.17 223.68 499.48 645.82 771.84 460.96 969.69 455.51 926.88 599.89 785.24 702.95 943.99 699.23
00053952 00000126 538.89 228.85 501.47 640.24 772.47 463.66 971.88 457.78 930.70 601.76 788.57 705.11 947.32 701.40
CROP_BBOX: 315 0 1405 1080
