Video ID: 	sqwH4Wqa8-8
H: 	1080
W: 	1920
FPS: 	23.976023976023978

FRAME INDEX X0 Y0 W H [Landmarks (5 Points)]

00003282 00000000 815.35 174.84 546.15 693.89 884.42 435.44 1102.22 405.05 950.36 566.39 949.05 708.56 1097.40 685.22
00003283 00000001 817.77 172.04 549.95 699.42 886.25 431.45 1101.39 405.01 943.99 563.56 946.33 705.58 1094.41 685.09
00003284 00000002 820.69 170.17 551.82 701.10 889.70 430.25 1101.88 404.02 943.53 559.46 948.25 703.74 1094.16 683.19
00003285 DELETE   825.84 164.62 549.17 701.35 890.22 429.01 1104.69 405.14 944.32 563.33 946.91 702.30 1097.07 683.90
00003286 00000004 828.65 167.15 547.45 705.94 892.16 430.21 1105.85 409.01 944.59 568.02 948.24 704.19 1100.29 687.65
00003287 00000005 830.70 166.41 546.08 709.15 894.34 432.46 1106.62 413.29 944.90 571.13 947.29 706.98 1098.47 692.31
00003288 00000006 832.43 169.43 546.47 706.12 896.82 434.28 1107.44 416.30 945.32 571.93 950.16 709.00 1095.75 695.22
00003289 00000007 832.11 171.23 547.91 705.96 898.01 434.14 1108.58 416.62 947.13 572.22 951.08 709.75 1094.95 696.45
00003290 00000008 831.40 171.53 549.44 707.94 900.48 433.16 1108.18 417.21 947.28 570.94 952.00 708.92 1093.78 696.83
00003291 00000009 831.31 174.31 549.50 700.90 901.84 433.00 1107.88 416.16 949.43 568.00 956.17 706.53 1094.67 693.54
00003292 00000010 831.56 174.55 548.31 701.09 900.31 432.72 1108.30 414.62 949.32 567.20 954.87 707.00 1096.28 693.09
00003293 00000011 831.55 174.17 548.60 703.12 899.57 433.03 1107.26 414.64 947.61 566.82 953.84 706.06 1099.17 691.61
00003294 00000012 832.55 181.25 549.32 695.99 901.15 442.39 1106.25 424.77 947.65 568.14 951.38 705.50 1099.92 691.16
00003295 00000013 838.80 176.19 544.52 699.55 908.83 445.45 1115.29 432.00 955.22 568.40 952.52 703.46 1104.16 692.63
00003296 00000014 844.07 174.88 540.03 710.94 910.22 441.50 1118.45 425.30 959.15 572.17 955.96 708.73 1111.10 695.91
00003297 00000015 849.97 174.79 540.81 719.70 917.64 433.18 1126.09 422.67 964.75 574.25 959.40 709.82 1116.50 701.77
00003298 00000016 854.05 177.64 540.65 719.84 923.12 429.36 1134.10 423.39 970.12 573.18 960.46 708.87 1120.26 704.56
00003299 00000017 858.92 176.78 540.25 716.75 928.32 425.46 1140.07 420.02 978.78 571.52 967.17 704.78 1125.91 701.10
00003300 00000018 864.05 176.51 541.01 717.45 935.84 425.60 1146.52 418.32 987.71 569.71 978.30 705.39 1135.99 699.89
00003301 00000019 872.16 176.33 540.52 718.22 944.09 425.52 1155.90 415.32 996.00 566.40 989.67 705.48 1148.14 696.88
00003302 00000020 877.20 176.54 538.64 710.15 951.29 427.12 1173.24 412.38 1013.05 567.03 994.40 703.94 1163.66 692.89
00003303 00000021 879.47 179.57 542.00 707.65 960.60 421.53 1185.31 409.03 1026.68 563.65 1003.13 701.10 1172.06 691.71
00003304 00000022 884.21 179.73 543.15 709.29 966.11 420.37 1190.53 409.95 1033.54 565.26 1009.61 699.20 1178.70 691.44
00003305 00000023 891.41 184.10 539.25 708.08 976.11 421.52 1196.58 411.51 1043.89 563.68 1020.78 698.68 1188.24 690.86
00003306 00000024 895.93 184.80 537.11 712.70 984.19 419.82 1202.61 411.24 1051.01 562.66 1027.67 698.26 1194.09 691.61
00003307 00000025 900.44 183.77 538.47 717.43 989.19 418.25 1208.96 410.29 1056.55 560.65 1032.12 701.10 1200.21 694.97
00003308 00000026 904.39 184.28 536.38 712.89 995.28 419.23 1213.54 412.52 1065.28 562.19 1038.33 699.56 1203.53 694.62
00003309 00000027 908.05 185.13 535.18 698.43 997.93 421.79 1218.73 414.45 1072.86 566.82 1043.65 697.94 1205.39 692.67
00003310 00000028 909.85 190.34 536.36 687.44 1001.62 425.79 1222.15 418.64 1078.01 569.25 1048.60 697.11 1208.78 691.67
00003311 00000029 907.93 191.27 539.08 691.24 1005.75 425.89 1223.17 418.25 1082.90 569.40 1055.26 700.73 1207.00 694.88
00003312 00000030 909.09 191.95 539.24 689.14 1007.55 428.12 1224.11 419.36 1085.23 571.21 1059.21 702.45 1210.10 695.38
00003313 00000031 910.05 191.10 539.20 681.03 1009.44 426.53 1229.23 417.82 1091.02 569.96 1063.57 700.71 1213.34 693.50
00003314 00000032 915.43 185.76 537.19 683.11 1012.99 425.97 1235.35 417.48 1095.87 570.27 1064.18 700.20 1217.79 693.50
00003315 00000033 919.75 186.11 536.74 686.46 1018.46 424.63 1241.89 417.68 1101.45 570.62 1067.61 701.28 1222.28 695.83
00003316 00000034 922.67 189.74 533.71 696.99 1027.97 432.19 1239.97 425.22 1105.31 566.72 1072.07 702.53 1221.44 696.91
00003317 00000035 925.27 186.92 536.27 697.99 1027.24 425.54 1246.91 417.19 1109.90 568.12 1075.84 705.72 1227.27 698.95
00003318 00000036 928.31 185.10 535.31 692.69 1028.61 423.60 1255.17 416.77 1116.35 570.80 1076.08 703.36 1235.10 697.82
00003319 00000037 931.81 184.99 534.88 689.80 1032.09 421.12 1260.06 415.88 1119.81 571.87 1079.32 701.67 1240.27 697.36
00003320 00000038 931.92 189.13 537.86 687.81 1035.05 419.07 1261.57 414.39 1122.76 569.83 1083.36 700.99 1239.20 697.11
00003321 00000039 934.44 188.05 536.44 686.58 1036.07 419.04 1262.87 413.72 1123.62 569.04 1085.05 699.79 1242.68 695.30
00003322 00000040 934.91 187.00 535.90 686.05 1036.21 416.15 1263.74 412.09 1123.20 566.59 1083.93 695.96 1243.55 692.44
00003323 00000041 934.64 182.97 534.04 685.40 1035.33 416.51 1262.52 411.97 1121.88 563.59 1080.92 693.89 1240.36 690.29
00003324 00000042 935.17 182.06 533.06 686.61 1034.24 415.13 1262.13 409.44 1120.90 560.07 1079.70 692.74 1238.72 688.38
00003325 00000043 934.62 181.28 533.51 693.37 1033.70 414.25 1260.94 407.99 1119.87 558.76 1079.20 693.89 1240.22 688.92
00003326 00000044 934.20 176.03 534.65 709.38 1035.26 411.24 1261.25 405.72 1119.65 557.08 1078.64 693.83 1243.35 689.18
00003327 00000045 935.04 171.68 536.21 721.94 1035.88 409.10 1262.13 403.79 1118.64 556.08 1078.71 695.03 1249.44 690.02
00003328 00000046 936.19 170.82 532.73 721.45 1035.83 407.63 1262.53 402.47 1118.35 554.37 1077.15 693.63 1248.93 688.90
00003329 00000047 935.30 170.99 530.69 713.28 1035.14 406.67 1263.52 402.44 1119.71 553.00 1076.25 690.01 1247.55 686.23
00003330 00000048 932.26 172.24 531.40 704.03 1033.60 407.90 1262.15 404.02 1120.46 553.07 1074.78 687.82 1241.44 684.81
00003331 00000049 930.64 172.24 531.24 699.01 1031.71 408.68 1261.03 404.39 1119.34 552.87 1072.72 686.42 1238.46 683.34
00003332 00000050 926.96 170.67 532.43 698.80 1029.99 409.71 1259.67 405.01 1118.69 552.97 1071.70 686.72 1235.91 683.35
00003333 00000051 925.17 173.11 531.78 696.14 1027.58 410.34 1256.77 404.56 1116.90 552.92 1071.36 687.15 1233.61 682.91
00003334 00000052 919.61 172.29 535.71 700.48 1023.95 407.61 1253.76 401.78 1115.11 555.12 1071.52 689.93 1228.88 685.84
00003335 00000053 917.80 171.71 536.58 704.47 1024.09 406.74 1249.86 400.73 1113.75 554.97 1074.44 692.89 1224.45 688.80
00003336 00000054 917.95 169.97 535.10 703.59 1022.34 408.72 1250.39 401.43 1113.64 556.93 1072.87 693.96 1225.23 688.94
00003337 00000055 918.32 167.22 535.34 703.71 1022.65 407.74 1252.81 400.70 1114.14 555.98 1072.03 690.86 1227.49 685.87
00003338 00000056 918.75 166.26 536.28 706.77 1024.31 407.02 1252.62 401.04 1114.39 554.86 1073.31 691.45 1226.20 687.57
00003339 00000057 920.36 174.85 535.82 697.19 1027.89 419.54 1248.54 415.64 1110.95 555.25 1069.31 689.23 1228.25 686.20
00003340 00000058 917.80 173.42 534.17 695.71 1023.81 420.38 1244.51 412.99 1109.66 555.55 1067.18 689.72 1228.48 683.87
00003341 00000059 914.56 174.15 536.09 691.72 1019.42 417.52 1242.27 409.95 1106.31 555.55 1065.21 687.76 1227.47 681.73
00003342 00000060 912.44 171.19 536.98 690.97 1014.92 414.76 1239.66 406.64 1102.34 554.33 1062.79 685.23 1225.51 678.86
00003343 00000061 913.00 170.43 536.27 689.83 1014.07 411.81 1239.25 402.98 1101.09 549.82 1061.77 682.81 1223.53 676.03
00003344 00000062 913.06 164.70 538.87 703.87 1015.41 408.43 1241.04 399.93 1101.27 547.48 1060.90 685.10 1221.50 678.80
00003345 00000063 915.15 162.07 539.74 712.97 1019.40 406.66 1245.45 397.50 1106.46 545.98 1065.19 687.08 1226.78 680.06
00003346 00000064 918.04 157.95 538.31 714.42 1023.66 405.03 1250.48 396.19 1111.56 544.27 1066.92 685.92 1227.92 679.52
00003347 00000065 921.93 160.99 537.98 709.71 1027.42 403.89 1257.42 396.72 1116.23 544.12 1070.03 683.71 1232.57 678.68
00003348 00000066 923.40 159.05 539.76 710.77 1029.11 404.04 1260.52 397.39 1118.22 544.44 1070.74 683.58 1235.80 678.85
00003349 00000067 923.96 161.28 539.33 707.52 1029.07 404.04 1261.03 397.39 1118.22 544.14 1070.36 682.84 1236.14 678.11
00003350 00000068 922.17 158.49 539.89 714.68 1028.74 403.63 1259.65 397.28 1117.25 544.30 1068.56 682.70 1235.30 678.28
00003351 00000069 919.94 157.87 539.93 715.01 1027.26 404.70 1257.79 398.03 1116.91 545.67 1067.66 683.19 1233.88 678.49
00003352 00000070 919.82 161.35 537.50 708.63 1027.01 408.60 1256.59 401.48 1115.94 544.95 1067.08 684.36 1231.76 679.31
00003353 00000071 918.27 159.39 537.37 709.38 1025.81 409.62 1254.88 401.70 1114.49 544.65 1065.71 684.55 1229.09 678.94
00003354 00000072 919.23 162.07 535.24 703.82 1025.78 409.88 1254.17 401.90 1113.74 543.77 1065.80 681.53 1228.82 675.84
00003355 00000073 917.82 158.45 537.04 707.24 1026.33 409.73 1254.90 402.27 1114.42 543.35 1065.04 681.19 1227.83 676.00
00003356 00000074 918.28 161.07 536.60 708.22 1026.66 407.71 1254.39 400.00 1114.10 540.64 1064.58 681.78 1225.68 676.48
00003357 00000075 915.82 156.44 541.70 719.00 1023.46 405.60 1249.57 396.90 1108.56 537.42 1063.32 682.35 1224.14 676.04
00003358 00000076 914.61 152.53 541.14 728.21 1016.55 403.99 1242.03 391.35 1100.02 535.11 1060.51 686.66 1224.78 676.94
00003359 00000077 912.22 162.35 536.79 722.87 1009.04 400.61 1230.07 387.88 1086.94 531.56 1053.40 685.78 1217.22 675.80
00003360 00000078 906.77 164.33 532.81 717.67 998.89 398.87 1218.06 384.83 1073.85 526.03 1042.60 680.59 1207.16 669.69
00003361 DELETE   896.58 155.12 537.52 702.86 985.20 398.06 1202.44 381.18 1053.75 516.48 1029.53 668.21 1188.61 655.76
00003362 DELETE   891.20 152.55 532.03 678.08 970.15 392.48 1182.83 370.94 1030.61 507.41 1016.06 658.50 1169.11 642.97
00003363 DELETE   887.11 146.21 524.96 669.45 957.19 389.03 1166.50 368.47 1007.85 503.38 996.02 652.11 1146.53 638.51
00003364 00000082 878.76 132.71 526.01 687.46 939.24 390.38 1150.69 367.75 986.90 503.02 972.99 655.01 1132.01 640.35
00003365 00000083 872.21 133.09 528.07 690.23 935.29 392.84 1144.37 369.37 981.06 505.45 970.02 659.18 1125.66 643.37
00003366 DELETE   868.03 134.22 530.97 697.64 932.40 395.86 1141.96 370.86 978.16 507.64 967.05 665.32 1120.39 648.04
00003367 00000085 861.86 135.14 536.13 699.83 929.65 398.62 1138.30 374.05 974.89 510.56 966.19 668.05 1116.35 650.86
00003368 00000086 857.55 136.30 540.81 700.46 927.40 398.54 1134.54 374.51 970.96 511.28 965.13 668.57 1113.20 651.76
00003369 00000087 854.70 137.85 537.73 698.48 924.82 399.70 1132.68 375.76 970.52 513.76 963.29 669.65 1111.77 652.80
00003370 00000088 854.66 139.86 537.32 696.65 923.17 400.34 1132.35 377.79 970.23 517.47 962.57 670.29 1114.36 654.43
00003371 DELETE   861.11 140.63 529.09 695.39 921.50 415.59 1129.61 390.02 969.64 524.12 960.50 673.93 1120.40 655.58
00003372 DELETE   865.59 142.36 531.43 694.95 928.96 410.39 1140.72 392.44 977.44 519.79 963.15 665.02 1122.47 652.51
00003373 00000091 868.14 146.67 528.41 690.13 931.51 407.95 1144.12 390.13 981.68 529.87 968.70 670.21 1129.80 658.87
00003374 00000092 873.28 150.13 528.84 686.12 933.95 409.64 1149.09 393.00 984.68 535.10 971.93 673.71 1133.20 663.11
00003375 00000093 876.65 158.33 528.69 677.68 937.60 413.37 1155.47 395.20 991.55 540.13 978.30 679.36 1138.10 667.48
00003376 00000094 880.48 167.48 527.46 673.38 943.91 416.16 1161.93 399.41 999.77 546.93 985.98 682.92 1142.18 671.65
00003377 00000095 884.71 170.99 529.98 680.35 950.76 416.15 1170.43 402.73 1007.85 552.06 991.31 686.69 1147.66 677.62
00003378 00000096 886.86 169.43 530.80 684.96 956.59 414.87 1177.28 402.17 1014.58 550.22 995.83 685.26 1154.62 676.65
00003379 00000097 887.29 165.10 535.62 688.42 960.24 409.50 1183.38 395.54 1022.50 545.23 1001.38 684.29 1160.50 674.85
00003380 00000098 889.28 164.78 539.05 690.16 964.82 405.84 1188.30 391.89 1028.92 540.64 1007.99 683.29 1163.16 673.74
00003381 00000099 891.28 158.69 542.28 700.64 969.34 403.45 1190.54 389.39 1031.56 535.52 1012.19 681.83 1164.41 672.29
00003382 00000100 894.04 161.33 543.96 699.64 972.13 402.78 1194.37 388.42 1036.08 535.99 1015.99 682.48 1169.18 672.52
00003383 00000101 899.98 161.49 540.76 699.91 978.96 404.13 1198.91 389.79 1042.91 536.65 1021.62 682.50 1174.74 672.58
00003384 00000102 905.78 172.67 538.18 690.77 988.52 413.36 1207.16 398.08 1054.13 538.07 1029.48 684.32 1183.20 673.65
00003385 00000103 909.81 174.22 537.76 691.16 995.70 413.97 1215.54 399.17 1065.73 539.40 1037.48 685.52 1194.38 674.88
00003386 00000104 914.73 173.69 537.39 689.54 1001.46 414.98 1222.86 401.72 1071.65 539.83 1042.45 684.32 1200.57 674.83
00003387 00000105 921.82 177.95 533.01 684.61 1006.12 416.18 1225.80 404.10 1074.54 542.12 1046.68 685.16 1205.66 676.35
00003388 00000106 922.23 177.42 534.94 691.45 1010.42 417.96 1229.41 408.43 1079.31 545.93 1050.85 687.36 1208.54 680.43
00003389 00000107 924.79 177.60 534.74 692.65 1014.70 416.32 1233.88 410.73 1084.93 551.33 1055.23 688.11 1211.36 684.34
00003390 00000108 930.38 177.66 531.77 693.04 1020.80 416.09 1238.43 412.70 1090.55 552.45 1059.22 688.20 1215.71 686.08
00003391 00000109 929.81 176.51 532.93 694.01 1022.84 417.14 1242.59 413.82 1095.48 552.26 1061.62 688.17 1218.87 686.03
00003392 00000110 931.16 176.95 532.72 694.05 1024.59 415.95 1245.25 413.05 1097.79 551.81 1062.61 687.80 1221.61 685.94
00003393 00000111 930.60 177.21 532.65 693.30 1023.96 414.86 1245.95 411.63 1098.59 550.44 1061.90 686.49 1221.73 684.38
00003394 00000112 929.47 173.42 532.44 694.67 1023.68 415.78 1245.90 411.90 1098.46 549.02 1061.03 686.04 1220.53 683.60
00003395 00000113 928.50 175.42 533.17 692.56 1023.37 415.64 1243.97 411.53 1097.10 547.55 1060.99 685.27 1219.21 682.48
00003396 00000114 927.04 177.34 534.65 690.23 1022.10 415.07 1242.86 410.29 1096.00 546.80 1060.46 685.25 1217.99 681.94
00003397 00000115 927.76 176.86 533.28 686.90 1021.89 414.50 1243.26 409.14 1096.66 546.01 1060.71 683.75 1218.13 680.08
00003398 00000116 925.81 173.83 534.33 689.74 1021.42 414.68 1243.11 409.05 1095.94 545.04 1060.28 683.59 1216.72 679.78
00003399 00000117 925.27 174.99 534.50 687.68 1020.36 415.11 1243.23 409.35 1096.65 546.42 1060.29 683.67 1217.65 679.77
00003400 00000118 922.65 175.40 533.94 685.67 1017.85 416.16 1241.86 410.67 1095.89 549.12 1059.02 685.30 1217.20 681.52
00003401 00000119 919.48 179.63 533.72 679.98 1014.58 416.42 1238.11 410.66 1093.88 550.94 1057.43 686.06 1214.32 682.06
00003402 00000120 919.46 181.22 532.36 678.43 1016.25 419.98 1239.37 414.16 1095.43 552.75 1057.02 687.29 1214.46 683.32
00003403 00000121 919.21 181.96 534.70 678.71 1018.51 418.85 1242.06 414.91 1098.25 554.53 1059.23 687.62 1215.98 685.09
00003404 00000122 921.56 179.60 534.40 682.89 1021.38 419.88 1247.02 415.96 1102.70 556.36 1061.12 689.58 1217.60 687.17
00003405 00000123 924.40 182.42 530.93 682.93 1024.28 421.61 1250.31 416.63 1108.37 559.48 1065.02 693.04 1221.60 689.82
00003406 00000124 929.66 188.79 531.58 677.95 1028.30 422.74 1255.22 418.29 1112.80 562.98 1068.68 693.69 1227.36 690.63
00003407 00000125 936.07 186.94 528.46 680.89 1034.06 428.14 1258.14 422.45 1116.52 562.59 1072.70 696.15 1231.53 692.00
00003408 00000126 939.25 183.36 525.78 683.76 1038.54 436.25 1260.84 428.75 1121.19 564.69 1079.45 699.41 1237.65 693.53
00003409 00000127 941.50 181.79 527.49 687.47 1042.63 434.27 1268.46 425.91 1128.32 568.23 1085.42 702.92 1243.23 696.45
00003410 00000128 940.20 181.82 530.05 688.73 1043.36 433.81 1269.04 424.72 1130.28 569.66 1089.04 704.75 1243.32 697.74
00003411 00000129 936.93 188.18 532.98 680.26 1041.15 436.12 1268.57 426.13 1131.10 575.01 1091.82 707.89 1243.13 700.01
00003412 00000130 937.05 190.89 533.23 682.09 1039.45 440.35 1268.33 428.83 1131.26 580.71 1090.23 714.67 1245.48 705.48
00003413 00000131 932.03 193.68 538.63 687.88 1037.11 441.21 1265.62 430.14 1128.25 584.40 1090.37 718.02 1246.06 708.84
00003414 00000132 932.09 194.16 537.82 695.40 1037.08 449.64 1261.91 436.91 1123.52 586.34 1087.97 721.93 1243.00 711.51
00003415 DELETE   923.00 207.70 541.88 694.24 1019.80 461.79 1254.87 447.91 1113.40 602.21 1075.44 731.34 1243.25 719.72
00003416 DELETE   918.84 214.92 544.34 698.05 1017.41 474.14 1255.72 462.12 1112.48 617.64 1069.33 741.52 1245.45 731.84
00003417 DELETE   915.28 227.99 548.40 693.01 1019.55 482.75 1260.59 474.41 1118.77 634.20 1072.62 750.52 1249.60 744.13
00003418 00000136 915.79 234.37 549.06 691.86 1023.13 485.60 1265.46 476.31 1125.52 637.14 1076.02 754.92 1254.51 747.88
00003419 00000137 923.45 237.25 539.87 691.89 1036.77 481.97 1272.66 474.29 1136.52 627.51 1084.58 749.71 1256.63 743.21
00003420 00000138 928.80 233.21 538.24 696.96 1043.59 481.40 1279.59 471.30 1145.60 625.72 1092.10 747.89 1267.45 738.83
00003421 DELETE   937.74 231.75 531.05 695.67 1049.42 487.95 1289.29 477.52 1159.79 629.19 1100.51 752.03 1281.97 741.32
00003422 00000140 942.75 230.35 531.30 710.52 1064.99 492.17 1297.72 481.63 1172.55 639.52 1107.67 759.51 1289.68 751.00
00003423 00000141 937.18 252.04 534.63 706.41 1063.65 498.26 1301.97 487.03 1178.38 649.71 1109.32 767.93 1295.65 757.15
00003424 00000142 933.83 256.10 533.89 702.19 1063.44 505.91 1299.40 495.43 1178.87 655.58 1106.81 772.33 1291.82 762.35
00003425 00000143 933.01 258.82 530.40 692.52 1058.90 507.28 1297.64 496.34 1177.97 650.34 1106.68 768.58 1289.98 757.59
00003426 00000144 934.37 255.38 529.39 688.75 1058.98 502.59 1298.90 492.52 1179.10 645.73 1108.29 764.21 1291.14 753.62
00003427 00000145 943.43 241.99 525.16 689.10 1066.84 495.56 1303.28 486.55 1178.35 641.87 1110.98 760.26 1289.49 753.00
00003428 00000146 943.56 233.97 528.95 689.53 1066.34 493.45 1301.81 481.53 1177.16 637.16 1111.93 756.28 1289.71 746.49
00003429 00000147 945.80 237.06 527.73 688.81 1067.04 494.83 1302.00 483.59 1176.65 638.77 1114.27 760.15 1288.36 751.17
00003430 00000148 948.47 246.95 523.36 681.66 1066.33 499.18 1305.66 492.18 1175.87 647.61 1109.79 764.20 1285.36 758.96
00003431 00000149 949.80 252.63 525.92 682.59 1066.78 502.41 1306.52 498.73 1175.35 655.66 1110.78 770.54 1283.25 767.81
00003432 00000150 952.74 255.58 525.62 680.76 1067.26 505.56 1308.31 500.63 1176.19 658.18 1113.10 775.59 1282.84 771.80
00003433 00000151 951.41 256.35 529.36 681.80 1065.26 496.56 1304.66 492.91 1171.91 655.09 1112.90 772.85 1278.74 770.61
00003434 00000152 945.39 252.89 532.73 687.08 1058.23 489.52 1295.50 485.80 1163.04 648.21 1107.67 769.80 1271.72 767.76
00003435 00000153 932.43 255.61 539.38 681.80 1047.05 479.05 1285.73 476.48 1148.70 639.85 1094.43 759.70 1258.29 757.15
00003436 00000154 922.26 252.70 541.19 677.07 1032.72 474.90 1271.50 472.03 1134.67 636.37 1082.26 753.12 1246.95 750.92
00003437 00000155 914.04 247.17 542.48 682.39 1020.48 474.31 1260.32 471.84 1120.23 637.28 1069.69 750.40 1239.81 748.72
00003438 00000156 908.15 245.13 544.27 686.76 1012.17 475.58 1248.93 470.28 1109.42 637.97 1064.60 751.89 1233.68 748.04
00003439 00000157 904.28 247.69 544.01 697.41 1005.75 477.90 1240.56 472.66 1100.13 643.25 1058.46 758.26 1232.62 754.00
00003440 00000158 902.34 249.13 545.55 710.86 1002.74 481.98 1232.48 474.94 1092.87 644.21 1058.56 765.58 1233.90 759.55
00003441 00000159 900.40 250.44 544.09 708.55 1001.50 483.22 1226.90 476.88 1087.97 643.28 1057.43 766.27 1227.10 760.91
00003442 00000160 901.21 249.67 543.17 690.72 998.33 479.39 1223.01 471.46 1083.33 635.37 1054.65 758.35 1217.21 752.22
00003443 00000161 903.79 237.58 544.35 687.00 990.22 470.02 1221.14 462.82 1073.63 628.78 1044.31 753.37 1207.82 748.12
00003444 00000162 899.88 226.08 542.39 692.08 988.56 463.17 1219.16 451.97 1072.94 617.12 1039.33 747.26 1206.55 738.66
00003445 00000163 896.78 221.54 542.59 694.93 987.68 454.99 1218.87 445.80 1072.37 611.40 1037.89 741.11 1207.81 734.03
00003446 00000164 895.61 215.51 543.05 696.39 986.92 450.97 1220.39 442.59 1073.11 607.71 1036.57 737.52 1207.44 731.15
