Video ID: 	-i5AB6QYjFw
H: 	1080
W: 	1920
FPS: 	25.0

FRAME INDEX X0 Y0 W H [Landmarks (5 Points)]

00055294 00000000 865.95 117.48 410.12 570.30 904.14 364.86 1021.21 340.28 902.24 438.27 940.50 559.03 1020.50 536.43
00055295 DELETE   871.34 109.90 415.38 555.28 904.97 352.51 1031.10 329.75 908.46 427.08 939.74 544.74 1022.38 524.67
00055296 00000002 885.01 112.76 404.77 546.49 915.66 346.07 1038.62 324.36 914.62 415.32 940.80 536.41 1025.51 517.40
00055297 00000003 890.76 113.31 402.60 543.65 922.79 339.92 1044.85 320.98 919.58 406.15 943.66 530.20 1028.47 513.32
00055298 00000004 891.58 116.89 399.57 540.88 922.62 339.94 1043.90 321.18 919.92 408.28 945.05 531.59 1027.32 514.74
00055299 00000005 888.46 110.86 401.76 551.48 919.85 345.94 1041.96 326.11 917.39 416.82 943.63 537.89 1026.11 520.25
00055300 00000006 882.82 107.94 407.63 556.03 916.20 354.28 1040.54 330.34 917.47 425.27 945.68 544.77 1029.12 523.90
00055301 00000007 880.05 109.75 412.82 554.13 911.91 356.22 1037.59 330.95 914.17 428.95 945.06 547.04 1028.83 525.01
00055302 00000008 883.48 108.75 410.98 551.14 915.54 354.21 1038.50 330.43 917.93 427.26 948.75 541.27 1032.48 520.34
00055303 00000009 886.80 109.29 410.17 549.36 917.98 352.46 1040.59 328.18 919.69 424.68 949.50 539.84 1034.48 518.68
00055304 00000010 887.25 110.31 411.34 548.19 919.65 350.83 1043.62 329.16 920.50 423.21 949.28 537.34 1035.54 518.38
00055305 00000011 886.91 107.76 414.05 552.13 919.29 352.86 1045.07 329.92 921.24 424.67 950.14 540.37 1037.06 520.33
00055306 00000012 888.50 105.94 410.09 557.43 921.17 353.00 1043.87 331.39 920.47 426.89 952.09 543.43 1034.06 524.26
00055307 00000013 887.34 102.83 411.98 561.17 921.41 354.24 1043.32 333.35 920.75 429.64 952.04 544.43 1033.33 525.95
00055308 00000014 888.28 104.32 410.45 558.98 923.75 357.79 1042.15 336.85 921.63 431.28 953.88 545.00 1034.24 526.36
00055309 00000015 888.93 106.46 409.70 555.29 923.43 358.28 1042.04 337.55 921.23 431.45 953.59 544.66 1034.54 526.11
00055310 00000016 888.18 104.43 412.20 556.05 922.41 359.01 1042.58 338.17 921.19 432.08 953.74 543.62 1036.65 525.05
00055311 00000017 890.72 110.44 410.21 550.32 924.83 362.71 1043.72 341.30 923.96 434.58 956.29 545.28 1037.84 526.12
00055312 00000018 890.25 110.87 409.59 551.80 925.77 364.50 1044.55 344.00 925.11 435.20 956.42 546.48 1037.74 527.94
00055313 00000019 890.19 109.01 409.34 556.64 926.20 363.33 1045.39 342.98 926.51 434.43 957.32 547.82 1038.04 529.28
00055314 00000020 889.64 108.13 410.71 561.57 927.22 360.63 1046.28 340.06 928.32 434.12 959.45 549.45 1038.78 530.85
00055315 00000021 889.62 110.70 409.63 562.27 927.57 359.79 1046.99 338.97 930.40 433.32 961.66 550.87 1040.05 531.84
00055316 00000022 890.14 114.86 409.94 557.47 928.24 360.08 1047.62 337.96 932.69 432.44 963.70 551.20 1041.22 531.02
00055317 00000023 890.93 112.54 410.19 559.51 928.92 361.13 1049.02 338.18 934.11 432.21 963.96 551.22 1041.86 530.47
00055318 00000024 891.40 110.98 409.60 562.69 929.92 359.79 1049.20 336.97 934.05 430.89 964.90 551.00 1042.90 530.30
00055319 00000025 891.11 110.36 409.00 564.92 929.12 356.95 1049.43 334.39 934.78 429.69 966.52 551.16 1044.17 530.47
00055320 00000026 890.18 107.29 408.31 563.88 928.14 357.51 1049.07 334.89 933.21 429.78 964.36 548.66 1043.67 528.20
00055321 00000027 889.26 110.04 407.13 553.73 926.82 360.06 1047.75 338.26 932.76 431.37 960.38 545.20 1042.31 525.54
00055322 00000028 890.29 110.72 404.34 552.72 925.67 360.46 1045.11 339.35 929.70 433.07 957.10 546.51 1037.01 527.47
00055323 00000029 889.19 111.95 406.85 551.37 924.16 361.70 1044.70 339.79 928.18 433.91 955.84 547.04 1036.54 527.43
00055324 00000030 889.68 113.55 406.24 549.35 923.92 362.15 1044.07 339.99 927.35 433.70 955.36 546.82 1035.92 526.98
00055325 00000031 888.16 109.20 408.07 553.14 923.68 360.03 1045.03 338.17 928.06 432.36 956.23 546.56 1036.67 527.04
00055326 00000032 888.95 107.78 407.91 553.31 924.84 360.17 1044.69 338.46 928.91 432.68 956.00 545.57 1036.01 526.28
00055327 00000033 889.11 112.09 407.80 549.72 923.96 360.82 1044.79 339.44 928.00 433.33 955.90 546.46 1036.20 527.36
00055328 00000034 887.92 109.76 409.49 557.65 925.19 362.62 1046.95 341.50 929.96 436.53 957.00 548.95 1038.01 530.22
00055329 00000035 885.92 107.74 411.55 565.06 925.56 365.89 1047.32 345.03 929.89 438.46 956.94 551.91 1037.49 533.33
00055330 00000036 886.51 105.68 410.73 567.44 926.35 364.69 1047.94 345.14 929.71 438.50 956.24 551.00 1037.12 533.60
00055331 00000037 887.09 111.13 409.99 557.20 925.29 361.20 1047.81 341.79 929.39 436.02 956.02 548.25 1037.26 530.85
00055332 00000038 888.19 107.95 408.90 555.53 924.67 360.99 1046.95 339.07 928.89 434.21 956.77 547.18 1038.33 527.85
00055333 00000039 889.03 105.52 408.60 557.85 926.19 360.95 1047.72 340.07 929.90 433.82 957.38 545.53 1039.58 527.00
00055334 00000040 887.41 105.70 410.99 560.50 925.50 361.95 1049.44 341.02 931.01 435.81 956.41 547.68 1040.24 529.29
00055335 00000041 887.28 109.20 410.15 560.63 925.88 362.83 1049.58 343.18 931.04 438.01 956.04 549.28 1039.36 531.88
00055336 00000042 886.64 110.57 410.21 558.90 925.41 362.34 1049.31 342.37 931.32 436.95 956.38 549.20 1039.26 531.47
00055337 00000043 887.47 108.98 408.50 557.31 924.64 360.18 1047.69 339.50 929.53 433.98 956.67 546.67 1039.54 528.23
00055338 00000044 887.43 107.05 410.13 557.00 923.72 361.47 1046.72 338.93 928.48 433.84 957.26 547.15 1039.74 527.17
00055339 00000045 888.14 107.91 409.23 555.51 924.59 362.18 1048.62 339.83 930.12 434.84 956.94 546.88 1041.14 527.26
00055340 00000046 886.89 109.82 411.27 561.04 925.76 365.62 1048.78 344.44 931.05 439.19 957.83 550.14 1041.57 531.41
00055341 00000047 883.62 109.55 415.57 574.54 926.73 367.23 1049.05 345.00 931.62 441.02 959.03 555.55 1044.00 536.07
00055342 00000048 884.76 110.80 412.68 575.64 928.48 365.09 1048.47 343.84 932.89 439.44 962.03 555.69 1043.98 536.76
00055343 00000049 885.86 111.88 411.65 567.14 925.49 361.62 1049.83 340.09 931.60 436.57 959.45 552.30 1043.27 533.17
00055344 00000050 886.20 109.41 409.16 563.20 924.48 357.89 1048.70 338.97 929.43 432.92 956.43 547.44 1039.47 530.38
00055345 00000051 887.67 109.66 408.38 561.69 923.96 358.69 1048.32 339.05 928.65 434.41 955.38 548.79 1038.64 531.23
00055346 00000052 887.31 106.18 410.89 564.66 925.50 361.72 1050.96 340.92 931.07 435.85 956.28 549.59 1040.45 531.23
00055347 00000053 886.94 109.72 411.07 559.99 924.66 361.84 1050.82 340.52 931.45 436.02 956.11 549.73 1040.83 530.91
00055348 00000054 887.16 107.07 410.73 563.06 925.23 362.88 1049.97 342.27 931.15 436.46 956.79 549.49 1040.88 531.19
00055349 00000055 887.59 108.16 410.19 563.32 926.12 364.01 1049.90 343.98 930.95 436.57 956.38 549.52 1040.12 531.66
00055350 00000056 886.77 108.70 410.13 563.38 924.98 364.10 1048.95 343.68 931.16 437.52 956.89 550.29 1040.76 532.11
00055351 00000057 886.64 110.56 410.29 561.32 925.43 364.38 1049.19 344.29 931.32 437.90 956.98 550.28 1041.00 532.34
00055352 00000058 887.91 108.15 409.26 563.95 926.40 363.96 1049.47 343.68 931.35 436.95 956.84 550.13 1040.62 532.11
00055353 00000059 888.45 107.15 409.89 563.67 926.01 363.35 1049.30 342.48 930.63 436.04 956.70 549.60 1040.04 531.09
00055354 00000060 887.76 109.92 409.88 561.33 925.91 363.56 1049.90 342.55 931.81 436.20 956.85 549.73 1040.76 531.13
00055355 00000061 886.34 108.24 412.65 564.33 926.04 366.88 1048.48 345.83 931.43 438.68 957.61 551.31 1041.31 532.67
00055356 00000062 884.40 105.91 413.07 568.38 925.37 367.32 1047.58 347.78 930.21 440.21 955.57 550.77 1039.07 533.40
00055357 00000063 884.21 107.24 412.05 570.18 925.06 367.57 1044.97 349.31 928.78 441.52 954.21 552.46 1035.97 536.08
00055358 00000064 885.18 105.10 411.02 575.48 924.55 369.07 1043.42 349.18 926.68 441.44 952.95 556.62 1031.95 538.99
00055359 00000065 883.70 104.51 411.86 577.50 923.25 368.89 1043.94 348.39 926.13 440.76 950.28 557.76 1030.24 539.85
00055360 00000066 883.79 104.59 411.59 577.23 922.35 368.35 1043.08 347.89 924.31 440.82 948.88 557.42 1029.27 539.62
00055361 00000067 884.21 104.77 411.78 575.71 922.00 368.51 1042.41 348.61 923.43 441.40 948.95 556.56 1029.20 539.20
00055362 00000068 883.33 106.08 413.13 574.52 921.62 368.29 1043.08 348.98 924.19 442.37 950.27 555.74 1032.01 538.72
00055363 00000069 883.07 107.06 413.16 572.90 922.66 368.78 1043.28 349.72 926.39 444.23 952.27 555.04 1034.26 538.14
00055364 00000070 883.38 104.60 413.75 573.42 923.37 368.04 1043.92 350.60 927.10 444.49 954.03 553.12 1036.88 537.40
00055365 00000071 881.86 111.26 416.21 565.47 920.95 372.59 1043.31 350.64 926.34 443.75 955.15 554.10 1039.44 534.50
00055366 00000072 882.80 108.32 415.16 568.63 922.04 371.64 1044.36 350.27 926.60 442.43 955.40 554.01 1039.35 534.92
00055367 00000073 884.25 109.34 413.32 569.71 923.82 366.61 1044.79 348.46 927.13 441.31 955.08 552.33 1038.61 535.83
00055368 00000074 884.61 109.04 412.78 570.00 925.47 364.67 1046.68 347.38 927.94 441.06 954.28 552.08 1038.21 536.54
00055369 00000075 883.92 105.84 415.56 573.11 925.96 364.56 1048.62 346.49 928.85 440.86 955.41 552.61 1040.10 536.56
00055370 00000076 884.34 106.47 414.69 571.62 926.37 363.76 1048.50 346.17 928.87 439.45 955.72 551.17 1040.01 535.46
00055371 00000077 885.17 106.53 413.68 569.40 926.20 363.03 1048.23 345.25 928.85 438.52 956.19 550.17 1039.81 534.23
00055372 00000078 884.79 104.60 414.58 571.44 925.05 363.87 1048.28 344.27 928.41 437.65 956.58 550.34 1040.69 532.89
00055373 00000079 883.73 107.10 415.42 568.93 924.40 363.75 1047.87 344.22 928.35 437.96 956.44 550.07 1040.83 532.69
00055374 00000080 883.84 109.30 416.04 566.33 923.42 363.82 1047.30 343.91 927.86 438.11 956.38 549.96 1041.05 532.21
00055375 00000081 885.03 106.99 414.36 565.79 924.12 362.57 1047.90 342.36 927.70 436.20 957.20 547.99 1042.20 530.03
00055376 00000082 885.10 107.52 414.08 563.46 923.44 361.34 1047.59 341.58 927.46 436.25 957.33 547.23 1042.77 529.60
00055377 00000083 884.40 105.91 415.28 565.92 924.22 362.90 1047.18 342.42 927.84 435.80 957.15 547.42 1041.69 529.26
00055378 00000084 883.96 105.70 416.41 566.77 923.97 363.73 1047.71 343.91 927.24 436.99 956.15 547.61 1041.06 530.07
00055379 00000085 882.22 101.81 420.64 572.13 923.44 363.59 1047.93 344.41 926.07 437.46 954.84 547.14 1041.20 530.23
00055380 00000086 881.34 101.71 420.71 571.70 922.90 364.81 1047.06 345.46 925.65 438.19 953.83 547.15 1040.36 530.19
00055381 00000087 880.97 102.68 419.12 568.13 920.78 367.46 1045.17 345.91 923.72 437.55 952.13 547.34 1039.30 528.59
00055382 00000088 882.08 103.71 417.80 564.74 919.78 366.63 1044.53 343.67 921.89 435.70 952.22 545.81 1040.35 525.82
00055383 00000089 883.06 106.67 417.54 560.05 916.82 362.55 1041.67 337.32 918.47 433.95 951.54 545.65 1039.20 523.74
00055384 00000090 883.78 107.08 413.95 555.12 916.46 362.07 1039.02 336.39 918.34 433.23 952.42 542.26 1041.56 519.89
00055385 00000091 882.05 97.36 415.28 565.19 911.62 360.38 1035.40 332.79 921.76 434.54 950.64 541.22 1045.25 518.08
00055386 00000092 883.36 100.63 417.04 559.07 912.66 359.21 1038.21 330.73 923.88 432.94 950.54 539.77 1046.11 515.94
00055387 00000093 885.41 105.81 414.70 552.04 915.52 356.31 1037.79 330.40 916.78 427.33 953.54 534.93 1045.73 512.31
00055388 00000094 884.96 107.60 413.28 555.24 916.86 355.35 1038.86 329.65 917.19 425.37 954.24 535.89 1044.68 513.28
00055389 00000095 886.80 112.65 409.68 545.65 914.98 354.01 1039.42 328.00 915.98 419.97 948.95 533.68 1041.22 510.84
00055390 00000096 886.87 114.20 408.26 540.21 915.45 347.22 1040.55 324.36 914.39 410.89 942.32 527.40 1034.80 507.35
00055391 00000097 891.06 116.00 403.45 535.46 917.43 343.75 1042.46 322.41 914.74 407.96 940.72 526.30 1032.47 507.47
00055392 00000098 891.01 113.21 403.16 541.81 919.18 335.36 1051.55 321.10 919.33 410.38 937.83 528.40 1035.12 518.54
00055393 00000099 889.20 111.67 406.17 547.72 920.85 333.53 1051.34 322.23 919.35 410.30 937.05 529.22 1032.75 521.56
00055394 00000100 892.01 114.60 401.10 544.73 922.99 340.24 1040.49 325.47 914.15 406.73 939.43 527.14 1021.89 513.67
00055395 00000101 890.51 112.18 401.10 549.39 922.21 341.56 1039.11 327.20 913.49 408.09 938.20 528.51 1019.96 515.47
00055396 00000102 885.20 106.01 407.19 560.11 920.98 343.19 1036.36 329.90 910.65 412.55 937.75 531.73 1016.72 519.64
00055397 DELETE   882.14 101.33 406.94 571.21 919.90 347.88 1033.57 330.94 911.17 419.76 940.09 539.61 1016.85 524.88
00055398 00000104 875.91 112.34 410.07 570.73 915.21 355.37 1032.38 336.09 909.68 426.58 939.10 550.03 1015.58 533.12
00055399 00000105 865.88 111.12 416.85 578.26 902.46 363.63 1025.33 340.66 899.78 435.18 930.67 558.49 1014.77 538.57
00055400 00000106 863.93 108.19 415.16 583.18 898.24 361.34 1021.93 340.21 893.18 437.25 928.03 558.31 1013.32 539.60
00055401 00000107 862.46 104.39 413.84 587.38 897.82 361.62 1018.82 339.37 891.90 437.09 927.49 560.19 1010.01 540.67
00055402 00000108 860.18 108.72 414.02 585.81 898.28 362.84 1020.71 338.10 895.98 435.59 931.47 560.91 1014.72 538.92
00055403 00000109 861.52 109.99 412.75 583.65 900.77 360.86 1020.55 337.65 897.55 435.68 933.78 559.17 1014.07 538.28
00055404 00000110 863.04 108.02 413.69 584.65 901.58 361.36 1020.90 337.56 898.06 434.81 934.26 557.80 1016.02 536.38
00055405 00000111 864.55 110.63 415.74 578.55 900.46 360.49 1023.40 336.33 897.39 433.38 933.11 556.02 1018.07 534.36
00055406 00000112 866.71 109.41 415.85 575.56 901.87 360.35 1026.39 335.38 900.29 431.79 934.26 553.55 1020.48 531.35
00055407 00000113 867.95 111.81 415.20 568.10 902.68 360.74 1028.87 334.40 902.99 430.08 935.78 551.02 1022.93 527.75
00055408 00000114 870.91 113.13 415.83 563.00 905.71 361.20 1031.71 335.67 905.87 430.25 938.55 549.14 1025.07 526.55
00055409 00000115 875.80 109.74 412.03 564.59 911.34 362.65 1033.73 339.23 910.66 432.83 942.45 548.89 1026.87 528.17
00055410 00000116 874.97 107.33 415.11 567.27 911.74 363.73 1034.51 341.36 911.40 435.61 942.92 548.89 1029.01 529.11
00055411 00000117 874.18 107.66 414.79 568.30 909.63 365.69 1032.81 341.36 910.41 437.78 941.80 551.39 1028.35 529.95
00055412 00000118 871.84 107.90 415.93 569.55 906.88 366.45 1031.12 342.04 908.61 439.45 940.15 553.21 1026.95 531.63
00055413 00000119 869.04 111.07 415.99 572.57 902.99 368.61 1028.57 344.19 904.47 443.29 938.00 557.26 1026.36 535.45
00055414 00000120 869.33 112.79 414.36 576.25 903.71 368.95 1029.46 347.68 902.69 445.94 936.17 559.16 1025.83 539.90
00055415 00000121 868.54 116.52 414.00 577.74 903.19 369.93 1028.20 350.59 900.64 450.29 937.92 562.30 1027.08 544.20
00055416 00000122 868.74 117.27 410.41 580.02 903.51 372.97 1025.04 353.03 898.74 452.23 937.59 564.48 1025.49 545.70
00055417 00000123 866.23 114.66 412.59 580.73 900.87 370.68 1024.66 349.69 897.13 449.05 935.08 562.31 1023.59 542.76
00055418 00000124 863.85 110.87 415.74 582.02 899.12 367.61 1023.45 347.48 895.79 445.89 933.11 559.47 1021.11 540.71
00055419 00000125 863.03 105.95 419.07 583.76 898.55 365.58 1024.90 343.24 897.68 440.90 932.84 556.77 1022.71 536.43
00055420 00000126 864.02 104.86 422.37 581.82 898.83 365.71 1026.86 342.05 900.41 440.59 933.63 555.65 1024.02 534.56
00055421 00000127 867.41 109.57 415.58 577.69 902.27 367.90 1028.65 344.22 903.42 442.31 937.02 557.58 1026.24 536.23
00055422 00000128 868.73 112.68 414.60 574.72 904.12 367.65 1032.06 345.86 906.42 443.02 936.95 557.96 1027.27 538.30
00055423 00000129 869.69 113.08 415.11 574.43 905.67 369.55 1033.49 346.51 908.02 442.30 937.51 558.41 1027.87 537.84
00055424 00000130 871.22 113.79 413.16 573.61 907.13 367.05 1033.33 346.66 907.47 442.95 938.66 556.26 1028.24 537.63
00055425 00000131 874.11 114.64 410.17 574.11 907.49 369.03 1032.99 348.83 906.18 446.35 939.51 558.06 1030.07 539.45
00055426 00000132 873.30 115.48 409.67 581.09 907.18 373.91 1030.58 355.08 904.02 453.64 939.54 561.67 1032.06 543.90
00055427 00000133 872.11 122.64 404.31 582.83 906.10 381.29 1023.94 363.21 901.19 468.78 941.53 572.29 1032.93 554.89
00055428 00000134 869.91 125.94 405.98 591.49 905.87 388.29 1019.98 370.31 898.59 480.54 942.72 582.86 1032.29 565.55
00055429 DELETE   860.84 149.54 415.52 581.85 902.80 400.23 1019.64 385.12 897.68 488.60 943.33 592.27 1030.87 577.91
00055430 00000136 856.95 149.85 419.85 577.48 898.29 403.18 1016.11 386.79 893.83 488.75 938.01 592.05 1026.32 576.73
00055431 00000137 855.50 142.86 419.17 574.79 892.14 396.44 1005.85 386.03 890.45 484.94 927.11 577.88 1017.66 569.23
00055432 00000138 858.65 115.42 412.51 588.41 888.24 384.05 1004.84 378.45 888.63 480.53 920.57 569.65 1014.24 563.56
00055433 00000139 860.16 112.26 412.76 585.25 889.52 375.41 1010.46 372.61 893.43 473.73 921.36 561.38 1017.96 557.51
00055434 DELETE   865.51 113.66 407.61 581.61 898.33 373.65 1016.87 364.93 888.52 467.01 926.68 564.25 1017.68 554.37
00055435 00000141 867.81 114.52 407.15 583.90 901.50 376.97 1020.87 365.06 893.37 466.89 931.89 566.76 1022.81 554.35
00055436 00000142 870.30 117.22 406.07 583.89 903.93 378.08 1023.16 366.16 896.25 467.52 934.00 569.55 1023.94 557.37
00055437 00000143 871.78 117.80 406.43 579.49 906.38 376.64 1024.35 364.35 900.08 464.74 937.62 565.68 1026.22 553.07
00055438 00000144 872.43 118.16 408.22 576.40 906.27 374.75 1029.84 361.63 902.86 460.53 936.84 563.02 1029.23 549.89
00055439 00000145 874.02 121.06 409.02 572.27 908.40 375.59 1033.80 361.09 906.84 457.67 937.46 562.51 1031.11 548.55
00055440 00000146 876.96 117.55 407.42 574.29 913.07 372.74 1037.96 359.70 910.37 454.49 939.38 558.92 1032.61 546.36
00055441 00000147 876.31 117.75 409.43 574.03 911.34 371.43 1038.05 358.27 909.80 453.33 938.22 558.80 1031.99 546.13
00055442 00000148 874.77 119.92 409.68 572.26 909.89 370.78 1037.79 357.65 908.82 452.29 936.12 559.12 1030.48 546.48
00055443 00000149 873.71 117.63 410.00 575.48 908.72 371.51 1035.61 358.15 906.57 454.38 935.41 560.06 1029.68 547.19
00055444 00000150 874.31 118.72 407.00 577.00 907.92 376.32 1030.64 362.64 904.29 460.84 936.72 565.22 1028.43 551.88
00055445 00000151 872.68 116.25 409.18 586.71 908.37 380.62 1027.86 368.43 902.23 469.59 937.60 570.54 1028.17 558.48
00055446 00000152 871.46 121.23 410.09 587.14 905.86 385.48 1026.15 374.61 902.44 477.05 936.25 577.69 1025.37 566.83
00055447 00000153 862.78 138.85 418.75 578.20 899.06 397.87 1024.32 383.14 896.46 483.78 928.21 588.71 1021.96 575.70
00055448 00000154 869.11 118.75 407.42 587.71 903.99 384.89 1021.04 371.32 895.70 471.89 930.12 578.83 1013.08 566.30
00055449 00000155 870.61 112.85 405.85 588.10 903.14 376.82 1017.98 365.94 890.30 465.91 927.86 571.32 1009.62 560.62
00055450 00000156 871.55 113.20 407.19 585.39 905.12 376.04 1021.47 365.40 895.39 463.28 932.03 568.47 1014.70 557.96
00055451 00000157 872.39 113.85 409.90 585.99 905.90 379.01 1026.29 366.64 899.56 466.50 935.79 570.40 1023.73 558.28
00055452 00000158 873.34 115.27 410.32 585.80 909.83 381.50 1029.18 370.47 904.45 470.52 939.03 571.03 1027.63 560.06
00055453 00000159 874.45 113.08 409.99 585.49 910.70 382.54 1032.17 370.48 907.26 468.91 939.64 569.24 1029.28 557.58
00055454 00000160 875.36 113.40 411.19 581.95 912.05 381.55 1034.05 368.40 910.05 464.97 941.42 566.74 1030.73 554.27
00055455 00000161 877.93 114.96 410.16 579.67 914.01 380.52 1036.28 368.16 912.17 464.84 943.25 565.54 1032.95 553.74
00055456 00000162 880.56 115.53 410.50 580.12 917.12 382.87 1036.91 370.25 914.45 468.15 947.15 566.21 1035.45 554.28
00055457 00000163 881.08 117.69 409.41 580.76 917.67 384.60 1037.56 372.29 915.42 469.92 947.46 568.09 1036.62 556.40
00055458 00000164 880.98 122.51 408.89 578.25 919.69 382.70 1039.85 370.26 918.83 467.32 950.37 568.45 1039.40 556.58
00055459 00000165 879.23 120.47 412.73 583.06 918.23 380.56 1042.54 363.79 920.49 461.90 951.13 570.07 1040.65 554.80
00055460 00000166 879.47 121.29 415.78 578.30 919.03 374.26 1046.59 361.92 922.76 460.91 952.23 564.52 1043.05 552.82
00055461 00000167 881.43 118.73 416.74 581.17 921.98 371.70 1049.67 360.91 925.86 459.62 954.13 562.46 1045.17 552.10
