Video ID: 	4D7UGcj92Tg
H: 	1080
W: 	1920
FPS: 	25.0

FRAME INDEX X0 Y0 W H [Landmarks (5 Points)]

00035343 00000000 621.71 139.51 406.13 596.67 750.65 405.63 924.41 350.50 889.69 470.92 825.97 599.33 970.55 551.74
00035344 00000001 622.26 138.69 408.43 590.29 752.69 405.60 925.48 346.24 890.87 469.61 829.10 596.43 972.54 545.04
00035345 00000002 623.55 143.36 408.72 582.53 753.95 402.54 928.89 342.92 892.54 470.91 829.89 594.69 974.17 542.97
00035346 00000003 623.94 145.15 407.22 581.18 754.25 400.43 929.03 342.77 892.14 472.01 830.42 594.80 973.79 544.48
00035347 00000004 620.17 142.55 410.43 591.41 752.28 398.13 926.85 342.33 891.00 470.42 828.46 597.05 971.05 548.33
00035348 00000005 620.20 138.82 406.72 589.77 752.68 397.22 924.97 341.33 891.09 464.93 829.97 593.96 969.31 544.73
00035349 00000006 618.53 140.30 408.35 589.56 750.90 397.27 926.63 340.31 892.24 464.06 827.31 592.90 973.91 542.52
00035350 00000007 617.38 136.09 406.78 597.45 749.86 397.83 924.25 339.89 892.41 462.85 827.18 593.69 972.53 542.94
00035351 00000008 615.76 137.71 406.61 594.52 749.83 396.92 924.25 338.81 893.67 461.20 828.31 593.25 972.11 542.18
00035352 00000009 617.70 136.48 404.51 595.48 752.00 393.29 924.73 336.20 894.66 460.16 831.19 593.56 969.49 543.56
00035353 00000010 615.85 137.25 408.76 604.84 748.57 386.87 926.21 329.97 894.93 457.80 830.84 598.98 972.56 548.82
00035354 00000011 617.87 124.25 408.70 614.52 752.82 384.35 926.51 326.04 899.08 450.32 836.39 596.83 971.91 545.99
00035355 00000012 620.13 117.32 409.88 607.35 762.69 381.06 929.73 323.51 910.15 442.43 844.24 587.65 973.47 537.96
00035356 00000013 625.46 110.07 408.28 599.60 772.62 379.10 933.50 322.60 914.52 438.02 854.92 581.30 976.07 531.78
00035357 00000014 624.13 106.66 403.52 588.91 771.99 381.28 938.37 324.71 911.71 439.08 849.83 578.55 980.92 530.43
00035358 00000015 629.02 114.85 413.39 584.02 779.21 375.84 937.82 320.45 923.52 425.60 866.54 573.90 989.79 524.28
00035359 00000016 632.61 117.37 412.08 581.30 782.79 378.21 941.74 321.58 927.04 428.08 867.20 575.08 991.78 524.58
00035360 00000017 635.63 126.07 410.48 567.86 785.48 379.80 948.85 320.66 931.63 433.17 867.21 575.72 995.09 523.24
00035361 00000018 639.47 120.83 411.40 573.23 789.21 386.73 955.80 328.05 935.34 439.66 867.07 579.67 998.38 527.18
00035362 DELETE   649.68 124.18 404.28 579.20 794.18 400.05 964.09 333.42 944.05 454.68 874.36 592.06 1010.85 533.21
00035363 DELETE   650.54 142.51 405.18 573.64 802.30 423.04 968.88 353.45 949.25 476.46 880.59 607.27 1014.13 547.04
00035364 00000021 656.55 150.94 408.49 578.50 806.43 435.94 979.62 363.95 958.02 491.88 888.29 622.48 1024.91 560.50
00035365 DELETE   662.84 161.21 404.45 587.32 813.45 444.38 982.62 385.02 957.87 510.06 900.99 632.21 1029.59 582.90
00035366 00000023 663.36 161.43 406.77 594.62 814.95 449.22 986.74 386.74 963.94 514.15 905.01 639.85 1037.35 587.52
00035367 00000024 664.59 164.79 406.98 586.67 816.40 449.99 984.10 383.42 965.15 513.54 906.89 637.82 1036.40 582.59
00035368 00000025 664.28 154.19 411.08 587.96 813.55 438.81 988.72 373.04 966.91 502.48 899.75 629.10 1037.06 575.44
00035369 00000026 664.50 151.88 413.19 593.02 805.69 429.04 983.33 358.67 958.05 493.76 892.43 623.77 1038.58 565.71
00035370 00000027 661.11 142.27 416.99 604.71 803.39 416.04 983.39 350.24 959.56 485.49 887.40 617.12 1038.95 562.59
00035371 00000028 654.76 145.58 419.26 599.46 798.58 408.57 980.71 347.87 954.22 476.80 880.42 611.58 1034.19 561.18
00035372 00000029 643.24 148.34 422.90 591.26 794.03 401.85 976.54 342.76 951.69 470.30 868.41 607.61 1018.72 554.57
00035373 00000030 639.73 137.78 421.86 586.14 797.84 399.43 976.58 336.27 954.62 465.85 871.19 600.05 1015.68 543.08
00035374 00000031 641.84 140.42 417.96 576.26 793.09 401.71 975.39 333.85 953.01 464.71 869.61 596.45 1019.86 535.52
00035375 00000032 643.27 138.31 412.17 576.93 793.78 400.34 970.74 333.18 950.85 464.07 869.58 594.83 1013.55 534.46
00035376 00000033 642.05 139.64 413.23 575.23 793.80 401.45 967.71 334.00 948.77 466.12 871.03 596.16 1011.50 535.72
00035377 00000034 641.54 140.74 411.19 577.09 790.20 399.80 969.32 334.44 947.47 468.55 867.52 602.06 1007.68 543.48
00035378 00000035 640.15 139.18 414.19 579.26 788.64 398.74 972.12 333.54 948.84 469.98 866.41 602.34 1011.37 543.88
00035379 00000036 641.14 136.40 413.42 578.90 790.58 399.79 972.84 334.11 950.35 470.09 867.93 601.39 1011.98 542.51
00035380 00000037 640.42 135.49 414.47 579.76 790.39 398.59 972.30 334.77 949.07 469.76 868.05 601.27 1010.89 543.73
00035381 00000038 641.34 141.82 413.20 575.24 790.37 398.26 972.28 334.90 948.35 469.10 866.86 601.06 1010.39 544.03
00035382 00000039 642.37 139.00 411.38 576.50 793.10 397.30 972.89 336.08 948.22 467.80 867.33 598.61 1008.81 543.35
00035383 00000040 640.23 134.07 417.07 581.79 791.80 396.91 975.84 334.81 948.64 467.43 865.28 595.42 1013.66 539.23
00035384 00000041 641.41 136.32 415.67 577.33 793.97 396.48 976.02 335.64 949.43 467.17 864.01 593.03 1012.30 538.02
00035385 00000042 640.56 134.01 416.22 583.01 796.03 396.21 978.02 337.90 952.15 468.12 866.80 596.58 1012.29 543.41
00035386 00000043 640.11 132.10 415.35 588.88 793.10 394.61 975.16 337.12 947.76 468.60 864.72 599.18 1009.74 546.65
00035387 00000044 641.40 138.58 411.52 586.42 786.49 393.75 969.32 342.85 937.28 469.31 855.57 597.53 1003.28 550.94
00035388 DELETE   634.44 139.52 421.79 587.78 775.85 386.10 966.47 338.55 922.64 469.55 845.91 597.30 997.62 552.84
00035389 DELETE   625.97 128.66 418.85 600.36 755.17 388.09 943.09 340.34 894.36 464.74 823.55 591.98 982.64 548.95
00035390 DELETE   611.69 137.36 414.47 593.73 733.70 386.54 924.64 339.96 870.38 458.96 797.67 584.72 967.28 545.38
00035391 00000048 596.85 132.33 409.22 589.46 715.73 384.62 906.15 342.45 848.29 460.57 770.58 582.30 940.80 544.66
00035392 00000049 590.07 140.98 412.76 583.01 708.16 387.80 898.92 344.56 840.71 464.54 766.35 584.93 935.03 546.06
00035393 00000050 588.68 143.86 419.89 582.08 713.54 396.25 902.19 351.05 850.57 474.97 772.00 587.50 941.34 547.05
00035394 DELETE   599.12 141.94 421.61 593.64 724.18 411.23 915.20 355.64 867.97 484.20 787.07 594.37 966.42 548.50
00035395 DELETE   608.29 143.51 414.58 597.90 740.51 416.35 926.13 358.40 888.07 492.83 804.14 600.06 976.78 550.92
00035396 DELETE   612.74 147.43 422.76 601.32 755.98 420.61 937.77 358.51 908.78 494.63 819.50 604.98 990.16 551.48
00035397 00000054 615.81 149.89 426.46 601.94 765.94 418.85 948.34 356.41 920.74 490.48 833.31 607.00 997.53 552.65
00035398 00000055 619.26 146.07 425.76 602.90 769.71 418.33 954.16 354.06 926.24 483.09 839.62 605.69 1003.33 548.92
00035399 00000056 622.17 149.47 421.36 581.99 771.60 416.32 947.34 349.16 924.24 477.82 848.08 601.01 996.63 541.79
00035400 00000057 623.50 144.33 417.76 581.25 769.59 415.06 941.89 343.92 919.79 477.08 849.53 600.29 992.03 537.98
00035401 DELETE   622.29 146.71 417.29 584.83 768.86 417.08 946.42 350.98 920.52 486.92 842.68 604.60 991.23 546.84
00035402 00000059 614.78 137.37 426.48 613.16 767.23 432.51 954.00 364.93 923.37 505.95 835.29 621.37 995.91 563.69
00035403 00000060 613.30 155.99 429.25 614.32 771.19 446.47 953.74 379.78 926.83 522.30 841.10 643.39 989.81 586.89
00035404 00000061 619.20 169.62 427.01 606.19 771.31 451.13 958.96 382.19 933.47 532.20 846.66 656.05 997.09 597.22
00035405 00000062 628.20 167.63 427.11 603.05 775.19 453.29 971.45 387.23 935.81 530.21 849.09 655.90 1007.17 598.87
00035406 00000063 630.22 166.57 426.88 601.90 778.67 450.52 974.60 384.55 937.52 527.36 851.15 652.29 1009.78 595.30
00035407 00000064 632.26 166.42 426.39 598.00 779.56 449.57 974.42 385.79 935.05 523.97 854.67 649.12 1010.32 593.33
00035408 00000065 637.26 157.31 421.58 596.58 788.46 444.54 980.01 373.28 946.67 516.80 861.26 636.40 1018.38 574.78
00035409 00000066 637.56 152.31 416.90 594.51 785.28 438.02 975.55 366.63 944.48 506.55 860.71 625.06 1020.98 562.96
00035410 00000067 633.57 148.27 416.83 597.56 778.28 428.42 962.52 359.52 931.84 493.02 858.99 622.04 1008.40 561.20
00035411 00000068 629.26 144.36 420.06 601.87 774.59 418.32 956.66 356.41 927.80 485.96 858.77 619.48 1002.09 563.81
00035412 00000069 626.17 151.55 424.80 594.69 771.28 412.53 957.73 350.87 925.86 485.13 853.40 617.69 1000.68 562.51
00035413 00000070 627.39 157.03 423.49 585.84 773.01 414.67 954.94 353.99 925.18 484.71 851.72 613.92 998.92 559.90
00035414 00000071 620.85 160.59 428.59 585.10 777.09 417.72 960.22 363.26 927.32 487.22 847.09 615.49 994.81 567.09
00035415 00000072 620.09 156.86 429.35 588.61 778.02 418.13 959.96 361.93 929.11 488.36 849.79 617.41 994.55 567.65
00035416 00000073 627.20 147.96 420.48 586.89 778.04 422.37 957.52 359.76 928.78 488.05 853.53 612.59 997.29 557.31
00035417 00000074 630.28 149.21 417.59 583.89 777.84 421.36 959.78 357.70 929.67 488.17 856.49 612.79 1000.19 556.19
00035418 00000075 628.76 149.39 419.06 590.06 776.30 420.85 954.87 356.92 926.95 487.35 857.62 616.00 998.30 559.21
00035419 00000076 629.31 150.12 419.87 590.37 776.69 418.53 955.41 356.38 927.30 487.70 858.42 617.92 998.01 562.85
00035420 00000077 620.59 156.60 425.62 583.96 783.19 414.99 962.02 358.34 932.77 487.63 856.92 615.44 996.38 564.68
00035421 00000078 621.72 159.67 422.15 584.15 783.61 414.03 962.34 360.43 931.04 488.18 852.96 614.51 994.68 566.28
00035422 00000079 625.87 156.86 420.23 582.56 780.72 413.98 960.80 357.31 929.06 485.49 851.98 612.00 995.28 561.27
00035423 00000080 628.13 148.04 419.86 591.00 775.29 408.19 958.03 352.80 923.01 482.68 850.53 610.94 994.33 560.81
00035424 00000081 629.69 143.82 417.71 595.84 772.63 405.13 956.33 346.52 923.14 481.59 851.13 611.35 995.15 558.82
00035425 00000082 630.10 145.32 418.07 597.17 774.75 403.68 957.73 346.71 925.51 478.72 852.52 611.49 996.24 560.32
00035426 00000083 630.90 147.17 418.21 594.51 774.40 403.31 958.83 345.78 926.42 478.01 850.29 609.52 997.79 558.04
00035427 00000084 630.76 145.64 420.04 596.70 774.41 403.23 960.04 346.22 927.28 478.35 849.44 609.82 998.64 558.71
00035428 00000085 630.20 145.36 422.11 597.63 774.75 401.21 961.52 346.89 925.98 477.85 849.88 609.72 998.00 560.92
00035429 00000086 629.07 143.58 423.20 595.79 773.03 400.57 963.59 344.37 926.98 479.14 847.42 608.35 1000.88 557.64
00035430 00000087 631.79 147.10 421.20 584.51 775.54 403.25 962.39 344.78 927.91 478.71 850.87 605.21 1001.77 552.55
00035431 00000088 630.38 142.72 422.12 587.52 775.27 403.17 962.49 345.29 928.22 478.72 849.58 604.46 1001.19 552.43
00035432 00000089 630.03 142.62 422.38 591.63 773.98 402.21 962.48 345.27 927.34 478.48 847.57 605.29 1001.70 553.91
00035433 00000090 629.18 142.50 424.73 603.67 773.06 400.58 962.39 342.80 928.66 478.72 847.95 609.50 1003.95 557.45
00035434 00000091 628.52 146.87 425.88 598.54 773.79 404.19 963.95 348.15 927.87 479.45 847.53 610.34 1003.97 559.52
00035435 00000092 622.27 150.20 431.46 596.93 776.96 400.76 966.89 347.68 930.00 479.07 847.54 609.82 1000.68 561.25
00035436 00000093 627.54 149.26 421.37 590.45 774.99 400.24 961.91 352.91 923.14 475.29 842.75 604.33 995.07 560.96
00035437 00000094 631.77 133.51 413.85 595.51 767.43 392.15 954.97 346.05 913.12 466.56 838.31 601.67 986.95 559.96
00035438 00000095 626.62 117.65 417.71 600.41 759.21 380.87 936.57 327.60 905.50 450.80 836.12 589.17 981.09 542.18
00035439 00000096 618.85 110.54 416.40 581.77 752.49 376.91 936.50 326.29 892.70 445.79 821.22 571.67 975.50 528.26
00035440 00000097 615.48 111.36 419.18 574.81 743.48 360.92 928.06 314.72 884.17 423.24 814.13 557.20 974.25 518.00
00035441 DELETE   610.40 108.92 418.83 569.27 732.89 354.30 913.77 305.23 869.04 416.49 814.51 551.68 967.73 510.22
00035442 00000099 604.63 110.34 423.62 564.15 725.15 355.32 908.55 299.20 863.13 412.82 812.74 551.46 965.89 504.41
00035443 00000100 602.17 115.95 420.33 557.59 722.71 358.95 908.99 302.78 859.96 416.42 808.09 551.42 963.25 504.84
00035444 00000101 601.18 119.27 421.27 555.70 719.67 365.89 907.33 309.56 854.18 420.55 803.78 555.11 960.58 508.40
00035445 00000102 594.36 127.54 425.97 548.29 712.81 374.96 907.34 317.49 848.96 430.80 796.86 559.69 956.46 511.51
00035446 00000103 599.41 142.28 422.06 547.57 719.86 379.15 908.68 319.25 857.61 434.60 796.35 573.16 957.81 522.37
00035447 00000104 592.53 149.81 424.22 555.52 713.38 384.68 900.93 322.07 851.75 441.93 796.64 584.31 956.29 532.02
00035448 00000105 594.11 148.90 418.20 584.24 710.44 392.54 895.86 336.43 844.63 454.31 791.82 597.93 948.36 552.27
00035449 00000106 593.70 154.63 417.48 593.77 708.91 398.23 894.35 343.02 842.59 464.29 792.30 607.74 946.38 562.73
00035450 00000107 597.32 161.35 414.03 594.33 708.52 407.56 887.43 348.47 837.84 480.50 796.08 617.29 943.96 568.43
00035451 00000108 600.66 165.15 414.43 589.57 713.85 414.70 891.03 354.25 845.09 484.33 804.19 621.23 950.16 571.73
00035452 00000109 598.17 175.84 416.66 582.07 718.07 419.72 894.49 359.83 849.96 491.01 807.06 623.88 951.69 574.97
00035453 00000110 594.52 180.56 419.40 575.07 718.68 427.19 894.26 370.78 847.77 501.75 806.22 626.00 947.52 579.39
00035454 00000111 591.26 184.98 422.31 569.46 716.98 429.96 897.00 373.69 848.00 505.45 805.39 628.54 947.94 582.13
00035455 00000112 591.73 185.10 420.10 569.23 715.15 433.33 896.15 374.73 847.91 506.86 805.60 629.65 949.86 581.27
00035456 00000113 588.26 185.89 421.19 566.57 713.89 432.58 893.73 374.04 847.30 506.09 799.79 624.73 947.01 576.34
00035457 00000114 590.43 186.94 421.30 566.11 711.57 428.18 892.71 371.52 842.70 502.35 795.33 622.82 946.35 575.90
00035458 00000115 588.46 187.02 422.01 565.33 704.61 423.15 893.49 363.66 839.55 499.51 790.78 623.93 949.36 574.84
00035459 00000116 591.36 182.82 422.73 568.45 706.11 418.93 897.86 359.12 842.09 492.72 793.08 622.21 954.86 572.90
00035460 00000117 595.49 174.24 419.09 578.05 706.90 417.49 896.01 356.81 841.28 489.79 793.96 622.97 954.00 573.12
00035461 00000118 593.31 170.78 421.22 585.11 704.53 414.86 895.81 352.99 841.13 487.04 789.78 622.62 953.25 571.78
00035462 00000119 593.84 167.69 419.41 588.47 703.85 411.83 894.58 350.58 841.51 486.07 787.69 620.39 952.56 570.06
00035463 00000120 596.39 166.59 417.23 589.33 705.77 410.26 893.44 347.12 842.73 481.94 789.60 617.65 954.46 565.80
00035464 00000121 596.75 170.14 415.99 582.60 706.81 406.07 895.96 342.12 844.79 475.65 788.86 612.77 955.20 560.28
00035465 00000122 599.81 161.69 412.11 585.95 707.04 403.36 897.31 341.22 844.81 470.96 787.99 608.78 955.27 557.77
00035466 00000123 597.70 155.82 413.04 583.54 709.00 399.53 900.58 342.77 847.02 465.62 786.12 602.15 953.50 555.77
00035467 00000124 595.02 157.38 409.85 571.34 710.41 397.19 897.48 344.34 847.11 465.43 781.41 595.18 942.22 549.55
00035468 00000125 595.32 158.00 408.37 567.41 711.06 393.38 895.75 341.78 847.67 459.90 781.54 592.22 938.71 547.52
00035469 00000126 595.96 155.20 407.39 567.41 712.30 387.52 896.68 336.36 848.93 453.21 781.28 588.99 937.97 544.53
00035470 00000127 595.61 148.45 405.79 574.73 710.61 384.54 892.81 333.39 845.17 448.61 780.00 588.75 933.03 544.45
00035471 00000128 597.40 147.62 409.22 582.69 710.94 377.20 895.46 326.98 844.66 445.80 785.98 588.46 945.76 547.45
00035472 00000129 594.40 145.73 405.46 583.66 709.27 386.90 890.76 332.54 846.24 451.76 782.96 593.54 933.85 546.62
00035473 00000130 594.36 140.49 403.35 589.49 709.98 389.42 888.51 334.54 847.07 453.01 783.05 593.76 932.11 546.86
00035474 00000131 587.87 147.99 409.49 583.10 706.13 393.03 885.73 335.92 844.33 456.09 782.52 596.78 931.13 547.73
CROP_BBOX: 334 0 1294 928
