Video ID: 	yaj21Am7F_U
H: 	1080
W: 	1440
FPS: 	60.0

FRAME INDEX X0 Y0 W H [Landmarks (5 Points)]

00008531 00000000 376.64 176.42 500.33 701.74 647.53 393.38 852.77 436.71 816.50 547.89 649.62 670.97 820.02 704.99
00008532 00000001 377.14 177.31 499.95 700.55 647.33 393.34 852.90 436.72 816.10 547.89 649.45 670.95 819.97 705.00
00008533 DELETE   392.22 176.57 495.22 702.05 660.51 397.43 861.20 444.12 820.56 554.20 660.53 673.87 825.01 710.47
00008534 00000003 392.43 173.62 495.21 706.15 660.69 397.11 861.73 444.07 820.74 554.32 659.87 674.50 825.02 711.32
00008535 00000004 400.81 174.45 496.93 711.14 667.91 401.07 863.41 445.19 826.20 551.50 668.40 681.06 828.57 716.02
00008536 DELETE   400.46 174.97 497.27 710.41 667.80 401.11 863.38 445.40 825.86 551.72 668.23 680.98 828.40 716.08
00008537 00000006 405.51 177.57 503.26 710.88 675.69 401.58 871.31 445.85 834.29 554.07 676.51 684.96 835.29 720.67
00008538 00000007 406.85 179.02 502.05 709.58 675.47 401.84 871.07 445.03 833.58 555.30 676.01 685.19 835.35 720.03
00008539 00000008 406.19 180.95 502.53 707.22 674.79 401.73 871.05 445.15 833.33 554.96 675.65 684.84 835.46 719.84
00008540 00000009 410.23 180.98 505.21 709.28 678.58 402.84 876.07 444.92 836.71 556.54 681.24 688.09 839.46 722.23
00008541 00000010 410.29 181.14 505.26 708.41 678.35 402.84 876.19 445.10 836.53 556.44 681.38 687.90 839.58 722.15
00008542 00000011 416.42 179.94 503.36 711.10 685.43 403.54 881.72 443.37 843.97 560.24 689.45 691.79 844.18 724.32
00008543 00000012 418.06 180.06 501.17 710.51 685.23 403.45 881.04 441.69 843.84 560.16 689.86 692.30 844.32 723.45
00008544 00000013 417.46 180.76 501.75 709.80 685.30 402.95 881.36 441.57 844.02 560.24 690.07 692.23 844.53 723.71
00008545 00000014 419.90 190.44 501.45 699.82 686.29 402.43 882.44 443.61 844.33 559.36 692.06 691.47 846.09 725.03
00008546 00000015 419.88 190.07 501.59 700.16 686.33 402.10 882.61 443.43 844.36 559.17 692.04 691.35 846.13 725.03
00008547 00000016 423.45 192.12 500.59 696.13 687.84 407.95 885.51 451.68 846.44 560.18 694.31 691.46 848.54 727.11
00008548 00000017 423.00 195.81 500.08 692.21 687.21 408.47 884.69 451.22 845.70 560.73 694.21 691.25 848.77 726.04
00008549 00000018 423.09 197.80 500.93 688.42 685.78 409.12 885.72 452.02 845.65 561.95 694.28 691.91 850.24 726.72
00008550 00000019 423.44 197.85 500.66 688.32 686.06 409.38 885.74 452.31 845.72 561.98 694.57 692.02 850.27 726.84
00008551 00000020 423.37 197.24 501.20 689.04 686.12 409.28 885.82 452.20 845.75 562.03 694.64 692.15 850.23 726.99
00008552 00000021 424.32 193.81 499.73 692.76 690.44 411.63 885.28 454.41 848.77 564.08 696.79 693.18 848.79 727.99
00008553 00000022 424.15 195.75 499.80 690.91 688.98 411.12 885.02 452.77 848.09 564.67 695.81 693.82 849.21 727.63
00008554 00000023 426.50 189.79 499.12 702.21 693.65 413.58 886.07 452.76 852.96 565.37 699.04 697.22 851.13 729.31
00008555 00000024 426.42 190.41 499.14 701.60 693.90 413.49 886.17 452.90 853.00 565.44 698.74 696.92 850.92 729.21
00008556 00000025 426.37 190.05 499.42 701.74 693.89 413.37 886.17 453.00 852.95 565.30 698.61 696.66 850.71 729.13
00008557 00000026 432.96 193.43 496.10 698.39 698.51 410.73 888.55 450.13 854.85 563.54 704.76 696.02 854.07 728.31
00008558 00000027 426.94 191.93 498.57 701.92 700.89 419.84 886.80 453.44 860.69 559.33 707.50 697.95 848.31 726.75
00008559 00000028 438.59 194.07 492.60 686.50 698.54 407.29 894.18 441.87 858.08 556.30 711.88 690.91 864.49 718.90
00008560 00000029 438.81 194.30 492.51 686.42 698.47 407.35 894.04 441.97 857.68 556.13 711.64 690.79 864.32 718.83
00008561 00000030 441.24 194.63 486.96 674.77 697.82 403.57 897.18 434.98 862.13 550.19 720.41 687.38 873.48 711.79
00008562 00000031 440.59 194.98 487.46 674.29 697.61 403.81 896.70 435.35 861.54 550.17 719.99 687.23 872.89 711.74
00008563 00000032 441.21 195.93 486.85 673.36 697.35 403.77 896.78 435.41 861.30 549.94 719.85 686.96 873.31 711.52
00008564 00000033 442.62 196.14 485.68 666.96 700.56 400.20 897.71 430.54 867.22 542.88 728.39 683.03 879.46 706.27
00008565 00000034 442.55 196.25 485.72 666.97 700.61 400.07 897.82 430.46 867.25 543.02 728.25 683.00 879.48 706.30
00008566 00000035 442.35 198.69 484.03 661.10 702.14 394.42 896.74 428.46 866.43 536.25 726.97 674.25 878.71 700.57
00008567 00000036 442.10 198.25 484.04 661.76 702.39 394.20 896.79 428.71 866.60 535.97 726.78 674.00 878.29 700.72
00008568 00000037 442.92 197.03 483.45 661.98 702.15 394.59 896.58 428.57 866.45 536.00 727.52 674.50 878.50 700.79
00008569 00000038 442.68 200.79 483.69 658.64 702.05 393.32 896.72 428.88 866.15 535.29 725.41 673.39 876.84 700.97
00008570 00000039 442.83 201.25 483.60 658.36 702.10 393.42 896.89 428.80 866.34 535.48 725.56 673.63 876.95 701.06
00008571 00000040 447.00 196.83 480.67 663.53 703.16 394.69 898.07 429.56 868.27 535.21 727.15 675.18 878.49 702.45
00008572 00000041 447.07 195.74 481.16 665.02 704.12 394.22 898.34 429.41 869.09 534.80 727.52 674.69 878.83 702.27
00008573 00000042 448.58 195.45 480.87 667.51 706.69 394.62 901.04 430.78 873.83 536.24 729.30 676.66 880.24 705.22
00008574 00000043 448.60 195.41 480.86 667.59 706.84 394.50 901.09 430.68 873.91 536.24 729.34 676.62 880.21 705.22
00008575 00000044 448.52 195.34 481.03 667.64 706.81 394.48 901.09 430.69 873.90 536.16 729.32 676.60 880.20 705.21
00008576 00000045 449.15 199.42 482.28 665.58 707.65 395.70 903.13 432.83 874.93 538.29 728.68 678.37 879.30 707.77
00008577 00000046 450.14 198.66 481.00 667.02 707.97 395.62 903.29 432.70 874.99 538.20 728.84 678.72 879.43 708.11
00008578 00000047 449.11 206.86 485.26 664.32 706.77 398.43 902.78 432.30 875.15 545.21 727.34 682.63 879.97 709.69
00008579 00000048 449.55 207.31 484.69 663.35 706.62 398.31 902.43 431.80 874.76 544.98 727.51 682.48 879.95 709.22
00008580 00000049 449.66 206.94 484.72 664.19 706.95 398.35 902.61 432.09 875.28 544.92 727.83 682.76 879.98 709.71
00008581 00000050 444.17 197.85 496.45 676.45 705.94 408.31 903.91 455.88 867.82 555.53 718.40 677.35 876.68 714.77
00008582 00000051 444.12 197.58 496.55 676.70 704.79 408.99 903.13 456.48 866.73 555.11 717.74 677.35 876.42 714.65
00008583 00000052 450.23 198.55 496.87 682.60 709.21 413.28 908.09 462.17 870.08 562.19 719.86 685.35 879.14 724.36
00008584 00000053 450.16 198.80 496.93 682.46 709.06 413.39 908.07 462.14 870.12 562.03 719.81 685.43 879.25 724.35
00008585 00000054 454.48 193.00 494.03 694.08 716.02 415.60 910.98 462.38 876.08 566.14 726.66 691.86 882.05 729.10
00008586 00000055 454.20 193.50 494.53 694.24 715.68 415.50 911.10 462.25 876.13 565.96 725.66 691.82 882.15 729.07
00008587 00000056 454.42 193.56 494.00 694.22 715.43 415.33 911.10 462.05 875.69 565.99 725.21 691.68 882.07 728.89
00008588 00000057 456.98 195.94 496.08 697.21 717.32 417.81 913.53 460.99 876.86 572.13 728.90 698.69 883.92 732.97
00008589 00000058 456.67 196.34 496.20 696.56 717.20 417.64 913.40 460.75 876.77 572.22 729.03 698.68 883.96 732.92
00008590 00000059 461.28 203.52 494.87 694.75 718.72 421.29 916.35 459.42 877.37 577.09 731.93 705.71 887.39 735.82
00008591 00000060 461.49 204.44 494.45 693.76 718.49 421.18 916.63 459.00 877.16 577.13 732.09 705.94 887.84 735.78
00008592 00000061 461.83 203.79 493.35 695.00 717.98 421.29 916.59 459.20 876.92 576.55 732.24 706.02 888.61 735.87
00008593 00000062 462.43 210.08 496.02 691.92 723.93 427.65 919.07 466.13 882.74 582.56 735.53 711.93 887.54 742.53
00008594 00000063 462.27 210.36 496.15 691.70 723.99 427.49 919.10 465.99 882.82 582.66 735.39 711.85 887.48 742.49
00008595 00000064 463.42 211.93 497.42 696.09 727.60 432.98 920.44 474.94 886.57 585.82 735.32 715.81 885.09 749.47
00008596 00000065 463.49 212.53 497.48 695.36 727.01 432.69 920.66 474.75 885.83 585.51 735.72 715.88 885.53 749.56
00008597 00000066 461.34 216.93 490.95 692.02 725.81 431.89 926.86 475.59 885.48 585.20 730.66 717.10 884.11 751.03
00008598 00000067 460.64 217.44 492.14 691.48 725.51 431.82 927.00 475.32 885.47 585.34 730.52 717.33 884.23 751.06
00008599 00000068 460.89 218.14 492.11 691.01 725.55 431.81 927.10 475.66 885.61 585.08 730.15 717.11 884.19 751.14
00008600 00000069 461.22 214.83 492.06 699.48 725.58 433.39 927.88 477.55 884.83 588.38 728.54 720.32 883.76 754.90
00008601 00000070 463.91 216.54 499.62 699.27 728.73 435.69 920.92 478.81 887.43 593.47 734.28 722.92 882.75 757.69
00008602 00000071 456.33 220.21 496.60 698.49 722.17 436.94 929.38 482.85 884.37 592.31 723.39 725.23 884.29 761.19
00008603 00000072 456.12 219.67 496.63 698.96 722.10 437.02 929.31 482.55 884.32 592.42 723.58 725.26 884.26 760.89
00008604 00000073 456.20 218.35 496.63 700.26 722.07 436.75 929.55 482.58 884.37 592.16 723.43 725.15 884.26 761.04
00008605 00000074 455.72 220.17 497.61 701.08 720.87 438.35 927.86 485.42 883.22 591.43 721.85 725.77 883.65 762.67
00008606 00000075 460.45 221.01 504.03 700.56 726.27 439.81 920.08 487.86 885.02 598.02 728.16 726.94 881.31 766.07
00008607 00000076 455.05 222.43 498.22 704.31 720.83 440.20 927.26 487.96 882.58 593.22 720.63 726.71 883.69 764.33
00008608 00000077 454.89 222.63 498.21 704.08 720.89 440.14 927.15 487.67 882.62 593.51 720.49 726.71 883.43 764.16
00008609 00000078 453.46 219.35 498.05 709.91 719.81 442.12 927.20 489.41 883.71 595.16 720.70 728.80 883.65 766.06
00008610 00000079 453.15 219.59 498.27 709.87 719.60 441.89 927.15 488.90 883.76 595.04 720.51 728.86 883.66 765.90
00008611 00000080 453.11 219.37 498.24 709.85 719.64 441.86 927.16 488.83 883.78 595.02 720.57 728.82 883.64 765.83
00008612 00000081 459.81 215.81 498.56 714.00 725.38 448.80 917.39 493.76 884.75 603.65 726.76 733.54 881.55 770.45
00008613 00000082 459.67 216.59 498.93 713.13 725.16 448.80 917.34 493.91 884.87 603.34 726.76 733.60 881.69 770.59
00008614 00000083 456.67 225.28 501.64 703.73 721.85 450.50 917.55 494.47 887.78 604.14 727.43 734.77 882.55 770.88
00008615 00000084 456.78 225.74 501.56 703.33 721.97 450.08 917.73 494.10 887.92 604.23 727.15 734.69 882.32 770.87
00008616 00000085 456.73 225.55 501.55 703.56 721.72 450.25 917.50 494.19 887.67 604.07 727.10 734.63 882.38 770.71
00008617 00000086 451.22 225.44 494.91 705.98 714.81 450.86 926.49 497.68 884.91 600.40 721.55 731.23 887.87 768.12
00008618 00000087 450.76 223.97 495.47 707.11 714.61 451.10 926.14 497.92 884.56 600.35 721.76 731.05 887.67 767.90
00008619 00000088 453.72 227.62 494.77 704.31 714.95 454.25 930.41 502.50 885.52 602.17 720.63 732.57 891.78 770.76
00008620 00000089 454.10 227.55 494.52 704.49 714.80 453.42 930.78 501.90 885.26 601.95 720.29 732.71 891.82 771.13
00008621 00000090 464.73 229.27 498.38 700.12 723.94 459.24 922.22 501.94 888.43 606.86 729.70 736.43 889.44 771.47
00008622 00000091 464.82 228.66 498.23 700.60 723.95 459.24 922.18 501.74 888.45 607.01 729.61 736.45 889.52 771.32
00008623 00000092 465.05 229.35 498.06 699.94 723.90 459.17 922.13 502.04 888.31 606.70 729.90 736.41 889.51 771.56
00008624 00000093 468.70 232.26 494.33 694.15 725.73 461.43 921.48 501.77 886.47 610.42 729.26 735.62 887.98 769.02
00008625 00000094 468.65 231.48 494.66 695.07 726.02 461.59 921.82 501.93 886.78 610.47 729.14 735.53 888.36 768.84
00008626 00000095 472.59 226.23 488.90 693.10 729.89 463.29 923.01 502.62 888.11 611.45 733.56 731.41 890.77 763.74
00008627 00000096 472.47 225.71 489.25 693.68 729.98 463.35 923.14 502.65 888.26 611.43 733.44 731.50 890.74 763.79
00008628 00000097 472.57 226.11 489.01 693.35 729.93 463.30 923.09 502.60 888.24 611.44 733.46 731.45 890.81 763.75
00008629 00000098 472.81 227.95 488.95 683.62 729.52 466.43 921.76 500.00 888.57 611.22 735.06 729.23 891.80 756.92
00008630 00000099 472.91 227.65 488.66 684.29 729.62 466.14 921.42 500.00 888.52 610.58 734.76 729.05 891.36 756.97
00008631 00000100 474.79 226.65 486.88 683.85 730.72 466.27 922.44 500.80 888.67 610.96 735.20 727.65 891.40 756.16
00008632 00000101 474.94 227.24 486.76 683.10 730.56 466.35 922.04 500.79 888.30 610.99 735.43 727.64 891.37 756.09
00008633 00000102 474.77 230.77 486.35 684.39 731.12 466.53 921.95 501.43 889.82 612.91 737.55 732.31 891.06 761.27
00008634 00000103 474.64 231.19 486.37 683.42 731.08 466.50 921.66 501.60 889.19 613.07 737.27 732.13 890.18 761.33
00008635 00000104 474.35 231.50 486.87 683.37 731.06 466.33 921.63 501.48 889.47 612.95 737.52 732.20 890.36 761.44
00008636 00000105 474.33 232.52 486.96 688.38 730.72 466.59 922.00 501.71 890.16 614.73 739.26 737.28 891.06 766.41
00008637 00000106 474.25 232.94 486.98 687.90 730.57 466.57 922.04 501.60 890.13 614.65 739.21 737.41 891.03 766.48
00008638 00000107 475.40 235.31 485.57 688.01 732.73 469.00 921.57 503.13 890.00 618.19 743.54 741.72 889.29 770.12
00008639 00000108 475.85 234.04 484.26 689.07 732.67 468.88 921.45 502.69 889.59 617.84 743.63 741.80 889.51 769.92
00008640 00000109 476.19 233.30 484.73 689.92 733.15 468.75 921.92 502.75 889.88 617.63 744.18 742.04 890.01 770.27
00008641 00000110 474.64 240.52 486.84 687.83 731.89 470.33 922.64 505.35 891.28 619.25 744.63 745.35 890.68 774.26
00008642 00000111 474.56 241.03 486.85 687.15 731.78 470.32 922.70 505.47 891.03 619.29 744.54 745.30 890.56 774.31
00008643 00000112 460.38 251.01 502.06 687.19 719.36 469.15 930.57 510.21 883.70 621.73 732.41 749.20 893.56 780.98
00008644 00000113 460.81 251.13 501.17 687.14 718.84 468.90 930.17 509.72 883.43 620.68 732.38 748.67 893.66 780.19
00008645 00000114 459.75 239.18 503.39 703.16 717.68 470.22 928.46 510.43 879.59 623.62 726.44 752.44 889.05 783.69
00008646 00000115 459.69 238.84 503.52 703.29 717.20 470.42 928.47 510.09 879.30 623.75 726.40 752.81 889.18 783.59
00008647 00000116 459.94 240.10 503.31 702.19 717.20 470.42 928.49 510.14 879.24 623.89 726.35 752.83 889.24 783.66
00008648 00000117 462.46 229.41 500.20 720.75 718.01 472.04 924.09 516.30 877.09 624.26 724.55 754.50 885.84 789.12
00008649 00000118 462.37 230.44 500.24 719.27 717.66 472.29 924.11 516.21 876.89 624.49 724.20 754.38 885.82 788.74
00008650 00000119 461.84 233.78 497.34 717.51 717.10 479.37 921.13 516.23 876.51 633.73 720.94 760.70 884.90 789.58
00008651 00000120 461.97 233.24 497.23 718.17 717.40 479.28 921.24 516.45 876.71 633.79 720.87 760.60 884.82 789.75
00008652 00000121 462.12 233.78 497.24 717.73 717.51 479.38 921.28 516.27 876.79 633.89 721.21 760.66 885.05 789.58
00008653 00000122 459.11 235.76 497.30 716.32 711.25 479.55 918.38 512.61 872.82 633.97 717.69 762.77 884.51 788.45
00008654 00000123 459.52 234.65 497.15 717.27 711.32 479.75 918.37 512.73 872.48 634.30 718.10 762.86 884.60 788.41
00008655 00000124 464.32 236.89 492.90 711.25 709.49 485.65 910.77 509.32 875.01 635.19 718.47 762.72 884.79 782.62
00008656 00000125 464.46 236.86 492.84 711.37 709.52 485.59 910.71 509.00 874.95 635.03 718.53 762.86 884.78 782.56
00008657 00000126 463.43 234.97 493.62 708.76 709.08 484.44 910.58 505.25 876.49 631.65 722.14 760.03 888.15 777.55
00008658 00000127 463.83 232.42 493.03 712.09 709.71 484.80 910.71 506.18 876.51 631.99 721.58 759.96 888.13 777.78
00008659 00000128 464.25 231.93 492.52 712.14 709.80 485.02 910.85 505.86 876.54 632.33 721.68 760.01 888.51 777.40
00008660 00000129 466.15 233.69 492.46 712.59 711.51 482.76 910.60 503.38 879.69 628.96 722.01 757.90 888.68 775.36
00008661 00000130 466.26 233.16 492.42 713.44 711.45 482.83 910.59 503.31 879.83 628.93 722.05 757.98 888.84 775.30
00008662 00000131 462.15 228.14 495.47 723.54 715.70 472.98 924.62 504.88 879.99 626.28 719.26 757.44 890.98 782.06
00008663 00000132 462.03 228.63 495.43 722.93 716.21 473.49 924.44 505.09 881.08 626.42 719.93 757.91 891.17 782.37
00008664 00000133 462.13 228.32 495.34 723.49 716.43 473.37 924.39 505.21 881.19 626.30 719.85 757.76 891.04 782.41
00008665 00000134 465.74 237.29 494.86 713.17 719.98 474.87 926.33 504.34 884.20 627.09 725.09 759.18 894.95 781.97
00008666 00000135 465.66 236.38 494.79 714.26 720.14 474.78 926.50 504.64 884.56 626.97 724.73 759.07 894.85 782.21
00008667 00000136 471.85 238.58 492.44 708.65 724.09 477.94 930.68 505.03 888.73 626.59 731.70 759.01 902.31 779.55
00008668 00000137 471.54 233.29 492.23 716.12 724.60 477.53 930.32 504.31 890.04 626.12 731.95 759.26 902.30 779.50
00008669 00000138 475.53 234.86 493.62 713.83 727.16 479.36 935.45 503.95 892.49 625.91 737.60 759.53 910.09 778.13
00008670 00000139 475.48 235.14 493.81 713.39 727.04 479.68 935.41 504.11 892.27 625.93 737.51 759.44 910.09 777.93
00008671 00000140 475.75 235.73 493.66 712.77 727.00 479.66 935.28 504.02 891.97 625.93 737.66 759.40 909.98 777.82
00008672 00000141 479.11 232.22 497.34 717.21 732.83 478.30 941.69 500.49 899.80 625.23 744.79 760.45 916.82 777.40
00008673 00000142 478.47 231.98 496.98 717.34 733.67 478.37 941.61 501.05 900.99 625.13 745.11 760.27 917.06 777.60
00008674 00000143 481.85 227.60 499.34 722.06 738.62 473.97 945.67 496.93 907.02 622.03 750.04 759.47 920.48 777.86
00008675 00000144 482.05 229.07 499.12 720.33 738.47 473.97 945.52 496.85 906.73 622.05 749.94 759.45 920.47 777.73
00008676 00000145 482.12 227.87 498.94 721.41 738.74 473.81 945.63 496.74 907.12 621.97 750.22 759.40 920.52 777.75
00008677 00000146 483.31 230.50 500.92 720.04 741.24 474.27 947.05 499.81 907.40 622.94 750.37 759.15 919.87 779.81
00008678 00000147 483.61 231.57 500.90 718.75 740.59 474.62 946.27 499.62 906.35 622.97 750.03 758.85 919.19 779.06
00008679 00000148 484.61 231.74 501.19 717.28 740.72 476.44 947.98 501.02 906.48 624.49 752.29 759.36 921.20 779.03
00008680 00000149 484.68 231.58 501.27 717.84 740.82 476.21 948.01 500.89 906.51 624.39 752.27 759.39 921.15 779.15
00008681 00000150 484.41 229.07 500.70 718.62 739.24 480.67 947.47 504.01 905.75 624.10 753.80 759.87 923.03 778.18
00008682 00000151 484.30 229.62 500.50 718.86 739.52 480.85 947.45 504.73 906.17 624.26 754.43 760.27 923.55 778.97
00008683 00000152 484.07 228.57 500.59 719.21 739.55 480.35 947.47 503.93 906.67 623.68 754.41 760.19 922.99 778.65
00008684 00000153 480.27 238.38 500.40 708.91 739.54 482.24 943.39 508.24 904.75 624.39 753.22 759.51 918.67 779.62
00008685 00000154 480.39 238.81 500.33 708.43 739.86 482.18 943.42 508.26 904.73 624.67 753.31 759.53 918.49 779.71
00008686 00000155 475.62 245.45 501.99 702.79 736.67 480.94 942.74 512.53 904.55 623.69 749.42 757.49 916.57 781.89
00008687 00000156 475.39 245.23 502.75 703.16 737.67 480.85 942.63 513.38 904.76 624.14 749.63 756.88 915.84 782.06
00008688 00000157 476.09 243.98 501.87 704.44 737.64 480.53 943.32 512.83 904.77 623.25 749.70 757.04 916.75 782.06
00008689 00000158 474.93 245.69 498.20 699.69 733.25 480.15 938.87 511.77 900.05 622.24 746.55 756.83 912.68 781.12
00008690 00000159 475.28 246.71 497.69 698.28 733.07 480.23 938.65 511.73 899.78 622.26 746.79 756.96 912.85 781.12
00008691 00000160 474.72 236.53 494.16 707.75 730.87 481.35 935.31 508.80 897.89 621.46 746.32 757.39 912.19 777.98
00008692 00000161 475.41 239.16 493.24 704.68 731.11 481.52 935.42 508.97 897.62 622.05 746.44 757.69 912.25 778.26
00008693 00000162 481.63 237.80 485.12 698.01 727.53 484.70 918.34 502.75 891.78 620.85 748.29 753.28 904.35 768.18
00008694 00000163 481.56 237.62 485.15 697.93 727.73 484.65 918.49 502.65 891.95 621.07 748.47 753.38 904.29 768.26
00008695 00000164 481.69 237.73 484.84 697.84 727.58 484.73 918.56 502.57 891.84 621.23 748.37 753.47 904.39 768.20
00008696 00000165 475.59 232.09 489.17 711.05 726.72 480.27 932.61 505.02 893.94 620.86 745.16 756.14 910.98 774.25
00008697 00000166 481.48 235.54 483.95 702.24 728.95 483.25 918.32 502.23 893.32 620.05 749.14 753.40 905.14 769.12
00008698 00000167 475.44 232.63 487.83 709.95 727.24 478.07 933.05 503.14 894.49 620.76 745.12 755.77 911.02 774.08
00008699 00000168 475.56 231.86 487.64 711.13 727.16 478.15 933.10 502.98 894.75 620.74 744.89 755.83 911.23 773.95
00008700 00000169 481.56 234.55 482.73 702.38 729.36 480.93 918.11 499.37 894.12 620.26 750.01 753.48 904.71 768.71
00008701 00000170 476.84 235.43 486.55 704.61 728.35 476.00 933.20 500.84 895.04 620.13 744.91 754.05 910.49 772.25
