Video ID: 	n7SAVVPxaS4
H: 	1080
W: 	1920
FPS: 	29.97002997002997

FRAME INDEX X0 Y0 W H [Landmarks (5 Points)]

00005076 00000000 1183.58 220.63 414.41 568.91 1287.07 404.35 1477.34 450.71 1325.64 503.05 1249.50 619.34 1387.04 659.02
00005077 00000001 1186.77 219.85 410.80 561.22 1288.38 405.20 1476.08 449.46 1327.03 501.52 1251.71 615.60 1385.71 653.70
00005078 00000002 1186.60 217.57 409.65 561.10 1284.57 403.62 1473.07 449.27 1323.99 500.03 1251.03 609.47 1391.48 648.22
00005079 00000003 1184.09 220.86 414.31 557.78 1280.43 401.60 1469.73 447.62 1319.96 499.18 1249.99 605.73 1394.86 644.12
00005080 00000004 1185.29 220.97 412.93 556.62 1283.59 401.97 1469.65 448.46 1322.17 497.81 1249.91 602.38 1394.57 641.15
00005081 00000005 1182.67 219.59 408.09 549.84 1281.36 401.08 1469.35 452.54 1323.20 496.62 1243.15 593.55 1390.73 636.78
00005082 DELETE   1182.34 216.04 409.38 554.85 1284.06 398.17 1466.83 455.36 1318.60 495.24 1239.59 586.84 1385.91 635.02
00005083 DELETE   1181.86 217.46 411.23 553.46 1285.82 395.52 1465.14 454.92 1319.74 493.61 1240.61 583.79 1386.68 633.56
00005084 00000008 1181.89 217.38 412.63 551.79 1284.75 397.20 1463.03 457.16 1318.73 497.30 1240.34 584.01 1387.01 634.34
00005085 DELETE   1177.80 220.51 412.30 549.02 1282.30 402.42 1461.71 456.96 1319.09 495.97 1238.56 588.57 1385.15 634.53
00005086 00000010 1180.43 225.30 407.68 535.17 1284.79 400.02 1456.25 453.99 1315.38 493.53 1242.25 578.49 1390.82 623.05
00005087 00000011 1181.26 222.40 411.10 552.99 1279.88 400.25 1459.85 449.92 1314.34 495.55 1241.06 594.79 1390.65 636.13
00005088 00000012 1183.16 223.58 411.27 550.41 1282.36 401.02 1460.46 447.81 1316.72 495.32 1244.84 598.20 1387.38 637.52
00005089 00000013 1183.93 222.90 415.13 556.56 1286.16 402.03 1464.14 445.78 1320.20 493.52 1247.27 602.27 1388.34 639.36
00005090 00000014 1182.93 218.68 414.65 565.57 1287.57 399.99 1466.84 447.42 1322.54 496.13 1249.42 608.63 1385.18 648.93
00005091 00000015 1182.48 219.04 414.94 573.74 1288.86 398.26 1472.10 449.07 1325.35 498.03 1246.45 612.28 1384.86 655.42
00005092 00000016 1175.25 204.13 423.39 595.30 1284.95 403.51 1466.62 445.10 1328.29 511.96 1246.87 621.35 1382.36 656.43
00005093 00000017 1178.49 216.89 418.60 589.29 1286.80 395.89 1467.11 446.23 1321.38 495.49 1242.58 613.25 1380.25 656.21
00005094 00000018 1176.06 216.42 424.24 586.33 1283.05 394.72 1465.97 445.13 1317.54 493.38 1239.15 610.01 1379.80 652.97
00005095 00000019 1179.11 215.83 417.90 571.93 1283.73 395.16 1466.43 447.18 1318.14 494.85 1239.94 607.61 1377.69 651.96
00005096 00000020 1176.80 213.72 420.81 579.86 1283.58 394.73 1464.82 447.10 1315.82 493.18 1238.04 606.70 1375.09 651.50
00005097 00000021 1178.98 210.59 419.63 581.43 1273.38 399.55 1461.86 445.10 1308.01 504.97 1241.20 613.97 1382.11 652.99
00005098 00000022 1177.47 211.30 423.48 582.18 1272.11 399.69 1464.34 441.58 1306.16 503.34 1240.04 617.64 1382.48 653.57
00005099 00000023 1176.84 209.59 421.31 581.92 1270.36 399.98 1463.99 439.63 1306.27 504.60 1240.35 619.01 1382.12 653.29
00005100 00000024 1174.10 210.77 423.91 583.20 1269.81 399.39 1463.93 439.08 1306.63 503.04 1239.05 619.34 1382.65 653.50
00005101 00000025 1172.68 212.80 423.94 584.11 1270.33 398.76 1463.40 439.19 1308.01 500.88 1237.40 619.56 1382.87 654.53
00005102 00000026 1174.50 212.23 424.06 587.27 1270.24 400.42 1464.06 438.04 1309.05 500.97 1240.21 621.02 1385.02 653.73
00005103 00000027 1177.83 212.62 422.35 589.87 1270.49 399.05 1463.90 435.13 1307.34 502.92 1241.74 623.59 1384.19 654.95
00005104 00000028 1178.62 215.36 419.09 591.84 1274.11 397.43 1465.42 432.59 1310.02 500.45 1242.95 624.58 1384.04 655.10
00005105 00000029 1181.14 216.59 413.88 583.80 1274.34 398.58 1464.58 432.27 1311.72 497.48 1244.84 621.45 1387.01 650.93
00005106 00000030 1181.94 213.69 416.98 594.32 1277.98 396.47 1467.56 429.58 1318.15 493.57 1247.08 620.89 1392.91 649.63
00005107 00000031 1176.94 204.41 424.32 629.16 1281.79 392.02 1463.38 425.58 1321.48 489.37 1249.98 616.83 1394.08 647.90
00005108 00000032 1178.55 201.66 422.36 631.35 1281.87 391.11 1464.26 425.18 1322.68 487.41 1250.07 617.89 1396.61 649.38
00005109 00000033 1178.65 205.20 423.93 623.89 1284.12 389.17 1464.74 423.57 1325.28 484.43 1250.89 615.14 1396.96 646.84
00005110 00000034 1179.28 203.13 422.49 625.73 1283.36 387.98 1462.40 421.62 1323.89 483.76 1250.76 613.32 1395.03 644.60
00005111 00000035 1184.04 209.45 414.13 602.32 1282.50 391.60 1468.40 425.01 1320.74 489.85 1249.24 617.27 1396.93 646.29
00005112 00000036 1181.63 210.15 413.82 598.97 1279.78 390.69 1464.55 422.79 1316.34 486.71 1246.27 617.66 1391.64 645.74
00005113 00000037 1179.48 209.96 413.30 599.86 1275.71 390.59 1462.04 421.17 1314.78 484.75 1243.74 619.43 1390.52 646.54
00005114 00000038 1178.51 207.77 411.20 598.39 1272.95 392.45 1458.99 421.67 1311.96 485.67 1242.63 618.01 1388.21 643.94
00005115 00000039 1177.71 203.36 408.37 596.59 1269.70 393.40 1456.67 423.04 1309.38 485.79 1240.84 616.94 1385.78 643.50
00005116 00000040 1176.31 203.97 408.41 590.25 1268.76 393.47 1455.44 425.51 1307.05 486.87 1237.69 615.42 1382.25 644.20
00005117 00000041 1176.88 203.02 407.23 585.64 1268.30 393.78 1453.50 426.50 1303.63 486.44 1237.14 613.18 1378.67 642.61
00005118 00000042 1176.41 201.74 407.95 578.81 1267.84 394.28 1451.47 429.16 1302.39 486.90 1237.01 608.57 1375.73 639.83
00005119 00000043 1175.41 199.66 409.52 578.75 1268.58 393.20 1450.18 428.73 1300.95 484.62 1235.32 605.62 1372.30 637.24
00005120 00000044 1173.60 198.73 411.31 579.30 1266.31 392.72 1450.07 429.12 1300.12 484.90 1233.71 606.38 1372.43 638.51
00005121 00000045 1174.47 199.32 407.95 581.01 1264.88 393.44 1449.18 429.20 1298.75 486.75 1232.34 608.71 1369.74 640.94
00005122 00000046 1174.47 199.14 406.20 585.85 1264.53 392.42 1447.04 427.96 1296.58 488.42 1232.96 609.37 1368.50 641.69
00005123 00000047 1173.58 196.73 404.12 587.83 1262.24 394.64 1444.33 428.57 1295.90 488.74 1231.73 611.57 1367.10 642.72
00005124 00000048 1173.18 198.67 402.56 582.65 1262.04 395.65 1441.14 429.20 1293.95 487.58 1230.13 610.10 1363.67 640.78
00005125 00000049 1171.89 200.11 402.23 580.35 1261.43 394.90 1439.55 428.53 1293.60 487.15 1229.29 608.68 1362.22 639.15
00005126 00000050 1172.07 200.45 403.16 580.45 1261.29 394.39 1438.84 427.60 1292.40 487.52 1229.01 609.13 1360.40 639.23
00005127 00000051 1171.92 200.71 403.34 582.13 1261.58 391.66 1438.08 426.73 1291.42 485.51 1227.65 606.64 1358.68 638.17
00005128 00000052 1172.76 197.52 404.96 582.67 1260.74 391.94 1438.84 425.52 1290.05 486.94 1229.33 608.06 1360.20 638.20
00005129 00000053 1173.59 199.41 408.88 584.21 1263.17 388.71 1442.04 421.54 1290.88 480.48 1230.93 606.65 1362.59 636.00
00005130 00000054 1173.61 196.29 401.99 572.57 1268.95 390.64 1437.85 420.01 1302.26 479.55 1235.42 601.04 1357.65 627.40
00005131 00000055 1171.98 193.63 405.53 582.32 1271.35 387.75 1440.37 419.22 1303.93 477.77 1235.79 601.04 1359.19 629.30
00005132 00000056 1171.86 192.81 406.40 588.58 1273.80 387.85 1442.64 420.63 1306.50 478.10 1236.98 602.83 1362.40 631.98
00005133 00000057 1171.47 193.84 406.23 588.91 1273.75 388.00 1443.92 421.68 1308.70 476.07 1236.11 602.43 1362.36 632.36
00005134 00000058 1179.01 203.66 407.61 580.97 1270.79 386.82 1449.29 422.60 1298.49 480.77 1235.03 606.91 1367.37 639.27
00005135 00000059 1177.72 200.64 407.58 581.93 1269.13 390.84 1452.13 427.70 1300.17 486.07 1235.28 607.80 1370.63 641.21
00005136 00000060 1176.19 198.01 407.68 588.86 1266.17 393.95 1453.08 429.23 1301.19 486.95 1234.23 613.99 1372.55 646.03
00005137 00000061 1175.78 201.03 404.37 588.97 1266.24 395.84 1452.02 431.00 1304.32 490.24 1235.75 615.67 1374.61 647.67
00005138 00000062 1174.85 199.48 406.25 592.98 1266.81 397.26 1452.37 432.23 1305.22 491.11 1235.29 618.07 1374.21 649.97
00005139 00000063 1175.66 196.21 407.61 599.99 1267.79 397.45 1452.69 431.85 1305.27 492.93 1236.09 620.29 1375.45 651.58
00005140 00000064 1177.13 198.75 405.95 599.03 1268.93 397.10 1452.15 431.47 1306.12 494.19 1237.42 621.23 1375.03 652.40
00005141 00000065 1177.24 197.51 404.84 597.28 1268.58 397.69 1452.53 431.54 1306.99 494.84 1238.95 620.46 1376.12 651.30
00005142 00000066 1176.96 196.37 408.85 602.38 1269.75 397.32 1455.64 430.54 1306.47 492.20 1239.24 621.38 1377.39 651.27
00005143 00000067 1178.05 194.52 407.70 603.39 1269.36 397.52 1457.17 429.49 1307.33 489.98 1239.88 621.01 1380.76 649.85
00005144 00000068 1178.19 196.77 407.55 594.48 1269.97 395.91 1458.86 429.76 1309.80 491.01 1240.59 618.02 1382.82 648.51
00005145 00000069 1178.63 201.76 408.77 597.35 1272.65 392.77 1461.01 426.03 1311.35 484.96 1241.22 618.97 1384.29 648.84
00005146 00000070 1178.85 201.34 407.89 599.31 1272.98 392.51 1459.33 425.16 1311.60 483.59 1241.46 618.80 1384.29 648.07
00005147 00000071 1179.29 200.19 407.62 601.69 1273.09 392.73 1460.17 425.24 1311.46 483.02 1241.34 619.21 1384.46 648.35
00005148 00000072 1177.25 200.96 409.78 601.36 1271.96 392.67 1460.05 426.01 1311.59 483.39 1239.92 619.13 1384.46 649.11
00005149 00000073 1175.88 199.07 409.20 604.90 1270.22 394.41 1459.40 427.29 1311.41 486.32 1239.87 621.89 1384.73 651.42
00005150 00000074 1175.98 193.87 412.95 614.40 1269.55 399.23 1461.12 432.41 1308.69 488.92 1236.35 626.50 1384.88 656.01
00005151 00000075 1167.65 195.55 414.58 612.55 1276.49 396.90 1451.98 434.03 1317.68 498.15 1238.34 620.47 1374.82 652.61
00005152 00000076 1175.63 194.18 411.00 609.16 1268.93 397.96 1456.64 437.12 1308.32 497.72 1238.06 622.14 1384.06 656.48
00005153 00000077 1174.90 195.98 411.58 604.16 1266.89 398.39 1456.32 437.61 1305.99 500.62 1235.45 622.50 1381.75 657.04
00005154 00000078 1175.28 199.31 413.89 601.55 1268.70 397.99 1456.87 439.23 1304.55 502.74 1234.52 621.37 1378.84 657.48
00005155 00000079 1174.76 204.90 419.63 591.60 1267.90 399.41 1457.48 440.58 1302.24 502.40 1233.90 620.39 1378.67 656.34
00005156 00000080 1174.52 197.77 428.83 602.62 1265.73 395.93 1460.44 434.68 1300.51 496.93 1233.34 622.08 1380.93 655.20
00005157 00000081 1176.43 198.75 426.83 594.79 1266.87 396.99 1459.52 434.06 1298.88 499.32 1237.18 620.23 1380.29 651.78
00005158 00000082 1176.19 202.35 427.49 587.23 1269.55 396.49 1457.23 433.08 1298.52 494.26 1240.03 615.29 1378.83 646.46
00005159 00000083 1176.13 204.29 423.28 580.17 1271.75 393.71 1458.17 434.93 1300.87 492.72 1240.30 609.23 1376.51 644.39
00005160 00000084 1175.68 202.11 421.10 582.78 1273.51 391.19 1456.40 433.88 1300.69 491.07 1238.14 607.70 1372.38 644.17
00005161 00000085 1176.83 199.62 416.16 585.99 1273.65 389.68 1455.42 430.28 1299.09 489.26 1236.04 611.61 1366.48 646.98
00005162 00000086 1175.89 208.42 410.08 576.54 1272.42 389.34 1453.19 426.97 1299.60 486.90 1234.94 604.99 1368.97 638.34
00005163 00000087 1173.87 202.64 411.66 583.69 1269.83 388.74 1451.36 428.28 1297.17 486.06 1231.70 605.82 1365.79 640.66
00005164 00000088 1172.16 200.55 408.03 587.64 1268.15 388.54 1448.33 428.91 1295.61 488.28 1229.54 607.33 1361.72 643.00
00005165 00000089 1170.15 196.21 406.92 582.83 1262.97 389.92 1443.70 430.59 1294.86 488.47 1228.34 603.86 1364.00 639.49
00005166 00000090 1166.54 192.90 401.39 567.01 1266.03 387.18 1441.57 427.70 1300.28 483.11 1229.57 593.37 1364.69 629.55
00005167 00000091 1166.24 190.46 399.90 549.14 1265.83 387.24 1439.13 426.97 1299.39 482.72 1231.16 588.58 1362.35 623.72
00005168 00000092 1167.02 195.53 401.35 544.90 1267.27 387.71 1441.65 426.92 1300.77 485.05 1234.37 592.27 1365.08 626.84
00005169 00000093 1171.86 201.77 410.70 565.97 1258.06 398.24 1449.83 434.75 1291.98 490.61 1232.86 603.26 1387.34 634.81
00005170 DELETE   1175.05 205.66 417.80 568.99 1258.55 403.81 1457.24 434.86 1298.21 489.72 1239.04 608.77 1405.60 635.12
00005171 00000095 1178.46 215.18 415.43 562.11 1280.02 397.34 1454.00 434.44 1307.16 473.88 1238.85 592.87 1382.51 623.74
00005172 00000096 1180.23 208.34 415.75 580.32 1276.76 405.65 1455.51 435.79 1306.61 479.90 1243.21 608.83 1386.13 634.91
00005173 00000097 1181.47 208.66 435.41 573.32 1282.23 392.94 1459.99 431.73 1306.35 485.22 1246.71 606.16 1376.24 638.97
00005174 00000098 1184.67 210.89 406.92 563.59 1277.76 397.16 1461.43 436.94 1312.01 496.68 1244.43 608.81 1380.63 644.36
00005175 00000099 1185.40 214.28 404.03 567.55 1283.47 396.74 1462.95 439.71 1315.62 498.63 1246.92 609.23 1382.44 647.12
00005176 00000100 1184.33 219.57 424.45 569.70 1290.64 394.57 1469.61 443.55 1322.44 489.29 1245.96 606.58 1379.37 647.79
00005177 00000101 1179.59 207.55 422.58 588.71 1293.07 401.11 1468.38 441.28 1332.22 503.39 1250.67 612.20 1382.59 646.41
00005178 00000102 1180.15 220.39 426.92 584.77 1290.99 394.31 1471.66 445.78 1323.46 491.91 1248.39 610.03 1382.37 653.36
00005179 00000103 1179.15 207.62 423.65 588.28 1288.75 402.71 1466.37 442.88 1329.21 510.24 1251.10 615.76 1379.37 649.92
00005180 00000104 1182.65 216.92 419.50 584.32 1291.71 398.51 1471.72 451.72 1323.52 498.20 1250.56 609.08 1383.84 653.77
00005181 00000105 1179.88 213.70 419.50 586.30 1289.28 401.06 1470.44 453.18 1324.67 500.80 1248.81 610.33 1382.55 654.63
00005182 00000106 1180.59 215.76 413.32 585.01 1287.42 403.39 1468.80 455.88 1322.50 503.11 1246.85 612.85 1381.38 657.70
00005183 00000107 1181.38 225.35 411.88 570.69 1286.16 407.23 1466.16 456.66 1320.61 506.61 1246.68 614.92 1379.71 657.26
00005184 00000108 1182.96 223.40 411.20 571.29 1286.44 408.33 1465.09 459.39 1318.61 509.82 1246.50 615.15 1378.06 658.70
00005185 00000109 1183.56 226.51 411.78 569.31 1286.85 410.74 1465.73 461.31 1318.98 512.30 1246.64 619.12 1377.52 662.36
00005186 00000110 1181.03 223.47 411.40 580.23 1284.31 411.53 1462.71 459.74 1316.34 509.17 1243.59 619.11 1376.60 660.81
00005187 00000111 1184.88 213.21 407.58 584.37 1275.49 412.06 1460.62 453.26 1312.41 517.66 1248.97 626.43 1385.44 661.83
00005188 00000112 1178.46 222.04 416.89 583.31 1283.83 411.01 1464.25 455.04 1320.75 505.56 1246.40 618.98 1381.49 657.26
00005189 00000113 1179.06 220.30 418.92 587.77 1284.35 413.74 1465.05 455.60 1323.49 506.50 1249.79 622.18 1383.66 658.66
00005190 00000114 1181.03 221.64 415.02 589.27 1283.64 416.54 1463.55 457.40 1323.76 509.19 1248.85 624.47 1385.41 660.45
00005191 00000115 1181.16 226.17 410.26 582.03 1282.10 416.25 1462.12 456.29 1322.73 511.76 1246.59 625.97 1382.43 661.16
00005192 00000116 1182.54 213.91 405.40 592.36 1271.18 415.95 1459.40 451.43 1312.65 523.94 1247.15 637.39 1386.11 668.21
00005193 00000117 1183.17 213.22 400.70 596.35 1269.56 416.46 1457.56 450.11 1310.82 526.66 1245.67 641.17 1383.80 670.56
00005194 00000118 1182.64 214.22 403.14 597.29 1269.88 415.39 1457.38 449.67 1309.15 523.81 1243.51 639.49 1381.23 669.47
00005195 00000119 1179.84 221.49 402.74 587.11 1268.01 412.53 1454.55 445.92 1307.56 519.24 1241.83 634.60 1379.95 664.22
00005196 00000120 1178.25 216.13 405.66 589.19 1264.94 410.39 1452.84 443.52 1304.19 518.84 1240.24 634.04 1379.54 663.28
00005197 00000121 1175.70 210.22 406.89 591.60 1260.60 408.96 1445.58 442.17 1299.67 518.71 1237.65 631.30 1376.72 660.50
00005198 00000122 1166.48 210.42 412.04 594.51 1255.59 410.64 1441.86 443.20 1294.31 518.14 1233.09 633.10 1370.48 662.14
00005199 00000123 1159.03 208.01 410.79 602.15 1248.16 413.46 1433.86 445.98 1287.94 518.16 1224.16 635.74 1365.50 664.80
00005200 00000124 1157.14 207.99 407.71 600.86 1239.93 415.17 1424.80 443.38 1279.35 520.11 1220.43 636.84 1363.23 662.66
00005201 DELETE   1152.24 214.06 417.89 601.22 1234.39 414.64 1415.95 442.26 1268.91 519.64 1214.93 635.87 1355.16 660.92
00005202 DELETE   1151.47 208.04 415.91 610.51 1231.25 408.56 1415.18 436.56 1264.69 516.28 1210.56 632.22 1352.64 657.28
00005203 00000127 1150.41 205.73 414.25 611.21 1228.58 407.82 1410.96 435.67 1260.14 513.83 1206.97 632.57 1347.45 657.93
00005204 00000128 1150.74 204.52 405.52 609.72 1227.47 405.16 1407.52 433.96 1259.54 512.93 1205.68 631.01 1344.24 657.20
00005205 00000129 1151.23 202.59 399.09 609.62 1226.46 404.10 1407.47 434.15 1260.04 510.96 1203.01 630.45 1341.74 657.73
00005206 00000130 1150.04 201.94 400.83 597.99 1222.87 412.38 1402.32 437.76 1254.94 509.90 1200.45 631.21 1336.00 654.03
00005207 00000131 1144.55 206.90 403.18 594.33 1228.61 415.01 1406.57 442.50 1254.64 505.20 1208.36 631.92 1330.25 654.59
00005208 00000132 1147.23 207.04 404.42 589.85 1220.09 418.79 1396.31 444.24 1249.84 514.22 1196.19 632.10 1328.48 654.28
00005209 00000133 1144.24 201.84 403.60 594.22 1226.75 414.48 1404.63 442.54 1253.08 506.15 1206.10 630.94 1325.22 654.41
00005210 00000134 1152.18 199.55 402.23 587.02 1219.93 412.24 1395.97 439.23 1249.03 512.93 1196.12 626.39 1325.29 650.01
00005211 00000135 1151.20 203.34 406.92 590.06 1220.28 408.87 1396.56 435.79 1248.74 510.07 1196.44 625.86 1326.49 649.84
00005212 00000136 1150.39 201.48 407.69 594.31 1219.04 408.91 1397.06 435.31 1248.99 509.46 1196.05 627.91 1327.17 651.40
00005213 00000137 1146.29 202.05 400.49 586.76 1228.50 412.39 1403.30 439.03 1254.38 500.25 1206.27 627.63 1322.49 649.96
00005214 00000138 1144.12 199.87 403.20 585.70 1226.85 412.63 1401.73 440.54 1252.89 499.68 1203.41 625.56 1320.11 649.11
00005215 00000139 1151.14 200.34 400.22 579.32 1216.86 412.46 1390.27 437.81 1244.07 507.65 1192.22 624.41 1318.82 646.17
00005216 00000140 1149.02 197.92 400.93 584.54 1214.97 411.05 1390.04 434.07 1243.43 502.85 1192.11 624.26 1318.99 644.51
00005217 00000141 1138.18 194.71 406.49 591.39 1222.66 411.30 1399.05 438.94 1244.45 492.79 1196.72 620.95 1316.70 644.78
00005218 00000142 1137.07 192.98 404.34 596.84 1223.04 411.04 1399.60 438.47 1245.69 493.17 1198.41 622.30 1319.76 645.78
00005219 00000143 1135.36 192.70 409.44 601.88 1223.85 410.53 1399.61 437.90 1246.55 491.29 1199.54 621.81 1322.47 645.22
00005220 00000144 1135.62 197.52 406.38 590.04 1223.95 407.95 1401.13 437.79 1250.13 493.65 1199.04 621.14 1321.32 646.37
00005221 00000145 1135.56 197.09 410.29 592.11 1224.21 409.46 1402.42 438.54 1251.53 493.03 1199.90 621.62 1323.34 646.17
00005222 00000146 1133.69 194.32 413.86 599.93 1224.48 405.67 1402.44 438.22 1247.49 489.10 1196.70 617.84 1322.73 645.37
00005223 00000147 1133.04 189.57 415.94 598.94 1218.47 404.51 1401.84 436.51 1250.30 501.68 1186.05 616.59 1331.74 644.36
00005224 00000148 1134.28 189.42 414.64 594.92 1219.61 404.68 1401.76 436.51 1250.76 501.21 1187.27 614.46 1331.05 642.15
00005225 00000149 1134.89 191.26 414.08 588.18 1220.92 405.04 1402.29 436.65 1251.50 503.03 1187.13 614.48 1327.76 642.01
00005226 00000150 1134.96 190.07 411.85 588.84 1221.06 405.21 1402.41 436.75 1253.47 502.54 1189.06 614.03 1330.05 641.52
00005227 00000151 1134.64 191.92 411.70 586.79 1220.34 405.07 1402.03 435.02 1252.56 503.58 1187.84 614.93 1328.30 641.20
00005228 00000152 1143.48 196.55 406.68 601.57 1218.65 405.74 1399.24 429.41 1255.17 495.22 1198.50 621.95 1335.77 643.44
00005229 00000153 1136.47 192.99 411.68 604.12 1226.39 407.01 1404.10 436.52 1251.54 490.95 1202.44 619.79 1328.84 644.72
00005230 00000154 1134.19 192.37 410.80 599.52 1225.44 406.84 1404.03 436.65 1251.65 491.31 1199.53 619.68 1327.19 645.03
00005231 00000155 1133.30 195.27 413.71 596.37 1224.89 408.24 1402.71 439.26 1250.56 492.70 1198.81 617.69 1325.52 643.83
00005232 00000156 1133.71 197.05 416.74 597.14 1225.94 410.45 1404.07 440.37 1254.01 495.29 1201.70 620.35 1326.97 645.60
00005233 00000157 1133.36 199.22 415.96 595.04 1225.43 411.49 1403.83 442.06 1255.12 498.21 1201.02 621.57 1327.33 647.32
00005234 00000158 1134.58 201.76 412.72 595.68 1226.70 410.51 1405.44 441.91 1257.43 499.54 1202.91 624.02 1327.60 650.31
00005235 00000159 1136.53 202.37 412.67 596.08 1227.81 411.60 1405.72 442.69 1258.03 502.62 1206.03 625.51 1329.40 651.41
00005236 00000160 1137.64 202.51 409.84 593.85 1228.80 413.01 1406.64 443.88 1259.96 503.94 1206.15 625.59 1329.08 651.43
00005237 00000161 1139.20 203.62 409.53 593.34 1229.59 411.30 1407.21 443.25 1260.92 504.07 1207.19 624.74 1330.25 651.25
00005238 00000162 1139.04 205.71 409.35 594.06 1228.84 410.99 1407.38 443.54 1259.30 504.30 1206.56 625.68 1329.48 652.63
