Video ID: 	cw03X0YELZM
H: 	1080
W: 	1920
FPS: 	29.97002997002997

FRAME INDEX X0 Y0 W H [Landmarks (5 Points)]

00035272 00000000 407.69 64.74 391.73 555.52 641.36 283.37 756.20 259.94 784.54 384.68 662.34 500.40 730.55 484.63
00035273 DELETE   409.26 71.80 392.94 556.08 643.93 288.62 758.37 263.25 788.27 388.46 664.25 504.06 733.69 487.14
00035274 DELETE   417.84 70.54 387.29 556.68 643.30 293.10 764.21 267.32 789.59 392.47 664.74 507.80 737.22 490.76
00035275 00000003 418.17 73.05 387.29 563.34 644.41 296.33 765.91 271.80 791.67 395.34 664.66 512.60 737.99 496.35
00035276 DELETE   422.11 80.03 387.19 557.62 644.47 299.25 772.20 274.36 793.73 400.60 662.80 516.14 741.77 499.46
00035277 DELETE   429.47 81.51 383.80 561.76 651.75 302.15 773.50 276.90 800.00 403.39 668.06 518.11 744.01 501.05
00035278 DELETE   426.13 75.45 391.14 582.17 651.78 305.82 774.79 282.90 802.41 407.30 664.24 521.63 747.23 506.37
00035279 00000007 432.16 88.65 389.87 571.53 656.50 309.16 782.35 287.78 809.66 412.19 668.07 526.68 752.99 513.37
00035280 DELETE   434.72 108.54 388.50 554.52 661.06 314.13 784.05 296.05 811.19 416.70 669.56 526.19 752.84 515.71
00035281 DELETE   437.57 108.59 389.66 558.43 665.68 317.40 790.76 298.34 817.69 420.36 675.13 528.81 760.30 517.19
00035282 DELETE   435.17 103.23 394.24 562.24 671.43 324.89 791.74 302.09 822.72 424.56 679.33 530.20 762.78 515.63
00035283 00000011 435.67 107.04 394.77 558.00 675.69 323.87 792.48 304.79 821.91 429.49 679.11 530.64 756.98 519.41
00035284 00000012 438.66 111.49 395.53 556.77 680.70 321.80 793.06 305.42 826.65 430.25 679.71 530.70 753.67 521.86
00035285 00000013 441.16 116.10 397.31 551.05 684.22 321.69 796.46 304.42 830.22 433.08 686.94 534.64 758.16 524.98
00035286 00000014 429.01 99.59 413.21 578.20 688.20 327.78 789.38 305.44 829.93 440.03 686.59 541.44 745.02 528.04
00035287 DELETE   425.49 98.19 417.42 581.25 691.67 334.84 787.82 310.18 829.72 443.03 688.90 541.84 744.40 526.87
00035288 00000016 431.12 99.91 413.39 581.84 692.28 336.34 788.78 310.51 830.37 445.21 688.43 543.45 743.49 527.64
00035289 00000017 438.97 93.39 404.46 589.71 697.96 333.97 799.61 315.63 833.44 447.01 683.15 547.26 754.19 537.83
00035290 00000018 429.84 88.85 412.03 594.32 691.70 336.94 786.77 314.33 828.65 447.87 687.57 549.26 738.26 535.71
00035291 00000019 434.78 94.05 405.58 584.19 690.10 334.85 785.73 312.49 827.32 446.23 688.31 547.89 738.60 534.24
00035292 DELETE   434.34 98.89 404.94 581.94 688.76 332.28 783.70 309.43 827.46 447.56 688.25 551.24 736.87 537.29
00035293 00000021 428.76 90.22 410.48 601.93 682.64 332.18 780.13 311.04 825.06 449.09 687.62 559.97 736.74 547.80
00035294 00000022 427.19 87.56 412.92 618.09 680.11 335.81 779.56 314.05 828.93 452.89 684.13 567.38 737.19 555.78
00035295 00000023 438.97 110.35 397.81 598.67 675.68 343.79 779.29 328.07 812.97 459.44 688.83 574.55 746.97 565.69
00035296 00000024 435.59 109.37 400.70 599.88 675.27 347.00 781.71 331.26 813.60 463.44 687.77 577.62 747.64 568.71
00035297 00000025 436.50 112.75 401.37 594.55 675.98 349.14 785.04 331.00 814.79 467.14 686.87 579.27 747.81 568.65
00035298 00000026 434.74 114.15 404.41 595.87 677.93 351.16 787.55 332.81 819.77 467.82 688.54 580.85 750.47 569.51
00035299 00000027 434.51 112.35 406.08 601.64 679.95 351.38 786.84 335.06 821.33 467.99 691.74 580.86 752.70 570.93
00035300 00000028 437.26 111.54 406.44 599.97 679.73 354.62 787.99 334.70 822.51 469.60 692.97 582.35 755.45 569.61
00035301 00000029 428.05 98.03 417.06 609.86 688.83 348.28 799.29 324.88 837.90 465.56 687.15 574.05 759.99 561.66
00035302 00000030 429.32 104.49 421.60 610.66 684.58 347.18 795.00 320.33 837.57 460.69 700.44 583.17 763.41 564.48
00035303 00000031 425.77 95.02 423.72 618.45 689.24 347.00 800.83 322.52 839.93 466.11 685.59 576.91 761.13 563.69
00035304 00000032 430.08 110.55 417.42 601.96 682.87 352.23 792.49 330.86 826.16 468.84 695.50 582.92 759.50 569.26
00035305 00000033 430.44 105.91 418.88 607.55 683.21 351.42 794.69 329.81 829.10 468.82 694.85 583.04 761.01 569.01
00035306 00000034 432.81 110.79 416.19 605.70 683.41 352.52 793.36 330.09 828.12 469.47 695.64 584.29 760.96 569.62
00035307 00000035 431.65 124.20 418.46 593.01 687.30 351.59 794.55 329.21 829.53 469.70 698.88 585.14 760.87 570.61
00035308 00000036 426.47 122.44 423.65 598.16 689.42 351.89 795.04 329.43 831.23 471.19 701.27 587.78 761.65 573.30
00035309 00000037 431.62 125.64 419.56 597.88 692.24 355.37 796.79 335.33 832.20 473.57 704.78 591.57 762.73 578.97
00035310 00000038 424.70 118.96 432.23 616.73 693.93 354.03 802.39 324.81 844.23 469.22 706.86 598.08 764.86 577.65
00035311 00000039 422.09 119.12 435.13 624.45 695.06 354.30 801.88 325.92 845.59 469.94 706.84 600.68 764.41 581.09
00035312 00000040 427.38 121.63 431.90 619.71 693.13 354.02 804.44 324.92 846.91 469.97 703.76 600.93 766.53 581.10
00035313 00000041 425.56 127.07 434.70 618.37 692.95 354.23 803.14 326.10 845.28 471.05 705.60 602.99 767.06 583.68
00035314 00000042 429.07 128.38 431.64 619.73 692.64 353.66 805.74 329.49 842.69 472.26 704.57 604.35 769.17 588.27
00035315 00000043 431.60 134.86 430.79 616.26 693.07 357.08 806.11 332.36 843.53 473.84 705.03 604.89 770.61 588.66
00035316 00000044 428.99 130.59 436.28 618.91 694.25 360.07 807.18 330.72 848.19 476.46 708.69 609.59 772.10 589.61
00035317 00000045 427.07 138.09 440.12 612.54 694.26 361.40 809.55 331.34 848.29 480.10 709.94 610.63 775.98 590.10
00035318 00000046 431.93 142.50 436.96 606.80 690.21 365.47 811.02 331.23 850.54 481.17 710.43 612.44 781.85 588.58
00035319 DELETE   433.75 137.28 435.99 607.70 692.22 370.29 813.47 332.95 854.79 484.97 710.94 615.23 783.16 589.00
00035320 00000048 431.31 139.52 439.16 611.13 691.07 372.54 814.25 334.11 856.87 490.18 709.64 620.18 783.97 593.30
00035321 00000049 431.81 146.41 440.74 604.38 690.63 374.31 817.35 336.41 856.90 495.01 710.22 622.40 785.60 595.97
00035322 00000050 431.92 141.10 443.37 611.82 691.27 376.44 820.06 337.66 860.34 495.85 711.66 624.15 787.97 596.92
00035323 00000051 432.00 142.26 443.57 609.89 692.23 378.79 821.42 338.87 862.38 498.01 713.68 625.23 789.55 597.07
00035324 00000052 432.23 139.53 444.89 610.92 694.24 381.18 823.39 339.68 862.72 499.73 715.77 626.20 791.95 596.79
00035325 00000053 425.00 142.09 450.62 613.87 696.27 384.08 821.35 341.25 864.75 503.44 716.34 628.82 787.93 598.54
00035326 00000054 421.70 143.30 453.48 615.14 698.56 385.84 821.11 343.46 864.87 504.80 717.64 629.94 786.25 600.36
00035327 00000055 422.63 148.68 453.81 610.38 695.38 387.93 821.58 345.87 863.29 506.10 716.99 630.16 787.45 600.55
00035328 00000056 423.18 142.86 457.19 621.88 693.34 386.22 825.10 343.61 863.39 507.38 716.03 634.35 790.06 604.26
00035329 00000057 419.58 144.96 461.46 620.87 696.48 390.39 824.89 344.83 865.98 511.63 716.75 635.14 786.40 602.85
00035330 00000058 419.80 146.61 460.80 620.35 694.59 390.20 825.82 345.36 865.34 512.34 716.53 635.71 787.72 603.76
00035331 00000059 417.74 146.21 465.69 625.86 695.02 392.75 827.04 347.49 865.47 515.32 715.76 638.79 788.76 606.74
00035332 00000060 416.48 143.38 467.23 636.95 693.67 392.30 825.97 350.28 864.80 517.63 713.58 642.75 787.86 613.39
00035333 00000061 423.55 154.02 463.37 624.81 701.11 388.58 823.77 354.65 862.98 520.82 714.81 646.21 789.73 622.23
00035334 00000062 421.85 149.25 467.45 630.23 702.32 390.43 826.65 357.59 863.30 522.44 713.38 645.37 789.62 622.23
00035335 00000063 413.14 141.46 470.89 643.01 696.59 390.39 828.45 351.02 868.98 522.35 714.31 646.63 788.02 619.62
00035336 00000064 417.93 147.09 466.84 638.15 697.50 392.72 828.39 352.43 869.85 524.80 713.18 647.22 786.99 619.76
00035337 00000065 413.09 152.93 475.66 635.99 703.84 395.43 832.46 359.15 870.24 527.11 717.04 656.80 794.13 630.33
00035338 00000066 415.36 152.04 475.90 637.24 704.66 398.53 834.61 362.77 870.78 529.26 717.93 658.79 796.17 632.88
00035339 00000067 416.66 148.83 477.05 640.26 706.89 399.38 837.73 365.93 871.35 529.72 719.04 659.22 796.93 635.69
00035340 00000068 409.76 143.62 483.71 648.84 707.18 400.08 836.20 367.67 872.02 532.31 718.21 661.35 794.23 638.50
00035341 00000069 408.31 131.09 482.72 669.21 703.23 401.39 830.99 363.65 874.91 536.66 714.50 659.94 789.65 634.67
00035342 00000070 412.92 146.99 478.80 648.10 704.41 406.39 832.95 371.69 870.32 535.84 716.39 664.53 792.68 640.13
00035343 00000071 415.13 150.98 476.13 647.09 705.99 405.30 833.26 372.16 870.19 535.86 717.33 665.05 791.72 642.06
00035344 00000072 419.49 150.30 470.81 649.62 705.51 406.98 831.98 373.97 870.63 537.65 716.58 666.31 789.54 643.60
00035345 00000073 420.34 158.51 469.45 642.25 706.01 405.65 831.65 371.90 869.83 538.06 718.24 666.88 790.21 643.77
00035346 00000074 424.84 162.83 465.18 635.13 704.92 407.42 831.12 371.93 869.08 537.84 719.78 666.05 792.11 641.47
00035347 00000075 421.65 164.27 468.65 639.74 703.90 405.26 831.38 370.31 869.92 538.05 718.80 668.68 792.07 644.62
00035348 00000076 418.44 164.52 470.05 641.94 704.88 404.96 830.39 370.50 869.38 538.22 719.50 669.78 792.00 646.06
00035349 00000077 420.11 160.69 469.81 644.24 705.32 405.59 830.21 372.02 870.21 538.12 718.08 669.12 789.52 646.21
00035350 00000078 420.54 153.52 470.12 652.18 707.33 403.61 832.04 372.27 871.91 536.50 716.95 666.36 789.55 645.30
00035351 00000079 418.34 149.57 472.19 653.62 707.69 402.71 833.28 371.79 871.55 535.48 717.96 665.66 790.58 644.76
00035352 00000080 415.62 150.32 476.89 652.01 707.81 398.57 834.07 368.05 872.71 533.05 718.65 664.90 792.06 644.27
00035353 00000081 414.96 142.33 477.57 662.50 706.03 400.15 829.68 360.61 877.27 538.93 720.27 662.73 790.55 636.50
00035354 00000082 414.12 154.55 477.23 650.91 705.97 397.70 832.31 368.10 872.18 532.46 722.69 667.02 795.45 647.20
00035355 00000083 413.69 153.25 478.99 654.17 705.71 396.41 831.28 368.96 871.74 531.13 720.38 667.11 793.22 648.82
00035356 00000084 414.60 148.56 477.87 655.61 706.89 395.36 832.43 368.07 871.59 531.26 721.04 666.20 793.61 648.15
00035357 00000085 417.00 151.37 475.40 655.21 707.07 393.65 834.67 368.91 871.86 531.44 723.56 667.02 796.76 650.80
00035358 00000086 420.46 150.20 474.48 650.65 710.10 397.16 834.35 368.90 872.68 532.67 723.93 665.95 794.31 647.32
00035359 00000087 418.97 149.05 472.82 652.39 709.13 401.40 829.30 362.94 877.02 540.07 723.69 661.41 791.20 636.48
00035360 00000088 416.76 134.02 478.14 665.13 715.11 405.90 834.10 375.65 878.24 534.19 729.96 666.37 795.73 645.95
00035361 00000089 422.50 133.96 473.11 661.62 713.62 407.00 837.66 376.23 877.66 534.77 727.23 662.78 798.92 642.16
00035362 00000090 420.05 131.80 475.41 659.48 715.55 407.96 836.09 374.57 877.72 533.66 726.49 659.48 796.58 636.84
00035363 00000091 422.78 133.74 471.23 658.29 714.92 406.49 833.84 373.37 875.73 534.28 721.40 657.40 792.46 635.15
00035364 00000092 420.27 130.23 474.51 664.42 713.34 404.90 834.14 373.45 874.94 534.81 719.47 658.30 793.01 637.37
00035365 00000093 417.69 131.87 475.20 662.16 710.88 405.99 834.00 373.89 875.73 534.28 718.91 658.84 795.25 637.19
00035366 00000094 419.72 135.18 471.77 656.86 711.04 406.70 831.20 373.66 874.57 534.22 717.73 656.72 792.04 634.43
00035367 00000095 416.83 129.99 470.63 662.53 709.12 409.23 825.90 366.72 874.95 534.81 720.09 653.56 787.33 625.00
00035368 00000096 420.40 136.16 469.21 658.75 712.91 406.08 827.48 373.35 872.98 532.68 720.01 656.85 787.49 634.91
00035369 00000097 418.43 138.55 471.21 657.87 712.61 406.05 827.68 374.46 872.35 533.90 720.77 657.83 787.67 636.62
00035370 00000098 412.80 135.26 475.14 662.37 711.29 410.23 824.21 370.86 875.75 537.75 721.54 656.49 785.72 630.63
00035371 00000099 414.97 139.73 474.31 655.72 713.35 408.54 830.06 373.39 872.76 535.95 723.58 660.77 790.31 636.52
00035372 00000100 414.54 144.25 474.24 652.96 712.74 406.96 829.58 372.21 873.04 535.49 722.74 660.43 790.65 636.50
00035373 00000101 418.06 137.65 472.10 658.41 714.24 408.99 829.99 375.04 873.74 536.39 721.70 658.59 788.81 635.32
00035374 00000102 414.04 130.69 473.84 665.89 714.54 409.99 823.83 371.61 877.04 538.50 720.74 654.72 783.07 629.74
00035375 00000103 416.94 138.90 473.19 662.78 716.68 403.83 825.90 373.76 874.07 535.15 718.29 658.57 781.12 638.99
00035376 00000104 414.79 133.33 477.82 668.63 712.26 404.81 830.68 375.64 873.06 536.65 717.40 661.27 788.38 642.49
00035377 00000105 412.29 135.29 481.08 665.75 711.93 407.19 830.07 376.52 873.84 536.71 718.60 661.60 788.66 641.17
00035378 00000106 411.52 131.91 481.48 675.17 713.33 403.90 829.83 376.42 874.76 536.38 716.13 660.00 786.07 642.51
00035379 00000107 401.97 131.06 489.52 681.21 712.30 403.61 829.16 376.24 872.96 537.50 712.91 661.36 784.00 643.74
00035380 00000108 406.66 135.72 485.95 669.47 713.96 404.07 829.54 373.43 874.20 536.83 711.05 658.12 782.30 638.01
00035381 00000109 406.72 138.45 483.59 665.20 715.60 402.75 829.31 372.80 873.94 535.52 710.77 652.87 783.35 633.29
00035382 00000110 408.14 130.64 483.04 663.11 715.46 404.96 831.76 373.33 873.31 535.70 713.01 652.10 786.51 630.98
00035383 00000111 407.15 131.99 484.37 662.32 715.74 405.39 830.27 372.94 872.02 532.99 714.31 649.91 786.99 628.12
00035384 00000112 407.34 129.97 484.11 661.59 714.53 405.13 832.71 371.30 871.75 532.59 714.86 649.57 790.01 626.58
00035385 00000113 408.17 131.88 481.57 660.22 713.06 406.79 831.41 373.58 870.08 532.01 716.11 650.45 790.84 627.70
00035386 00000114 403.64 129.62 484.16 666.60 710.48 405.49 831.74 372.95 870.26 531.40 717.43 652.78 793.98 630.32
00035387 00000115 402.89 126.91 484.80 668.76 708.79 404.94 829.80 370.37 868.36 529.74 714.31 651.52 792.44 627.61
00035388 00000116 401.75 136.45 486.79 660.32 703.65 404.64 831.86 368.58 866.10 529.90 713.36 654.81 796.08 629.20
00035389 00000117 403.70 136.27 485.25 664.49 701.80 397.09 832.16 365.08 866.17 526.35 713.49 654.92 797.32 632.88
00035390 00000118 404.65 135.62 486.14 661.77 698.45 394.23 833.61 364.89 863.77 522.48 713.44 653.84 800.72 633.36
00035391 00000119 406.16 134.36 485.04 658.58 700.10 395.40 832.44 365.06 863.09 519.99 713.66 649.00 799.37 627.92
00035392 00000120 410.38 136.02 481.49 652.32 698.92 396.45 833.35 366.48 862.29 519.17 712.92 647.08 800.69 626.03
00035393 00000121 413.02 136.44 479.28 645.51 699.31 399.96 837.52 367.41 863.19 520.24 711.77 643.54 804.26 620.47
00035394 00000122 409.82 142.43 482.97 646.35 697.16 397.78 837.99 367.41 862.03 519.39 708.72 643.26 805.87 621.71
00035395 00000123 409.40 144.87 479.82 645.24 697.57 396.70 834.62 369.01 859.41 520.69 704.69 643.43 800.31 624.16
00035396 00000124 401.73 138.74 487.11 653.09 692.52 396.80 836.36 368.89 857.94 522.37 697.20 646.11 799.25 626.33
00035397 00000125 405.03 141.28 481.59 661.12 688.66 392.45 834.45 371.00 852.35 519.66 690.66 644.46 795.64 630.00
00035398 00000126 391.14 141.41 490.56 666.81 680.05 390.01 834.49 375.80 847.14 519.47 683.35 644.17 794.63 634.56
00035399 00000127 393.20 142.32 484.95 672.79 675.44 386.51 833.47 376.03 843.44 519.08 673.95 642.74 792.93 636.27
00035400 00000128 392.07 142.38 485.88 673.74 671.74 386.97 834.09 374.45 841.76 519.22 667.63 643.59 793.24 635.35
00035401 00000129 390.66 145.97 487.59 663.88 672.83 389.29 834.11 374.35 843.71 521.31 669.06 644.08 791.73 633.91
00035402 00000130 390.76 139.60 491.51 670.79 676.27 387.79 836.14 375.83 846.39 519.45 675.36 643.17 795.48 635.30
00035403 00000131 396.48 137.50 492.23 665.26 684.64 388.65 840.36 374.08 851.93 520.88 686.20 642.76 799.09 633.19
00035404 00000132 404.30 136.87 487.30 664.27 690.76 387.86 840.49 370.52 855.90 519.80 690.70 641.94 799.80 630.78
00035405 00000133 406.78 149.28 484.15 656.65 692.61 385.91 835.88 367.82 856.91 517.60 691.18 640.45 798.42 628.92
00035406 00000134 411.77 148.70 481.87 654.41 694.57 386.06 838.18 366.98 857.94 519.17 695.13 642.53 800.46 630.47
00035407 00000135 408.73 145.38 484.36 657.43 695.72 387.63 837.51 368.01 857.51 519.31 696.61 643.52 799.35 630.82
00035408 00000136 400.43 138.36 490.64 665.99 694.37 388.65 835.30 367.02 857.24 519.49 697.50 645.81 798.84 631.34
00035409 00000137 402.87 144.61 485.04 661.32 690.41 391.95 835.23 370.51 853.63 519.62 696.21 646.18 800.48 631.54
00035410 00000138 391.62 135.11 491.55 665.31 684.99 392.48 832.45 371.91 849.85 519.23 691.84 643.49 796.65 628.77
00035411 00000139 382.57 140.58 495.53 663.01 679.44 389.49 828.67 371.03 846.42 519.35 687.71 646.95 792.27 633.65
00035412 00000140 375.31 142.76 498.86 658.97 676.22 391.59 824.39 369.22 845.72 521.46 686.56 646.04 789.72 629.32
00035413 00000141 369.64 136.03 491.23 656.77 669.63 390.33 810.54 360.03 849.69 521.12 676.14 645.29 780.43 625.12
00035414 00000142 374.57 131.29 488.65 658.91 670.43 388.85 811.26 359.08 849.96 518.21 676.70 642.35 781.60 622.35
00035415 00000143 377.72 133.40 484.07 658.14 672.51 386.45 806.15 357.81 848.24 514.69 677.02 639.74 777.24 621.03
00035416 00000144 385.26 135.88 480.93 650.85 675.54 382.30 806.86 355.17 847.35 510.93 681.43 636.04 779.28 618.51
00035417 00000145 384.35 132.68 480.20 657.10 677.01 377.18 806.02 354.91 849.26 506.18 680.50 633.75 777.72 620.30
00035418 00000146 386.52 144.58 476.78 644.60 677.02 378.64 801.97 354.21 847.24 506.93 682.40 633.76 775.68 618.72
00035419 00000147 388.29 140.60 473.79 646.31 676.39 378.96 800.40 353.99 846.42 505.89 680.53 632.60 773.34 617.24
00035420 00000148 372.82 135.14 483.61 657.70 671.56 379.03 795.55 356.92 842.43 507.60 675.52 633.31 770.34 619.46
00035421 00000149 378.78 144.13 477.78 643.75 659.44 385.18 793.44 358.89 826.87 508.93 674.13 633.43 773.45 615.48
00035422 00000150 377.82 145.56 471.46 643.55 650.41 381.63 794.21 357.92 818.79 510.96 662.01 630.18 772.25 614.39
00035423 00000151 371.05 132.85 475.20 655.16 647.80 378.04 790.75 352.40 816.68 507.86 659.86 628.22 768.79 610.60
00035424 00000152 374.90 130.88 466.90 653.34 641.23 374.45 796.12 343.80 818.13 498.73 654.59 628.81 771.11 607.45
00035425 00000153 375.03 124.37 466.34 659.10 643.19 372.76 794.82 340.02 819.54 496.45 656.12 628.46 770.55 605.73
00035426 00000154 376.72 122.90 466.74 658.74 643.80 371.86 794.77 336.62 821.90 493.19 659.13 627.58 772.22 602.93
00035427 00000155 376.50 126.64 467.04 655.53 645.42 371.97 793.82 335.92 822.95 493.63 662.66 628.19 772.61 602.52
00035428 00000156 375.02 123.88 470.80 662.87 646.00 373.03 796.44 338.97 823.97 493.61 665.48 629.73 776.93 605.59
00035429 00000157 376.51 121.60 475.83 668.25 657.72 374.49 790.59 343.89 828.19 497.46 676.56 626.08 780.44 603.66
00035430 00000158 377.97 130.31 479.78 659.30 658.55 375.65 793.00 341.91 831.04 497.35 681.43 628.92 783.46 603.76
00035431 00000159 376.00 123.58 475.04 656.73 662.43 376.08 800.66 348.68 837.07 495.02 677.39 625.93 781.67 606.65
00035432 00000160 379.25 133.05 473.72 645.32 662.78 374.21 800.00 348.46 836.13 491.88 678.28 621.24 781.84 603.44
00035433 00000161 373.70 131.59 476.11 645.59 654.28 363.03 794.93 341.22 830.48 480.47 673.93 613.59 782.98 598.15
00035434 00000162 378.66 116.80 474.26 663.68 650.72 357.13 794.80 321.04 829.20 468.57 678.87 613.51 788.49 586.70
00035435 00000163 374.55 105.86 475.19 669.20 646.26 352.21 792.99 316.43 824.84 465.10 676.66 610.88 787.28 583.95
00035436 00000164 385.66 117.58 462.28 654.42 644.86 347.65 793.66 313.92 823.86 462.04 673.97 606.01 788.82 580.81
00035437 00000165 376.68 102.84 471.12 669.84 646.05 344.41 794.50 311.57 827.05 457.40 674.14 604.48 788.97 580.05
00035438 00000166 379.28 104.51 472.52 667.57 649.55 343.57 793.99 307.69 832.89 455.06 678.91 603.36 790.72 576.75
00035439 00000167 379.83 97.76 474.02 670.17 656.42 338.84 794.17 305.34 836.26 450.92 685.20 598.34 790.32 573.94
00035440 00000168 390.14 109.64 466.41 649.67 660.49 338.06 792.18 305.01 837.30 450.11 690.97 592.40 789.65 567.94
00035441 00000169 394.49 109.34 463.33 643.71 664.51 336.31 789.87 303.49 836.90 445.26 696.41 585.25 790.22 560.43
00035442 00000170 394.48 103.10 459.86 648.20 665.48 330.93 789.00 300.73 835.08 440.32 695.55 581.39 789.92 559.00
