Video ID: 	w90fhBFrOIY
H: 	1080
W: 	1920
FPS: 	24.0

FRAME INDEX X0 Y0 W H [Landmarks (5 Points)]

00012726 00000000 753.10 228.21 444.61 626.46 896.26 499.84 1100.39 504.25 1003.42 663.23 893.62 713.91 1065.25 718.44
00012727 DELETE   765.50 211.56 444.15 643.24 907.36 487.76 1114.87 495.82 1017.77 664.36 904.96 712.81 1070.57 722.24
00012728 DELETE   769.62 194.68 449.44 660.98 922.69 484.60 1130.25 491.29 1038.60 654.60 911.19 706.88 1079.37 715.29
00012729 00000003 780.09 196.28 440.74 658.04 932.34 481.41 1136.38 490.52 1051.54 652.82 923.89 706.07 1090.46 716.25
00012730 00000004 781.46 194.34 440.12 658.44 934.90 479.34 1141.46 487.78 1058.10 647.50 926.51 701.53 1098.03 710.92
00012731 00000005 778.12 193.52 442.48 660.72 932.79 479.99 1140.25 484.60 1059.06 650.00 927.18 702.61 1100.50 708.83
00012732 00000006 774.26 189.86 442.92 658.87 928.81 475.28 1136.38 477.32 1057.88 639.26 929.57 699.90 1101.86 703.76
00012733 00000007 770.14 177.08 445.09 666.82 932.50 465.50 1138.33 468.99 1064.36 624.83 937.12 698.24 1101.05 703.06
00012734 00000008 761.48 153.39 450.78 691.45 935.25 448.88 1139.89 452.18 1074.13 609.77 939.40 692.44 1100.04 697.23
00012735 00000009 762.64 137.84 448.09 697.62 939.67 428.77 1140.11 436.94 1081.50 583.84 953.77 683.91 1099.93 692.01
00012736 00000010 762.35 135.47 440.28 692.42 945.86 408.56 1136.94 417.45 1087.83 558.08 960.42 666.85 1107.07 675.44
00012737 00000011 753.88 145.86 442.85 675.41 932.38 397.98 1129.85 404.39 1074.57 531.40 961.43 663.56 1107.90 666.94
00012738 00000012 742.86 136.12 450.38 696.62 925.44 399.36 1126.69 400.54 1077.09 540.21 945.36 662.77 1101.26 662.56
00012739 DELETE   736.57 132.50 455.87 713.54 913.32 424.16 1116.12 412.52 1067.51 574.66 913.92 666.95 1107.03 658.22
00012740 00000014 722.63 171.35 458.90 694.39 895.77 455.47 1101.49 441.07 1046.94 623.25 887.55 677.58 1098.29 667.73
00012741 00000015 717.55 180.82 454.57 687.36 872.88 477.19 1082.64 455.93 1022.94 640.22 880.54 702.77 1086.56 687.36
00012742 00000016 712.71 191.46 455.70 674.88 863.84 485.44 1073.71 466.59 998.09 646.10 877.77 699.00 1072.54 684.81
00012743 DELETE   707.74 183.09 454.81 684.23 856.98 474.20 1067.45 458.46 990.78 633.51 874.81 696.68 1067.96 684.26
00012744 00000018 699.17 171.22 457.01 689.14 849.75 467.04 1060.68 450.49 984.22 622.91 866.86 688.19 1061.15 675.36
00012745 00000019 700.72 172.58 451.05 679.81 845.64 467.83 1058.34 450.06 981.42 621.84 866.78 687.56 1060.13 673.70
00012746 00000020 705.19 165.63 447.32 689.82 844.21 472.00 1059.42 453.75 980.02 628.97 870.48 702.41 1056.04 688.04
00012747 00000021 704.23 175.39 448.19 683.28 840.83 476.86 1058.60 463.26 975.96 634.54 871.73 713.13 1047.57 702.77
00012748 00000022 701.27 173.43 450.75 689.63 837.62 472.59 1056.32 457.55 975.02 630.93 873.71 715.21 1049.13 703.35
00012749 00000023 701.88 172.81 451.46 686.01 834.36 473.61 1055.35 455.54 974.17 631.98 870.71 712.82 1050.56 698.57
00012750 DELETE   700.49 170.92 453.93 694.54 835.98 483.84 1058.29 463.71 975.60 645.16 868.03 720.47 1049.29 704.71
00012751 00000025 701.66 175.24 451.84 689.50 837.05 493.09 1059.76 471.07 972.83 649.22 864.60 720.21 1048.70 703.37
00012752 00000026 703.08 173.89 450.41 690.63 836.00 495.11 1058.41 476.96 968.64 648.44 862.24 719.92 1047.75 705.73
00012753 00000027 703.62 173.44 452.31 691.30 834.13 488.75 1059.39 466.79 971.01 646.74 862.16 720.92 1049.99 703.97
00012754 00000028 702.39 176.09 453.97 688.65 836.63 484.71 1061.61 469.96 969.61 648.77 857.59 716.53 1044.67 705.57
00012755 00000029 701.58 175.19 454.63 689.47 834.94 487.36 1057.79 470.37 966.52 652.12 853.31 714.05 1045.64 701.35
00012756 00000030 699.63 175.31 454.36 689.72 834.07 487.93 1053.98 471.30 964.75 652.30 850.89 710.95 1043.57 698.39
00012757 00000031 699.15 179.47 454.31 687.34 833.28 488.22 1052.82 471.89 963.38 654.19 849.96 708.82 1047.34 696.17
00012758 00000032 701.88 179.86 451.49 687.56 836.19 489.82 1055.63 471.43 969.07 654.38 854.98 707.76 1055.15 693.31
00012759 00000033 703.91 179.75 449.50 691.31 839.17 490.54 1057.64 472.97 972.67 655.84 859.87 712.33 1055.74 698.48
00012760 00000034 692.92 183.31 453.40 686.28 838.19 493.41 1050.47 475.27 966.45 653.08 857.15 720.86 1040.59 705.90
00012761 00000035 687.47 188.16 466.59 689.02 822.01 497.52 1050.64 482.01 953.81 672.40 850.29 734.12 1036.17 722.10
00012762 DELETE   675.07 209.73 474.81 677.95 803.01 498.00 1028.83 486.27 931.93 670.62 831.95 742.45 1013.44 733.34
00012763 DELETE   669.72 223.02 464.37 660.32 779.52 504.26 998.94 502.39 885.39 679.43 807.42 747.40 971.81 746.01
00012764 DELETE   665.17 226.22 445.88 663.22 762.51 502.52 976.79 507.78 856.19 676.57 785.99 749.49 950.48 754.54
00012765 00000039 663.13 221.56 434.88 663.62 747.96 504.92 956.90 514.15 835.94 681.53 776.34 746.87 944.14 754.26
00012766 00000040 653.43 229.17 438.31 645.97 740.60 500.84 948.21 511.43 826.45 678.08 771.52 736.24 940.16 745.10
00012767 DELETE   651.16 243.02 442.88 624.37 731.20 495.86 933.90 512.38 812.81 684.73 757.31 719.17 926.40 733.75
00012768 DELETE   654.29 238.40 438.30 619.44 727.36 484.42 928.56 503.92 802.55 666.65 746.04 703.56 918.40 720.57
00012769 00000043 656.53 221.48 432.56 626.72 725.05 481.93 920.63 499.91 796.08 653.46 742.66 697.00 914.80 712.14
00012770 00000044 662.98 211.49 426.64 637.92 729.47 476.55 919.03 489.27 797.10 647.61 748.72 692.21 922.09 702.51
00012771 00000045 670.16 208.76 424.65 634.11 739.76 470.25 929.21 482.81 809.68 641.40 755.57 681.53 933.11 691.68
00012772 00000046 676.44 207.66 423.39 626.47 750.06 469.09 941.38 477.81 820.45 624.66 767.41 676.24 946.55 683.87
00012773 00000047 684.85 208.71 413.36 636.84 754.12 461.50 936.62 478.96 811.04 624.77 762.10 674.49 935.90 688.59
00012774 00000048 686.38 211.74 414.16 632.86 754.89 450.89 934.13 476.22 802.79 617.63 758.27 668.36 928.63 688.84
00012775 00000049 686.89 200.73 415.60 629.80 752.74 446.24 929.18 475.90 800.99 613.04 756.37 666.58 921.60 690.53
00012776 00000050 691.12 199.85 418.14 634.54 756.35 449.07 938.27 477.11 811.28 614.72 761.37 672.40 923.12 695.63
00012777 00000051 706.26 210.28 415.79 616.77 771.97 448.67 960.11 477.27 823.81 603.23 773.05 671.87 932.05 694.92
00012778 DELETE   709.13 205.47 423.35 622.09 778.22 451.45 977.17 474.14 851.49 624.71 788.21 683.31 949.75 701.13
00012779 00000053 714.81 200.74 424.41 626.70 787.34 456.30 988.91 475.95 864.98 626.39 796.42 689.63 957.96 705.83
00012780 00000054 727.73 199.55 411.68 629.70 792.96 448.16 987.87 473.48 860.79 618.72 805.80 685.77 959.30 708.11
00012781 00000055 730.95 192.67 410.18 644.05 796.33 444.59 986.36 470.10 857.28 608.58 807.21 674.69 970.17 696.74
00012782 00000056 731.97 194.01 413.89 646.20 800.46 444.64 987.89 472.40 861.25 605.69 806.81 668.57 974.79 692.03
00012783 00000057 737.95 199.52 417.91 633.21 810.22 444.10 1000.88 475.84 871.93 611.40 814.33 662.07 989.01 688.40
00012784 00000058 745.90 196.49 412.90 636.16 818.28 444.82 1013.00 469.58 884.53 611.72 825.37 664.87 1001.66 685.52
00012785 00000059 751.75 197.10 411.06 626.28 826.67 442.32 1021.47 470.00 889.99 606.01 830.13 661.29 1002.68 684.27
00012786 00000060 754.14 196.03 404.68 624.48 830.88 439.23 1018.79 471.20 889.52 604.53 833.83 659.83 997.46 686.39
00012787 00000061 756.62 197.71 405.53 618.14 836.38 441.80 1022.51 475.01 893.11 603.88 834.99 656.11 998.05 683.85
00012788 DELETE   754.21 194.43 418.65 616.97 843.52 442.90 1039.62 471.84 911.24 604.50 841.48 655.63 1008.93 679.94
00012789 DELETE   758.57 185.82 417.82 619.12 854.29 443.35 1053.92 457.86 939.66 593.19 859.99 658.53 1024.84 670.93
00012790 DELETE   762.05 182.44 414.47 619.35 865.63 442.12 1056.69 450.93 956.15 583.31 881.75 660.23 1034.52 668.08
00012791 00000065 759.80 177.99 412.53 622.48 864.40 437.20 1056.19 446.94 955.83 575.78 881.27 657.17 1033.78 665.69
00012792 00000066 753.95 176.19 415.01 625.14 853.23 433.56 1052.81 444.19 943.68 573.22 864.33 656.68 1026.91 665.84
00012793 00000067 751.42 169.88 417.46 633.78 848.73 429.21 1046.65 444.64 932.23 569.75 855.56 654.19 1019.31 667.36
00012794 00000068 751.95 170.61 415.70 632.35 848.73 427.87 1046.78 442.78 934.16 566.66 854.83 652.57 1021.08 665.20
00012795 00000069 750.51 170.29 417.90 632.06 850.34 429.96 1052.35 441.58 940.65 567.46 860.50 653.96 1030.23 663.67
00012796 00000070 751.95 172.77 417.69 630.97 850.19 432.03 1052.22 442.18 940.66 570.69 860.22 654.85 1032.25 663.31
00012797 00000071 751.07 173.19 417.92 637.92 847.97 434.46 1047.90 446.07 935.09 574.57 854.37 657.97 1024.02 667.85
00012798 DELETE   747.21 181.20 420.17 637.19 840.68 438.27 1043.07 454.43 922.29 590.67 845.83 661.89 1019.38 675.21
00012799 00000073 748.23 187.25 416.26 629.48 836.05 443.65 1038.77 461.19 914.96 604.66 845.79 669.39 1013.36 684.26
00012800 00000074 748.09 184.58 418.10 633.67 839.56 447.54 1040.19 461.75 921.74 609.10 851.37 673.49 1014.41 685.82
00012801 00000075 751.28 186.72 418.00 629.92 845.73 456.76 1049.16 461.55 939.79 610.42 860.33 679.34 1023.47 683.93
00012802 00000076 747.39 190.69 427.41 628.33 860.45 464.46 1061.84 460.95 966.05 612.35 879.81 678.80 1041.92 676.61
00012803 00000077 752.46 191.51 425.05 623.02 868.09 462.23 1064.44 455.11 975.12 604.65 892.42 673.65 1054.17 668.29
00012804 00000078 751.25 190.19 426.30 622.11 862.91 467.62 1062.12 460.97 970.25 611.00 887.41 677.43 1050.41 672.21
00012805 00000079 749.52 188.30 425.37 631.37 850.75 465.17 1055.22 464.16 951.45 612.13 871.50 683.21 1036.72 682.43
00012806 00000080 749.74 195.82 422.68 626.74 843.96 463.57 1046.41 464.75 938.65 614.40 867.34 687.03 1030.10 688.24
00012807 DELETE   744.43 209.38 427.04 622.64 846.50 470.78 1052.24 471.73 942.70 631.59 867.72 690.10 1035.35 691.40
00012808 DELETE   744.24 219.16 426.97 617.99 854.95 474.53 1055.72 472.49 956.14 634.75 878.96 690.79 1041.49 689.59
00012809 00000083 747.92 218.46 424.18 618.32 857.32 483.34 1057.02 479.29 959.70 635.46 879.85 692.69 1044.13 690.17
00012810 00000084 745.01 215.69 423.65 623.83 852.67 481.54 1052.79 476.59 955.35 634.69 877.06 694.90 1039.58 691.48
00012811 00000085 742.14 207.41 423.94 631.72 844.06 474.22 1048.96 473.03 944.03 634.40 869.74 693.01 1036.47 692.47
00012812 00000086 743.35 202.88 422.59 635.40 841.50 468.90 1043.55 467.52 939.59 625.20 868.94 692.45 1033.51 691.76
00012813 00000087 744.44 193.94 421.26 647.32 842.82 467.23 1045.67 465.92 943.64 620.71 865.91 692.26 1031.24 691.78
00012814 00000088 745.16 193.60 422.47 651.87 843.24 465.48 1046.72 464.87 944.07 618.83 868.57 695.21 1032.53 695.06
00012815 00000089 746.27 190.84 420.81 656.14 841.08 468.16 1043.90 466.49 942.90 620.36 867.99 699.39 1029.80 698.32
00012816 DELETE   737.88 190.71 430.03 656.70 830.17 473.18 1034.32 468.38 928.17 628.88 858.67 704.74 1024.24 701.60
00012817 00000091 737.66 204.85 422.10 649.85 827.78 469.99 1034.22 475.37 922.45 631.46 849.24 701.01 1016.09 706.10
00012818 00000092 737.52 199.01 422.44 654.07 828.08 466.21 1033.06 471.86 920.40 627.61 848.00 694.15 1018.99 699.40
00012819 DELETE   730.75 194.58 434.29 642.68 831.43 466.21 1032.07 463.08 926.91 623.12 850.75 681.12 1028.77 679.27
00012820 DELETE   742.60 187.60 421.55 639.95 842.42 454.03 1046.87 456.50 941.29 606.37 855.49 669.31 1034.95 671.84
00012821 00000095 744.90 184.75 419.85 632.41 850.49 451.32 1053.82 452.80 951.69 601.35 866.16 663.80 1041.15 665.56
00012822 00000096 746.33 184.02 418.97 625.71 853.34 449.29 1057.13 451.18 954.48 601.07 869.95 662.32 1042.14 664.59
00012823 00000097 746.30 184.50 419.72 624.62 853.91 449.72 1057.54 451.46 954.96 600.90 870.25 660.67 1043.80 662.72
00012824 00000098 746.45 183.97 418.93 624.20 854.20 448.86 1058.94 449.94 956.65 599.75 870.75 659.45 1047.32 660.96
00012825 00000099 746.42 180.45 420.35 627.05 855.44 447.52 1060.20 449.95 956.86 599.64 869.94 658.31 1046.09 661.00
00012826 00000100 746.95 177.73 420.18 631.98 853.12 444.65 1058.98 448.64 952.93 595.14 868.22 657.67 1046.74 661.36
00012827 00000101 746.21 175.05 421.28 635.70 852.18 442.12 1057.18 446.52 951.47 588.85 867.79 655.63 1047.39 659.45
00012828 00000102 745.42 174.45 421.40 633.36 851.82 441.32 1059.50 446.07 951.80 586.76 864.18 652.44 1049.34 656.50
00012829 00000103 745.85 175.78 422.68 630.47 852.51 441.75 1060.19 446.40 952.42 588.24 864.60 650.63 1050.89 654.53
00012830 00000104 747.77 176.59 420.87 629.36 853.17 442.96 1060.54 446.77 954.21 587.63 866.68 652.72 1051.45 655.83
00012831 00000105 748.71 176.65 421.24 631.25 854.82 444.66 1060.68 448.50 955.40 588.98 869.25 655.64 1049.34 658.89
00012832 00000106 749.84 181.26 420.31 632.31 855.74 447.46 1059.61 450.54 956.26 591.51 871.34 657.65 1050.61 660.29
00012833 00000107 749.21 180.84 421.29 632.44 855.18 449.16 1060.51 452.26 956.22 594.57 871.38 659.54 1051.28 662.18
00012834 00000108 748.93 181.72 419.91 631.12 854.16 450.93 1060.55 453.21 955.17 598.16 870.12 659.94 1051.82 661.91
00012835 00000109 747.84 183.86 420.13 629.42 853.60 451.69 1058.94 453.38 953.98 599.51 869.66 658.77 1051.86 660.27
00012836 00000110 748.14 185.35 417.88 626.29 852.74 450.07 1057.59 452.77 952.13 598.07 867.87 656.49 1050.43 658.79
00012837 00000111 745.89 181.90 417.15 629.45 849.93 447.85 1057.06 449.61 950.29 599.73 867.06 659.73 1046.49 661.55
00012838 00000112 744.15 180.81 416.57 632.94 845.79 448.44 1052.38 449.33 945.66 602.10 866.00 663.73 1043.00 664.93
00012839 00000113 743.65 183.37 418.16 632.77 845.30 454.23 1050.66 451.54 947.00 608.14 870.21 670.43 1043.55 668.55
00012840 00000114 740.71 192.35 420.96 621.00 851.06 459.82 1054.85 461.77 951.46 612.53 869.47 669.92 1041.17 672.21
00012841 00000115 741.62 195.62 418.57 615.82 849.18 472.84 1048.01 469.38 950.24 616.71 870.38 672.59 1040.18 670.49
00012842 00000116 744.16 193.68 416.55 622.24 844.52 475.65 1046.40 472.40 945.77 621.85 868.95 683.07 1034.72 680.95
00012843 00000117 740.08 200.29 418.50 620.77 841.82 477.07 1043.40 472.87 944.88 626.69 867.62 685.17 1032.26 682.68
00012844 00000118 734.03 201.41 421.05 639.69 837.64 477.00 1040.37 472.17 941.43 628.73 864.95 687.53 1036.35 683.96
00012845 00000119 730.99 200.11 423.93 646.73 836.74 473.59 1039.13 472.02 939.08 625.73 859.50 686.34 1033.62 685.42
00012846 00000120 729.26 199.18 424.23 644.62 833.72 470.90 1037.85 468.93 935.86 623.20 856.80 685.91 1031.97 684.88
00012847 00000121 729.84 195.25 423.49 640.53 832.48 472.09 1036.21 468.12 934.58 622.53 858.06 685.08 1030.88 682.53
00012848 00000122 730.60 195.51 422.64 630.09 831.53 471.86 1037.46 466.51 935.18 622.93 858.49 683.31 1031.59 679.80
00012849 00000123 729.31 198.46 423.56 626.83 831.16 472.80 1037.81 467.13 935.58 625.57 857.72 682.29 1032.92 678.68
00012850 00000124 728.06 195.50 425.24 637.09 829.12 472.99 1037.43 466.34 934.52 628.58 857.96 686.21 1035.08 681.62
00012851 00000125 727.82 195.58 425.08 638.78 828.61 473.46 1037.24 466.86 934.23 628.44 858.29 689.10 1033.61 684.40
00012852 00000126 728.87 194.45 424.29 636.78 829.04 474.36 1038.64 469.72 934.13 630.71 855.86 690.07 1028.87 687.25
00012853 00000127 729.09 195.09 425.42 632.85 829.19 477.37 1039.18 470.43 935.47 632.61 859.22 691.17 1031.53 686.40
00012854 00000128 728.50 199.88 425.92 627.91 829.24 477.42 1039.66 470.38 936.11 631.99 858.70 690.12 1032.19 685.50
00012855 00000129 728.16 200.87 427.17 629.68 829.52 477.62 1039.15 469.11 937.07 632.60 861.12 692.11 1032.69 686.17
00012856 00000130 728.63 201.87 428.61 642.39 830.45 476.70 1038.08 469.10 936.35 634.48 860.36 692.82 1036.58 687.17
00012857 00000131 728.30 203.31 429.84 647.97 831.02 474.93 1038.17 469.41 934.98 634.61 858.10 692.31 1037.45 688.33
00012858 00000132 727.61 202.69 430.78 647.81 830.18 474.71 1037.75 469.41 934.19 635.81 857.86 690.38 1040.40 686.45
00012859 00000133 727.62 205.30 430.01 642.55 831.32 476.16 1038.36 471.03 934.62 637.13 857.08 687.26 1042.07 683.69
00012860 00000134 727.89 204.28 429.91 640.28 831.74 476.97 1039.27 471.38 936.32 636.70 859.16 690.05 1039.42 686.11
00012861 00000135 728.44 203.37 429.52 642.87 831.48 479.10 1039.08 471.94 936.95 637.44 862.41 695.15 1036.72 689.87
00012862 00000136 728.73 202.86 429.26 641.62 830.91 479.70 1037.86 472.25 936.36 637.66 863.32 696.95 1034.83 691.48
00012863 00000137 729.26 204.76 427.95 630.31 830.27 480.27 1038.89 472.88 937.00 640.01 862.00 696.07 1033.00 691.05
00012864 00000138 726.72 202.89 429.70 633.75 830.89 481.14 1040.47 474.57 937.60 639.31 859.66 694.07 1033.17 689.73
00012865 00000139 727.25 203.14 429.13 632.83 831.37 482.01 1039.43 474.96 938.13 640.22 862.06 696.47 1032.29 691.68
00012866 00000140 727.17 203.91 428.93 640.75 831.29 481.58 1038.88 475.39 938.22 640.11 864.27 701.97 1031.87 697.74
CROP_BBOX: 375 0 1491 1080
