Video ID: 	JiyaVlgSX0E
H: 	2160
W: 	3840
FPS: 	30.0

FRAME INDEX X0 Y0 W H [Landmarks (5 Points)]

00000656 00000000 1281.23 389.43 781.19 1001.57 1506.94 884.50 1818.33 733.48 1762.31 879.17 1722.80 1222.22 1961.68 1096.43
00000657 DELETE   1314.60 394.32 767.77 970.04 1522.32 895.53 1846.33 747.63 1774.57 907.18 1720.16 1232.93 1972.10 1108.32
00000658 DELETE   1333.05 393.44 827.79 1061.76 1541.28 929.75 1911.15 753.54 1811.94 956.90 1760.40 1309.45 2033.42 1164.24
00000659 00000003 1333.31 398.26 832.57 1084.51 1549.76 937.93 1932.59 782.98 1832.50 956.88 1757.31 1318.54 2041.15 1193.04
00000660 00000004 1344.40 414.60 848.93 1075.08 1539.79 948.60 1925.19 778.70 1808.21 957.61 1750.42 1326.17 2041.41 1186.81
00000661 00000005 1358.97 411.55 820.99 1054.52 1548.66 941.75 1935.12 778.22 1813.39 960.53 1752.28 1322.25 2039.66 1188.81
00000662 00000006 1365.75 410.85 822.65 1070.10 1549.37 945.22 1929.75 780.54 1808.06 967.17 1748.74 1323.97 2030.38 1191.37
00000663 00000007 1372.83 397.24 810.40 1078.30 1545.11 937.25 1926.94 777.94 1809.52 974.42 1736.92 1332.09 2011.94 1204.11
00000664 00000008 1389.93 420.30 796.98 1047.27 1563.94 936.25 1937.21 795.73 1818.26 998.82 1745.57 1318.92 2013.86 1204.72
00000665 00000009 1400.53 427.83 811.51 1032.67 1571.91 947.65 1943.63 803.51 1818.18 1015.86 1755.36 1329.16 2024.46 1211.19
00000666 00000010 1411.09 433.54 794.86 1016.18 1591.62 942.22 1952.02 809.01 1833.31 1036.15 1773.77 1320.12 2027.45 1210.93
00000667 00000011 1429.71 428.96 802.80 1014.44 1611.30 932.95 1965.67 807.10 1848.96 1052.19 1792.78 1326.73 2032.59 1222.24
00000668 00000012 1441.34 425.22 818.34 1006.44 1621.90 925.63 1982.83 801.02 1863.82 1042.68 1797.57 1321.78 2053.76 1217.13
00000669 00000013 1451.32 419.88 807.91 1025.61 1631.90 919.81 1991.75 808.34 1867.00 1041.05 1792.13 1316.21 2050.22 1223.87
00000670 00000014 1450.95 415.00 789.86 1044.94 1633.11 927.02 1997.05 814.14 1871.09 1040.24 1784.85 1309.00 2061.19 1215.85
00000671 00000015 1454.18 415.99 811.37 1058.89 1642.60 936.18 2010.41 822.04 1880.80 1045.32 1790.25 1311.14 2067.83 1217.06
00000672 00000016 1451.91 426.21 806.10 1046.81 1643.91 941.55 2004.41 822.96 1889.57 1059.96 1800.70 1311.91 2067.54 1213.85
00000673 00000017 1445.99 429.96 806.49 1052.49 1635.38 940.03 1997.98 822.94 1881.82 1063.01 1795.60 1311.78 2067.24 1214.29
00000674 00000018 1446.40 431.82 807.46 1051.11 1631.86 938.93 1997.82 819.65 1877.44 1060.56 1791.42 1310.92 2066.27 1211.73
00000675 00000019 1443.76 427.06 811.64 1048.05 1628.24 941.27 1994.39 822.31 1872.67 1051.03 1785.72 1307.35 2064.90 1208.22
00000676 00000020 1447.31 419.79 810.32 1053.30 1629.62 938.99 1993.92 820.49 1868.42 1054.55 1788.55 1308.76 2067.62 1209.63
00000677 00000021 1458.85 419.02 806.75 1052.69 1634.29 937.86 1993.93 818.23 1866.19 1057.38 1788.90 1306.43 2063.27 1207.09
00000678 00000022 1456.91 414.92 804.87 1066.59 1639.91 935.44 2003.48 819.72 1877.39 1064.88 1791.06 1303.45 2074.36 1206.91
00000679 00000023 1449.70 420.71 816.41 1076.40 1647.87 936.19 2019.39 827.55 1887.57 1068.91 1799.95 1320.85 2082.59 1229.26
00000680 00000024 1448.15 424.76 819.65 1071.29 1654.56 933.04 2030.25 833.43 1900.18 1071.84 1801.52 1322.66 2083.67 1238.72
00000681 00000025 1455.29 404.66 852.58 1096.06 1649.11 915.71 2046.40 824.89 1884.41 1055.61 1787.27 1315.97 2100.57 1240.05
00000682 00000026 1462.09 402.36 801.94 1106.84 1655.73 924.85 2020.65 826.42 1900.84 1065.70 1795.41 1325.11 2084.83 1237.40
00000683 00000027 1451.23 404.13 827.19 1103.48 1651.67 923.89 2013.94 825.61 1895.46 1064.18 1790.70 1322.69 2077.28 1234.66
00000684 00000028 1438.59 418.80 873.67 1076.25 1648.42 913.05 2042.55 832.25 1885.34 1053.73 1783.19 1326.50 2080.02 1258.81
00000685 00000029 1439.76 411.33 860.23 1050.99 1653.29 905.82 2040.05 827.79 1887.92 1050.30 1782.50 1325.51 2069.38 1260.39
00000686 00000030 1440.42 409.21 861.93 1061.54 1651.96 920.16 2029.11 833.80 1891.08 1071.17 1791.47 1322.14 2057.08 1248.97
00000687 00000031 1441.87 398.24 866.24 1064.83 1647.99 910.39 2037.16 829.17 1885.38 1065.72 1785.94 1320.01 2062.37 1250.62
00000688 00000032 1454.54 390.03 857.02 1079.06 1655.36 898.65 2045.87 818.62 1887.65 1064.45 1787.92 1316.12 2068.14 1248.03
00000689 00000033 1464.34 378.53 855.06 1082.29 1657.01 883.60 2070.60 809.21 1898.02 1038.36 1790.90 1312.84 2102.54 1249.02
00000690 00000034 1465.90 394.97 850.03 1077.94 1659.68 889.09 2076.39 815.27 1902.12 1036.48 1792.75 1299.67 2114.04 1235.55
00000691 00000035 1471.07 388.26 864.55 1118.62 1659.62 897.86 2084.36 814.11 1906.88 1037.25 1803.76 1308.00 2137.51 1235.10
00000692 00000036 1465.27 385.50 871.16 1127.00 1671.68 904.93 2100.21 820.27 1931.58 1037.71 1819.29 1316.39 2151.35 1244.28
00000693 00000037 1463.04 394.86 880.20 1133.50 1676.75 904.39 2109.30 820.50 1940.02 1039.02 1823.38 1315.53 2164.03 1245.59
00000694 00000038 1477.25 391.15 862.20 1116.47 1679.50 906.98 2106.99 814.25 1942.91 1040.45 1839.70 1316.50 2172.95 1238.51
00000695 00000039 1481.51 385.83 855.49 1119.63 1679.09 902.17 2106.22 802.82 1946.35 1039.31 1844.62 1310.59 2182.67 1226.91
00000696 00000040 1477.03 384.20 859.15 1109.60 1679.68 901.61 2101.64 800.60 1944.82 1038.69 1847.66 1307.06 2180.83 1221.93
00000697 00000041 1476.89 388.83 852.04 1112.30 1692.79 919.94 2106.35 820.49 1955.13 1031.45 1847.24 1302.85 2171.97 1220.87
00000698 00000042 1470.07 394.86 867.02 1106.79 1688.66 923.90 2105.74 825.02 1950.41 1033.40 1844.30 1308.67 2173.80 1225.86
00000699 00000043 1476.37 389.98 861.83 1117.08 1695.53 926.05 2110.63 832.26 1958.84 1037.16 1845.55 1306.82 2174.10 1228.24
00000700 00000044 1481.80 399.66 856.62 1120.54 1696.04 935.49 2108.65 838.25 1954.21 1042.55 1842.11 1312.24 2171.77 1231.00
00000701 00000045 1482.36 413.05 862.69 1136.22 1690.26 940.13 2105.85 841.22 1949.06 1056.92 1829.86 1316.74 2176.35 1234.47
00000702 00000046 1477.70 405.55 868.85 1150.55 1683.02 940.88 2106.90 844.10 1939.03 1056.52 1814.57 1322.83 2168.38 1242.65
00000703 00000047 1497.74 379.08 851.93 1179.28 1677.14 932.09 2107.12 826.83 1927.36 1040.94 1806.49 1312.43 2180.43 1222.70
00000704 00000048 1505.95 371.89 838.17 1167.49 1681.45 923.05 2103.96 808.47 1933.54 1041.19 1818.96 1300.29 2188.85 1201.56
00000705 00000049 1523.94 375.92 821.77 1159.36 1694.04 926.41 2109.70 796.29 1950.41 1045.17 1845.90 1303.34 2211.93 1191.39
00000706 00000050 1519.90 382.13 855.08 1215.47 1694.61 936.39 2115.84 799.35 1954.68 1051.11 1836.27 1320.41 2231.43 1202.57
00000707 00000051 1489.24 351.05 900.41 1260.48 1693.16 926.58 2115.84 795.52 1970.92 1051.12 1833.48 1319.75 2235.11 1207.98
00000708 00000052 1524.87 378.67 873.25 1243.06 1710.33 936.43 2124.85 801.25 1975.71 1056.90 1851.70 1329.06 2243.57 1213.38
00000709 00000053 1527.52 377.28 888.10 1242.64 1718.89 942.52 2128.44 813.77 1979.25 1066.44 1858.37 1329.16 2239.73 1218.42
00000710 00000054 1546.65 383.14 866.48 1245.18 1726.74 945.99 2132.71 818.24 1980.43 1072.39 1861.36 1334.92 2241.82 1225.34
00000711 00000055 1534.79 371.30 882.54 1249.64 1728.84 943.57 2138.78 818.82 1992.58 1065.81 1872.53 1335.52 2249.36 1228.53
00000712 00000056 1546.29 369.63 873.67 1254.42 1736.16 944.40 2151.92 816.63 2001.56 1066.84 1874.03 1334.54 2266.21 1225.05
00000713 00000057 1551.11 376.07 868.17 1257.18 1740.66 945.05 2160.40 816.10 2009.16 1069.67 1873.52 1336.25 2275.97 1225.99
00000714 00000058 1529.69 369.60 890.45 1279.75 1731.01 941.82 2158.30 814.99 2013.88 1068.79 1865.77 1337.51 2281.58 1228.96
00000715 00000059 1532.74 370.69 887.53 1281.79 1732.58 948.50 2152.93 815.73 2012.47 1067.89 1871.44 1341.74 2279.87 1228.21
00000716 00000060 1509.02 359.64 922.84 1294.57 1727.62 938.68 2160.90 812.73 2024.44 1057.76 1876.72 1344.80 2285.23 1236.42
00000717 00000061 1511.82 357.42 917.69 1271.63 1728.12 922.47 2160.71 797.39 2026.76 1053.20 1881.12 1333.77 2280.08 1226.05
00000718 00000062 1508.26 353.06 920.84 1262.97 1729.13 913.60 2159.37 787.51 2025.81 1046.66 1884.36 1322.74 2278.74 1214.10
00000719 00000063 1499.84 349.73 940.87 1273.47 1731.67 911.50 2167.01 785.94 2035.49 1047.34 1883.74 1323.68 2285.73 1215.69
00000720 00000064 1508.73 353.03 935.09 1282.51 1736.87 919.44 2170.79 788.35 2040.85 1055.22 1885.86 1330.57 2292.82 1217.54
00000721 00000065 1493.31 359.32 943.41 1283.10 1727.68 915.00 2170.26 788.01 2041.06 1061.70 1873.60 1330.88 2293.01 1221.85
00000722 00000066 1510.17 362.46 933.36 1277.23 1736.34 920.27 2174.98 791.28 2040.81 1062.32 1881.67 1333.98 2292.75 1223.31
00000723 00000067 1509.65 362.86 938.66 1272.82 1739.36 922.75 2176.56 794.24 2041.99 1058.25 1888.70 1334.49 2294.37 1224.30
00000724 00000068 1522.91 322.15 925.01 1308.00 1739.75 914.56 2180.91 787.92 2032.79 1035.78 1889.80 1327.35 2308.35 1219.89
00000725 00000069 1528.22 315.28 922.68 1306.66 1740.71 908.87 2180.97 784.55 2030.78 1030.35 1890.82 1323.46 2305.24 1218.10
00000726 00000070 1504.51 349.89 949.55 1259.54 1740.18 909.61 2173.58 782.80 2040.16 1041.57 1894.65 1317.90 2289.87 1209.06
00000727 00000071 1516.69 334.58 933.26 1271.43 1739.71 914.63 2174.43 786.92 2033.74 1046.97 1887.49 1319.70 2284.67 1209.97
00000728 00000072 1528.96 323.04 924.94 1306.73 1743.81 910.80 2177.72 794.37 2023.25 1029.67 1893.01 1326.57 2295.71 1226.72
00000729 00000073 1529.29 315.41 925.16 1314.88 1748.85 908.15 2183.09 801.21 2023.86 1031.41 1887.57 1325.75 2289.90 1233.84
00000730 00000074 1531.47 320.00 927.04 1312.35 1749.72 903.59 2187.56 804.20 2020.76 1026.45 1874.93 1319.09 2283.66 1233.81
00000731 00000075 1489.03 333.61 968.01 1273.97 1742.62 896.27 2188.43 800.64 2036.97 1030.47 1878.49 1311.99 2267.74 1229.41
00000732 00000076 1485.99 324.23 977.48 1275.91 1741.85 879.71 2202.39 794.92 2036.73 1010.98 1863.62 1297.46 2268.48 1223.83
00000733 00000077 1490.88 310.62 951.01 1288.18 1741.37 860.51 2203.28 794.89 2028.39 992.09 1844.57 1293.97 2244.11 1237.61
00000734 00000078 1471.29 291.70 954.77 1298.99 1732.68 840.94 2194.08 789.11 2025.86 959.94 1844.76 1287.05 2230.38 1240.43
00000735 00000079 1465.81 299.74 949.81 1299.52 1721.78 844.47 2182.50 791.01 2012.79 962.83 1836.86 1293.48 2223.59 1245.41
00000736 00000080 1457.91 309.79 938.41 1299.30 1713.26 863.31 2174.35 798.45 2000.29 984.99 1835.06 1309.78 2223.50 1251.85
00000737 00000081 1437.56 317.34 953.78 1281.61 1701.64 875.34 2158.68 803.36 1998.01 1005.11 1845.43 1321.39 2217.20 1258.31
00000738 00000082 1413.91 313.03 970.51 1296.77 1688.31 884.74 2141.60 803.12 1986.69 1007.83 1840.07 1325.97 2206.56 1256.73
00000739 00000083 1410.01 316.23 974.67 1308.45 1674.63 894.75 2120.94 800.09 1969.08 1023.19 1831.31 1336.00 2204.22 1256.92
00000740 00000084 1410.69 326.22 963.57 1311.56 1673.89 902.57 2116.42 811.54 1959.79 1043.74 1830.49 1353.36 2188.53 1277.95
00000741 00000085 1412.27 331.94 949.44 1298.39 1674.68 913.15 2106.37 826.57 1950.12 1054.51 1830.35 1362.63 2169.67 1291.49
00000742 00000086 1413.21 330.25 946.29 1317.94 1670.71 920.34 2104.48 832.22 1949.81 1077.88 1826.10 1377.65 2169.69 1305.84
00000743 00000087 1419.92 346.67 936.32 1309.24 1669.20 930.29 2103.76 843.28 1947.47 1096.37 1831.63 1393.78 2162.09 1322.83
00000744 00000088 1395.21 345.78 952.66 1313.73 1660.77 945.62 2105.58 868.96 1937.89 1103.47 1806.35 1412.40 2133.53 1349.59
00000745 00000089 1420.45 361.85 916.99 1286.93 1660.47 953.79 2082.72 878.54 1915.31 1108.31 1796.06 1403.81 2096.97 1341.80
00000746 00000090 1405.38 354.24 916.88 1301.12 1648.60 947.66 2070.42 865.05 1907.57 1098.51 1794.88 1403.90 2098.29 1336.79
00000747 00000091 1408.41 348.23 924.77 1305.69 1634.97 945.71 2065.45 857.62 1896.44 1095.31 1780.58 1401.32 2103.36 1328.54
00000748 00000092 1401.77 347.79 935.56 1327.03 1627.30 941.40 2059.93 857.51 1884.87 1088.19 1771.01 1402.78 2099.59 1332.60
00000749 00000093 1414.62 357.62 925.44 1320.70 1625.89 944.75 2057.34 868.80 1873.41 1098.50 1758.40 1412.58 2071.51 1349.63
00000750 00000094 1419.52 356.11 910.12 1327.68 1630.16 951.18 2062.52 879.33 1874.86 1106.07 1750.01 1419.23 2059.92 1359.86
00000751 00000095 1413.27 367.48 922.53 1331.43 1633.74 955.12 2063.70 891.85 1875.66 1113.23 1746.36 1428.17 2046.42 1375.48
00000752 00000096 1417.95 390.21 930.04 1315.57 1626.87 969.72 2066.52 904.28 1867.16 1132.81 1743.59 1445.61 2048.30 1390.32
00000753 00000097 1424.65 389.99 926.23 1323.80 1630.50 976.51 2065.49 909.89 1872.14 1147.00 1749.90 1460.47 2047.04 1404.40
00000754 00000098 1430.26 399.06 942.05 1338.45 1641.81 1006.77 2074.51 925.67 1881.04 1149.67 1764.99 1476.68 2071.20 1409.02
00000755 00000099 1427.75 407.50 934.84 1291.68 1646.71 1016.18 2077.04 930.95 1885.04 1158.07 1768.57 1468.48 2067.72 1398.70
00000756 00000100 1425.61 408.90 947.95 1250.25 1654.00 1016.86 2084.14 931.08 1891.57 1169.28 1771.10 1456.99 2063.98 1387.38
00000757 00000101 1443.07 409.07 937.84 1246.04 1658.93 1021.82 2083.86 928.06 1895.69 1174.79 1786.11 1456.46 2077.32 1380.75
00000758 00000102 1447.19 391.44 959.61 1302.61 1657.85 1016.53 2078.93 920.76 1891.31 1176.72 1796.29 1462.10 2100.99 1383.67
00000759 00000103 1470.71 422.42 940.04 1221.06 1672.24 1021.93 2091.77 926.32 1901.21 1182.98 1800.96 1457.37 2089.05 1380.35
00000760 00000104 1487.47 378.08 963.41 1317.15 1678.71 1018.17 2117.48 918.76 1900.36 1189.79 1790.21 1471.42 2127.37 1391.03
00000761 00000105 1466.88 346.17 981.59 1379.23 1679.05 1017.65 2128.21 916.09 1918.69 1182.84 1795.51 1472.57 2146.31 1388.42
00000762 00000106 1489.21 383.49 953.37 1288.24 1695.43 1025.92 2119.73 924.69 1924.07 1182.25 1818.25 1447.47 2143.13 1365.21
00000763 00000107 1499.54 422.84 924.23 1239.39 1713.13 1033.22 2134.72 928.75 1955.12 1182.42 1833.74 1448.58 2161.51 1363.96
CROP_BBOX: 737 0 2918 2108
