Video ID: 	3ucNhgg1uEE
H: 	1080
W: 	1920
FPS: 	25.0

FRAME INDEX X0 Y0 W H [Landmarks (5 Points)]

00020114 00000000 903.16 132.67 464.44 607.51 991.94 352.42 1192.56 392.84 1030.92 459.24 959.88 562.12 1128.97 596.35
00020115 00000001 905.02 126.31 461.71 597.31 989.63 345.29 1187.44 376.45 1025.98 436.89 962.28 550.27 1136.70 576.79
00020116 00000002 903.00 111.22 466.93 599.75 984.17 343.71 1191.61 368.21 1022.75 418.10 959.29 547.05 1143.81 567.56
00020117 00000003 905.07 118.42 452.66 582.92 983.89 337.48 1189.03 357.64 1022.73 412.74 957.89 540.62 1137.93 555.79
00020118 00000004 902.02 106.08 454.52 588.13 978.47 343.92 1187.39 349.89 1018.62 398.17 952.03 544.55 1136.76 549.95
00020119 00000005 903.61 104.46 447.27 586.03 977.42 346.00 1179.85 344.27 1013.18 397.28 951.90 545.12 1130.56 544.12
00020120 00000006 901.20 103.18 449.14 588.89 973.83 348.46 1176.41 341.93 1011.48 397.93 951.22 546.74 1129.86 541.62
00020121 00000007 905.96 112.12 435.50 583.33 969.72 352.48 1165.01 345.76 1004.62 402.10 959.27 547.78 1125.16 543.97
00020122 00000008 903.99 113.70 434.03 589.07 965.30 359.15 1161.10 347.59 1001.26 407.89 960.35 554.31 1124.94 546.31
00020123 00000009 904.61 118.49 440.93 596.25 960.84 363.44 1156.01 344.31 998.68 422.94 955.43 561.10 1128.58 545.41
00020124 00000010 901.34 119.11 444.81 601.10 958.50 367.80 1151.71 351.17 994.75 431.56 955.44 565.49 1128.07 551.34
00020125 00000011 893.46 125.91 447.56 612.35 950.80 379.05 1148.26 363.24 995.87 452.52 954.52 580.26 1132.82 566.42
00020126 DELETE   888.47 127.56 452.34 629.09 945.97 390.50 1143.94 373.05 994.27 471.83 961.27 601.89 1138.02 588.80
00020127 DELETE   875.31 131.80 462.66 648.48 938.39 404.95 1132.24 389.16 986.92 497.31 959.83 619.97 1132.13 607.82
00020128 00000014 868.78 151.41 463.95 647.20 934.34 420.53 1130.12 413.95 986.63 524.55 953.50 631.05 1128.41 626.19
00020129 00000015 864.83 160.95 464.95 659.35 929.59 438.66 1126.78 428.99 984.69 547.49 954.50 654.17 1130.63 646.59
00020130 00000016 857.84 173.12 465.26 659.17 925.64 454.06 1124.82 443.01 986.16 567.84 954.41 666.32 1132.98 656.70
00020131 00000017 858.59 181.92 467.65 655.53 924.15 462.38 1124.34 448.45 988.29 578.19 959.69 678.09 1135.13 665.80
00020132 00000018 858.58 183.86 470.04 655.19 924.60 466.58 1128.56 449.64 993.40 584.44 963.59 683.35 1141.54 668.52
00020133 00000019 867.56 185.06 467.86 658.97 931.91 468.66 1135.43 450.90 1001.22 586.26 969.31 684.84 1150.10 669.28
00020134 00000020 883.81 181.55 459.94 669.19 949.19 459.30 1145.12 448.14 1010.14 580.25 982.73 680.59 1161.25 670.58
00020135 00000021 900.19 182.06 456.25 675.07 966.30 456.54 1166.52 445.51 1030.70 577.79 992.31 685.89 1176.68 674.07
00020136 DELETE   920.27 180.19 447.42 665.16 986.54 453.45 1185.48 446.44 1051.44 573.00 1006.48 678.65 1189.90 669.79
00020137 00000023 932.36 163.47 453.94 670.85 998.07 442.88 1200.63 439.87 1056.99 563.00 1017.39 664.20 1195.03 662.15
00020138 00000024 936.05 153.15 463.22 671.40 1000.68 432.51 1203.60 426.70 1058.33 548.91 1021.59 655.13 1201.01 651.07
00020139 00000025 943.10 147.88 466.21 661.58 1005.52 428.52 1198.37 417.47 1058.10 536.55 1030.33 643.81 1205.24 634.95
00020140 00000026 947.09 140.66 463.22 660.45 1008.25 426.72 1203.22 411.36 1060.78 525.81 1031.35 637.05 1208.02 624.57
00020141 00000027 947.48 133.55 466.73 658.85 1008.69 417.28 1199.92 400.12 1060.46 520.13 1034.24 631.29 1206.35 617.73
00020142 00000028 949.12 127.91 470.26 656.35 1009.00 409.16 1200.97 388.53 1062.16 510.58 1039.27 627.19 1207.86 610.74
00020143 00000029 949.71 135.17 467.47 650.05 1004.57 405.44 1206.72 380.48 1060.49 505.59 1035.82 627.05 1211.55 606.23
00020144 00000030 946.08 129.43 470.49 653.34 1003.19 403.99 1203.23 378.96 1057.51 502.24 1034.42 624.24 1206.89 603.40
00020145 00000031 943.06 123.02 475.38 657.14 1002.05 407.22 1192.35 379.57 1056.81 503.95 1038.97 625.77 1201.30 603.60
00020146 00000032 943.20 123.75 476.72 657.05 1001.87 409.86 1192.66 380.43 1057.36 505.30 1039.40 627.64 1200.53 604.22
00020147 00000033 944.07 124.70 476.64 656.86 1002.46 412.19 1194.08 381.52 1058.44 506.66 1040.67 628.87 1203.08 604.42
00020148 00000034 946.41 125.35 476.48 656.66 1004.34 413.47 1194.90 381.31 1058.25 506.19 1043.74 630.67 1204.08 604.86
00020149 00000035 948.51 126.48 474.19 655.51 1005.67 414.07 1195.60 381.36 1059.00 506.00 1045.47 631.72 1204.58 605.30
00020150 00000036 949.72 125.64 472.55 656.20 1006.79 413.98 1196.25 381.30 1059.85 505.10 1045.46 630.79 1205.58 604.34
00020151 00000037 949.99 126.21 472.76 655.25 1006.57 413.38 1196.35 381.88 1059.37 505.53 1044.55 630.17 1204.25 604.76
00020152 00000038 950.06 126.80 472.82 655.14 1006.29 415.34 1194.84 384.54 1057.04 506.48 1043.52 630.80 1203.07 605.98
00020153 00000039 948.72 127.29 476.83 657.89 1003.94 419.50 1191.31 386.43 1054.92 510.13 1044.14 633.94 1204.23 607.25
00020154 00000040 939.04 129.57 487.13 655.18 997.53 427.78 1182.57 385.97 1052.36 513.57 1045.84 637.69 1205.76 603.79
00020155 00000041 931.67 134.54 492.07 651.35 985.56 432.81 1168.56 387.31 1036.67 519.17 1040.24 642.32 1197.77 604.81
00020156 00000042 923.17 138.19 486.27 649.79 976.57 435.44 1161.14 388.53 1027.63 521.52 1033.24 648.19 1190.21 609.52
00020157 00000043 922.75 139.94 482.79 644.51 971.91 438.02 1157.94 387.79 1021.92 518.80 1028.23 651.62 1183.74 610.47
00020158 00000044 924.53 138.36 482.52 648.27 973.03 435.49 1157.29 386.07 1020.13 515.81 1027.46 650.09 1181.13 609.72
00020159 00000045 924.24 136.34 486.19 652.78 975.64 433.26 1161.24 383.27 1022.60 511.34 1028.90 649.65 1183.93 608.82
00020160 00000046 921.02 139.36 483.69 661.46 974.58 433.09 1155.87 382.44 1016.30 508.84 1028.77 655.08 1175.51 613.71
00020161 00000047 926.79 138.98 474.84 664.61 972.08 442.04 1143.58 382.26 1003.31 508.52 1021.77 655.17 1165.67 603.93
00020162 00000048 917.87 140.37 477.42 657.45 960.04 446.21 1130.98 385.47 993.04 511.33 1011.87 652.49 1156.55 601.32
00020163 00000049 913.87 142.25 479.05 655.91 955.83 454.86 1120.91 387.97 983.54 514.95 1010.78 657.55 1153.31 601.17
00020164 00000050 913.07 144.86 476.67 648.32 953.83 454.72 1113.76 387.26 979.00 512.90 1010.17 653.53 1149.22 596.82
00020165 00000051 912.40 143.37 472.77 648.98 953.70 454.08 1113.05 385.21 979.47 508.26 1008.37 650.54 1150.37 592.73
00020166 00000052 912.69 144.25 473.04 648.84 953.15 451.42 1113.58 382.46 978.02 507.28 1007.23 649.29 1154.86 591.13
00020167 00000053 914.30 142.10 470.42 653.58 954.10 449.06 1114.20 383.95 976.83 507.68 1005.88 648.97 1152.76 593.99
00020168 00000054 915.61 142.66 469.59 656.31 954.79 446.01 1116.17 385.93 976.59 509.55 1003.01 648.08 1150.54 597.44
00020169 00000055 914.53 142.24 471.00 658.89 953.30 444.38 1116.02 389.43 974.41 511.34 997.51 650.05 1139.71 604.43
00020170 00000056 912.05 139.90 469.94 664.23 950.08 445.44 1116.72 392.24 974.50 517.63 993.41 656.83 1134.36 613.11
00020171 00000057 910.37 138.72 470.82 667.79 949.55 446.58 1118.79 394.58 976.19 520.16 992.75 660.30 1131.49 617.80
00020172 00000058 909.92 138.90 473.02 668.39 949.00 447.70 1119.94 395.06 977.29 521.11 992.94 663.32 1131.07 620.42
00020173 00000059 912.56 139.12 470.50 665.53 950.92 447.67 1121.94 395.32 980.42 519.42 994.54 661.66 1132.34 619.03
00020174 00000060 915.97 140.87 469.39 663.97 953.18 443.83 1126.82 393.10 985.23 517.37 995.93 659.19 1135.48 617.79
00020175 00000061 918.85 142.15 470.02 657.64 955.05 442.70 1130.72 391.19 989.28 515.15 998.97 657.23 1138.02 615.20
00020176 00000062 920.09 139.51 468.64 653.18 954.79 443.27 1130.12 388.25 988.22 509.97 998.48 654.62 1136.56 609.73
00020177 00000063 921.28 139.20 466.42 647.46 954.80 448.01 1126.33 385.89 983.35 501.65 995.19 652.77 1131.76 602.09
00020178 00000064 922.92 137.90 461.30 640.95 955.92 442.07 1126.93 381.26 984.19 496.12 994.30 647.95 1128.97 598.57
00020179 00000065 923.80 137.28 461.73 638.62 956.84 439.04 1128.24 380.64 986.21 493.34 993.34 646.20 1125.27 599.10
00020180 00000066 924.67 138.09 462.08 640.42 958.74 438.32 1131.88 382.09 988.69 493.22 994.62 647.61 1126.29 602.26
00020181 00000067 928.92 140.74 464.90 648.96 961.54 435.47 1137.05 384.45 990.18 498.23 996.56 652.28 1129.30 610.78
00020182 00000068 934.87 140.82 458.27 652.21 967.98 433.91 1144.19 389.27 998.75 504.76 1001.51 651.74 1135.40 615.25
00020183 00000069 937.24 146.55 460.20 654.18 971.19 431.35 1150.01 394.18 1004.05 512.65 1003.31 651.72 1141.86 621.02
00020184 00000070 939.00 151.75 465.99 660.33 974.25 436.17 1155.86 400.27 1010.48 523.29 1008.48 661.13 1148.91 631.19
00020185 00000071 935.57 159.32 474.81 657.67 979.97 447.76 1163.92 410.81 1014.02 531.28 1020.03 675.12 1159.65 645.98
00020186 00000072 936.67 163.11 476.72 658.63 983.37 451.00 1171.70 416.80 1022.76 539.25 1024.26 680.64 1167.05 653.77
00020187 00000073 937.00 168.77 479.03 662.18 989.10 451.90 1177.09 419.53 1032.75 547.08 1026.54 677.00 1174.52 649.33
00020188 00000074 938.11 170.32 483.44 662.24 987.27 458.76 1178.54 423.52 1040.11 559.94 1038.59 692.51 1186.05 664.01
00020189 00000075 935.70 177.33 484.93 663.62 989.50 465.48 1180.67 431.03 1044.64 572.19 1045.32 700.75 1190.64 672.33
00020190 00000076 938.04 183.39 483.75 665.70 993.94 466.04 1189.10 439.32 1046.13 575.43 1039.81 698.53 1190.72 676.44
00020191 00000077 937.13 180.57 477.99 670.32 994.05 463.83 1187.74 437.59 1047.06 571.98 1038.24 698.48 1186.09 676.99
00020192 00000078 932.01 174.83 483.28 668.42 990.34 461.81 1184.16 430.87 1046.61 563.91 1039.60 700.71 1181.23 675.81
00020193 00000079 932.86 166.33 481.26 669.87 992.03 451.27 1183.85 424.86 1043.74 552.44 1034.76 686.26 1180.39 665.35
00020194 00000080 929.58 157.12 484.65 669.60 992.58 442.11 1186.16 415.78 1044.09 536.87 1030.47 674.33 1178.43 653.65
00020195 00000081 929.36 152.50 484.59 665.86 994.37 436.99 1188.73 409.49 1047.63 526.20 1029.28 663.97 1179.85 642.43
00020196 00000082 929.64 151.43 483.00 662.91 994.80 433.12 1189.91 407.20 1048.28 521.87 1026.45 659.42 1177.95 639.27
00020197 00000083 928.67 152.16 482.27 660.97 993.46 432.87 1189.41 408.31 1047.30 523.28 1024.30 659.29 1176.78 640.23
00020198 00000084 927.16 152.61 480.14 660.00 990.31 432.87 1187.97 410.33 1044.67 526.76 1020.31 659.84 1175.49 642.38
00020199 00000085 926.27 153.70 477.30 659.99 988.84 431.74 1187.87 413.33 1043.24 530.68 1017.03 660.94 1174.18 646.78
00020200 00000086 922.62 156.48 476.19 660.27 985.32 435.21 1188.14 419.43 1043.33 540.20 1015.30 668.22 1173.45 656.08
00020201 00000087 919.70 160.66 477.21 665.63 982.80 440.27 1190.63 424.58 1044.48 548.74 1014.34 677.07 1177.16 665.09
00020202 00000088 921.33 163.66 470.20 672.58 979.92 447.36 1185.30 428.85 1043.57 557.16 1009.70 677.46 1180.02 661.52
00020203 00000089 919.05 168.30 469.78 672.37 979.28 452.47 1184.00 434.73 1042.85 564.21 1010.52 680.63 1181.94 665.28
00020204 00000090 915.19 170.77 471.97 673.07 975.03 458.10 1182.21 438.43 1041.07 569.79 1008.41 686.08 1182.74 669.15
00020205 00000091 913.06 171.07 468.97 672.00 972.21 456.32 1175.54 439.38 1035.65 571.16 1005.89 684.38 1177.27 669.78
00020206 00000092 908.75 170.28 467.70 672.79 968.59 455.66 1171.31 441.03 1031.15 571.47 1001.44 684.65 1170.45 672.24
00020207 00000093 903.97 170.66 465.97 672.78 963.67 455.76 1165.67 442.62 1025.29 573.05 996.97 685.75 1163.69 674.78
00020208 00000094 901.81 170.50 466.32 673.90 961.03 455.06 1163.50 442.86 1022.77 573.09 993.95 685.22 1161.27 675.09
00020209 00000095 898.32 171.43 461.17 671.10 957.55 456.33 1161.41 446.32 1021.02 574.70 988.93 684.47 1156.54 676.52
00020210 00000096 895.12 172.60 453.40 668.47 955.51 458.94 1163.33 451.70 1022.34 577.59 978.00 685.22 1157.24 678.59
00020211 00000097 891.14 173.34 455.39 667.74 957.07 465.50 1166.33 458.26 1026.09 576.29 976.68 684.99 1158.97 678.51
00020212 00000098 885.64 167.52 454.99 672.70 953.74 460.17 1164.68 454.51 1026.54 574.89 972.92 681.21 1158.01 675.85
00020213 00000099 879.87 168.83 464.15 667.20 947.58 461.71 1161.03 450.47 1022.81 573.92 977.14 681.13 1159.19 671.86
00020214 00000100 878.06 167.18 464.81 668.26 947.01 460.26 1159.94 446.36 1023.34 571.04 978.20 679.74 1161.65 667.92
00020215 00000101 874.61 165.61 467.08 667.41 945.13 457.49 1158.39 443.18 1023.22 570.45 977.17 676.53 1162.42 664.30
00020216 00000102 876.02 164.17 466.46 665.59 945.36 456.08 1157.16 440.83 1022.62 568.62 977.10 673.46 1162.69 660.34
00020217 00000103 879.26 162.66 465.73 665.18 947.29 454.93 1156.93 438.86 1022.63 568.16 979.72 672.27 1162.73 658.61
00020218 00000104 884.12 160.36 463.97 665.06 951.26 453.67 1157.09 437.17 1023.52 566.26 983.78 670.40 1163.62 656.45
00020219 00000105 889.65 161.52 464.79 665.43 956.84 451.06 1160.96 435.69 1028.63 567.29 990.29 669.23 1169.37 656.08
00020220 00000106 898.24 165.71 461.43 662.36 963.46 454.10 1166.85 436.64 1034.55 570.04 998.02 673.18 1176.47 658.12
00020221 00000107 902.03 172.00 464.54 661.10 968.59 459.28 1175.00 437.75 1044.36 571.89 1004.45 678.97 1185.98 660.22
00020222 00000108 904.24 179.04 467.75 661.05 973.01 463.86 1182.19 446.21 1052.78 584.22 1010.92 684.55 1191.25 669.03
00020223 00000109 906.83 187.61 466.40 661.08 975.61 474.64 1187.39 458.31 1058.23 598.09 1015.65 694.40 1196.82 680.27
00020224 00000110 910.75 201.45 463.91 665.06 986.28 488.43 1192.41 471.42 1068.12 612.19 1024.08 710.11 1203.46 695.29
00020225 00000111 911.69 214.35 466.03 669.51 990.33 501.88 1194.82 486.03 1069.11 633.38 1028.69 724.66 1206.43 710.64
00020226 00000112 908.93 231.01 475.17 659.84 982.22 511.01 1197.75 495.83 1067.37 648.00 1024.12 732.61 1212.92 718.30
00020227 00000113 906.07 246.94 476.32 657.63 976.45 531.48 1192.25 513.73 1064.25 665.74 1021.70 752.09 1210.94 735.95
00020228 00000114 905.17 268.51 473.97 664.17 978.61 555.34 1192.56 533.11 1070.39 689.83 1027.00 777.22 1217.42 757.50
00020229 00000115 909.85 295.11 467.50 648.49 980.04 577.05 1192.07 556.53 1067.78 721.83 1027.65 793.58 1221.32 774.66
00020230 00000116 902.55 308.76 471.73 637.58 974.68 592.74 1187.91 570.59 1070.78 738.07 1029.01 809.08 1218.44 789.70
00020231 00000117 906.95 313.54 469.35 632.89 976.50 596.99 1189.41 571.82 1073.71 739.39 1032.10 811.58 1221.45 789.31
00020232 00000118 905.37 311.20 471.32 633.71 979.13 596.53 1191.38 567.69 1078.86 737.61 1039.59 809.33 1228.75 783.89
00020233 00000119 903.11 310.02 475.54 632.60 981.07 597.63 1193.12 563.86 1084.13 733.43 1046.21 807.35 1235.41 777.67
00020234 00000120 897.92 312.56 478.44 627.52 981.60 600.18 1190.35 559.83 1089.63 731.88 1054.91 808.80 1239.05 773.58
00020235 00000121 885.61 316.49 490.19 629.23 976.34 602.08 1182.76 553.17 1089.45 735.59 1057.35 813.46 1241.58 771.67
00020236 00000122 870.66 317.27 495.53 623.07 969.72 602.64 1171.31 549.82 1086.00 736.20 1057.64 815.24 1233.55 770.77
00020237 00000123 860.98 319.30 494.47 620.31 961.87 605.87 1163.38 550.31 1080.33 734.52 1054.29 818.63 1226.43 772.22
00020238 00000124 849.62 319.03 497.45 619.69 953.97 610.47 1154.47 547.19 1076.75 730.27 1052.38 819.87 1224.22 767.50
00020239 00000125 832.28 317.93 505.85 617.27 942.70 617.52 1142.66 543.38 1071.25 724.56 1047.88 819.25 1218.44 757.65
00020240 00000126 804.00 308.74 521.42 618.71 923.27 624.46 1127.81 538.22 1061.65 722.04 1036.18 818.83 1215.05 745.65
00020241 00000127 788.91 316.40 520.01 616.17 909.66 624.25 1106.50 531.66 1045.97 724.29 1027.22 815.06 1199.29 738.76
00020242 00000128 767.55 312.53 526.31 612.13 890.36 625.90 1090.99 529.58 1030.72 724.86 1013.12 815.51 1187.17 735.77
00020243 00000129 752.04 308.26 532.43 610.95 873.53 624.61 1078.14 526.73 1015.69 715.53 1000.91 820.27 1170.57 738.79
00020244 00000130 746.01 293.06 527.37 625.01 864.77 613.42 1071.47 520.23 1006.98 701.73 985.89 811.81 1162.75 733.14
00020245 00000131 737.40 279.91 532.16 628.92 860.11 596.76 1068.75 507.82 999.16 681.58 977.60 801.34 1152.31 725.18
00020246 00000132 733.31 268.81 536.41 648.42 854.07 581.75 1065.96 493.33 993.53 666.83 971.96 789.57 1146.24 715.07
00020247 00000133 731.15 243.93 533.97 653.19 846.92 560.58 1060.44 476.07 978.70 644.90 957.50 772.38 1135.86 701.12
00020248 DELETE   735.64 223.27 512.95 627.50 839.83 517.39 1048.54 439.72 962.49 603.50 949.29 734.12 1111.70 669.98
00020249 DELETE   753.17 178.90 507.89 656.00 840.88 479.28 1048.37 410.00 941.24 547.06 917.49 690.31 1089.72 632.17
00020250 DELETE   768.56 150.46 497.12 660.46 851.48 440.99 1063.58 383.13 940.84 506.89 908.59 660.42 1083.06 611.41
00020251 00000137 790.68 137.35 480.31 658.21 866.64 422.52 1071.14 370.33 945.55 479.58 920.00 646.84 1079.79 603.80
00020252 00000138 804.30 131.67 470.95 662.49 876.27 409.79 1081.02 367.90 948.47 474.89 918.29 639.02 1076.14 604.61
00020253 00000139 814.69 122.62 465.78 671.06 883.46 403.50 1094.76 368.25 954.49 477.49 918.68 636.27 1085.95 607.58
00020254 00000140 817.96 132.37 469.63 663.80 881.79 404.84 1104.32 368.80 961.28 489.38 916.46 643.70 1100.52 613.67
00020255 00000141 817.90 145.90 475.46 650.19 878.60 420.11 1104.66 379.30 963.01 498.99 919.56 652.01 1108.00 617.70
00020256 00000142 816.42 155.01 478.14 645.94 882.75 438.74 1101.36 393.51 967.65 509.98 928.24 656.73 1117.24 618.52
00020257 00000143 824.57 145.74 487.05 656.07 891.56 441.00 1104.65 393.28 972.30 509.12 934.33 652.75 1118.64 612.48
00020258 00000144 830.94 138.50 489.02 657.81 901.44 426.93 1115.11 385.04 978.37 502.21 939.03 641.94 1123.41 606.03
00020259 00000145 841.10 131.24 477.80 671.00 915.74 417.89 1128.46 384.19 990.08 490.79 944.46 637.58 1127.53 608.92
00020260 00000146 851.87 123.02 477.86 673.25 928.76 404.86 1136.15 378.21 997.74 487.85 955.83 631.13 1130.09 609.35
00020261 00000147 867.58 120.22 463.64 678.23 944.29 393.37 1149.82 381.16 1004.80 486.55 959.27 621.31 1133.36 612.05
00020262 00000148 884.62 123.49 458.71 677.45 964.86 378.25 1175.58 383.67 1025.88 478.87 961.95 611.67 1142.75 617.20
00020263 00000149 895.30 122.83 457.39 669.79 985.47 375.25 1194.59 397.99 1045.93 478.13 970.21 602.96 1149.10 623.13
00020264 00000150 903.57 130.04 454.08 649.62 1003.74 367.22 1215.99 403.22 1064.34 483.36 975.03 594.87 1156.69 624.44
00020265 00000151 902.64 131.18 459.66 643.15 1013.15 363.03 1226.58 409.04 1074.54 483.49 980.70 588.77 1164.62 626.13
00020266 00000152 907.08 131.83 459.07 641.27 1021.87 361.19 1231.63 414.00 1077.75 483.16 983.08 582.49 1166.23 625.25
00020267 00000153 907.51 134.47 467.12 636.58 1031.34 359.08 1237.44 421.83 1083.03 483.61 986.06 576.73 1167.94 627.70
00020268 00000154 920.05 129.96 470.18 638.19 1042.45 357.73 1249.99 426.94 1089.27 484.40 991.62 573.88 1172.72 630.15
CROP_BBOX: 561 0 1750 1080
