Video ID: 	9liYalnsPa4
H: 	1080
W: 	1920
FPS: 	25.0

FRAME INDEX X0 Y0 W H [Landmarks (5 Points)]

00006017 00000000 1002.29 105.14 437.77 587.89 1056.87 332.82 1245.02 302.11 1114.82 426.38 1095.07 537.32 1271.83 509.05
00006018 DELETE   997.37 110.08 446.86 586.92 1050.77 338.52 1239.55 304.22 1105.45 429.76 1092.19 542.65 1269.73 511.13
00006019 DELETE   996.29 117.97 435.26 575.50 1040.37 345.56 1216.90 312.29 1076.73 439.22 1083.78 548.03 1249.00 516.34
00006020 00000003 989.48 101.22 430.12 604.34 1028.46 338.58 1197.92 300.92 1056.09 437.60 1073.24 558.03 1231.22 523.59
00006021 DELETE   996.92 83.33 425.41 614.68 1032.33 338.24 1206.40 302.63 1074.33 428.66 1077.71 551.05 1223.13 521.83
00006022 DELETE   1000.05 93.54 426.34 606.30 1047.60 321.51 1227.57 296.01 1086.12 421.57 1078.98 546.74 1234.52 524.13
00006023 DELETE   1011.11 71.30 438.70 631.74 1062.44 322.47 1254.90 307.96 1112.22 428.18 1088.64 546.56 1240.15 533.73
00006024 00000007 1014.89 84.06 438.16 622.07 1066.66 322.61 1260.74 309.46 1119.44 433.22 1093.84 549.27 1246.97 537.23
00006025 00000008 1011.81 92.28 439.14 614.14 1064.02 324.06 1258.21 312.54 1116.50 433.80 1090.41 546.99 1251.03 535.69
00006026 00000009 1005.52 106.57 429.52 599.99 1055.50 336.48 1242.86 321.53 1097.58 434.76 1083.71 547.01 1250.30 532.97
00006027 00000010 1001.45 118.12 431.97 592.53 1052.30 339.18 1239.83 324.82 1095.88 439.70 1082.00 549.59 1250.68 535.44
00006028 00000011 999.16 125.29 433.27 590.58 1051.00 343.07 1238.21 329.30 1095.21 444.81 1080.00 551.64 1251.15 537.63
00006029 00000012 997.43 132.79 431.90 588.05 1051.17 346.29 1237.15 333.17 1097.98 450.32 1079.93 555.28 1250.78 541.83
00006030 00000013 999.36 146.00 429.19 577.14 1053.52 348.48 1239.55 339.20 1101.78 455.18 1078.94 556.05 1249.51 545.86
00006031 00000014 1000.16 139.29 427.55 583.21 1055.33 351.65 1241.09 343.66 1105.26 457.79 1078.62 559.11 1249.25 550.32
00006032 00000015 1002.51 133.17 423.74 585.24 1057.23 350.64 1245.39 346.64 1109.86 460.61 1076.50 560.85 1246.23 556.56
00006033 00000016 1003.78 129.17 424.05 587.26 1060.36 347.82 1251.78 346.57 1117.40 460.87 1076.83 560.16 1245.62 558.35
00006034 00000017 1007.49 134.21 425.70 584.12 1068.46 344.46 1259.98 348.60 1125.27 461.93 1079.91 556.11 1246.79 558.63
00006035 00000018 1010.08 119.76 425.35 598.91 1073.45 342.73 1268.98 350.71 1132.48 464.22 1082.31 555.63 1250.66 561.15
00006036 00000019 1013.30 109.45 425.66 611.25 1076.64 341.58 1275.98 354.55 1135.20 469.15 1082.74 559.98 1250.92 569.90
00006037 00000020 1016.67 116.37 423.23 607.04 1082.17 342.41 1282.97 359.15 1138.46 470.99 1083.54 563.02 1253.59 576.30
00006038 00000021 1019.02 120.31 429.70 601.59 1085.20 337.96 1289.09 361.27 1144.78 475.01 1082.18 565.19 1251.09 584.61
00006039 00000022 1023.92 115.72 427.30 610.17 1089.28 341.74 1298.11 363.22 1150.38 484.35 1093.94 569.40 1261.47 587.19
00006040 00000023 1025.35 123.24 424.51 605.12 1090.88 346.31 1302.89 368.84 1153.00 492.24 1096.67 573.93 1267.85 592.50
00006041 00000024 1030.28 128.67 421.37 603.98 1095.63 349.69 1307.07 373.22 1157.05 497.45 1100.15 578.25 1269.51 597.75
00006042 00000025 1033.21 134.60 422.79 606.45 1105.57 351.58 1310.40 376.16 1162.47 501.42 1106.95 577.56 1276.12 598.14
00006043 00000026 1034.26 135.14 429.50 616.66 1108.88 359.59 1312.26 388.22 1170.97 509.41 1106.31 578.53 1282.67 601.70
00006044 00000027 1039.94 136.16 430.60 629.54 1119.05 357.99 1317.88 392.67 1177.07 509.49 1108.50 579.85 1281.76 608.22
00006045 00000028 1046.95 141.45 425.28 635.39 1125.86 359.02 1320.64 392.85 1180.44 508.60 1115.34 589.03 1278.86 616.86
00006046 00000029 1050.56 142.20 424.29 636.41 1126.26 366.59 1322.10 400.47 1178.62 513.31 1117.02 600.33 1273.63 628.40
00006047 00000030 1049.82 150.00 423.97 622.50 1125.10 374.25 1320.40 407.35 1180.00 521.65 1118.50 599.71 1273.49 626.78
00006048 00000031 1046.93 148.69 424.98 618.45 1120.10 375.22 1320.67 408.91 1179.77 528.67 1114.75 602.96 1272.05 632.49
00006049 00000032 1049.62 155.09 430.45 608.18 1126.72 377.34 1328.08 407.09 1183.70 528.05 1120.18 605.95 1282.95 629.90
00006050 00000033 1055.76 153.16 435.20 612.61 1135.93 376.17 1335.41 405.42 1190.77 527.66 1127.56 605.56 1292.17 629.09
00006051 00000034 1062.95 158.73 435.38 605.97 1148.01 371.96 1343.74 406.71 1199.01 524.47 1128.89 594.26 1304.02 622.58
00006052 00000035 1067.64 156.16 436.96 604.52 1154.62 369.36 1349.69 405.35 1205.11 520.26 1129.96 585.06 1312.31 614.19
00006053 00000036 1072.02 151.57 436.25 606.37 1159.06 368.88 1355.87 406.95 1209.34 520.36 1133.09 581.79 1318.60 612.34
00006054 00000037 1073.99 142.89 439.32 614.75 1165.92 365.05 1365.29 410.40 1215.61 520.63 1136.84 574.59 1328.99 611.03
00006055 00000038 1075.77 147.08 441.92 614.02 1173.79 362.63 1375.79 412.53 1226.01 524.81 1143.01 571.27 1338.94 611.40
00006056 00000039 1081.92 151.25 440.05 609.68 1182.09 363.34 1382.20 415.07 1233.14 524.82 1150.53 569.15 1344.97 610.85
00006057 00000040 1088.85 146.61 440.04 622.17 1185.62 364.64 1386.74 424.59 1235.38 528.69 1158.48 566.80 1344.84 616.30
00006058 00000041 1090.23 144.73 438.23 626.59 1188.93 363.80 1388.87 427.43 1236.85 528.28 1157.94 566.32 1344.29 618.91
00006059 00000042 1087.01 145.32 440.94 630.77 1188.58 363.53 1387.26 428.34 1234.67 526.24 1154.45 566.69 1339.60 620.28
00006060 00000043 1085.11 147.27 437.22 626.41 1189.65 359.82 1387.25 419.11 1235.78 522.07 1150.10 568.38 1345.73 616.30
00006061 00000044 1087.64 147.49 437.38 637.86 1188.18 362.67 1383.95 427.09 1231.03 524.11 1154.11 564.79 1342.25 617.85
00006062 00000045 1089.48 151.36 439.50 633.00 1190.60 361.79 1386.76 426.75 1235.95 526.30 1158.26 561.79 1351.43 615.20
00006063 00000046 1091.82 154.02 439.61 631.31 1193.88 361.00 1391.39 428.93 1242.90 530.29 1160.27 558.92 1359.44 614.62
00006064 00000047 1091.93 153.48 440.98 631.03 1195.33 360.59 1393.46 430.08 1245.26 531.09 1160.53 557.79 1362.20 614.84
00006065 00000048 1090.48 154.68 441.57 624.31 1193.06 360.59 1392.30 430.67 1243.23 532.61 1158.95 556.84 1361.03 614.54
00006066 00000049 1089.29 148.63 441.01 622.41 1190.54 361.75 1391.09 429.87 1241.37 532.43 1159.02 556.11 1359.46 612.46
00006067 00000050 1092.82 150.74 442.74 613.52 1195.59 361.45 1396.41 429.85 1247.90 533.60 1163.63 554.96 1364.09 611.87
00006068 00000051 1102.65 154.91 445.55 607.59 1205.90 361.99 1410.97 431.62 1262.82 538.60 1172.09 555.89 1373.58 614.52
00006069 00000052 1113.45 165.70 438.93 596.92 1218.19 366.36 1426.68 425.68 1280.03 539.26 1178.88 564.63 1390.26 613.22
00006070 00000053 1117.81 169.20 438.95 596.74 1226.82 371.43 1433.65 427.11 1290.87 544.76 1184.41 570.28 1396.27 616.37
00006071 00000054 1117.80 170.39 439.42 593.76 1226.45 371.74 1433.21 429.52 1288.36 545.47 1183.27 568.00 1396.34 615.67
00006072 00000055 1116.46 168.39 439.82 589.94 1221.85 369.79 1429.48 430.36 1281.49 543.85 1180.03 563.97 1393.23 613.53
00006073 00000056 1111.91 161.28 442.75 605.56 1212.10 365.60 1423.01 424.01 1276.25 542.03 1178.21 564.43 1392.24 614.40
00006074 00000057 1112.87 163.45 442.48 603.10 1212.43 366.05 1423.06 424.66 1275.72 543.52 1178.09 562.95 1394.18 613.08
00006075 00000058 1117.21 168.67 441.68 590.78 1220.96 370.04 1429.88 432.07 1280.44 547.56 1179.38 560.50 1398.62 611.18
00006076 00000059 1117.42 171.63 443.18 591.25 1223.03 370.61 1433.05 434.48 1282.52 550.65 1178.44 561.06 1401.33 613.35
00006077 00000060 1117.72 170.45 441.94 596.29 1224.21 370.19 1433.99 436.30 1282.23 552.51 1176.87 560.80 1401.00 614.91
00006078 00000061 1117.22 172.79 442.70 595.06 1224.34 370.08 1433.64 437.91 1280.84 553.53 1175.26 560.63 1399.62 616.18
00006079 00000062 1116.02 170.63 444.43 599.23 1224.78 369.20 1433.26 438.77 1280.06 553.26 1174.50 559.32 1398.86 616.22
00006080 00000063 1116.26 170.77 443.39 599.50 1225.24 366.00 1432.92 437.62 1279.49 551.57 1173.11 557.36 1396.58 615.96
00006081 00000064 1115.34 166.21 444.04 601.56 1223.94 364.50 1432.34 436.73 1278.28 549.92 1173.01 556.20 1396.10 615.22
00006082 00000065 1108.85 158.78 451.00 617.87 1215.78 362.55 1425.36 430.39 1274.10 546.90 1172.10 558.39 1395.25 616.05
00006083 00000066 1107.02 158.94 451.44 616.34 1214.20 363.42 1424.30 430.36 1273.49 547.23 1171.37 558.40 1394.11 615.42
00006084 00000067 1106.15 159.48 448.15 615.22 1212.03 363.91 1422.51 430.63 1272.21 547.64 1169.63 557.41 1393.74 614.48
00006085 00000068 1102.59 157.79 449.61 616.66 1210.40 363.55 1421.19 431.26 1270.35 547.57 1167.96 557.18 1391.04 615.01
00006086 00000069 1100.06 158.63 450.86 615.78 1207.84 362.17 1417.66 432.24 1266.17 547.86 1164.70 555.53 1387.23 615.26
00006087 00000070 1097.48 158.69 451.90 614.53 1205.37 361.02 1415.01 432.78 1261.90 546.18 1163.31 555.27 1383.05 616.23
00006088 00000071 1094.65 156.98 448.87 615.56 1203.20 359.42 1412.21 432.45 1259.26 544.77 1161.65 554.36 1379.32 616.41
00006089 00000072 1093.28 153.27 447.22 618.44 1201.59 358.70 1409.61 431.11 1257.82 543.35 1160.45 554.73 1376.52 616.25
00006090 00000073 1091.39 154.88 445.54 619.01 1199.97 358.55 1407.77 431.80 1256.49 545.87 1158.59 555.09 1374.80 617.62
00006091 00000074 1088.29 155.87 445.51 617.54 1196.92 360.04 1404.66 435.11 1252.28 549.41 1154.59 555.19 1371.27 619.31
00006092 00000075 1085.23 159.32 445.89 614.68 1194.94 362.00 1402.13 438.35 1249.85 552.52 1150.61 555.24 1367.98 620.58
00006093 00000076 1082.86 160.86 445.11 613.04 1192.34 362.46 1399.52 440.97 1246.94 553.47 1146.71 555.06 1364.93 622.04
00006094 00000077 1075.17 166.44 447.24 598.95 1192.97 367.46 1399.58 439.88 1249.20 549.47 1143.77 557.42 1366.42 616.88
00006095 00000078 1073.06 167.84 445.04 599.37 1188.55 367.93 1393.94 439.22 1244.66 549.63 1139.87 558.12 1363.12 616.67
00006096 00000079 1071.99 164.27 444.58 600.98 1184.10 369.24 1390.01 438.69 1240.41 549.94 1136.71 559.56 1359.11 616.42
00006097 00000080 1070.46 167.96 440.77 599.02 1181.02 368.95 1386.56 439.45 1236.87 551.63 1132.27 559.34 1356.01 617.15
00006098 00000081 1069.00 169.88 441.17 600.04 1178.16 369.95 1384.00 440.28 1233.21 552.87 1128.81 561.39 1352.94 619.07
00006099 00000082 1067.27 171.40 441.11 599.78 1176.32 370.62 1381.50 441.54 1230.34 554.48 1125.36 562.95 1348.39 621.19
00006100 00000083 1065.26 172.88 442.01 599.02 1174.68 370.26 1380.63 441.59 1228.11 554.70 1122.52 564.29 1345.94 622.87
00006101 00000084 1063.72 171.51 442.65 601.63 1173.42 374.35 1378.64 444.32 1226.45 556.55 1121.30 567.37 1343.71 624.82
00006102 00000085 1062.45 172.26 443.83 600.05 1173.09 376.38 1377.55 446.92 1225.29 556.45 1120.80 567.36 1342.43 625.28
00006103 00000086 1061.79 173.95 444.54 599.48 1172.58 374.68 1377.54 445.69 1223.98 556.47 1119.33 567.28 1341.18 625.62
00006104 00000087 1061.48 172.50 443.86 601.26 1172.00 374.21 1376.32 445.72 1223.11 556.23 1118.08 566.74 1340.19 625.42
00006105 00000088 1061.06 174.01 444.14 604.98 1172.83 372.84 1374.95 446.46 1221.63 555.49 1117.10 567.46 1337.00 627.79
00006106 00000089 1062.13 172.69 443.21 614.11 1175.42 373.67 1372.01 446.21 1221.76 552.81 1117.46 571.98 1330.47 631.43
00006107 00000090 1063.25 166.78 441.50 623.79 1175.45 379.36 1368.84 445.46 1221.80 547.18 1123.19 582.78 1324.07 636.85
00006108 DELETE   1061.40 165.16 438.77 618.58 1168.72 380.47 1361.09 442.22 1215.00 545.46 1122.42 587.93 1314.16 638.46
00006109 DELETE   1054.09 161.35 438.67 610.38 1156.41 365.92 1349.82 430.63 1195.52 534.33 1112.09 576.45 1294.17 629.52
00006110 00000093 1050.77 158.48 429.30 599.16 1140.88 357.70 1333.84 427.43 1172.48 527.80 1102.85 569.72 1271.58 626.39
00006111 00000094 1049.50 153.78 426.99 603.94 1138.57 357.28 1331.68 426.33 1169.71 528.22 1101.88 571.66 1268.49 627.63
00006112 00000095 1054.31 159.57 435.58 608.20 1150.55 367.63 1346.81 426.80 1191.81 536.20 1112.70 583.02 1288.77 631.55
00006113 00000096 1062.91 159.75 439.08 614.31 1164.12 375.89 1362.33 430.60 1215.50 545.00 1128.07 595.10 1308.35 640.37
00006114 00000097 1065.33 157.47 444.58 617.39 1168.47 376.73 1369.14 432.70 1221.73 544.83 1130.28 595.93 1315.25 641.80
00006115 00000098 1061.62 157.37 441.80 613.93 1162.89 377.28 1364.35 429.80 1217.30 546.58 1128.07 595.90 1313.30 639.20
00006116 00000099 1055.16 160.97 438.62 608.50 1152.82 374.43 1351.21 425.95 1203.16 545.31 1120.81 592.17 1301.30 634.59
00006117 00000100 1047.97 161.39 440.99 602.83 1142.73 370.10 1342.62 428.36 1186.85 539.07 1109.23 581.26 1293.84 628.21
00006118 00000101 1046.84 161.18 444.15 604.77 1143.83 369.35 1345.12 429.46 1188.34 539.66 1107.99 578.18 1298.54 626.74
00006119 00000102 1054.41 166.10 445.17 608.44 1155.23 374.22 1355.88 431.52 1204.57 550.39 1116.82 582.84 1316.75 629.64
00006120 00000103 1060.17 161.08 444.97 616.84 1167.57 378.63 1369.61 433.61 1223.45 550.60 1127.55 592.16 1325.02 637.33
00006121 00000104 1064.57 159.74 444.10 614.55 1167.72 377.82 1370.99 431.46 1224.01 547.89 1130.31 592.76 1324.18 636.70
00006122 00000105 1063.37 158.74 439.35 618.85 1162.12 376.09 1359.65 427.99 1211.94 544.85 1127.71 593.33 1312.72 635.98
00006123 00000106 1059.25 157.87 434.85 618.82 1154.69 372.37 1346.99 427.17 1197.20 541.71 1118.95 588.20 1301.62 632.76
00006124 00000107 1058.05 160.99 436.94 611.91 1154.58 372.14 1347.52 430.11 1195.27 542.41 1116.69 583.15 1303.45 630.22
00006125 00000108 1061.84 161.62 441.13 609.08 1160.77 375.83 1358.20 433.65 1206.84 547.87 1123.20 581.92 1320.98 629.09
00006126 00000109 1065.21 164.22 443.36 608.38 1167.76 376.07 1371.03 433.63 1221.31 550.07 1129.31 583.52 1333.31 630.45
00006127 00000110 1068.45 160.82 444.27 608.09 1171.45 375.47 1374.54 433.59 1225.00 547.96 1132.35 583.54 1332.89 630.86
00006128 00000111 1067.92 157.18 444.27 607.46 1168.21 374.14 1371.13 431.81 1220.20 545.71 1130.42 583.71 1327.66 630.53
00006129 00000112 1065.90 159.20 442.46 604.86 1163.94 374.61 1364.75 430.72 1213.93 545.39 1128.09 584.63 1321.45 630.36
CROP_BBOX: 748 0 1779 937
