Video ID: 	l6NhZnz09Hk
H: 	1080
W: 	1920
FPS: 	23.976023976023978

FRAME INDEX X0 Y0 W H [Landmarks (5 Points)]

00002390 00000000 847.89 225.80 347.97 503.93 929.19 429.26 1088.55 441.52 996.68 527.66 933.57 606.77 1063.58 618.14
00002391 00000001 837.87 212.68 360.20 511.72 916.67 423.77 1085.25 432.61 976.08 523.78 926.69 602.93 1061.01 612.01
00002392 00000002 830.64 208.45 363.82 510.88 911.34 419.71 1077.61 429.22 969.93 517.12 919.74 597.90 1054.41 607.64
00002393 DELETE   826.24 209.94 366.25 507.62 907.21 415.65 1072.16 423.28 964.70 510.73 914.35 592.85 1050.59 601.30
00002394 DELETE   822.68 207.55 370.66 508.42 905.34 410.83 1070.28 419.08 961.36 503.79 909.58 587.86 1047.29 597.09
00002395 00000005 820.15 209.32 371.61 503.51 901.85 406.63 1067.91 416.97 957.51 498.21 903.64 582.05 1044.02 592.93
00002396 00000006 818.53 209.51 372.13 502.91 900.56 402.45 1065.40 415.02 953.76 493.78 897.87 575.85 1040.61 588.57
00002397 00000007 816.69 209.78 370.86 505.77 899.19 402.75 1063.13 415.58 953.58 493.68 896.90 574.88 1040.56 587.57
00002398 DELETE   817.70 209.36 370.60 512.85 900.32 408.28 1064.99 423.13 951.93 501.18 897.50 582.01 1040.56 596.15
00002399 00000009 818.02 215.42 370.21 506.30 901.77 409.00 1066.01 424.19 952.70 504.05 898.48 584.43 1038.39 598.87
00002400 00000010 820.17 214.73 369.69 504.33 904.32 405.16 1068.51 420.52 953.69 501.16 898.75 582.71 1037.61 597.55
00002401 00000011 823.72 215.61 367.73 500.27 907.11 400.80 1071.07 417.44 955.61 498.95 899.89 579.19 1038.53 595.49
00002402 00000012 823.92 214.62 368.11 502.06 907.37 401.64 1072.04 417.51 956.62 498.37 899.85 580.70 1038.51 596.44
00002403 00000013 823.53 218.24 368.96 500.98 908.56 401.31 1074.91 419.47 957.55 500.66 899.38 582.29 1038.38 599.74
00002404 00000014 823.96 221.85 368.20 497.51 909.27 402.52 1075.15 421.82 958.20 501.59 898.72 582.75 1036.72 601.11
00002405 00000015 825.68 221.41 366.99 496.36 910.82 402.02 1075.88 421.22 958.71 501.30 900.34 580.96 1037.85 599.39
00002406 00000016 825.40 222.33 369.00 496.06 912.36 400.22 1078.25 419.67 960.92 498.37 901.58 579.09 1040.49 597.64
00002407 00000017 825.11 219.64 369.86 500.15 912.36 401.33 1078.85 419.70 962.28 498.72 902.60 580.12 1042.29 597.73
00002408 00000018 826.27 220.36 368.63 500.31 912.97 402.63 1080.41 421.75 963.02 500.58 903.66 581.80 1044.48 599.90
00002409 00000019 826.19 222.46 369.26 499.85 912.99 404.60 1080.63 423.52 962.43 502.09 903.92 583.55 1044.56 601.39
00002410 00000020 828.45 223.00 367.80 502.12 913.59 405.72 1081.08 424.55 963.03 504.10 904.91 585.70 1045.12 603.61
00002411 00000021 828.45 220.21 368.52 500.50 913.20 404.15 1081.00 422.02 962.75 502.60 905.22 584.64 1044.56 602.03
00002412 00000022 828.12 219.41 370.21 494.85 913.61 400.98 1080.92 419.05 962.51 499.16 904.61 580.71 1043.12 598.54
00002413 00000023 829.98 221.93 368.67 494.47 917.48 399.32 1083.68 418.52 965.92 497.14 906.70 578.11 1046.58 596.88
00002414 00000024 830.99 224.29 369.21 494.42 920.27 399.85 1087.22 419.25 969.04 496.15 909.70 578.88 1050.33 597.73
00002415 00000025 844.71 215.60 360.59 505.33 926.90 398.38 1085.19 425.43 978.28 495.91 911.99 580.14 1045.80 604.20
00002416 00000026 847.12 217.63 362.15 505.18 929.20 400.17 1086.97 426.68 979.57 497.37 913.93 581.88 1048.51 605.28
00002417 00000027 848.29 220.25 362.16 500.85 929.71 400.23 1088.44 425.92 981.35 497.76 915.33 583.46 1050.64 606.27
00002418 00000028 849.42 217.59 361.29 500.66 930.62 399.65 1090.00 425.86 982.95 498.06 916.47 582.94 1052.13 606.11
00002419 00000029 852.73 217.41 357.18 500.56 930.48 401.48 1088.72 427.25 981.18 499.66 918.56 585.26 1052.04 607.95
00002420 00000030 853.04 217.55 356.93 501.32 932.39 404.50 1089.59 430.13 982.71 501.06 920.31 586.56 1051.70 609.08
00002421 00000031 853.40 217.64 355.75 500.74 932.40 404.61 1090.15 430.50 983.27 501.30 919.84 586.90 1052.31 609.67
00002422 00000032 853.32 217.71 355.09 497.50 931.44 402.73 1090.85 428.82 983.58 500.53 918.82 585.51 1053.11 608.44
00002423 00000033 852.84 215.26 355.51 496.51 931.19 400.50 1090.81 427.74 983.16 499.63 917.31 582.40 1052.31 606.40
00002424 00000034 851.98 215.40 356.45 495.19 929.97 401.05 1089.67 428.32 982.23 500.17 915.82 581.60 1050.91 605.61
00002425 00000035 851.70 217.52 356.70 494.35 930.57 403.41 1090.15 430.42 983.01 501.59 915.67 583.23 1050.78 607.11
00002426 00000036 852.17 215.98 356.79 496.90 931.20 404.74 1089.80 431.57 982.89 502.03 916.25 583.46 1050.58 607.24
00002427 00000037 851.99 218.11 356.87 495.09 930.74 403.32 1089.28 430.38 982.00 501.13 916.05 582.69 1049.98 606.61
00002428 00000038 850.53 216.74 357.58 496.79 929.99 402.05 1089.55 427.98 982.59 499.71 916.79 583.03 1051.64 606.00
00002429 00000039 847.97 213.12 357.99 501.07 927.23 402.56 1087.58 426.07 981.04 498.54 916.31 583.18 1051.23 604.40
00002430 00000040 833.93 218.46 370.69 499.54 918.38 408.48 1090.12 422.78 971.03 500.22 915.88 586.47 1059.12 600.93
00002431 00000041 834.05 220.40 365.84 499.21 916.17 411.95 1087.18 425.47 969.98 502.68 914.95 588.66 1058.09 602.28
00002432 00000042 834.88 220.65 364.95 500.28 916.14 412.99 1086.79 426.46 969.19 503.83 914.74 589.53 1057.33 602.98
00002433 00000043 834.47 220.27 366.26 503.84 919.72 407.86 1089.26 422.38 972.33 497.43 915.04 584.13 1060.58 598.62
00002434 00000044 838.10 221.06 363.22 506.02 925.17 404.30 1090.91 419.13 977.92 493.43 917.14 578.87 1063.26 593.66
00002435 00000045 837.82 211.07 368.20 510.76 926.42 403.72 1093.75 417.98 981.20 491.50 920.29 577.97 1066.18 592.29
00002436 00000046 838.72 213.69 368.84 505.30 926.65 404.69 1094.35 418.05 981.21 493.37 922.25 581.50 1064.66 595.39
00002437 00000047 853.15 210.73 354.81 505.77 934.19 404.62 1093.23 425.40 989.90 496.93 925.97 587.72 1056.53 606.59
00002438 00000048 853.52 209.40 353.37 504.11 931.26 403.15 1092.99 424.66 988.93 498.37 922.89 587.76 1057.75 607.26
00002439 00000049 853.20 201.54 356.63 506.53 932.18 396.47 1093.90 420.32 988.93 494.12 922.17 580.76 1056.37 602.27
00002440 00000050 852.99 190.48 357.62 512.81 931.39 391.33 1092.65 412.48 984.71 486.98 923.66 576.09 1055.49 595.13
00002441 00000051 851.57 179.78 355.64 520.37 926.19 386.75 1088.74 403.44 978.46 480.08 919.96 571.60 1056.62 586.63
00002442 00000052 844.14 178.67 359.28 533.48 917.21 395.75 1084.57 398.40 973.54 478.05 920.73 573.81 1069.08 578.10
00002443 00000053 834.03 171.05 364.48 544.84 901.31 396.96 1068.39 392.24 957.95 476.91 912.43 572.69 1066.16 570.44
00002444 00000054 822.77 173.39 367.43 540.37 887.63 398.48 1050.64 385.91 945.01 473.83 905.88 570.98 1059.74 562.02
00002445 00000055 817.14 175.64 371.38 537.61 878.34 401.82 1041.74 385.34 934.88 475.11 898.71 573.58 1053.40 561.21
00002446 00000056 817.02 176.19 372.71 536.60 875.68 403.52 1039.69 387.68 930.40 478.13 897.80 577.51 1050.37 565.30
00002447 00000057 819.32 173.59 375.62 539.73 880.40 407.72 1044.69 391.63 937.16 481.25 905.05 580.26 1054.23 567.80
00002448 00000058 826.48 173.07 375.62 541.08 889.61 410.83 1053.24 395.52 947.62 489.05 916.34 583.00 1063.11 571.12
00002449 00000059 838.70 174.43 368.87 541.39 903.96 410.67 1066.92 399.38 962.27 491.05 928.36 582.88 1073.38 574.74
00002450 00000060 854.07 178.03 367.64 541.18 924.18 403.19 1085.79 399.91 981.91 484.93 941.72 581.33 1090.51 578.76
00002451 00000061 867.95 173.22 370.76 553.60 935.46 404.78 1098.39 395.08 994.81 485.08 958.71 584.84 1108.55 576.98
00002452 00000062 880.26 176.32 369.12 550.72 945.90 403.93 1111.19 392.13 1006.76 484.06 968.02 582.62 1121.86 573.73
00002453 DELETE   887.74 174.58 370.34 545.79 955.36 406.36 1121.48 396.49 1019.10 491.39 977.38 582.79 1130.32 575.31
00002454 00000064 896.83 170.67 369.01 544.65 964.12 408.35 1131.37 402.37 1025.46 493.18 983.64 583.70 1133.91 579.30
00002455 00000065 905.15 179.25 364.34 532.79 973.59 409.06 1140.62 407.16 1031.75 494.22 989.12 584.16 1135.74 583.70
00002456 00000066 908.77 182.87 362.38 526.29 976.40 409.86 1144.46 409.08 1033.37 495.77 989.97 586.99 1133.02 588.35
00002457 00000067 910.68 185.36 361.61 522.17 978.58 409.46 1146.35 409.06 1034.82 496.67 992.13 588.79 1131.46 590.51
00002458 00000068 909.91 189.07 362.27 519.12 977.99 410.42 1145.71 409.75 1034.03 496.94 991.61 589.82 1130.25 591.46
00002459 00000069 909.13 188.42 361.25 519.77 975.95 409.79 1144.01 410.08 1032.03 497.93 989.81 590.47 1128.14 592.89
00002460 00000070 906.45 188.51 362.91 519.94 974.38 409.82 1142.44 410.47 1030.58 497.51 988.62 590.42 1126.53 593.03
00002461 00000071 903.57 182.36 364.19 525.66 970.08 408.85 1139.91 411.00 1026.34 497.36 983.79 589.07 1125.54 592.40
00002462 00000072 899.38 187.39 363.76 521.97 967.32 408.78 1136.59 411.27 1023.86 496.42 981.71 589.94 1121.63 593.83
00002463 00000073 895.44 191.56 365.30 518.67 964.82 408.53 1132.46 411.05 1021.67 495.63 978.63 589.99 1117.07 593.96
00002464 00000074 892.72 189.10 366.83 523.72 962.65 408.36 1130.05 409.69 1020.74 495.73 976.08 590.16 1115.55 593.12
00002465 00000075 889.87 193.92 367.91 520.67 961.27 409.20 1129.10 410.78 1019.08 495.32 972.76 588.77 1114.11 591.92
00002466 00000076 889.00 196.40 368.22 517.86 960.69 410.00 1128.03 411.56 1018.18 495.36 971.40 588.13 1112.54 591.42
00002467 00000077 889.27 198.71 367.68 514.84 960.74 411.09 1129.17 412.66 1019.06 496.50 971.54 588.82 1114.10 592.00
00002468 00000078 889.26 199.73 369.34 515.17 962.20 412.32 1130.33 413.35 1020.97 497.41 973.39 589.46 1115.12 592.15
00002469 00000079 890.79 205.77 370.35 509.47 964.97 412.91 1132.32 415.54 1021.98 498.35 975.31 589.01 1115.71 593.08
00002470 00000080 896.52 202.99 366.26 513.92 971.54 413.07 1138.23 417.54 1027.34 499.85 980.68 589.81 1119.33 595.62
00002471 00000081 901.03 200.45 363.80 516.27 976.13 413.59 1141.75 418.93 1031.79 503.37 985.23 590.98 1122.98 597.56
00002472 00000082 905.54 209.11 361.48 507.27 982.69 413.92 1148.45 419.47 1038.23 503.24 990.03 591.68 1125.66 598.78
00002473 00000083 920.12 210.32 350.29 504.16 991.86 414.72 1152.93 424.33 1050.42 500.99 994.41 596.28 1126.35 606.22
00002474 00000084 923.46 206.18 353.34 514.28 998.36 417.51 1159.92 430.03 1056.40 505.03 1000.73 599.66 1129.24 611.69
00002475 00000085 925.69 207.30 355.15 517.12 1005.29 416.52 1170.16 434.73 1065.90 510.25 1003.25 601.41 1133.03 617.93
00002476 00000086 931.13 217.19 354.70 511.05 1008.77 420.49 1171.09 437.14 1069.55 513.59 1006.42 603.71 1136.86 618.80
00002477 00000087 931.65 216.65 356.74 515.28 1013.59 423.35 1172.82 441.62 1071.70 514.40 1009.05 602.05 1138.39 618.18
00002478 00000088 932.89 219.35 356.14 514.06 1013.28 424.07 1175.47 441.78 1072.45 515.10 1007.71 602.02 1143.14 617.70
00002479 00000089 933.38 220.66 355.64 514.34 1013.23 423.51 1175.55 441.65 1073.20 516.56 1008.74 602.10 1145.11 618.04
00002480 00000090 930.69 215.62 363.41 522.30 1017.43 427.35 1186.60 448.94 1076.61 517.51 1014.96 598.75 1154.39 617.67
00002481 00000091 933.39 213.36 365.50 528.27 1022.03 428.24 1194.42 450.14 1083.91 516.30 1019.91 599.12 1163.42 618.23
00002482 00000092 934.21 216.04 364.39 527.96 1028.10 428.05 1200.70 450.97 1094.47 519.79 1026.01 600.75 1169.07 620.95
00002483 DELETE   937.89 211.69 353.67 527.48 1033.60 429.19 1203.44 450.08 1103.10 520.08 1037.32 602.52 1174.06 621.26
00002484 00000094 941.93 210.76 348.33 523.30 1036.12 430.78 1204.38 449.98 1107.50 520.79 1045.25 603.55 1178.27 621.01
00002485 00000095 940.31 212.51 348.10 525.24 1036.17 432.53 1204.68 451.34 1109.97 524.58 1045.02 607.54 1176.90 624.73
00002486 00000096 935.19 210.08 348.77 530.06 1036.56 436.74 1204.39 455.26 1113.03 528.89 1046.65 610.27 1174.50 627.39
00002487 00000097 929.22 215.26 345.00 528.60 1035.36 438.36 1202.59 451.01 1119.80 528.93 1041.09 618.48 1173.60 630.18
00002488 00000098 927.04 226.89 343.10 517.29 1033.10 440.74 1199.25 450.89 1117.94 529.64 1037.88 620.41 1171.14 630.12
00002489 00000099 921.18 223.12 347.78 525.83 1029.20 444.38 1195.14 452.57 1113.43 530.45 1033.64 623.54 1169.88 631.55
00002490 00000100 920.21 228.99 345.40 520.60 1023.35 448.18 1183.00 455.47 1106.38 534.72 1029.14 625.80 1162.92 633.41
00002491 00000101 918.39 231.92 345.05 517.17 1015.57 451.32 1173.19 456.67 1099.08 537.96 1024.08 628.03 1156.78 634.13
00002492 00000102 914.43 231.77 348.01 521.47 1010.96 449.85 1166.04 457.45 1086.87 543.23 1016.69 628.05 1146.04 635.82
00002493 00000103 908.99 235.78 354.07 516.62 1002.80 456.73 1165.31 459.47 1073.81 548.73 1014.24 629.80 1145.79 633.64
00002494 00000104 908.89 235.60 351.15 516.80 998.65 457.39 1160.25 463.68 1067.19 548.84 1006.43 626.79 1139.72 633.56
00002495 00000105 906.00 237.33 352.77 515.06 995.00 457.94 1156.64 465.56 1062.01 547.66 1001.77 626.41 1134.71 634.24
00002496 00000106 900.88 240.03 357.60 514.42 988.98 456.38 1152.69 463.33 1055.44 548.51 996.48 627.35 1131.58 634.66
00002497 00000107 894.62 236.22 361.61 520.00 980.89 456.96 1144.25 462.48 1047.05 550.14 990.81 628.00 1124.85 634.02
00002498 00000108 893.77 234.71 360.30 523.98 972.54 459.67 1139.04 465.22 1039.13 549.46 980.02 636.76 1122.88 643.16
00002499 00000109 892.32 238.06 359.43 520.44 970.08 458.14 1135.56 465.19 1034.28 550.59 976.57 636.08 1118.28 643.85
00002500 00000110 888.29 234.53 360.95 524.27 965.80 457.68 1129.52 466.38 1028.60 550.81 971.39 635.31 1113.23 644.38
00002501 00000111 884.67 240.53 360.56 517.28 962.86 459.48 1124.97 468.57 1023.67 550.57 965.36 634.85 1106.75 644.43
00002502 00000112 883.66 247.84 356.56 511.99 961.42 459.89 1120.91 470.03 1019.11 550.12 962.20 635.15 1100.88 645.85
00002503 00000113 880.65 247.47 356.70 513.10 958.38 460.93 1117.82 471.44 1015.62 552.41 959.82 636.57 1098.62 647.47
00002504 00000114 878.30 252.63 357.20 509.72 957.34 463.24 1116.18 474.02 1014.34 554.03 957.83 637.09 1095.59 648.39
00002505 00000115 875.25 253.10 358.21 508.10 955.60 464.47 1112.92 475.70 1012.57 556.27 956.54 638.12 1092.50 649.59
00002506 00000116 871.78 251.76 357.84 510.92 953.01 466.26 1110.72 476.72 1011.80 556.41 955.36 640.18 1091.07 650.86
00002507 00000117 869.13 250.20 356.04 509.65 944.24 469.74 1109.15 480.47 1001.15 560.32 949.53 636.16 1083.49 646.64
00002508 00000118 864.57 247.51 357.52 511.72 942.66 468.65 1107.73 483.21 999.21 560.48 947.53 635.48 1079.35 649.04
00002509 00000119 859.18 244.69 357.02 515.42 933.12 466.18 1103.10 478.00 998.94 555.63 940.57 640.86 1077.12 650.96
00002510 00000120 857.33 244.65 356.29 515.42 934.83 463.41 1091.60 474.08 989.30 557.79 935.63 640.34 1069.29 649.86
00002511 00000121 853.65 244.15 356.28 516.01 930.30 463.11 1086.66 476.05 982.05 557.53 929.87 640.04 1061.77 651.44
00002512 DELETE   851.71 241.92 355.89 519.77 924.66 461.87 1079.60 473.57 974.95 558.54 927.09 641.93 1056.30 652.49
00002513 00000123 848.33 252.80 352.92 509.69 915.68 462.53 1071.17 473.04 967.83 562.68 922.81 644.77 1053.01 654.18
00002514 00000124 842.13 254.83 357.14 508.29 909.71 470.80 1070.80 477.22 962.37 567.55 918.88 644.44 1056.47 651.88
00002515 00000125 840.18 252.46 354.82 511.14 904.80 473.01 1063.67 478.89 955.31 568.79 914.38 645.24 1050.38 652.05
00002516 00000126 838.10 255.11 355.16 509.16 901.44 474.15 1060.91 479.92 950.76 569.41 911.23 647.52 1046.14 654.26
00002517 00000127 836.03 256.16 355.85 508.52 898.13 474.09 1058.95 479.22 947.68 569.58 909.30 649.83 1044.41 655.97
00002518 00000128 835.66 253.62 353.96 511.22 894.89 474.03 1056.80 478.77 944.68 569.29 907.21 649.53 1044.16 655.13
00002519 00000129 834.56 248.91 350.67 516.34 892.57 471.96 1051.96 479.18 939.81 568.88 902.71 647.88 1038.37 655.31
00002520 00000130 830.81 249.28 353.53 517.20 890.14 472.67 1048.32 478.19 937.56 568.03 900.96 648.87 1035.69 654.92
00002521 00000131 827.98 246.30 354.70 520.01 887.82 472.19 1045.91 476.71 935.48 566.88 899.15 648.47 1033.95 653.77
00002522 00000132 826.93 247.49 354.92 519.71 887.01 471.62 1045.27 476.58 934.68 566.28 897.98 648.24 1033.39 653.85
00002523 00000133 827.27 246.00 353.55 519.78 885.88 471.11 1044.23 475.94 933.11 566.11 896.01 648.92 1031.79 654.43
00002524 00000134 827.17 244.98 353.25 521.74 885.64 471.47 1043.84 476.42 932.28 566.50 895.49 649.53 1031.23 655.22
00002525 00000135 826.22 245.88 353.75 522.01 885.04 471.88 1043.28 476.37 931.75 566.15 895.38 650.46 1030.62 655.75
00002526 00000136 826.87 246.24 353.23 522.16 884.87 471.59 1043.33 476.19 931.02 566.68 894.91 650.82 1030.57 656.17
00002527 00000137 826.23 247.48 354.22 522.39 884.22 471.77 1042.08 475.23 929.98 566.33 894.53 651.25 1029.90 655.67
00002528 00000138 827.18 247.79 353.47 522.37 884.98 471.20 1043.22 475.22 930.03 566.92 895.28 651.66 1029.94 656.75
00002529 00000139 827.81 246.61 352.97 522.45 885.07 470.31 1042.89 475.05 929.52 566.12 895.12 650.60 1029.46 656.32
00002530 00000140 827.98 247.64 353.41 520.60 885.48 469.56 1043.66 475.02 929.73 565.88 894.30 649.51 1029.46 655.83
00002531 00000141 827.95 247.39 353.65 519.81 885.95 469.56 1044.69 475.02 931.17 566.37 894.40 649.89 1029.83 656.19
00002532 00000142 828.09 247.82 354.53 518.66 886.35 469.29 1045.29 474.86 931.79 566.76 895.00 650.36 1030.59 656.72
00002533 00000143 828.13 250.35 355.66 517.57 887.82 469.26 1046.49 473.57 933.43 565.45 895.41 648.10 1031.87 653.56
00002534 00000144 828.93 248.39 355.52 520.47 889.73 469.57 1048.24 473.99 936.41 564.50 898.25 647.74 1034.66 653.20
00002535 00000145 829.89 252.35 357.19 515.07 892.80 470.17 1052.04 473.45 942.62 564.81 902.70 646.91 1039.57 651.57
CROP_BBOX: 539 0 1461 961
