Video ID: 	6XFxPcKIcjE
H: 	1080
W: 	1920
FPS: 	25.0

FRAME INDEX X0 Y0 W H [Landmarks (5 Points)]

00020232 00000000 667.78 181.31 448.86 612.58 759.34 371.43 970.70 366.83 839.97 448.73 759.66 590.61 952.39 587.14
00020233 00000001 670.20 184.26 449.16 618.46 764.03 372.32 972.11 368.67 842.28 451.02 762.44 593.87 951.27 591.53
00020234 00000002 673.62 189.30 448.33 630.62 766.31 374.78 973.41 371.14 842.43 451.55 765.25 602.90 949.75 600.70
00020235 DELETE   675.49 193.15 444.93 635.41 764.89 374.35 970.12 370.79 837.52 450.72 764.86 607.64 946.12 605.25
00020236 DELETE   673.16 196.90 445.06 635.67 764.53 374.68 967.83 370.21 837.35 447.92 765.97 612.95 937.14 609.99
00020237 00000005 673.62 197.13 442.22 624.00 762.84 378.41 963.59 368.97 835.70 447.96 774.30 615.51 938.82 609.19
00020238 00000006 671.89 193.81 441.40 632.42 760.29 380.63 962.45 370.12 833.01 446.17 770.64 618.49 935.73 611.44
00020239 00000007 674.11 186.56 440.05 627.22 752.23 379.69 961.01 366.59 819.52 453.37 755.61 620.03 935.80 610.00
00020240 00000008 674.18 189.62 440.28 627.90 756.31 385.45 962.26 369.38 826.52 447.15 761.56 618.54 940.26 605.78
00020241 00000009 673.76 188.84 443.09 631.29 757.54 386.96 967.31 370.57 829.88 447.88 760.11 617.08 945.10 604.24
00020242 00000010 675.59 186.57 439.42 623.48 758.20 387.90 966.81 371.82 832.06 450.26 761.82 612.52 947.97 599.94
00020243 00000011 673.47 186.57 439.64 612.70 758.79 387.57 965.48 374.58 834.48 452.18 765.13 607.56 947.94 597.75
00020244 00000012 672.59 187.58 442.59 609.33 759.57 386.79 969.29 375.65 836.91 454.02 765.55 605.54 955.63 597.19
00020245 00000013 672.13 187.40 444.36 614.46 759.70 387.41 971.15 376.26 838.16 455.69 763.66 605.44 958.08 596.86
00020246 00000014 671.38 189.37 444.36 607.03 759.11 386.58 970.84 376.44 838.18 454.59 763.17 603.37 958.92 595.82
00020247 00000015 672.80 188.75 442.92 610.16 759.70 385.92 972.63 375.92 840.54 455.78 764.61 604.50 961.34 596.99
00020248 00000016 672.58 188.43 444.30 616.70 760.41 384.79 974.91 375.00 843.05 457.84 764.58 605.22 966.70 597.26
00020249 00000017 673.54 191.99 443.51 616.77 760.49 386.17 978.87 378.54 846.59 462.43 763.86 609.02 969.46 602.00
00020250 00000018 674.27 194.20 442.67 625.23 760.78 388.18 979.67 380.84 846.11 465.67 762.85 613.40 969.79 605.92
00020251 00000019 673.28 195.95 442.90 625.62 763.01 389.61 979.10 384.46 847.45 469.92 763.19 613.66 967.44 608.04
00020252 00000020 672.92 194.05 442.34 634.41 763.34 391.19 978.42 386.69 849.40 474.90 763.65 616.87 966.28 611.34
00020253 00000021 669.85 200.10 447.88 635.41 760.16 393.56 976.82 388.58 848.19 479.76 760.19 620.41 969.35 614.18
00020254 00000022 670.94 204.10 445.01 618.92 761.43 396.78 975.07 394.59 849.04 485.62 761.73 618.98 962.12 615.97
00020255 00000023 671.26 204.84 443.41 611.62 762.30 399.08 975.87 398.05 849.49 487.47 762.38 620.15 962.23 618.27
00020256 00000024 671.83 205.41 445.61 616.58 763.59 400.67 976.50 399.22 848.71 489.14 762.55 620.50 964.53 617.97
00020257 00000025 675.37 203.37 452.67 636.17 765.60 400.77 979.03 396.17 847.25 490.98 764.91 626.98 967.89 621.98
00020258 00000026 676.72 201.66 450.22 637.23 767.62 400.23 982.53 397.95 851.84 490.42 767.55 629.21 967.93 626.18
00020259 00000027 679.45 196.06 453.53 648.06 775.24 402.53 992.54 405.25 864.44 494.75 775.76 636.51 971.55 637.98
00020260 00000028 683.42 193.26 456.56 650.92 779.93 401.06 999.22 403.01 872.47 494.00 785.76 638.54 978.14 639.06
00020261 00000029 683.81 190.29 457.92 658.11 781.39 400.58 1002.02 402.08 875.81 492.74 788.33 640.15 981.76 640.15
00020262 00000030 680.63 191.97 460.36 654.87 779.10 401.59 999.98 402.35 875.21 497.58 789.76 641.64 980.31 640.79
00020263 00000031 675.03 196.95 461.05 655.58 774.01 406.23 994.59 402.73 871.04 503.54 790.92 647.58 979.19 643.37
00020264 00000032 673.05 197.07 455.85 656.60 771.50 406.12 992.66 401.89 869.28 505.86 787.44 649.87 979.85 644.84
00020265 00000033 670.39 198.83 452.90 651.73 768.99 403.11 988.73 397.92 868.02 501.88 782.08 646.26 977.26 640.37
00020266 00000034 665.79 197.03 455.62 660.91 765.70 402.26 985.90 396.23 863.44 499.90 775.60 646.04 973.35 639.53
00020267 00000035 663.40 197.39 456.19 663.86 761.58 402.11 981.83 396.91 858.11 502.02 769.68 646.27 968.33 640.57
00020268 00000036 664.49 201.11 458.54 677.46 760.44 404.78 985.15 395.61 860.32 511.85 772.27 653.82 970.59 643.48
00020269 00000037 660.94 196.68 454.75 668.45 751.19 406.52 974.92 399.54 847.23 514.03 768.42 654.29 956.23 645.67
00020270 00000038 660.01 197.43 454.90 664.11 749.45 406.72 972.53 399.74 844.91 513.85 768.08 653.42 955.76 644.80
00020271 00000039 660.22 196.74 457.43 675.79 749.05 406.04 973.85 396.72 844.94 513.72 765.01 654.06 961.14 643.11
00020272 00000040 660.56 190.62 454.34 680.98 748.23 404.58 974.13 394.51 842.63 510.56 760.92 653.33 960.25 641.90
00020273 00000041 659.03 186.73 455.09 680.53 747.45 402.05 971.60 392.92 837.56 507.55 758.04 650.67 954.79 640.22
00020274 00000042 655.30 182.86 456.10 668.79 747.00 395.53 967.93 389.45 836.77 501.18 756.37 642.26 950.27 635.16
00020275 00000043 664.26 184.78 449.75 654.70 742.53 401.28 964.42 395.27 824.94 497.50 757.11 643.75 942.44 639.28
00020276 00000044 664.38 181.69 449.44 657.04 742.95 400.84 964.50 395.30 824.24 496.07 757.12 642.90 940.95 638.89
00020277 00000045 660.57 179.01 452.77 658.25 741.24 398.41 962.30 392.92 821.77 494.94 756.45 642.01 938.39 637.96
00020278 00000046 657.85 176.53 455.33 658.18 738.71 397.37 959.18 391.32 818.58 493.49 754.64 640.48 935.30 635.90
00020279 00000047 657.19 179.18 450.41 649.51 733.81 401.03 952.23 392.34 813.57 495.21 751.68 640.17 930.34 633.36
00020280 00000048 656.59 178.80 450.26 647.51 731.58 403.17 950.25 392.83 810.88 496.32 751.95 641.41 929.82 633.11
00020281 00000049 654.26 178.78 451.99 653.94 727.50 404.23 946.40 390.98 806.96 494.89 747.92 642.78 929.24 632.04
00020282 00000050 637.87 184.65 460.86 641.21 725.40 398.71 950.12 390.79 816.35 491.52 746.15 638.26 937.31 630.91
00020283 00000051 636.21 184.81 459.56 639.33 722.42 399.16 945.58 391.90 812.32 494.27 743.43 638.94 933.81 631.87
00020284 00000052 636.54 184.42 456.72 638.30 720.60 397.91 943.07 391.75 809.29 494.20 740.99 638.53 931.42 632.41
00020285 00000053 634.97 185.78 456.81 637.60 719.34 398.79 942.12 392.56 808.95 493.98 740.00 638.77 931.46 632.48
00020286 00000054 632.29 188.69 458.33 639.79 717.43 399.55 942.30 393.91 808.07 495.80 738.28 640.29 931.88 634.35
00020287 00000055 631.95 187.86 458.36 643.75 718.06 399.60 942.32 393.61 808.20 496.33 738.19 641.00 930.97 634.59
00020288 00000056 631.14 189.19 458.67 651.97 718.12 401.57 943.24 394.32 808.59 498.33 737.42 643.99 932.62 636.45
00020289 00000057 631.29 193.40 460.38 649.77 718.84 404.65 945.12 396.75 809.66 501.42 738.31 646.51 932.10 638.62
00020290 00000058 630.42 195.08 458.10 651.09 720.05 407.94 944.19 400.03 811.33 503.31 739.43 647.82 932.41 639.74
00020291 00000059 631.11 196.84 457.67 648.73 719.96 408.75 945.04 400.56 812.77 505.55 739.76 648.59 934.67 640.06
00020292 00000060 631.53 198.05 458.60 647.96 722.26 410.14 944.81 402.94 814.27 507.41 742.04 648.81 934.85 641.13
00020293 00000061 630.50 198.52 461.42 651.93 722.30 409.89 945.83 403.19 815.39 508.00 741.84 649.41 936.39 641.80
00020294 00000062 627.05 199.71 464.80 654.74 720.65 411.06 944.91 403.64 815.15 509.02 741.51 651.20 937.04 643.01
00020295 00000063 626.15 199.93 464.66 654.59 719.60 412.76 942.90 404.96 813.40 510.24 739.77 651.72 934.40 643.54
00020296 00000064 625.31 198.48 465.43 657.85 717.90 413.94 942.68 405.79 812.90 512.83 739.01 654.26 934.21 645.91
00020297 00000065 629.38 199.80 461.56 665.99 722.09 408.15 938.24 404.54 813.27 516.05 735.45 646.79 929.82 641.42
00020298 00000066 628.89 197.43 460.84 667.16 720.16 410.24 935.55 406.06 811.67 518.38 734.55 647.26 928.68 641.31
00020299 00000067 625.55 200.79 459.75 650.22 715.60 419.06 938.47 412.02 808.27 515.17 734.70 654.09 931.27 646.67
00020300 00000068 625.14 201.56 460.75 649.86 713.89 419.31 937.94 412.32 806.24 514.64 732.02 654.78 929.73 647.50
00020301 00000069 624.60 203.55 460.04 646.52 712.94 418.72 938.46 412.63 806.51 513.99 730.65 655.02 929.28 648.67
00020302 00000070 624.17 199.73 461.19 653.14 711.81 417.49 938.21 411.07 804.74 513.09 729.10 655.48 928.92 648.73
00020303 00000071 623.87 200.53 461.60 653.67 711.24 416.57 937.52 409.04 804.26 511.87 729.65 656.02 929.37 648.46
00020304 00000072 624.17 202.05 461.27 651.33 709.81 415.17 935.84 405.62 802.37 509.80 730.04 655.05 929.80 646.05
00020305 00000073 623.43 203.62 461.51 649.55 708.71 415.12 934.68 405.45 801.96 508.33 729.31 654.23 930.09 645.12
00020306 00000074 623.21 202.23 462.15 649.37 708.33 414.73 934.29 405.24 801.21 506.95 728.58 653.22 929.48 644.12
00020307 00000075 622.08 201.74 458.80 646.97 706.74 414.56 931.50 405.61 799.14 506.16 725.18 650.93 926.00 642.20
00020308 00000076 623.75 203.22 456.14 641.03 706.48 415.04 931.00 405.68 798.89 506.25 726.16 652.09 924.55 643.19
00020309 00000077 624.39 201.62 457.92 646.23 708.75 413.70 933.62 405.51 800.66 507.00 726.11 650.04 927.86 641.92
00020310 00000078 623.09 201.40 459.79 643.61 707.69 413.08 934.03 404.87 801.03 506.55 725.50 648.51 929.36 640.23
00020311 00000079 622.75 204.11 458.12 641.66 708.38 415.29 933.63 406.47 801.71 507.19 724.93 648.19 932.05 639.39
00020312 00000080 622.57 207.77 460.17 643.55 708.59 415.16 933.41 406.14 801.36 508.87 723.60 648.32 932.99 639.36
00020313 00000081 623.37 208.15 459.35 639.72 709.82 414.58 935.08 407.23 803.31 509.49 724.63 647.07 933.19 639.67
00020314 00000082 623.49 210.59 456.86 629.82 708.51 415.45 932.46 406.48 801.77 507.47 724.08 644.16 933.92 635.42
00020315 00000083 624.07 210.50 456.45 629.93 709.21 415.18 933.28 406.65 802.81 508.05 724.92 644.38 933.43 636.05
00020316 00000084 623.28 209.87 459.31 635.87 710.48 414.16 935.40 406.95 805.08 509.02 725.91 646.86 930.77 639.77
00020317 00000085 623.34 210.12 459.25 642.83 709.69 414.85 936.52 407.16 805.67 509.71 722.00 649.33 936.37 641.88
00020318 00000086 622.06 208.73 460.42 646.47 709.46 414.64 937.22 407.03 806.75 510.05 722.25 649.57 937.90 642.26
00020319 00000087 625.01 205.58 464.04 684.73 715.60 402.46 940.51 400.52 811.48 511.26 722.08 649.14 933.10 644.82
00020320 00000088 628.26 207.32 461.46 676.73 719.35 402.79 937.42 398.70 810.45 509.15 733.11 650.85 929.05 644.68
00020321 00000089 624.81 202.69 460.25 653.67 712.81 408.79 938.72 399.77 807.55 506.40 733.92 656.53 924.87 648.15
00020322 00000090 624.39 203.53 459.84 648.05 712.61 408.42 937.73 399.46 807.83 504.67 735.77 655.05 924.32 646.78
00020323 00000091 624.89 201.41 459.48 648.89 713.04 407.28 937.93 398.66 808.21 503.89 736.30 653.98 924.30 645.71
00020324 00000092 621.56 201.14 464.85 669.08 710.57 407.98 940.50 401.54 807.91 503.43 721.03 652.93 933.67 646.52
00020325 00000093 621.39 201.04 463.35 662.67 709.98 408.33 940.50 403.68 807.74 502.41 720.19 651.10 934.32 646.31
00020326 00000094 621.09 202.96 463.73 660.32 709.78 408.18 939.78 403.58 807.21 503.02 719.93 650.99 933.56 646.27
00020327 00000095 621.13 201.65 465.75 664.84 710.62 408.82 940.42 403.39 807.19 504.00 720.94 651.78 932.05 646.39
00020328 00000096 622.36 201.25 465.42 664.40 712.45 408.61 941.99 401.98 809.39 504.31 726.06 652.49 932.67 645.83
00020329 00000097 624.11 202.14 458.91 646.33 713.57 407.87 940.40 399.93 810.11 502.75 734.57 650.72 927.72 643.03
00020330 00000098 624.66 204.37 457.67 639.82 714.72 408.54 939.61 400.32 810.98 504.19 737.47 650.23 926.04 642.30
00020331 00000099 625.56 206.10 457.87 638.35 716.72 409.05 941.00 401.56 813.42 505.99 739.29 650.78 927.41 643.52
00020332 00000100 625.42 206.93 461.18 640.99 718.21 408.50 942.00 404.32 813.56 504.96 735.18 648.13 928.50 643.39
00020333 00000101 626.79 207.88 459.46 638.05 719.06 407.94 942.01 405.34 813.68 506.87 733.21 646.31 928.28 642.86
00020334 00000102 625.38 208.12 460.09 639.97 717.84 410.08 941.52 405.95 813.03 509.09 732.27 647.55 931.57 642.85
00020335 00000103 626.48 208.23 459.92 638.43 719.11 410.15 942.21 406.80 813.25 510.53 733.61 647.59 930.48 643.41
00020336 00000104 627.69 206.28 458.90 635.60 720.95 409.73 945.30 406.90 816.33 512.07 735.27 646.94 933.07 643.35
00020337 00000105 628.56 204.27 457.88 635.12 721.81 409.30 946.25 406.96 817.38 511.83 737.11 646.61 933.76 643.56
00020338 00000106 628.94 202.87 457.52 637.56 721.83 409.40 946.12 406.45 817.37 512.58 737.27 647.04 934.03 643.42
00020339 00000107 628.54 201.26 459.84 645.95 722.59 407.74 948.63 405.58 819.00 511.77 735.99 646.12 937.66 642.73
00020340 00000108 628.19 204.99 459.18 635.80 721.56 408.26 946.77 405.80 818.02 510.65 735.91 644.16 936.77 640.63
00020341 00000109 628.61 207.38 456.08 627.09 720.25 408.98 945.28 406.32 817.83 509.41 735.80 644.01 936.06 640.70
00020342 00000110 628.79 208.18 455.38 625.47 719.94 409.02 945.22 406.59 817.69 509.67 735.49 643.86 936.21 640.88
00020343 00000111 628.99 207.82 453.03 623.67 719.76 410.28 943.26 407.89 816.63 509.59 735.89 644.54 934.12 641.70
00020344 00000112 626.36 203.73 454.01 634.71 716.11 412.56 941.67 409.31 813.15 511.62 730.43 647.32 931.68 643.44
00020345 00000113 625.90 203.71 454.29 635.59 714.89 413.03 940.97 410.02 810.95 511.70 728.78 647.42 930.96 643.60
00020346 00000114 624.96 202.82 454.62 640.84 713.38 413.13 939.79 410.58 808.32 512.47 726.06 648.49 929.59 645.07
00020347 00000115 623.33 203.80 456.12 646.83 711.18 413.66 938.91 411.24 806.01 513.69 722.83 650.32 928.74 646.98
00020348 00000116 622.62 203.15 459.47 648.18 709.51 414.20 938.67 411.83 803.51 513.87 722.58 652.76 927.63 649.70
00020349 00000117 620.71 201.28 460.24 650.58 706.73 416.46 935.75 412.27 801.29 513.05 721.15 654.29 927.87 649.63
00020350 00000118 619.01 200.64 462.34 655.44 705.69 418.62 932.69 412.86 798.99 515.79 719.25 655.76 925.51 649.69
00020351 00000119 617.39 201.36 462.86 654.71 704.62 420.24 930.51 413.93 797.58 517.33 718.08 656.54 923.34 649.90
00020352 00000120 616.92 202.06 461.13 651.93 704.02 420.87 928.57 414.43 796.48 518.20 717.02 655.79 922.03 648.83
00020353 00000121 615.95 201.42 459.79 647.48 702.65 420.61 927.13 413.79 795.88 517.04 717.39 654.65 920.83 647.19
00020354 00000122 615.40 196.21 459.86 647.32 700.85 416.44 926.85 409.90 794.60 511.97 718.79 651.20 919.87 644.13
00020355 00000123 610.94 194.85 463.82 650.15 697.76 413.26 924.23 405.39 791.92 509.00 715.23 648.02 918.16 639.60
00020356 00000124 609.96 197.27 461.48 645.84 696.45 411.77 923.57 404.17 790.46 507.99 711.73 646.92 916.62 638.73
00020357 00000125 609.48 198.12 461.80 644.35 695.13 411.75 922.87 404.02 788.94 507.57 710.18 647.36 914.31 639.25
00020358 00000126 608.27 197.58 461.85 645.88 695.17 412.77 923.23 404.73 790.50 509.35 711.57 648.36 915.19 639.89
00020359 00000127 609.40 198.45 461.61 654.49 697.49 412.42 922.93 406.75 790.26 512.35 709.67 648.65 912.09 642.41
00020360 00000128 607.72 196.94 464.82 660.55 697.04 414.88 923.28 408.61 789.39 514.40 709.64 654.11 910.04 647.52
00020361 00000129 607.04 200.46 465.12 663.59 696.23 419.18 922.07 411.74 788.04 515.47 709.04 661.23 909.82 654.07
00020362 00000130 607.65 217.63 466.20 658.54 700.35 416.11 926.02 411.73 790.84 516.88 708.38 661.68 906.53 656.95
00020363 00000131 604.98 223.83 464.86 669.37 701.79 418.79 925.24 413.07 791.52 518.68 711.28 668.67 905.69 662.65
00020364 00000132 602.60 228.44 464.10 668.52 700.56 422.73 925.59 419.61 791.16 526.53 709.76 674.66 907.53 670.81
00020365 00000133 602.81 228.68 465.07 663.43 697.15 426.12 924.66 422.34 788.43 527.86 709.78 679.07 906.70 675.01
00020366 00000134 605.88 224.57 463.92 669.29 701.31 421.81 929.49 421.01 791.29 524.50 708.96 674.51 909.75 672.94
00020367 00000135 609.91 215.73 468.29 664.73 705.23 415.01 931.81 417.18 795.62 520.55 707.69 660.85 911.37 661.51
00020368 00000136 610.27 193.15 472.55 690.26 705.69 409.25 931.20 407.79 797.26 514.16 710.67 655.36 917.11 652.54
00020369 00000137 605.35 198.72 474.20 686.54 703.24 410.09 928.32 406.77 794.45 515.83 710.84 658.87 913.14 654.62
00020370 00000138 606.84 218.77 473.38 673.90 705.36 414.91 931.79 413.90 797.51 520.54 709.38 663.00 913.22 660.55
00020371 00000139 603.42 228.40 470.05 670.21 703.13 419.16 931.45 420.38 793.02 524.92 706.11 671.08 910.78 671.14
00020372 00000140 601.26 229.87 473.05 666.93 695.55 429.78 926.29 426.38 785.21 532.97 704.99 679.72 912.04 675.48
00020373 00000141 599.05 237.66 467.76 656.73 687.15 436.10 922.40 430.94 780.69 538.63 697.61 684.38 910.12 678.97
00020374 00000142 599.76 237.09 465.02 673.13 688.30 446.58 919.16 444.02 778.77 548.97 692.58 690.16 906.04 686.13
00020375 00000143 599.74 242.21 463.12 667.22 691.54 449.35 922.55 450.63 784.37 551.84 695.54 694.12 904.88 693.53
00020376 00000144 599.95 238.89 454.81 658.46 690.06 452.29 914.06 452.09 776.77 559.45 691.43 697.41 893.90 696.84
00020377 00000145 600.30 241.87 451.49 653.86 688.14 452.53 912.27 451.05 774.74 558.48 687.69 696.83 893.84 695.18
00020378 00000146 599.54 240.64 454.75 661.76 689.75 451.36 912.84 450.63 774.70 555.87 689.39 697.03 892.96 695.80
00020379 00000147 604.78 252.95 461.60 648.03 699.72 452.61 926.98 455.90 793.73 553.69 700.89 689.70 910.28 690.64
00020380 00000148 609.14 249.28 461.78 648.22 704.36 450.41 934.63 456.48 803.26 554.89 711.39 691.61 915.77 694.80
00020381 00000149 612.62 252.33 461.98 647.97 710.75 451.20 939.36 459.71 807.55 553.54 715.92 693.66 914.36 699.33
00020382 00000150 611.60 253.41 465.51 659.83 713.68 450.57 941.47 459.09 810.17 554.23 719.52 698.74 911.19 704.25
00020383 00000151 610.78 256.90 464.80 652.80 710.12 452.77 942.71 462.32 813.47 556.84 715.02 698.36 922.81 704.38
00020384 00000152 604.93 250.99 470.22 671.00 707.57 453.46 944.51 462.59 815.19 555.18 707.02 702.82 922.38 708.82
00020385 00000153 599.37 244.23 474.19 692.59 704.24 456.97 940.56 459.69 811.88 561.64 706.59 710.17 921.08 710.88
00020386 DELETE   595.34 246.64 474.15 688.03 696.68 462.92 939.76 467.54 803.33 573.17 700.34 718.82 915.08 721.12
00020387 00000155 591.02 249.66 475.13 689.49 688.80 471.42 928.52 472.30 794.80 584.69 696.03 728.74 905.23 728.36
00020388 00000156 588.00 241.91 474.33 703.07 680.55 476.50 923.99 472.26 788.72 586.74 693.55 737.17 904.17 732.19
00020389 DELETE   575.37 233.66 475.85 728.97 670.77 472.52 919.07 473.69 775.36 597.91 680.90 741.02 904.00 739.58
00020390 DELETE   565.84 233.45 481.77 716.11 661.90 470.87 907.86 471.51 768.58 596.47 674.48 739.27 888.67 738.14
00020391 DELETE   555.66 238.00 485.63 727.36 655.33 469.07 899.44 468.51 761.11 592.82 667.55 742.90 886.38 740.22
00020392 00000160 553.96 231.20 485.32 728.33 651.21 463.98 894.53 465.31 753.69 589.11 661.65 740.95 880.08 739.94
00020393 00000161 551.43 225.34 483.97 732.35 647.79 463.45 885.73 464.80 746.26 586.21 660.92 741.14 874.72 739.92
00020394 00000162 538.97 224.61 492.02 724.54 630.24 467.33 864.72 466.67 725.61 587.59 653.16 741.75 859.49 740.08
00020395 DELETE   532.05 216.41 494.21 729.55 623.97 470.18 859.55 470.36 720.20 586.15 646.98 740.43 858.37 739.00
00020396 00000164 526.60 225.69 490.51 718.87 616.28 468.65 851.09 464.75 716.32 583.99 642.05 740.20 854.89 735.14
00020397 00000165 520.22 220.64 495.46 723.59 608.35 471.45 847.51 466.39 710.32 582.91 631.97 741.06 852.73 735.35
00020398 00000166 514.55 217.85 495.73 718.46 601.58 469.37 841.98 464.79 704.24 582.32 625.04 738.01 843.85 733.21
00020399 DELETE   506.75 223.07 493.10 719.22 593.32 470.78 838.74 456.51 691.31 592.65 614.44 740.39 824.81 727.74
00020400 00000168 505.93 219.05 491.79 725.79 590.88 466.67 835.56 456.70 686.65 592.84 609.57 736.02 823.83 727.02
00020401 00000169 502.38 212.88 492.79 722.24 588.81 462.98 834.49 456.17 687.75 591.68 608.45 732.09 819.10 726.26
00020402 00000170 501.88 213.20 494.23 727.18 588.50 460.10 833.00 453.50 683.17 589.03 604.53 730.42 818.48 724.71
