Video ID: 	JqUWFUPEC0w
H: 	1080
W: 	1920
FPS: 	25.0

FRAME INDEX X0 Y0 W H [Landmarks (5 Points)]

00030393 00000000 799.93 140.48 416.13 550.17 906.25 334.68 1097.76 314.94 1014.93 432.86 945.64 547.66 1103.18 529.61
00030394 00000001 805.09 136.19 413.17 554.67 914.23 328.89 1102.26 309.20 1024.34 425.21 955.09 544.44 1107.29 526.56
00030395 00000002 800.46 139.42 416.68 557.84 913.06 331.04 1103.19 309.05 1028.47 432.52 957.53 548.39 1113.61 528.27
00030396 DELETE   791.54 156.01 421.04 556.76 901.69 342.70 1093.82 313.23 1022.50 449.30 951.81 562.50 1111.24 536.24
00030397 DELETE   781.42 160.02 425.80 579.65 896.33 361.68 1087.86 331.60 1018.04 481.13 954.18 590.86 1107.84 563.29
00030398 DELETE   778.01 174.20 426.86 575.74 897.61 376.80 1081.64 345.41 1014.24 497.20 959.50 604.32 1104.77 575.19
00030399 00000006 777.00 174.15 427.85 571.48 896.25 376.54 1080.70 344.78 1013.75 494.12 958.85 601.87 1105.02 572.59
00030400 00000007 784.43 172.82 425.95 566.04 898.69 362.73 1088.26 333.07 1016.85 482.17 959.15 593.55 1106.80 566.23
00030401 00000008 795.14 160.03 419.23 568.79 905.03 352.41 1094.02 321.34 1024.56 464.11 960.99 584.66 1107.13 556.75
00030402 00000009 801.91 144.32 417.14 558.87 911.57 343.59 1104.55 315.05 1033.25 452.00 965.08 567.90 1117.83 541.77
00030403 00000010 809.63 148.89 407.29 544.07 917.42 341.08 1112.59 317.26 1036.88 452.32 965.72 563.13 1122.12 541.75
00030404 00000011 805.93 154.29 412.49 542.05 914.77 344.74 1111.92 318.80 1037.71 459.50 964.15 568.42 1121.99 545.00
00030405 00000012 794.55 158.94 418.98 563.10 909.09 356.16 1102.49 329.22 1033.68 473.60 962.28 583.72 1113.10 559.43
00030406 00000013 784.21 167.38 422.41 571.05 902.57 361.17 1092.06 335.34 1022.74 485.44 959.84 595.98 1101.09 572.04
00030407 00000014 779.54 169.69 426.75 585.27 901.19 362.77 1086.92 337.09 1017.74 486.55 959.75 602.91 1099.74 578.30
00030408 00000015 778.13 173.32 428.39 577.48 898.42 359.72 1084.88 333.49 1014.54 482.89 958.51 597.91 1099.54 572.83
00030409 00000016 780.84 165.63 423.10 558.82 894.17 357.23 1081.83 325.98 1015.38 470.99 954.68 582.90 1100.95 555.00
00030410 00000017 786.66 159.81 415.30 552.79 895.84 348.02 1084.79 318.17 1014.99 459.63 952.49 570.22 1103.31 543.25
00030411 00000018 796.18 154.21 409.49 537.58 901.08 342.85 1089.95 315.63 1017.05 452.44 952.04 560.46 1103.19 535.95
00030412 00000019 802.33 145.75 409.86 543.95 907.23 336.56 1102.72 312.27 1023.59 443.32 953.65 557.20 1111.06 535.80
00030413 00000020 803.41 152.46 414.66 548.96 912.77 335.25 1110.39 313.42 1030.93 442.89 954.20 555.78 1119.34 536.10
00030414 00000021 799.41 154.47 418.71 549.65 909.65 337.64 1106.01 312.57 1031.25 448.14 956.58 559.44 1119.17 536.78
00030415 00000022 791.95 155.34 421.40 558.18 900.87 347.26 1094.09 318.94 1020.91 456.91 951.51 568.16 1113.20 542.22
00030416 DELETE   783.32 167.02 421.90 558.67 894.61 362.45 1083.04 333.84 1011.43 473.54 952.88 589.02 1099.25 563.22
00030417 00000024 773.84 171.88 425.25 569.16 886.02 369.53 1071.83 340.06 1001.51 482.71 951.34 599.12 1090.95 572.12
00030418 00000025 769.48 179.33 428.47 563.14 879.09 373.88 1065.94 340.07 995.35 484.68 948.95 599.21 1094.35 568.62
00030419 00000026 771.33 176.11 428.26 556.15 880.18 370.48 1068.88 336.68 996.34 478.04 943.85 592.02 1094.32 562.03
00030420 DELETE   776.28 162.98 423.81 544.96 888.04 357.31 1073.94 324.68 1002.45 461.01 949.54 574.94 1095.30 545.54
00030421 DELETE   792.56 154.22 410.09 530.34 897.02 341.93 1084.60 316.21 1007.46 443.35 947.37 557.34 1098.16 534.18
00030422 00000029 795.11 138.19 413.41 543.93 901.67 332.39 1094.30 310.35 1014.02 434.88 948.57 549.89 1103.12 529.92
00030423 00000030 795.70 135.70 412.92 544.77 902.40 330.90 1095.93 308.52 1015.93 433.26 950.00 550.01 1103.94 529.66
00030424 00000031 793.43 140.51 413.90 542.71 899.28 332.12 1092.82 308.33 1013.38 434.39 949.52 553.09 1101.10 531.37
00030425 00000032 792.64 140.38 410.79 541.74 897.51 334.53 1088.52 309.69 1010.77 436.78 948.75 555.25 1097.61 532.98
00030426 00000033 793.01 142.13 409.50 541.23 895.94 337.86 1086.22 311.39 1008.82 440.34 949.13 560.36 1095.57 536.82
00030427 00000034 792.19 144.95 411.05 539.09 896.40 340.80 1085.24 313.99 1009.04 442.75 951.80 563.40 1095.06 539.22
00030428 00000035 793.95 139.69 413.40 548.45 897.63 343.33 1086.88 313.64 1012.14 444.31 955.75 566.62 1098.92 539.70
00030429 00000036 797.82 143.72 414.52 544.38 899.98 345.04 1091.34 315.77 1014.45 446.43 957.35 567.26 1103.55 540.38
00030430 00000037 802.39 143.27 411.18 541.57 903.38 343.34 1095.59 314.36 1017.72 445.43 960.17 566.97 1105.70 540.76
00030431 00000038 805.26 142.48 410.71 542.18 906.06 342.05 1100.18 313.68 1020.08 442.98 961.23 565.40 1108.99 539.81
00030432 00000039 806.26 146.54 411.89 541.69 906.61 341.25 1103.05 314.23 1018.85 441.49 958.81 564.52 1110.96 540.30
00030433 00000040 804.78 148.77 416.65 545.14 907.57 340.02 1105.52 314.81 1020.32 440.77 955.20 560.02 1116.25 536.90
00030434 00000041 804.10 152.94 420.06 548.67 907.48 337.54 1105.82 312.92 1020.94 440.98 954.41 558.38 1118.35 535.46
00030435 00000042 802.42 150.58 419.61 546.43 907.06 338.69 1103.63 312.19 1021.83 442.64 957.78 561.15 1114.69 536.50
00030436 00000043 802.17 154.34 417.70 542.10 907.53 338.97 1098.82 310.19 1023.35 445.31 965.31 567.49 1106.34 540.91
00030437 00000044 803.15 153.13 417.38 547.76 908.53 343.09 1099.44 314.52 1024.66 451.01 965.59 570.49 1108.64 544.15
00030438 00000045 804.79 155.18 415.94 546.53 910.40 345.60 1102.64 318.71 1027.26 455.63 965.23 574.63 1109.50 549.67
00030439 00000046 800.54 157.30 419.45 558.32 909.96 346.77 1100.73 319.51 1028.23 456.39 964.53 580.11 1106.91 555.03
00030440 00000047 794.58 162.80 419.54 567.56 907.54 350.61 1095.23 320.82 1026.47 462.19 964.45 586.29 1105.72 559.30
00030441 00000048 778.13 170.50 427.64 559.83 895.96 359.38 1084.45 326.51 1018.59 470.96 961.38 591.33 1103.80 561.58
00030442 DELETE   766.27 176.07 425.93 559.75 876.99 369.54 1066.15 333.22 999.52 480.99 949.13 600.39 1091.99 568.62
00030443 DELETE   750.61 186.53 427.46 560.17 856.52 385.86 1043.30 347.88 974.77 494.17 929.93 610.63 1075.31 578.79
00030444 00000051 740.92 188.21 427.02 568.13 844.22 399.80 1027.73 359.35 961.55 509.94 920.19 621.59 1065.95 587.15
00030445 00000052 733.40 190.50 425.65 571.60 835.66 405.96 1021.88 366.60 953.96 524.60 911.69 628.09 1058.26 595.39
00030446 00000053 729.54 184.61 425.74 584.72 831.34 408.03 1017.63 369.10 950.35 530.23 908.89 632.12 1055.25 600.32
00030447 00000054 724.69 175.86 425.89 593.52 827.51 408.59 1013.11 368.59 947.18 534.65 906.37 633.33 1051.52 600.89
00030448 00000055 723.65 179.13 425.15 589.75 825.82 408.34 1011.17 368.73 944.42 534.38 904.78 633.07 1049.66 600.86
00030449 00000056 722.63 178.61 425.87 589.72 825.73 408.40 1010.14 367.99 944.47 533.22 904.50 632.70 1049.52 599.90
00030450 00000057 721.30 178.61 429.18 593.64 827.11 408.33 1010.62 368.37 945.73 535.70 906.37 633.18 1051.68 600.78
00030451 00000058 720.53 179.93 431.44 594.82 829.16 411.08 1012.30 370.30 948.12 536.94 907.41 634.63 1054.49 601.51
00030452 00000059 720.72 186.55 430.66 588.61 830.31 413.03 1012.63 372.86 948.27 539.25 908.00 635.26 1053.73 602.73
00030453 00000060 722.76 208.44 426.53 568.53 829.51 420.34 1012.26 376.12 953.68 543.93 908.18 646.06 1050.21 605.63
00030454 00000061 724.24 189.74 429.58 585.28 832.85 414.58 1016.89 376.50 950.40 540.94 908.14 637.31 1054.55 606.41
00030455 00000062 728.01 194.18 429.44 580.96 839.63 415.60 1022.49 378.05 957.76 538.57 914.02 636.50 1059.17 605.93
00030456 00000063 734.73 191.23 426.22 579.20 848.97 420.88 1027.55 383.42 964.18 535.93 920.65 635.21 1061.93 604.55
00030457 00000064 735.47 185.77 429.31 586.94 850.96 422.70 1028.28 388.88 962.76 536.75 916.62 634.39 1059.88 607.02
00030458 00000065 733.84 191.08 431.22 582.94 846.79 423.71 1027.96 389.52 957.89 540.12 911.14 635.50 1058.88 608.10
00030459 00000066 732.28 190.85 430.48 585.11 842.72 424.04 1025.26 392.14 953.38 544.95 905.80 637.42 1055.25 612.01
00030460 00000067 734.68 214.35 425.59 573.09 842.12 422.97 1019.78 399.63 950.85 552.21 900.82 641.52 1042.99 621.02
00030461 00000068 728.49 217.70 431.11 571.63 833.75 437.77 1015.92 405.57 945.10 558.82 894.71 653.63 1041.22 622.92
00030462 DELETE   730.70 215.53 424.06 577.65 835.30 436.32 1017.75 419.02 933.64 565.48 883.16 651.46 1027.94 639.16
00030463 DELETE   727.75 239.12 426.45 553.47 828.83 440.99 1011.71 425.10 927.76 576.65 880.54 659.92 1021.57 643.78
00030464 DELETE   726.86 239.27 422.60 554.71 825.52 445.56 1005.36 430.86 917.67 581.94 877.27 661.84 1018.75 646.05
00030465 00000072 730.71 241.75 413.86 546.92 818.00 439.51 993.68 423.40 900.36 572.20 872.96 654.57 1014.85 637.12
00030466 DELETE   726.38 242.26 419.57 538.01 807.19 429.45 981.35 411.97 886.28 554.93 859.50 637.58 1005.11 619.32
00030467 DELETE   715.93 207.91 435.40 557.01 796.30 404.83 970.44 387.66 865.70 525.61 849.95 617.11 989.45 598.96
00030468 DELETE   729.60 185.96 417.43 543.67 799.96 372.46 970.60 357.70 861.10 490.90 841.39 586.25 981.31 572.16
00030469 00000076 733.88 176.37 414.17 540.33 798.40 357.77 972.09 347.21 852.68 467.36 825.71 570.35 970.47 560.91
00030470 00000077 736.52 169.14 413.70 553.66 797.02 357.05 966.11 349.31 839.76 469.23 818.58 576.46 953.22 569.54
00030471 00000078 721.35 169.48 434.60 564.08 787.81 372.27 964.09 362.33 837.72 496.76 820.81 596.77 945.90 590.34
00030472 00000079 721.20 178.89 434.91 564.47 784.22 384.33 962.56 373.06 837.48 514.56 821.92 614.82 944.86 607.64
00030473 00000080 724.07 181.74 432.75 553.95 788.14 375.35 964.00 366.48 840.64 507.93 822.57 603.87 944.51 598.44
00030474 00000081 734.48 174.86 426.96 552.18 800.16 362.52 969.08 353.98 845.52 485.89 827.50 584.94 953.66 579.68
00030475 00000082 740.78 167.42 423.60 553.52 807.14 356.01 976.67 345.65 853.72 475.69 833.68 580.56 961.39 573.64
00030476 00000083 738.52 167.95 425.15 553.45 806.03 354.85 980.00 343.36 859.23 477.62 836.38 582.73 965.50 574.75
00030477 00000084 733.34 174.39 427.86 550.76 804.15 360.97 978.57 348.30 864.08 486.46 842.86 587.52 969.01 578.24
00030478 00000085 729.12 173.05 429.17 561.35 799.74 371.32 979.95 356.06 867.94 502.05 849.06 600.92 977.10 589.03
00030479 00000086 730.56 192.69 426.86 544.97 798.53 378.61 979.58 364.16 866.92 510.86 847.87 606.89 976.53 595.46
00030480 00000087 726.85 180.13 428.51 553.59 799.89 371.01 979.38 353.88 871.17 497.01 851.69 599.12 975.87 585.52
00030481 00000088 737.88 184.32 410.07 540.51 805.58 359.64 978.38 346.37 865.97 486.77 846.26 585.92 975.20 573.86
00030482 00000089 738.43 181.80 416.40 544.97 802.36 357.82 976.48 344.35 862.31 479.92 842.28 587.34 968.10 575.95
00030483 00000090 738.32 181.21 417.61 547.52 802.01 359.17 978.27 345.13 864.54 485.02 844.45 588.51 974.47 576.63
00030484 00000091 732.37 172.57 426.53 556.08 802.90 362.80 981.19 346.83 870.30 490.27 849.07 589.10 982.94 576.44
00030485 00000092 730.31 183.57 428.94 549.34 803.54 369.32 980.84 356.78 868.62 492.48 846.74 589.61 979.86 579.59
00030486 00000093 732.22 176.91 427.60 553.15 807.60 366.11 984.57 354.76 872.70 488.35 848.50 585.42 979.59 576.64
00030487 00000094 735.60 168.52 427.68 561.85 810.52 363.30 989.87 352.85 875.90 487.25 851.16 583.65 985.86 575.47
00030488 00000095 741.70 163.35 425.31 563.78 813.13 366.18 994.06 355.07 877.10 486.99 854.15 585.66 992.90 576.57
00030489 00000096 745.09 160.22 427.98 570.32 817.97 364.47 998.75 353.44 883.96 489.77 860.70 587.46 997.62 578.56
00030490 00000097 750.31 168.93 426.47 563.37 822.21 361.88 1002.24 351.59 886.81 490.30 864.25 588.03 1002.08 579.77
00030491 00000098 753.51 165.37 425.94 566.60 824.97 360.35 1007.47 348.96 889.80 489.56 869.02 589.58 1009.41 580.30
00030492 00000099 755.66 166.78 425.05 568.02 829.48 357.74 1012.10 347.19 895.03 486.52 872.38 586.92 1012.28 578.43
00030493 00000100 760.95 169.25 417.34 561.15 833.37 354.20 1014.88 346.37 900.16 479.24 867.08 585.31 1009.33 579.18
00030494 00000101 760.36 168.08 417.00 560.55 833.07 355.44 1015.49 346.92 900.49 480.44 866.58 586.79 1009.65 580.25
00030495 00000102 760.34 168.04 417.81 560.26 831.56 355.23 1014.75 346.16 898.92 480.68 865.01 586.28 1010.88 579.14
00030496 00000103 758.52 166.70 421.35 565.43 830.54 354.09 1014.30 344.19 899.93 479.81 866.50 585.61 1013.97 577.55
00030497 00000104 758.83 164.80 420.73 568.12 830.30 353.49 1013.26 343.01 900.42 478.94 866.77 583.20 1014.68 574.48
00030498 00000105 756.83 171.43 421.11 565.58 831.27 355.02 1010.89 344.82 899.12 473.82 869.68 580.43 1013.44 571.54
00030499 00000106 756.26 179.82 421.16 558.31 830.23 356.05 1009.95 345.44 897.29 473.28 867.18 579.64 1016.17 570.46
00030500 00000107 753.90 182.98 424.70 554.62 832.02 355.63 1012.42 346.39 901.44 475.57 868.68 577.68 1017.73 569.57
00030501 00000108 755.70 177.41 424.59 560.09 835.46 358.76 1018.09 349.73 907.33 477.36 869.35 580.32 1020.24 572.63
00030502 00000109 758.56 175.49 422.05 559.25 837.92 362.77 1020.16 352.56 911.54 480.01 873.16 583.28 1021.16 575.07
00030503 00000110 757.90 173.54 421.86 560.06 838.70 362.78 1021.39 351.44 915.28 480.72 877.09 584.21 1025.42 575.04
00030504 00000111 759.09 171.63 421.88 563.86 839.44 362.93 1022.63 350.73 916.92 481.78 878.05 583.98 1030.23 573.86
00030505 00000112 759.23 171.36 423.36 563.66 840.70 362.62 1023.81 350.39 918.87 482.45 879.69 584.07 1031.29 573.91
00030506 00000113 759.56 172.44 422.79 561.49 841.47 362.04 1025.45 349.87 921.06 482.68 881.51 584.33 1032.95 574.22
00030507 00000114 760.19 171.49 423.59 563.09 841.71 363.51 1026.98 349.88 923.27 483.90 882.68 586.15 1034.92 574.74
00030508 00000115 761.20 173.07 424.15 562.88 843.27 364.63 1027.95 350.05 925.18 484.35 884.77 585.86 1037.64 573.42
00030509 00000116 760.04 176.23 427.11 559.24 842.98 364.69 1030.00 349.13 927.78 485.20 885.36 583.33 1042.02 569.82
00030510 00000117 758.93 179.76 425.56 553.73 844.36 370.40 1026.07 353.44 928.82 490.90 887.97 578.91 1044.54 564.25
00030511 00000118 754.04 181.44 431.47 558.08 842.27 374.23 1025.65 357.05 928.55 497.32 884.95 580.02 1047.68 564.80
00030512 00000119 752.46 180.95 432.73 564.90 841.35 371.08 1024.32 356.84 923.06 491.67 882.34 581.57 1042.43 569.09
00030513 00000120 760.44 177.37 422.26 559.78 839.84 361.51 1022.44 349.35 915.52 480.10 879.21 579.66 1031.74 569.34
00030514 00000121 765.42 172.88 414.95 559.58 838.67 352.28 1018.26 341.26 907.29 465.36 872.14 574.87 1022.44 565.83
00030515 00000122 762.99 166.37 415.56 559.70 833.54 347.34 1016.22 335.68 901.98 462.93 869.16 578.48 1015.02 568.93
00030516 00000123 763.31 165.79 415.42 561.54 832.25 346.54 1014.59 335.82 900.25 465.81 867.91 580.12 1012.42 571.35
00030517 00000124 764.40 169.24 414.70 558.03 833.18 350.16 1014.29 338.96 899.88 468.36 867.20 581.25 1012.41 572.22
00030518 00000125 762.28 171.75 418.16 556.97 833.55 350.75 1017.22 339.37 903.00 470.09 868.48 581.65 1016.10 572.38
00030519 00000126 761.15 170.39 419.43 559.24 833.84 351.21 1018.58 339.31 905.12 472.12 869.93 583.15 1018.11 573.45
00030520 00000127 761.62 169.39 417.36 560.47 833.56 352.87 1016.81 340.68 904.85 475.58 869.37 584.43 1017.51 574.64
00030521 00000128 757.10 165.98 418.08 561.63 830.00 354.05 1015.55 341.81 903.21 477.15 866.59 585.72 1015.33 576.19
00030522 00000129 752.58 160.32 425.33 564.96 825.77 356.73 1009.33 342.50 897.43 487.01 873.50 587.94 1017.35 575.96
00030523 00000130 752.44 161.42 426.03 565.24 825.91 355.81 1008.60 341.78 896.55 485.91 873.11 587.07 1015.16 575.39
00030524 00000131 753.28 160.92 424.63 566.66 826.88 355.70 1008.77 341.56 896.80 485.03 873.72 586.87 1014.60 575.10
00030525 00000132 750.86 161.14 427.72 568.39 826.67 355.86 1008.99 342.12 896.85 484.55 874.12 585.92 1013.42 574.48
00030526 00000133 749.79 157.36 428.88 575.74 826.38 358.42 1008.19 343.61 896.22 484.41 874.69 588.27 1013.58 575.93
00030527 00000134 748.21 163.37 429.68 575.46 825.22 360.03 1005.69 344.89 896.56 485.08 875.38 590.18 1011.76 577.61
00030528 00000135 749.48 174.26 427.00 562.19 824.47 361.06 1009.17 344.34 901.84 484.73 868.99 592.17 1012.60 578.48
00030529 00000136 748.32 177.57 428.60 560.17 824.49 363.57 1009.28 346.17 902.74 487.54 870.55 594.34 1013.15 580.12
00030530 00000137 748.10 177.39 428.25 562.01 823.63 364.93 1008.05 346.74 902.09 489.27 871.04 595.73 1013.45 580.78
00030531 00000138 747.71 176.74 426.47 562.12 822.62 364.52 1005.83 346.25 901.10 488.03 870.10 596.08 1011.14 581.11
00030532 00000139 744.52 176.22 427.99 562.19 819.63 363.84 1002.94 346.44 896.96 486.21 866.73 593.12 1008.37 578.93
00030533 00000140 739.07 165.96 430.66 573.51 816.46 364.47 994.74 348.74 888.77 487.00 868.49 589.93 1000.81 577.17
00030534 00000141 741.30 158.47 428.52 568.73 811.24 359.83 993.07 345.84 879.39 488.49 858.92 589.91 998.40 578.27
00030535 00000142 749.91 165.70 419.88 558.51 812.50 359.12 990.08 345.54 879.78 486.93 855.01 585.48 989.71 574.82
00030536 00000143 750.44 160.21 427.11 561.44 821.67 354.96 1003.32 342.50 887.01 480.43 862.02 582.58 1002.17 572.57
00030537 00000144 759.51 161.06 418.56 556.81 828.24 353.00 1009.72 343.17 894.08 482.35 864.54 581.22 1008.23 573.45
00030538 00000145 762.97 168.91 413.35 543.50 832.70 351.94 1014.50 343.63 897.87 470.73 862.47 576.66 1008.83 570.28
00030539 00000146 756.71 178.08 419.52 539.70 831.07 351.15 1012.22 341.60 899.00 463.77 865.57 572.65 1011.60 564.72
00030540 00000147 751.58 173.86 418.71 552.43 826.90 343.43 1007.43 333.83 896.98 456.94 867.11 568.32 1010.78 559.61
00030541 00000148 742.92 168.23 420.49 553.81 822.35 349.55 1004.42 331.82 892.36 454.05 865.14 567.35 1011.61 549.38
00030542 00000149 735.29 166.51 417.97 545.87 813.73 347.61 994.17 326.71 887.48 453.55 857.63 563.75 1002.46 544.29
00030543 00000150 726.45 154.97 416.52 548.61 804.47 349.60 985.12 326.93 880.15 456.55 849.57 566.03 993.39 545.56
00030544 00000151 719.37 152.29 417.96 553.89 795.93 351.24 977.91 328.24 872.76 459.04 842.70 570.63 987.85 549.93
00030545 00000152 712.87 155.04 418.42 551.40 789.49 348.55 970.65 327.49 866.10 459.88 838.76 571.49 982.20 552.36
00030546 00000153 710.46 155.24 415.67 544.32 786.82 349.47 966.00 327.18 864.18 458.94 837.44 568.18 981.30 547.69
00030547 00000154 713.24 154.05 413.65 542.95 787.41 349.78 968.08 326.62 864.78 458.56 836.52 567.30 983.63 546.06
00030548 00000155 715.91 151.49 414.73 542.54 788.52 349.56 970.89 326.90 865.26 458.45 836.62 567.82 985.38 546.89
00030549 00000156 718.59 149.70 416.56 547.40 792.38 350.94 973.44 327.80 868.67 457.32 839.13 566.64 986.54 545.40
00030550 00000157 720.13 152.36 416.96 545.63 796.27 351.40 976.29 327.62 874.30 459.46 844.62 567.96 988.13 546.16
00030551 00000158 722.72 155.65 417.69 548.69 799.41 351.43 978.30 328.02 875.85 460.17 846.30 568.77 987.98 547.65
00030552 00000159 724.86 154.41 416.89 549.47 796.42 352.98 975.14 327.93 868.52 457.98 842.43 569.15 985.06 547.01
00030553 00000160 722.28 151.24 414.53 546.62 786.31 349.65 961.02 328.77 849.13 455.91 828.40 564.25 969.87 545.94
00030554 00000161 718.61 160.86 416.77 536.89 774.45 350.80 945.93 332.74 825.17 454.10 812.37 563.39 951.31 548.95
00030555 00000162 723.23 159.83 414.28 542.93 771.21 349.76 941.29 339.12 808.85 453.12 797.37 567.23 937.31 558.13
00030556 00000163 725.97 174.15 424.24 537.36 774.11 349.62 943.40 343.27 806.76 470.23 796.10 579.77 925.16 575.81
00030557 00000164 729.91 167.31 423.78 547.11 781.53 351.92 950.71 347.49 814.38 476.71 804.29 582.23 933.06 580.09
CROP_BBOX: 446 0 1487 975
