Video ID: 	QsPvvdW9zZg
H: 	1080
W: 	1920
FPS: 	23.976023976023978

FRAME INDEX X0 Y0 W H [Landmarks (5 Points)]

00027661 00000000 910.07 145.04 459.99 769.79 1019.48 522.29 1240.41 514.18 1123.75 662.68 1050.11 755.73 1223.59 749.35
00027662 00000001 923.34 155.98 454.89 774.79 1024.28 537.19 1241.97 527.85 1131.96 686.44 1056.86 770.61 1238.09 761.50
00027663 DELETE   926.59 170.54 454.91 769.79 1032.44 551.41 1245.17 541.98 1138.73 698.04 1069.03 777.16 1243.56 767.97
00027664 00000003 931.14 181.85 455.99 762.65 1037.07 561.58 1246.80 555.15 1140.86 704.77 1074.18 785.51 1243.92 779.26
00027665 00000004 932.68 197.82 457.42 762.68 1036.25 571.36 1247.80 568.43 1134.21 717.39 1074.07 799.35 1241.97 796.17
00027666 00000005 928.72 193.73 465.16 769.65 1042.00 573.97 1257.94 577.75 1146.17 729.27 1068.68 800.34 1250.53 801.49
00027667 00000006 930.66 199.06 469.33 766.50 1048.08 582.71 1263.67 580.83 1155.85 729.58 1081.49 806.41 1260.89 803.29
00027668 00000007 932.12 210.71 466.27 743.86 1050.00 584.16 1262.39 575.82 1152.96 718.14 1086.77 798.70 1252.85 790.83
00027669 00000008 939.32 202.44 458.11 753.58 1052.61 575.01 1263.80 568.95 1153.44 709.44 1084.48 794.49 1252.70 788.85
00027670 00000009 946.95 194.62 462.02 760.41 1058.52 569.67 1271.60 558.06 1163.62 704.67 1094.57 794.20 1265.66 784.07
00027671 00000010 950.49 185.26 462.13 764.60 1064.47 560.15 1276.46 546.06 1171.10 700.44 1099.73 785.84 1275.08 774.27
00027672 DELETE   948.55 171.72 463.26 772.54 1054.66 534.99 1273.62 530.14 1158.30 683.59 1082.79 770.20 1267.90 765.41
00027673 DELETE   947.99 164.62 456.17 760.37 1049.87 510.60 1265.76 515.92 1147.77 666.13 1069.50 754.40 1249.67 758.20
00027674 DELETE   955.81 155.55 447.86 756.29 1049.01 494.11 1259.37 497.62 1137.77 646.00 1070.46 739.06 1241.27 743.06
00027675 00000014 952.29 148.30 451.40 755.77 1043.01 475.40 1257.08 477.25 1134.00 624.50 1067.26 726.71 1238.89 729.48
00027676 00000015 938.58 143.77 459.44 760.93 1033.45 458.82 1243.93 465.61 1118.77 615.36 1056.38 717.74 1224.66 724.32
00027677 00000016 933.08 147.71 463.37 757.10 1025.73 453.85 1238.08 459.83 1107.13 608.92 1048.17 720.06 1211.24 725.98
00027678 00000017 931.80 141.38 463.22 766.26 1028.26 454.24 1241.00 459.03 1115.68 610.49 1053.78 724.73 1215.37 729.73
00027679 00000018 935.22 128.51 456.29 777.79 1034.13 456.21 1242.59 459.28 1127.19 614.40 1061.60 729.31 1219.47 732.17
00027680 00000019 921.28 136.90 473.87 787.90 1023.64 459.59 1239.14 462.43 1111.99 619.30 1053.50 736.84 1215.31 740.02
00027681 00000020 918.55 133.15 468.71 791.41 1018.53 460.36 1227.01 461.90 1106.59 621.70 1051.06 736.15 1209.56 737.73
00027682 00000021 920.54 136.09 466.27 782.86 1019.53 457.94 1227.39 459.13 1108.66 615.91 1051.92 731.82 1209.91 732.92
00027683 00000022 922.59 127.90 466.57 786.98 1025.02 450.12 1234.79 452.99 1117.58 609.55 1055.13 723.17 1219.27 725.31
00027684 00000023 922.93 141.79 471.40 766.81 1023.78 447.55 1234.64 448.26 1110.27 605.35 1057.82 718.21 1222.10 718.98
00027685 00000024 923.10 133.41 469.79 768.91 1021.24 442.29 1231.22 443.39 1104.90 598.48 1054.70 713.05 1216.57 714.18
00027686 00000025 928.52 133.75 465.79 759.55 1024.84 440.73 1233.48 441.00 1108.71 591.84 1057.79 709.36 1216.44 710.15
00027687 00000026 935.18 123.63 460.71 765.91 1033.68 437.59 1241.99 437.96 1122.20 589.25 1065.65 707.92 1227.38 708.94
00027688 00000027 942.35 111.12 449.06 758.93 1035.46 433.97 1249.44 431.88 1135.53 589.65 1065.68 703.72 1233.69 703.04
00027689 00000028 940.33 119.12 447.70 748.51 1029.19 430.90 1243.80 431.19 1126.31 586.67 1057.09 701.00 1222.73 702.09
00027690 00000029 935.62 122.31 447.75 742.14 1024.08 429.83 1233.77 429.45 1115.78 583.04 1053.44 699.06 1211.23 699.92
00027691 00000030 932.49 123.13 450.80 743.96 1024.55 429.96 1235.13 429.04 1119.62 584.11 1057.33 700.62 1211.89 701.08
00027692 00000031 927.25 134.21 454.33 746.85 1022.75 430.22 1231.65 426.27 1119.26 579.92 1065.49 705.00 1212.43 701.91
00027693 00000032 925.34 131.90 454.63 742.83 1018.26 429.38 1228.15 426.68 1115.48 586.22 1059.44 707.17 1206.90 706.20
00027694 00000033 924.71 121.25 450.07 755.30 1012.45 433.40 1215.18 429.88 1099.54 584.54 1051.67 706.80 1199.18 705.12
00027695 00000034 914.41 126.29 457.28 760.93 1009.52 436.26 1209.63 431.62 1099.59 581.45 1053.85 709.56 1196.86 705.54
00027696 00000035 917.34 107.88 456.70 772.40 1012.48 441.17 1215.11 430.30 1105.76 591.66 1059.29 715.35 1205.71 707.35
00027697 00000036 906.83 123.03 464.26 771.04 1007.14 444.63 1209.95 435.23 1104.10 589.32 1056.27 718.99 1203.50 710.56
00027698 00000037 899.70 122.28 471.25 782.02 1003.13 445.57 1203.27 438.30 1094.24 590.72 1050.46 720.06 1196.83 713.63
00027699 00000038 896.57 125.03 473.02 781.90 1000.54 443.18 1200.21 436.43 1090.26 590.31 1048.27 720.20 1195.54 714.03
00027700 00000039 898.65 127.33 470.17 777.25 1002.65 441.38 1203.88 431.96 1095.44 587.39 1054.30 719.30 1202.61 710.36
00027701 00000040 900.52 127.81 468.60 777.75 1004.18 442.00 1204.21 431.25 1096.90 586.41 1055.77 720.03 1204.12 709.95
00027702 00000041 899.46 118.77 470.34 789.83 1003.53 444.99 1203.46 435.57 1095.28 590.06 1051.03 720.42 1203.64 711.60
00027703 00000042 904.66 127.08 467.97 776.59 1006.22 449.28 1208.92 441.40 1099.91 595.53 1048.64 718.77 1205.44 711.54
00027704 00000043 903.96 131.99 472.92 772.04 1007.88 452.35 1214.25 444.21 1106.59 602.33 1051.86 720.95 1212.26 713.77
00027705 00000044 905.63 120.22 472.95 785.16 1009.15 455.93 1216.81 448.89 1105.82 606.22 1052.24 724.85 1212.35 718.69
00027706 00000045 906.68 134.07 468.33 770.37 1005.28 458.98 1211.42 453.17 1099.15 609.60 1049.69 729.92 1204.24 725.13
00027707 00000046 907.98 137.02 467.43 765.98 1006.44 457.85 1212.12 452.50 1100.48 607.91 1050.29 729.11 1203.27 724.79
00027708 00000047 905.54 120.16 475.98 788.77 1012.00 452.20 1219.23 445.88 1109.79 604.16 1054.84 724.54 1211.72 719.05
00027709 00000048 912.02 117.08 469.68 794.82 1015.50 446.32 1222.55 437.43 1114.62 594.44 1062.01 721.58 1221.38 713.39
00027710 00000049 913.69 113.57 465.82 787.28 1012.70 444.12 1220.48 435.19 1110.27 590.22 1060.70 717.09 1216.75 708.85
00027711 00000050 920.99 109.24 454.83 768.77 1013.31 441.45 1217.89 434.20 1104.24 593.12 1056.69 713.55 1205.15 708.41
00027712 00000051 921.28 117.01 456.64 758.82 1015.14 440.30 1222.88 433.48 1109.20 592.16 1057.90 711.97 1208.06 707.32
00027713 00000052 918.04 116.72 461.02 779.39 1017.16 440.07 1225.76 432.85 1115.33 589.50 1060.94 712.70 1220.94 706.06
00027714 00000053 919.87 117.59 461.22 783.21 1019.35 442.12 1228.16 435.07 1118.44 593.50 1060.94 713.27 1227.31 706.68
00027715 00000054 914.80 127.00 472.55 771.18 1016.66 444.28 1229.72 439.13 1106.01 596.07 1051.09 711.56 1221.90 706.96
00027716 00000055 916.13 125.71 469.63 770.42 1014.29 445.16 1227.39 439.46 1103.68 595.96 1048.57 713.19 1217.07 708.29
00027717 00000056 927.66 110.45 454.29 775.60 1019.56 445.07 1231.74 438.91 1118.55 601.52 1058.58 715.59 1223.55 710.93
00027718 00000057 930.17 113.37 452.66 768.59 1020.20 446.13 1234.85 438.73 1123.22 604.65 1061.74 716.04 1228.78 710.24
00027719 00000058 912.73 126.21 476.73 779.48 1018.90 444.17 1231.49 438.38 1109.99 598.52 1057.74 717.38 1226.42 711.89
00027720 00000059 914.44 127.84 472.33 786.72 1016.10 447.32 1227.20 439.55 1103.60 598.36 1053.01 720.66 1223.62 713.55
00027721 00000060 914.78 132.99 473.83 786.65 1016.05 449.61 1226.48 439.31 1103.27 600.54 1054.64 721.67 1230.37 711.97
00027722 00000061 913.53 135.27 477.01 783.97 1019.20 449.66 1229.71 440.07 1108.35 602.83 1058.90 720.33 1235.21 711.15
00027723 00000062 914.60 125.21 469.54 793.38 1016.39 449.33 1222.81 441.50 1111.45 601.32 1057.44 720.44 1229.62 713.12
00027724 00000063 911.92 135.96 476.04 782.87 1015.01 459.82 1224.91 451.81 1101.69 608.50 1049.62 724.12 1226.36 716.63
00027725 00000064 911.19 136.94 473.92 775.79 1013.15 462.50 1223.45 458.04 1100.52 611.07 1044.61 723.67 1219.78 719.62
00027726 00000065 919.44 124.91 460.65 781.50 1013.85 470.85 1217.38 462.14 1102.96 615.37 1050.44 729.75 1215.27 722.71
00027727 00000066 918.11 122.38 461.64 773.93 1010.80 469.82 1215.85 460.25 1100.89 616.21 1049.38 729.10 1211.50 721.59
00027728 00000067 917.63 122.43 459.81 772.52 1006.97 472.02 1209.59 460.61 1093.04 614.43 1044.28 729.38 1205.69 720.33
00027729 00000068 914.07 113.72 461.94 786.21 1004.09 471.31 1205.04 459.35 1088.78 615.71 1043.09 730.33 1203.91 720.60
00027730 00000069 909.64 121.29 466.70 778.15 1004.33 466.26 1207.62 458.09 1094.90 607.60 1042.74 719.49 1209.66 712.15
00027731 00000070 913.34 113.61 460.11 790.02 1000.88 474.21 1202.28 462.54 1084.74 617.74 1036.03 729.86 1200.60 720.41
00027732 00000071 905.39 133.14 467.76 765.96 993.27 472.36 1200.18 464.26 1082.24 610.70 1031.29 724.55 1196.13 717.89
00027733 00000072 905.21 132.29 466.27 770.38 992.42 479.88 1195.47 467.20 1078.91 613.48 1033.49 734.72 1191.86 724.30
00027734 00000073 902.87 145.51 464.09 755.73 992.07 486.96 1192.78 471.24 1079.42 620.56 1037.06 740.67 1192.97 727.43
00027735 00000074 898.66 137.38 462.81 772.37 984.67 493.77 1184.62 475.45 1069.16 624.14 1032.15 749.37 1188.02 733.91
00027736 00000075 889.89 151.96 460.26 760.67 969.50 498.93 1166.82 485.68 1046.88 635.68 1013.72 752.15 1169.48 741.27
00027737 00000076 874.53 144.43 467.95 766.57 955.87 501.07 1156.85 488.46 1034.92 640.64 1000.59 754.94 1158.90 744.38
00027738 00000077 875.43 148.58 469.95 758.54 960.57 502.36 1161.69 488.43 1042.51 638.21 1005.78 749.77 1164.80 738.25
00027739 00000078 884.73 152.15 466.32 750.51 971.38 497.62 1173.21 482.98 1053.70 631.64 1018.35 745.61 1176.17 733.38
00027740 00000079 886.43 139.67 452.95 755.72 972.96 489.53 1174.73 478.71 1055.22 624.09 1015.88 737.69 1172.01 728.66
00027741 00000080 889.84 139.25 465.14 764.65 981.70 484.54 1183.81 475.59 1059.51 620.47 1020.05 737.26 1176.60 729.37
00027742 DELETE   914.61 134.54 448.96 774.01 1003.38 485.86 1207.63 477.58 1088.72 628.25 1035.89 741.81 1194.06 736.22
00027743 00000082 923.67 146.57 460.44 761.06 1015.26 485.14 1224.47 477.70 1106.50 626.38 1050.48 739.80 1218.42 733.00
00027744 00000083 933.23 152.96 459.30 756.41 1024.02 485.49 1235.26 482.23 1115.21 632.79 1056.29 743.88 1221.46 740.76
00027745 00000084 937.80 151.25 454.56 757.67 1027.97 488.69 1239.52 487.82 1119.71 637.72 1057.56 743.36 1225.92 742.12
00027746 00000085 939.58 154.90 454.80 759.83 1033.79 485.59 1249.57 483.27 1131.87 636.12 1060.28 739.30 1239.53 737.02
00027747 00000086 940.33 149.66 456.17 758.68 1037.21 480.07 1252.84 476.08 1134.62 627.48 1067.66 731.31 1246.31 728.57
00027748 00000087 940.33 144.05 457.71 759.86 1032.93 467.65 1247.97 466.62 1128.60 617.59 1059.88 720.78 1238.83 720.95
00027749 00000088 937.33 134.73 462.75 768.28 1028.82 455.73 1240.00 459.70 1110.40 608.26 1050.91 712.72 1227.11 716.81
00027750 00000089 933.29 133.17 465.70 772.44 1028.79 449.44 1239.38 452.76 1110.75 602.39 1053.91 715.16 1221.85 718.65
00027751 00000090 938.54 131.26 464.62 777.50 1036.98 455.92 1248.58 455.03 1127.52 606.89 1068.13 719.41 1239.05 719.09
00027752 00000091 945.28 135.94 459.25 763.29 1039.27 464.50 1253.57 458.42 1139.77 613.69 1074.80 724.31 1247.60 719.84
00027753 00000092 939.66 138.74 463.57 767.51 1032.92 464.90 1248.97 462.85 1129.56 617.40 1063.29 725.71 1238.08 724.77
00027754 00000093 936.33 133.18 465.09 781.25 1031.00 460.71 1242.70 462.74 1117.46 614.46 1058.10 726.35 1226.79 728.80
00027755 00000094 936.77 132.03 466.68 790.45 1033.01 455.52 1243.43 457.28 1117.24 610.97 1061.20 725.30 1231.13 727.35
00027756 00000095 938.66 131.79 468.61 780.58 1040.21 454.07 1251.30 452.09 1132.34 606.58 1071.60 717.80 1246.31 716.56
00027757 00000096 938.45 126.31 468.17 775.85 1042.64 454.44 1254.73 450.15 1142.22 605.54 1078.11 716.10 1251.69 712.79
00027758 00000097 932.13 132.19 468.69 774.36 1033.35 455.93 1243.90 454.73 1122.17 608.47 1063.99 713.80 1238.53 712.65
00027759 00000098 915.27 138.76 480.52 772.71 1014.26 458.00 1231.36 453.12 1102.28 611.32 1044.10 719.43 1224.33 715.27
00027760 00000099 908.07 141.21 482.71 777.17 1007.51 458.45 1222.97 448.36 1096.68 608.59 1041.22 724.86 1220.97 716.23
00027761 00000100 904.61 134.51 488.55 789.62 1009.95 455.82 1222.97 442.98 1100.18 606.15 1048.27 725.23 1229.03 713.48
00027762 00000101 907.38 125.15 477.69 788.26 1008.94 454.31 1217.44 444.50 1106.44 605.12 1048.74 720.07 1222.86 711.06
00027763 00000102 905.75 130.82 476.27 778.49 1003.36 456.76 1211.84 450.24 1096.72 606.72 1040.41 721.41 1213.62 715.24
00027764 00000103 905.15 132.18 473.60 776.09 996.89 460.99 1205.89 454.29 1087.83 609.55 1035.21 725.25 1204.34 719.24
00027765 00000104 906.14 134.32 475.46 776.96 1001.88 465.11 1210.01 457.56 1094.55 613.72 1040.62 725.32 1210.36 718.41
00027766 00000105 909.14 132.37 474.11 776.24 1005.61 466.37 1216.70 458.75 1102.63 622.24 1046.06 727.52 1218.10 720.70
00027767 00000106 911.91 134.13 473.58 774.80 1006.63 467.33 1219.37 461.39 1102.58 625.25 1045.94 728.53 1218.75 723.11
00027768 00000107 914.16 134.99 472.35 775.71 1007.77 465.75 1218.02 459.51 1100.57 620.54 1046.15 727.03 1218.18 721.31
00027769 00000108 909.38 145.47 484.78 767.39 1009.46 465.01 1226.24 455.16 1101.36 618.29 1045.02 723.90 1225.72 715.27
00027770 00000109 918.44 135.38 479.18 765.60 1021.12 454.87 1232.23 446.43 1110.44 605.18 1057.24 712.50 1234.88 704.55
00027771 00000110 926.73 129.13 459.70 757.48 1023.73 446.71 1236.72 439.49 1112.54 592.70 1057.68 701.85 1235.66 695.16
00027772 00000111 934.15 114.90 449.07 746.26 1025.75 433.27 1242.21 427.38 1123.80 578.41 1052.01 687.54 1225.52 683.58
00027773 00000112 934.70 108.44 455.78 738.05 1024.54 425.22 1243.33 417.02 1125.17 568.53 1054.89 678.96 1228.21 672.89
00027774 00000113 936.86 104.13 456.38 730.79 1027.54 417.43 1244.03 407.60 1129.12 556.38 1061.58 671.91 1231.51 664.40
00027775 00000114 936.25 102.82 457.67 732.56 1029.19 410.89 1241.68 401.17 1127.81 548.13 1061.39 664.66 1232.47 656.85
00027776 00000115 927.98 101.07 469.69 748.00 1025.89 408.01 1234.46 399.31 1109.02 544.35 1057.77 663.00 1226.04 656.11
00027777 00000116 918.98 102.14 477.42 742.47 1018.70 398.91 1229.90 389.60 1103.03 536.23 1051.97 656.99 1222.39 649.40
00027778 00000117 916.13 99.42 476.78 738.34 1018.12 392.12 1226.19 380.26 1102.59 525.57 1053.44 648.68 1221.06 638.69
00027779 00000118 914.29 78.77 467.85 752.55 1014.39 381.29 1217.95 371.47 1106.17 516.71 1053.39 642.79 1218.22 633.73
00027780 00000119 909.98 83.46 468.94 744.63 1008.65 380.44 1210.32 367.30 1098.98 510.15 1050.65 639.42 1211.82 627.25
00027781 00000120 905.88 97.42 461.85 725.08 1001.08 382.99 1203.80 363.85 1084.70 503.20 1041.66 642.13 1205.54 624.45
00027782 00000121 906.19 99.02 458.54 719.52 1000.16 379.67 1203.18 358.81 1084.64 497.87 1041.39 639.05 1206.33 619.81
00027783 00000122 906.34 99.42 458.19 718.02 998.46 378.48 1201.77 353.52 1083.81 493.55 1041.70 639.11 1205.29 616.42
00027784 00000123 905.59 91.36 457.84 726.77 994.05 379.48 1198.05 356.56 1075.72 495.82 1034.51 639.54 1201.06 618.92
00027785 00000124 902.54 88.88 460.17 723.98 989.36 382.74 1190.87 360.92 1067.78 499.78 1029.52 638.72 1196.72 619.39
00027786 00000125 900.96 88.09 461.71 722.53 987.27 383.88 1190.15 363.44 1066.59 502.16 1026.95 639.04 1192.45 621.05
00027787 00000126 901.49 84.28 462.12 727.08 987.50 382.59 1189.67 364.68 1063.96 503.65 1025.32 638.79 1189.21 622.95
00027788 00000127 911.75 83.89 455.42 733.20 990.11 383.57 1191.68 368.70 1067.36 513.41 1028.50 643.51 1181.92 631.52
00027789 00000128 903.97 82.49 465.47 733.60 993.34 376.72 1187.73 367.42 1064.24 503.66 1028.24 631.11 1183.06 622.66
00027790 00000129 904.91 79.93 465.73 740.61 995.30 375.71 1188.50 364.74 1066.78 503.69 1033.91 634.15 1188.29 623.81
00027791 00000130 904.05 84.39 466.73 740.01 997.21 375.89 1189.07 363.19 1069.36 502.01 1037.32 634.49 1192.07 622.43
00027792 00000131 904.10 83.78 467.65 742.13 992.84 378.94 1186.56 366.60 1062.41 506.14 1032.34 635.91 1192.78 624.01
00027793 00000132 903.10 80.93 468.78 741.33 988.87 383.30 1185.64 369.59 1059.90 508.02 1027.60 635.91 1191.77 623.09
00027794 00000133 902.46 82.75 468.20 737.08 989.26 383.83 1186.16 370.80 1061.69 508.98 1027.57 634.40 1190.84 622.22
00027795 00000134 902.66 83.88 469.30 737.69 987.71 385.65 1185.65 372.05 1059.85 510.57 1025.70 635.45 1191.03 623.17
00027796 00000135 903.40 81.93 467.04 741.98 985.21 389.86 1182.82 375.71 1055.17 510.83 1022.16 638.29 1186.90 625.65
00027797 00000136 901.43 85.59 468.45 741.27 983.63 392.38 1179.42 378.06 1052.72 513.74 1022.85 641.43 1183.57 628.87
00027798 00000137 902.00 86.80 467.98 745.46 984.86 394.70 1179.41 378.97 1055.35 517.27 1026.24 645.28 1184.83 631.82
00027799 00000138 903.25 90.64 465.48 742.40 985.46 402.25 1177.46 384.82 1053.49 520.35 1028.30 649.85 1184.95 635.07
00027800 00000139 892.79 95.64 471.99 737.89 971.38 406.77 1174.31 387.92 1044.81 527.86 1014.53 656.13 1186.00 639.63
00027801 00000140 900.73 94.36 467.73 740.96 983.42 402.71 1177.02 388.58 1050.81 527.48 1027.03 652.99 1184.26 640.79
00027802 00000141 900.24 92.54 471.00 741.05 985.86 401.97 1183.18 387.36 1057.71 526.86 1028.86 652.49 1189.31 639.83
00027803 00000142 900.99 91.21 472.08 735.91 986.76 401.12 1184.69 387.58 1060.84 527.96 1030.39 649.68 1189.36 637.72
00027804 00000143 908.41 90.44 464.34 744.22 990.26 403.12 1188.74 388.23 1063.51 534.81 1028.70 661.79 1185.38 649.47
00027805 00000144 910.73 92.95 465.53 739.97 993.68 402.06 1192.99 387.48 1068.05 533.57 1031.11 659.44 1188.39 647.49
00027806 00000145 914.13 89.77 466.98 743.41 997.82 401.57 1198.83 386.50 1075.76 532.23 1034.73 658.59 1194.23 646.31
00027807 00000146 918.70 91.13 463.47 740.50 1001.20 399.83 1201.35 386.79 1078.46 532.76 1037.22 656.56 1196.03 646.15
00027808 00000147 916.58 92.40 473.03 730.48 997.39 401.47 1206.94 388.27 1072.63 531.10 1037.09 654.68 1200.83 642.64
00027809 00000148 919.85 90.38 471.84 732.87 1001.40 399.59 1209.29 387.59 1075.84 532.00 1040.67 653.38 1204.49 642.28
00027810 00000149 925.11 92.19 468.22 729.54 1002.80 399.70 1212.54 385.54 1079.33 531.36 1042.62 653.67 1207.10 641.03
00027811 00000150 925.22 94.19 467.94 727.32 1003.62 399.35 1213.00 385.22 1080.24 531.35 1043.90 654.62 1206.24 642.12
00027812 00000151 925.21 93.05 469.83 729.82 1005.03 398.69 1213.18 384.93 1080.75 531.01 1045.32 655.18 1205.11 643.10
00027813 00000152 927.10 91.30 469.06 736.85 1006.17 398.01 1214.40 383.55 1081.99 530.03 1046.70 656.37 1207.10 643.68
00027814 00000153 919.30 95.65 476.72 735.75 1008.73 396.22 1211.29 380.61 1083.60 524.84 1045.77 652.01 1206.56 639.18
00027815 00000154 919.96 94.75 478.81 737.94 1009.72 394.84 1215.09 380.17 1085.80 528.54 1047.42 653.10 1210.61 641.08
00027816 00000155 925.53 97.50 475.50 736.06 1017.59 393.10 1220.29 381.33 1092.58 529.77 1053.54 649.97 1216.69 640.48
00027817 00000156 934.66 98.95 470.21 736.14 1026.80 394.00 1228.11 382.65 1102.97 528.40 1062.34 649.06 1223.39 639.91
00027818 00000157 938.51 96.75 467.55 733.26 1029.92 395.72 1231.05 384.69 1107.97 529.70 1064.87 648.20 1224.69 639.43
00027819 00000158 940.49 99.60 465.91 730.75 1031.45 397.22 1232.61 386.71 1110.96 532.13 1066.39 649.63 1226.72 641.32
00027820 00000159 942.55 99.55 465.36 736.58 1033.24 401.79 1238.21 389.50 1117.00 538.84 1070.35 654.75 1237.69 644.72
00027821 00000160 945.17 98.46 463.13 738.80 1037.38 406.20 1244.22 393.99 1124.26 542.65 1075.97 661.62 1242.01 651.74
00027822 00000161 945.29 99.37 462.95 735.68 1037.14 409.83 1245.42 397.71 1125.07 546.44 1075.97 664.48 1241.64 654.75
00027823 00000162 944.44 99.31 465.06 736.10 1038.68 409.30 1246.35 397.40 1126.56 544.04 1077.45 662.96 1241.70 653.45
00027824 00000163 946.08 97.55 466.68 739.87 1043.16 407.74 1249.67 394.94 1133.46 543.36 1085.24 664.77 1248.26 654.40
00027825 00000164 949.50 95.83 464.92 743.08 1045.98 410.46 1254.48 397.00 1138.09 546.78 1087.25 668.79 1253.74 657.79
