Video ID: 	XNZvmoVaVgU
H: 	1080
W: 	1920
FPS: 	25.0

FRAME INDEX X0 Y0 W H [Landmarks (5 Points)]

00014251 00000000 675.11 244.39 508.21 652.59 710.22 492.65 898.69 424.18 758.92 587.34 783.52 743.32 939.12 685.01
00014252 00000001 658.29 243.92 508.82 659.78 690.28 498.90 891.34 429.63 748.42 592.93 775.79 761.63 931.11 703.56
00014253 00000002 666.20 246.08 508.72 657.71 703.39 502.34 887.00 433.61 752.34 597.69 779.94 750.63 931.54 692.51
00014254 00000003 670.74 249.31 508.54 661.07 712.85 505.93 896.33 431.50 760.27 602.03 797.65 757.23 952.59 693.97
00014255 00000004 666.09 243.80 512.46 656.18 720.42 512.84 903.18 433.45 774.94 601.48 812.27 756.28 964.13 688.72
00014256 00000005 665.60 243.05 519.67 667.19 724.10 512.08 910.60 429.88 780.10 599.86 814.25 759.04 970.08 689.11
00014257 00000006 661.56 242.10 517.71 687.73 713.72 516.59 897.95 433.82 764.43 603.25 804.89 768.29 963.04 697.44
00014258 DELETE   658.30 238.23 520.43 701.70 700.90 518.51 883.62 440.72 746.74 608.31 788.62 774.75 944.50 707.85
00014259 DELETE   652.53 243.15 516.25 687.51 682.31 515.10 871.08 437.48 729.98 607.97 775.69 776.49 928.54 709.73
00014260 00000009 648.93 237.18 511.38 679.69 674.76 508.16 866.38 427.42 724.96 601.54 767.63 771.31 924.47 702.20
00014261 00000010 656.09 242.91 510.60 664.75 684.37 508.27 873.46 426.38 730.87 592.26 769.95 758.99 930.81 689.14
00014262 00000011 659.62 230.87 509.38 668.10 697.28 505.89 880.63 421.80 746.58 582.82 782.59 748.02 940.61 675.90
00014263 00000012 664.95 226.50 509.30 665.98 704.78 499.86 887.62 419.97 752.19 577.96 787.27 740.95 945.82 672.23
00014264 00000013 666.34 229.67 506.26 659.62 706.26 498.27 889.70 424.00 754.69 581.13 783.62 736.89 942.37 673.02
00014265 00000014 661.80 232.08 507.20 663.06 697.62 497.23 881.00 426.06 744.20 586.34 773.92 738.26 933.50 677.22
00014266 00000015 657.57 240.51 506.17 655.61 685.61 502.03 871.33 433.01 729.23 591.71 761.85 743.73 922.97 685.08
00014267 00000016 647.27 225.89 506.20 669.98 673.09 498.49 860.87 423.56 717.27 591.24 756.85 750.86 912.06 687.66
00014268 00000017 643.36 230.35 504.51 664.67 667.45 496.06 858.06 423.95 714.76 590.15 751.99 748.85 906.54 688.02
00014269 DELETE   649.46 235.49 506.67 648.17 680.32 504.23 867.30 425.23 730.76 585.41 764.13 741.76 922.84 674.69
00014270 00000019 657.54 222.74 509.53 661.56 697.78 509.22 885.61 424.19 752.63 577.15 778.52 739.17 940.08 666.48
00014271 00000020 662.85 228.59 511.70 658.86 706.42 501.20 894.28 420.71 762.21 575.18 787.74 737.27 948.73 668.05
00014272 00000021 664.57 234.14 510.76 660.39 709.08 503.44 893.78 425.94 760.24 580.68 788.72 741.08 948.02 674.50
00014273 00000022 663.45 240.92 509.64 653.03 703.71 503.64 890.76 428.96 755.91 592.54 782.85 743.90 942.49 680.32
00014274 00000023 665.42 240.41 502.80 645.33 706.24 506.16 889.73 435.09 759.57 593.20 782.23 740.26 936.74 680.10
00014275 00000024 673.13 248.34 504.98 637.02 714.94 500.60 896.85 432.91 766.23 589.03 791.35 735.98 940.61 678.48
00014276 00000025 676.62 240.49 502.69 642.40 722.72 498.06 908.24 432.32 776.90 585.95 796.04 734.76 944.11 679.40
00014277 00000026 677.21 238.50 502.97 650.28 728.96 500.02 905.47 435.11 779.13 590.49 805.66 743.17 938.56 688.75
00014278 00000027 674.67 241.98 505.13 654.78 723.27 506.66 900.39 444.42 770.92 600.71 800.53 752.09 933.19 699.92
00014279 00000028 668.69 241.72 510.59 661.39 717.14 510.07 892.55 443.57 766.46 607.97 800.71 758.20 935.33 702.40
00014280 00000029 657.35 240.61 509.28 672.96 705.50 514.13 897.16 441.46 766.95 611.56 798.72 777.97 941.90 717.11
00014281 00000030 665.69 236.41 512.58 677.42 717.49 508.00 895.58 439.52 768.15 609.66 804.14 761.10 950.00 703.14
00014282 00000031 665.27 235.88 514.73 680.58 719.72 511.56 898.36 440.90 770.34 611.30 806.38 760.64 957.08 700.52
00014283 00000032 666.12 232.10 515.53 690.27 718.64 516.98 898.02 444.35 767.35 613.83 806.60 765.84 959.21 703.68
00014284 00000033 666.42 233.60 516.04 699.65 715.53 520.85 897.90 446.10 764.47 614.49 803.01 774.26 957.97 710.34
00014285 00000034 664.05 235.38 516.28 699.10 713.56 520.99 895.88 446.10 763.88 613.99 801.35 772.61 959.66 708.37
00014286 00000035 662.94 240.13 513.90 688.01 717.23 517.40 898.82 443.79 769.44 609.10 804.62 766.72 961.62 703.68
00014287 00000036 662.70 239.58 513.07 673.42 719.13 516.18 900.86 441.02 771.58 606.06 807.86 760.95 962.79 696.98
00014288 00000037 658.99 237.27 510.65 666.38 718.29 512.94 900.98 437.88 774.14 603.12 805.76 753.55 961.97 689.63
00014289 00000038 658.22 233.67 513.12 669.42 715.31 514.05 896.78 436.30 768.69 603.34 802.62 752.11 959.00 685.97
00014290 00000039 657.76 234.75 512.79 668.93 711.39 510.58 894.04 435.85 764.58 604.53 797.96 753.01 955.26 689.44
00014291 00000040 658.80 234.34 510.55 673.04 710.14 511.46 891.28 438.95 760.80 606.05 793.24 755.30 949.76 693.71
00014292 00000041 659.66 233.86 510.60 672.59 710.37 511.82 891.30 439.80 760.51 606.53 793.46 755.90 949.09 694.78
00014293 00000042 659.94 234.06 511.71 669.97 714.47 514.58 895.41 437.55 766.56 603.91 801.93 756.18 955.47 690.84
00014294 00000043 661.92 237.50 513.04 664.27 721.51 515.19 904.01 437.01 776.97 600.61 810.05 755.30 961.18 689.05
00014295 00000044 665.03 239.51 512.13 662.69 725.79 513.70 910.64 436.73 782.03 599.71 811.29 754.87 963.44 689.74
00014296 00000045 666.82 241.13 509.09 661.73 727.89 513.75 911.76 439.69 783.62 602.45 811.28 755.69 963.48 692.96
00014297 00000046 666.69 238.49 509.05 664.54 726.07 514.80 909.95 441.21 779.09 603.69 806.87 755.11 963.20 692.79
00014298 00000047 665.09 239.17 511.60 657.72 723.88 514.80 907.29 439.95 776.06 602.35 805.55 750.75 962.53 687.28
00014299 00000048 662.77 237.59 511.29 655.70 721.09 512.51 906.98 436.93 776.88 597.86 802.62 747.36 960.74 683.39
00014300 00000049 663.69 238.10 511.08 650.32 721.18 508.95 908.63 435.98 778.30 593.32 800.12 742.74 956.42 681.24
00014301 00000050 670.00 240.71 505.20 643.87 722.66 504.58 908.13 436.12 779.51 588.77 799.40 737.34 950.25 679.69
00014302 00000051 671.29 246.11 504.15 639.62 722.61 505.14 905.22 433.10 777.38 584.51 801.66 738.73 947.83 677.83
00014303 00000052 671.14 235.62 498.95 649.93 721.37 499.34 896.23 421.59 776.22 575.01 810.44 740.74 940.74 674.98
00014304 00000053 667.01 220.79 496.06 662.08 721.28 491.36 893.63 412.51 775.49 562.43 813.61 735.74 937.10 668.73
00014305 00000054 663.76 221.67 501.55 659.66 719.93 485.34 894.22 405.34 777.12 556.25 815.26 729.49 941.23 661.00
00014306 00000055 664.41 220.64 503.72 660.69 720.95 483.65 896.04 398.17 777.67 551.08 817.97 730.69 944.55 657.25
00014307 00000056 664.52 218.65 507.88 660.97 720.90 485.10 898.58 395.17 776.80 550.71 816.52 732.56 949.59 655.32
00014308 00000057 662.60 216.28 512.00 662.81 721.64 483.75 901.21 396.86 778.52 552.64 816.59 731.31 950.73 656.64
00014309 00000058 665.21 215.13 509.04 658.99 724.04 483.97 905.64 398.19 782.38 553.77 817.37 729.26 953.60 655.62
00014310 00000059 665.76 214.41 508.20 653.85 725.65 483.90 908.55 398.90 785.28 555.21 818.63 727.97 954.87 655.06
00014311 00000060 667.38 213.62 507.11 654.69 727.08 485.77 911.54 401.95 787.02 557.79 818.27 728.59 957.59 656.62
00014312 00000061 670.02 212.79 507.66 659.40 729.64 494.66 912.91 405.26 787.30 558.62 820.04 733.86 959.51 657.17
00014313 00000062 672.37 217.26 503.73 658.46 728.46 499.09 909.23 408.83 784.17 562.64 816.46 735.89 958.18 658.65
00014314 00000063 670.96 216.44 504.80 663.89 727.89 499.76 906.29 413.90 780.44 565.34 813.28 736.57 954.34 663.25
00014315 00000064 669.62 214.75 504.33 666.77 726.48 500.22 905.89 416.95 781.26 568.50 810.22 737.19 953.33 666.26
00014316 00000065 670.58 218.27 504.09 664.23 727.24 502.40 908.20 419.84 783.05 572.00 809.58 738.22 955.55 667.90
00014317 00000066 671.37 218.01 503.12 667.96 728.74 503.28 910.48 421.68 786.40 573.81 811.75 740.72 956.48 671.23
00014318 00000067 671.93 227.90 501.14 656.98 730.07 502.67 912.17 425.91 792.16 577.68 813.78 739.94 957.00 674.44
00014319 00000068 673.03 237.47 502.29 648.53 729.08 504.55 913.75 426.13 790.96 580.36 813.52 741.70 958.71 674.88
00014320 00000069 672.67 240.59 504.31 646.37 728.86 505.53 914.10 428.44 789.55 581.77 810.86 742.45 957.29 676.89
00014321 00000070 672.49 239.56 503.94 648.80 729.19 504.66 913.14 428.98 787.64 581.33 810.11 741.82 955.68 677.49
00014322 00000071 673.63 238.95 502.45 649.91 729.33 503.71 912.84 427.05 789.33 579.80 811.27 740.77 957.46 675.36
00014323 00000072 673.48 229.88 502.49 656.88 730.28 503.22 912.71 426.58 790.34 579.23 813.14 740.87 957.09 675.47
00014324 00000073 672.82 228.16 503.26 658.51 730.48 502.10 913.51 426.57 790.72 579.02 812.94 740.45 957.18 675.96
00014325 00000074 672.66 229.91 503.32 656.64 729.29 503.14 912.57 426.35 788.92 579.54 811.78 740.63 957.71 675.10
00014326 00000075 672.12 239.02 504.59 643.41 726.80 505.04 912.61 427.76 786.08 580.90 808.27 738.36 958.84 672.57
00014327 00000076 670.91 241.21 505.79 636.79 725.91 506.40 913.86 430.79 785.59 582.74 804.75 735.96 958.72 671.92
00014328 00000077 669.91 240.43 505.32 635.94 726.37 506.30 913.90 430.62 786.03 582.35 804.83 735.44 958.83 671.36
00014329 00000078 670.51 239.46 503.82 633.37 726.41 503.80 912.97 428.65 786.10 580.05 806.21 735.11 957.25 671.39
00014330 00000079 671.61 231.08 502.13 642.88 727.83 501.40 913.56 424.64 789.74 576.19 808.96 733.24 961.03 667.72
00014331 00000080 669.67 225.14 504.83 652.64 727.78 501.18 912.22 418.15 791.69 574.79 816.03 736.65 965.40 665.53
00014332 00000081 668.16 225.91 509.23 646.09 727.08 501.45 915.72 414.59 794.50 571.00 818.39 735.50 967.95 660.87
00014333 00000082 667.75 227.98 510.15 640.74 727.12 496.14 921.01 411.92 796.46 565.48 816.71 729.29 970.39 656.81
00014334 00000083 666.31 219.01 509.47 646.98 732.34 489.31 920.13 403.34 797.71 554.51 823.37 727.59 966.27 653.68
00014335 00000084 664.45 226.11 513.22 653.38 724.34 483.48 913.11 389.18 787.69 539.16 821.42 732.29 963.31 651.05
00014336 00000085 654.97 210.92 513.82 655.62 710.48 455.19 898.12 371.92 773.17 528.27 811.67 706.27 947.65 633.82
00014337 00000086 654.01 185.33 512.25 660.09 697.90 441.25 890.73 349.33 764.64 510.29 792.14 696.32 930.42 618.02
00014338 00000087 652.63 204.75 505.88 629.97 685.42 437.64 885.29 349.74 747.66 497.40 767.35 685.98 923.10 614.27
00014339 00000088 662.19 199.95 488.29 612.29 687.98 420.44 882.05 337.89 731.46 478.71 749.45 666.15 905.35 598.32
00014340 00000089 665.33 186.67 490.38 615.43 693.98 414.74 880.81 334.04 722.48 462.38 746.02 648.70 898.00 581.95
00014341 00000090 661.75 182.61 487.41 613.61 687.51 409.85 880.85 310.93 718.53 446.77 747.27 648.23 898.63 567.22
00014342 00000091 658.65 172.51 485.93 611.64 684.78 403.34 869.95 317.80 712.22 440.27 737.96 638.15 886.49 566.62
00014343 00000092 658.21 168.80 485.32 611.99 680.47 401.41 872.01 317.87 710.77 440.68 732.56 636.10 888.60 566.64
00014344 00000093 656.35 177.20 494.25 608.39 679.04 402.23 873.10 319.71 713.21 448.20 735.16 639.88 889.38 571.29
00014345 00000094 668.82 180.79 488.75 618.14 679.65 408.54 871.60 319.49 715.45 460.72 739.97 641.67 899.55 566.41
00014346 00000095 663.95 213.13 479.08 590.22 689.93 417.01 879.69 338.05 724.50 472.52 742.18 658.14 894.12 593.58
00014347 00000096 661.50 219.60 485.68 600.53 694.82 427.52 877.39 343.58 728.34 478.77 753.89 674.80 901.53 605.86
00014348 00000097 657.00 229.14 494.42 618.06 693.11 431.09 877.95 349.61 732.81 494.95 765.51 691.85 915.51 623.30
00014349 00000098 654.00 223.69 493.88 626.53 689.75 439.68 874.73 361.39 735.10 509.02 766.22 699.94 919.36 634.27
00014350 00000099 648.81 231.89 506.05 630.76 687.83 448.31 868.47 369.81 728.92 521.91 769.90 711.16 918.61 644.02
00014351 00000100 647.85 224.16 494.75 630.40 669.55 457.97 862.22 369.21 722.98 529.74 761.77 713.56 914.23 638.27
00014352 00000101 645.01 225.09 496.56 635.59 665.91 459.42 859.54 368.43 716.84 533.11 756.13 714.47 910.91 637.06
00014353 00000102 642.94 232.80 499.79 623.14 679.59 462.09 859.53 377.53 722.62 533.36 762.94 716.15 910.22 644.00
00014354 00000103 642.41 236.86 504.72 622.00 678.48 466.97 861.91 379.31 723.77 533.20 763.46 720.59 910.05 646.37
00014355 00000104 648.12 229.09 499.12 626.30 667.77 471.06 865.45 373.57 722.75 536.09 762.35 720.72 915.02 638.10
00014356 00000105 649.45 228.41 508.38 614.71 669.22 468.96 869.47 365.64 728.83 529.32 768.94 718.47 917.52 631.54
00014357 00000106 650.79 216.46 508.70 624.03 674.83 468.70 873.70 369.07 737.45 528.57 768.43 711.08 922.38 627.30
00014358 00000107 648.38 224.62 512.48 616.90 684.83 476.39 878.03 373.74 750.79 528.90 781.40 708.90 932.73 622.49
00014359 00000108 650.98 225.07 518.82 624.66 694.37 478.41 884.63 378.81 756.95 534.80 788.16 709.29 941.80 625.21
CROP_BBOX: 361 0 1441 1080
