Video ID: 	oVmvJqyykuc
H: 	1080
W: 	1920
FPS: 	25.0

FRAME INDEX X0 Y0 W H [Landmarks (5 Points)]

00000290 00000000 1074.06 106.85 456.64 677.28 1121.96 368.05 1303.66 374.57 1132.33 491.32 1130.78 617.57 1277.16 623.43
00000291 DELETE   1077.61 100.33 452.38 684.65 1123.84 369.14 1295.95 376.47 1138.50 482.66 1129.12 613.42 1253.16 621.38
00000292 DELETE   1081.66 102.80 451.92 682.44 1128.64 368.05 1302.16 379.06 1143.35 482.53 1131.35 612.06 1256.05 622.99
00000293 DELETE   1081.71 107.20 452.78 678.27 1136.64 365.54 1313.35 376.87 1144.02 482.47 1137.57 613.13 1267.84 623.67
00000294 00000004 1089.33 107.12 450.51 678.36 1142.08 363.38 1318.35 374.25 1153.53 478.62 1143.46 611.89 1272.48 622.10
00000295 DELETE   1097.75 103.59 450.83 694.72 1151.86 364.55 1327.04 373.33 1162.91 477.43 1154.40 617.19 1281.83 626.16
00000296 DELETE   1098.08 101.06 454.11 704.34 1151.04 363.13 1328.27 373.40 1162.91 483.09 1153.77 622.29 1288.77 632.35
00000297 00000007 1098.60 102.39 452.75 700.41 1148.91 367.26 1329.91 377.49 1164.31 489.25 1152.25 624.71 1295.71 634.61
00000298 DELETE   1095.90 106.00 453.14 698.84 1144.56 375.60 1327.18 385.52 1160.54 498.54 1146.78 628.58 1295.53 638.32
00000299 00000009 1084.47 110.52 458.85 695.42 1137.93 377.63 1322.07 388.73 1153.10 503.91 1141.22 629.79 1293.88 639.86
00000300 00000010 1088.73 109.76 461.28 699.45 1142.60 378.92 1326.85 388.33 1157.88 503.44 1146.46 631.65 1298.46 640.69
00000301 00000011 1092.95 108.52 462.34 698.96 1144.90 378.24 1329.81 387.45 1161.64 501.75 1148.19 631.67 1297.18 641.07
00000302 00000012 1087.49 105.12 463.61 708.20 1143.62 374.46 1327.16 383.85 1157.05 499.47 1144.95 634.11 1286.94 643.72
00000303 00000013 1082.41 108.14 463.22 704.33 1141.50 373.52 1324.43 382.68 1155.11 497.34 1142.23 635.53 1278.18 644.85
00000304 00000014 1080.99 104.75 463.13 697.91 1134.16 373.85 1323.17 378.84 1151.11 499.51 1138.55 636.27 1284.83 641.74
00000305 00000015 1083.09 102.02 466.32 700.74 1136.08 369.57 1327.07 375.94 1155.83 497.64 1141.27 632.04 1292.46 638.61
00000306 00000016 1090.75 98.51 466.27 709.23 1146.57 369.15 1328.66 375.38 1158.75 492.54 1149.64 631.00 1291.21 637.61
00000307 00000017 1086.76 98.91 469.38 717.06 1146.60 366.06 1325.11 375.41 1155.79 492.74 1148.54 631.80 1288.60 640.83
00000308 00000018 1089.87 98.24 466.51 724.35 1147.51 370.29 1323.94 376.48 1153.82 494.98 1150.28 639.67 1286.45 646.16
00000309 00000019 1089.86 95.68 466.85 722.59 1141.81 372.14 1325.23 381.45 1150.57 504.82 1144.41 640.53 1289.52 649.64
00000310 00000020 1091.80 93.27 465.09 722.54 1141.79 372.28 1328.85 384.08 1153.35 507.98 1144.62 640.60 1292.91 651.81
00000311 00000021 1100.61 94.79 461.43 722.01 1152.63 377.09 1334.21 387.63 1162.06 503.98 1150.58 640.92 1291.36 651.85
00000312 00000022 1102.70 99.49 464.34 724.59 1156.47 378.35 1336.24 389.40 1165.66 502.52 1153.14 642.50 1289.78 654.23
00000313 00000023 1106.95 96.22 464.49 725.95 1160.10 375.65 1341.03 389.88 1167.77 502.44 1156.61 635.75 1300.40 649.93
00000314 00000024 1112.81 95.48 467.18 721.93 1163.32 374.32 1347.78 389.79 1171.42 502.35 1161.88 630.06 1316.15 644.56
00000315 00000025 1119.81 94.46 464.79 729.28 1168.74 375.24 1352.82 390.98 1176.51 505.20 1167.22 634.75 1319.77 649.34
00000316 00000026 1124.81 93.78 459.74 738.14 1170.96 379.05 1355.30 391.25 1182.80 507.03 1168.29 646.75 1313.60 659.23
00000317 00000027 1122.61 101.18 458.45 726.59 1168.50 382.03 1354.10 396.25 1182.49 510.26 1165.22 645.83 1311.78 660.03
00000318 00000028 1120.82 110.04 458.16 732.55 1166.80 385.97 1353.44 398.54 1179.51 512.05 1162.47 652.35 1314.19 664.91
00000319 00000029 1111.55 119.88 466.34 739.75 1159.38 391.87 1351.95 400.15 1174.22 517.49 1161.61 662.93 1318.36 671.74
00000320 00000030 1100.10 129.96 465.29 735.84 1152.61 395.56 1345.96 407.80 1168.46 523.20 1151.98 664.48 1316.47 676.10
00000321 00000031 1091.53 135.26 464.77 717.70 1146.90 399.26 1340.25 411.89 1163.22 524.81 1143.63 662.22 1308.53 674.37
00000322 00000032 1083.94 138.76 465.87 698.02 1138.73 399.56 1333.46 411.83 1156.93 523.36 1134.27 656.65 1301.86 668.38
00000323 00000033 1082.45 140.51 465.42 691.04 1137.78 399.44 1333.99 410.89 1158.36 522.45 1134.03 653.20 1305.12 664.09
00000324 00000034 1084.60 141.12 464.15 693.28 1141.13 394.92 1336.31 408.47 1158.26 517.45 1135.79 644.53 1307.43 657.16
00000325 00000035 1091.25 129.26 466.79 703.42 1147.13 388.47 1334.30 401.65 1162.68 506.83 1145.30 632.54 1313.80 644.01
00000326 00000036 1086.08 127.98 469.32 702.61 1144.49 382.48 1334.22 398.83 1160.69 500.84 1140.29 623.67 1317.02 637.40
00000327 00000037 1080.60 129.83 468.22 712.42 1141.09 383.09 1329.09 395.43 1156.74 499.15 1140.63 630.84 1314.32 640.89
00000328 00000038 1075.49 132.11 466.24 717.83 1138.87 379.26 1329.59 393.28 1143.55 497.07 1132.98 631.69 1307.55 643.44
00000329 00000039 1069.68 133.80 469.07 711.85 1128.75 386.60 1322.09 396.79 1135.70 500.95 1125.45 637.89 1303.78 646.59
00000330 00000040 1068.25 131.68 465.12 717.61 1122.08 387.06 1313.23 392.36 1135.86 502.77 1127.49 644.97 1298.33 649.29
00000331 00000041 1065.19 131.09 466.17 722.13 1117.62 386.52 1311.50 390.76 1134.62 502.55 1124.59 647.47 1294.50 650.79
00000332 00000042 1060.16 133.91 476.85 720.71 1122.11 386.26 1319.82 396.55 1133.44 502.07 1120.75 643.12 1296.25 651.81
00000333 00000043 1061.10 131.40 478.43 720.50 1126.31 383.40 1327.94 390.70 1143.46 494.91 1124.98 639.09 1302.56 645.88
00000334 00000044 1064.66 120.62 474.90 726.60 1131.64 378.75 1332.75 383.76 1150.45 487.17 1130.66 636.69 1306.27 641.95
00000335 00000045 1065.42 119.85 475.49 724.38 1131.69 375.75 1330.98 380.59 1147.53 482.75 1130.07 632.83 1302.79 638.01
00000336 00000046 1062.43 121.96 473.69 719.12 1125.93 376.11 1320.68 379.82 1134.59 480.04 1121.66 634.02 1288.20 638.40
00000337 00000047 1049.32 118.98 475.32 723.28 1108.63 381.31 1302.36 377.57 1117.20 478.77 1104.71 642.88 1265.47 642.22
00000338 00000048 1043.25 120.22 466.46 728.70 1091.64 395.11 1270.30 387.17 1095.35 488.62 1090.92 652.88 1232.74 648.59
00000339 DELETE   1027.05 139.36 470.60 707.48 1075.36 408.33 1261.19 397.41 1078.68 494.66 1080.45 657.98 1221.00 652.17
00000340 00000050 1023.79 143.68 469.36 704.90 1074.96 409.42 1253.46 400.92 1069.80 498.86 1075.69 663.07 1210.06 658.99
00000341 00000051 1022.44 133.16 465.58 712.20 1077.85 401.44 1248.61 396.56 1063.73 495.80 1075.12 659.14 1203.08 657.77
00000342 00000052 1025.44 131.41 464.68 710.63 1080.61 398.35 1249.35 390.64 1065.63 492.15 1080.03 657.30 1203.66 653.88
00000343 00000053 1028.45 131.35 465.18 710.65 1084.05 397.72 1250.26 388.48 1066.86 489.74 1083.17 657.12 1202.95 652.42
00000344 00000054 1028.82 132.95 463.97 708.01 1084.49 397.65 1250.44 388.00 1067.34 489.05 1083.71 656.58 1202.04 651.57
00000345 00000055 1032.90 132.44 460.93 710.18 1087.51 396.59 1255.10 387.20 1072.16 488.05 1085.66 657.18 1205.38 652.57
00000346 00000056 1037.40 142.70 462.19 700.76 1093.56 395.98 1256.75 388.27 1068.33 487.36 1081.94 660.61 1208.01 655.73
00000347 00000057 1037.66 148.36 467.28 698.98 1099.14 398.28 1265.33 393.76 1077.07 488.30 1084.58 661.03 1211.06 658.78
00000348 00000058 1040.42 153.22 467.58 697.33 1107.25 401.02 1275.84 397.59 1089.56 490.36 1094.16 663.64 1220.15 662.03
00000349 00000059 1045.17 154.07 462.19 708.52 1116.11 403.16 1282.27 400.58 1099.77 495.20 1104.53 670.21 1230.32 668.80
00000350 00000060 1049.98 146.23 459.83 703.09 1111.61 398.76 1287.53 399.37 1105.93 501.77 1105.14 660.60 1244.94 662.42
00000351 00000061 1049.56 143.22 458.64 693.39 1106.21 397.04 1289.56 398.59 1109.18 501.96 1101.13 656.29 1246.89 659.91
00000352 00000062 1049.43 137.89 455.02 691.64 1095.09 400.71 1287.72 396.32 1114.48 502.56 1097.19 655.54 1240.00 655.40
00000353 00000063 1050.19 137.20 451.65 691.22 1095.14 400.78 1277.47 399.96 1108.40 503.76 1092.04 651.05 1232.53 652.79
00000354 00000064 1047.70 140.95 451.45 694.26 1091.00 408.15 1271.66 404.91 1103.37 506.64 1088.24 657.99 1228.72 657.75
00000355 00000065 1043.59 142.04 451.01 693.80 1084.82 410.85 1266.07 408.87 1095.98 508.71 1080.48 658.98 1220.74 659.86
00000356 00000066 1034.65 151.38 451.88 675.13 1080.62 408.49 1265.38 408.97 1099.00 509.22 1078.17 656.48 1213.09 660.15
00000357 00000067 1033.30 151.77 448.27 664.79 1071.81 407.13 1251.92 408.57 1082.54 514.36 1070.20 654.35 1210.14 658.41
00000358 00000068 1029.42 148.12 448.19 667.60 1069.65 404.50 1244.24 406.04 1071.48 511.74 1066.32 652.31 1202.89 656.02
00000359 00000069 1022.28 147.90 458.20 672.71 1075.47 406.37 1238.76 401.63 1064.63 504.41 1068.46 654.61 1189.29 653.26
00000360 00000070 1015.13 149.56 458.59 672.43 1077.60 406.49 1235.33 401.12 1058.77 499.31 1064.36 653.75 1173.74 651.75
00000361 00000071 1010.23 148.53 460.95 668.87 1074.11 404.30 1232.46 399.31 1054.86 497.44 1059.10 650.89 1165.92 649.46
00000362 00000072 1010.50 146.93 460.95 666.94 1072.82 403.58 1235.15 399.06 1057.91 497.68 1057.10 650.25 1165.95 649.40
00000363 00000073 1010.20 144.45 461.22 670.52 1071.57 404.39 1238.19 398.81 1062.21 498.51 1058.45 652.45 1170.58 651.03
00000364 00000074 1015.18 140.89 460.97 672.20 1073.15 399.94 1248.23 397.09 1073.89 497.67 1065.92 649.82 1186.06 651.15
00000365 00000075 1015.15 143.56 460.03 672.84 1067.10 397.98 1251.99 400.73 1077.07 504.00 1063.07 649.16 1199.19 654.79
00000366 00000076 1009.66 146.83 463.90 674.19 1064.22 403.24 1251.20 404.50 1078.02 508.64 1062.17 652.67 1204.58 656.78
00000367 00000077 1002.97 152.71 465.77 674.25 1061.69 412.24 1247.67 410.39 1075.68 515.05 1061.53 660.52 1200.88 661.47
00000368 00000078 1000.95 149.72 458.04 677.28 1051.70 417.38 1240.43 414.59 1067.41 524.32 1050.83 670.39 1195.77 670.15
00000369 00000079 997.61 150.89 454.22 674.79 1040.80 418.81 1229.98 417.12 1052.07 526.04 1040.01 671.83 1189.95 672.30
00000370 00000080 997.39 144.23 453.95 689.08 1033.10 417.05 1215.23 411.89 1048.26 525.09 1042.38 668.21 1183.54 666.85
00000371 00000081 995.38 148.47 454.31 687.96 1031.75 422.24 1208.22 413.34 1042.99 526.72 1043.90 671.47 1180.53 666.68
00000372 00000082 989.98 153.63 450.50 694.19 1028.09 420.51 1207.71 415.24 1042.06 526.84 1038.19 671.23 1183.56 669.00
00000373 00000083 987.91 152.28 450.41 698.73 1025.01 419.15 1207.06 413.33 1039.90 526.05 1036.08 673.16 1186.17 670.24
00000374 00000084 988.51 154.64 450.15 689.90 1025.81 420.32 1208.24 417.19 1041.30 530.00 1036.24 668.94 1191.54 667.82
00000375 00000085 981.36 153.16 453.37 682.56 1023.25 422.15 1204.44 415.99 1038.02 528.81 1033.82 665.29 1185.81 661.92
00000376 00000086 978.06 155.33 455.35 692.06 1022.39 418.44 1203.35 416.41 1035.31 528.88 1032.22 667.86 1186.79 667.48
00000377 00000087 974.95 157.15 453.77 716.67 1023.27 411.39 1203.80 413.94 1036.66 527.36 1032.70 678.69 1180.48 682.43
00000378 00000088 970.57 150.00 458.97 702.83 1021.07 413.98 1200.70 415.44 1031.20 524.72 1028.30 669.52 1172.59 672.35
00000379 00000089 968.25 148.92 458.95 688.27 1014.41 413.51 1198.14 412.37 1028.63 522.27 1018.48 663.00 1163.53 664.22
00000380 00000090 971.45 146.65 459.36 689.87 1017.35 413.82 1199.30 412.47 1032.08 521.69 1021.54 662.49 1165.17 663.82
00000381 00000091 973.52 144.25 459.91 697.64 1020.01 412.15 1201.02 412.79 1034.08 523.33 1026.15 664.05 1168.60 667.10
00000382 00000092 972.81 142.20 460.26 701.45 1017.75 411.68 1200.85 410.24 1031.13 522.48 1024.51 662.93 1171.22 663.85
00000383 00000093 971.67 144.38 463.76 712.42 1019.49 413.13 1202.75 411.76 1031.96 524.79 1029.09 670.39 1178.74 670.86
00000384 00000094 974.89 146.52 462.37 722.54 1024.13 411.21 1203.06 409.30 1034.10 525.47 1038.10 675.53 1189.26 675.22
00000385 00000095 979.04 148.46 459.77 720.20 1027.19 409.01 1205.05 407.67 1037.37 525.80 1043.41 674.65 1195.29 674.73
00000386 00000096 978.61 147.21 459.82 710.09 1026.30 412.26 1205.27 412.95 1038.33 530.39 1038.46 669.81 1191.30 671.59
00000387 00000097 977.78 150.75 456.42 691.68 1024.59 415.07 1203.48 418.71 1038.89 530.98 1030.55 661.97 1178.14 666.92
00000388 00000098 978.36 141.23 454.75 700.71 1023.05 412.57 1194.71 414.84 1032.70 528.04 1024.36 660.51 1163.94 664.30
00000389 00000099 974.18 154.19 458.74 696.03 1025.54 419.92 1202.86 423.37 1042.48 534.28 1033.89 670.29 1170.13 675.46
00000390 00000100 973.46 155.26 455.76 694.91 1023.67 421.12 1202.13 425.89 1040.28 536.88 1030.82 672.83 1168.91 679.21
00000391 00000101 970.92 154.41 456.77 686.33 1019.06 420.68 1199.14 425.06 1037.90 536.97 1025.73 669.27 1165.92 675.28
00000392 00000102 974.12 144.50 451.85 702.20 1016.38 417.03 1189.09 417.60 1026.91 532.83 1021.24 668.43 1157.71 671.21
00000393 00000103 972.07 138.83 454.02 701.55 1015.02 410.63 1187.53 413.96 1023.77 531.55 1019.26 663.27 1158.56 668.16
00000394 00000104 971.14 137.75 458.07 701.72 1013.78 408.20 1188.17 411.40 1023.71 527.08 1017.14 662.51 1157.46 667.30
00000395 00000105 968.13 134.08 460.87 700.71 1011.92 402.68 1188.60 405.83 1023.52 521.09 1014.34 658.26 1153.62 663.04
00000396 00000106 967.48 128.97 463.71 698.45 1013.25 401.25 1190.43 403.57 1024.49 517.34 1014.86 652.15 1154.34 656.25
00000397 00000107 973.48 124.72 460.97 705.90 1019.77 399.21 1198.12 400.53 1032.12 514.85 1020.01 652.81 1160.51 656.23
00000398 00000108 976.58 126.81 458.78 711.15 1024.91 395.86 1204.86 397.72 1039.26 511.64 1025.07 654.42 1164.75 658.18
00000399 00000109 982.81 122.72 456.74 707.76 1032.72 390.52 1214.19 394.17 1052.26 506.78 1033.62 647.38 1175.82 652.74
00000400 00000110 990.59 121.76 455.37 704.68 1039.22 385.73 1222.24 391.42 1061.46 506.56 1042.77 641.65 1185.24 648.68
00000401 00000111 994.75 125.02 453.54 704.85 1042.35 384.07 1229.08 391.27 1066.65 508.34 1046.67 642.77 1193.11 651.04
00000402 00000112 990.24 122.42 453.12 709.12 1039.56 386.17 1229.02 392.16 1068.10 509.06 1043.26 642.79 1195.33 650.08
00000403 00000113 982.60 124.93 454.22 710.15 1034.23 391.02 1221.95 395.00 1060.69 513.71 1039.12 648.63 1194.94 653.90
00000404 00000114 978.32 127.70 459.08 718.40 1025.88 400.07 1215.58 396.94 1050.04 520.18 1035.72 659.06 1202.64 657.64
00000405 00000115 972.69 137.26 460.36 716.43 1016.48 412.82 1204.55 401.10 1041.61 530.20 1033.56 672.87 1199.89 663.50
00000406 00000116 967.67 143.75 460.30 711.10 1012.33 418.98 1197.39 409.15 1036.26 538.53 1030.20 673.03 1195.54 665.24
00000407 00000117 961.97 153.81 458.35 693.32 1010.68 423.97 1200.05 420.92 1040.73 544.99 1027.85 673.63 1193.34 672.01
00000408 00000118 959.97 154.94 457.06 689.51 1005.78 428.12 1191.95 424.19 1032.99 547.06 1022.91 675.07 1184.71 672.62
00000409 00000119 954.46 156.49 460.23 689.56 1001.28 429.58 1185.03 423.90 1025.44 547.15 1019.63 677.89 1177.80 674.07
00000410 00000120 947.95 158.06 462.75 694.02 995.57 429.89 1178.37 424.73 1018.56 549.76 1015.79 681.00 1173.32 677.18
00000411 00000121 947.80 159.33 465.54 692.24 995.23 430.48 1175.30 425.25 1016.01 549.23 1013.60 682.40 1160.16 679.17
00000412 00000122 942.17 158.04 464.85 692.26 992.44 432.10 1172.04 423.90 1011.04 548.01 1010.44 682.53 1151.39 677.05
00000413 00000123 933.52 160.71 468.23 690.42 984.28 433.99 1164.02 424.06 1001.16 550.02 1006.24 683.31 1150.95 675.50
00000414 00000124 930.22 164.87 470.61 693.56 982.29 443.05 1158.71 428.93 999.70 551.33 1008.64 687.52 1154.74 675.52
00000415 00000125 925.35 170.25 471.83 691.49 976.02 450.60 1152.64 432.52 995.14 554.09 1005.66 693.35 1153.60 677.91
00000416 00000126 925.14 170.27 470.98 691.56 975.43 457.06 1150.18 435.64 993.57 557.98 1006.17 697.20 1155.85 678.89
00000417 00000127 933.75 161.68 461.17 700.81 974.11 461.02 1140.76 437.23 984.46 556.30 1000.21 695.43 1142.73 675.20
00000418 00000128 922.12 175.62 468.46 683.18 967.71 469.12 1147.04 441.80 990.39 564.99 1000.58 703.80 1153.44 680.80
00000419 00000129 925.57 174.86 468.03 697.94 973.82 476.08 1143.53 447.94 990.16 567.93 1004.58 704.84 1156.46 679.94
00000420 00000130 923.70 178.02 470.45 704.95 973.21 480.23 1144.14 448.05 990.81 569.83 1006.61 710.94 1159.97 682.44
00000421 00000131 920.54 186.17 473.78 705.77 974.60 475.19 1150.55 448.69 996.64 574.49 1012.06 721.83 1158.29 698.99
00000422 00000132 920.38 184.59 473.50 708.00 976.44 473.91 1155.51 448.15 1001.70 571.69 1012.85 727.92 1149.98 706.59
00000423 00000133 922.40 183.55 474.27 687.64 979.77 470.37 1167.03 446.81 1012.21 565.62 1010.90 715.16 1152.25 696.06
00000424 00000134 922.92 178.18 479.71 681.99 987.14 458.97 1182.48 441.86 1029.92 563.12 1011.58 701.18 1167.66 687.38
00000425 00000135 933.09 171.89 473.26 685.75 998.07 455.24 1191.65 437.75 1042.05 555.16 1022.99 695.61 1173.80 681.89
00000426 00000136 943.33 163.66 469.80 693.65 1009.28 448.79 1200.52 432.08 1053.73 546.25 1034.59 690.72 1180.58 678.16
00000427 00000137 958.47 152.24 457.24 700.49 1020.03 438.64 1209.91 419.42 1063.31 536.58 1044.58 684.48 1187.85 670.20
00000428 00000138 967.49 144.82 453.21 693.30 1031.65 413.71 1235.81 400.58 1094.86 524.00 1050.96 664.35 1216.95 654.54
00000429 00000139 980.21 136.72 455.74 685.13 1046.80 403.40 1258.39 394.82 1113.17 516.56 1063.99 650.78 1240.43 643.28
00000430 00000140 987.56 122.81 451.58 689.03 1064.80 394.00 1275.53 390.30 1137.14 511.82 1080.41 638.99 1259.71 634.88
00000431 00000141 1002.79 117.94 442.10 698.40 1081.82 390.81 1293.15 383.79 1156.17 509.44 1100.82 642.14 1277.14 635.46
00000432 00000142 1013.13 107.22 443.84 709.07 1098.46 388.77 1308.40 380.25 1182.25 503.20 1117.93 638.88 1285.57 632.55
00000433 00000143 1022.67 111.32 443.72 702.90 1114.13 388.89 1329.67 381.86 1206.00 504.24 1132.24 638.90 1301.39 634.40
00000434 00000144 1037.58 110.24 445.92 704.81 1130.06 383.61 1345.20 378.37 1222.67 502.48 1151.21 640.33 1318.50 636.40
00000435 00000145 1040.59 111.30 443.58 708.14 1137.18 384.96 1351.13 382.72 1232.41 504.23 1155.92 641.88 1324.34 639.79
00000436 00000146 1038.35 116.00 445.09 708.00 1138.67 387.39 1353.32 388.69 1234.82 507.67 1149.01 639.75 1327.70 640.43
00000437 00000147 1040.68 118.37 445.86 705.28 1142.58 388.68 1357.05 390.93 1239.86 508.87 1150.73 635.63 1338.29 636.63
00000438 00000148 1043.81 119.73 445.84 702.09 1145.73 386.13 1362.47 387.87 1245.60 503.04 1152.83 630.59 1346.93 630.80
00000439 00000149 1047.16 120.98 448.60 701.97 1147.48 381.99 1368.56 381.60 1250.38 498.96 1157.23 630.01 1358.01 628.15
00000440 00000150 1051.85 121.05 449.66 703.50 1151.16 375.73 1374.52 376.53 1254.91 495.18 1160.51 628.05 1363.31 626.99
00000441 00000151 1055.29 119.47 451.08 707.80 1157.08 375.12 1380.86 376.43 1259.16 492.72 1164.81 627.94 1368.80 627.13
00000442 00000152 1058.94 121.97 451.68 711.73 1160.33 379.38 1384.77 380.87 1260.34 493.19 1167.41 632.30 1371.32 632.15
00000443 00000153 1070.55 128.14 449.00 710.48 1170.58 385.01 1395.69 387.10 1269.32 493.04 1175.97 635.74 1378.48 636.35
00000444 00000154 1085.43 139.94 443.47 710.28 1186.03 385.95 1403.43 387.39 1276.11 486.59 1192.74 633.98 1381.71 634.93
00000445 00000155 1092.82 136.99 446.41 719.88 1192.72 388.28 1412.95 390.13 1283.11 487.49 1198.13 636.86 1391.19 637.98
00000446 00000156 1101.44 141.45 444.50 717.44 1198.51 389.93 1418.72 397.01 1283.80 489.19 1197.95 637.73 1391.70 643.51
00000447 00000157 1104.47 143.55 440.95 717.64 1197.93 389.78 1416.82 400.05 1277.46 491.61 1192.14 637.68 1386.64 646.20
00000448 00000158 1106.63 146.75 442.55 718.08 1199.02 389.41 1417.56 401.83 1275.61 494.87 1188.70 638.33 1382.70 649.00
00000449 00000159 1109.91 148.67 445.32 717.76 1203.90 389.82 1423.02 406.70 1277.85 498.34 1190.29 640.08 1382.76 654.46
00000450 00000160 1114.64 148.98 446.88 718.99 1207.69 389.77 1426.80 409.49 1277.19 503.65 1191.82 641.62 1384.45 657.77
00000451 00000161 1117.45 148.44 444.50 723.34 1208.44 390.15 1424.53 412.55 1274.20 512.11 1189.54 644.21 1380.15 662.81
00000452 00000162 1120.17 151.98 440.56 723.34 1209.32 394.53 1420.82 418.75 1268.95 521.75 1189.73 649.47 1374.24 669.52
