Video ID: 	q91eZF9_ggI
H: 	1080
W: 	1920
FPS: 	25.0

FRAME INDEX X0 Y0 W H [Landmarks (5 Points)]

00028871 00000000 1167.71 199.03 466.13 600.76 1196.89 474.38 1363.80 427.59 1216.43 546.12 1243.76 674.30 1372.26 639.16
00028872 DELETE   1173.52 200.47 469.39 603.02 1203.10 476.06 1373.26 426.11 1225.80 544.55 1247.30 677.17 1380.67 639.51
00028873 DELETE   1175.87 199.44 475.92 601.42 1216.91 482.53 1382.42 423.03 1246.22 537.57 1262.96 679.07 1401.34 632.58
00028874 DELETE   1185.10 186.30 485.57 612.17 1229.41 473.49 1390.00 425.63 1251.07 536.88 1271.72 667.16 1401.89 627.69
00028875 00000004 1192.30 182.86 484.23 612.47 1235.08 470.28 1399.94 421.42 1258.89 532.22 1277.52 663.27 1411.06 623.24
00028876 00000005 1191.44 182.67 487.87 606.39 1236.13 467.05 1406.57 419.41 1265.80 529.96 1280.22 660.10 1417.43 620.96
00028877 00000006 1192.47 183.50 483.42 598.00 1237.26 464.07 1410.31 419.34 1271.25 529.03 1278.36 653.42 1421.60 616.65
00028878 00000007 1187.36 188.97 478.83 584.15 1232.56 458.37 1423.61 418.83 1278.24 529.01 1273.08 650.14 1429.45 617.69
00028879 00000008 1190.20 180.92 486.42 601.85 1239.38 455.86 1419.37 415.40 1280.19 523.48 1279.04 648.98 1431.09 615.76
00028880 00000009 1187.49 182.15 484.64 620.94 1243.41 456.52 1417.84 413.82 1281.14 521.51 1287.70 655.17 1433.27 619.93
00028881 00000010 1180.12 185.82 487.04 615.23 1236.81 458.04 1415.06 413.64 1279.39 527.32 1285.68 658.34 1432.91 621.68
00028882 00000011 1165.29 196.87 481.87 598.67 1224.51 467.14 1416.55 423.65 1271.59 537.15 1261.14 663.36 1425.43 625.81
00028883 00000012 1157.23 202.89 479.47 592.58 1213.11 473.96 1399.15 429.92 1260.93 540.98 1253.83 665.63 1412.11 628.24
00028884 00000013 1148.21 204.95 486.03 591.38 1207.73 480.29 1389.46 434.81 1261.27 547.23 1256.39 670.07 1406.79 631.72
00028885 00000014 1144.68 204.30 486.98 592.21 1205.71 483.28 1392.21 435.73 1264.83 547.48 1256.27 672.12 1410.07 632.21
00028886 00000015 1141.72 204.55 488.97 591.61 1205.81 483.70 1393.23 436.01 1269.68 550.22 1258.52 672.29 1413.35 632.01
00028887 00000016 1138.11 205.63 486.98 592.36 1203.98 482.37 1392.09 433.98 1269.16 548.43 1258.55 673.73 1411.83 632.87
00028888 00000017 1131.74 207.75 488.51 592.05 1195.81 483.17 1387.00 431.33 1263.13 548.86 1253.02 674.03 1411.50 630.09
00028889 00000018 1128.66 207.43 486.87 597.83 1190.05 481.50 1379.66 428.14 1253.24 549.91 1249.52 677.94 1407.36 632.50
00028890 00000019 1124.23 202.72 487.59 608.36 1187.28 480.75 1373.74 427.08 1245.88 547.99 1248.77 682.04 1402.25 636.25
00028891 00000020 1124.88 204.30 486.73 607.65 1187.51 480.40 1374.42 425.80 1245.08 545.76 1248.98 682.33 1403.68 635.63
00028892 00000021 1126.42 204.07 488.80 608.82 1188.95 482.81 1378.79 425.97 1248.87 545.15 1251.15 683.89 1407.24 635.53
00028893 00000022 1127.37 204.17 489.92 610.86 1190.94 484.05 1380.61 428.04 1251.67 545.87 1253.55 685.24 1407.91 637.65
00028894 DELETE   1127.04 204.26 488.59 613.19 1189.16 492.44 1380.14 430.29 1251.33 544.64 1250.99 689.27 1407.80 636.74
00028895 DELETE   1120.49 206.15 494.03 611.07 1184.56 483.77 1374.80 429.75 1245.35 546.23 1246.78 686.42 1398.56 640.82
00028896 DELETE   1119.27 204.22 490.48 614.49 1181.47 483.59 1370.50 429.40 1238.35 547.51 1241.65 689.36 1391.68 643.83
00028897 00000026 1120.93 202.21 487.39 615.43 1181.49 477.48 1368.48 427.63 1236.52 548.70 1241.96 687.83 1389.01 645.81
00028898 00000027 1122.56 203.73 491.52 610.25 1184.36 474.05 1374.50 424.59 1243.51 547.42 1245.80 683.34 1395.57 641.53
00028899 00000028 1124.08 206.60 491.76 603.73 1188.51 472.74 1380.56 423.50 1251.63 546.99 1251.33 680.14 1401.74 638.57
00028900 00000029 1123.62 205.94 492.02 601.52 1189.18 471.66 1382.46 423.28 1254.35 546.51 1252.04 677.70 1402.24 637.04
00028901 00000030 1121.31 205.83 491.64 600.30 1185.33 472.44 1378.62 423.89 1249.78 545.72 1246.88 677.63 1396.66 636.90
00028902 00000031 1120.97 202.50 488.49 602.07 1183.03 472.08 1374.11 423.71 1244.99 546.94 1244.00 678.41 1392.56 637.74
00028903 00000032 1121.63 202.08 487.15 604.54 1182.65 472.21 1374.59 421.64 1244.64 547.36 1243.92 678.91 1397.36 636.01
00028904 00000033 1121.15 202.47 490.81 614.16 1184.23 475.06 1381.15 418.32 1249.66 545.04 1247.82 683.13 1409.14 634.78
00028905 00000034 1122.49 204.57 492.15 620.89 1188.57 477.71 1383.63 417.18 1253.16 544.68 1257.81 689.20 1417.30 637.44
00028906 00000035 1120.52 206.74 498.11 621.26 1187.50 481.79 1385.14 418.25 1257.85 550.08 1260.79 692.91 1424.52 638.19
00028907 00000036 1115.97 208.43 497.42 614.87 1182.80 488.89 1383.75 423.37 1258.65 553.28 1256.27 694.99 1421.82 638.86
00028908 DELETE   1112.98 211.21 494.56 607.70 1178.02 501.33 1372.03 435.20 1249.27 561.51 1247.28 698.28 1408.43 641.93
00028909 00000038 1107.11 219.01 491.74 593.20 1171.96 499.30 1361.50 437.46 1236.16 566.03 1238.48 698.35 1389.92 645.99
00028910 00000039 1112.84 217.80 491.05 598.45 1169.78 504.59 1344.92 443.64 1221.27 567.29 1232.85 695.21 1375.21 643.87
00028911 00000040 1108.37 220.52 489.02 594.14 1164.67 504.75 1340.60 442.35 1217.92 566.79 1228.71 695.93 1372.15 643.37
00028912 00000041 1103.02 218.07 490.06 594.31 1162.01 505.73 1339.36 442.16 1219.65 565.52 1227.26 696.07 1371.31 642.61
00028913 00000042 1099.35 214.42 493.79 596.25 1160.41 503.80 1338.66 437.96 1220.92 561.01 1227.56 692.97 1373.50 637.47
00028914 00000043 1096.18 213.32 492.77 595.65 1159.06 502.60 1338.13 436.63 1222.53 557.98 1226.48 690.57 1372.16 635.14
00028915 00000044 1089.44 214.45 493.88 592.41 1154.14 502.16 1334.89 436.34 1221.82 560.08 1223.67 690.09 1370.79 634.83
00028916 00000045 1081.94 224.29 488.76 588.15 1150.41 497.11 1341.21 444.85 1212.42 561.46 1206.08 685.68 1363.07 641.45
00028917 00000046 1075.02 225.45 492.40 589.51 1141.73 500.50 1332.74 443.57 1204.83 563.77 1201.34 690.17 1358.16 642.29
00028918 00000047 1069.43 220.29 498.58 587.38 1134.91 502.77 1323.70 436.78 1208.80 564.76 1207.47 694.27 1360.73 638.74
00028919 00000048 1067.91 218.74 500.07 589.32 1134.81 502.00 1324.73 435.78 1210.24 563.26 1207.51 693.55 1360.85 637.79
00028920 00000049 1069.55 218.43 498.24 589.22 1137.42 502.76 1327.87 435.54 1215.27 563.09 1209.62 693.43 1363.78 637.03
00028921 00000050 1070.54 218.19 497.06 590.68 1140.14 504.73 1329.36 435.74 1218.95 561.63 1213.02 694.41 1366.97 636.60
00028922 00000051 1071.51 219.24 496.62 589.70 1140.40 506.11 1329.67 435.94 1219.66 562.48 1213.78 695.89 1367.81 637.06
00028923 00000052 1070.27 220.39 497.41 589.17 1139.87 509.63 1329.46 440.29 1217.77 562.76 1211.36 697.09 1364.13 639.03
00028924 00000053 1067.38 218.47 500.76 590.72 1135.51 506.03 1326.07 438.74 1212.20 565.04 1207.89 697.21 1358.86 640.85
00028925 00000054 1067.09 217.34 499.10 589.02 1133.97 493.99 1320.74 434.13 1205.34 563.91 1204.86 690.96 1352.23 640.64
00028926 00000055 1072.59 212.75 498.02 590.26 1137.07 485.21 1323.48 429.01 1205.71 560.39 1205.77 684.23 1352.17 637.13
00028927 00000056 1079.25 217.22 491.54 589.67 1146.25 478.07 1342.23 430.64 1211.01 551.75 1201.52 676.60 1360.74 636.37
00028928 00000057 1087.00 208.86 487.83 592.19 1153.78 471.90 1351.99 425.30 1220.90 548.95 1207.29 671.36 1372.49 631.84
00028929 00000058 1093.12 207.20 487.12 593.04 1160.61 468.80 1361.62 421.46 1230.30 543.87 1214.39 670.29 1381.67 630.32
00028930 00000059 1098.10 206.78 486.89 595.56 1166.69 469.01 1367.55 420.07 1238.92 543.62 1223.60 671.44 1390.60 630.19
00028931 00000060 1099.55 208.85 487.29 594.55 1169.05 467.55 1370.19 419.90 1241.19 544.31 1225.41 670.70 1392.84 630.61
00028932 00000061 1098.37 208.19 486.31 592.79 1166.18 467.90 1368.15 420.86 1237.65 543.98 1220.84 670.31 1388.68 630.67
00028933 00000062 1097.71 207.44 486.01 593.71 1165.31 467.31 1367.58 422.05 1236.39 545.00 1218.53 670.02 1386.72 631.85
00028934 00000063 1100.38 209.37 485.29 591.49 1170.41 465.25 1373.84 421.65 1242.44 541.24 1221.13 667.13 1390.89 630.37
00028935 00000064 1103.79 207.66 483.37 590.32 1177.15 465.06 1381.77 419.07 1253.27 536.98 1229.59 663.63 1402.27 625.11
00028936 00000065 1106.81 208.12 480.38 590.56 1178.76 464.53 1384.12 417.41 1254.92 536.34 1231.49 664.15 1405.28 624.62
00028937 00000066 1103.42 206.40 480.70 595.58 1176.79 464.43 1377.42 420.69 1250.32 539.40 1227.91 665.78 1395.43 629.33
00028938 00000067 1096.41 211.51 483.00 593.35 1168.76 467.13 1372.52 424.70 1245.60 547.40 1222.29 671.52 1389.58 636.17
00028939 00000068 1095.08 212.81 485.44 592.19 1168.34 470.09 1372.62 426.56 1246.64 548.27 1223.84 672.70 1390.53 636.42
00028940 00000069 1097.44 214.03 485.10 590.74 1171.84 468.93 1375.16 424.12 1250.35 547.27 1227.87 669.24 1397.83 631.85
00028941 00000070 1097.92 214.42 486.77 592.37 1171.21 470.65 1376.93 423.19 1249.60 548.57 1228.30 671.97 1402.70 631.90
00028942 00000071 1097.70 218.49 485.80 592.90 1169.53 471.11 1375.43 425.48 1246.99 551.78 1226.55 675.82 1400.69 637.25
00028943 00000072 1096.30 217.18 485.00 594.25 1167.30 473.65 1373.25 427.29 1244.95 553.33 1224.44 677.94 1398.04 638.73
00028944 00000073 1096.81 217.66 484.13 589.04 1166.27 474.40 1372.12 429.75 1242.54 555.35 1221.94 675.97 1395.48 638.23
00028945 00000074 1095.85 218.69 484.25 586.82 1165.07 475.97 1369.61 433.30 1239.07 556.61 1218.35 675.11 1390.65 638.91
00028946 00000075 1096.13 217.13 483.74 589.63 1164.32 475.60 1367.22 435.13 1235.58 557.68 1215.02 675.02 1385.92 640.61
00028947 00000076 1096.88 217.17 483.66 591.24 1164.20 476.36 1366.58 436.07 1233.45 558.19 1213.86 676.40 1384.20 642.10
00028948 00000077 1099.75 215.85 484.10 596.24 1165.86 475.34 1367.45 434.72 1234.13 558.58 1217.29 678.20 1386.32 643.74
00028949 00000078 1100.83 220.52 483.56 594.64 1165.39 475.40 1370.37 433.53 1234.44 561.04 1216.96 679.95 1391.81 644.19
00028950 00000079 1107.06 211.44 492.08 604.16 1169.61 481.46 1363.32 432.46 1237.20 558.59 1227.49 684.45 1386.31 643.08
00028951 00000080 1108.89 210.85 491.89 604.24 1171.68 477.34 1367.07 430.39 1239.56 556.47 1228.00 682.48 1387.84 642.86
00028952 00000081 1104.88 218.72 485.86 594.95 1170.74 471.03 1376.88 430.22 1239.16 558.94 1221.49 676.35 1398.32 641.40
00028953 00000082 1104.47 217.27 486.47 594.00 1170.69 470.73 1377.62 430.66 1239.63 559.21 1221.75 675.44 1398.73 641.13
00028954 00000083 1103.75 224.99 482.36 591.70 1170.45 478.12 1379.48 431.80 1246.19 559.32 1228.03 686.09 1403.86 644.77
00028955 00000084 1103.16 226.47 483.52 608.47 1173.08 478.05 1377.83 429.28 1246.30 558.24 1235.68 691.90 1405.71 648.83
00028956 00000085 1102.36 222.07 486.94 624.42 1173.51 478.16 1376.91 425.59 1246.10 558.75 1240.21 695.47 1413.27 648.80
00028957 00000086 1102.03 222.53 486.92 623.90 1174.20 478.89 1376.65 425.79 1246.53 557.72 1240.58 694.74 1412.99 647.65
00028958 00000087 1102.57 224.01 487.10 618.00 1172.87 479.83 1376.34 426.90 1245.14 558.33 1239.90 694.78 1411.65 647.93
00028959 00000088 1104.09 226.51 485.28 609.63 1173.09 481.00 1376.84 429.04 1245.39 559.36 1239.27 693.99 1410.66 648.26
00028960 00000089 1103.89 226.47 486.38 601.67 1172.10 482.88 1378.26 431.81 1245.44 561.79 1237.18 694.13 1409.48 649.39
00028961 00000090 1106.24 212.21 488.38 604.18 1174.13 479.84 1380.10 429.13 1252.07 561.59 1232.47 689.89 1401.37 646.14
00028962 00000091 1106.40 212.63 488.78 597.04 1173.05 477.79 1380.09 428.88 1252.57 562.54 1231.33 685.57 1400.81 643.34
00028963 00000092 1106.58 213.34 487.86 590.28 1171.66 474.68 1379.18 428.62 1251.22 561.24 1227.39 680.60 1397.26 640.74
00028964 00000093 1106.74 214.78 487.86 586.10 1172.31 472.25 1378.99 428.46 1252.17 559.57 1228.24 677.17 1396.18 639.38
00028965 00000094 1108.17 219.16 487.33 588.80 1173.68 471.89 1380.20 430.64 1243.24 561.41 1227.01 674.07 1403.55 638.64
00028966 00000095 1108.97 218.91 487.51 588.51 1173.59 469.94 1380.96 429.34 1241.94 558.34 1225.80 672.41 1403.29 637.54
00028967 00000096 1109.23 213.45 487.41 584.61 1174.30 469.63 1381.29 425.74 1253.78 552.73 1228.73 673.64 1397.18 635.95
00028968 00000097 1109.99 209.51 487.47 596.51 1176.99 468.99 1381.40 424.04 1251.73 547.60 1230.75 677.25 1393.99 639.04
00028969 00000098 1111.62 222.39 480.78 592.80 1177.80 469.18 1390.37 427.05 1249.25 547.34 1229.82 681.70 1403.28 644.75
00028970 00000099 1111.83 219.61 479.28 599.92 1177.65 468.10 1388.04 425.57 1247.51 546.52 1231.41 682.73 1403.09 645.32
00028971 00000100 1112.62 219.61 478.30 601.74 1179.39 465.81 1389.20 423.75 1249.06 543.94 1232.46 682.46 1402.61 645.50
00028972 00000101 1113.98 216.04 474.86 601.30 1183.01 463.02 1391.09 423.29 1255.16 539.72 1235.17 680.70 1398.52 646.24
00028973 00000102 1120.81 191.20 479.97 620.99 1189.48 458.68 1380.16 417.84 1249.54 522.03 1238.57 674.15 1370.19 641.23
00028974 DELETE   1100.40 165.39 485.68 631.70 1163.74 449.65 1348.17 405.72 1213.33 507.98 1204.91 656.59 1339.35 621.62
00028975 DELETE   1072.14 158.04 478.71 636.70 1127.92 444.93 1305.30 407.47 1159.92 505.93 1163.19 654.38 1290.69 624.70
00028976 DELETE   1074.66 152.46 476.06 636.65 1128.34 438.88 1308.82 398.55 1160.11 496.15 1156.42 646.80 1287.72 613.72
00028977 00000106 1080.10 144.72 485.58 622.74 1139.84 432.87 1325.90 390.70 1184.17 488.30 1171.76 637.39 1308.66 604.48
00028978 00000107 1075.08 145.16 480.91 614.74 1134.00 431.46 1317.26 388.56 1176.91 480.50 1166.00 630.04 1296.70 596.21
00028979 00000108 1067.69 145.11 477.70 613.83 1127.29 426.65 1312.68 388.52 1169.52 478.94 1148.53 623.13 1282.02 593.29
00028980 00000109 1068.45 144.44 468.87 608.75 1130.36 415.48 1316.01 382.47 1170.57 465.56 1152.56 615.58 1289.25 589.30
00028981 DELETE   1064.98 144.41 473.31 609.26 1129.63 410.54 1317.20 374.25 1173.99 457.06 1157.05 613.52 1294.58 584.77
00028982 DELETE   1058.88 136.05 471.30 633.17 1117.57 410.81 1300.76 372.97 1146.35 456.80 1143.43 625.25 1276.96 594.36
00028983 DELETE   1048.18 135.58 478.76 653.09 1103.45 419.11 1275.79 369.75 1118.60 458.28 1122.17 634.14 1247.37 596.02
00028984 00000113 1039.28 135.82 480.45 655.35 1094.08 414.35 1269.27 362.68 1111.26 451.82 1113.48 631.90 1243.23 591.90
00028985 00000114 1028.62 136.99 487.55 645.24 1090.02 409.02 1271.51 355.92 1116.09 440.72 1114.01 623.18 1244.02 581.91
00028986 00000115 1013.70 132.48 492.83 652.06 1076.98 412.59 1258.13 357.24 1108.99 445.36 1108.14 626.14 1240.98 582.83
00028987 00000116 1000.63 138.28 489.08 634.06 1063.26 416.23 1245.45 366.88 1098.37 451.95 1093.94 622.04 1226.55 583.22
00028988 00000117 991.84 143.91 475.58 609.70 1048.64 420.86 1235.67 376.25 1086.41 460.98 1078.48 622.50 1218.33 586.13
00028989 00000118 985.69 150.15 469.28 581.52 1036.48 423.40 1224.06 380.06 1077.10 466.42 1064.45 606.09 1215.82 570.20
00028990 DELETE   973.51 157.52 474.61 574.81 1015.59 430.66 1213.27 383.76 1062.42 478.92 1047.27 613.20 1207.62 577.18
00028991 DELETE   965.15 160.94 471.15 582.12 1004.29 436.16 1207.01 390.70 1054.94 493.59 1034.91 628.47 1195.31 593.37
00028992 00000121 954.06 166.53 481.09 598.19 1005.96 453.32 1186.00 406.85 1043.90 499.82 1032.97 637.28 1182.06 600.54
00028993 00000122 947.07 183.40 477.62 612.97 999.19 469.54 1169.97 414.99 1028.44 510.53 1035.00 660.91 1166.53 617.41
00028994 00000123 937.12 203.47 487.66 616.65 985.53 479.26 1160.37 414.64 1019.57 518.54 1036.22 685.01 1171.54 634.06
00028995 00000124 932.61 205.64 488.34 624.00 977.46 478.85 1147.52 410.66 1004.82 516.91 1036.44 686.79 1175.34 631.75
00028996 00000125 930.23 196.16 484.36 627.50 976.47 474.07 1145.68 402.54 997.71 512.77 1032.90 681.09 1177.26 620.93
00028997 00000126 930.90 196.86 485.27 621.70 977.60 472.67 1148.50 402.69 1001.64 512.87 1033.37 677.67 1177.94 618.97
00028998 00000127 934.43 198.14 486.53 615.57 981.92 476.57 1158.66 408.98 1014.95 521.49 1037.46 678.14 1185.94 621.19
00028999 00000128 933.53 210.21 493.43 608.95 986.17 489.80 1165.02 424.15 1032.01 539.57 1046.43 690.33 1198.42 637.27
00029000 00000129 945.52 214.52 489.71 601.49 995.82 496.92 1171.41 432.16 1041.03 548.68 1055.95 694.05 1203.20 641.97
00029001 00000130 949.84 214.41 492.60 591.85 1001.24 492.49 1175.39 430.82 1047.49 553.48 1062.03 685.47 1204.70 633.37
00029002 00000131 954.25 216.03 493.67 589.95 1005.18 494.55 1180.23 432.44 1054.36 558.54 1067.93 687.06 1210.35 634.98
00029003 00000132 958.80 216.72 491.06 599.97 1010.69 506.98 1188.90 444.23 1060.26 563.81 1069.14 698.04 1216.52 647.99
00029004 00000133 960.85 221.63 488.41 596.34 1013.96 508.91 1190.48 450.45 1063.37 567.92 1071.64 697.84 1218.33 651.34
00029005 00000134 954.21 221.44 489.88 594.64 1007.65 500.70 1199.45 445.71 1067.46 576.78 1067.13 698.88 1220.20 654.97
00029006 00000135 958.71 222.00 485.72 590.99 1011.40 497.27 1203.16 442.85 1071.94 573.96 1072.05 695.96 1225.23 652.56
00029007 00000136 963.77 225.62 485.89 586.26 1023.88 493.07 1211.18 436.69 1082.02 565.14 1083.79 693.22 1230.94 645.64
00029008 00000137 968.78 226.77 488.32 585.31 1028.42 490.67 1212.21 435.50 1084.53 563.73 1089.90 689.22 1236.84 642.67
00029009 00000138 972.70 223.50 489.06 589.14 1033.69 486.34 1217.66 434.28 1090.97 559.26 1093.56 684.45 1241.78 640.63
00029010 00000139 981.10 221.22 487.27 591.29 1038.94 482.48 1223.40 431.85 1093.68 556.68 1099.11 681.47 1248.51 638.45
00029011 00000140 986.28 221.15 490.54 588.59 1043.51 479.57 1228.28 427.84 1098.33 550.86 1105.42 680.21 1252.17 636.42
00029012 00000141 988.16 216.94 494.95 590.80 1042.69 479.39 1229.95 425.70 1093.94 547.26 1103.96 680.02 1252.24 634.37
00029013 00000142 983.20 213.00 490.22 591.67 1035.28 481.29 1218.47 424.98 1082.09 544.63 1094.61 680.60 1239.90 633.24
00029014 00000143 974.66 211.80 489.97 603.60 1027.65 480.30 1205.57 424.46 1069.80 546.60 1089.19 687.66 1226.55 640.76
00029015 00000144 969.93 209.60 490.23 618.71 1026.06 478.05 1203.68 424.99 1067.42 548.07 1086.90 694.55 1219.41 650.17
00029016 00000145 970.21 205.23 490.94 628.39 1027.43 477.26 1205.16 425.45 1068.47 550.04 1089.25 696.58 1221.83 653.30
00029017 00000146 972.89 208.21 489.67 623.43 1030.06 475.38 1207.70 426.58 1071.50 551.08 1091.07 694.59 1223.10 653.77
00029018 00000147 973.98 207.26 489.87 623.15 1031.06 477.72 1211.20 429.90 1073.90 552.38 1091.06 694.35 1223.44 654.50
00029019 00000148 976.12 210.16 488.29 607.12 1028.13 478.98 1208.54 428.36 1069.98 552.66 1088.09 687.65 1227.46 644.98
00029020 00000149 971.00 210.66 487.85 597.79 1022.50 476.57 1203.94 424.53 1064.33 545.84 1079.73 679.01 1223.37 635.07
00029021 00000150 974.08 202.73 493.77 609.89 1025.13 479.71 1195.26 425.83 1060.92 547.21 1080.95 677.03 1216.14 632.01
00029022 00000151 966.17 203.82 495.83 613.29 1019.34 483.81 1192.64 430.37 1059.40 551.74 1074.58 686.79 1207.53 642.14
00029023 00000152 960.62 212.47 485.17 611.38 1012.84 493.29 1186.28 434.25 1056.98 551.84 1070.97 697.68 1201.59 650.59
00029024 00000153 951.08 212.98 486.55 620.80 1008.54 492.32 1178.87 433.32 1053.39 548.67 1070.79 701.19 1187.62 654.16
00029025 00000154 940.74 214.18 490.27 621.06 1000.20 491.83 1170.88 430.95 1047.31 543.93 1066.11 701.23 1184.91 652.37
00029026 00000155 933.63 214.12 491.75 610.33 990.83 491.72 1170.07 433.83 1046.50 552.56 1053.87 695.77 1192.56 649.35
00029027 00000156 926.94 219.39 491.96 600.36 983.26 497.90 1169.58 443.08 1045.88 567.14 1045.34 697.07 1200.69 653.40
00029028 00000157 923.79 225.02 492.20 597.13 981.38 503.86 1169.12 450.96 1043.70 575.74 1040.19 701.02 1198.66 658.86
00029029 00000158 919.42 230.21 495.08 596.73 978.40 508.79 1167.16 457.45 1041.82 582.63 1035.92 704.40 1196.52 663.33
00029030 00000159 914.79 236.47 497.44 594.77 975.01 512.15 1166.78 461.67 1042.26 592.09 1035.97 708.55 1197.94 667.60
00029031 00000160 912.11 242.51 500.70 595.68 973.55 517.15 1163.41 467.10 1040.75 599.51 1036.46 712.89 1196.50 671.75
00029032 00000161 911.84 248.49 500.52 597.14 974.16 520.00 1163.48 470.73 1040.84 603.57 1038.14 715.07 1196.90 674.31
00029033 00000162 911.12 248.44 501.03 598.44 973.66 521.98 1163.10 470.40 1040.79 603.45 1038.21 716.47 1198.21 673.80
