Video ID: 	VTC5ZS0iKkU
H: 	1080
W: 	1920
FPS: 	25.0

FRAME INDEX X0 Y0 W H [Landmarks (5 Points)]

00000590 00000000 696.71 268.03 444.59 642.16 794.52 501.79 993.04 544.77 850.04 645.72 762.07 714.05 952.39 748.39
00000591 DELETE   694.89 259.63 438.64 644.16 788.52 495.92 987.20 538.64 842.38 637.66 761.69 708.43 948.62 742.34
00000592 00000002 691.91 256.87 441.26 647.26 783.96 489.69 984.80 534.05 836.49 633.71 757.27 704.59 944.91 740.09
00000593 00000003 690.67 255.08 440.69 653.19 783.35 488.68 982.91 532.23 836.05 633.64 756.68 704.91 945.25 739.74
00000594 00000004 685.75 247.97 441.35 672.63 774.10 488.66 973.92 534.82 825.51 645.36 755.65 714.41 939.33 752.39
00000595 DELETE   679.13 247.23 436.86 679.80 767.31 488.16 963.98 530.44 817.11 643.07 751.58 715.97 932.27 750.80
00000596 00000006 676.77 246.58 434.59 684.25 762.97 485.69 958.23 523.99 811.31 636.53 750.80 715.93 929.00 747.22
00000597 00000007 678.36 247.98 433.08 686.11 764.81 486.31 960.04 521.42 815.30 632.29 754.13 718.96 930.15 747.48
00000598 00000008 684.86 244.88 432.86 692.97 770.05 486.98 966.18 518.86 821.12 633.40 761.39 723.15 935.77 749.07
00000599 00000009 689.10 247.90 433.27 688.45 775.12 488.50 970.71 518.98 827.59 633.11 767.17 724.33 940.78 749.12
00000600 DELETE   691.29 254.98 433.10 671.32 783.47 497.22 975.70 527.44 835.98 625.53 767.06 718.62 943.17 742.49
00000601 DELETE   695.63 258.36 435.02 666.76 790.09 505.60 983.29 536.84 847.60 630.19 771.79 720.44 951.62 744.44
00000602 00000012 697.50 261.89 436.41 659.10 794.94 500.97 988.06 535.61 850.60 629.48 771.12 716.37 951.35 743.36
00000603 00000013 699.07 257.37 435.68 664.34 796.48 498.70 988.65 532.95 853.08 631.45 773.13 715.99 954.93 742.64
00000604 00000014 700.98 257.03 436.20 662.34 797.13 498.22 991.43 531.83 854.62 631.46 773.53 714.71 956.21 740.96
00000605 00000015 701.04 256.31 436.99 657.13 797.29 495.63 993.15 530.51 856.22 631.20 774.12 712.03 955.64 739.38
00000606 00000016 701.16 257.28 435.09 646.32 795.44 494.15 992.95 529.84 856.29 631.54 772.77 710.28 950.66 738.73
00000607 00000017 700.76 256.93 433.29 642.52 794.08 493.98 992.53 530.34 855.94 631.88 771.51 709.34 948.09 738.66
00000608 00000018 694.37 257.85 435.65 637.89 786.59 489.37 984.61 530.16 845.23 633.77 764.63 712.67 937.30 745.84
00000609 00000019 694.22 255.14 433.20 637.89 783.71 491.91 979.59 532.67 840.32 637.28 762.51 714.06 930.85 747.42
00000610 00000020 694.37 255.32 429.70 639.65 780.89 490.96 975.69 533.89 833.36 640.56 760.21 715.38 926.58 750.58
00000611 00000021 694.14 254.65 427.98 639.19 780.55 489.85 974.96 532.33 833.23 639.59 759.54 713.81 925.87 748.70
00000612 00000022 693.79 257.55 430.94 632.44 781.92 489.20 975.26 532.16 835.13 637.98 759.62 711.52 924.49 746.96
00000613 00000023 692.05 256.95 431.03 634.73 782.80 489.86 977.15 533.62 837.06 636.92 758.83 711.02 925.94 747.11
00000614 00000024 690.37 256.80 427.40 636.57 780.22 491.33 975.21 534.79 834.17 638.76 757.01 711.95 926.76 747.69
00000615 00000025 688.01 259.33 428.63 637.06 778.64 493.00 972.78 535.58 831.19 638.55 755.75 712.25 926.70 747.29
00000616 00000026 686.74 258.75 429.27 642.05 779.49 492.77 971.36 536.18 829.87 637.79 755.91 711.44 926.36 747.03
00000617 00000027 685.41 259.00 429.48 638.19 780.04 492.23 972.78 536.55 830.37 637.35 754.66 707.93 927.53 744.23
00000618 00000028 684.16 259.52 431.02 638.07 781.15 493.30 973.51 540.02 831.33 638.27 753.40 705.42 929.59 743.38
00000619 DELETE   684.94 264.27 435.46 630.77 779.72 512.78 972.19 555.57 831.65 641.10 757.45 711.86 932.76 745.66
00000620 00000030 687.71 261.90 437.99 635.58 786.03 505.80 978.76 555.75 835.96 647.03 757.87 712.78 931.47 752.74
00000621 00000031 691.00 263.13 438.47 635.01 789.10 497.95 989.18 546.86 846.71 644.66 757.79 712.45 937.95 752.19
00000622 00000032 691.84 264.01 439.48 631.26 792.29 493.11 992.66 541.97 851.60 640.68 759.51 708.36 939.52 748.05
00000623 00000033 693.95 259.67 438.78 631.23 793.39 489.40 994.15 539.03 852.13 638.80 761.79 708.39 939.04 748.58
00000624 00000034 692.68 255.80 439.46 634.22 793.48 487.40 993.41 536.34 852.03 636.89 761.56 704.73 940.07 744.26
00000625 00000035 690.81 254.20 440.44 637.34 792.62 487.34 992.66 534.58 852.93 636.06 761.70 703.69 942.39 741.75
00000626 00000036 690.17 252.83 440.23 639.56 791.64 487.88 992.58 534.15 852.81 636.81 761.30 704.53 942.87 741.89
00000627 00000037 688.53 256.64 441.58 637.42 789.79 488.84 990.41 534.92 849.15 638.48 759.54 705.68 940.77 742.97
00000628 00000038 687.05 258.95 441.32 637.46 786.74 488.77 986.89 534.73 844.87 641.22 758.64 708.27 938.57 745.53
00000629 00000039 687.26 258.29 440.89 644.81 785.23 490.59 985.94 536.56 843.76 643.82 758.98 713.31 939.10 750.45
00000630 00000040 687.53 259.83 439.39 645.02 783.88 490.94 984.78 537.35 841.54 646.11 757.79 714.02 939.13 751.51
00000631 00000041 686.08 258.90 437.31 647.64 782.41 491.64 982.98 538.14 841.12 647.96 756.67 713.73 939.27 751.42
00000632 00000042 681.44 259.02 439.71 645.98 778.50 500.76 976.79 544.51 837.16 647.49 754.85 713.45 938.20 748.86
00000633 DELETE   681.16 261.36 438.85 639.88 776.94 511.92 975.52 552.58 837.83 646.15 754.70 713.28 941.28 745.57
00000634 00000044 680.58 259.82 437.86 640.00 776.62 507.08 974.10 546.17 836.01 643.19 754.70 709.88 941.41 741.08
00000635 00000045 679.90 259.01 435.51 639.44 777.97 499.43 976.03 540.28 837.99 641.75 753.55 708.28 938.38 741.58
00000636 00000046 678.91 255.30 434.76 643.45 776.95 495.16 974.92 534.44 838.16 639.69 754.58 709.47 936.02 741.53
00000637 00000047 680.16 252.12 433.18 643.72 775.97 492.12 976.66 532.96 836.01 640.66 753.36 708.48 935.86 741.55
00000638 00000048 680.37 250.64 433.60 647.64 775.00 491.38 974.78 531.13 834.72 639.77 753.79 710.28 934.08 742.46
00000639 00000049 681.09 252.22 432.53 652.18 775.18 491.66 973.05 530.03 833.65 639.73 756.54 713.89 934.68 745.01
00000640 00000050 681.84 247.52 430.02 658.90 774.10 492.59 972.84 529.93 833.22 640.91 757.55 718.29 932.86 748.67
00000641 00000051 681.35 248.53 431.31 659.81 771.91 494.02 972.49 529.69 833.42 642.95 755.26 719.35 932.34 748.35
00000642 00000052 679.19 252.07 430.65 657.46 770.20 493.00 970.43 531.33 829.57 645.90 752.12 719.76 928.30 751.14
00000643 00000053 675.69 248.51 431.91 663.00 768.33 491.24 970.37 530.12 828.47 648.94 751.77 720.96 930.27 752.87
00000644 00000054 673.04 249.67 431.87 663.87 767.47 491.48 967.01 530.50 826.85 646.68 750.68 718.97 930.37 750.92
00000645 00000055 670.39 250.29 435.24 661.53 763.25 492.54 967.65 529.80 823.46 645.69 745.98 716.91 925.49 749.51
00000646 00000056 668.91 252.92 433.89 649.19 764.11 493.14 964.38 530.82 825.40 644.19 748.06 713.01 928.56 743.93
00000647 00000057 668.11 254.37 433.33 646.73 763.34 493.87 964.06 532.99 824.73 645.87 746.54 713.11 927.26 745.30
00000648 00000058 670.52 254.56 432.77 645.92 764.56 494.31 966.86 534.10 826.97 647.82 746.69 714.76 927.80 747.64
00000649 00000059 675.01 257.44 430.85 639.70 768.50 492.42 972.38 532.93 831.36 650.92 749.77 711.47 933.94 745.12
00000650 00000060 680.28 258.95 430.02 634.41 776.14 493.68 975.64 531.87 837.86 646.12 757.63 710.50 936.47 741.92
00000651 00000061 684.69 257.48 433.91 635.43 782.66 493.92 979.86 530.93 844.79 639.31 760.50 707.83 939.60 738.01
00000652 00000062 689.63 253.33 437.48 635.70 787.18 488.31 985.83 526.87 849.44 634.19 762.75 704.30 942.67 735.65
00000653 00000063 689.78 250.77 437.39 635.64 786.75 486.26 986.56 526.29 848.60 634.45 760.77 701.62 942.46 734.14
00000654 00000064 686.21 253.03 433.88 633.53 781.18 487.23 981.42 525.13 843.11 636.08 756.51 703.16 938.27 734.27
00000655 00000065 679.71 245.40 433.49 644.44 772.74 484.12 975.52 521.78 836.07 637.78 753.79 706.29 937.53 736.94
00000656 00000066 673.09 238.47 440.30 651.31 765.98 483.54 972.98 518.05 833.92 638.84 752.97 709.24 936.46 737.28
00000657 00000067 662.11 233.28 449.12 661.04 754.34 480.67 964.62 513.07 824.86 638.70 743.38 710.18 926.12 738.74
00000658 00000068 657.02 226.96 451.37 673.96 750.52 479.77 958.47 512.25 816.87 634.63 736.68 709.79 921.31 738.54
00000659 00000069 652.19 227.72 454.73 682.69 746.83 481.88 956.65 513.71 813.42 636.31 732.50 712.88 920.40 741.09
00000660 00000070 648.64 236.60 454.63 677.86 744.16 489.21 956.26 524.11 813.28 642.14 725.12 713.70 922.52 744.16
00000661 00000071 644.03 243.63 456.15 670.38 740.07 491.87 952.54 528.17 809.17 647.15 721.24 712.29 924.57 743.47
00000662 00000072 641.14 240.65 450.59 669.54 733.71 490.27 952.43 527.84 809.91 650.13 720.44 709.67 931.82 739.81
00000663 DELETE   641.01 244.06 452.95 665.39 735.23 494.20 947.41 530.28 803.40 648.21 716.89 709.68 922.29 740.27
00000664 00000074 643.31 243.19 452.13 665.88 739.28 494.12 950.03 533.17 805.33 646.65 718.18 708.97 921.74 742.23
00000665 00000075 648.86 248.34 451.06 659.61 748.20 494.02 955.83 536.03 811.58 649.17 724.94 709.31 923.60 745.00
00000666 00000076 656.35 247.63 450.15 657.85 753.97 494.16 961.90 533.74 817.68 651.78 734.30 711.84 928.40 745.69
00000667 00000077 661.97 247.42 442.95 655.47 755.40 492.88 965.22 531.74 822.83 650.88 740.71 710.30 937.22 741.93
00000668 00000078 664.71 247.99 439.02 656.63 754.33 496.01 959.91 530.55 815.42 650.05 739.82 714.52 928.13 744.26
00000669 00000079 671.50 246.93 431.84 653.63 755.33 493.55 957.17 527.09 816.79 646.31 746.19 718.99 923.92 746.37
00000670 00000080 674.84 243.69 429.75 652.44 754.68 494.65 958.22 525.19 817.75 645.18 747.59 719.55 925.07 744.31
00000671 00000081 677.73 249.53 431.52 642.27 760.73 511.56 956.63 539.73 821.90 642.60 753.56 718.71 926.79 740.71
00000672 DELETE   679.74 251.80 429.05 638.48 763.05 511.17 957.71 542.09 821.99 641.28 755.15 715.51 928.75 739.63
00000673 00000083 679.65 250.62 428.60 639.39 763.71 503.22 961.68 534.25 823.15 640.26 753.48 714.86 929.07 739.55
00000674 00000084 680.79 249.90 429.29 637.21 763.53 494.33 964.07 524.77 824.34 638.63 754.42 712.03 931.66 736.55
00000675 00000085 681.54 246.56 429.51 639.28 764.48 490.29 967.76 522.05 825.93 640.11 754.70 710.67 932.78 736.31
00000676 00000086 683.40 249.79 429.95 637.44 766.38 490.45 970.20 522.25 828.02 640.02 755.87 711.32 934.00 737.08
00000677 00000087 685.12 241.92 432.93 648.59 763.02 488.85 970.71 519.08 827.67 644.43 758.49 716.61 932.22 743.65
00000678 00000088 685.41 241.63 433.17 655.72 766.05 488.99 971.88 519.02 828.51 641.14 759.35 717.83 930.64 744.77
00000679 00000089 685.26 240.34 433.51 658.63 765.98 487.95 970.01 517.84 828.49 639.71 759.06 715.63 931.52 742.49
00000680 00000090 684.54 240.20 432.04 658.94 765.81 486.52 970.03 516.75 828.17 638.97 757.12 715.00 931.10 742.14
00000681 00000091 684.52 240.26 431.59 659.72 765.67 485.80 970.23 515.96 828.10 638.26 756.91 714.67 931.75 741.70
00000682 00000092 683.08 237.01 433.06 661.82 765.12 485.53 969.97 515.54 827.95 637.48 756.27 714.06 930.90 740.94
00000683 00000093 682.69 238.39 433.39 658.34 764.47 485.46 968.87 515.13 827.03 638.01 756.76 712.84 931.05 739.35
00000684 00000094 680.31 239.78 435.84 657.58 763.37 485.96 968.27 514.81 825.80 638.02 756.69 713.32 931.35 738.99
00000685 00000095 679.65 240.58 435.81 654.75 761.37 485.60 966.45 514.89 823.40 639.59 755.89 713.38 929.55 739.32
00000686 00000096 679.88 240.67 435.65 652.25 762.29 485.71 966.37 515.40 823.80 638.72 756.75 712.57 929.32 738.78
00000687 00000097 681.34 238.41 435.65 653.59 762.62 483.33 966.27 512.72 823.77 636.00 757.09 711.85 928.23 738.02
00000688 00000098 682.47 236.22 434.11 657.08 763.18 480.84 967.51 510.68 824.61 633.37 757.14 713.13 926.37 739.85
00000689 00000099 687.41 233.25 431.18 664.09 763.32 481.58 969.47 510.14 824.92 634.45 759.51 721.14 922.42 747.08
00000690 00000100 693.12 235.57 427.38 665.29 760.16 484.42 966.59 511.62 822.33 642.57 760.90 730.62 919.81 755.49
00000691 00000101 691.66 236.19 425.89 664.76 759.78 484.96 964.36 511.58 822.43 642.28 760.35 732.15 914.52 756.45
00000692 00000102 688.42 227.55 430.92 668.95 759.24 475.84 963.42 504.45 819.56 635.72 756.26 727.43 909.20 753.49
00000693 00000103 685.04 223.24 434.56 671.83 761.05 471.49 966.13 500.17 821.54 627.91 755.16 722.21 911.67 748.48
00000694 00000104 683.83 222.99 438.45 671.70 762.00 470.70 969.55 498.16 824.59 624.23 756.83 720.35 917.00 745.61
00000695 00000105 682.21 227.37 436.24 675.80 759.89 476.12 967.47 503.74 822.92 631.10 753.81 723.85 915.54 749.15
00000696 00000106 678.73 239.18 432.46 667.01 755.11 487.73 964.80 515.97 817.53 643.87 750.50 729.34 915.95 754.97
00000697 00000107 675.97 237.95 433.96 659.96 753.52 489.14 961.32 517.33 814.47 641.86 747.78 724.52 913.07 749.93
00000698 00000108 674.83 231.56 435.99 659.04 753.32 481.10 961.05 510.56 815.63 636.00 746.92 717.94 914.06 744.42
00000699 00000109 675.38 227.83 436.63 657.42 756.64 476.42 962.30 505.16 820.89 627.19 748.06 712.38 915.15 738.40
00000700 00000110 675.36 222.78 436.10 659.53 756.61 475.00 961.22 503.75 819.13 625.27 749.18 710.64 915.66 736.57
00000701 00000111 673.96 226.19 435.74 656.67 754.73 475.82 958.77 504.65 815.78 625.13 748.49 710.90 913.44 736.72
00000702 00000112 673.07 228.60 434.22 658.74 753.16 479.26 957.10 506.83 814.57 625.88 747.67 713.99 912.31 738.70
00000703 00000113 671.29 229.17 433.36 660.54 748.12 481.27 952.89 507.11 807.91 625.33 743.87 716.94 908.99 739.97
00000704 00000114 670.94 227.93 432.38 667.16 743.73 483.28 950.39 506.46 804.91 627.15 741.19 721.59 906.09 742.52
00000705 DELETE   671.47 226.85 434.62 670.93 745.73 482.11 954.48 506.72 808.62 631.34 742.08 722.20 910.73 744.54
00000706 00000116 671.45 228.88 435.60 673.08 749.10 480.80 957.53 505.69 812.04 631.57 745.06 722.15 915.11 744.56
00000707 00000117 670.94 231.03 436.25 673.08 746.87 483.53 954.33 505.25 807.66 627.96 744.48 725.09 911.46 744.96
00000708 00000118 672.35 232.01 432.80 669.89 743.48 485.29 949.28 507.19 802.62 628.92 741.11 726.21 905.61 746.16
00000709 00000119 671.37 231.43 434.41 669.11 746.06 486.23 952.33 508.91 807.83 632.27 744.41 725.99 908.33 746.75
00000710 00000120 674.75 228.82 432.19 669.20 748.47 483.77 956.76 507.40 815.06 639.12 749.57 730.19 910.65 751.59
00000711 00000121 677.02 228.04 430.64 669.72 747.42 482.78 953.14 505.93 811.28 637.76 749.92 731.76 902.98 752.96
00000712 DELETE   673.83 230.98 431.99 670.85 739.73 490.16 945.94 512.80 801.59 639.70 740.94 734.82 898.45 755.45
00000713 DELETE   675.19 237.60 428.74 665.78 737.86 497.54 941.92 519.37 796.87 639.34 738.56 737.17 895.58 757.15
00000714 00000124 676.78 235.58 425.92 663.27 741.79 496.66 945.08 519.47 801.71 639.26 741.88 732.46 899.47 753.30
00000715 00000125 678.45 235.05 432.43 657.66 748.50 489.22 953.65 510.61 810.68 635.43 748.72 726.32 909.58 745.95
00000716 00000126 676.84 225.00 434.77 664.35 749.43 484.53 951.65 504.95 808.04 625.05 750.04 721.65 907.56 740.48
00000717 DELETE   673.45 230.60 431.79 658.41 742.78 484.36 943.51 505.61 799.40 620.49 742.51 720.17 896.63 739.54
00000718 00000128 673.69 229.96 427.39 660.75 739.04 490.69 937.64 509.74 791.37 623.93 739.48 724.77 891.81 742.40
00000719 00000129 675.92 238.87 426.44 656.02 737.90 498.83 937.11 517.79 792.38 635.12 739.25 730.74 894.98 748.16
00000720 DELETE   681.34 238.39 427.40 656.42 752.19 493.87 947.93 518.55 807.17 635.61 751.86 724.44 908.89 744.64
00000721 00000131 684.67 230.82 432.27 658.34 752.67 488.41 955.03 511.14 810.48 634.80 752.49 723.69 913.06 744.55
00000722 00000132 688.08 233.61 432.02 652.65 756.55 479.88 959.20 502.26 815.41 622.96 754.31 718.72 913.84 739.60
00000723 00000133 688.77 226.15 430.03 659.63 758.09 476.45 958.89 500.28 814.83 618.45 754.31 715.48 912.28 737.54
00000724 00000134 688.45 225.60 430.69 659.99 757.27 476.31 958.23 500.36 813.77 619.14 753.87 715.32 912.33 737.52
00000725 00000135 688.97 231.28 430.50 659.14 756.80 479.34 958.82 502.02 814.36 624.80 756.86 720.32 915.16 741.21
00000726 00000136 689.55 232.26 431.16 660.57 757.26 479.42 959.42 501.53 815.33 625.30 758.62 721.96 916.01 742.37
00000727 00000137 688.88 230.35 432.23 662.63 757.26 480.07 959.81 501.52 816.04 625.43 758.76 722.36 917.02 742.20
00000728 00000138 687.99 228.30 431.48 658.16 755.05 481.98 956.54 503.90 812.32 627.10 756.83 721.10 915.60 741.18
00000729 00000139 685.83 229.19 433.51 651.75 753.01 483.41 955.48 505.43 811.94 628.68 754.44 719.50 914.82 739.72
00000730 00000140 683.86 229.45 437.01 649.43 752.94 482.54 955.82 504.52 813.52 627.09 755.09 716.40 918.21 736.45
00000731 00000141 684.08 236.95 434.43 637.56 756.10 481.56 959.24 503.80 817.51 623.02 757.15 712.05 924.03 730.01
00000732 00000142 684.02 237.29 433.84 637.09 755.23 481.97 958.77 504.21 816.55 623.57 756.68 712.24 924.44 730.11
00000733 00000143 684.38 237.56 433.31 638.02 755.26 482.92 958.23 505.28 815.71 625.09 756.70 713.15 924.31 731.20
00000734 00000144 685.46 239.58 435.69 637.42 757.48 483.27 963.04 506.51 820.00 627.12 757.85 715.38 926.12 734.45
00000735 DELETE   687.12 240.67 436.63 638.60 766.99 485.31 975.83 507.22 837.90 628.77 765.90 716.59 939.02 734.42
00000736 DELETE   693.21 242.46 441.93 640.41 784.06 487.56 994.72 509.64 864.74 626.26 783.28 718.39 960.68 735.74
00000737 00000147 696.72 236.46 445.82 648.08 795.16 487.95 1009.69 506.19 887.93 629.25 802.35 722.40 982.82 736.06
00000738 00000148 699.06 238.70 444.28 645.64 797.12 490.94 1012.54 507.98 891.72 632.18 805.61 724.70 985.51 737.44
00000739 00000149 697.95 240.80 442.05 643.40 793.75 490.52 1006.97 510.39 882.83 633.86 798.57 723.61 976.28 738.94
00000740 DELETE   697.08 245.14 436.03 636.03 786.48 488.32 992.59 512.73 863.08 630.19 783.05 717.54 955.30 737.00
00000741 00000151 697.21 241.06 433.09 637.09 784.40 485.69 990.33 509.71 859.02 625.03 779.49 715.71 950.69 734.87
00000742 DELETE   698.91 240.70 436.68 637.96 789.93 482.64 997.74 506.57 869.21 622.48 786.91 715.59 960.80 734.45
00000743 DELETE   698.40 233.99 440.20 645.42 792.97 482.01 1002.72 502.61 877.24 620.91 795.36 717.47 970.12 733.37
00000744 00000154 694.70 238.26 440.48 647.93 788.49 484.53 997.96 505.71 870.68 624.86 787.58 721.43 961.04 738.26
CROP_BBOX: 418 0 1429 1080
