Video ID: 	wvNvF_4dBL8
H: 	1080
W: 	1920
FPS: 	29.97002997002997

FRAME INDEX X0 Y0 W H [Landmarks (5 Points)]

00011257 00000000 678.24 258.52 454.36 685.83 887.13 540.01 1063.34 558.49 1009.44 682.25 879.29 771.18 1026.87 785.61
00011258 DELETE   673.81 251.01 458.36 683.22 886.31 532.05 1061.67 555.74 1006.78 673.35 875.36 757.66 1023.17 775.99
00011259 00000002 683.89 239.32 449.58 684.90 887.24 516.77 1063.58 548.93 1001.11 655.31 860.86 734.70 1009.12 762.69
00011260 DELETE   676.93 231.97 461.57 680.04 891.05 495.73 1068.03 539.81 1001.95 644.68 856.42 722.48 1003.00 760.26
00011261 DELETE   683.04 221.42 456.41 683.84 902.55 480.14 1073.10 536.74 1006.38 630.99 860.45 708.41 1001.02 756.53
00011262 00000005 689.31 204.94 458.46 696.17 913.22 466.46 1079.75 531.16 1012.72 621.69 862.83 695.29 1003.31 749.54
00011263 00000006 692.25 198.85 458.81 696.43 922.30 458.48 1080.56 526.84 1017.63 615.67 865.66 685.97 999.74 743.03
00011264 00000007 692.06 203.03 455.11 682.29 915.98 461.81 1077.99 515.33 1016.50 604.35 871.68 687.29 1013.52 731.49
00011265 00000008 690.59 197.04 452.93 675.01 913.13 458.17 1077.26 508.38 1017.60 597.77 875.39 680.84 1018.93 721.90
00011266 00000009 694.40 185.00 449.45 681.66 908.00 448.50 1078.40 501.02 1014.45 589.88 867.45 672.85 1006.98 718.34
00011267 00000010 686.28 192.34 453.09 662.19 905.91 454.15 1071.01 504.56 1013.09 589.04 875.66 672.51 1016.29 713.26
00011268 00000011 680.40 186.90 454.69 666.05 897.96 449.74 1064.28 497.52 1007.73 584.74 868.29 669.23 1010.38 707.81
00011269 00000012 674.99 183.65 454.96 672.30 889.81 445.35 1054.16 493.50 995.48 580.21 857.83 665.01 997.77 703.66
00011270 00000013 670.39 179.27 454.11 677.73 879.50 442.12 1046.73 488.08 987.26 578.03 849.34 661.23 993.77 697.74
00011271 00000014 671.07 172.70 448.71 683.88 870.02 436.33 1044.94 486.52 976.78 578.62 837.74 656.69 988.72 698.52
00011272 00000015 664.97 168.56 447.06 689.28 863.10 434.67 1039.46 484.63 971.90 575.99 830.85 655.76 984.69 697.47
00011273 00000016 659.31 167.22 444.66 691.95 858.41 435.71 1035.33 482.16 971.94 571.29 830.90 657.43 984.91 696.35
00011274 00000017 655.21 169.75 442.80 688.82 855.35 438.23 1033.81 477.13 976.09 568.88 833.94 661.13 989.51 693.87
00011275 00000018 652.73 173.07 441.41 685.64 852.51 440.84 1031.60 472.18 978.50 567.86 839.71 663.56 995.28 689.98
00011276 00000019 650.83 172.87 440.30 684.19 850.22 443.87 1029.29 469.83 979.99 567.51 844.64 666.39 999.38 688.25
00011277 00000020 649.57 172.60 439.37 684.53 846.03 446.97 1027.07 467.46 979.58 567.24 846.66 669.94 1002.18 687.27
00011278 00000021 647.57 175.45 441.46 683.81 845.39 448.90 1024.41 466.93 978.86 568.43 851.81 672.80 1004.03 687.96
00011279 00000022 647.03 174.42 440.26 688.19 843.79 452.21 1022.44 468.40 977.65 571.90 853.41 678.11 1003.96 691.69
00011280 00000023 643.92 178.38 442.20 689.58 837.30 455.66 1020.47 469.03 972.90 574.50 850.59 684.20 1003.25 695.30
00011281 00000024 641.60 179.42 443.04 696.17 833.25 459.97 1018.70 473.04 968.94 582.11 844.26 690.20 1001.05 700.99
00011282 00000025 631.69 183.46 444.54 707.26 839.44 461.39 1007.66 482.87 963.50 594.56 838.94 697.00 987.30 713.34
00011283 00000026 631.03 192.20 441.61 710.94 830.81 465.95 1004.58 481.17 961.51 599.01 828.59 707.02 985.50 719.39
00011284 00000027 629.59 210.43 440.45 695.48 819.78 476.32 1003.29 480.27 952.54 598.84 825.47 719.21 986.17 722.44
00011285 00000028 624.37 215.41 441.30 694.18 813.75 480.31 997.71 483.43 946.66 605.74 826.10 729.90 978.99 731.85
00011286 00000029 621.26 214.79 439.29 696.83 812.17 484.52 995.65 488.09 945.29 613.44 828.78 736.46 975.92 738.15
00011287 00000030 619.51 217.90 438.04 698.13 809.12 485.37 992.95 488.57 943.16 613.23 828.27 739.61 973.02 740.33
00011288 00000031 618.56 213.90 437.13 704.85 808.49 481.50 991.77 485.67 941.13 607.54 828.94 739.14 970.34 740.66
00011289 00000032 617.37 210.11 437.12 707.54 805.52 475.05 990.52 477.41 938.48 598.11 830.90 736.34 971.13 736.20
00011290 00000033 612.98 203.00 442.01 707.90 801.69 468.59 988.88 470.96 934.96 593.87 828.23 728.97 969.68 728.64
00011291 00000034 609.72 197.16 443.34 704.11 794.67 463.78 984.72 466.99 929.09 590.63 824.28 722.13 966.52 722.51
00011292 00000035 611.66 192.32 435.13 697.96 794.02 465.68 976.97 471.61 928.17 592.83 816.95 717.69 966.08 720.77
00011293 00000036 603.83 207.08 442.81 678.10 789.93 467.59 978.63 470.17 923.53 593.35 821.42 715.71 959.78 715.59
00011294 00000037 601.52 209.96 442.13 674.62 788.26 471.91 972.74 472.57 920.83 596.16 822.63 716.89 955.78 715.08
00011295 00000038 600.47 212.52 439.72 669.34 786.42 477.44 969.29 476.90 919.79 600.16 822.84 720.50 953.66 717.72
00011296 00000039 608.20 205.38 431.84 676.89 790.59 483.82 968.51 485.26 919.67 611.92 812.82 724.77 954.36 725.16
00011297 00000040 608.25 206.78 432.62 680.42 788.20 483.55 972.28 485.93 920.93 617.61 809.87 729.87 956.66 730.95
00011298 00000041 600.94 212.42 442.94 680.94 783.00 479.80 975.20 482.93 920.15 610.97 808.41 724.81 954.98 725.38
00011299 00000042 599.22 212.69 445.04 682.07 783.75 475.84 974.81 481.13 919.91 606.35 802.44 716.14 956.27 718.88
00011300 00000043 601.08 213.85 443.62 682.53 784.85 473.63 976.40 478.36 920.72 604.59 800.51 710.50 961.73 712.81
00011301 00000044 601.78 212.95 444.06 684.47 785.23 472.89 977.51 478.10 921.26 603.60 798.71 708.75 964.31 711.49
00011302 00000045 604.61 216.41 444.28 682.67 787.55 474.76 979.85 478.99 923.76 605.47 800.99 709.97 967.20 712.11
00011303 00000046 606.13 217.66 445.53 682.53 790.93 478.70 982.18 482.36 928.34 611.43 803.56 713.48 969.35 715.19
00011304 00000047 605.70 218.46 447.73 687.23 792.71 485.96 983.03 489.43 931.02 620.33 805.12 721.75 969.75 723.25
00011305 00000048 607.33 229.83 446.31 682.05 793.18 493.74 982.95 498.12 928.93 631.04 803.15 728.71 966.11 731.00
00011306 00000049 607.28 235.36 445.69 680.09 796.72 502.54 983.86 509.65 930.07 640.68 801.02 733.18 966.15 737.78
00011307 00000050 607.55 240.55 444.34 680.69 797.02 506.05 983.48 515.14 929.39 644.35 798.10 736.09 965.15 742.26
00011308 00000051 605.63 237.29 445.40 689.29 796.97 503.71 981.89 514.95 929.50 642.90 794.57 734.85 963.76 742.55
00011309 00000052 601.59 228.78 448.70 701.78 793.53 498.50 980.79 509.75 928.98 638.58 792.59 732.54 964.07 739.79
00011310 00000053 601.26 224.53 449.33 701.19 792.75 492.14 981.42 503.26 928.53 632.01 793.00 727.70 965.83 734.86
00011311 00000054 601.61 218.13 449.13 702.57 791.31 486.65 981.60 496.98 928.51 624.05 793.08 723.04 966.12 729.74
00011312 00000055 604.17 216.86 446.85 697.95 791.62 483.90 981.72 491.61 928.57 620.11 797.33 721.57 966.85 726.31
00011313 00000056 605.29 217.02 446.13 688.96 791.48 483.46 981.45 489.79 927.90 618.98 803.28 722.88 964.26 726.57
00011314 00000057 611.56 211.05 439.37 690.85 795.10 487.87 978.08 492.71 924.84 621.32 805.56 728.15 963.07 730.65
00011315 00000058 612.30 211.27 438.99 692.54 796.30 489.83 979.69 494.51 925.69 625.64 808.05 732.56 961.67 735.01
00011316 00000059 611.53 218.13 443.00 687.78 793.79 488.31 984.47 491.05 930.39 624.47 815.52 734.11 965.05 734.72
00011317 00000060 615.00 213.97 442.05 687.46 797.47 485.43 988.75 487.73 934.41 619.44 821.28 732.97 970.97 733.30
00011318 00000061 618.59 208.75 441.91 686.10 801.30 481.27 991.16 482.63 935.61 614.72 825.62 728.41 972.73 728.09
00011319 00000062 624.42 201.70 437.21 686.03 808.00 483.19 988.96 484.89 935.81 611.75 828.89 726.00 976.12 725.65
00011320 00000063 625.04 202.32 437.31 683.74 809.87 484.18 990.70 485.21 938.68 612.34 830.05 725.08 977.95 724.29
00011321 00000064 619.99 207.26 444.30 685.50 808.36 483.06 995.84 485.43 943.67 617.34 827.66 725.88 977.20 726.80
00011322 00000065 621.37 213.30 441.92 686.42 808.13 489.87 997.74 492.91 942.04 622.52 829.81 736.38 975.81 737.53
00011323 00000066 621.42 219.13 440.68 688.35 808.75 489.10 997.00 494.22 941.00 622.68 827.28 740.34 969.54 743.27
00011324 00000067 621.89 215.60 439.78 690.67 806.18 487.51 996.35 492.75 939.01 620.69 827.82 741.49 970.11 744.38
00011325 00000068 621.36 210.37 439.49 688.80 803.90 483.55 994.00 488.36 937.35 616.63 828.97 737.99 969.18 740.42
00011326 00000069 625.91 204.36 434.92 678.94 807.82 484.11 988.11 488.05 934.09 616.24 827.42 729.50 969.16 731.25
00011327 00000070 619.31 210.80 442.43 671.71 802.62 480.01 992.27 484.78 936.39 614.48 825.59 725.19 967.77 727.89
00011328 00000071 619.34 210.59 441.06 674.85 804.20 480.69 992.49 486.41 936.62 616.50 825.01 727.56 965.77 731.10
00011329 00000072 618.45 213.69 441.84 674.04 804.47 482.30 992.54 489.33 936.41 620.19 822.84 727.66 965.34 732.35
00011330 00000073 621.99 205.84 437.55 683.10 806.55 487.51 986.66 493.12 929.91 624.08 821.05 729.33 966.52 732.22
00011331 00000074 615.68 211.94 445.28 681.59 799.04 484.88 990.62 490.00 932.70 622.28 818.43 727.96 968.38 730.76
00011332 00000075 612.71 214.69 443.89 681.52 798.19 483.56 985.31 489.17 929.74 619.87 817.55 729.05 960.63 732.36
00011333 00000076 608.30 213.47 445.87 683.33 794.69 481.57 981.69 488.58 926.87 618.10 811.88 724.23 957.70 728.62
00011334 00000077 605.26 212.25 443.07 684.42 790.61 479.51 977.31 486.01 923.20 612.33 809.20 721.55 955.81 725.40
00011335 00000078 602.80 210.02 443.62 684.70 786.73 478.48 975.48 484.56 919.66 610.40 805.64 718.95 955.28 722.30
00011336 00000079 605.25 205.48 434.68 688.42 788.97 481.10 967.42 487.75 916.64 614.69 800.10 721.05 951.99 725.65
00011337 00000080 602.63 208.05 434.32 693.17 786.72 485.28 964.12 493.52 914.24 618.95 794.08 722.89 948.11 729.05
00011338 00000081 596.80 212.99 440.99 695.95 782.23 488.79 967.84 501.96 913.27 625.84 789.18 721.90 950.13 730.35
00011339 00000082 595.21 217.17 441.09 698.20 781.84 489.35 966.10 505.32 911.30 629.05 784.73 724.25 945.20 734.81
00011340 00000083 594.97 212.64 440.30 708.76 781.85 486.49 964.39 502.99 911.93 625.22 782.74 724.23 944.91 734.97
00011341 00000084 596.56 214.02 437.03 703.31 781.26 482.42 964.00 499.88 909.99 621.52 780.39 720.87 941.97 732.64
00011342 00000085 594.84 212.58 438.65 697.67 778.94 477.74 963.22 494.09 908.43 615.21 785.12 719.12 941.15 729.84
00011343 00000086 592.74 206.54 440.23 698.95 776.55 476.25 962.15 490.61 906.62 612.32 791.42 721.64 938.70 730.59
00011344 00000087 591.87 203.20 439.61 696.88 776.74 476.85 959.81 489.34 905.83 613.03 798.99 720.98 936.53 728.40
00011345 00000088 595.68 203.49 432.17 694.63 779.08 485.97 952.57 496.32 904.84 618.77 791.13 722.05 936.86 730.04
00011346 00000089 594.40 204.24 433.18 695.04 776.09 489.27 951.46 500.85 901.48 622.76 786.60 722.96 935.18 732.00
00011347 00000090 592.31 203.47 435.17 699.48 775.80 488.10 950.98 500.83 900.07 622.37 784.70 723.14 932.66 733.24
00011348 00000091 590.60 201.49 438.45 702.34 770.78 478.62 957.28 492.59 900.06 617.12 791.93 724.74 930.61 733.41
00011349 00000092 592.09 199.18 435.74 706.52 775.02 476.59 952.56 488.33 902.17 613.37 789.14 727.43 931.26 737.01
00011350 00000093 590.84 200.11 437.29 703.39 772.74 475.07 952.71 485.17 901.21 610.87 789.73 728.82 931.23 737.01
00011351 00000094 590.43 202.20 436.59 703.24 773.57 475.05 951.92 486.37 900.52 610.40 789.09 728.71 929.64 738.02
00011352 00000095 587.36 206.30 438.71 701.95 769.24 473.24 957.75 487.46 899.11 614.40 792.52 729.70 924.95 738.76
00011353 00000096 589.27 205.58 436.56 702.35 773.75 482.35 952.24 495.22 899.55 620.59 783.00 729.45 928.75 740.41
00011354 00000097 589.19 208.14 435.58 699.28 772.61 484.26 950.63 496.31 898.29 621.08 782.71 728.73 929.74 738.87
00011355 00000098 589.60 209.69 434.94 697.35 771.47 482.42 949.52 495.89 895.25 620.03 779.34 726.01 927.43 737.32
00011356 00000099 589.38 208.79 434.58 695.40 770.97 480.92 948.77 494.72 894.41 618.00 778.53 722.70 926.84 734.25
00011357 00000100 587.32 213.66 438.13 690.74 766.15 476.37 954.18 492.52 893.39 618.24 780.33 721.70 926.53 732.18
00011358 00000101 586.21 214.86 439.12 690.31 765.97 479.55 953.13 496.07 893.20 622.40 778.11 723.35 925.95 734.16
00011359 00000102 586.84 213.55 437.75 692.10 768.95 489.33 950.11 500.39 894.81 625.97 775.44 725.41 928.70 734.76
00011360 00000103 587.16 215.10 439.11 685.34 767.12 492.80 953.41 500.89 895.40 629.05 775.53 725.98 933.37 732.73
00011361 00000104 588.76 214.76 438.82 679.74 766.98 494.58 956.23 500.01 897.38 630.56 778.46 725.49 938.78 729.74
00011362 00000105 589.83 213.52 438.10 675.52 767.29 494.34 955.83 497.87 897.76 630.04 780.36 721.60 941.22 724.27
00011363 00000106 591.18 213.53 436.70 666.84 766.98 493.71 955.74 496.32 897.96 628.76 779.46 717.54 941.73 719.76
00011364 00000107 591.88 213.59 436.10 664.21 767.59 495.04 956.39 496.75 899.33 629.29 779.79 716.15 943.74 717.66
00011365 00000108 591.89 217.88 437.55 662.81 769.11 496.02 958.35 498.01 900.59 630.64 779.85 716.79 944.66 718.67
00011366 00000109 593.12 220.63 437.66 662.78 770.00 499.26 960.70 500.67 901.33 633.24 780.40 719.07 945.88 720.61
00011367 00000110 594.82 220.07 436.83 664.65 772.50 500.46 961.87 501.99 903.67 632.67 781.43 718.63 947.48 720.22
00011368 00000111 597.29 220.33 435.61 663.27 774.21 498.59 963.55 500.80 905.36 631.58 780.79 715.44 949.34 717.66
00011369 00000112 597.77 217.74 435.37 663.64 775.71 497.75 964.57 500.04 907.38 630.44 781.39 713.88 950.12 716.25
00011370 00000113 599.40 217.87 434.27 664.14 777.25 497.47 966.17 500.00 909.09 631.10 781.44 713.08 951.56 715.63
00011371 00000114 600.30 217.52 434.31 664.95 778.70 498.30 967.24 501.03 910.36 632.39 782.31 713.46 952.06 716.22
00011372 00000115 601.91 220.45 434.27 663.59 779.59 498.88 968.71 502.24 910.14 633.48 783.50 715.30 952.92 718.60
00011373 00000116 602.63 220.08 434.26 664.38 780.53 499.59 969.79 502.41 910.76 634.73 784.63 716.35 953.26 719.21
00011374 00000117 603.72 221.02 434.23 663.38 781.88 499.92 971.07 503.06 911.16 636.11 785.28 716.73 953.50 719.87
00011375 00000118 604.03 220.27 435.17 665.54 782.10 500.23 972.18 503.14 911.68 636.49 785.73 717.22 954.94 720.06
00011376 00000119 605.55 219.31 435.78 667.29 783.13 499.46 974.16 502.97 912.48 636.57 785.69 716.84 956.40 720.09
00011377 00000120 605.99 219.38 436.52 667.45 783.82 500.10 975.47 503.44 914.00 635.41 786.35 716.60 958.01 719.61
00011378 00000121 606.36 219.70 437.46 668.05 784.16 499.88 976.81 502.97 914.89 635.32 788.00 717.13 960.19 719.85
00011379 00000122 607.09 220.16 437.24 666.06 784.95 499.94 977.14 502.59 915.57 635.51 789.37 717.39 960.51 719.74
00011380 00000123 607.64 219.74 436.98 666.66 785.74 499.68 977.73 502.54 916.34 635.58 789.47 717.17 961.11 719.70
00011381 00000124 607.60 220.82 437.54 665.20 786.37 499.42 978.00 502.28 917.07 635.32 790.45 717.37 961.19 719.86
00011382 00000125 607.87 220.22 437.63 666.66 787.38 499.28 978.26 502.37 917.72 635.12 791.51 717.63 961.48 720.19
00011383 00000126 607.78 220.40 437.46 667.38 787.45 499.99 978.56 502.66 918.36 635.98 791.57 718.17 961.87 720.38
00011384 00000127 608.11 220.32 437.28 667.38 787.46 499.86 978.81 502.87 918.20 635.86 791.12 718.00 961.90 720.52
00011385 00000128 608.10 220.25 437.64 667.95 787.56 499.93 978.96 502.87 918.23 635.81 791.18 718.31 962.02 720.75
00011386 00000129 607.96 220.50 437.42 667.36 787.39 499.84 978.48 502.86 917.98 635.71 791.16 718.16 961.65 720.68
00011387 00000130 608.16 220.32 437.43 667.37 787.24 499.76 978.54 502.82 918.10 635.52 791.22 718.16 961.82 720.69
00011388 00000131 608.12 219.74 437.45 670.10 787.30 499.62 978.69 502.83 918.39 635.41 791.57 718.97 962.39 721.50
00011389 00000132 607.89 219.77 437.65 672.16 787.02 498.77 977.75 502.71 917.53 634.63 791.94 720.39 961.26 723.42
00011390 00000133 608.25 220.23 437.28 673.29 787.09 498.51 977.92 502.23 917.91 634.47 792.53 721.56 961.29 724.32
00011391 00000134 608.04 220.75 437.60 670.92 786.91 498.55 977.29 501.85 917.92 634.24 794.38 723.28 960.08 725.69
00011392 00000135 608.48 221.60 436.50 671.48 787.24 497.57 975.64 502.36 916.79 633.45 795.60 727.03 956.33 730.66
00011393 00000136 607.55 221.25 437.88 677.83 787.30 496.27 974.94 503.54 915.61 633.89 793.11 728.05 953.94 733.68
00011394 00000137 601.65 227.93 444.95 679.78 784.47 491.65 976.63 503.11 917.11 632.07 794.90 727.80 952.70 735.42
00011395 00000138 601.68 227.97 444.97 679.29 783.98 491.99 976.32 503.86 916.27 632.11 793.61 727.61 952.20 735.59
00011396 00000139 606.40 221.50 439.05 681.82 788.09 495.15 973.00 505.42 914.23 633.07 790.91 727.54 949.50 735.67
00011397 00000140 606.76 221.03 438.69 680.68 788.09 495.52 973.42 505.78 914.12 633.31 790.68 727.13 949.96 735.26
00011398 00000141 606.89 220.37 438.69 680.91 787.56 496.01 974.06 505.17 914.65 634.06 791.15 727.73 951.55 734.92
00011399 00000142 607.82 221.57 437.19 674.57 786.89 496.64 974.99 504.10 915.03 634.80 792.09 726.86 953.74 732.77
00011400 00000143 608.08 221.78 436.25 670.96 786.64 497.64 975.18 503.64 915.01 635.22 793.66 726.23 955.05 730.96
00011401 00000144 607.47 221.38 437.01 669.58 785.80 498.40 976.10 503.53 914.74 636.35 792.45 725.38 956.10 729.46
00011402 00000145 607.93 222.42 436.70 667.65 785.88 498.95 976.12 503.58 914.94 635.94 792.60 724.30 956.60 727.99
00011403 00000146 607.53 221.80 437.10 670.32 784.79 499.19 976.54 503.65 915.15 636.25 790.75 723.54 958.33 727.05
00011404 00000147 607.23 222.20 437.00 670.57 784.34 499.34 976.27 504.26 914.56 636.18 789.71 723.05 957.63 727.04
00011405 00000148 607.59 221.95 436.62 670.99 784.69 499.34 976.17 504.60 913.97 636.71 788.93 722.27 957.31 726.60
00011406 00000149 606.91 221.92 436.93 669.86 784.68 499.60 976.05 505.01 913.84 636.23 788.01 721.18 956.91 725.69
00011407 00000150 606.21 221.65 437.32 669.77 783.47 500.03 975.85 504.76 913.14 636.32 787.18 720.63 957.37 724.63
00011408 00000151 605.84 221.00 437.43 668.67 782.98 499.99 975.62 504.21 913.05 636.35 787.03 720.08 957.34 723.73
00011409 00000152 605.50 220.00 437.58 669.75 782.96 499.95 975.26 504.44 912.97 636.12 786.00 719.30 956.68 723.20
00011410 00000153 605.45 220.41 437.24 669.98 782.65 499.91 975.12 504.78 912.48 636.54 785.00 719.31 956.22 723.59
00011411 00000154 605.28 220.80 437.47 669.28 782.35 500.38 974.81 504.88 912.23 636.85 784.78 719.36 956.06 723.35
00011412 00000155 605.43 220.88 437.25 669.24 782.58 500.15 974.80 505.24 912.09 637.08 784.77 719.40 955.73 723.90
00011413 00000156 605.11 221.28 437.52 669.16 782.44 500.05 974.80 504.76 912.15 636.95 784.85 719.58 956.00 723.73
00011414 00000157 605.39 221.57 437.18 668.61 782.36 500.21 975.03 504.99 912.16 637.27 784.98 719.73 956.07 723.96
00011415 00000158 605.27 222.15 437.39 668.20 782.31 500.11 975.06 505.23 911.91 637.25 784.85 719.79 955.89 724.30
00011416 00000159 605.33 222.83 436.93 667.37 782.03 500.47 974.92 505.18 912.28 636.92 785.39 720.11 955.93 724.31
00011417 00000160 605.76 222.42 436.89 668.43 781.90 501.37 975.54 506.36 912.22 637.58 784.94 720.56 956.43 724.91
00011418 00000161 605.98 222.25 437.22 668.26 782.12 501.48 975.68 506.58 911.89 637.89 785.47 720.68 956.56 725.09
00011419 00000162 606.36 222.23 436.85 668.99 782.27 501.85 976.18 507.27 911.96 638.02 785.08 720.54 957.06 725.17
00011420 00000163 606.37 223.57 437.55 667.94 782.75 501.48 976.54 506.99 912.55 637.95 785.78 720.73 957.29 725.41
00011421 00000164 606.43 222.69 437.69 668.58 782.78 501.87 976.41 507.16 912.77 637.99 785.92 720.68 957.74 725.13
00011422 00000165 606.31 223.64 438.27 666.72 782.99 502.67 977.76 507.43 913.52 638.94 786.18 720.86 958.88 724.96
00011423 00000166 606.23 224.14 439.43 665.29 782.99 503.22 978.61 507.76 914.24 638.93 786.57 721.31 959.67 725.27
00011424 00000167 606.35 223.32 439.65 667.26 783.48 503.73 979.33 508.86 915.14 639.43 786.11 721.36 960.28 725.69
00011425 00000168 606.64 224.94 440.01 665.45 784.58 504.05 980.59 509.51 916.22 640.23 786.68 721.59 961.02 726.24
00011426 00000169 607.54 223.50 439.69 667.35 785.96 504.31 981.13 509.40 917.67 640.23 788.02 721.87 962.22 726.12
