Video ID: 	wrXYvrjEff0
H: 	1080
W: 	1920
FPS: 	25.0

FRAME INDEX X0 Y0 W H [Landmarks (5 Points)]

00005705 00000000 416.89 109.73 536.27 702.08 639.22 324.78 856.16 371.09 771.90 458.79 635.12 590.29 804.94 627.89
00005706 00000001 417.89 110.46 536.71 703.40 640.34 326.18 858.91 372.23 774.97 462.19 636.47 593.16 807.35 630.48
00005707 00000002 417.95 111.79 535.62 705.18 641.17 327.33 859.34 373.28 775.61 466.27 636.40 596.43 806.54 633.67
00005708 00000003 418.23 110.16 535.60 715.10 638.84 328.74 855.71 372.42 770.97 465.52 636.11 604.40 801.38 639.96
00005709 00000004 421.21 113.47 531.10 724.47 637.25 331.06 851.38 368.63 767.45 463.92 640.91 615.56 798.64 646.11
00005710 00000005 413.92 110.37 536.04 747.00 631.68 338.33 850.00 370.88 768.72 462.38 643.23 628.71 800.91 655.82
00005711 00000006 412.55 113.38 534.39 746.60 625.71 341.09 847.72 373.26 764.05 467.82 634.65 632.39 797.45 658.79
00005712 00000007 408.59 119.72 537.03 744.75 618.16 343.66 842.67 376.48 751.03 475.56 623.35 636.60 786.92 663.14
00005713 DELETE   404.11 114.58 537.28 754.43 607.53 343.80 835.09 377.13 738.05 477.45 611.44 639.43 776.95 665.94
00005714 DELETE   400.64 117.28 534.42 754.39 599.03 344.39 828.08 379.98 727.67 479.36 599.72 637.29 770.01 665.38
00005715 DELETE   397.22 119.33 532.55 754.32 588.62 347.80 819.05 382.97 717.08 483.85 591.59 641.17 760.33 668.72
00005716 00000011 393.29 120.74 530.04 756.08 581.63 353.15 810.49 385.60 703.94 492.26 583.47 645.61 749.19 671.05
00005717 00000012 391.02 136.79 524.31 741.85 573.42 357.19 802.18 384.38 694.82 497.33 577.19 649.51 744.10 671.06
00005718 00000013 380.94 131.86 528.22 751.07 558.46 359.08 795.97 381.01 689.12 498.61 568.74 656.23 739.15 675.87
00005719 00000014 374.79 132.62 531.43 752.44 551.86 359.81 790.43 383.50 681.58 503.73 561.30 656.00 733.97 677.09
00005720 00000015 373.11 140.05 526.47 742.84 547.73 360.79 775.51 384.50 665.67 503.31 554.60 651.98 720.70 671.49
00005721 00000016 366.92 141.55 526.24 740.63 541.35 359.16 771.76 381.37 660.49 505.66 552.69 654.42 716.53 672.97
00005722 00000017 362.00 141.35 527.08 741.64 535.00 357.61 767.27 378.76 655.18 507.15 548.43 657.03 713.78 674.79
00005723 00000018 359.54 134.59 524.43 747.88 530.38 356.73 765.10 377.46 653.28 507.34 545.01 657.79 713.91 675.01
00005724 00000019 352.40 142.73 527.71 739.69 529.82 359.49 767.93 382.89 657.25 512.80 538.82 659.14 715.02 676.60
00005725 00000020 350.52 140.52 529.15 741.18 529.15 358.63 766.96 382.67 657.30 509.80 536.37 655.62 715.63 673.69
00005726 00000021 349.87 138.13 528.65 739.49 529.80 358.33 766.76 380.42 660.41 505.91 538.85 654.21 718.26 670.66
00005727 00000022 349.60 138.89 529.08 738.77 529.44 358.89 767.41 381.36 661.90 506.83 538.23 652.74 720.29 669.46
00005728 00000023 349.99 139.52 528.77 737.55 530.18 359.63 768.08 381.24 662.56 509.26 539.57 652.64 721.49 668.49
00005729 00000024 350.04 141.24 529.64 735.29 529.93 362.00 768.51 382.81 662.54 510.67 540.32 652.87 722.65 667.92
00005730 00000025 350.08 144.68 529.52 732.59 529.40 363.36 769.24 384.82 662.35 512.94 539.16 653.12 723.15 668.69
00005731 00000026 350.50 144.63 529.02 732.55 528.92 363.75 769.10 384.76 661.98 512.70 538.62 653.09 723.59 668.25
00005732 00000027 350.53 144.76 529.10 730.62 529.35 363.43 769.16 384.89 663.05 512.72 538.16 651.60 724.19 667.17
00005733 00000028 350.77 145.68 529.23 725.39 529.42 363.03 769.61 385.02 664.21 511.03 537.81 649.57 724.47 665.70
00005734 00000029 350.31 146.99 530.05 722.34 529.34 362.23 769.45 384.97 663.85 510.36 537.00 647.28 724.39 663.87
00005735 00000030 350.16 144.96 529.79 720.77 529.16 362.56 768.96 384.47 664.37 508.68 536.37 644.62 725.83 660.67
00005736 00000031 350.46 136.65 531.60 726.07 528.41 360.82 768.46 382.83 663.26 507.08 535.64 642.53 726.06 658.64
00005737 00000032 350.28 134.40 532.15 726.66 527.29 360.49 767.90 383.34 661.85 505.16 534.87 641.36 724.93 658.10
00005738 00000033 351.11 135.73 531.03 726.69 528.14 359.19 768.79 384.44 662.21 503.58 532.70 640.60 724.41 659.46
00005739 00000034 351.86 130.47 530.36 734.35 534.86 354.53 772.23 381.19 668.30 500.41 536.50 639.71 724.26 660.19
00005740 00000035 361.88 118.01 523.81 746.65 540.12 347.42 774.21 369.75 668.68 487.30 548.59 634.77 732.25 652.76
00005741 DELETE   368.33 115.64 525.64 739.88 556.44 341.88 788.20 365.86 689.84 486.85 565.34 631.15 744.26 650.11
00005742 DELETE   374.85 114.62 525.36 732.27 573.75 339.62 803.13 366.92 712.56 480.06 581.62 623.07 762.04 644.33
00005743 DELETE   379.62 114.77 524.42 725.32 578.53 332.98 810.73 362.06 725.66 477.64 583.66 620.90 777.58 643.08
00005744 00000039 382.56 113.29 522.68 720.78 583.09 328.72 815.57 360.07 731.83 473.71 589.28 619.03 780.19 643.20
00005745 00000040 381.36 106.75 525.20 724.55 578.39 328.26 815.15 359.86 724.13 473.35 588.71 614.02 778.86 638.42
00005746 DELETE   379.21 110.18 526.02 717.17 568.27 327.38 806.25 359.42 708.85 474.95 575.06 607.21 769.85 631.84
00005747 DELETE   377.07 92.56 527.68 742.16 556.86 327.71 801.47 353.99 695.30 463.98 570.40 614.83 756.91 636.35
00005748 00000043 377.50 95.60 526.03 749.15 555.86 326.92 795.26 351.39 690.68 463.72 571.77 623.61 746.55 644.23
00005749 00000044 379.45 108.59 528.01 730.40 559.81 328.54 796.79 358.13 694.62 474.90 562.83 617.64 754.89 640.97
00005750 DELETE   380.27 106.63 526.11 726.12 571.98 331.07 806.82 361.27 713.71 475.82 580.16 615.88 769.27 639.27
00005751 00000046 380.96 110.62 525.25 717.21 570.01 332.08 808.59 355.20 718.52 474.55 592.15 618.61 776.43 635.67
00005752 DELETE   377.09 105.78 527.47 719.46 568.17 331.70 802.00 350.50 714.24 469.42 595.28 614.02 775.55 627.41
00005753 DELETE   369.48 107.83 529.97 717.67 555.94 330.39 787.61 347.93 690.16 462.22 581.87 611.77 750.42 625.25
00005754 DELETE   366.27 93.71 527.73 748.18 544.46 331.12 781.26 343.98 676.94 453.70 578.83 622.95 735.85 633.84
00005755 00000050 362.36 90.91 525.70 762.18 534.21 325.12 771.78 340.02 661.02 453.61 568.06 627.73 724.66 640.79
00005756 00000051 362.57 88.38 522.69 766.72 533.79 323.95 770.83 340.83 661.50 453.39 562.89 626.54 729.27 640.61
00005757 00000052 359.67 85.18 525.89 765.75 538.45 328.17 774.23 348.26 670.64 456.54 564.17 623.71 737.43 639.99
00005758 00000053 357.16 93.31 525.79 751.07 536.82 332.26 775.45 350.22 675.55 462.74 561.46 621.29 744.17 635.45
00005759 00000054 352.28 106.86 528.41 729.02 528.08 335.08 777.13 355.26 679.54 474.99 545.74 623.07 750.14 638.49
00005760 00000055 350.75 103.17 529.10 730.39 527.40 337.60 775.01 355.34 678.81 476.06 547.96 623.56 750.18 636.94
00005761 00000056 345.92 107.14 533.08 734.26 532.66 344.59 772.11 354.15 679.11 474.94 557.50 626.34 744.72 632.37
00005762 00000057 344.61 110.14 533.03 734.66 532.78 342.84 768.34 354.49 674.20 474.31 558.04 629.89 736.56 638.11
00005763 00000058 344.88 107.74 532.78 736.59 531.78 340.56 766.58 352.89 671.96 472.58 556.08 629.37 733.90 638.29
00005764 00000059 347.24 102.65 530.99 732.47 521.70 335.13 768.42 354.76 665.82 475.96 540.51 624.00 737.02 639.07
00005765 00000060 348.63 106.56 529.63 726.11 522.72 335.74 770.37 355.77 668.70 477.46 540.17 622.27 740.73 637.54
00005766 00000061 349.66 104.00 530.49 727.14 526.40 335.76 773.04 355.38 672.74 475.90 544.08 620.91 744.58 635.80
00005767 00000062 350.46 102.18 531.53 728.68 530.26 334.90 776.16 355.11 679.06 470.68 550.33 619.70 747.97 635.02
00005768 00000063 357.82 95.38 525.31 746.04 534.73 332.89 774.71 347.89 672.90 461.30 566.41 625.38 741.33 637.44
00005769 00000064 358.37 95.47 525.43 746.12 531.93 331.42 773.38 346.85 667.70 462.22 563.31 626.10 737.25 638.72
00005770 00000065 358.59 93.68 525.39 745.83 530.61 329.48 771.96 345.31 664.55 460.19 559.62 623.43 733.36 636.63
00005771 00000066 359.04 91.85 527.09 745.21 533.45 329.23 773.64 345.66 667.95 460.07 560.80 619.80 736.43 633.54
00005772 00000067 361.01 87.79 526.60 747.22 538.47 330.06 778.94 347.14 677.17 459.66 566.06 619.12 745.09 633.14
00005773 00000068 361.82 92.93 524.60 738.92 542.66 332.03 783.31 346.95 685.33 461.81 571.59 618.79 753.68 630.67
00005774 00000069 363.27 98.11 524.09 735.15 542.99 334.66 783.21 348.48 685.48 461.98 572.67 620.44 755.33 631.10
00005775 00000070 362.38 102.29 525.41 729.45 540.20 335.99 776.73 352.14 673.22 465.15 563.88 613.56 746.31 626.51
00005776 00000071 361.94 97.37 526.40 727.67 540.88 331.05 773.79 349.87 667.17 460.73 564.25 604.54 739.02 620.46
00005777 DELETE   363.96 84.49 530.66 741.47 546.13 326.36 780.10 344.99 674.78 449.80 572.95 599.32 743.94 614.83
00005778 00000073 366.93 91.03 531.58 743.48 550.94 327.38 784.77 339.08 683.49 444.56 586.97 611.16 746.46 621.03
00005779 00000074 366.22 87.04 533.00 743.44 553.07 325.12 782.45 338.25 686.68 440.85 586.03 612.02 746.96 621.87
00005780 00000075 367.28 91.42 530.04 740.32 550.77 326.51 780.31 340.42 683.50 453.21 581.94 617.45 743.24 628.16
00005781 00000076 366.94 101.21 528.70 735.61 547.24 329.80 777.11 344.40 678.39 462.04 571.79 622.46 739.24 634.02
00005782 00000077 367.13 102.55 524.64 734.21 543.08 333.20 781.97 349.56 678.03 462.63 570.05 622.95 742.62 636.49
00005783 00000078 365.69 103.48 524.77 731.14 543.40 333.31 782.19 351.73 679.57 463.69 565.97 619.41 744.85 634.50
00005784 00000079 366.31 97.27 523.10 730.67 542.40 332.68 782.95 347.65 681.48 461.78 570.90 620.32 748.28 632.50
00005785 00000080 365.03 88.45 525.21 730.62 544.83 330.51 786.06 340.11 691.08 453.19 580.18 618.41 756.71 625.71
00005786 00000081 365.13 92.05 526.33 718.91 546.39 326.32 788.09 331.89 698.36 440.69 585.04 612.05 767.38 614.80
00005787 00000082 360.65 89.52 531.20 713.11 542.75 322.36 786.10 326.11 698.68 444.90 588.08 608.10 767.05 609.26
00005788 00000083 360.87 87.00 528.88 726.95 543.66 322.62 783.74 327.37 696.43 436.54 583.95 610.67 764.47 612.86
00005789 DELETE   352.14 90.56 535.14 725.35 530.77 326.18 773.88 335.33 682.48 444.60 569.03 610.03 753.47 615.45
00005790 00000085 350.10 92.42 532.48 728.48 523.94 331.57 768.68 342.24 672.54 452.44 556.19 615.93 744.22 622.89
00005791 00000086 346.88 93.69 532.79 728.28 517.96 333.81 764.76 345.74 663.85 458.99 547.78 616.28 739.32 624.34
00005792 00000087 346.38 97.05 532.73 722.09 517.20 334.32 764.56 345.55 663.17 459.83 547.86 616.30 739.16 623.84
00005793 00000088 346.78 87.76 533.51 731.49 521.50 333.27 769.01 345.95 668.80 458.63 550.07 613.85 743.08 622.52
00005794 00000089 346.09 90.17 536.14 726.28 527.24 330.02 771.99 344.08 673.34 454.00 554.38 607.20 745.15 616.72
00005795 00000090 348.14 91.25 535.37 713.94 527.75 323.68 771.02 338.16 670.15 447.27 555.07 600.40 740.81 610.31
00005796 00000091 349.64 85.93 534.17 711.18 526.06 320.40 770.50 334.39 667.32 441.28 552.96 593.57 740.61 603.01
00005797 00000092 349.99 85.93 534.68 712.30 525.90 319.76 770.16 334.15 666.51 437.72 551.28 593.18 739.89 603.17
00005798 00000093 349.00 88.32 537.09 715.34 527.99 321.59 772.20 337.57 669.53 443.16 554.61 599.10 738.58 610.31
00005799 00000094 349.58 92.41 537.07 719.39 528.27 323.34 773.14 339.43 672.74 444.70 556.63 605.10 742.55 616.56
00005800 00000095 352.05 88.93 536.18 724.28 529.83 322.18 773.61 337.83 672.95 443.69 558.60 607.26 742.85 618.34
00005801 00000096 361.08 85.76 524.72 724.55 533.81 319.80 774.30 335.34 669.95 441.47 559.20 604.16 740.65 617.08
00005802 00000097 361.80 83.41 523.59 728.07 533.30 319.94 774.22 337.43 668.17 443.53 556.89 603.34 739.29 618.00
00005803 00000098 362.98 81.30 523.47 733.73 533.98 321.78 774.63 340.88 665.89 446.64 556.38 604.71 739.73 620.72
00005804 00000099 355.07 88.12 533.48 732.03 529.81 326.22 777.91 345.31 672.69 456.96 549.44 612.71 744.86 627.23
00005805 00000100 361.70 77.69 527.83 756.92 538.07 325.04 777.68 344.31 673.65 452.20 561.56 614.90 745.66 630.70
00005806 00000101 362.86 78.65 528.03 753.54 539.84 323.66 778.30 344.17 674.31 448.75 560.94 611.81 743.93 628.80
00005807 00000102 362.79 72.96 527.35 756.30 536.96 322.75 775.21 343.04 667.88 445.90 556.52 609.10 739.42 626.06
00005808 00000103 359.60 77.79 524.69 750.40 530.16 321.56 768.33 344.16 658.24 448.82 548.01 607.10 729.76 626.23
00005809 00000104 356.45 84.64 521.83 746.43 519.32 318.05 761.98 344.39 644.58 449.34 533.96 606.17 719.71 628.31
00005810 00000105 358.09 79.86 523.23 753.35 526.32 321.58 765.83 347.41 652.88 451.04 542.09 609.51 723.29 631.16
00005811 00000106 361.20 73.41 528.63 762.40 538.01 326.50 776.92 346.78 671.98 453.25 559.58 615.07 739.23 631.75
00005812 00000107 361.79 81.47 527.74 753.86 545.67 328.15 783.19 347.17 687.09 457.38 567.73 615.57 752.32 630.63
00005813 00000108 362.04 93.63 526.06 741.34 545.04 331.92 782.85 349.39 687.37 462.56 567.01 616.83 755.24 630.34
00005814 00000109 361.40 97.26 525.27 736.62 538.93 336.78 778.15 351.97 678.95 467.55 563.20 618.58 750.12 630.39
00005815 00000110 355.25 104.19 533.71 729.07 537.02 345.24 776.63 358.37 678.97 477.50 560.13 622.30 744.03 631.28
00005816 00000111 361.78 97.88 524.30 736.09 531.46 338.30 772.27 352.90 662.09 471.80 558.35 619.22 736.04 630.88
00005817 00000112 362.41 97.63 525.31 735.82 532.92 338.17 773.43 352.56 664.09 472.40 559.15 618.69 737.92 630.18
00005818 00000113 364.63 98.14 524.82 738.78 536.69 339.49 776.61 351.90 670.54 472.39 563.73 620.51 743.93 630.03
00005819 00000114 365.15 105.43 525.14 736.06 541.65 338.38 779.09 352.83 677.88 469.13 569.41 626.65 744.46 638.05
00005820 00000115 365.43 103.11 525.42 741.28 540.81 339.92 778.68 353.57 678.23 471.23 571.26 630.40 748.36 640.68
00005821 00000116 363.30 108.93 525.10 733.36 538.66 340.56 777.13 356.08 674.62 479.11 565.02 626.80 747.28 638.82
00005822 00000117 362.87 105.28 525.03 736.77 535.57 342.00 775.75 357.83 669.54 479.73 559.49 626.58 745.52 638.92
00005823 00000118 362.87 108.79 524.34 732.28 535.25 341.36 775.01 359.81 668.05 478.86 555.53 623.64 744.20 638.14
00005824 00000119 363.35 105.68 523.66 734.01 535.45 339.95 775.08 357.46 669.27 478.28 555.82 622.56 746.33 636.32
00005825 00000120 363.10 102.22 522.86 734.66 535.01 339.86 775.07 355.83 671.00 476.59 558.08 623.23 748.07 635.67
00005826 00000121 357.18 114.60 529.31 725.10 536.53 347.88 777.31 360.46 677.43 485.74 557.70 630.45 743.63 639.07
00005827 00000122 353.66 118.28 529.00 724.35 534.21 349.91 774.19 364.16 673.55 488.41 554.27 635.23 737.30 645.39
00005828 00000123 352.56 114.11 525.26 720.80 521.85 344.91 770.26 362.90 666.55 491.67 539.71 631.52 739.68 645.44
00005829 00000124 351.22 113.13 524.61 718.19 521.08 343.96 768.16 364.12 663.59 491.35 536.93 627.20 737.29 642.74
00005830 00000125 351.01 109.82 524.62 721.30 517.45 344.30 766.31 363.78 659.28 492.04 531.84 626.32 735.79 641.44
00005831 00000126 349.66 113.14 524.15 718.84 512.33 342.77 762.59 361.36 653.12 492.93 525.51 627.51 730.61 642.03
00005832 00000127 348.35 110.05 524.25 721.83 510.00 341.42 761.18 360.34 651.63 491.41 523.31 628.65 727.89 643.59
00005833 00000128 348.40 109.43 525.54 726.49 511.94 341.13 762.04 359.46 654.01 489.99 527.28 630.42 729.11 644.77
00005834 00000129 348.24 112.92 527.67 726.61 524.26 348.03 766.78 361.77 664.35 485.40 543.82 632.24 730.80 641.88
00005835 00000130 349.55 106.87 526.28 733.43 528.62 348.22 768.20 361.23 670.87 483.76 551.03 633.25 734.67 642.32
00005836 00000131 348.52 111.53 526.44 730.05 532.47 347.76 767.29 361.99 671.99 484.77 554.76 632.39 731.95 642.57
00005837 00000132 348.03 111.62 528.20 730.31 531.39 346.90 767.09 361.90 671.77 483.72 554.31 632.59 730.98 643.34
00005838 00000133 347.88 117.37 530.69 730.37 531.55 345.28 764.37 362.83 667.27 481.94 550.69 633.95 722.86 647.28
00005839 00000134 348.70 115.57 529.53 739.86 530.68 344.34 761.27 361.03 664.02 478.90 551.11 637.61 718.53 650.22
00005840 00000135 349.27 114.07 530.72 741.24 530.87 344.75 764.11 362.98 665.22 481.25 548.91 636.81 720.14 650.76
CROP_BBOX: 29 0 1205 1059
