Video ID: 	3eeGgQUgTTI
H: 	2160
W: 	3840
FPS: 	25.0

FRAME INDEX X0 Y0 W H [Landmarks (5 Points)]

00003847 00000000 1126.32 276.89 894.00 1288.53 1395.78 808.40 1783.72 724.64 1674.77 959.96 1558.10 1272.75 1860.08 1201.86
00003848 00000001 1141.38 282.23 880.73 1299.38 1417.36 808.52 1809.13 733.48 1709.44 982.85 1573.11 1287.80 1879.81 1224.97
00003849 00000002 1153.59 284.59 877.22 1305.98 1445.58 814.54 1828.65 750.59 1741.55 1007.42 1592.06 1297.67 1887.25 1244.14
00003850 00000003 1165.03 286.89 876.31 1312.61 1474.65 816.45 1851.83 766.86 1772.21 1013.49 1612.99 1305.03 1894.21 1263.70
00003851 00000004 1169.10 283.20 873.12 1331.26 1500.23 816.85 1870.69 773.70 1800.08 1018.41 1632.38 1314.97 1902.00 1278.28
00003852 00000005 1165.85 270.79 877.06 1337.53 1513.10 804.05 1878.97 769.77 1814.11 997.80 1639.52 1301.59 1905.61 1271.80
00003853 00000006 1160.10 263.87 879.18 1343.95 1506.08 801.66 1873.90 770.39 1809.18 995.38 1626.23 1296.89 1898.93 1269.19
00003854 00000007 1144.40 268.18 889.63 1344.61 1489.08 808.92 1864.75 778.80 1788.64 1023.71 1599.29 1303.15 1884.44 1276.77
00003855 DELETE   1129.79 278.10 885.23 1355.58 1456.10 835.25 1841.36 798.66 1754.38 1051.82 1561.39 1315.84 1867.00 1285.37
00003856 00000009 1099.14 302.95 886.37 1349.26 1409.06 859.28 1819.88 792.21 1720.94 1073.48 1532.61 1359.89 1840.69 1299.30
00003857 00000010 1070.08 298.04 901.02 1362.46 1388.36 870.08 1794.61 808.54 1686.10 1097.76 1505.99 1363.05 1814.61 1310.56
00003858 00000011 1057.55 291.61 901.74 1351.47 1370.71 861.74 1779.82 789.28 1676.96 1079.27 1496.88 1347.51 1812.67 1286.47
00003859 00000012 1049.24 277.74 909.55 1352.25 1364.45 856.74 1772.85 775.19 1675.57 1069.94 1499.96 1342.18 1814.78 1273.51
00003860 00000013 1043.05 283.97 915.28 1357.11 1362.23 865.58 1769.71 776.89 1676.86 1077.86 1504.27 1352.16 1817.14 1277.64
00003861 00000014 1032.15 286.40 924.03 1379.11 1353.43 876.62 1763.65 781.59 1673.60 1092.68 1496.72 1360.94 1820.41 1281.08
00003862 00000015 1020.85 300.88 932.54 1373.79 1343.94 899.39 1753.15 803.56 1661.58 1116.07 1475.75 1366.59 1811.22 1287.63
00003863 00000016 1017.29 321.16 930.61 1365.51 1339.60 913.93 1749.79 822.47 1653.46 1135.42 1467.14 1373.48 1810.47 1298.05
00003864 00000017 1020.63 339.12 924.84 1361.18 1342.52 926.79 1758.46 838.79 1658.21 1155.31 1474.88 1392.37 1812.51 1319.43
00003865 00000018 1032.76 339.76 915.28 1357.52 1357.75 936.98 1769.41 843.41 1674.50 1163.18 1500.63 1407.64 1823.84 1329.93
00003866 00000019 1045.64 335.80 904.06 1357.32 1381.64 937.34 1788.36 847.07 1696.74 1162.30 1520.32 1412.37 1833.10 1337.89
00003867 00000020 1056.57 323.58 904.23 1367.16 1397.39 932.03 1806.74 848.18 1712.11 1161.82 1530.49 1412.16 1842.04 1341.99
00003868 00000021 1060.73 318.23 912.16 1374.21 1396.57 927.58 1809.76 843.00 1712.24 1158.28 1529.48 1408.87 1847.37 1337.52
00003869 00000022 1056.73 322.22 919.49 1382.71 1387.50 926.95 1801.10 844.55 1699.98 1161.07 1514.99 1406.49 1839.21 1337.03
00003870 00000023 1057.12 327.44 919.60 1389.91 1384.40 932.36 1799.30 855.88 1692.92 1170.97 1501.84 1406.71 1835.30 1341.96
00003871 00000024 1078.68 350.58 903.27 1359.14 1396.78 942.90 1816.72 851.25 1719.68 1176.99 1539.58 1440.43 1849.99 1359.38
00003872 00000025 1113.25 340.37 898.35 1373.21 1432.67 947.52 1850.18 864.70 1755.65 1183.35 1584.13 1421.80 1901.43 1353.06
00003873 00000026 1148.95 372.49 886.73 1346.05 1469.16 951.85 1870.71 861.81 1789.54 1176.89 1624.09 1426.48 1932.45 1351.68
00003874 00000027 1157.91 379.46 885.46 1343.12 1488.86 960.15 1873.79 870.97 1807.83 1186.51 1637.84 1441.17 1931.08 1363.81
00003875 00000028 1162.23 388.13 877.17 1337.87 1493.72 966.53 1878.83 876.92 1814.28 1192.19 1643.92 1450.43 1932.84 1373.39
00003876 00000029 1154.53 384.18 878.30 1341.85 1485.93 972.41 1870.89 884.39 1805.94 1198.15 1634.76 1451.47 1925.34 1375.88
00003877 00000030 1134.52 379.04 885.51 1356.38 1459.82 972.50 1853.84 893.34 1780.77 1210.14 1605.38 1456.16 1904.84 1388.61
00003878 00000031 1113.56 383.18 884.24 1354.79 1440.84 971.91 1833.17 893.08 1765.57 1210.62 1589.82 1457.55 1893.13 1389.80
00003879 00000032 1109.37 382.66 879.71 1360.13 1439.04 975.18 1820.97 892.55 1764.39 1207.61 1587.97 1452.93 1893.00 1381.82
00003880 00000033 1098.88 397.91 887.84 1330.86 1436.38 988.50 1833.81 875.87 1772.75 1205.57 1573.16 1465.30 1886.99 1369.26
00003881 00000034 1120.41 382.56 869.87 1328.59 1458.19 970.66 1829.02 877.78 1782.86 1184.65 1604.48 1431.39 1897.82 1351.89
00003882 00000035 1125.28 386.99 867.66 1302.55 1470.85 971.12 1830.01 863.37 1799.10 1164.94 1626.23 1420.46 1908.43 1328.58
00003883 00000036 1119.13 371.82 871.91 1317.30 1463.39 962.09 1830.81 847.18 1795.22 1144.76 1650.57 1412.00 1923.62 1317.22
00003884 00000037 1092.22 376.05 878.58 1297.53 1442.45 977.09 1806.47 839.50 1780.23 1132.12 1624.54 1434.68 1896.90 1318.00
00003885 00000038 1078.86 366.59 878.79 1309.32 1409.11 975.85 1783.19 829.67 1741.99 1126.98 1595.38 1428.23 1876.27 1305.16
00003886 00000039 1066.41 367.08 875.66 1305.39 1382.24 963.90 1755.35 820.07 1706.22 1124.51 1574.09 1416.69 1852.37 1295.93
00003887 00000040 1049.65 373.34 894.85 1304.62 1371.17 951.55 1754.15 816.52 1704.53 1121.44 1571.22 1410.96 1866.87 1298.02
00003888 00000041 1051.77 369.87 900.78 1286.57 1377.24 950.23 1752.34 815.35 1705.38 1106.80 1571.74 1395.79 1862.42 1283.75
00003889 00000042 1068.21 362.69 897.68 1264.63 1401.29 955.01 1766.80 824.35 1723.70 1080.27 1586.49 1371.26 1874.06 1262.46
00003890 00000043 1068.09 349.56 902.42 1270.52 1404.00 938.62 1772.88 804.76 1737.32 1071.67 1599.33 1369.13 1885.56 1257.59
00003891 00000044 1064.82 357.57 902.24 1284.20 1397.92 934.33 1766.16 794.61 1734.68 1076.14 1595.04 1378.74 1881.89 1261.57
00003892 00000045 1061.57 364.25 906.15 1294.81 1386.58 936.93 1764.58 799.03 1720.77 1089.03 1582.15 1387.81 1880.12 1271.54
00003893 00000046 1054.77 358.14 911.95 1298.99 1376.59 925.65 1760.40 793.72 1707.87 1085.56 1568.90 1382.12 1871.10 1270.90
00003894 00000047 1054.20 342.51 920.83 1301.94 1378.63 910.85 1765.69 788.10 1709.16 1067.83 1568.27 1369.76 1871.64 1266.58
00003895 00000048 1080.80 310.67 919.86 1314.07 1404.31 902.25 1783.71 783.66 1729.87 1049.13 1601.13 1352.47 1904.68 1253.82
00003896 00000049 1090.99 307.09 924.63 1317.48 1413.70 902.58 1796.88 779.92 1743.46 1051.46 1615.64 1354.58 1920.05 1252.85
00003897 00000050 1100.94 312.99 932.60 1316.40 1426.23 905.59 1808.35 781.22 1756.55 1056.33 1633.81 1358.60 1935.49 1255.81
00003898 00000051 1109.73 325.20 937.10 1313.19 1437.14 906.26 1818.61 785.83 1767.36 1061.08 1643.78 1360.78 1945.36 1261.20
00003899 00000052 1111.21 323.51 936.26 1321.51 1437.36 906.85 1821.30 786.71 1769.36 1069.21 1639.48 1364.02 1946.04 1264.52
00003900 00000053 1113.58 331.27 936.83 1319.81 1443.11 908.72 1826.55 791.97 1773.70 1077.63 1641.61 1368.00 1945.57 1271.23
00003901 00000054 1114.93 332.95 936.51 1328.35 1444.98 908.99 1829.25 793.31 1776.11 1082.52 1643.61 1375.81 1946.27 1279.45
00003902 00000055 1116.39 329.16 933.04 1337.91 1447.17 907.54 1831.74 796.10 1776.15 1086.96 1642.57 1380.94 1941.66 1288.45
00003903 00000056 1117.26 328.01 929.78 1343.77 1452.83 910.14 1837.21 800.55 1781.92 1094.44 1647.10 1386.65 1941.47 1296.16
00003904 00000057 1116.47 325.20 925.45 1347.02 1456.24 912.56 1837.89 803.10 1785.75 1098.06 1650.94 1388.13 1940.82 1297.85
00003905 00000058 1117.60 324.99 925.24 1348.52 1459.41 914.18 1840.46 805.21 1787.36 1099.93 1654.07 1391.34 1941.90 1301.79
00003906 00000059 1126.96 332.17 920.24 1343.50 1470.53 921.23 1851.23 816.71 1794.71 1105.85 1658.96 1394.51 1942.42 1308.71
00003907 00000060 1127.18 336.64 919.09 1349.95 1471.57 929.07 1850.62 824.21 1795.07 1114.82 1659.48 1404.25 1939.06 1318.21
00003908 00000061 1121.82 337.80 912.72 1339.60 1460.35 929.28 1841.60 824.23 1785.10 1116.71 1650.06 1399.78 1931.58 1313.42
00003909 00000062 1117.95 332.40 914.49 1327.64 1455.06 918.57 1837.84 814.71 1780.99 1105.34 1644.05 1385.57 1931.65 1300.15
00003910 00000063 1109.25 327.59 918.94 1321.90 1448.37 910.57 1826.73 805.16 1777.47 1088.26 1638.09 1370.37 1930.88 1282.76
00003911 00000064 1100.10 317.65 924.48 1323.24 1437.01 904.40 1820.67 794.32 1771.29 1075.75 1624.39 1360.66 1930.38 1268.83
00003912 00000065 1089.15 303.15 921.65 1347.12 1424.55 900.48 1807.28 790.36 1760.86 1070.44 1611.44 1362.29 1921.47 1270.30
00003913 00000066 1083.33 300.16 913.73 1367.21 1420.23 898.55 1800.94 794.72 1754.08 1073.79 1597.75 1368.25 1907.91 1281.12
00003914 00000067 1084.12 310.48 911.03 1366.88 1417.17 912.76 1802.64 806.75 1753.54 1096.14 1589.17 1375.83 1907.17 1286.69
00003915 00000068 1069.39 334.04 912.53 1349.22 1402.95 936.76 1807.69 806.77 1747.87 1111.04 1559.84 1414.03 1872.35 1302.99
00003916 00000069 1074.78 341.57 902.68 1350.62 1406.31 940.55 1811.94 820.24 1749.96 1124.46 1565.71 1426.56 1872.96 1323.68
00003917 00000070 1076.57 345.85 898.10 1355.06 1404.95 933.06 1807.85 823.67 1745.52 1117.70 1573.06 1431.14 1871.72 1338.06
00003918 00000071 1072.75 335.57 897.28 1348.86 1402.13 912.40 1805.02 808.80 1741.63 1088.99 1568.46 1412.35 1866.62 1323.54
00003919 00000072 1074.02 326.41 899.08 1336.57 1401.53 897.20 1813.64 799.06 1741.29 1074.28 1561.32 1396.00 1869.62 1311.27
00003920 00000073 1074.15 323.06 896.51 1324.48 1394.40 891.17 1811.61 794.93 1733.24 1070.58 1552.39 1385.37 1862.94 1301.09
00003921 00000074 1063.91 330.02 900.74 1332.33 1395.40 891.37 1798.60 811.15 1721.69 1089.53 1539.65 1380.97 1850.07 1313.77
00003922 00000075 1059.15 338.41 902.67 1332.01 1395.91 907.75 1793.70 831.04 1712.94 1106.01 1541.99 1392.63 1840.85 1328.73
00003923 00000076 1057.31 346.10 899.22 1339.59 1397.26 926.07 1793.52 846.03 1713.25 1132.63 1552.30 1412.69 1841.52 1346.05
00003924 00000077 1062.04 368.26 882.88 1330.22 1398.27 947.11 1789.61 859.25 1713.72 1158.36 1552.24 1431.86 1841.45 1359.30
00003925 00000078 1065.47 380.78 868.60 1332.01 1388.76 956.94 1777.75 863.34 1707.31 1172.43 1542.41 1446.38 1826.27 1365.92
00003926 00000079 1063.06 381.37 872.18 1341.22 1387.52 958.39 1780.09 868.24 1709.58 1176.00 1528.70 1447.56 1823.67 1370.28
00003927 00000080 1050.04 378.55 894.73 1339.28 1386.54 949.03 1784.82 867.28 1707.79 1159.03 1519.37 1422.82 1833.69 1354.69
00003928 00000081 1046.46 360.93 904.95 1347.37 1386.48 939.72 1788.79 860.93 1707.67 1142.66 1515.46 1409.82 1832.80 1344.38
00003929 00000082 1049.32 351.86 914.49 1347.44 1391.69 926.73 1796.37 853.39 1712.80 1129.86 1518.76 1397.22 1838.05 1335.87
00003930 00000083 1063.51 345.26 898.35 1349.97 1400.95 911.32 1802.70 829.20 1731.90 1106.43 1523.07 1393.60 1840.76 1321.74
00003931 00000084 1073.36 342.13 895.46 1368.50 1414.40 913.96 1816.49 829.45 1750.30 1113.19 1528.67 1403.74 1848.30 1330.50
00003932 00000085 1078.61 342.38 893.29 1387.39 1426.55 923.25 1824.08 844.88 1763.07 1128.82 1535.91 1419.21 1850.11 1351.11
00003933 00000086 1078.17 356.42 898.82 1390.38 1439.82 938.45 1821.88 860.71 1759.21 1154.75 1542.64 1433.27 1842.16 1365.18
00003934 00000087 1092.50 344.90 882.86 1379.91 1440.17 927.08 1837.20 864.11 1772.08 1142.12 1565.52 1433.97 1857.97 1377.82
00003935 00000088 1096.96 340.27 883.72 1371.41 1447.22 916.94 1841.98 860.21 1778.30 1127.82 1579.88 1425.57 1867.26 1374.33
00003936 00000089 1115.36 322.82 877.74 1357.77 1454.58 902.35 1829.56 854.38 1766.11 1104.26 1590.13 1385.67 1859.69 1346.88
00003937 00000090 1115.33 311.89 878.45 1365.10 1458.61 888.50 1835.83 844.70 1767.80 1095.69 1582.43 1372.91 1863.26 1337.73
00003938 00000091 1119.79 312.80 875.51 1365.61 1457.84 881.26 1841.25 840.98 1770.96 1098.53 1568.26 1367.27 1864.89 1335.22
00003939 00000092 1133.33 315.42 875.46 1384.15 1470.21 882.13 1859.29 846.63 1784.55 1108.77 1568.85 1374.26 1873.29 1345.99
00003940 00000093 1136.80 324.00 881.04 1389.40 1481.61 892.67 1871.63 863.44 1790.29 1131.85 1573.41 1390.32 1870.04 1367.31
00003941 00000094 1146.05 345.94 883.10 1376.43 1485.53 916.09 1889.24 883.49 1791.57 1163.54 1572.66 1408.35 1876.72 1382.42
00003942 00000095 1157.58 361.62 880.57 1370.96 1495.41 930.36 1900.57 898.13 1801.51 1174.43 1575.39 1414.70 1891.58 1388.35
00003943 00000096 1165.47 361.79 883.54 1371.81 1508.75 929.03 1911.22 897.30 1813.95 1171.04 1584.52 1411.33 1901.17 1385.20
00003944 00000097 1173.71 348.24 889.14 1365.30 1526.00 922.05 1922.95 889.26 1827.45 1160.85 1607.50 1404.52 1908.14 1377.79
00003945 00000098 1180.81 333.36 889.16 1345.96 1544.57 912.54 1932.36 878.80 1840.53 1144.03 1627.24 1384.26 1919.05 1357.04
00003946 00000099 1188.96 322.52 880.98 1334.67 1550.25 897.80 1937.17 864.16 1844.61 1129.15 1634.22 1368.18 1928.13 1340.58
00003947 00000100 1196.81 318.83 881.81 1328.25 1559.61 889.78 1947.11 858.02 1853.67 1126.28 1641.65 1362.77 1935.69 1336.17
00003948 00000101 1208.00 321.44 879.75 1335.77 1573.91 888.81 1955.52 865.07 1863.32 1135.86 1649.53 1369.24 1937.24 1348.88
00003949 00000102 1234.26 325.65 875.39 1348.69 1584.45 892.13 1971.55 884.15 1877.44 1136.21 1666.94 1366.28 1949.06 1359.88
00003950 00000103 1246.19 327.35 871.13 1349.39 1593.04 901.02 1987.54 886.18 1890.64 1150.05 1676.76 1380.06 1963.52 1368.23
00003951 00000104 1256.10 327.62 868.49 1366.99 1604.61 898.72 1998.49 888.59 1904.20 1155.99 1677.43 1383.41 1968.54 1375.94
00003952 00000105 1260.88 325.22 867.92 1375.21 1615.20 892.26 2005.56 887.94 1911.91 1154.14 1669.76 1374.57 1965.68 1372.37
00003953 00000106 1262.02 314.93 871.49 1372.99 1621.59 884.96 2009.27 884.13 1917.70 1142.13 1671.54 1366.24 1964.67 1367.41
00003954 00000107 1261.38 312.64 871.18 1364.94 1622.14 880.99 2007.41 880.26 1915.03 1136.77 1669.02 1357.83 1961.87 1359.43
00003955 00000108 1262.85 308.14 871.48 1370.55 1622.58 878.93 2008.78 880.94 1915.09 1137.16 1664.16 1355.71 1961.49 1359.51
00003956 00000109 1254.60 315.32 875.81 1373.73 1617.08 879.47 2003.87 888.46 1909.80 1144.08 1654.45 1357.32 1953.59 1366.51
00003957 00000110 1248.62 321.55 878.36 1377.72 1611.59 885.63 2000.10 894.96 1906.40 1153.21 1649.93 1363.88 1952.93 1372.76
00003958 00000111 1250.24 321.75 880.16 1370.10 1611.98 883.79 2001.97 896.06 1904.53 1152.97 1648.12 1360.47 1953.47 1371.77
00003959 00000112 1250.25 315.01 881.57 1366.20 1608.51 878.69 2002.79 891.89 1899.11 1143.84 1646.77 1351.50 1954.94 1363.49
00003960 00000113 1248.80 315.07 880.99 1358.70 1605.20 873.27 1997.36 886.21 1892.27 1136.94 1642.59 1341.40 1953.90 1353.26
00003961 00000114 1250.76 310.83 877.05 1359.04 1602.60 864.43 1994.60 879.70 1886.88 1128.31 1637.71 1332.87 1952.47 1346.73
00003962 00000115 1254.35 309.17 873.79 1370.47 1607.52 863.05 1996.83 880.40 1892.98 1131.00 1637.67 1337.36 1950.67 1353.11
00003963 00000116 1259.89 308.97 869.99 1380.46 1616.41 867.13 2001.64 888.76 1900.72 1141.43 1638.31 1342.05 1950.53 1361.35
00003964 00000117 1264.76 309.99 871.72 1380.35 1621.63 871.59 2007.03 892.64 1905.57 1148.14 1639.87 1344.81 1951.28 1364.11
00003965 00000118 1269.27 313.26 871.23 1372.12 1625.68 872.20 2011.71 895.18 1908.98 1146.30 1644.28 1345.04 1953.48 1366.01
00003966 00000119 1269.84 309.20 872.20 1366.95 1627.67 869.61 2013.32 892.37 1907.72 1140.24 1644.53 1338.46 1953.04 1359.50
00003967 00000120 1271.94 308.20 869.70 1359.21 1624.96 867.85 2013.19 888.77 1903.17 1134.95 1642.67 1333.81 1951.52 1353.61
00003968 00000121 1275.39 306.49 868.74 1362.77 1628.90 866.55 2014.70 888.94 1905.66 1135.79 1644.18 1334.34 1951.75 1355.43
00003969 00000122 1278.16 310.43 868.09 1372.44 1628.91 866.66 2017.20 893.92 1906.80 1143.08 1640.86 1342.78 1949.79 1367.69
00003970 00000123 1276.68 316.28 866.28 1360.22 1626.08 871.59 2017.67 901.01 1903.20 1150.79 1636.90 1345.82 1940.70 1372.88
00003971 00000124 1279.90 320.77 870.27 1347.61 1631.95 876.71 2022.91 905.80 1898.69 1158.91 1642.36 1348.06 1939.87 1375.32
00003972 00000125 1278.30 320.37 870.82 1351.74 1624.28 881.70 2019.09 912.39 1885.90 1168.54 1632.50 1355.05 1929.98 1383.47
00003973 00000126 1273.43 322.40 874.05 1351.24 1619.35 880.90 2013.85 914.99 1874.76 1168.60 1624.96 1354.48 1919.44 1385.87
00003974 00000127 1276.48 323.23 874.28 1349.80 1625.30 874.73 2019.08 913.73 1879.60 1162.29 1626.11 1350.12 1921.21 1385.67
00003975 00000128 1276.40 324.85 873.11 1346.63 1627.67 870.72 2018.10 912.95 1879.49 1157.49 1625.57 1346.03 1918.29 1384.63
00003976 00000129 1277.63 326.10 873.71 1346.52 1630.53 871.93 2019.66 914.54 1881.96 1158.10 1627.78 1347.03 1919.66 1385.92
00003977 00000130 1282.21 327.08 874.22 1341.93 1638.40 875.72 2025.43 916.53 1888.45 1160.52 1635.12 1349.29 1923.46 1387.25
00003978 00000131 1280.35 331.17 875.55 1351.76 1638.36 877.60 2023.75 923.93 1887.19 1162.96 1635.98 1358.40 1919.73 1400.77
00003979 00000132 1283.01 363.45 871.70 1348.30 1644.84 895.02 2024.16 942.09 1888.37 1178.29 1642.44 1380.07 1912.47 1422.83
00003980 00000133 1289.06 368.85 868.83 1344.61 1656.77 905.52 2034.39 949.27 1901.29 1184.79 1655.00 1389.52 1923.23 1429.23
00003981 00000134 1300.22 383.69 870.42 1326.15 1670.12 916.52 2049.91 955.09 1920.38 1192.11 1677.17 1402.23 1944.85 1437.39
00003982 00000135 1313.29 388.03 872.16 1326.13 1692.94 923.37 2068.03 959.51 1941.82 1195.04 1702.10 1408.79 1966.71 1441.11
00003983 00000136 1320.33 389.73 869.12 1321.72 1700.37 930.14 2073.88 963.84 1954.31 1202.10 1709.90 1411.41 1978.07 1441.58
00003984 00000137 1331.72 391.45 863.75 1302.68 1710.11 937.72 2082.03 965.04 1971.37 1207.04 1727.39 1411.53 1997.15 1435.79
00003985 00000138 1334.52 387.68 863.75 1309.85 1719.88 937.55 2087.46 963.11 1981.28 1205.32 1733.34 1406.74 2006.48 1429.23
00003986 00000139 1327.04 390.58 861.28 1337.08 1719.86 932.39 2078.28 959.79 1990.36 1208.81 1726.66 1415.47 2002.42 1436.65
00003987 00000140 1334.71 392.96 860.97 1337.56 1728.70 931.23 2079.43 958.73 1997.84 1197.69 1717.97 1401.99 2008.04 1424.07
00003988 DELETE   1323.69 389.81 870.77 1321.07 1711.47 914.84 2069.33 956.00 1972.37 1174.58 1692.94 1370.30 1993.14 1402.87
00003989 DELETE   1305.71 378.20 872.23 1317.06 1674.94 872.22 2046.91 923.16 1929.93 1139.55 1646.07 1338.95 1956.75 1379.59
00003990 00000143 1290.44 347.33 881.33 1334.49 1658.48 834.98 2031.45 900.53 1915.18 1101.29 1633.37 1311.85 1935.14 1370.75
00003991 00000144 1284.56 340.59 885.87 1330.79 1654.66 823.32 2028.71 891.39 1909.09 1087.49 1632.21 1305.62 1925.83 1366.50
00003992 00000145 1293.14 333.51 887.76 1325.67 1672.11 823.12 2044.08 890.88 1922.23 1092.22 1655.41 1309.47 1936.93 1369.15
00003993 00000146 1308.18 339.03 882.71 1310.35 1686.08 835.28 2059.33 898.23 1939.73 1103.76 1682.05 1320.70 1954.56 1376.13
00003994 00000147 1310.75 349.72 878.50 1296.82 1692.17 841.65 2062.77 900.41 1945.76 1112.23 1691.80 1322.41 1963.38 1374.15
00003995 00000148 1319.61 351.57 875.41 1310.80 1699.14 840.69 2066.96 901.27 1951.90 1113.74 1695.70 1328.57 1966.23 1382.24
00003996 00000149 1316.85 351.10 877.05 1339.60 1708.20 832.55 2077.90 902.31 1960.80 1123.30 1676.93 1332.94 1962.08 1387.72
00003997 00000150 1321.84 339.22 878.23 1343.52 1712.59 827.14 2085.73 898.73 1966.17 1119.96 1679.94 1319.03 1973.33 1374.47
00003998 00000151 1331.87 328.52 874.81 1327.21 1718.56 828.07 2082.07 894.23 1972.47 1111.79 1702.28 1316.06 1984.90 1372.87
00003999 00000152 1326.26 336.25 899.05 1306.68 1752.67 804.82 2105.87 903.02 1991.03 1104.06 1711.80 1286.50 1988.91 1367.80
00004000 DELETE   1337.73 332.82 899.72 1295.76 1764.20 811.84 2129.54 890.10 2022.32 1097.08 1747.01 1306.51 2011.67 1368.05
00004001 DELETE   1349.11 328.83 908.18 1292.08 1798.98 804.52 2158.32 900.33 2056.31 1078.93 1771.66 1291.40 2038.93 1367.61
00004002 DELETE   1354.48 320.19 929.26 1295.31 1831.70 795.62 2187.12 907.10 2087.12 1072.42 1789.94 1274.18 2058.23 1364.64
00004003 00000156 1370.62 304.67 940.56 1326.10 1890.09 775.96 2202.45 914.13 2114.63 1094.83 1807.42 1251.03 2050.85 1365.93
