Video ID: 	MhN0qjuc63Y
H: 	1080
W: 	1920
FPS: 	25.0

FRAME INDEX X0 Y0 W H [Landmarks (5 Points)]

00001335 00000000 752.53 140.06 338.36 525.85 849.30 355.76 1001.91 357.68 932.46 444.79 862.91 527.19 997.84 529.98
00001336 00000001 752.59 138.69 338.84 527.31 849.77 353.57 1002.61 357.52 931.95 443.43 860.87 525.46 996.04 530.01
00001337 00000002 752.60 137.67 339.30 528.24 851.50 351.37 1004.43 357.58 932.84 443.74 860.46 524.19 995.32 530.74
00001338 00000003 755.18 140.63 339.36 525.78 856.41 350.75 1009.91 360.18 937.70 444.83 862.19 522.76 998.17 531.54
00001339 00000004 758.60 144.56 338.00 524.01 862.26 350.18 1015.50 362.51 943.70 445.57 865.65 521.78 1002.43 532.64
00001340 00000005 762.05 146.07 337.12 525.64 866.68 351.94 1018.94 364.44 949.54 445.98 868.88 523.14 1005.59 534.03
00001341 00000006 764.74 145.76 336.01 529.31 868.02 354.95 1020.36 364.55 952.05 447.27 873.43 528.47 1008.21 536.95
00001342 00000007 763.54 145.74 337.05 526.09 867.08 356.49 1021.08 363.58 953.51 450.91 876.24 530.58 1010.28 536.93
00001343 00000008 763.31 142.86 335.90 528.62 867.63 357.32 1021.16 363.68 955.54 451.04 878.74 532.13 1011.00 537.83
00001344 00000009 763.05 141.12 336.47 534.40 869.76 356.89 1023.74 361.84 959.59 447.31 881.93 534.07 1015.16 538.67
00001345 00000010 763.24 141.45 335.47 537.86 873.54 353.47 1025.87 362.20 962.78 439.11 878.78 526.73 1017.74 534.39
00001346 00000011 764.17 140.10 333.27 539.40 877.81 346.29 1028.01 359.19 966.35 430.59 874.51 517.13 1018.66 528.56
00001347 00000012 761.77 138.68 333.34 538.51 881.68 337.74 1030.63 351.26 974.50 423.02 873.63 505.28 1025.11 517.61
00001348 DELETE   760.50 135.41 334.15 537.91 887.44 329.58 1033.40 342.28 982.88 413.58 879.05 497.54 1029.60 509.36
00001349 00000014 759.97 124.32 335.25 540.10 893.94 326.11 1039.62 336.51 997.58 403.68 889.99 494.30 1038.79 504.32
00001350 00000015 762.57 123.34 333.09 533.67 901.34 324.86 1042.68 331.44 1008.32 403.32 899.52 493.77 1040.76 501.27
00001351 00000016 766.96 123.07 330.83 528.93 908.08 324.66 1048.16 329.15 1016.49 405.09 908.16 495.14 1045.07 501.04
00001352 00000017 769.44 123.63 331.23 534.30 912.36 323.42 1050.18 326.77 1022.37 405.39 912.66 498.73 1047.07 503.62
00001353 00000018 770.70 124.71 332.04 538.85 911.37 321.72 1050.68 326.71 1020.24 407.02 909.51 499.62 1046.93 505.88
00001354 00000019 769.36 128.06 333.43 532.81 912.51 321.72 1051.18 329.62 1019.56 411.23 906.60 497.10 1043.74 505.86
00001355 00000020 767.76 127.60 333.77 530.39 911.44 323.09 1050.32 334.03 1016.56 412.39 906.43 497.58 1040.14 508.70
00001356 00000021 768.94 128.57 334.07 527.50 911.73 325.16 1051.96 336.61 1015.31 417.72 907.48 499.53 1040.37 511.04
00001357 00000022 770.11 137.32 332.74 520.05 915.24 325.47 1054.29 338.23 1017.10 419.53 911.38 501.74 1040.26 514.15
00001358 00000023 773.72 137.91 332.13 521.36 919.20 327.68 1059.53 337.27 1022.92 420.69 918.42 505.66 1046.61 515.22
00001359 00000024 777.61 141.56 330.68 520.90 923.44 328.26 1063.47 336.23 1028.17 421.73 924.59 511.00 1048.60 518.80
00001360 00000025 781.92 144.57 330.01 518.33 927.11 327.88 1067.03 334.62 1031.92 421.96 930.19 514.86 1050.09 521.89
00001361 00000026 782.58 145.47 332.39 521.30 929.14 327.84 1068.69 336.48 1032.71 421.23 932.30 517.27 1050.52 525.72
00001362 00000027 783.16 146.12 332.05 521.01 929.45 328.40 1068.73 338.99 1031.48 422.88 928.46 515.21 1048.83 525.41
00001363 00000028 782.09 147.61 333.64 517.41 927.62 329.54 1069.34 339.59 1029.39 425.34 923.82 511.77 1050.91 521.74
00001364 00000029 781.72 148.78 332.49 515.46 926.68 329.57 1067.77 339.00 1029.57 425.25 922.62 510.69 1050.83 520.25
00001365 00000030 780.91 146.97 333.29 521.29 925.53 330.15 1066.61 338.79 1029.21 425.25 922.70 513.62 1050.98 522.38
00001366 00000031 780.48 150.41 332.86 520.99 924.47 330.51 1065.49 337.95 1028.66 425.51 924.04 517.21 1050.86 524.57
00001367 00000032 780.43 153.72 332.44 519.48 925.42 331.27 1065.18 338.43 1028.61 425.73 925.90 520.27 1049.96 527.21
00001368 00000033 782.12 153.31 331.93 522.32 925.01 333.16 1066.29 339.75 1028.80 429.00 926.13 524.39 1049.83 530.71
00001369 00000034 782.10 152.23 333.27 523.90 923.81 334.42 1066.00 339.77 1027.91 432.26 924.87 526.14 1048.97 531.43
00001370 00000035 781.63 154.02 332.97 523.16 922.91 335.19 1063.26 340.52 1025.50 433.05 922.50 526.39 1046.00 531.42
00001371 00000036 782.29 153.13 330.19 525.57 920.96 333.01 1061.15 338.80 1022.22 430.79 920.39 527.56 1042.42 532.83
00001372 00000037 780.94 151.16 330.43 525.43 917.22 333.85 1059.39 338.32 1020.00 430.52 919.22 526.65 1042.53 530.92
00001373 00000038 779.41 150.72 331.41 522.14 916.25 334.78 1058.06 338.57 1019.02 433.67 919.54 524.69 1042.44 528.42
00001374 00000039 778.61 150.56 332.09 521.73 915.57 334.71 1057.79 338.51 1018.88 437.05 919.76 526.90 1040.27 530.67
00001375 00000040 778.69 152.03 330.70 521.75 915.59 335.49 1057.07 337.54 1020.54 438.28 920.50 529.48 1039.89 531.77
00001376 00000041 778.50 153.42 330.88 520.71 915.57 337.55 1056.98 339.12 1021.04 439.44 919.14 528.71 1040.75 530.62
00001377 00000042 777.59 153.05 330.25 519.11 915.18 338.06 1055.70 339.38 1020.37 439.42 918.69 526.76 1040.52 528.60
00001378 00000043 775.77 152.34 331.44 517.35 913.67 338.47 1054.05 341.34 1017.52 441.07 916.12 523.53 1039.02 526.69
00001379 00000044 775.04 152.24 330.50 514.78 912.06 339.74 1052.80 341.94 1015.38 441.30 913.29 520.49 1038.73 523.47
00001380 00000045 773.92 149.25 330.12 518.56 910.95 340.11 1050.60 342.55 1013.83 441.97 909.62 518.28 1037.23 521.77
00001381 00000046 771.14 151.29 330.88 518.22 909.67 340.88 1048.31 343.59 1012.16 443.58 906.27 517.92 1034.08 521.74
00001382 00000047 768.20 147.52 332.15 524.11 906.32 343.43 1044.97 345.26 1010.78 443.48 906.03 521.37 1031.92 524.53
00001383 00000048 765.19 145.85 332.21 528.36 901.25 346.01 1040.72 348.39 1005.12 444.52 902.82 524.67 1028.38 528.06
00001384 00000049 763.70 147.71 331.47 528.22 894.91 348.49 1036.01 350.43 997.74 445.45 896.92 525.87 1025.54 529.02
00001385 00000050 761.01 148.04 330.72 530.05 890.17 351.60 1031.22 352.45 993.05 448.06 892.38 526.44 1024.16 528.67
00001386 00000051 757.43 143.31 329.77 534.92 886.43 352.43 1027.17 353.54 989.51 450.69 889.38 526.96 1021.39 529.25
00001387 00000052 756.24 148.00 328.16 530.09 882.97 355.23 1024.34 352.61 987.19 451.06 889.04 528.68 1021.50 527.63
00001388 00000053 754.06 149.30 328.07 529.53 879.75 356.50 1023.37 351.87 985.09 451.51 888.13 530.80 1022.04 527.92
00001389 00000054 752.90 152.70 327.31 526.80 876.81 359.42 1020.45 351.59 982.89 454.56 888.57 534.07 1021.26 528.49
00001390 00000055 749.62 152.92 328.27 527.75 876.26 360.73 1017.31 351.99 982.17 456.44 889.81 535.84 1019.01 529.48
00001391 00000056 747.46 147.50 330.45 530.86 873.80 362.60 1016.12 354.15 980.39 457.76 890.27 538.18 1016.99 532.06
00001392 00000057 746.53 144.65 330.30 534.96 871.28 362.99 1014.68 354.82 978.07 458.94 889.65 540.94 1014.69 534.99
00001393 00000058 743.95 143.23 332.84 537.92 868.80 363.12 1012.81 355.94 975.12 459.84 889.00 544.10 1011.13 538.86
00001394 00000059 740.77 144.16 339.28 539.29 868.00 353.26 1015.25 349.51 977.87 457.82 886.17 548.45 1001.73 547.17
00001395 00000060 739.78 144.19 338.99 541.56 866.10 357.30 1012.93 351.70 974.52 462.10 886.50 554.11 997.66 551.22
00001396 00000061 738.05 150.97 337.01 536.46 864.86 363.41 1008.44 356.45 970.04 467.60 885.83 557.32 994.71 553.11
00001397 00000062 733.61 151.33 336.27 538.63 859.40 366.32 1002.76 358.34 961.39 471.53 881.05 559.58 987.86 554.46
00001398 00000063 731.17 152.83 336.53 538.96 853.13 366.78 996.55 359.40 950.94 473.66 874.66 559.22 983.55 554.47
00001399 00000064 728.62 152.48 337.81 539.95 847.39 367.29 991.03 359.91 942.50 474.77 868.57 558.76 980.61 553.89
00001400 00000065 727.74 156.24 337.00 534.96 841.55 367.33 987.59 360.14 936.24 475.29 862.20 557.61 978.19 552.90
00001401 00000066 725.51 156.25 339.43 535.39 835.14 367.75 983.04 361.51 929.61 474.78 858.55 557.82 976.12 553.73
00001402 00000067 724.40 158.55 340.65 530.05 829.85 368.28 980.89 361.65 925.44 476.04 855.93 557.16 974.73 552.66
00001403 00000068 716.86 154.16 343.57 530.28 825.57 373.74 975.55 370.15 922.32 478.06 858.15 551.98 979.37 549.27
00001404 00000069 717.15 150.55 342.76 530.19 821.53 373.94 971.75 370.70 915.54 479.61 855.40 550.03 977.23 547.61
00001405 00000070 716.69 152.21 342.89 527.64 818.61 374.96 968.83 371.34 911.41 481.49 853.43 549.32 975.46 546.52
00001406 00000071 716.59 153.83 342.28 525.05 816.07 375.20 966.26 371.42 907.55 482.38 850.16 547.40 972.76 544.60
00001407 00000072 718.47 157.20 337.00 529.94 809.45 376.38 963.06 367.57 904.54 488.98 839.82 556.20 971.07 548.21
00001408 00000073 711.92 156.71 346.35 526.68 809.48 382.07 959.61 378.27 900.18 486.79 839.76 547.67 968.34 544.61
00001409 00000074 711.93 158.96 346.14 528.39 807.45 386.16 958.44 383.85 897.14 490.93 835.97 550.26 965.47 548.58
00001410 00000075 712.40 163.99 345.50 527.27 806.13 390.77 958.24 388.66 895.31 493.37 834.10 554.45 964.10 552.99
00001411 00000076 711.61 161.45 346.35 531.65 804.73 393.65 958.38 391.17 895.31 497.20 835.41 559.08 964.24 557.25
00001412 00000077 711.78 162.17 346.72 532.15 803.99 395.50 959.10 392.96 894.74 500.10 835.79 560.85 965.03 558.97
00001413 00000078 711.94 165.35 347.20 529.67 803.58 396.11 958.38 392.87 893.83 500.45 835.82 561.97 964.70 559.51
00001414 00000079 711.99 164.74 347.61 529.34 802.80 396.39 958.00 393.07 891.98 500.35 834.87 560.78 965.01 558.32
00001415 00000080 712.57 162.94 348.11 531.17 802.66 395.49 957.77 392.75 890.96 498.68 834.67 560.62 964.63 558.56
00001416 00000081 714.13 162.74 346.96 530.42 803.32 394.72 958.79 392.24 891.31 497.64 835.72 560.62 965.13 558.72
00001417 00000082 714.48 164.37 347.53 529.22 804.83 393.54 959.04 391.45 892.04 495.82 836.08 559.92 965.28 558.35
00001418 00000083 715.34 169.33 349.54 524.11 809.55 389.56 960.35 383.07 894.73 496.85 838.59 571.43 956.63 567.00
00001419 00000084 716.07 162.67 351.06 531.19 809.98 388.37 961.94 381.59 896.68 496.12 839.32 573.12 958.17 568.42
00001420 00000085 715.36 161.18 351.57 531.95 810.14 386.53 961.99 379.85 897.89 494.76 840.06 572.89 958.14 568.27
00001421 00000086 714.04 159.08 351.76 532.74 809.04 386.23 961.08 378.16 898.12 493.50 839.76 572.93 958.30 567.18
00001422 00000087 712.03 156.48 351.56 534.17 806.70 384.74 959.07 376.61 896.58 491.95 837.98 572.66 956.79 566.79
00001423 00000088 711.99 154.87 342.38 535.79 801.19 380.65 954.87 373.74 891.85 486.77 835.46 568.76 959.59 562.92
00001424 00000089 712.49 164.74 342.73 526.66 797.92 390.01 949.94 370.90 884.27 488.33 838.24 575.45 958.78 559.45
00001425 00000090 710.21 162.43 343.79 527.98 796.30 387.97 948.26 368.38 883.56 486.86 836.79 573.78 957.95 557.58
00001426 00000091 709.62 162.44 343.18 526.78 796.30 385.33 947.97 366.39 883.90 484.57 836.61 571.40 958.03 555.65
00001427 00000092 709.58 160.26 342.94 528.83 796.91 384.03 948.30 366.08 884.53 483.06 836.06 569.80 957.81 554.93
00001428 00000093 709.86 156.96 343.68 530.99 797.49 381.68 948.55 364.70 884.93 481.18 835.64 567.52 957.54 553.51
00001429 00000094 709.92 156.47 342.65 529.59 796.99 381.68 947.32 364.46 884.08 479.53 835.47 566.14 957.27 551.86
00001430 00000095 708.70 155.90 342.06 528.22 794.20 380.02 943.11 365.83 877.51 478.60 831.82 563.99 952.32 552.07
00001431 00000096 707.15 153.66 339.00 526.51 786.50 380.17 934.16 370.39 863.96 480.16 822.41 561.62 941.04 553.60
00001432 00000097 705.00 145.77 338.31 531.84 777.47 377.26 926.27 375.65 846.10 480.20 807.18 556.53 926.27 555.60
00001433 00000098 698.28 151.05 340.25 530.03 768.87 376.89 915.34 381.00 831.23 485.35 795.66 554.85 912.68 559.10
00001434 00000099 697.71 151.45 338.45 531.06 761.26 377.38 905.18 384.74 815.69 487.97 786.57 555.07 902.38 561.96
00001435 00000100 699.26 142.73 337.57 542.57 754.84 381.99 907.37 384.98 811.91 491.16 773.29 568.47 900.18 571.24
00001436 00000101 698.59 148.79 337.45 538.80 753.34 385.99 905.38 388.52 807.03 492.71 771.25 571.11 897.68 573.60
00001437 00000102 698.60 152.80 338.27 535.95 753.13 388.65 903.78 390.07 805.61 494.84 772.25 572.95 897.38 574.59
00001438 00000103 699.17 151.06 339.25 538.47 754.04 389.77 904.51 390.65 807.25 496.73 774.46 574.64 898.27 575.76
00001439 00000104 699.33 154.00 340.72 535.48 755.21 392.70 904.92 392.57 809.46 499.15 776.83 575.90 899.50 576.17
00001440 00000105 699.96 154.85 340.82 535.24 756.38 394.24 906.25 393.99 811.43 501.29 778.39 577.10 900.56 577.30
00001441 00000106 700.01 155.91 340.28 534.99 756.80 395.37 906.62 396.58 811.34 504.11 777.60 577.88 900.01 579.34
00001442 00000107 700.04 156.76 341.46 535.48 756.86 397.63 907.28 399.54 810.55 508.07 777.45 580.02 899.73 582.01
00001443 00000108 699.27 158.47 343.73 535.23 756.99 400.17 907.11 402.48 808.88 512.45 777.59 582.72 899.17 584.96
00001444 00000109 699.59 159.43 344.50 537.15 756.30 403.51 905.48 405.12 806.03 516.05 777.31 585.14 899.29 586.94
00001445 00000110 700.26 166.19 345.11 529.21 754.93 406.20 903.90 406.90 803.55 518.60 778.16 587.11 899.32 588.26
00001446 00000111 699.93 169.47 348.15 525.60 754.63 408.27 903.01 408.87 802.70 520.80 778.88 588.36 899.12 589.33
00001447 00000112 703.56 164.76 340.70 537.45 757.22 405.65 904.87 411.14 804.13 518.14 781.89 590.17 897.77 595.48
00001448 00000113 701.11 172.84 344.21 529.83 761.43 407.81 899.50 415.67 800.55 518.46 777.82 583.68 889.03 589.63
00001449 00000114 704.41 173.20 344.51 528.37 762.25 406.69 901.71 415.38 801.13 518.87 777.59 583.72 890.44 590.39
00001450 00000115 714.54 173.35 339.01 525.01 768.57 406.68 911.12 415.55 807.37 516.11 786.78 587.73 901.65 596.06
00001451 00000116 718.85 169.70 335.58 528.53 772.85 406.02 912.72 413.51 810.52 513.72 790.87 587.30 904.02 594.72
00001452 00000117 723.16 170.12 333.65 527.94 776.19 404.72 914.76 411.90 812.98 511.87 793.62 586.25 905.79 593.42
00001453 00000118 725.77 172.05 332.69 525.60 776.49 403.94 916.19 409.71 814.24 511.86 794.74 586.79 907.58 592.86
00001454 00000119 727.85 171.14 332.43 526.41 778.26 404.31 917.16 408.97 815.72 512.06 797.39 586.78 909.65 591.92
00001455 00000120 728.93 170.71 333.98 526.97 779.05 404.25 918.12 408.08 817.10 512.72 798.44 587.11 910.51 591.53
00001456 00000121 731.34 172.27 332.68 525.23 780.71 403.77 919.70 406.17 819.74 511.84 800.59 586.85 912.96 590.06
00001457 00000122 732.51 170.98 333.05 525.80 782.93 402.22 922.83 403.65 823.63 510.44 803.19 586.00 916.40 588.31
00001458 00000123 733.11 166.82 332.10 529.90 784.10 400.33 924.73 400.93 825.43 507.76 804.64 585.94 917.24 587.73
00001459 00000124 729.53 172.05 334.90 525.65 788.52 397.74 928.83 407.50 831.69 507.22 803.40 583.40 915.31 592.76
CROP_BBOX: 501 0 1312 818
