Video ID: 	8z2rj5R0lVI
H: 	1080
W: 	1920
FPS: 	25.0

FRAME INDEX X0 Y0 W H [Landmarks (5 Points)]

00000126 00000000 686.54 278.56 414.56 577.03 830.94 477.30 1031.70 480.18 959.98 624.50 856.37 714.98 999.67 716.16
00000127 00000001 684.94 277.37 417.42 582.01 832.04 474.35 1031.35 478.68 959.94 621.20 855.39 714.66 995.65 716.98
00000128 00000002 684.94 272.25 420.35 592.57 831.35 467.04 1031.09 473.60 958.18 616.19 854.03 715.13 989.10 718.88
00000129 00000003 684.35 268.02 423.64 605.50 830.96 462.94 1031.12 472.79 956.01 611.47 851.15 714.92 985.98 721.42
00000130 00000004 684.53 268.94 422.75 608.63 829.49 462.26 1032.57 472.16 956.57 608.29 852.62 717.85 988.32 724.20
00000131 00000005 681.50 267.71 423.35 615.68 826.43 462.82 1028.26 470.35 954.15 608.78 852.89 721.23 986.59 725.39
00000132 00000006 680.70 269.28 418.91 618.41 821.16 466.45 1022.22 470.68 949.88 610.29 850.71 725.75 985.79 727.48
00000133 00000007 675.69 270.50 417.12 618.34 816.78 471.25 1015.34 475.50 944.96 613.23 845.00 726.18 984.04 728.26
00000134 00000008 675.83 275.35 411.83 610.07 812.80 476.79 1010.22 482.26 940.32 616.11 840.60 726.30 982.45 729.49
00000135 00000009 668.89 273.23 416.69 596.53 807.43 488.27 1000.84 488.34 934.28 621.83 836.72 719.85 990.79 721.13
00000136 00000010 661.40 287.65 418.22 575.46 804.49 490.50 999.71 487.65 935.96 626.96 828.35 721.51 980.94 719.13
00000137 00000011 660.05 287.94 414.62 569.32 801.49 492.43 997.43 488.76 933.51 629.57 825.85 720.74 979.11 717.89
00000138 00000012 656.95 287.63 417.46 568.66 801.78 489.67 996.26 486.58 933.96 628.48 825.16 716.45 978.75 713.84
00000139 00000013 656.71 281.18 416.85 572.38 800.65 486.25 995.53 483.80 932.93 627.59 822.63 712.46 977.45 710.60
00000140 00000014 658.80 280.23 417.04 573.32 802.86 488.40 996.16 485.77 933.56 627.88 823.90 713.20 977.31 711.41
00000141 DELETE   656.69 273.88 418.43 581.06 808.84 500.59 993.58 498.04 926.55 624.10 821.84 706.13 976.45 707.06
00000142 00000016 648.68 277.25 417.51 585.08 799.16 493.50 988.46 492.68 929.43 633.05 815.75 713.42 968.50 712.23
00000143 00000017 649.41 274.73 418.18 588.85 798.36 485.53 990.58 486.76 929.18 629.37 812.85 710.18 969.80 710.99
00000144 00000018 660.15 260.44 422.99 606.07 809.88 477.62 995.14 481.89 929.26 617.00 820.81 703.45 977.38 709.15
00000145 00000019 669.50 246.62 428.75 616.79 821.76 461.83 1010.90 468.87 941.00 607.66 828.95 699.84 982.96 706.38
00000146 00000020 685.15 219.35 425.76 625.55 840.85 438.22 1030.08 450.13 962.79 579.54 853.59 681.65 998.31 690.55
00000147 00000021 724.72 205.57 412.27 619.94 867.92 416.23 1064.03 424.75 994.78 564.88 887.22 671.10 1028.22 677.23
00000148 00000022 752.38 194.19 418.50 628.46 896.57 405.33 1097.84 424.68 1020.05 556.38 908.50 662.02 1045.72 677.13
00000149 00000023 765.88 187.20 423.59 633.79 922.28 398.06 1119.85 419.45 1044.66 558.15 930.07 655.97 1065.19 672.47
00000150 00000024 785.41 192.80 416.27 619.12 932.44 400.97 1132.41 418.37 1057.77 554.64 945.74 654.02 1088.20 667.34
00000151 00000025 799.50 194.91 413.83 605.42 941.82 408.21 1142.23 420.22 1071.09 558.55 956.65 655.95 1105.44 666.16
00000152 00000026 807.70 196.41 427.46 606.00 962.16 416.28 1157.51 429.00 1081.22 559.93 967.17 646.81 1124.60 659.26
00000153 DELETE   816.57 197.51 427.26 601.71 978.49 430.67 1169.60 443.76 1093.60 567.35 979.17 648.28 1131.43 660.80
00000154 DELETE   830.86 207.77 426.98 592.17 987.60 421.60 1182.06 439.51 1105.83 572.35 990.97 651.77 1137.90 665.77
00000155 00000029 835.57 213.46 426.84 586.55 997.16 418.31 1191.00 434.77 1117.76 571.33 997.94 649.36 1147.59 662.63
00000156 00000030 839.25 218.43 427.93 583.20 1001.04 419.29 1194.72 435.77 1121.33 572.51 1001.36 649.66 1151.73 663.21
00000157 00000031 842.71 221.85 428.75 582.49 1002.72 422.49 1195.41 438.28 1121.48 578.01 1001.71 649.61 1154.80 662.94
00000158 00000032 847.78 217.75 430.76 595.25 1007.96 433.62 1202.00 452.27 1120.75 580.98 999.87 651.56 1155.17 670.73
00000159 00000033 850.54 225.43 426.14 591.64 1010.42 442.00 1201.84 455.94 1132.11 589.07 1012.23 663.24 1167.48 675.10
00000160 00000034 854.40 231.95 425.57 610.46 1016.21 447.87 1206.18 460.81 1134.91 597.54 1016.77 680.31 1171.18 690.61
00000161 00000035 856.97 256.81 430.85 599.12 1013.43 453.81 1209.11 472.14 1136.37 610.82 1014.95 691.05 1164.90 706.11
00000162 00000036 859.85 260.32 431.20 606.35 1015.43 459.59 1211.14 478.58 1136.69 618.12 1016.15 705.75 1159.47 721.54
00000163 00000037 857.88 258.77 428.64 620.89 1019.31 469.01 1206.44 493.29 1128.82 618.26 1007.00 711.27 1150.42 734.42
00000164 00000038 852.60 263.56 428.32 623.80 1014.89 473.34 1202.97 500.88 1122.47 622.40 1001.43 718.03 1143.36 743.73
00000165 00000039 847.96 268.84 426.61 619.96 1005.88 471.44 1199.93 502.20 1119.27 632.90 1001.55 723.57 1137.36 748.21
00000166 00000040 844.52 275.48 426.44 608.79 999.20 476.99 1193.68 505.27 1113.74 637.27 997.45 724.90 1133.88 747.75
00000167 00000041 836.45 283.49 422.54 595.36 985.73 482.81 1183.55 507.29 1099.36 643.09 986.43 723.97 1128.71 743.70
00000168 DELETE   818.33 279.91 428.57 592.49 975.05 498.07 1166.08 519.18 1085.26 640.39 970.79 716.69 1123.01 735.79
00000169 DELETE   813.27 282.86 426.49 580.36 965.37 503.51 1156.86 519.93 1074.57 638.56 960.89 713.30 1115.18 729.71
00000170 00000044 805.88 283.59 426.03 581.94 955.71 498.01 1144.65 512.02 1064.02 638.42 953.08 710.25 1107.01 725.03
00000171 00000045 801.17 288.31 425.03 578.27 950.35 495.21 1140.37 508.64 1060.80 637.55 949.15 710.84 1102.91 725.23
00000172 00000046 796.82 290.58 420.05 574.50 944.29 493.17 1137.15 504.13 1064.04 643.28 948.23 718.94 1101.60 728.47
00000173 00000047 793.29 287.23 412.81 572.68 938.27 489.82 1131.22 504.92 1056.25 638.93 943.51 715.32 1095.20 728.08
00000174 00000048 784.41 289.42 415.41 570.77 932.95 486.50 1124.88 502.92 1050.32 638.03 938.40 715.09 1083.46 728.62
00000175 00000049 778.60 285.42 418.53 576.68 929.25 486.17 1119.53 505.20 1045.61 634.41 934.54 714.36 1076.67 729.94
00000176 00000050 775.78 284.19 418.98 581.30 925.46 485.82 1117.12 507.47 1041.73 632.49 930.84 714.45 1073.54 731.95
00000177 00000051 773.94 280.75 419.26 589.65 920.61 486.71 1113.73 507.23 1036.55 632.94 927.42 717.76 1069.63 734.09
00000178 00000052 768.00 284.87 423.04 593.36 916.40 486.48 1109.53 507.86 1030.90 635.28 919.38 719.40 1062.86 736.40
00000179 00000053 762.14 281.89 423.31 603.80 911.97 485.36 1104.72 508.88 1025.05 633.75 912.05 719.77 1055.80 738.28
00000180 00000054 754.37 283.21 422.53 606.52 901.73 483.24 1096.71 506.47 1015.00 628.12 900.73 718.70 1049.64 736.99
00000181 DELETE   749.72 283.33 420.82 605.02 899.27 492.48 1082.48 511.48 1007.83 630.35 895.98 717.83 1042.78 733.07
00000182 00000056 743.68 281.97 417.33 604.87 890.02 490.49 1073.11 505.15 999.66 627.32 890.36 718.50 1036.11 730.43
00000183 00000057 742.48 278.68 413.14 605.31 884.92 481.39 1069.50 496.35 995.74 627.26 887.46 716.31 1032.78 728.75
00000184 00000058 737.06 280.26 409.42 595.28 877.02 482.84 1062.65 486.87 996.43 624.03 892.90 720.23 1037.32 723.01
00000185 00000059 736.98 280.84 408.85 596.86 876.33 481.17 1062.25 484.01 997.06 620.20 893.83 719.07 1040.19 720.70
00000186 00000060 737.78 279.43 411.05 595.33 876.27 481.88 1062.05 483.71 996.48 619.53 892.10 713.61 1044.37 714.56
00000187 00000061 737.85 281.77 413.48 585.99 874.36 484.22 1062.73 484.57 996.33 621.76 891.71 710.41 1048.04 710.27
00000188 00000062 738.23 283.96 412.37 577.89 874.56 487.93 1062.27 487.34 996.87 623.87 891.02 707.37 1049.05 706.67
00000189 00000063 737.66 279.70 413.05 574.72 877.67 488.19 1063.21 491.65 991.54 624.92 891.08 699.66 1049.88 704.55
00000190 00000064 739.42 284.12 416.60 570.17 880.40 490.56 1066.57 492.90 994.06 626.06 894.42 699.93 1052.63 703.84
00000191 00000065 745.96 283.87 416.83 570.54 889.42 493.66 1076.73 498.02 1002.66 627.11 900.53 701.40 1059.25 706.60
00000192 00000066 757.91 292.15 408.34 567.82 896.96 491.35 1088.77 500.33 1012.45 635.48 909.16 711.74 1054.25 718.75
00000193 00000067 766.32 289.97 406.10 566.48 900.73 492.05 1094.02 501.02 1015.16 637.85 913.67 713.20 1059.36 720.10
00000194 00000068 771.29 287.15 408.43 570.33 905.08 492.92 1096.36 500.50 1018.68 637.67 921.13 713.70 1065.39 719.16
00000195 00000069 777.31 288.55 407.66 566.26 911.21 492.22 1099.47 495.76 1026.49 635.92 931.40 712.57 1073.55 714.65
00000196 00000070 785.43 286.83 403.35 566.62 917.27 491.55 1102.71 492.87 1032.90 633.16 938.40 709.21 1082.30 709.27
00000197 00000071 789.17 281.25 402.90 570.27 919.32 490.74 1106.42 489.96 1037.34 632.46 941.48 708.05 1088.62 706.18
00000198 00000072 791.65 282.51 403.03 568.25 923.23 488.78 1110.61 486.85 1043.71 629.81 945.00 706.62 1093.54 703.82
00000199 00000073 795.01 280.16 403.38 571.07 928.18 488.71 1116.15 486.33 1051.05 623.72 949.78 704.64 1102.50 701.50
00000200 00000074 797.16 279.43 405.22 571.36 931.64 488.42 1118.55 483.89 1058.21 620.68 957.69 705.55 1106.95 700.53
00000201 00000075 802.15 274.21 404.83 578.52 938.48 488.86 1121.01 484.31 1063.28 617.98 966.89 709.27 1103.43 704.70
00000202 00000076 808.41 267.04 407.59 592.09 943.64 480.13 1124.17 484.19 1057.38 614.55 966.50 707.35 1106.73 713.14
00000203 00000077 814.39 265.17 410.61 593.04 947.03 473.34 1131.98 477.34 1063.39 609.12 973.13 709.06 1111.96 714.43
00000204 00000078 822.44 267.80 410.17 587.14 954.05 464.34 1144.01 468.56 1074.30 603.35 986.39 712.71 1108.23 715.07
00000205 00000079 824.43 261.56 414.84 592.08 961.06 467.49 1147.78 473.11 1076.25 598.42 992.70 709.31 1123.06 714.50
00000206 00000080 836.71 267.79 408.01 585.35 969.61 460.15 1166.53 465.86 1092.44 602.89 1001.87 711.07 1124.39 714.06
00000207 00000081 838.92 263.50 407.86 588.53 974.58 457.27 1172.23 461.70 1099.95 601.53 1009.61 708.83 1131.85 710.41
00000208 00000082 837.27 249.68 408.61 608.96 984.62 457.15 1167.57 462.88 1101.02 595.98 1013.10 707.11 1143.03 710.16
00000209 00000083 835.57 246.38 411.24 608.59 985.34 454.39 1169.48 460.92 1102.07 592.67 1012.01 701.88 1144.49 705.43
00000210 00000084 834.33 244.33 413.20 606.37 981.14 455.41 1169.32 460.12 1100.22 593.40 1009.77 698.52 1149.88 700.38
00000211 00000085 834.08 243.07 413.77 597.73 975.85 457.35 1165.65 460.20 1094.02 594.62 1006.60 693.51 1149.59 694.13
00000212 00000086 831.82 246.45 414.91 591.24 972.04 457.49 1165.02 460.20 1091.59 596.13 1001.20 691.60 1147.91 692.74
00000213 00000087 830.31 250.03 415.49 584.57 970.03 460.50 1164.38 462.45 1092.53 595.28 998.79 690.29 1149.13 691.21
00000214 00000088 828.30 254.43 416.57 577.40 967.93 462.02 1163.33 463.31 1090.85 599.02 995.92 689.51 1147.74 690.17
00000215 00000089 822.74 255.92 416.28 576.66 963.21 466.92 1155.07 467.07 1084.08 602.58 987.08 690.78 1138.31 691.31
00000216 00000090 814.60 263.39 413.84 570.00 955.41 470.47 1145.58 469.46 1077.22 607.93 975.69 691.85 1130.79 692.33
00000217 00000091 808.38 269.89 414.48 567.99 949.64 472.85 1138.92 473.98 1068.44 614.40 967.91 692.93 1124.27 695.75
00000218 00000092 804.41 279.11 407.63 568.05 940.14 483.42 1132.32 480.30 1067.21 619.68 959.01 702.55 1117.60 700.10
00000219 00000093 794.97 278.30 409.65 573.21 936.52 486.91 1129.64 486.19 1064.38 629.95 952.46 707.32 1110.35 706.36
00000220 00000094 790.39 278.10 407.90 575.45 928.46 487.87 1122.88 489.57 1053.01 637.45 943.76 714.65 1095.49 715.80
00000221 00000095 780.63 283.22 411.87 574.98 919.28 491.00 1111.23 494.20 1038.82 638.34 935.21 717.77 1082.56 719.93
00000222 00000096 772.29 288.31 414.48 577.83 914.10 495.63 1105.08 501.86 1031.16 645.10 925.88 721.70 1073.27 726.15
00000223 00000097 763.47 292.71 415.22 577.64 907.02 495.72 1100.40 502.91 1023.62 648.69 914.99 721.02 1064.86 726.93
00000224 00000098 759.57 291.79 411.17 579.42 900.06 496.24 1095.22 503.37 1017.07 649.24 905.48 719.69 1058.16 725.78
00000225 00000099 747.62 285.14 419.37 582.60 892.35 500.85 1085.26 504.45 1011.07 644.51 900.83 713.84 1058.83 719.37
00000226 00000100 743.87 287.01 419.40 576.44 885.35 500.46 1077.68 502.39 1002.89 640.46 894.39 710.74 1054.23 715.10
00000227 00000101 740.24 287.37 418.34 573.86 878.53 496.81 1071.44 497.86 995.06 637.04 889.43 708.71 1051.04 712.35
00000228 00000102 736.40 289.75 420.03 569.29 876.38 493.85 1068.82 495.79 991.40 636.43 888.53 706.66 1049.17 710.95
00000229 00000103 736.93 293.28 416.30 562.28 876.33 495.34 1067.93 494.70 999.19 638.14 888.57 711.49 1049.77 711.28
00000230 00000104 735.81 292.55 415.17 563.57 875.10 494.71 1066.23 493.79 997.67 638.42 887.07 711.35 1047.51 710.94
00000231 00000105 733.55 291.81 413.34 564.61 872.57 494.23 1062.98 493.25 995.75 638.48 884.82 710.98 1045.38 710.38
00000232 00000106 729.71 287.68 411.45 565.69 868.11 493.55 1060.32 493.88 992.60 639.18 879.62 710.69 1040.48 711.31
00000233 00000107 724.67 285.45 409.06 568.90 863.54 489.89 1057.58 491.70 989.29 637.65 874.62 710.65 1034.26 712.33
00000234 00000108 721.88 284.13 408.47 571.36 859.38 486.92 1053.39 491.07 981.77 635.33 868.53 708.24 1027.77 711.55
00000235 00000109 718.71 282.98 408.91 569.57 856.56 484.67 1048.35 492.10 974.49 634.62 863.78 704.57 1019.16 710.66
00000236 00000110 713.70 279.39 411.56 572.14 852.10 482.66 1041.20 491.17 967.06 632.72 858.98 702.53 1011.23 709.47
00000237 00000111 708.52 275.85 414.93 577.28 847.43 482.52 1035.74 490.35 961.38 634.15 856.22 702.75 1005.73 709.09
00000238 00000112 703.68 279.08 417.17 578.12 843.82 480.67 1032.56 490.66 955.96 637.03 850.03 703.45 998.67 711.51
00000239 00000113 701.16 281.53 414.48 574.82 838.64 482.38 1030.57 493.45 951.80 636.50 844.81 704.23 995.08 713.19
00000240 00000114 698.91 285.75 411.76 569.98 835.85 484.83 1027.90 495.13 949.70 637.18 842.73 707.54 990.95 715.99
00000241 00000115 697.55 288.54 410.53 572.28 834.56 486.20 1025.75 496.12 948.81 637.54 842.58 711.29 988.76 719.32
00000242 00000116 697.02 288.77 410.53 576.85 835.55 487.52 1026.61 497.93 950.15 637.70 843.16 713.97 989.36 722.34
00000243 00000117 695.85 290.86 412.35 579.34 836.67 488.22 1026.66 500.62 949.81 638.17 843.76 716.39 986.62 726.22
00000244 00000118 694.35 290.96 413.68 583.00 836.10 489.03 1025.50 502.19 948.07 640.17 841.82 717.77 984.87 727.96
00000245 00000119 691.86 291.28 414.64 585.96 833.70 490.25 1022.40 502.08 946.16 640.87 842.13 720.65 983.59 729.51
00000246 00000120 688.88 292.59 415.67 590.84 830.30 490.65 1021.19 502.23 943.78 641.46 839.58 725.01 982.15 733.59
00000247 00000121 688.93 289.06 414.26 599.82 830.29 492.72 1019.73 504.06 943.30 642.77 840.49 730.49 980.44 738.58
00000248 00000122 691.07 287.16 412.29 603.81 830.01 494.23 1020.30 505.48 944.22 643.36 844.41 735.33 981.35 742.97
00000249 00000123 691.62 289.78 412.27 601.85 830.36 495.46 1021.08 507.20 943.91 643.33 846.75 738.08 982.42 746.10
00000250 00000124 694.26 288.78 409.35 598.03 830.04 495.84 1020.71 507.65 943.63 641.79 847.77 735.29 983.88 743.43
00000251 00000125 699.54 291.08 405.83 584.47 829.67 496.55 1022.55 507.38 944.18 641.63 852.05 733.04 987.42 740.49
00000252 00000126 701.49 295.78 403.96 573.61 830.57 498.18 1022.50 507.14 944.44 640.47 851.08 728.51 990.53 735.07
00000253 00000127 702.19 294.32 402.97 571.67 830.56 498.21 1022.46 505.70 944.70 640.04 851.26 727.26 990.70 732.58
00000254 00000128 699.95 293.66 402.52 569.31 830.61 497.13 1021.80 504.07 944.83 638.67 851.02 725.78 989.21 730.68
00000255 00000129 698.09 294.29 401.86 568.23 828.01 494.90 1021.09 504.07 941.80 637.73 846.50 724.58 986.63 731.38
00000256 00000130 692.54 297.35 402.64 562.76 823.88 493.66 1014.96 502.64 935.76 636.09 839.28 720.46 979.50 727.24
00000257 00000131 677.98 284.18 413.94 567.90 813.85 491.72 1002.35 499.76 923.89 627.93 824.52 704.06 979.76 712.61
00000258 00000132 667.52 288.47 412.10 560.42 804.74 487.05 991.42 495.42 912.45 624.45 814.52 698.60 970.84 707.56
00000259 DELETE   654.47 277.44 404.38 565.60 788.25 491.72 973.67 495.91 907.91 623.28 802.26 700.30 953.49 703.76
00000260 DELETE   639.88 272.65 405.35 560.68 773.85 488.48 956.80 492.70 886.24 619.89 790.49 694.49 937.08 696.94
00000261 DELETE   620.23 270.09 409.91 560.94 756.20 482.88 945.21 485.27 870.20 608.55 774.61 689.65 928.52 692.14
00000262 00000136 609.37 270.63 408.79 558.69 742.08 475.69 931.26 478.39 858.22 600.12 763.58 687.61 918.17 690.63
00000263 00000137 597.62 263.49 406.43 564.32 730.81 469.61 918.79 473.53 845.38 596.12 752.82 684.40 905.01 688.93
00000264 00000138 590.23 262.49 398.10 566.65 722.27 466.86 908.70 467.27 842.52 586.48 751.07 685.95 897.47 685.38
00000265 00000139 583.45 256.49 399.24 579.14 714.66 464.58 902.13 461.33 837.82 582.67 748.10 688.81 895.47 684.69
00000266 00000140 582.17 254.48 401.81 588.99 716.23 461.70 901.87 458.67 840.37 578.59 750.38 689.33 897.53 685.03
00000267 00000141 580.27 249.69 405.09 594.11 713.80 459.56 903.23 454.19 841.32 573.82 752.51 690.35 900.26 684.07
00000268 00000142 576.12 246.00 405.54 594.74 710.49 460.04 901.86 453.46 840.96 573.14 751.93 691.15 899.53 683.78
00000269 00000143 577.09 244.07 405.71 593.09 709.23 461.61 904.09 453.06 842.06 575.53 754.21 691.99 904.11 682.79
00000270 00000144 582.67 248.70 406.48 591.77 713.89 464.40 909.46 453.60 846.77 581.47 759.63 695.15 912.94 684.32
00000271 00000145 587.61 258.19 412.42 578.82 718.87 465.89 917.44 458.51 846.76 584.18 763.20 694.43 922.99 688.45
00000272 00000146 587.66 273.58 410.15 568.01 716.19 479.71 914.79 461.88 851.85 599.60 758.66 705.22 914.64 689.55
00000273 00000147 585.67 279.28 412.19 564.97 716.09 485.59 915.25 465.22 853.58 605.39 758.93 709.74 917.24 691.99
00000274 00000148 583.93 285.94 415.49 564.34 718.26 490.84 915.86 470.38 855.95 611.79 759.27 714.05 919.09 696.03
00000275 00000149 582.28 290.26 418.02 563.13 717.65 497.68 915.44 476.75 856.96 618.84 760.48 720.74 919.53 702.16
00000276 00000150 582.50 288.10 416.77 569.19 717.58 504.51 915.89 484.16 856.65 626.20 759.31 726.25 919.66 708.34
00000277 00000151 581.34 290.99 418.31 574.81 714.69 508.98 915.24 488.63 854.55 633.98 758.40 732.80 921.13 714.64
00000278 00000152 580.34 292.75 418.66 577.51 713.89 513.43 914.93 493.70 854.09 638.66 758.18 736.20 921.52 718.56
00000279 00000153 578.99 298.67 419.81 578.83 713.34 517.78 916.08 496.41 854.35 643.28 759.05 741.27 925.35 722.03
00000280 00000154 579.93 301.05 419.98 582.77 714.66 522.66 918.80 502.25 855.89 648.13 758.62 745.24 927.35 726.90
00000281 00000155 582.25 305.74 421.20 584.37 717.14 527.30 920.89 506.55 857.25 652.77 760.52 749.02 929.30 730.21
00000282 00000156 584.89 304.29 421.22 586.82 719.54 532.04 922.54 510.69 860.51 656.98 762.65 751.01 931.90 732.05
00000283 00000157 593.31 298.22 422.90 596.95 730.74 527.98 932.79 514.20 865.12 653.73 770.34 752.12 936.26 739.92
00000284 00000158 597.39 299.77 424.26 598.71 735.17 527.58 937.01 513.18 871.28 655.07 773.57 751.78 939.20 739.36
00000285 00000159 602.92 300.23 423.97 599.15 740.20 527.05 941.33 513.14 875.94 652.79 775.41 748.70 944.35 736.70
00000286 00000160 606.20 296.67 426.85 603.62 744.75 526.10 946.13 511.02 881.60 652.84 778.33 746.10 950.29 733.16
00000287 00000161 610.16 299.09 427.67 604.03 750.54 525.34 948.95 510.35 883.35 653.57 782.04 746.00 953.50 733.16
00000288 00000162 613.96 297.78 429.04 611.96 758.33 530.93 954.97 514.01 891.13 656.55 786.32 749.07 961.18 734.46
00000289 00000163 618.55 294.80 429.82 615.66 764.77 535.82 960.11 514.92 900.77 655.79 794.39 753.00 967.17 735.00
00000290 00000164 626.10 294.09 427.69 619.18 772.84 538.13 963.81 518.24 908.39 654.42 800.96 752.22 973.09 735.05
00000291 00000165 634.37 300.71 426.91 616.38 779.58 541.25 971.42 524.42 914.08 657.26 804.96 751.36 979.90 736.96
00000292 00000166 640.28 304.55 425.28 617.14 784.16 546.22 975.28 528.87 914.96 664.43 807.49 754.45 983.73 739.50
00000293 00000167 645.78 310.44 422.47 614.37 786.45 550.12 977.36 532.29 914.99 670.62 810.41 759.35 987.20 743.87
