Video ID: 	lMZ4QICq_Og
H: 	2160
W: 	3840
FPS: 	25.0

FRAME INDEX X0 Y0 W H [Landmarks (5 Points)]

00071596 00000000 1544.41 313.48 458.33 657.74 1805.79 611.37 1957.06 630.84 1929.81 726.60 1792.14 822.76 1916.17 839.26
00071597 DELETE   1531.69 313.08 463.28 645.29 1789.73 606.23 1950.34 629.76 1911.15 726.13 1780.56 814.13 1902.53 830.97
00071598 DELETE   1532.89 310.03 464.35 642.99 1783.76 605.48 1948.40 616.87 1909.61 725.61 1777.66 818.65 1903.34 826.85
00071599 00000003 1520.46 317.23 464.37 643.08 1775.98 604.02 1940.60 621.04 1901.53 726.58 1763.94 812.59 1892.84 825.05
00071600 00000004 1521.79 310.13 463.42 641.15 1767.10 601.30 1934.49 608.59 1895.44 723.49 1764.07 816.71 1892.01 821.12
00071601 00000005 1511.49 307.73 464.05 643.97 1759.93 599.88 1927.24 605.77 1891.42 720.23 1757.87 817.97 1887.12 821.47
00071602 00000006 1503.60 309.32 464.16 638.90 1755.01 600.27 1921.98 606.55 1886.55 716.47 1751.80 816.48 1882.43 820.59
00071603 00000007 1503.27 314.31 461.78 635.77 1749.99 600.68 1922.19 607.40 1883.37 718.55 1748.10 816.70 1883.97 820.64
00071604 00000008 1500.66 315.25 457.72 642.60 1751.86 601.06 1921.94 614.21 1879.49 718.32 1745.40 812.80 1877.12 822.90
00071605 00000009 1500.99 311.72 453.46 642.41 1754.88 602.31 1916.54 612.08 1878.53 718.65 1744.42 810.65 1870.38 819.12
00071606 00000010 1493.70 307.92 457.18 645.50 1750.29 600.73 1913.21 611.16 1874.31 716.48 1743.03 811.63 1867.24 820.19
00071607 00000011 1496.04 311.30 454.10 642.63 1745.16 600.22 1910.43 611.19 1868.42 715.01 1736.92 808.04 1865.99 817.07
00071608 00000012 1496.55 314.36 453.03 639.19 1746.09 600.60 1911.89 609.40 1869.32 716.87 1735.16 808.52 1864.74 816.45
00071609 00000013 1495.12 310.36 451.50 647.54 1750.36 597.01 1908.50 609.44 1866.77 716.36 1736.42 811.13 1857.99 821.18
00071610 00000014 1502.85 322.89 446.85 629.70 1752.19 600.84 1910.65 617.60 1866.80 721.23 1736.08 812.13 1857.19 825.11
00071611 00000015 1497.22 318.39 458.90 644.42 1751.74 604.83 1912.51 620.79 1871.57 724.04 1734.55 816.48 1860.20 828.93
00071612 00000016 1501.05 317.30 457.57 650.57 1756.65 611.57 1915.42 624.56 1878.34 730.06 1735.63 821.01 1864.37 832.20
00071613 00000017 1506.31 316.39 459.80 647.54 1762.55 614.96 1922.60 626.17 1881.55 740.87 1740.62 825.65 1866.13 835.47
00071614 00000018 1505.79 315.30 460.74 650.36 1764.20 613.88 1922.37 625.33 1883.16 739.25 1742.70 827.49 1868.00 837.09
00071615 00000019 1509.84 322.19 460.55 642.36 1761.59 615.74 1929.66 626.51 1889.16 735.40 1740.49 824.34 1881.57 834.30
00071616 00000020 1509.32 321.70 459.45 644.31 1762.00 613.90 1928.72 623.42 1889.44 734.24 1739.22 821.64 1881.42 830.86
00071617 00000021 1509.26 320.42 459.05 638.19 1761.04 614.67 1925.60 626.04 1884.65 734.21 1739.84 821.95 1876.15 832.08
00071618 00000022 1510.23 323.31 458.23 638.64 1760.60 614.01 1925.35 625.81 1882.55 734.24 1739.81 823.12 1875.16 833.21
00071619 00000023 1506.25 323.10 462.48 640.75 1760.64 616.22 1928.86 625.50 1887.77 734.93 1738.07 824.48 1881.19 833.48
00071620 00000024 1514.46 324.06 457.88 638.34 1760.34 618.66 1931.35 626.62 1891.22 737.25 1739.15 824.34 1885.44 832.90
00071621 00000025 1511.65 317.27 462.08 648.28 1763.13 617.23 1932.64 624.62 1896.11 740.04 1742.14 826.00 1886.15 834.11
00071622 00000026 1517.69 314.39 454.25 646.92 1768.30 617.39 1930.20 621.44 1894.38 740.16 1746.93 823.55 1878.44 829.45
00071623 00000027 1522.08 322.36 449.86 635.26 1768.23 617.41 1929.74 624.27 1891.01 739.38 1750.53 825.24 1878.35 831.83
00071624 00000028 1521.60 319.65 450.57 638.98 1768.86 616.43 1929.26 625.26 1890.20 738.54 1753.12 826.75 1878.04 834.34
00071625 00000029 1518.77 314.85 452.25 649.22 1769.61 616.22 1928.27 623.43 1891.56 736.59 1751.46 824.87 1876.75 831.99
00071626 00000030 1514.90 316.56 454.07 652.98 1767.52 615.00 1928.76 620.98 1892.98 735.11 1749.25 824.62 1879.18 830.99
00071627 00000031 1511.97 313.96 457.02 650.70 1765.21 615.30 1927.73 621.95 1890.21 735.27 1746.28 822.77 1879.29 829.69
00071628 00000032 1511.54 321.56 458.81 637.86 1764.00 612.46 1929.79 620.42 1889.55 733.35 1745.62 822.30 1880.47 829.50
00071629 00000033 1514.28 321.17 454.04 638.54 1763.82 611.98 1929.14 617.96 1888.42 732.07 1745.06 819.85 1879.77 826.03
00071630 00000034 1514.69 320.46 453.33 643.27 1763.49 611.61 1928.86 617.62 1890.33 730.44 1744.93 818.40 1882.35 824.82
00071631 00000035 1513.63 316.44 454.39 653.03 1764.21 611.96 1928.50 618.03 1891.18 730.86 1743.36 817.18 1882.50 824.18
00071632 00000036 1513.94 317.42 454.94 652.87 1764.94 613.49 1929.91 618.47 1892.21 732.84 1741.40 816.10 1883.05 822.88
00071633 00000037 1516.18 315.75 458.00 647.76 1758.68 612.85 1926.98 612.03 1889.10 731.29 1744.82 813.87 1887.66 813.55
00071634 00000038 1512.88 323.16 456.24 642.89 1763.47 614.39 1929.71 619.58 1892.15 732.55 1739.43 816.31 1883.52 823.01
00071635 00000039 1513.11 321.96 456.64 644.06 1765.27 611.02 1930.30 617.20 1892.59 730.91 1743.76 816.73 1883.01 823.38
00071636 00000040 1513.50 320.12 462.94 643.26 1760.26 609.27 1927.07 610.04 1889.67 728.72 1747.99 817.40 1886.86 817.70
00071637 00000041 1565.59 319.79 429.31 654.21 1845.91 612.81 1954.35 618.30 1966.49 719.82 1816.17 818.52 1913.23 826.23
00071638 00000042 1566.61 318.73 427.41 655.76 1843.27 609.22 1953.97 615.58 1967.08 717.79 1812.05 815.37 1912.67 824.17
00071639 00000043 1562.61 312.50 429.61 661.01 1842.93 609.50 1952.03 611.79 1967.64 717.20 1815.61 815.28 1913.41 821.42
00071640 00000044 1555.62 298.23 442.79 670.10 1838.79 611.03 1962.99 606.61 1963.91 720.23 1819.61 814.22 1918.10 814.42
00071641 00000045 1553.12 299.27 443.99 665.07 1828.56 602.01 1958.89 603.28 1955.50 712.62 1819.32 808.40 1920.73 811.86
00071642 00000046 1548.41 304.64 446.92 657.02 1821.07 601.07 1953.00 603.23 1947.12 712.64 1818.19 810.79 1918.67 813.86
00071643 00000047 1547.93 303.73 444.07 658.50 1818.35 595.46 1950.28 598.87 1946.38 712.76 1814.24 811.67 1915.19 815.85
00071644 00000048 1546.08 305.89 444.43 653.13 1815.40 597.54 1947.30 600.86 1941.19 710.15 1812.99 810.76 1913.99 814.92
00071645 00000049 1547.26 309.45 443.63 647.14 1811.55 599.45 1945.49 601.41 1935.57 712.33 1809.82 810.39 1913.38 813.08
00071646 00000050 1548.35 312.47 440.87 639.71 1811.19 600.55 1943.91 603.73 1933.45 711.57 1806.88 809.42 1911.29 812.99
00071647 00000051 1546.06 308.51 441.35 642.22 1806.33 600.73 1943.22 602.00 1929.05 711.62 1801.78 807.01 1910.38 809.19
00071648 00000052 1545.45 307.65 443.79 643.24 1805.54 601.13 1944.78 601.83 1929.46 714.03 1797.38 807.44 1907.82 809.37
00071649 00000053 1543.65 309.30 444.78 644.12 1800.97 597.98 1944.96 600.73 1925.48 712.56 1793.25 806.48 1908.31 809.49
00071650 00000054 1541.34 306.82 447.81 646.79 1796.08 601.46 1945.49 601.22 1923.85 716.07 1788.50 804.65 1911.65 805.53
00071651 00000055 1538.26 306.73 449.68 649.90 1791.20 596.98 1945.42 599.26 1922.96 714.71 1781.99 805.54 1911.05 808.24
00071652 00000056 1537.87 297.74 448.18 657.45 1793.34 599.55 1941.77 597.56 1923.18 714.40 1783.97 804.07 1905.20 804.10
00071653 00000057 1536.22 303.73 444.50 653.13 1791.86 598.70 1936.68 598.40 1916.53 711.63 1782.88 804.29 1899.13 805.12
00071654 00000058 1533.09 300.65 448.67 658.04 1791.19 597.26 1935.47 601.36 1913.53 712.82 1785.32 806.15 1897.97 809.55
00071655 00000059 1536.87 300.57 447.66 657.82 1792.81 598.92 1939.73 600.84 1915.87 715.70 1780.81 802.77 1898.56 804.81
00071656 00000060 1534.72 304.73 448.55 651.22 1789.35 600.46 1939.88 597.82 1917.22 716.17 1776.63 799.98 1901.86 799.01
00071657 00000061 1534.47 301.81 447.23 648.81 1787.02 601.17 1937.32 597.72 1915.10 712.99 1778.77 799.44 1903.96 797.78
00071658 00000062 1528.95 300.60 452.43 650.49 1785.82 602.50 1935.83 598.75 1914.01 714.11 1780.29 800.28 1904.64 798.16
00071659 00000063 1529.85 300.88 454.04 651.91 1784.89 602.30 1938.49 596.36 1917.12 717.20 1780.88 804.02 1905.71 800.24
00071660 00000064 1523.56 296.33 457.34 654.88 1779.68 601.17 1934.37 596.68 1911.06 715.62 1777.91 803.13 1902.90 800.27
00071661 00000065 1524.93 296.14 455.87 658.36 1779.47 600.00 1937.72 596.59 1912.87 717.05 1769.71 799.41 1902.69 797.84
00071662 00000066 1517.59 296.05 462.88 659.13 1774.85 597.57 1938.37 594.82 1911.10 716.72 1766.45 802.30 1903.20 800.72
00071663 00000067 1518.87 297.12 462.23 657.04 1774.76 598.18 1939.57 593.99 1911.07 714.61 1762.63 800.93 1904.36 799.14
00071664 00000068 1519.43 293.58 456.20 657.98 1773.50 603.90 1932.24 597.70 1905.46 711.44 1765.98 802.32 1897.80 798.99
00071665 00000069 1513.67 298.03 459.39 653.13 1767.43 600.54 1928.70 596.73 1899.67 709.84 1765.74 805.23 1896.56 802.66
00071666 00000070 1510.10 296.41 460.15 656.89 1763.04 598.01 1924.72 592.80 1898.10 711.39 1764.86 807.65 1893.48 803.75
00071667 00000071 1500.54 295.58 470.51 660.99 1759.57 595.68 1927.16 593.94 1896.92 711.02 1759.59 807.66 1893.73 806.18
00071668 00000072 1502.14 297.57 467.61 657.77 1758.97 596.53 1925.73 593.95 1895.52 711.55 1760.39 810.37 1890.45 808.14
00071669 00000073 1499.23 291.80 471.26 662.95 1757.54 598.01 1926.35 593.90 1894.59 711.72 1757.45 807.94 1890.62 804.82
00071670 00000074 1497.26 295.97 470.61 658.23 1755.34 597.05 1925.22 591.61 1893.96 710.32 1756.90 808.94 1892.04 804.49
00071671 00000075 1497.27 294.87 470.58 658.36 1754.11 594.46 1925.41 590.64 1893.26 709.03 1752.66 802.85 1893.14 799.50
00071672 00000076 1503.62 297.05 465.39 656.88 1750.81 596.40 1925.83 593.12 1891.25 708.46 1743.50 796.34 1893.80 794.31
00071673 00000077 1500.61 295.92 467.54 657.84 1750.59 596.66 1926.83 592.61 1892.64 709.23 1742.81 795.40 1895.20 792.73
00071674 00000078 1499.07 298.91 466.38 653.86 1750.54 596.10 1924.03 592.42 1890.53 712.69 1745.14 799.14 1890.51 795.87
00071675 00000079 1496.34 300.36 466.04 651.15 1750.25 595.31 1922.81 592.51 1889.08 711.28 1748.41 801.56 1888.31 798.51
00071676 00000080 1493.14 298.92 467.49 653.06 1749.84 594.91 1919.69 591.60 1887.45 709.99 1752.19 809.09 1883.54 805.55
00071677 00000081 1496.14 299.19 461.95 651.39 1751.41 594.76 1916.33 595.50 1884.05 710.82 1751.86 810.44 1875.47 809.62
00071678 00000082 1500.48 296.66 454.63 657.58 1754.27 595.15 1916.75 598.29 1878.55 709.96 1752.60 808.69 1869.49 812.23
00071679 00000083 1503.84 296.86 448.77 650.01 1756.58 597.25 1915.69 597.83 1879.76 711.97 1751.51 808.84 1865.85 811.28
00071680 00000084 1503.71 307.54 449.32 643.92 1757.76 600.23 1915.48 600.75 1879.95 716.23 1744.90 809.96 1862.97 812.63
00071681 00000085 1504.45 309.12 452.46 647.32 1758.42 603.68 1920.61 605.04 1882.27 718.85 1744.50 814.89 1868.49 818.04
00071682 00000086 1503.39 305.08 455.03 653.46 1757.81 604.48 1921.08 604.87 1882.05 719.42 1742.19 812.41 1870.18 815.34
00071683 00000087 1505.84 307.66 458.77 641.14 1751.49 606.58 1919.28 601.89 1881.26 717.06 1745.86 810.25 1879.52 806.82
00071684 00000088 1503.94 307.07 462.35 647.70 1751.31 605.92 1920.62 601.90 1881.79 716.71 1747.30 810.74 1881.61 807.55
00071685 00000089 1501.13 304.57 467.83 653.48 1750.08 607.57 1922.53 601.64 1882.72 720.21 1743.73 809.28 1885.01 804.99
00071686 00000090 1501.39 303.80 469.80 654.30 1750.64 607.00 1925.50 601.83 1885.73 718.63 1745.62 810.04 1889.77 806.35
00071687 00000091 1501.97 307.88 471.24 649.05 1750.57 605.02 1928.16 601.96 1887.54 717.34 1745.89 810.82 1893.16 808.74
00071688 00000092 1502.02 307.62 472.91 648.43 1750.37 608.11 1927.81 603.39 1887.78 719.43 1743.22 810.27 1892.79 807.27
00071689 00000093 1507.88 307.77 466.50 651.95 1750.53 609.71 1927.88 604.39 1887.46 721.52 1742.14 810.86 1892.98 807.63
00071690 00000094 1505.86 307.53 469.18 653.82 1750.62 611.68 1928.37 606.90 1886.92 723.22 1741.01 811.08 1893.76 808.25
00071691 00000095 1507.94 310.24 465.99 650.72 1750.84 612.97 1926.98 608.41 1885.81 724.12 1740.60 810.43 1893.01 807.69
00071692 00000096 1510.07 313.31 462.45 648.61 1751.75 613.55 1925.57 609.06 1885.06 723.69 1740.58 809.78 1891.77 807.08
00071693 00000097 1510.23 311.24 461.83 648.62 1752.99 613.72 1925.18 607.78 1885.53 724.18 1741.67 807.94 1891.56 804.12
00071694 00000098 1509.93 312.43 463.50 648.45 1752.11 612.93 1926.21 607.96 1886.30 723.07 1740.56 807.90 1892.62 804.89
00071695 00000099 1508.79 309.89 464.49 650.67 1752.00 613.53 1926.04 606.75 1886.94 723.02 1739.90 806.28 1892.94 802.10
00071696 00000100 1509.93 312.86 463.82 648.09 1751.96 613.41 1926.20 608.05 1885.99 723.75 1737.19 804.92 1892.31 801.87
00071697 00000101 1508.49 313.29 465.25 651.02 1753.14 613.74 1926.51 608.32 1886.59 723.74 1736.23 805.79 1892.02 802.82
00071698 00000102 1507.93 314.22 466.82 652.16 1753.24 613.27 1927.43 608.37 1887.37 725.92 1734.50 805.89 1891.39 803.28
00071699 00000103 1504.05 313.63 471.92 654.59 1754.16 614.66 1929.43 607.06 1889.77 727.78 1733.14 806.79 1890.63 802.39
00071700 00000104 1502.63 314.15 472.01 658.53 1754.18 615.39 1929.27 606.33 1892.39 728.89 1731.52 808.90 1889.97 803.75
00071701 00000105 1502.69 320.23 466.22 657.42 1759.45 617.80 1929.52 615.10 1893.92 733.40 1722.04 808.07 1881.01 811.34
00071702 00000106 1505.54 322.44 463.42 654.79 1759.55 619.01 1929.52 614.74 1894.39 733.64 1721.58 807.74 1880.89 809.93
00071703 00000107 1506.71 321.06 463.34 656.21 1761.84 618.72 1930.39 615.58 1895.43 734.16 1721.51 806.25 1880.29 809.40
00071704 00000108 1506.23 320.11 462.69 658.71 1760.51 620.76 1928.77 617.97 1894.90 737.39 1720.25 808.75 1879.85 812.46
00071705 00000109 1502.22 320.72 469.97 662.40 1759.40 621.87 1930.59 619.89 1896.56 741.32 1718.90 811.64 1881.34 815.80
00071706 00000110 1504.65 320.61 468.73 661.29 1760.23 626.79 1931.70 622.00 1897.22 745.53 1721.02 812.77 1882.05 814.68
00071707 00000111 1504.17 323.22 470.05 660.58 1758.66 629.62 1933.03 622.71 1897.82 748.88 1719.71 813.48 1883.81 813.82
00071708 00000112 1504.33 324.63 471.50 658.35 1758.21 632.15 1934.06 623.50 1898.16 751.92 1720.70 815.63 1887.03 814.23
00071709 00000113 1506.50 322.67 469.37 659.21 1758.50 634.52 1934.87 626.05 1898.12 753.89 1720.88 815.56 1886.64 814.53
00071710 00000114 1508.23 323.05 469.06 659.78 1758.53 635.04 1935.61 627.68 1897.77 755.18 1719.60 814.92 1886.60 814.43
00071711 00000115 1509.10 323.45 468.56 659.49 1757.27 634.47 1934.97 628.79 1895.18 755.24 1718.39 814.01 1885.41 814.66
00071712 00000116 1508.63 320.00 470.17 664.07 1757.46 633.24 1933.98 629.91 1893.49 755.60 1717.98 813.29 1881.42 815.85
00071713 00000117 1508.50 319.19 470.66 664.61 1755.71 633.78 1934.56 630.31 1891.42 756.04 1716.47 812.23 1881.37 814.89
00071714 00000118 1510.34 325.30 468.43 658.55 1754.13 633.98 1935.23 628.76 1891.74 758.20 1714.07 812.15 1883.14 813.23
00071715 00000119 1508.42 316.05 469.34 667.76 1754.04 634.25 1934.53 627.91 1891.93 759.25 1714.13 810.78 1880.63 811.45
00071716 00000120 1503.80 319.42 469.93 663.53 1752.53 631.82 1930.33 626.15 1888.63 752.68 1714.29 811.60 1877.64 812.63
00071717 00000121 1495.41 312.14 464.05 669.65 1742.65 626.55 1916.14 619.68 1876.01 744.58 1708.64 808.57 1869.66 808.35
00071718 00000122 1489.61 312.84 463.27 660.64 1731.22 621.15 1905.96 614.79 1860.62 736.87 1701.34 804.71 1862.05 804.33
00071719 00000123 1482.93 320.01 466.15 651.73 1721.82 618.34 1900.22 612.68 1851.75 730.41 1693.16 800.79 1856.87 800.69
00071720 00000124 1481.13 316.82 461.48 656.65 1717.96 616.13 1893.75 605.29 1849.42 730.22 1691.49 802.46 1852.27 798.36
00071721 00000125 1473.58 307.57 470.68 661.24 1715.02 612.56 1896.40 605.25 1853.52 732.42 1691.69 806.26 1851.91 802.27
00071722 00000126 1466.19 304.32 476.99 663.62 1710.09 610.55 1893.45 602.89 1848.52 729.57 1690.01 806.52 1850.01 801.82
00071723 00000127 1461.95 306.70 479.67 660.42 1705.06 610.27 1887.49 598.98 1843.14 729.89 1686.29 806.38 1845.37 798.79
00071724 00000128 1459.56 309.71 480.50 654.28 1702.52 614.37 1881.71 597.59 1835.60 733.88 1690.29 807.27 1840.21 796.34
00071725 00000129 1455.82 309.45 478.88 656.24 1695.91 614.71 1875.27 596.08 1830.14 735.29 1683.47 807.97 1834.51 796.01
00071726 00000130 1450.72 313.05 483.28 660.15 1689.68 620.08 1873.44 601.00 1827.13 740.21 1673.22 810.03 1831.94 798.23
00071727 00000131 1445.14 317.13 488.81 657.28 1684.96 622.08 1871.09 606.94 1820.27 742.81 1667.58 812.06 1826.77 802.90
00071728 DELETE   1441.81 313.17 478.24 665.28 1682.39 624.60 1872.03 613.79 1818.84 749.06 1655.16 806.55 1826.02 801.93
00071729 DELETE   1440.68 322.30 477.74 657.80 1666.83 628.12 1867.09 613.21 1808.05 751.74 1648.06 812.79 1828.77 804.21
00071730 DELETE   1438.37 333.54 477.14 649.29 1657.85 635.27 1858.73 617.26 1796.74 759.48 1641.80 819.06 1823.26 807.38
00071731 00000135 1436.09 339.28 477.74 645.10 1649.81 639.44 1855.66 621.68 1789.50 763.27 1637.19 824.75 1821.61 813.25
00071732 00000136 1430.75 350.08 483.02 636.46 1642.86 638.64 1852.68 620.93 1786.43 760.90 1627.26 821.67 1821.30 810.37
00071733 00000137 1428.45 343.04 483.81 649.20 1641.06 636.56 1847.77 623.67 1782.76 756.77 1621.02 817.71 1814.51 810.94
00071734 00000138 1428.80 336.58 481.13 657.40 1639.65 634.00 1844.20 623.24 1778.85 754.40 1618.75 814.68 1811.21 809.70
00071735 00000139 1427.06 334.78 481.98 659.50 1635.12 633.64 1843.16 620.37 1777.08 755.86 1614.90 814.62 1812.08 807.66
00071736 00000140 1424.95 336.94 482.72 654.00 1634.00 634.14 1841.14 620.11 1775.42 754.88 1613.05 813.87 1808.97 806.53
00071737 00000141 1421.81 340.80 484.82 647.95 1629.24 636.32 1839.04 621.06 1772.03 754.74 1610.05 816.30 1810.41 808.08
00071738 00000142 1422.77 336.55 483.94 652.77 1630.94 638.19 1839.08 620.52 1772.41 754.74 1612.08 816.93 1811.18 806.68
00071739 00000143 1424.86 348.07 482.38 644.00 1632.70 641.97 1840.76 624.38 1774.03 762.60 1611.67 820.11 1809.28 809.97
00071740 00000144 1426.17 348.20 479.84 640.80 1633.39 648.62 1842.40 627.97 1777.66 765.07 1610.35 820.88 1812.70 808.89
00071741 00000145 1428.06 359.28 479.72 631.92 1635.41 651.70 1845.99 633.23 1781.65 769.52 1613.49 829.44 1818.38 818.94
00071742 00000146 1434.91 368.55 474.62 629.30 1638.60 656.53 1846.05 641.58 1779.60 780.76 1616.38 832.86 1814.70 824.40
00071743 00000147 1434.09 378.44 481.30 629.14 1640.19 666.37 1849.92 652.15 1784.60 791.81 1620.07 846.94 1815.41 839.85
00071744 00000148 1440.75 380.31 477.75 631.14 1644.45 674.43 1857.14 655.58 1789.59 799.04 1632.47 854.82 1825.48 843.37
00071745 00000149 1443.59 375.43 479.73 637.60 1652.72 675.53 1861.88 661.52 1794.25 803.05 1635.79 855.92 1825.42 848.05
00071746 00000150 1445.42 373.16 483.35 640.43 1658.61 677.36 1869.74 665.77 1801.94 803.58 1639.58 856.11 1828.97 850.21
00071747 00000151 1443.84 372.55 486.74 638.22 1659.79 673.57 1870.87 661.99 1803.12 802.52 1643.24 855.51 1831.47 848.99
00071748 00000152 1446.03 362.67 484.40 648.01 1659.48 672.63 1872.55 658.41 1805.73 801.43 1646.23 853.99 1836.66 845.04
00071749 00000153 1448.79 375.53 482.95 631.24 1661.38 669.75 1871.70 658.61 1802.77 797.19 1645.98 850.50 1835.29 843.97
00071750 00000154 1446.70 363.46 484.32 647.54 1660.11 670.27 1872.41 658.43 1804.65 798.36 1646.28 851.91 1836.29 844.75
00071751 00000155 1448.75 354.16 482.41 656.90 1661.30 670.35 1874.92 658.66 1806.96 798.32 1647.94 851.77 1838.54 844.61
00071752 00000156 1451.65 350.78 482.75 659.89 1663.76 669.73 1876.41 660.47 1807.18 796.66 1647.78 850.29 1836.86 845.13
00071753 00000157 1454.39 359.74 481.30 649.46 1664.57 670.00 1877.33 660.50 1807.29 797.96 1647.87 850.13 1837.58 844.97
00071754 00000158 1453.90 356.98 482.05 650.25 1666.05 669.15 1880.56 660.10 1808.11 797.82 1649.44 849.62 1840.60 844.65
00071755 00000159 1459.27 356.23 478.24 650.95 1668.70 669.97 1882.55 659.55 1811.53 798.33 1650.43 848.46 1842.39 842.65
00071756 00000160 1459.17 359.59 477.97 649.05 1669.97 670.53 1882.48 660.63 1813.45 798.29 1650.29 848.64 1842.47 843.36
00071757 00000161 1456.94 358.98 480.88 651.98 1669.12 670.23 1884.18 656.09 1817.17 796.75 1653.46 850.68 1848.21 841.60
00071758 00000162 1455.71 350.53 482.70 655.66 1668.38 670.42 1885.62 658.64 1816.60 792.46 1651.18 846.38 1848.80 839.38
