Video ID: 	OiaO97zW7js
H: 	1080
W: 	1920
FPS: 	25.0

FRAME INDEX X0 Y0 W H [Landmarks (5 Points)]

00005302 00000000 684.27 253.03 431.48 542.82 781.91 450.50 971.27 425.40 884.60 549.80 839.80 655.24 988.41 633.27
00005303 DELETE   684.91 252.29 429.76 544.24 783.34 448.03 971.78 425.36 885.70 549.87 842.80 654.62 987.35 634.46
00005304 00000002 684.98 254.50 429.78 540.71 785.47 445.38 971.56 423.81 886.75 546.66 844.28 650.82 986.27 631.63
00005305 DELETE   685.77 253.13 428.00 539.07 789.19 441.99 972.84 421.15 889.23 540.16 846.21 646.31 986.51 627.79
00005306 DELETE   687.37 248.90 424.53 535.49 789.39 438.99 977.79 418.36 889.42 533.03 839.86 642.63 987.29 624.14
00005307 DELETE   687.37 243.56 423.28 535.44 786.27 435.02 975.02 412.84 885.79 524.61 836.15 636.00 987.46 615.91
00005308 00000006 684.07 235.54 424.67 544.34 784.35 431.12 969.57 408.42 882.18 518.78 834.40 631.10 982.32 610.70
00005309 00000007 683.37 233.74 425.07 551.28 783.42 429.43 967.69 407.97 880.47 518.83 834.79 633.64 979.22 614.63
00005310 00000008 683.89 238.94 426.49 548.65 783.73 432.54 968.61 410.70 881.91 520.49 836.04 634.65 985.63 615.17
00005311 00000009 686.33 246.80 427.02 540.07 786.09 434.81 970.94 411.28 884.79 521.78 840.46 635.67 989.47 614.69
00005312 00000010 688.89 242.47 427.34 544.71 790.68 435.37 972.69 410.26 889.92 519.87 845.53 635.19 993.46 612.62
00005313 00000011 692.43 231.56 425.95 551.10 794.62 433.16 974.45 407.06 894.41 515.31 848.91 632.46 995.11 608.88
00005314 00000012 696.37 237.48 422.78 541.62 799.59 429.88 977.72 404.49 898.83 512.09 851.91 629.00 995.74 605.88
00005315 00000013 698.50 233.50 423.90 542.82 803.36 425.84 980.75 399.51 903.87 508.00 857.96 626.19 999.76 601.82
00005316 00000014 701.50 227.05 422.68 546.69 805.92 422.23 983.71 396.22 906.27 504.16 859.29 622.80 1001.92 598.77
00005317 00000015 703.96 222.71 421.92 547.09 808.65 418.56 987.16 393.04 909.72 501.14 860.30 620.11 1002.82 596.50
00005318 00000016 707.68 218.38 419.38 551.88 811.97 417.28 991.64 391.60 914.46 499.84 861.64 619.63 1006.16 596.38
00005319 00000017 710.38 219.15 418.20 549.43 814.99 416.32 995.61 390.99 919.18 499.41 865.13 620.08 1008.78 597.19
00005320 00000018 712.72 222.02 420.56 546.47 817.63 408.56 1000.69 384.23 921.22 495.83 866.55 617.86 1010.15 595.44
00005321 00000019 717.28 221.57 420.70 546.69 821.82 406.08 1005.90 381.22 923.92 492.61 867.76 616.00 1013.31 593.39
00005322 00000020 720.97 225.85 419.78 542.70 826.83 407.34 1011.93 381.94 932.26 492.73 872.57 617.82 1018.36 594.75
00005323 00000021 723.41 225.88 421.07 544.38 829.78 407.36 1016.39 383.00 936.45 493.62 875.12 619.40 1021.58 597.12
00005324 00000022 726.68 223.64 421.43 548.61 834.55 403.84 1022.69 381.36 942.88 493.54 879.35 619.50 1025.68 598.76
00005325 00000023 729.15 221.61 422.13 547.43 837.38 402.12 1026.04 379.71 946.88 492.12 882.36 616.93 1029.11 596.16
00005326 00000024 732.76 220.22 420.86 543.66 840.66 402.03 1029.11 380.71 950.55 490.79 884.80 613.50 1033.11 593.41
00005327 00000025 735.60 220.50 418.17 536.63 842.55 400.93 1031.43 379.78 952.55 487.89 888.02 613.95 1033.87 593.77
00005328 00000026 731.80 205.83 424.09 546.41 839.88 390.17 1036.07 379.00 942.82 486.24 884.51 605.17 1033.77 596.61
00005329 00000027 739.24 218.05 419.81 532.26 846.25 392.40 1034.62 375.29 947.77 487.57 888.50 602.72 1036.13 586.97
00005330 00000028 738.04 209.78 422.09 540.79 843.78 390.27 1041.35 378.71 947.10 482.57 887.07 601.26 1045.74 591.88
00005331 00000029 744.38 222.79 417.01 534.79 851.90 390.73 1039.05 373.84 952.13 484.63 893.32 601.20 1041.42 585.60
00005332 00000030 747.26 226.65 414.97 526.58 852.92 390.27 1040.42 372.32 953.76 484.90 895.83 601.14 1041.64 584.59
00005333 00000031 748.70 229.09 414.88 521.64 853.14 390.15 1039.28 371.09 951.96 482.17 894.15 597.46 1044.11 579.92
00005334 00000032 748.08 224.84 416.53 518.56 853.52 389.80 1039.56 368.68 951.98 478.87 893.94 593.81 1045.41 574.75
00005335 00000033 748.49 220.73 416.34 521.13 853.94 388.29 1041.35 366.87 953.45 478.26 895.66 594.09 1045.96 574.73
00005336 00000034 745.09 203.55 419.24 538.82 848.95 383.39 1045.32 368.35 954.08 471.49 897.50 594.23 1055.08 581.82
00005337 00000035 744.93 203.87 419.36 539.19 848.11 382.00 1046.00 366.31 954.62 471.22 898.67 595.25 1055.35 582.34
00005338 00000036 743.92 201.00 419.78 543.05 847.78 381.69 1045.39 366.09 954.05 470.61 898.31 595.19 1055.00 582.33
00005339 00000037 743.25 200.14 420.76 542.20 847.09 382.50 1044.61 366.08 952.69 470.71 896.73 593.69 1055.11 580.13
00005340 00000038 743.83 200.60 420.48 537.81 847.06 384.73 1043.56 367.58 952.05 471.38 896.24 591.80 1054.97 577.77
00005341 00000039 741.59 201.82 421.58 537.45 845.92 388.48 1043.04 370.85 951.61 474.06 894.77 593.22 1056.45 578.50
00005342 00000040 739.74 200.18 422.32 543.30 844.76 391.94 1038.88 373.12 950.68 479.31 894.55 596.92 1054.32 581.17
00005343 00000041 738.18 202.15 422.88 545.38 844.47 394.29 1037.06 375.78 950.25 482.18 895.47 600.89 1051.60 585.54
00005344 00000042 737.07 206.59 422.77 543.72 843.54 395.26 1037.73 377.88 949.17 484.25 894.21 603.81 1050.33 589.50
00005345 00000043 734.74 210.34 424.66 546.59 843.26 395.48 1038.56 379.09 949.51 486.89 893.45 608.53 1047.57 594.93
00005346 00000044 733.09 213.05 424.92 549.52 842.96 395.61 1039.02 380.93 949.32 488.88 891.37 612.05 1044.42 599.93
00005347 00000045 734.14 213.95 422.76 552.81 846.45 401.30 1039.79 386.38 951.61 491.37 890.90 614.97 1045.06 602.73
00005348 00000046 736.58 215.38 418.64 554.90 849.16 412.18 1038.07 396.32 952.11 492.49 888.27 617.94 1046.21 604.96
00005349 00000047 735.97 211.84 418.34 559.50 848.43 411.30 1037.69 396.87 951.00 494.23 886.46 618.01 1043.23 606.36
00005350 00000048 735.98 213.42 418.29 558.01 847.70 407.54 1038.18 396.15 949.81 493.66 883.91 616.67 1041.66 607.50
00005351 00000049 735.03 215.15 421.32 556.81 847.38 401.34 1040.97 393.18 948.88 492.37 881.87 614.95 1038.88 608.50
00005352 00000050 735.49 216.59 420.23 549.86 846.37 396.08 1041.79 390.35 946.87 490.77 881.17 611.34 1035.74 606.69
00005353 00000051 746.07 230.80 412.80 535.07 850.62 393.43 1035.40 383.83 947.41 489.70 886.57 606.91 1030.83 597.65
00005354 00000052 746.57 229.41 413.11 536.25 851.18 391.26 1036.52 382.97 946.95 489.59 885.52 605.42 1031.12 597.21
00005355 00000053 749.79 231.30 410.19 532.79 851.82 389.49 1037.46 382.50 946.72 489.60 884.66 605.29 1031.49 598.02
00005356 00000054 751.23 228.47 410.69 535.79 853.58 388.06 1039.75 382.75 947.84 489.51 884.23 603.96 1032.22 598.14
00005357 00000055 753.14 229.78 411.17 534.63 855.04 387.72 1042.06 383.01 948.99 490.19 884.71 603.26 1034.50 597.88
00005358 00000056 754.85 226.31 413.31 536.66 858.45 387.87 1046.22 383.91 949.88 489.36 886.77 601.58 1038.34 596.89
00005359 00000057 755.67 221.98 416.73 539.80 862.12 381.28 1050.77 379.36 952.01 487.49 888.18 597.26 1040.82 594.33
00005360 00000058 758.92 220.68 418.07 532.54 868.31 378.70 1054.72 374.29 958.18 483.10 894.13 593.33 1043.20 588.54
00005361 00000059 760.41 215.36 420.87 529.13 872.59 376.47 1059.46 371.94 962.07 482.52 899.82 588.70 1045.32 583.70
00005362 00000060 761.95 215.80 423.29 524.54 876.24 375.39 1060.49 370.60 965.00 480.32 901.01 583.98 1045.55 578.93
00005363 00000061 763.65 215.00 424.21 520.41 877.21 374.79 1063.34 368.00 966.02 477.86 901.53 581.11 1050.04 574.39
00005364 00000062 765.30 214.20 422.80 518.68 876.32 374.82 1064.97 365.67 967.10 477.91 901.01 580.16 1054.41 571.53
00005365 00000063 764.61 216.02 423.53 515.25 875.94 376.70 1066.15 366.69 968.38 479.87 902.89 582.92 1055.92 573.32
00005366 00000064 764.56 212.37 423.94 521.76 873.92 380.23 1066.78 369.02 967.09 482.72 903.45 587.89 1057.16 577.16
00005367 00000065 760.82 197.11 428.15 541.92 865.58 377.78 1067.38 370.98 967.91 474.19 904.60 589.02 1068.65 582.94
00005368 00000066 760.99 198.60 427.32 540.74 864.81 379.04 1067.28 370.95 967.91 474.37 905.14 590.86 1069.65 583.82
00005369 00000067 764.05 208.95 421.63 528.99 871.29 385.56 1064.35 369.06 967.80 484.62 906.54 595.35 1058.52 579.82
00005370 00000068 763.56 209.06 421.04 531.30 870.54 387.32 1063.40 369.07 968.14 485.08 907.15 597.23 1059.38 580.19
00005371 00000069 763.01 215.81 420.39 525.56 868.65 389.41 1061.80 369.53 967.14 486.20 906.69 599.72 1058.44 581.53
00005372 00000070 761.33 213.90 421.18 529.19 866.91 389.94 1059.43 369.62 964.83 484.87 905.34 599.56 1056.41 580.99
00005373 00000071 759.74 213.37 419.96 528.17 864.24 389.20 1056.67 368.78 961.13 483.79 902.61 598.00 1053.64 579.48
00005374 00000072 756.07 211.87 421.57 526.01 860.68 385.57 1053.70 364.04 958.11 480.53 901.45 594.18 1052.18 574.90
00005375 00000073 752.79 193.25 420.16 540.25 852.68 381.94 1054.71 361.46 958.63 463.83 903.78 591.81 1068.52 575.27
00005376 DELETE   749.82 185.80 417.09 549.11 850.31 396.68 1043.70 366.82 957.48 461.42 903.04 593.42 1067.16 569.05
00005377 DELETE   740.38 195.23 420.99 538.20 839.85 395.02 1036.24 363.98 947.66 463.06 898.13 596.44 1060.09 571.04
00005378 DELETE   737.51 191.09 416.73 539.60 835.20 386.35 1030.65 358.31 942.42 463.99 894.33 594.22 1051.02 571.25
00005379 00000077 727.45 196.34 425.99 535.32 832.55 388.86 1027.03 356.83 945.29 468.81 891.97 596.94 1048.79 567.58
00005380 00000078 725.16 200.60 422.01 530.89 826.97 391.43 1023.38 359.34 939.59 468.14 885.51 598.98 1046.02 570.02
00005381 00000079 722.43 197.31 421.57 534.10 822.51 392.78 1018.27 359.74 935.00 469.26 881.57 598.82 1043.26 569.44
00005382 00000080 718.79 191.99 421.43 540.30 817.73 392.14 1014.27 359.45 930.48 468.68 875.62 598.03 1041.14 569.09
00005383 00000081 715.29 192.46 423.40 541.02 814.20 393.08 1011.87 361.39 927.49 469.42 872.29 598.57 1039.43 570.49
00005384 00000082 711.63 195.46 425.50 542.48 811.37 394.76 1008.67 363.43 924.56 473.66 870.15 601.43 1035.11 573.74
00005385 00000083 708.01 197.01 427.25 543.72 808.69 396.88 1005.18 364.40 922.46 477.23 868.95 603.46 1033.51 574.77
00005386 00000084 708.66 208.02 419.56 535.72 814.90 399.27 1002.02 362.70 925.25 483.60 872.46 605.91 1027.90 572.23
00005387 00000085 705.31 212.08 420.94 536.20 813.02 401.69 1000.41 364.42 924.20 484.08 870.78 608.33 1026.97 574.16
00005388 00000086 703.05 212.19 423.06 535.58 810.83 402.08 997.37 364.12 920.33 483.03 869.91 607.93 1024.90 572.87
00005389 00000087 702.32 212.24 423.22 536.41 809.52 403.01 995.72 364.89 917.56 481.71 867.92 607.63 1022.49 572.58
00005390 00000088 700.22 216.48 425.35 534.79 807.94 406.02 993.09 366.50 917.07 483.65 867.85 610.43 1021.78 574.29
00005391 00000089 696.38 222.93 427.00 530.89 804.74 408.64 990.10 369.55 916.14 488.53 865.27 612.35 1019.00 576.46
00005392 00000090 692.56 226.66 428.73 533.71 801.98 413.07 987.55 373.48 915.12 490.50 862.52 615.91 1017.74 579.92
00005393 00000091 690.47 231.80 429.45 530.32 799.49 414.84 986.27 377.65 912.41 492.50 859.17 618.05 1015.32 584.29
00005394 00000092 689.35 233.99 430.27 529.16 798.33 415.95 986.28 380.63 911.51 495.59 856.64 618.69 1012.72 586.38
00005395 00000093 686.85 233.20 432.13 531.90 797.61 417.58 985.85 382.82 911.56 496.55 855.52 619.66 1011.87 588.04
00005396 00000094 686.68 233.05 431.35 534.04 797.75 419.03 984.91 384.63 911.19 496.75 855.62 621.08 1009.40 589.97
00005397 00000095 685.76 235.00 431.82 533.77 797.42 419.96 984.44 386.52 910.22 497.16 856.09 622.83 1008.52 592.57
00005398 00000096 686.15 236.86 431.04 531.07 796.95 421.51 983.90 388.40 908.21 498.81 854.30 623.46 1006.82 593.44
00005399 00000097 685.15 239.00 432.83 529.64 796.10 422.65 983.60 389.92 906.88 499.57 853.66 624.26 1007.40 594.48
00005400 00000098 685.04 240.31 433.46 528.97 796.50 423.53 983.74 391.08 906.36 500.70 853.79 624.38 1006.88 594.81
00005401 00000099 685.10 238.56 433.26 531.50 796.69 424.67 983.46 391.73 906.49 501.54 854.44 625.60 1006.71 595.57
00005402 00000100 686.81 238.47 431.57 531.91 797.43 426.42 983.28 392.04 906.97 501.95 857.28 628.54 1007.29 597.39
00005403 00000101 689.97 234.67 429.06 535.24 800.21 434.52 980.96 397.22 907.95 501.04 859.94 630.81 1007.74 597.74
00005404 00000102 692.30 229.86 427.68 538.80 803.05 443.75 980.86 404.27 909.44 501.51 861.15 630.96 1009.78 596.77
00005405 00000103 691.07 230.96 430.16 538.18 801.29 445.09 978.43 399.92 909.43 500.57 862.97 632.26 1013.20 593.15
00005406 00000104 685.36 229.10 436.48 537.42 798.01 435.98 979.44 389.25 909.73 501.27 865.29 633.47 1014.81 592.21
00005407 00000105 681.24 235.06 437.02 530.41 795.17 432.86 978.97 386.44 909.42 499.14 863.76 633.42 1013.64 592.37
00005408 00000106 680.50 238.58 436.03 526.10 793.10 432.45 977.63 386.20 906.45 496.94 861.70 633.24 1011.30 592.65
00005409 00000107 679.71 237.43 435.58 527.70 792.21 431.31 977.34 385.90 905.18 496.34 860.19 632.56 1009.23 592.88
00005410 00000108 679.38 238.17 435.66 527.11 791.83 430.93 977.08 386.18 904.21 497.34 859.26 632.78 1007.60 593.74
00005411 00000109 679.82 239.12 435.12 526.37 791.85 430.17 977.34 387.16 903.59 498.58 858.32 632.77 1006.29 595.00
00005412 00000110 680.76 234.39 435.82 532.65 793.01 431.20 977.52 388.68 904.00 499.18 858.82 633.28 1006.68 596.01
00005413 00000111 681.28 231.09 435.96 535.87 792.88 431.27 978.40 389.08 904.75 499.83 859.23 634.80 1006.90 597.88
00005414 00000112 683.72 228.99 434.79 539.41 794.72 430.70 979.27 388.88 905.98 501.89 862.00 636.13 1007.77 599.46
00005415 00000113 685.39 232.24 434.16 539.40 795.99 429.07 981.46 388.86 906.95 503.14 863.82 637.90 1007.74 602.51
00005416 00000114 689.10 235.31 432.11 538.61 798.05 427.14 984.30 386.56 910.22 501.93 866.95 638.46 1012.13 602.24
00005417 00000115 690.37 237.47 430.49 537.91 799.18 425.21 987.02 384.81 913.14 500.60 867.37 638.29 1013.87 602.23
00005418 00000116 692.14 239.04 429.35 538.21 799.79 423.84 988.12 384.55 913.56 501.86 866.92 638.87 1013.80 603.71
00005419 00000117 693.97 239.44 428.90 539.62 801.14 423.71 989.02 385.60 914.61 505.34 867.00 638.91 1014.74 604.62
00005420 00000118 694.09 239.32 429.24 540.86 801.60 423.57 989.45 386.07 915.10 506.98 867.13 638.79 1014.97 605.00
00005421 00000119 694.59 240.10 429.93 541.77 802.02 422.57 989.89 385.36 915.67 507.80 868.01 638.91 1015.40 605.36
00005422 00000120 695.73 241.05 430.66 541.14 802.96 422.82 990.37 384.47 916.68 507.37 869.40 639.35 1017.14 604.86
00005423 00000121 696.49 236.94 430.24 546.50 803.42 423.77 992.68 385.95 918.29 508.62 869.72 641.72 1019.31 607.45
00005424 00000122 698.72 234.19 430.25 549.63 804.68 424.84 995.40 386.80 920.05 508.74 870.26 643.06 1021.34 608.56
00005425 00000123 700.41 232.79 430.73 554.23 806.84 425.95 995.83 387.62 921.82 509.55 872.17 643.52 1024.20 608.64
00005426 00000124 702.07 230.09 430.89 557.57 807.87 426.89 996.11 389.38 921.53 511.09 871.20 642.24 1024.65 607.94
00005427 00000125 702.20 230.45 431.67 556.22 809.27 427.28 996.76 389.76 923.02 510.53 871.90 639.84 1025.80 605.33
00005428 00000126 703.31 228.37 430.62 554.20 809.85 426.70 996.73 390.11 923.07 510.68 871.09 636.02 1025.33 602.12
00005429 00000127 704.44 225.66 429.67 551.94 810.21 426.87 996.51 391.34 922.55 510.42 869.80 633.06 1025.65 600.21
00005430 00000128 704.78 223.78 430.40 551.50 809.95 425.21 998.36 390.66 922.21 509.06 866.43 629.14 1027.09 597.08
00005431 00000129 704.39 223.98 429.03 546.91 809.61 425.60 998.50 391.09 922.32 510.16 865.68 628.86 1028.40 596.98
00005432 00000130 705.51 220.23 426.32 544.59 810.11 425.27 1000.70 392.39 923.42 511.19 864.74 627.97 1029.93 597.53
00005433 00000131 706.23 220.29 426.20 541.50 810.70 425.05 1002.01 392.86 923.50 511.39 864.22 626.52 1031.17 596.68
00005434 00000132 707.27 219.48 425.25 538.83 811.23 424.94 1002.73 393.56 923.35 511.01 864.35 626.05 1031.92 596.95
00005435 00000133 706.79 219.69 425.88 535.97 810.54 424.56 1002.63 393.92 922.42 511.47 864.11 626.12 1031.60 597.53
00005436 00000134 706.62 221.07 425.43 533.45 810.28 425.10 1002.91 394.75 922.47 511.80 863.22 626.26 1031.69 598.04
00005437 00000135 707.23 222.04 425.11 532.15 811.41 424.26 1004.32 394.91 923.00 510.25 863.20 625.84 1031.26 598.58
00005438 00000136 707.60 223.33 424.18 527.36 811.59 423.99 1005.34 395.83 922.63 509.97 862.82 625.11 1031.59 598.90
00005439 00000137 708.54 223.16 422.98 527.51 812.77 422.65 1006.67 394.78 924.19 509.97 863.59 624.44 1032.42 598.42
00005440 00000138 709.14 218.72 423.40 531.41 814.24 419.99 1007.88 389.87 927.18 505.42 864.89 620.96 1033.79 592.88
CROP_BBOX: 500 0 1498 1029
