Video ID: 	kuo25vAQrEE
H: 	1080
W: 	1920
FPS: 	29.97002997002997

FRAME INDEX X0 Y0 W H [Landmarks (5 Points)]

00065106 00000000 733.68 152.97 379.70 565.19 827.73 402.17 998.04 403.98 915.04 503.58 853.90 594.00 988.70 594.69
00065107 00000001 732.18 151.47 379.08 569.11 828.75 405.02 991.63 406.66 914.15 508.27 855.47 599.65 977.83 600.37
00065108 00000002 732.00 159.29 378.05 566.37 830.36 406.69 993.27 407.77 915.49 509.63 856.57 602.05 978.11 603.02
00065109 00000003 730.90 158.62 379.69 567.31 830.73 409.04 996.17 409.30 919.42 510.97 860.41 603.13 984.33 603.18
00065110 00000004 730.03 167.01 381.53 556.00 834.49 411.34 999.36 411.30 924.03 512.11 866.88 603.75 989.18 603.74
00065111 DELETE   729.37 162.46 385.34 559.94 834.53 415.17 1002.73 413.91 927.13 515.08 870.19 606.72 995.69 605.28
00065112 00000006 728.67 164.68 386.05 560.50 833.85 417.38 1002.39 415.87 926.56 519.51 869.47 609.33 995.12 607.78
00065113 00000007 729.05 163.84 383.15 564.04 831.66 422.72 998.36 422.30 922.56 529.52 867.31 613.32 991.44 612.72
00065114 00000008 730.01 179.61 378.11 549.71 830.79 428.40 995.94 427.32 919.52 536.43 867.19 618.29 985.05 618.03
00065115 00000009 733.30 171.22 375.03 564.35 827.74 431.35 992.94 432.21 914.12 539.10 863.01 620.77 984.37 621.77
00065116 00000010 734.29 173.74 374.48 563.29 827.90 431.86 992.97 434.42 912.63 539.06 861.12 620.65 983.05 623.15
00065117 00000011 733.47 172.16 375.74 562.80 827.39 428.79 992.82 433.12 911.24 537.56 858.86 617.88 981.71 621.72
00065118 00000012 732.64 177.85 375.46 554.59 827.46 426.88 992.72 431.57 911.86 535.50 857.93 616.72 979.72 620.99
00065119 00000013 732.73 179.13 374.00 556.06 827.09 425.87 991.60 431.36 910.36 532.94 854.93 614.65 978.65 619.58
00065120 00000014 732.94 175.48 374.42 559.87 826.28 424.93 991.65 431.91 908.88 533.44 852.43 613.18 978.86 619.15
00065121 00000015 734.20 176.73 373.62 557.25 826.21 424.43 991.93 431.11 907.87 532.98 851.28 611.51 979.25 617.33
00065122 00000016 733.43 175.60 374.29 559.70 826.58 423.83 992.52 431.64 907.88 532.03 849.80 610.51 979.51 617.25
00065123 00000017 733.33 169.12 377.65 567.47 826.00 424.49 994.17 432.94 907.06 532.93 849.40 610.64 982.70 617.31
00065124 00000018 733.18 168.13 378.82 568.77 827.55 424.16 996.86 433.97 908.16 533.99 848.98 611.92 981.37 619.83
00065125 00000019 734.34 176.73 377.85 560.14 830.46 423.46 1000.14 434.95 910.04 534.42 847.75 611.81 978.41 621.82
00065126 00000020 735.45 185.00 377.14 553.26 833.95 425.17 1003.71 438.38 913.73 533.92 848.63 611.33 979.68 622.93
00065127 00000021 737.04 186.60 378.69 551.60 837.85 426.31 1007.36 440.34 918.09 533.12 850.63 610.77 981.64 623.08
00065128 00000022 738.98 188.11 379.22 549.35 841.19 425.66 1009.42 440.02 921.62 533.46 852.82 609.79 981.79 622.53
00065129 00000023 742.09 184.67 378.34 548.30 842.38 424.46 1013.03 438.61 923.84 534.15 854.55 608.88 985.75 621.15
00065130 00000024 740.25 184.54 381.64 545.16 841.83 422.65 1013.09 436.34 924.06 533.07 855.46 607.53 985.82 619.41
00065131 00000025 738.66 187.52 382.23 541.72 840.81 422.82 1013.06 435.43 924.00 533.59 854.87 607.34 985.44 618.58
00065132 00000026 737.96 189.60 379.03 542.85 839.06 426.14 1008.67 439.05 920.69 534.57 853.68 609.40 982.07 620.90
00065133 00000027 736.66 190.22 378.45 546.56 836.94 427.08 1005.89 441.51 916.09 534.80 850.70 611.12 978.70 624.07
00065134 00000028 737.30 181.97 375.97 556.36 833.98 428.22 1003.11 441.39 913.57 537.71 852.02 614.97 979.39 626.36
00065135 00000029 734.10 178.15 379.29 559.92 830.68 428.23 1000.43 440.32 910.61 538.65 851.72 616.84 978.37 627.14
00065136 00000030 732.90 178.02 380.34 562.38 828.57 428.23 997.55 439.25 908.73 538.96 851.85 617.37 979.31 626.63
00065137 00000031 731.50 177.43 379.15 559.22 826.82 427.63 996.23 437.23 909.18 538.02 851.09 614.55 981.28 622.49
00065138 00000032 731.75 177.90 378.31 556.66 824.87 428.86 993.19 438.27 906.31 537.89 849.52 613.32 980.96 620.98
00065139 00000033 732.11 173.77 375.69 562.37 821.57 429.14 991.60 439.80 902.21 537.86 845.40 612.96 980.68 621.39
00065140 00000034 730.25 183.73 374.30 553.99 819.97 431.07 987.84 441.02 899.04 538.65 844.02 614.08 974.20 622.71
00065141 00000035 725.88 186.39 373.83 553.81 817.03 431.95 984.47 440.76 896.69 544.17 842.00 619.50 967.43 627.54
00065142 00000036 721.28 188.02 371.67 552.56 814.99 435.34 981.29 445.25 894.04 547.60 839.01 625.00 958.90 634.20
00065143 00000037 716.55 193.03 372.50 549.16 813.23 437.65 980.59 446.64 892.97 549.09 836.83 627.09 955.11 635.77
00065144 00000038 715.70 190.78 373.15 550.50 812.75 437.49 980.16 446.88 892.70 548.58 836.64 626.21 956.28 635.09
00065145 00000039 716.64 183.48 374.12 557.07 812.46 433.60 982.85 443.01 895.23 543.81 837.47 622.45 963.68 630.70
00065146 00000040 717.36 185.31 380.41 552.82 815.11 431.56 986.10 437.32 899.39 540.90 840.51 619.93 967.78 625.36
00065147 00000041 723.13 185.36 379.01 550.27 817.43 432.53 988.61 436.35 902.39 539.47 845.02 618.22 975.30 621.91
00065148 00000042 729.32 173.60 377.91 561.85 822.60 432.99 992.76 440.70 906.02 539.37 847.15 615.93 981.14 622.09
00065149 00000043 732.84 174.40 378.00 561.89 827.66 435.02 997.57 443.71 911.31 540.94 851.23 617.56 984.45 624.37
00065150 00000044 734.48 191.96 375.68 546.70 830.77 438.21 1002.45 447.37 914.54 546.43 850.59 620.55 984.34 628.64
00065151 DELETE   735.21 207.85 376.49 535.45 833.26 438.43 1006.99 448.13 916.50 549.29 849.93 623.37 982.50 632.67
00065152 00000046 735.66 205.76 377.47 541.53 835.06 441.34 1006.00 454.16 914.55 551.74 848.53 625.08 979.34 636.83
00065153 00000047 735.20 204.56 378.06 547.64 835.06 443.82 1003.98 457.11 913.55 553.39 849.42 628.79 977.25 640.73
00065154 00000048 732.42 202.52 378.43 549.36 831.45 444.60 999.15 456.90 909.06 553.97 847.40 628.05 975.88 638.98
00065155 00000049 731.26 196.89 377.09 559.12 828.59 441.48 993.29 455.45 903.83 553.72 843.99 627.33 971.29 639.67
00065156 00000050 730.37 196.40 374.15 557.63 826.13 440.49 986.71 452.99 899.88 550.91 844.61 626.34 967.78 637.51
00065157 00000051 728.04 190.78 374.58 559.27 824.38 437.19 986.27 449.52 899.15 548.94 845.38 625.08 966.14 635.92
00065158 00000052 727.77 188.49 374.08 558.38 823.17 437.09 986.07 447.37 900.02 549.03 848.85 626.67 967.73 635.61
00065159 00000053 726.90 183.54 375.51 562.02 822.48 435.90 987.93 445.71 901.04 548.33 848.56 626.25 970.17 634.54
00065160 00000054 728.84 183.27 374.60 562.31 822.34 436.16 989.52 446.20 900.88 547.75 847.63 623.89 974.35 632.11
00065161 00000055 729.88 184.39 374.78 561.57 822.62 436.50 991.13 446.31 901.77 547.49 847.49 623.51 976.64 631.51
00065162 00000056 731.38 183.32 373.59 562.95 824.22 436.07 991.79 446.39 903.72 547.12 849.57 624.47 976.47 632.97
00065163 00000057 732.69 178.93 374.00 570.15 825.17 436.49 991.80 447.27 904.23 546.24 849.97 625.40 976.31 634.05
00065164 00000058 732.50 180.01 374.30 566.18 826.98 435.63 990.66 445.50 906.07 544.82 852.05 625.32 972.97 633.75
00065165 00000059 732.04 182.84 375.71 566.43 828.49 436.02 990.10 445.07 906.47 542.36 852.75 623.94 973.64 631.85
00065166 00000060 731.56 179.76 376.33 571.98 828.37 434.55 989.83 443.95 906.39 540.92 852.84 623.89 974.16 631.92
00065167 00000061 732.92 175.14 375.23 576.75 828.02 433.58 990.93 443.23 906.43 539.14 852.51 622.77 977.26 630.74
00065168 00000062 732.57 174.76 375.42 574.65 828.18 431.96 992.99 441.57 907.81 538.37 851.31 620.85 979.47 628.64
00065169 00000063 730.82 173.96 376.55 572.10 829.30 428.28 995.23 438.50 910.99 536.55 850.73 616.58 980.16 625.10
00065170 00000064 730.77 177.85 375.10 561.11 831.12 426.85 998.14 435.23 916.74 533.09 852.48 614.54 980.91 621.71
00065171 DELETE   726.75 181.71 383.89 554.71 835.93 423.51 1003.35 429.88 924.82 526.41 856.47 611.87 983.10 617.49
00065172 00000066 728.21 182.23 385.46 547.50 840.93 415.09 1011.33 417.74 933.87 516.62 862.47 608.37 988.98 611.59
00065173 DELETE   733.31 183.27 382.61 535.89 846.93 409.35 1015.24 411.73 940.21 512.38 871.89 604.80 991.84 607.70
00065174 00000068 736.44 172.40 380.82 547.97 848.22 406.52 1014.70 409.07 942.03 506.62 876.19 599.43 1001.32 601.78
00065175 DELETE   738.11 164.69 381.19 557.76 852.94 403.02 1018.86 407.57 949.20 501.54 878.39 594.15 1007.47 598.01
00065176 00000070 739.95 158.32 379.67 562.88 853.10 401.98 1020.97 405.65 950.48 500.31 880.18 592.73 1011.91 595.44
00065177 DELETE   740.96 154.82 379.89 560.66 852.08 399.96 1022.66 401.81 951.27 499.69 882.50 592.98 1012.81 593.78
00065178 00000072 741.74 153.44 381.09 558.36 853.09 398.72 1025.01 397.87 953.93 499.88 886.28 592.40 1014.78 590.90
00065179 00000073 744.15 146.86 380.15 563.64 854.72 397.33 1028.75 396.46 957.94 500.29 886.19 591.00 1018.87 589.35
00065180 00000074 746.25 145.26 377.65 562.80 854.76 395.25 1032.00 394.89 959.00 500.12 886.14 591.50 1020.81 590.34
00065181 00000075 747.54 148.65 376.34 558.29 856.32 393.32 1033.92 393.63 960.04 498.60 886.22 589.96 1021.81 589.42
00065182 00000076 746.63 149.55 378.07 563.92 857.74 394.02 1031.86 395.77 959.88 497.99 887.53 591.12 1020.21 591.81
00065183 00000077 746.67 149.55 377.81 569.81 860.73 392.31 1029.81 395.83 961.01 496.40 887.89 590.35 1017.54 593.05
00065184 00000078 747.50 147.61 377.11 574.36 860.73 390.38 1030.43 393.59 961.23 493.45 886.07 587.48 1020.72 589.85
00065185 00000079 747.46 144.99 377.61 576.16 860.23 389.53 1031.12 392.25 962.09 493.22 885.80 586.29 1022.89 588.12
00065186 00000080 747.69 144.28 377.35 574.39 860.06 389.51 1030.61 392.38 962.29 493.84 885.47 585.96 1021.70 587.89
00065187 00000081 746.80 146.51 378.50 571.60 860.54 389.92 1029.55 392.74 962.88 494.83 887.31 587.69 1019.27 589.66
00065188 00000082 746.79 146.00 379.22 572.99 861.00 390.78 1030.68 393.82 963.08 496.37 889.47 591.09 1018.57 593.17
00065189 00000083 747.11 146.79 379.79 572.44 861.18 392.28 1031.76 395.04 963.13 498.20 890.95 593.74 1018.56 595.61
00065190 00000084 747.27 148.26 380.07 570.17 860.55 393.93 1031.66 395.72 962.23 500.20 891.57 595.80 1018.01 596.89
00065191 00000085 746.89 147.45 379.93 569.39 858.27 394.52 1031.18 397.14 959.66 501.77 888.39 596.63 1016.42 598.34
00065192 00000086 744.56 145.34 381.66 573.05 852.60 397.99 1029.82 400.40 953.99 500.64 883.41 597.46 1019.30 598.51
00065193 00000087 741.12 145.53 383.52 573.85 848.43 400.33 1026.75 404.79 949.36 503.84 874.28 594.70 1016.96 597.36
00065194 DELETE   738.57 153.91 384.26 566.11 843.47 404.12 1021.07 410.84 940.45 504.80 865.25 592.07 1013.24 596.88
00065195 00000089 734.41 162.77 385.37 555.49 840.25 408.64 1016.27 415.59 933.96 506.54 859.39 590.02 1008.85 594.83
00065196 00000090 733.27 174.73 385.03 549.83 838.83 413.31 1013.60 417.44 931.51 508.85 858.76 594.91 1004.78 597.94
00065197 00000091 732.18 168.58 385.52 559.04 836.19 415.57 1010.28 418.63 927.68 510.09 858.00 598.69 1002.01 600.56
00065198 00000092 730.81 168.60 384.93 556.02 834.84 416.13 1006.01 418.81 926.15 512.35 860.81 600.54 998.22 602.26
00065199 00000093 729.26 165.73 386.50 559.77 832.74 417.34 1002.85 419.21 923.72 516.88 860.82 604.97 993.33 606.07
00065200 00000094 729.39 165.94 385.28 559.95 832.70 418.80 1000.06 420.34 921.64 520.37 862.69 608.57 988.61 609.75
00065201 00000095 728.55 168.61 384.73 560.96 832.37 418.81 998.56 421.23 920.75 522.42 862.73 610.79 985.77 612.90
00065202 00000096 728.15 169.52 384.19 561.10 831.71 419.90 998.08 422.39 920.29 523.69 863.07 612.05 985.84 614.23
00065203 00000097 728.63 174.31 381.39 556.65 832.03 422.17 996.25 424.17 920.06 526.84 863.88 613.72 983.65 615.74
00065204 00000098 728.12 172.14 382.61 558.22 831.11 423.06 996.04 425.56 918.75 528.06 863.34 614.62 983.08 616.95
00065205 00000099 728.81 174.45 381.41 555.72 830.82 423.96 995.89 426.97 917.90 528.72 863.13 614.77 982.81 617.59
00065206 00000100 728.70 176.85 379.94 554.21 830.14 424.77 995.61 427.37 917.60 529.49 861.90 614.46 983.04 616.95
00065207 00000101 729.71 177.88 378.68 554.75 829.47 426.69 995.40 429.15 916.88 531.64 861.36 615.33 984.55 617.52
00065208 00000102 729.75 174.92 377.18 559.38 829.24 427.77 994.94 431.89 916.29 533.55 859.66 616.55 982.48 620.11
00065209 00000103 732.10 174.76 375.25 559.79 829.48 428.35 994.97 433.51 914.45 535.62 857.62 616.89 980.77 621.53
00065210 00000104 733.58 172.64 374.10 561.88 829.02 429.00 994.56 435.27 912.74 536.70 857.13 617.43 980.35 622.84
00065211 00000105 734.57 176.27 372.23 558.78 829.62 429.70 994.13 435.94 912.42 536.96 858.11 617.84 980.03 623.34
00065212 00000106 734.09 175.16 373.40 560.02 829.38 429.68 993.83 435.80 912.27 537.50 858.49 618.99 979.30 624.40
00065213 00000107 733.93 177.76 373.92 558.49 829.41 429.98 993.63 436.02 911.68 537.37 857.91 619.05 978.59 624.56
00065214 00000108 733.28 177.31 374.94 560.13 828.84 429.46 994.84 436.59 911.46 537.70 854.94 617.04 980.46 623.28
00065215 00000109 733.24 179.74 375.13 558.64 829.66 428.86 996.21 436.80 912.18 536.58 852.55 615.30 980.91 622.18
00065216 00000110 732.94 180.52 376.09 560.47 830.01 429.01 996.27 437.21 912.14 536.25 852.03 615.75 980.58 622.94
00065217 00000111 732.94 179.72 376.41 564.32 829.14 430.11 995.88 438.32 911.14 537.19 851.29 616.88 981.50 623.92
00065218 00000112 732.52 179.09 376.79 566.47 828.54 431.06 995.11 439.57 909.82 537.84 851.17 617.72 981.06 624.96
00065219 00000113 732.93 177.87 377.03 568.89 828.88 432.07 995.32 440.53 909.79 537.77 851.65 618.61 981.13 625.80
00065220 00000114 732.78 176.85 377.19 570.34 829.01 432.69 995.06 441.18 909.73 538.49 851.81 619.25 980.65 626.48
00065221 00000115 732.66 177.73 376.85 568.34 828.23 433.42 994.73 441.99 908.93 540.16 851.57 619.78 980.71 627.16
00065222 00000116 732.79 173.66 376.52 571.70 826.99 434.70 993.50 444.49 906.91 542.85 850.04 618.93 981.33 626.96
00065223 00000117 733.47 177.02 375.49 565.95 828.15 435.12 995.41 445.08 908.66 543.92 850.52 618.72 981.83 627.06
00065224 00000118 733.01 176.75 375.60 565.45 828.20 435.87 995.14 445.59 908.63 543.47 850.35 618.03 981.16 626.16
00065225 00000119 733.18 180.03 375.42 560.63 828.17 436.58 994.45 445.62 908.82 544.05 852.78 619.24 979.63 626.96
00065226 00000120 732.94 181.93 375.85 559.06 828.11 437.50 992.86 445.59 908.72 545.18 855.47 621.58 978.47 628.67
00065227 00000121 732.42 182.59 375.71 560.05 828.14 438.35 993.28 445.90 909.12 546.28 855.46 622.02 979.74 628.61
00065228 00000122 732.72 183.44 374.91 558.39 827.83 439.29 992.55 446.62 908.64 547.38 855.29 622.77 978.45 629.26
00065229 00000123 732.11 187.31 374.56 555.43 827.50 439.84 991.63 446.91 908.03 548.87 855.10 623.50 977.41 629.92
00065230 00000124 731.16 190.26 374.37 553.66 827.23 439.33 991.65 447.24 907.97 548.87 855.05 624.31 976.10 631.54
00065231 00000125 731.92 188.02 373.79 560.15 828.53 439.47 990.39 447.49 908.30 548.21 855.91 626.53 973.59 634.11
00065232 00000126 731.70 188.49 374.26 561.57 828.92 439.75 990.45 448.06 908.08 547.87 854.95 626.74 973.09 634.62
00065233 00000127 731.67 188.20 373.79 556.00 826.62 440.60 990.88 448.40 905.50 547.77 851.31 621.41 976.79 628.22
00065234 00000128 731.59 191.29 373.34 550.48 826.35 440.16 991.83 449.14 904.15 547.57 846.96 617.70 977.53 625.41
00065235 00000129 731.15 190.87 374.26 551.54 825.88 440.73 991.21 449.24 903.56 547.32 846.65 617.44 978.02 624.69
00065236 00000130 731.39 191.55 374.22 550.39 825.90 440.79 990.98 449.34 903.15 547.32 846.51 617.10 977.81 624.36
00065237 00000131 731.81 189.73 374.53 553.63 826.43 440.07 990.44 448.58 903.67 547.11 849.01 618.87 976.91 626.26
00065238 00000132 732.42 191.04 373.65 551.62 827.22 440.10 990.92 448.79 904.84 548.17 850.88 620.43 975.58 628.22
00065239 00000133 732.67 187.40 374.01 556.84 827.18 439.62 991.15 448.29 904.74 547.15 850.67 620.75 976.12 628.46
00065240 00000134 733.00 185.46 373.76 560.02 827.27 439.05 990.45 448.06 904.71 546.86 851.03 620.77 975.93 628.77
00065241 00000135 733.13 186.65 373.56 558.92 827.88 439.48 989.69 449.11 904.24 547.43 852.24 621.88 973.77 630.61
00065242 00000136 733.03 189.11 374.59 558.88 828.00 439.73 989.46 449.21 903.32 546.79 851.42 622.55 972.40 631.32
00065243 00000137 732.94 188.17 373.85 559.27 827.25 439.26 988.35 449.75 902.03 547.31 850.68 622.71 970.99 632.36
00065244 00000138 732.51 186.91 374.28 561.72 826.56 438.13 987.47 449.26 900.44 546.52 848.99 622.03 969.91 632.15
00065245 00000139 732.60 189.56 373.79 558.61 826.02 438.95 987.58 449.68 899.61 546.69 848.17 622.17 970.07 631.97
00065246 00000140 731.65 190.25 375.36 559.28 824.63 439.31 988.56 449.15 898.43 546.56 846.23 621.39 972.46 630.20
00065247 00000141 731.55 189.73 374.87 558.64 824.44 439.73 988.04 449.46 898.22 546.98 845.60 620.33 972.74 628.89
00065248 00000142 731.20 188.42 375.18 559.18 823.50 439.43 987.96 449.83 897.33 547.19 844.15 619.93 972.39 628.96
00065249 00000143 731.31 188.86 374.13 555.94 823.11 439.55 987.49 449.29 897.47 548.09 844.91 620.41 971.65 628.89
00065250 00000144 730.93 188.61 373.98 554.77 822.92 439.03 987.59 448.70 898.06 548.04 845.31 620.84 971.01 629.32
00065251 00000145 730.43 189.07 374.07 553.73 822.57 438.88 987.26 448.55 897.76 547.94 845.36 621.14 970.34 629.64
00065252 00000146 730.35 188.41 373.92 554.95 822.52 438.72 987.17 448.59 897.82 547.92 845.43 621.30 970.41 629.94
00065253 00000147 729.89 189.24 374.50 554.46 822.57 438.82 987.65 448.56 898.49 548.32 846.45 621.74 971.25 630.21
00065254 00000148 729.45 190.83 374.70 552.20 822.71 438.02 988.01 448.34 898.47 548.09 845.41 621.10 970.53 630.05
00065255 00000149 728.89 189.14 375.57 554.66 822.26 438.05 988.65 449.20 897.91 547.75 842.89 618.81 972.09 628.27
00065256 00000150 728.22 189.55 376.24 554.25 821.76 437.54 988.86 449.69 897.04 547.87 840.53 616.92 972.68 627.08
00065257 00000151 728.48 191.62 376.60 551.84 821.56 437.24 989.44 449.91 896.02 548.50 838.99 615.67 973.20 626.23
00065258 00000152 728.20 188.69 376.68 555.16 821.42 437.13 988.69 450.26 895.86 548.08 838.40 615.26 972.49 626.21
00065259 00000153 728.74 188.97 376.13 553.54 822.51 436.58 988.87 449.50 897.32 548.37 841.37 617.24 970.49 628.26
00065260 00000154 729.22 189.86 375.53 552.43 823.21 437.34 988.20 449.14 898.44 549.58 844.10 619.63 968.99 629.94
00065261 00000155 730.48 190.03 374.12 552.91 823.44 437.37 987.85 448.48 898.64 549.12 845.57 620.59 969.30 630.38
00065262 00000156 730.65 190.28 373.72 551.95 822.73 437.62 988.51 449.03 898.42 549.71 844.71 620.63 969.99 630.62
00065263 00000157 730.96 190.64 373.44 549.86 822.86 437.28 988.63 448.56 898.53 548.78 845.98 620.96 970.00 630.91
00065264 00000158 732.19 189.47 372.70 551.63 823.35 437.69 988.66 448.89 899.03 549.49 847.59 621.84 970.55 631.78
00065265 00000159 733.34 186.66 372.60 555.36 823.51 437.61 988.82 448.82 899.22 549.21 847.98 622.41 971.39 632.13
00065266 00000160 732.11 189.27 374.82 554.35 823.81 437.00 989.41 448.60 899.22 548.69 847.55 622.34 971.18 632.49
00065267 00000161 732.03 187.25 375.22 557.19 824.95 436.16 988.96 447.75 900.11 547.63 847.49 622.15 969.85 632.43
00065268 00000162 732.05 187.00 375.64 562.90 825.01 436.08 989.90 447.07 900.52 546.62 847.16 622.59 972.48 632.27
00065269 00000163 732.56 184.10 376.57 568.55 825.42 435.58 990.08 447.28 899.56 546.05 846.18 622.19 973.24 632.48
00065270 00000164 733.49 182.24 376.43 570.23 826.18 435.64 991.53 447.44 901.05 546.31 847.09 621.68 975.21 631.80
00065271 00000165 732.98 182.61 377.37 570.61 827.27 435.39 993.33 447.25 903.59 546.26 846.84 621.02 976.85 631.30
00065272 00000166 732.14 179.17 378.52 575.42 828.01 435.21 994.75 447.40 904.76 544.70 846.24 620.55 977.85 630.93
00065273 00000167 731.94 182.49 379.43 572.00 829.00 435.45 996.79 448.38 905.78 545.16 845.52 619.76 978.78 630.77
00065274 00000168 731.59 183.40 378.92 566.96 829.67 434.78 997.70 448.02 907.08 543.50 845.43 617.78 978.59 628.95
00065275 00000169 730.47 190.72 379.77 554.34 830.23 433.79 1000.73 447.51 908.95 542.72 842.74 614.21 979.81 625.89
