Video ID: 	NsbeXinbGAg
H: 	1080
W: 	1920
FPS: 	23.976023976023978

FRAME INDEX X0 Y0 W H [Landmarks (5 Points)]

00006292 00000000 703.32 158.83 333.69 489.89 848.99 363.22 987.31 363.82 947.00 454.51 863.93 536.95 970.13 537.85
00006293 DELETE   703.58 158.64 334.03 488.86 848.93 362.93 987.86 364.15 947.24 454.25 863.40 536.83 970.17 538.24
00006294 00000002 704.05 158.66 333.73 488.07 848.97 362.92 987.92 363.99 947.33 454.43 863.05 536.19 970.30 537.50
00006295 DELETE   703.81 158.76 333.80 488.39 849.10 362.94 987.82 364.09 947.53 454.66 862.43 536.07 969.93 537.50
00006296 00000004 703.44 158.44 333.99 488.84 849.24 363.49 988.28 364.50 948.29 455.22 861.76 536.06 970.32 537.49
00006297 00000005 703.45 158.23 334.21 488.20 849.07 363.56 988.38 364.96 948.04 455.28 861.04 535.85 969.54 537.66
00006298 00000006 703.46 158.46 334.34 488.19 848.84 363.76 988.50 365.04 948.19 456.25 859.25 535.08 969.64 536.86
00006299 00000007 703.58 158.63 334.00 488.75 848.39 364.13 988.51 365.29 947.95 456.75 857.71 534.73 969.76 536.48
00006300 DELETE   703.65 158.46 334.01 489.21 848.33 364.34 988.43 365.50 947.81 457.10 857.61 535.07 969.41 536.85
00006301 DELETE   703.48 158.62 333.83 489.34 848.23 364.64 988.05 365.53 947.57 458.03 857.51 535.28 969.07 536.82
00006302 00000010 703.13 158.53 333.79 489.64 847.73 365.14 987.87 365.73 947.32 458.37 856.89 535.61 969.03 536.97
00006303 DELETE   703.47 159.23 333.53 488.56 847.23 365.29 987.76 365.65 947.08 458.67 856.94 536.01 969.23 537.18
00006304 00000012 702.67 159.11 334.26 488.38 847.26 365.32 987.88 365.54 947.65 458.49 857.46 536.12 969.57 537.18
00006305 00000013 702.83 158.83 333.83 488.64 847.00 365.50 987.59 365.46 947.41 458.85 857.76 536.52 969.58 537.33
00006306 DELETE   702.52 158.88 334.04 488.06 846.72 365.52 987.44 365.29 947.35 458.92 858.04 536.81 969.51 537.47
00006307 DELETE   702.29 158.67 334.30 488.48 846.63 365.61 987.12 365.53 946.90 459.08 858.16 536.82 969.20 537.56
00006308 00000016 702.39 159.32 334.19 488.02 846.50 365.69 987.25 365.78 946.68 459.37 858.02 537.24 969.02 538.11
00006309 DELETE   702.04 159.02 334.49 488.60 846.48 365.78 987.12 365.76 946.52 459.57 858.23 537.27 968.96 538.05
00006310 00000018 702.10 159.17 334.17 488.53 846.55 366.00 987.02 365.83 946.57 459.49 858.75 537.50 969.09 538.12
00006311 00000019 614.90 218.37 490.93 733.04 851.32 511.71 1048.05 521.81 1009.12 647.82 861.56 767.50 1021.70 775.67
00006312 00000020 614.66 218.50 491.11 733.56 851.59 511.89 1048.19 521.40 1009.71 648.01 862.12 767.70 1022.51 775.33
00006313 00000021 615.01 219.04 490.98 733.55 851.19 511.93 1048.49 520.86 1009.74 647.35 863.82 768.47 1024.34 775.49
00006314 00000022 617.02 220.02 487.47 734.37 852.08 512.99 1049.31 521.73 1011.56 647.71 869.25 772.50 1027.86 779.04
00006315 00000023 617.55 220.87 486.72 742.91 853.07 512.92 1049.08 522.78 1012.72 647.61 873.28 778.84 1029.07 786.16
00006316 00000024 616.45 222.67 485.96 750.71 849.05 513.37 1046.51 525.62 1007.96 645.97 871.31 783.52 1027.38 792.74
00006317 00000025 614.99 222.78 485.01 754.96 848.77 509.07 1042.39 524.64 1004.85 640.51 871.54 781.73 1021.55 793.70
00006318 00000026 615.01 219.55 485.48 749.57 845.56 501.92 1039.00 518.11 998.53 634.45 864.18 772.37 1016.62 785.45
00006319 00000027 612.02 208.21 488.89 739.55 840.58 495.25 1038.12 508.62 991.97 630.97 854.90 759.09 1014.92 769.86
00006320 00000028 605.08 200.32 490.92 747.23 833.23 486.34 1032.20 508.32 984.21 621.79 841.89 750.14 1007.57 767.45
00006321 00000029 602.50 194.52 489.42 756.58 823.80 480.61 1023.70 507.89 969.10 615.08 827.42 747.63 992.09 769.51
00006322 00000030 598.79 193.62 489.90 763.32 817.65 476.10 1019.47 506.68 958.92 611.15 814.72 745.54 982.67 770.11
00006323 00000031 594.48 192.72 492.10 761.13 808.26 471.58 1017.02 503.24 951.44 612.40 801.96 744.39 978.18 770.03
00006324 00000032 590.56 189.65 493.15 752.39 804.33 468.64 1016.22 497.33 949.26 610.66 801.35 740.09 979.26 763.31
00006325 00000033 591.61 173.48 497.56 768.78 802.26 469.67 1013.45 484.38 951.29 594.64 813.10 734.54 982.90 745.94
00006326 00000034 588.77 165.83 495.57 769.83 802.86 461.23 1012.57 478.72 955.77 586.42 811.61 720.98 984.58 734.32
00006327 00000035 583.80 158.40 496.29 784.13 806.84 450.46 1010.43 477.76 956.59 580.88 810.21 720.11 974.86 741.45
00006328 00000036 576.69 161.52 496.03 765.14 806.27 446.70 1007.55 468.97 959.08 585.58 811.60 721.76 978.02 740.71
00006329 00000037 580.10 156.42 495.16 763.37 806.27 439.30 1010.01 461.72 960.69 574.80 813.95 716.37 979.61 735.68
00006330 00000038 575.95 146.39 497.82 765.54 808.54 428.23 1011.43 453.92 961.68 565.57 814.45 705.55 977.61 726.80
00006331 00000039 581.82 142.66 495.74 765.65 812.69 420.03 1014.80 456.96 962.56 558.28 806.60 686.05 974.64 715.43
00006332 00000040 584.17 135.21 493.28 753.63 817.32 414.62 1016.16 452.56 962.90 551.18 811.70 675.56 977.76 705.64
00006333 00000041 585.69 128.65 493.45 747.18 820.88 411.68 1018.38 445.45 967.71 547.66 821.43 670.66 985.46 697.06
00006334 00000042 589.17 128.90 493.58 750.06 824.20 413.71 1024.41 445.50 974.03 550.68 826.28 673.13 993.28 697.88
00006335 00000043 592.57 133.81 493.39 757.41 827.04 419.25 1030.10 447.92 981.41 556.28 828.30 681.28 998.43 703.98
00006336 00000044 599.90 146.44 491.40 774.21 838.03 429.43 1034.90 461.86 990.60 569.26 838.35 703.97 996.05 730.26
00006337 00000045 602.28 152.65 490.51 776.58 843.19 442.14 1037.09 468.47 997.87 581.37 840.72 714.61 999.06 736.55
00006338 00000046 603.55 156.60 493.15 771.06 845.91 449.98 1041.05 473.80 1000.50 593.06 840.78 718.38 1002.91 738.42
00006339 00000047 608.29 166.67 492.10 764.36 845.69 455.50 1045.06 475.22 1004.71 598.28 842.67 724.89 1008.99 741.99
00006340 00000048 611.43 179.91 492.88 755.67 853.64 463.82 1047.87 486.87 1006.50 611.94 847.57 731.19 1014.85 750.00
00006341 00000049 618.60 185.32 490.82 752.68 860.41 471.05 1054.24 491.78 1013.61 615.79 857.72 736.49 1022.71 753.68
00006342 00000050 629.36 191.35 485.83 748.00 865.15 475.33 1062.11 492.31 1020.27 617.72 866.81 741.39 1033.37 755.43
00006343 00000051 634.78 200.86 489.67 736.53 873.50 480.55 1068.58 498.58 1026.30 622.31 879.69 743.43 1042.82 758.13
00006344 00000052 645.26 210.36 490.62 737.97 885.55 484.00 1091.60 506.04 1040.67 633.39 893.23 753.80 1059.36 770.51
00006345 00000053 651.32 218.41 491.47 725.11 885.87 495.26 1095.18 523.57 1046.82 638.18 886.70 753.92 1057.09 776.45
00006346 00000054 665.06 215.85 491.80 732.38 898.66 501.30 1106.00 523.90 1056.84 645.91 900.25 762.12 1065.63 780.55
00006347 00000055 675.60 220.96 493.03 730.57 909.63 504.89 1114.13 521.48 1067.95 647.57 916.16 768.23 1079.39 781.99
00006348 00000056 686.17 220.98 494.58 733.94 921.42 506.36 1122.94 525.73 1075.66 648.59 928.83 768.76 1090.16 784.73
00006349 00000057 697.47 224.41 485.12 743.67 929.46 506.32 1126.82 527.65 1081.51 648.06 935.60 773.22 1093.54 791.25
00006350 00000058 704.00 226.08 485.23 753.61 935.46 507.98 1130.38 528.72 1087.94 652.55 936.95 779.16 1094.10 797.17
00006351 00000059 702.32 235.53 494.90 752.40 947.96 508.88 1141.25 534.32 1099.00 660.74 944.51 785.95 1102.99 806.66
00006352 00000060 707.86 234.50 496.27 756.58 950.41 512.39 1144.14 536.69 1099.99 661.24 946.30 788.03 1105.10 808.24
00006353 00000061 709.51 231.09 499.27 754.31 954.43 508.51 1149.59 534.27 1104.95 656.60 950.62 783.15 1110.87 804.66
00006354 00000062 714.25 231.26 497.92 747.96 956.69 507.14 1154.44 531.28 1107.74 652.98 955.27 778.52 1118.18 798.34
00006355 00000063 715.66 229.87 497.45 745.37 957.37 505.41 1156.45 529.59 1108.62 650.85 960.98 777.86 1122.03 797.25
00006356 00000064 712.63 231.10 499.13 746.06 951.19 505.39 1151.88 528.26 1101.48 653.20 953.96 777.66 1117.75 795.96
00006357 00000065 706.27 232.18 499.17 746.56 938.62 507.49 1140.35 529.62 1089.66 652.82 941.25 778.15 1108.90 795.97
00006358 00000066 701.80 233.37 499.71 746.16 928.06 508.62 1131.78 533.76 1074.75 653.58 928.99 776.74 1100.43 796.74
00006359 00000067 701.38 229.70 497.65 752.67 914.74 511.14 1123.60 529.61 1062.02 653.20 918.52 780.90 1090.93 796.76
00006360 00000068 697.52 235.81 496.06 748.92 909.26 511.50 1119.58 528.52 1058.81 652.15 914.96 782.09 1087.26 796.59
00006361 00000069 695.19 233.77 493.83 750.56 904.60 510.97 1114.74 528.50 1054.39 649.14 910.29 780.22 1082.63 794.88
00006362 00000070 691.98 232.09 492.92 751.23 900.24 509.81 1112.01 528.16 1050.34 644.97 904.13 777.70 1079.69 792.79
00006363 00000071 685.83 229.90 493.47 752.61 894.17 508.06 1106.94 525.46 1044.77 638.02 898.61 774.29 1076.56 788.33
00006364 00000072 681.91 227.94 488.42 748.13 888.79 504.29 1102.26 520.48 1039.93 631.94 894.45 767.07 1075.87 779.94
00006365 00000073 677.99 221.86 483.70 734.96 881.03 497.91 1094.62 514.43 1031.43 628.74 886.22 756.12 1068.49 769.25
00006366 00000074 670.31 212.13 485.50 728.63 872.26 493.14 1088.99 508.89 1022.67 623.26 878.54 747.95 1065.19 760.24
00006367 00000075 660.02 209.78 491.22 725.65 859.74 487.57 1084.78 497.17 1013.90 625.19 880.79 752.96 1062.29 759.93
00006368 00000076 653.49 205.62 486.85 722.71 854.79 490.80 1069.74 498.23 1004.69 622.94 867.76 746.93 1052.20 753.80
00006369 00000077 646.39 207.70 488.39 724.63 848.09 494.09 1064.77 502.80 998.56 626.60 858.24 748.20 1045.53 755.79
00006370 00000078 639.21 212.60 492.15 726.67 842.14 497.79 1060.19 505.85 991.63 633.83 850.40 753.43 1039.17 760.11
00006371 00000079 635.24 215.78 492.90 729.41 836.58 500.83 1054.71 508.09 986.09 636.82 845.65 758.92 1033.19 764.76
00006372 00000080 630.42 219.17 492.86 745.33 833.07 502.39 1047.56 511.37 983.37 635.61 841.48 764.12 1026.61 771.30
00006373 00000081 625.84 222.24 492.17 746.46 828.59 503.64 1043.44 513.06 979.64 634.06 838.19 765.87 1022.15 773.41
00006374 00000082 621.08 224.84 491.28 744.24 822.10 503.59 1036.23 513.11 973.85 632.53 833.16 765.76 1016.45 773.32
00006375 00000083 616.99 223.80 487.17 743.92 815.96 501.63 1029.90 511.71 967.87 628.39 827.62 763.60 1010.92 771.51
00006376 00000084 613.24 220.75 484.69 740.74 813.44 497.78 1025.34 509.28 965.68 624.37 822.86 758.92 1006.04 768.08
00006377 00000085 607.95 214.76 483.12 741.61 809.14 495.36 1020.62 506.88 960.47 619.91 818.95 754.45 1002.08 763.41
00006378 00000086 605.27 212.20 482.29 738.80 804.59 493.35 1016.88 503.85 956.06 617.07 814.65 751.23 999.13 759.35
00006379 00000087 602.06 210.17 482.91 740.32 802.89 492.53 1015.82 503.98 954.61 617.92 810.69 749.48 997.91 758.33
00006380 00000088 599.80 209.51 484.89 743.47 802.65 493.49 1015.12 505.89 955.00 620.94 807.90 748.77 996.99 758.44
00006381 00000089 599.77 213.45 484.18 740.68 803.90 495.79 1014.92 507.96 956.98 624.39 808.62 750.04 996.16 759.65
00006382 00000090 599.53 214.26 485.41 742.10 806.00 497.03 1015.81 509.45 959.13 626.19 810.25 751.21 996.53 761.00
00006383 00000091 600.02 214.52 485.00 740.83 808.38 496.61 1016.79 508.52 962.40 624.82 811.92 750.51 997.34 760.01
00006384 00000092 601.29 211.42 483.98 743.37 810.46 495.75 1019.06 506.85 965.39 623.11 813.89 750.60 999.86 759.40
00006385 00000093 602.36 209.85 483.93 745.76 812.61 493.73 1019.46 504.67 966.77 619.12 815.91 749.13 1001.39 757.85
00006386 00000094 601.02 206.03 485.59 747.51 814.24 492.85 1019.93 502.49 968.31 616.95 817.14 748.89 1001.03 756.66
00006387 00000095 602.96 205.99 483.58 744.80 814.34 493.05 1019.74 502.14 968.16 617.30 816.90 747.62 1000.80 755.07
00006388 00000096 602.30 204.76 484.06 744.96 814.73 492.96 1019.88 502.08 968.59 617.33 815.73 746.32 999.97 753.91
00006389 00000097 602.68 204.77 484.19 741.58 813.94 493.13 1019.62 501.01 968.25 617.35 815.90 745.64 1000.24 752.30
00006390 00000098 602.29 205.04 483.78 740.28 813.76 494.27 1019.85 501.29 969.02 618.17 815.83 745.39 1001.39 751.29
00006391 00000099 601.10 206.23 483.63 740.10 814.04 496.38 1020.79 503.18 971.05 620.34 816.12 746.14 1002.76 751.76
00006392 00000100 601.70 208.97 483.78 741.91 815.09 498.03 1022.25 505.77 972.66 623.26 814.87 747.28 1003.25 753.76
00006393 00000101 600.91 211.55 485.26 746.55 816.14 498.14 1022.01 507.67 974.03 625.51 812.35 749.19 1000.74 757.31
00006394 00000102 601.51 213.54 486.11 751.25 817.61 497.95 1022.23 510.54 975.30 626.26 810.78 750.75 998.19 761.43
00006395 00000103 602.04 213.59 486.80 753.00 819.47 497.93 1023.31 510.42 976.98 627.10 811.53 751.58 998.51 762.22
00006396 00000104 602.08 212.72 486.91 751.33 819.19 498.29 1023.95 509.85 976.94 627.09 813.55 751.87 1000.16 761.61
00006397 00000105 601.75 212.11 486.40 747.28 818.22 498.50 1024.44 509.88 975.83 627.18 816.04 752.00 1001.51 761.42
00006398 00000106 601.78 214.26 486.88 738.42 814.42 500.58 1024.62 509.76 972.40 627.95 822.14 753.72 1005.22 760.98
00006399 00000107 602.95 215.10 486.69 732.23 810.62 504.18 1026.20 509.58 970.19 628.82 827.23 755.99 1011.80 759.79
00006400 00000108 605.46 217.13 487.03 732.41 811.60 507.33 1027.18 510.19 971.10 631.07 831.12 759.31 1014.73 761.10
00006401 00000109 607.95 221.55 488.28 734.58 816.58 510.45 1029.05 513.06 976.33 633.44 837.03 764.16 1017.96 765.90
00006402 00000110 612.86 224.78 489.34 736.75 822.07 512.86 1034.69 514.90 982.08 639.03 837.90 766.64 1020.69 768.20
00006403 00000111 618.94 224.47 489.25 738.32 826.60 512.56 1038.78 514.67 986.48 639.18 841.14 766.02 1026.22 767.60
00006404 00000112 620.90 223.28 490.86 737.00 829.04 511.50 1042.82 512.34 990.46 639.56 841.48 764.87 1030.15 765.55
00006405 00000113 623.39 221.56 491.27 735.29 832.98 511.07 1046.41 512.49 993.94 640.02 843.48 763.10 1032.78 764.37
00006406 00000114 625.25 222.50 490.83 739.65 837.31 511.83 1047.26 514.27 996.14 640.51 846.80 762.78 1034.09 764.96
00006407 00000115 622.54 225.17 496.13 740.36 848.59 508.26 1053.30 518.42 1002.79 642.39 853.28 764.08 1035.72 770.67
00006408 00000116 624.74 224.83 497.49 744.26 851.95 510.03 1057.08 523.33 1006.10 645.29 853.85 766.55 1036.64 776.06
00006409 00000117 625.75 223.90 500.74 745.97 854.45 511.46 1061.36 524.76 1008.88 646.78 854.82 767.09 1039.53 776.78
00006410 00000118 627.26 221.93 501.08 749.64 855.69 512.27 1063.21 524.81 1011.52 647.31 854.29 767.18 1040.19 776.53
00006411 00000119 628.14 220.88 502.36 750.55 857.31 511.40 1065.58 523.78 1012.82 646.76 855.77 766.33 1042.20 775.53
00006412 00000120 628.39 222.29 502.21 746.16 857.58 509.96 1067.15 521.98 1013.49 646.01 856.34 764.01 1043.85 772.80
00006413 00000121 633.26 222.23 493.68 732.64 847.75 513.91 1060.33 520.72 1003.53 647.01 851.64 760.94 1040.61 767.04
00006414 00000122 635.14 222.01 492.03 727.58 847.94 514.61 1061.11 520.08 1002.79 647.89 858.39 763.52 1042.76 768.17
CROP_BBOX: 290 0 1498 1080
