Video ID: 	oI-k3rkkw-Y
H: 	1080
W: 	1920
FPS: 	25.0

FRAME INDEX X0 Y0 W H [Landmarks (5 Points)]

00001704 00000000 816.29 253.80 342.70 511.23 959.57 476.16 1093.25 475.25 1056.46 569.63 965.97 633.97 1079.75 636.44
00001705 00000001 816.33 255.57 342.88 509.10 959.07 476.73 1093.36 475.88 1056.02 569.30 965.97 634.26 1079.82 636.75
00001706 00000002 817.13 256.00 343.47 508.72 959.18 475.62 1094.21 475.25 1056.07 569.33 966.25 634.22 1080.14 637.05
00001707 00000003 817.09 255.69 343.17 511.13 959.42 474.15 1092.41 475.30 1054.78 569.82 964.66 633.55 1077.07 637.85
00001708 DELETE   815.97 261.32 343.09 513.43 961.32 475.15 1090.63 479.38 1053.36 573.68 963.04 637.24 1072.25 643.92
00001709 DELETE   817.16 267.69 343.83 515.03 959.31 478.82 1091.89 484.80 1051.01 577.65 961.54 643.95 1073.56 651.29
00001710 DELETE   818.15 268.74 342.67 513.72 956.97 480.75 1092.00 487.13 1049.45 579.24 957.79 645.57 1072.21 653.52
00001711 00000007 814.09 270.97 343.49 516.24 955.65 486.44 1088.21 491.82 1047.33 582.76 955.35 648.94 1068.76 655.83
00001712 DELETE   812.51 276.41 343.24 515.22 952.77 489.64 1085.28 496.80 1043.49 588.43 950.36 650.30 1065.82 658.92
00001713 DELETE   807.71 279.14 344.35 511.84 948.64 491.36 1080.78 499.06 1036.76 588.52 946.53 650.78 1061.18 659.50
00001714 00000010 802.31 280.99 344.40 511.19 944.96 493.49 1076.69 500.75 1031.97 589.85 944.60 652.99 1057.22 661.00
00001715 DELETE   799.10 280.70 346.72 513.96 942.78 494.74 1074.08 502.53 1029.45 592.83 942.37 653.96 1056.15 662.33
00001716 DELETE   794.20 280.10 349.51 514.43 939.66 492.46 1070.23 500.86 1025.20 589.50 940.76 652.08 1053.45 660.73
00001717 00000013 792.38 276.28 350.04 515.98 938.76 487.92 1068.70 494.62 1023.78 586.67 938.97 648.91 1051.26 656.57
00001718 00000014 789.58 271.94 348.64 519.80 935.46 484.65 1065.15 491.10 1021.65 584.31 934.98 646.54 1049.85 653.98
00001719 00000015 786.92 272.32 345.80 517.97 931.39 482.85 1061.57 489.38 1018.35 582.62 931.62 646.40 1046.49 653.77
00001720 00000016 784.61 271.11 345.66 519.80 927.98 482.94 1059.81 488.63 1016.10 584.19 927.80 646.83 1045.10 653.39
00001721 00000017 781.91 269.72 348.31 523.67 926.36 483.42 1058.03 489.66 1014.56 586.12 926.70 649.28 1043.14 656.24
00001722 00000018 780.15 271.87 348.82 523.28 926.38 486.51 1055.95 493.18 1012.70 589.35 925.86 652.70 1038.65 660.21
00001723 DELETE   779.07 272.67 349.35 520.77 925.06 488.39 1055.40 494.63 1010.24 591.90 923.93 654.02 1035.04 661.26
00001724 00000020 779.84 272.69 348.46 517.25 924.27 488.52 1055.84 494.66 1009.76 592.21 923.94 652.11 1037.22 659.11
00001725 00000021 781.58 274.39 346.90 513.87 922.64 489.48 1055.70 493.06 1010.34 592.47 924.56 649.43 1042.74 654.07
00001726 00000022 782.24 275.29 345.40 511.48 922.14 490.74 1056.50 492.33 1011.20 594.23 922.98 649.26 1043.55 652.36
00001727 00000023 782.36 274.97 345.68 511.29 921.44 491.68 1057.31 492.45 1010.78 595.02 923.26 650.03 1044.20 652.61
00001728 00000024 781.67 275.92 345.79 512.45 923.89 490.06 1057.16 493.05 1010.57 596.33 927.16 652.21 1041.15 656.61
00001729 00000025 781.99 275.69 346.72 512.63 927.11 491.82 1058.36 495.83 1012.25 596.50 928.98 655.97 1038.39 661.16
00001730 00000026 782.24 275.21 346.70 516.11 930.23 494.56 1059.48 500.53 1013.91 601.46 929.64 659.53 1037.16 666.30
00001731 00000027 783.65 273.90 346.11 517.37 932.38 495.71 1061.53 502.11 1016.54 600.40 933.15 661.55 1037.38 668.66
00001732 00000028 783.72 271.53 347.59 521.19 934.93 492.07 1061.84 500.26 1017.71 597.57 935.52 663.98 1034.62 672.50
00001733 00000029 783.91 271.78 347.39 525.58 937.32 491.55 1063.29 497.85 1021.40 598.27 937.90 667.29 1035.45 674.31
00001734 00000030 783.72 271.29 347.45 522.37 943.40 490.35 1068.33 493.70 1028.42 595.50 940.56 660.32 1039.26 665.11
00001735 00000031 786.04 264.73 345.36 518.56 950.81 479.52 1077.53 483.72 1038.06 585.78 944.16 646.74 1046.55 652.39
00001736 DELETE   785.65 254.17 345.17 519.15 952.93 461.68 1077.25 466.90 1043.11 568.63 948.50 631.83 1051.38 638.03
00001737 00000033 783.93 243.08 342.82 522.81 951.84 454.38 1078.63 456.10 1048.44 557.18 951.62 629.19 1055.82 632.47
00001738 00000034 781.67 230.25 342.39 526.72 950.71 449.15 1076.99 448.27 1052.44 544.88 955.87 624.03 1059.14 625.53
00001739 00000035 780.16 221.46 340.64 528.28 944.81 447.60 1076.56 444.47 1051.69 538.04 953.18 611.27 1068.16 609.25
00001740 00000036 782.39 217.02 339.12 519.49 945.64 434.75 1078.17 426.67 1052.38 528.69 951.62 602.19 1066.27 597.55
00001741 00000037 781.56 211.72 334.64 517.45 941.61 427.14 1074.50 420.78 1048.93 517.22 949.27 595.01 1063.46 591.82
00001742 00000038 782.40 206.34 329.99 515.73 938.45 417.75 1069.76 411.29 1046.25 504.43 947.65 586.17 1060.89 582.98
00001743 00000039 779.91 203.07 323.42 509.52 935.35 408.99 1061.74 401.06 1043.85 493.61 947.67 577.17 1056.82 572.63
00001744 00000040 776.24 196.39 325.51 515.25 931.06 405.05 1055.39 397.18 1040.87 489.45 943.77 572.52 1053.76 566.33
00001745 00000041 773.12 193.42 324.16 507.74 926.71 402.91 1055.19 393.59 1036.86 486.37 940.90 570.61 1051.70 563.63
00001746 00000042 772.30 192.27 323.77 508.76 924.82 399.55 1053.62 391.97 1035.06 483.61 939.58 569.31 1050.21 563.69
00001747 00000043 776.87 182.06 323.77 534.21 925.79 398.56 1056.39 394.89 1037.86 477.30 929.36 566.09 1055.72 566.13
00001748 00000044 775.31 182.02 324.98 535.46 925.31 399.01 1055.74 394.28 1038.45 477.04 930.13 567.74 1055.91 566.78
00001749 00000045 774.86 181.57 324.94 535.67 924.14 399.23 1054.02 394.01 1037.86 475.82 929.30 567.12 1054.94 565.77
00001750 00000046 774.45 180.17 325.29 536.89 922.35 399.13 1052.71 392.81 1036.24 475.19 929.38 567.66 1055.24 565.29
00001751 00000047 774.16 181.41 325.84 536.34 921.74 399.21 1052.29 392.82 1035.82 475.34 929.28 567.85 1055.62 565.41
00001752 00000048 773.20 181.52 327.19 537.01 920.09 400.59 1051.93 392.90 1034.36 476.17 929.49 570.12 1055.73 566.41
00001753 00000049 772.08 179.28 329.92 542.85 919.58 401.54 1052.14 392.86 1033.94 474.97 931.57 573.38 1056.97 568.57
00001754 00000050 772.36 177.55 330.63 547.75 921.28 402.38 1053.96 393.56 1036.07 476.34 933.25 574.40 1059.98 569.30
00001755 00000051 774.09 178.24 329.52 548.46 923.20 404.42 1056.22 394.56 1037.95 477.21 936.44 578.73 1061.17 572.58
00001756 00000052 776.47 182.77 327.04 543.88 925.59 405.02 1056.04 393.77 1039.06 479.88 940.77 583.24 1059.40 576.04
00001757 00000053 778.87 187.40 326.21 545.26 927.77 404.84 1058.12 396.87 1039.77 482.28 940.20 586.10 1058.98 581.48
00001758 00000054 779.32 188.79 327.64 540.92 929.52 407.99 1060.00 397.41 1041.22 484.63 941.67 585.71 1060.78 578.77
00001759 00000055 779.44 188.90 328.74 538.40 931.46 408.79 1062.41 398.72 1043.25 485.67 942.58 583.98 1062.52 577.50
00001760 00000056 780.62 186.76 327.96 538.62 931.92 407.90 1062.93 397.74 1043.57 485.77 943.98 583.88 1062.54 577.53
00001761 00000057 781.73 187.08 326.84 540.77 932.85 405.40 1063.43 397.53 1043.05 484.95 943.11 584.37 1061.04 580.05
00001762 00000058 781.69 186.07 329.15 543.05 933.63 405.93 1065.84 398.44 1044.63 486.75 941.76 582.32 1064.51 578.31
00001763 00000059 783.01 187.84 328.06 540.87 932.87 406.33 1066.39 401.77 1043.04 489.11 937.18 577.62 1063.53 576.29
00001764 00000060 778.02 190.87 325.56 514.53 929.27 403.64 1059.21 393.88 1038.44 487.40 946.62 571.70 1058.57 565.91
00001765 00000061 778.31 189.20 326.09 510.11 928.96 402.77 1059.62 392.07 1037.51 487.17 949.28 569.66 1060.39 563.09
00001766 00000062 778.56 190.27 326.38 509.56 929.91 401.66 1059.39 392.72 1038.20 485.18 950.24 569.21 1060.05 563.99
00001767 00000063 777.91 189.99 327.59 517.51 932.04 401.84 1058.96 393.25 1039.73 485.43 953.52 572.87 1059.30 568.15
00001768 00000064 779.48 190.93 328.58 518.45 932.16 402.79 1060.08 393.22 1039.64 486.38 955.07 575.20 1061.72 569.60
00001769 00000065 782.91 191.51 328.36 525.79 934.71 402.55 1057.89 400.18 1034.58 491.36 951.04 573.98 1058.58 573.24
00001770 00000066 786.27 194.70 329.53 527.69 935.50 407.25 1060.68 406.16 1036.62 492.19 948.16 576.29 1061.10 576.66
00001771 00000067 787.79 194.52 330.34 530.68 937.49 409.78 1064.84 409.40 1039.72 495.50 949.30 577.91 1065.44 578.73
00001772 00000068 790.79 198.40 331.05 531.24 942.85 413.80 1070.26 414.89 1044.13 498.62 951.72 578.90 1068.99 581.02
00001773 00000069 796.01 198.47 333.29 534.17 946.74 417.85 1076.43 418.64 1049.26 502.23 957.16 583.10 1074.90 584.82
00001774 00000070 798.07 198.91 336.55 534.77 951.08 418.04 1081.63 416.92 1054.90 505.40 963.16 585.98 1079.13 586.18
00001775 00000071 801.33 203.82 335.84 540.68 954.73 417.90 1081.84 416.76 1060.89 504.78 964.33 587.68 1084.44 588.23
00001776 00000072 805.36 205.27 331.99 537.15 954.63 419.10 1082.96 417.09 1062.71 507.14 965.01 588.40 1085.31 588.48
00001777 00000073 805.68 207.51 333.63 530.49 955.07 421.26 1084.76 417.32 1064.05 508.30 965.10 587.04 1087.08 585.90
00001778 00000074 807.04 207.89 332.20 518.91 955.59 421.21 1086.45 415.71 1062.46 508.18 966.00 584.96 1083.21 582.62
00001779 00000075 808.58 201.98 331.21 517.01 956.65 419.74 1088.45 415.21 1063.62 504.36 969.35 583.38 1082.82 581.65
00001780 00000076 810.78 197.49 331.26 517.02 959.40 415.70 1090.08 412.55 1066.60 497.19 972.28 578.23 1084.69 577.72
00001781 00000077 814.52 193.53 330.82 515.56 962.51 409.15 1094.01 407.91 1070.22 491.38 976.05 574.28 1087.69 575.43
00001782 00000078 815.73 190.94 331.53 517.99 964.35 407.00 1096.47 408.79 1073.19 489.07 976.30 571.27 1090.02 574.99
00001783 00000079 814.93 190.84 334.63 526.07 967.88 404.90 1099.40 408.23 1076.72 490.01 978.06 573.15 1093.26 577.77
00001784 00000080 816.19 192.57 334.55 529.58 968.64 405.39 1100.73 409.11 1078.08 491.82 976.78 574.51 1095.50 579.51
00001785 00000081 814.94 193.98 335.49 528.14 967.28 405.57 1100.03 412.61 1076.55 491.13 971.20 571.31 1092.06 579.23
00001786 00000082 815.15 195.69 335.64 527.71 968.34 406.70 1100.61 413.92 1077.03 492.06 971.81 572.08 1093.34 580.07
00001787 00000083 814.45 196.06 337.85 531.82 970.43 408.01 1101.19 414.35 1079.15 493.88 973.58 575.45 1095.02 582.68
00001788 00000084 815.28 199.71 338.82 532.25 971.13 410.39 1102.49 414.11 1082.42 494.49 973.69 578.09 1098.52 583.28
00001789 00000085 814.94 201.42 339.62 537.04 973.22 411.61 1102.77 415.17 1085.47 496.65 972.09 579.50 1098.60 584.76
00001790 00000086 816.75 203.28 338.41 540.86 973.94 412.59 1104.90 415.34 1087.65 499.21 971.00 583.50 1100.43 588.26
00001791 00000087 817.60 204.35 338.88 540.89 976.59 413.47 1106.15 415.91 1090.55 501.01 969.39 581.95 1100.51 586.92
00001792 00000088 820.20 208.89 337.95 532.39 978.32 413.37 1108.63 417.95 1089.94 503.23 970.99 580.29 1102.44 586.93
00001793 00000089 820.47 208.49 338.56 528.69 979.69 414.05 1109.36 418.19 1090.55 502.91 974.34 579.02 1103.46 585.06
00001794 00000090 820.65 205.14 337.68 520.43 981.79 413.00 1110.10 416.89 1091.58 500.21 980.07 576.91 1100.08 582.52
00001795 00000091 822.01 202.65 335.95 515.73 978.63 411.99 1108.74 416.01 1087.58 498.59 980.40 573.68 1099.42 579.28
00001796 00000092 821.76 199.89 335.24 513.86 976.60 411.33 1108.12 414.61 1085.82 495.96 980.86 572.21 1098.84 577.13
00001797 00000093 820.33 200.02 335.66 513.46 975.41 411.19 1106.21 412.88 1084.33 497.19 980.86 573.69 1097.51 577.23
00001798 00000094 816.69 195.84 336.53 519.26 972.36 412.21 1102.64 412.09 1081.24 496.97 980.45 576.42 1095.40 578.31
00001799 00000095 815.52 196.34 335.13 526.90 969.62 415.14 1099.46 410.88 1080.21 498.22 982.41 583.77 1097.81 582.10
00001800 00000096 814.26 200.90 334.73 531.19 967.78 418.03 1096.63 412.37 1078.56 500.72 980.37 587.62 1097.84 584.48
00001801 00000097 812.62 204.35 334.25 533.72 963.05 420.74 1091.56 413.53 1072.74 504.92 975.19 589.93 1094.40 585.43
00001802 00000098 809.34 205.17 335.07 534.58 958.78 424.46 1087.81 416.49 1067.77 510.15 971.28 591.82 1090.48 586.79
00001803 00000099 807.30 205.51 334.67 531.83 954.60 423.57 1084.86 417.04 1062.95 510.27 966.35 589.56 1086.35 586.03
00001804 00000100 805.84 201.13 334.24 535.00 950.94 420.63 1084.81 417.04 1059.88 505.42 961.59 586.44 1084.03 585.33
00001805 00000101 807.66 200.36 332.44 536.05 950.54 417.56 1085.08 415.32 1059.38 503.88 960.17 584.43 1083.79 584.44
00001806 00000102 807.94 200.20 334.10 536.82 954.82 417.38 1086.91 416.92 1062.72 504.54 962.65 583.75 1084.87 585.12
00001807 00000103 809.69 205.19 333.76 536.93 956.41 420.46 1089.56 418.87 1066.61 506.48 965.96 587.64 1091.91 587.67
00001808 00000104 810.86 208.18 333.65 539.43 958.48 425.37 1089.64 421.81 1068.21 511.22 967.54 592.78 1093.28 591.10
00001809 00000105 809.95 216.18 332.10 533.26 957.53 430.77 1088.59 424.82 1067.62 515.44 966.97 597.72 1091.74 594.38
00001810 00000106 807.42 217.91 331.86 533.25 955.46 435.71 1084.57 427.46 1064.57 518.43 966.30 600.12 1089.03 594.91
00001811 00000107 805.14 217.04 333.75 531.24 954.26 432.41 1084.31 426.06 1062.84 517.25 964.99 597.46 1087.74 593.59
00001812 00000108 801.61 208.21 336.19 532.70 951.70 426.47 1083.55 424.27 1058.57 510.05 961.20 591.58 1082.08 591.28
00001813 00000109 800.55 204.94 337.58 533.14 951.80 420.36 1084.98 420.87 1058.17 505.64 958.66 585.82 1081.39 587.81
00001814 00000110 800.97 202.34 336.47 531.46 950.29 417.67 1084.36 418.37 1056.44 503.06 956.78 582.50 1079.68 584.90
00001815 00000111 804.26 200.66 332.84 527.31 950.86 414.86 1084.73 415.52 1056.35 500.51 957.35 578.58 1079.11 581.22
00001816 00000112 804.51 199.26 333.67 535.27 953.21 413.14 1086.27 415.91 1060.28 499.17 957.14 578.51 1082.19 582.85
00001817 00000113 804.20 202.05 335.29 541.03 954.08 413.16 1086.71 416.50 1062.14 501.29 955.77 580.25 1083.95 584.93
00001818 00000114 802.40 203.01 337.08 538.16 952.54 416.53 1086.56 418.36 1061.55 503.86 955.58 582.90 1082.00 586.43
00001819 DELETE   802.46 204.27 335.16 525.02 951.04 422.38 1085.13 419.78 1058.11 505.09 957.25 583.01 1078.27 583.16
00001820 00000116 799.95 200.15 334.47 516.18 950.77 422.72 1082.39 417.91 1054.46 503.95 961.26 580.56 1074.20 578.74
00001821 00000117 798.13 193.42 334.03 515.18 948.89 415.69 1078.56 410.34 1050.76 497.27 961.12 574.37 1069.69 572.17
00001822 00000118 795.23 184.42 332.76 525.10 948.20 406.85 1076.56 402.59 1050.74 492.27 962.91 571.66 1069.65 570.08
00001823 00000119 794.04 182.53 330.47 523.47 946.98 403.77 1073.70 399.20 1048.96 488.67 962.60 569.26 1067.55 567.42
00001824 00000120 792.52 185.56 330.29 513.30 947.48 404.60 1077.55 395.30 1055.82 488.36 965.67 571.93 1074.70 566.27
00001825 00000121 792.32 184.90 329.06 513.41 947.25 403.89 1077.40 394.48 1056.43 487.55 967.61 572.08 1075.43 566.32
00001826 00000122 791.56 185.22 329.59 513.02 947.22 403.37 1076.86 394.12 1056.08 487.38 967.91 572.18 1074.77 566.52
00001827 00000123 789.47 186.97 329.24 516.48 948.07 404.85 1075.18 394.31 1055.86 488.73 968.51 573.93 1073.44 567.44
00001828 00000124 787.36 187.48 330.92 529.43 949.32 405.06 1071.96 399.89 1050.31 493.80 962.82 575.86 1066.08 573.02
00001829 00000125 785.27 194.11 329.93 531.34 945.78 416.29 1068.17 411.15 1048.33 498.07 958.43 581.73 1064.99 579.39
CROP_BBOX: 532 0 1400 921
