Video ID: 	CKvSUv10sUQ
H: 	1080
W: 	1920
FPS: 	23.976023976023978

FRAME INDEX X0 Y0 W H [Landmarks (5 Points)]

00001816 00000000 587.49 228.20 421.81 589.78 720.52 483.58 922.06 484.57 833.30 617.22 725.06 683.57 883.28 687.15
00001817 00000001 582.30 227.52 422.23 589.60 716.59 482.21 918.02 483.85 829.97 615.11 720.72 683.18 877.61 687.52
00001818 00000002 578.28 225.18 423.16 590.10 713.86 481.79 916.08 482.82 827.84 613.80 717.96 681.86 875.99 685.73
00001819 00000003 577.27 223.70 421.47 591.07 711.28 480.58 914.38 481.83 826.27 612.22 715.68 681.22 874.83 685.27
00001820 00000004 576.75 222.19 420.70 592.31 709.66 479.63 913.10 481.09 824.45 611.48 714.32 681.53 872.99 685.73
00001821 00000005 576.01 223.10 420.31 590.06 709.78 481.30 913.55 482.08 825.25 611.89 714.52 681.47 874.01 685.06
00001822 DELETE   574.48 220.62 421.63 592.31 712.88 481.97 919.82 482.84 831.32 610.80 717.47 681.26 877.80 684.93
00001823 DELETE   575.29 222.73 421.47 589.31 715.21 481.80 921.89 479.46 834.71 610.28 722.11 681.21 882.61 682.29
00001824 00000008 577.22 219.02 422.46 594.63 716.10 477.28 923.43 469.95 838.30 607.86 728.04 681.56 889.25 678.41
00001825 00000009 576.27 212.26 420.25 591.93 713.31 468.56 915.58 461.38 841.52 610.81 741.27 690.46 896.86 683.30
00001826 00000010 579.30 211.89 416.89 588.89 712.53 463.80 919.65 457.56 843.15 609.79 743.38 690.82 900.20 684.53
00001827 00000011 580.12 211.47 416.25 592.33 713.39 462.29 919.31 456.43 842.91 608.81 744.49 690.49 899.84 684.37
00001828 00000012 579.94 211.28 416.58 595.66 713.82 462.04 918.85 456.39 842.65 607.51 744.21 690.32 899.60 684.40
00001829 00000013 580.41 211.43 416.15 594.56 712.71 462.88 918.78 457.17 841.46 609.05 742.34 689.23 900.05 683.28
00001830 00000014 580.23 211.64 415.78 591.18 711.95 462.60 917.84 457.39 840.44 607.94 740.56 687.48 898.66 682.02
00001831 00000015 580.31 208.41 416.06 595.79 710.66 461.02 917.10 454.95 840.02 606.06 740.50 688.52 898.42 682.11
00001832 00000016 581.55 203.40 415.58 602.68 711.57 454.17 918.51 449.89 842.01 599.24 741.53 686.15 897.58 681.21
00001833 00000017 581.56 197.90 413.07 598.56 711.97 450.06 917.65 444.52 843.49 595.30 742.12 678.95 898.20 673.05
00001834 00000018 579.72 197.22 414.56 595.15 709.36 449.12 917.30 443.12 841.51 594.46 738.22 674.97 899.92 668.90
00001835 00000019 576.99 196.68 416.17 601.03 708.45 448.41 913.98 442.67 839.54 591.55 736.28 675.24 896.63 669.40
00001836 00000020 574.27 191.69 417.33 606.75 704.97 443.65 910.17 438.46 836.12 586.61 733.15 673.31 893.29 667.79
00001837 00000021 571.87 190.93 417.52 603.35 702.30 443.51 906.65 438.05 833.20 584.58 730.85 670.08 892.76 664.43
00001838 00000022 571.44 192.00 416.89 603.63 700.62 445.26 904.38 441.51 829.28 587.07 729.22 671.76 890.03 667.46
00001839 00000023 570.59 190.40 416.61 605.24 699.87 446.55 903.35 443.54 827.83 588.00 732.13 678.34 884.84 674.07
00001840 00000024 572.66 188.37 413.00 606.29 699.17 442.65 904.59 438.42 828.35 584.95 737.02 681.56 883.70 675.88
00001841 00000025 573.79 186.37 411.50 611.40 699.28 441.47 903.97 436.50 828.07 582.71 739.09 684.54 881.76 678.31
00001842 00000026 573.23 187.45 412.73 610.00 699.18 441.12 903.72 436.36 827.71 583.44 738.63 683.82 881.37 677.70
00001843 00000027 572.16 187.31 413.92 612.56 698.69 441.39 902.84 437.14 827.34 582.96 735.86 684.80 880.94 679.09
00001844 00000028 573.09 186.15 414.60 614.51 701.05 440.88 904.35 436.20 829.80 582.90 737.13 683.32 883.03 677.39
00001845 00000029 574.70 183.58 416.01 609.94 701.80 439.66 910.02 434.99 832.31 583.91 736.66 679.06 888.13 673.39
00001846 00000030 576.27 184.91 417.23 609.15 703.65 438.15 914.42 433.81 836.45 584.78 737.57 677.44 890.68 672.58
00001847 00000031 577.71 180.26 417.98 610.76 705.31 437.58 916.48 432.46 838.47 584.24 739.75 675.27 892.93 669.99
00001848 00000032 580.67 178.05 415.92 609.35 706.43 435.73 919.20 430.23 839.09 582.95 738.82 672.28 895.09 667.25
00001849 00000033 582.16 177.09 420.89 621.90 714.14 427.72 925.28 423.38 842.27 569.34 738.44 663.24 902.51 661.58
00001850 00000034 585.71 178.06 421.16 620.66 717.71 424.51 927.73 419.48 846.23 566.06 742.96 661.97 906.66 659.67
00001851 00000035 589.33 177.24 422.50 613.97 723.51 425.32 930.56 417.80 851.52 565.85 752.08 659.74 911.05 655.25
00001852 00000036 592.09 178.37 423.86 608.09 727.33 423.32 934.07 415.58 855.33 563.97 756.20 657.26 916.49 652.07
00001853 00000037 596.06 178.54 423.39 604.08 731.22 421.46 938.21 414.02 859.47 562.77 760.01 657.16 919.53 651.97
00001854 00000038 599.98 178.44 422.52 605.43 735.39 419.85 941.73 413.55 864.07 562.04 764.07 658.01 922.94 653.56
00001855 00000039 603.14 178.88 421.24 605.88 738.67 419.41 943.85 414.31 867.51 562.54 766.89 659.01 923.76 655.69
00001856 00000040 604.61 179.51 419.30 605.04 741.01 420.31 944.77 414.79 870.09 563.31 769.79 660.32 924.40 656.73
00001857 00000041 605.24 178.44 419.21 609.72 742.43 421.24 947.20 416.59 872.54 564.75 770.12 661.60 924.66 658.86
00001858 00000042 606.35 177.24 418.79 612.39 743.01 422.41 947.79 418.68 872.77 566.24 770.04 662.11 924.18 660.18
00001859 00000043 606.26 178.88 418.27 613.71 742.68 423.28 948.03 420.51 872.45 567.56 768.34 662.64 923.04 661.77
00001860 00000044 606.09 178.03 418.35 615.46 741.99 423.07 947.12 420.23 871.43 567.41 767.60 662.66 922.10 661.81
00001861 00000045 605.95 176.97 418.17 614.43 741.34 421.86 945.31 418.85 870.18 565.67 767.49 661.78 921.48 660.67
00001862 00000046 605.58 177.51 418.03 612.61 741.40 420.71 943.90 417.62 869.43 564.27 768.37 661.15 920.89 659.84
00001863 00000047 605.57 177.73 418.03 612.29 740.73 419.77 943.44 416.41 868.88 563.63 767.34 660.47 920.31 658.93
00001864 00000048 604.70 176.61 418.68 612.76 740.06 417.73 942.35 415.85 867.01 562.17 765.41 658.83 918.00 658.60
00001865 00000049 603.19 178.96 418.71 611.50 737.85 415.68 940.86 413.54 865.20 561.30 763.57 657.53 917.19 657.11
00001866 00000050 602.54 177.48 418.50 612.50 736.72 414.99 939.59 412.94 864.02 559.68 762.90 657.30 915.79 656.95
00001867 00000051 601.52 174.73 418.39 618.12 735.27 413.23 937.74 410.82 863.06 557.59 762.51 656.78 914.79 656.16
00001868 00000052 600.60 174.68 418.48 616.01 733.89 410.96 935.89 406.77 862.37 554.95 762.89 655.80 914.78 653.50
00001869 00000053 598.51 171.89 417.57 608.59 731.56 410.60 932.66 403.58 860.02 553.51 763.63 656.62 914.36 651.52
00001870 00000054 593.49 167.70 420.25 612.80 727.08 409.80 928.24 402.60 853.18 552.44 758.91 653.56 908.83 648.71
00001871 00000055 586.98 163.76 421.29 613.31 720.93 405.99 923.40 397.26 849.10 551.95 757.05 653.44 906.50 647.24
00001872 00000056 582.37 160.93 414.03 609.40 714.80 411.50 917.15 401.88 842.44 556.03 755.50 657.13 902.57 647.55
00001873 00000057 578.09 160.62 415.61 607.59 710.61 412.90 914.84 403.40 839.05 556.06 750.39 655.44 900.66 646.01
00001874 00000058 574.25 157.95 416.68 605.56 710.11 427.64 911.22 415.17 836.39 559.59 749.05 657.01 898.35 644.89
00001875 00000059 571.08 160.05 418.34 609.55 706.92 429.72 910.19 417.49 834.29 562.10 745.74 659.75 897.06 647.88
00001876 00000060 569.65 160.98 414.80 614.64 700.85 427.51 900.71 413.66 826.70 562.17 743.51 661.86 892.26 648.76
00001877 00000061 562.11 164.85 418.24 611.72 692.17 423.14 892.88 408.62 817.53 560.35 734.82 656.78 886.68 643.36
00001878 00000062 552.48 162.66 422.17 612.31 680.82 418.65 883.43 405.05 806.38 556.57 724.33 650.77 878.52 638.08
00001879 00000063 549.35 167.04 419.47 608.91 674.99 418.85 877.78 407.13 800.54 556.24 715.57 650.54 871.09 639.77
00001880 00000064 547.19 169.12 419.66 610.26 671.96 420.97 875.53 410.86 795.90 560.26 711.37 653.32 867.94 644.00
00001881 00000065 545.95 174.30 419.81 610.65 672.24 423.05 877.70 415.05 796.41 566.55 709.57 655.96 867.16 648.72
00001882 00000066 545.88 176.78 420.95 615.67 672.46 426.40 878.38 420.76 796.49 571.03 705.10 660.41 862.35 655.65
00001883 00000067 545.31 177.57 421.90 617.81 671.70 426.72 877.92 421.87 795.40 572.58 703.60 662.97 860.03 658.95
00001884 00000068 546.91 178.64 419.91 613.87 672.15 423.83 877.18 419.37 794.83 569.79 706.31 661.58 860.62 657.50
00001885 00000069 547.03 174.58 421.05 613.89 671.69 420.34 875.58 415.72 793.51 562.63 706.03 657.59 861.79 653.11
00001886 00000070 547.17 167.24 422.20 614.59 671.60 412.97 874.43 408.18 793.29 554.90 706.12 650.58 861.83 645.63
00001887 00000071 549.01 161.01 422.52 614.96 671.92 407.78 876.07 403.26 794.51 549.56 706.43 646.31 865.63 641.10
00001888 00000072 550.49 156.22 422.62 615.10 671.01 403.11 876.03 397.99 793.72 542.88 706.91 643.34 864.64 637.43
00001889 00000073 551.63 154.16 423.03 617.80 672.51 400.53 877.39 396.32 794.15 538.76 705.03 640.82 864.02 635.63
00001890 00000074 553.34 150.86 424.04 618.81 674.40 398.38 879.76 394.99 794.97 537.59 706.79 638.92 864.83 634.26
00001891 00000075 556.08 146.34 426.06 620.65 677.70 395.01 883.25 393.61 796.88 534.48 709.66 637.44 865.66 634.27
00001892 00000076 559.32 145.60 426.78 618.26 681.10 394.12 886.81 394.22 798.42 529.61 713.43 635.03 868.87 632.86
00001893 00000077 563.83 144.51 424.74 615.36 685.55 392.48 889.53 394.58 799.78 526.39 714.48 632.35 869.02 631.76
00001894 00000078 567.75 139.24 423.42 620.06 690.01 390.86 893.99 392.19 804.50 526.01 718.86 632.61 873.04 631.18
00001895 00000079 571.62 139.87 421.34 620.71 692.77 389.13 897.19 390.37 807.43 525.10 721.15 632.67 874.70 631.42
00001896 00000080 577.09 140.03 417.79 619.05 696.53 388.65 901.01 390.32 810.82 523.94 724.14 632.05 876.69 631.42
00001897 00000081 582.12 139.97 416.32 620.50 700.94 386.68 905.93 388.70 814.91 522.77 728.45 631.90 879.98 631.91
00001898 00000082 586.56 140.08 414.53 619.33 706.31 387.30 910.36 389.28 818.93 522.52 732.80 631.51 883.08 631.66
00001899 00000083 592.59 146.96 416.31 612.84 712.06 381.13 918.39 387.47 826.74 519.89 732.14 626.97 882.27 632.44
00001900 00000084 597.77 147.64 414.09 610.42 717.26 381.15 921.90 385.78 832.77 520.55 739.21 628.30 886.64 632.11
00001901 00000085 603.50 143.90 411.89 611.54 723.28 380.14 925.95 386.06 837.94 520.78 745.46 625.23 890.52 629.97
00001902 00000086 607.18 140.45 416.66 609.41 726.68 380.94 927.93 389.34 837.07 522.37 744.58 614.17 893.16 622.35
00001903 00000087 607.41 142.73 418.07 604.30 729.97 380.69 933.07 388.74 842.69 523.74 746.87 611.21 898.29 619.10
00001904 00000088 607.02 143.39 420.41 609.04 730.83 380.17 935.94 388.29 846.10 522.19 746.92 612.29 901.96 620.20
00001905 00000089 608.45 143.84 419.82 615.78 733.51 379.10 938.83 387.66 850.15 522.74 749.66 615.55 904.77 623.81
00001906 00000090 605.44 148.57 419.53 614.57 731.97 377.99 941.99 384.04 855.64 520.30 753.33 625.38 911.51 629.75
00001907 00000091 606.85 146.60 420.73 622.44 735.67 379.83 945.72 387.05 858.69 520.81 754.49 626.25 913.75 631.80
00001908 00000092 607.60 149.80 422.35 624.84 739.27 383.00 948.87 391.10 863.75 522.36 755.88 628.68 917.40 635.13
00001909 00000093 609.01 148.45 422.77 627.73 743.57 386.70 950.62 392.02 869.79 527.49 762.07 632.67 922.79 636.64
00001910 00000094 610.70 146.54 422.17 632.07 745.93 388.37 952.59 393.70 872.56 529.81 764.74 633.48 925.28 637.37
00001911 00000095 611.83 150.85 421.89 627.16 746.70 391.27 952.54 394.67 873.50 533.75 767.21 635.13 927.67 637.52
00001912 00000096 612.90 150.99 422.28 623.11 749.25 395.04 954.09 398.15 875.26 536.36 769.93 636.48 928.83 638.53
00001913 00000097 614.18 152.86 422.44 621.44 752.44 397.15 956.46 399.69 879.33 538.74 774.09 639.87 932.72 641.24
00001914 00000098 614.39 152.02 423.64 629.14 755.89 396.82 957.50 399.89 881.71 539.70 775.87 641.06 931.98 643.11
00001915 00000099 615.97 153.58 422.45 622.81 760.21 395.47 960.36 399.37 885.98 537.86 780.47 641.65 933.89 644.14
00001916 00000100 619.32 148.83 422.44 624.30 766.23 392.33 964.85 396.68 891.93 535.74 787.14 640.66 937.49 643.22
00001917 00000101 624.57 143.03 422.61 625.27 773.13 391.33 969.68 397.03 898.47 534.88 794.67 640.09 941.58 643.28
00001918 00000102 629.99 140.82 420.27 624.55 779.38 392.42 975.21 397.33 906.11 534.60 801.42 639.70 947.77 642.07
00001919 00000103 637.82 135.74 415.82 636.23 789.95 393.65 981.09 398.22 915.50 542.99 810.06 644.37 952.43 646.37
00001920 00000104 643.26 145.80 416.12 634.72 797.78 396.94 989.71 405.33 921.54 548.78 811.97 647.73 957.47 653.42
00001921 00000105 649.30 153.30 413.46 626.96 804.08 402.95 995.51 413.51 927.42 551.05 814.00 648.65 959.83 656.66
00001922 00000106 652.11 153.54 414.87 625.25 809.31 408.74 1000.56 418.81 933.32 554.99 817.81 648.87 963.95 656.71
00001923 00000107 660.04 157.19 408.62 622.91 817.93 406.42 1009.08 420.32 942.50 551.76 815.29 641.62 968.78 654.38
00001924 00000108 663.42 157.29 408.66 620.65 826.30 405.22 1016.61 418.88 951.15 551.85 822.03 643.97 972.79 656.24
00001925 00000109 665.81 133.51 413.10 647.85 835.13 416.41 1020.94 429.76 958.11 551.09 828.29 642.85 973.19 654.88
00001926 00000110 667.88 138.14 415.16 647.11 838.29 417.84 1023.64 427.47 963.83 549.80 835.71 645.59 980.65 654.48
00001927 00000111 670.09 140.09 414.15 649.60 843.39 417.82 1024.41 426.62 969.73 550.25 842.34 648.07 983.47 656.31
00001928 00000112 668.40 135.15 419.08 671.92 846.61 424.25 1026.43 432.61 977.26 555.33 840.93 653.84 986.66 661.82
00001929 DELETE   669.63 148.24 418.39 660.72 854.27 426.94 1029.43 434.65 983.64 559.87 846.39 657.75 986.34 666.11
00001930 DELETE   670.31 159.61 418.28 654.77 851.68 435.40 1034.93 442.75 985.92 568.13 840.91 664.34 985.91 673.03
00001931 00000115 671.95 170.76 416.90 656.73 850.87 445.20 1036.67 451.24 988.32 577.24 842.00 672.34 990.12 679.88
00001932 DELETE   675.03 174.26 415.56 661.56 851.72 450.78 1035.27 461.80 986.77 582.92 836.67 674.27 987.84 685.63
00001933 00000117 675.45 180.33 415.08 660.42 846.82 450.92 1031.76 462.27 981.84 584.69 836.06 676.58 989.13 687.91
00001934 00000118 673.38 182.96 417.21 659.74 847.55 450.79 1030.41 460.99 983.64 585.58 836.64 677.38 988.67 687.93
00001935 00000119 672.47 178.05 415.65 661.68 844.81 444.05 1030.17 456.81 982.52 580.34 837.48 675.24 989.89 687.79
00001936 00000120 671.91 177.82 413.33 647.33 840.69 440.24 1028.80 448.88 979.78 576.15 839.20 670.41 990.11 679.82
00001937 00000121 670.29 164.38 411.57 647.39 837.87 438.17 1028.23 444.64 973.96 571.96 839.22 666.13 990.79 673.22
00001938 00000122 667.29 168.93 411.33 638.33 832.18 434.69 1025.83 441.60 968.09 567.36 834.51 662.36 990.12 670.09
00001939 00000123 660.62 171.46 412.18 630.42 829.16 443.79 1022.39 447.65 962.50 566.46 830.69 660.45 985.94 665.94
00001940 00000124 653.79 176.91 411.19 623.86 818.60 445.11 1012.44 448.54 951.74 565.00 824.01 659.16 980.99 664.58
00001941 00000125 646.13 182.96 410.78 616.22 804.01 444.62 999.87 448.95 933.65 563.59 813.92 656.99 970.38 663.06
00001942 00000126 636.35 183.35 413.35 613.94 794.75 453.51 982.52 453.53 917.02 577.19 809.81 670.00 956.62 669.59
00001943 00000127 628.62 191.05 416.64 608.94 783.77 455.79 973.36 454.69 908.46 580.13 801.67 672.19 947.99 671.25
00001944 00000128 627.26 193.32 416.60 605.34 778.61 457.76 969.90 457.88 902.86 583.69 797.13 674.16 941.35 674.50
00001945 00000129 622.51 194.11 417.34 606.97 772.75 458.68 965.56 460.92 896.12 586.28 786.74 673.82 933.17 676.34
00001946 00000130 620.74 198.94 417.11 601.97 768.63 459.46 962.30 462.97 889.47 590.02 782.10 675.01 928.12 678.95
00001947 00000131 618.43 201.63 417.69 600.27 765.86 460.23 959.70 464.02 886.17 592.90 779.86 675.14 926.07 679.30
00001948 00000132 615.44 206.38 419.48 596.04 762.68 460.51 957.32 465.28 881.50 595.17 775.22 673.99 923.24 679.11
00001949 00000133 614.69 203.34 417.70 602.55 759.22 461.92 954.64 466.89 878.21 594.83 770.24 673.82 922.02 679.02
00001950 00000134 613.06 203.22 418.74 607.40 756.31 462.34 951.86 466.36 874.99 594.43 767.93 675.88 919.84 680.41
00001951 00000135 610.38 203.52 419.22 610.28 752.82 462.61 950.02 466.23 872.55 594.20 764.06 677.22 916.56 681.76
00001952 00000136 609.16 203.69 418.13 607.21 750.94 462.75 948.98 464.35 872.24 595.79 763.28 677.01 916.70 680.04
00001953 00000137 609.41 205.96 416.12 602.91 748.80 455.93 946.76 454.80 872.22 595.18 764.88 675.65 917.01 676.69
00001954 00000138 608.87 201.54 416.31 605.68 746.18 443.88 946.16 446.83 871.56 588.18 762.46 671.01 916.21 675.24
00001955 00000139 607.26 199.47 416.03 606.43 744.16 440.25 944.34 442.34 870.87 583.64 761.49 670.16 914.37 673.84
00001956 00000140 607.40 192.28 414.64 612.32 742.88 437.81 943.62 439.47 870.26 580.28 762.37 669.58 914.78 672.87
00001957 00000141 607.06 189.11 414.05 615.68 742.16 433.99 943.16 436.94 868.91 576.17 762.95 668.48 914.41 672.78
00001958 00000142 605.77 190.08 414.78 616.95 741.14 430.00 942.99 433.04 867.93 572.66 762.86 668.03 914.53 672.49
00001959 00000143 606.67 188.07 412.87 620.46 741.41 425.28 942.40 430.65 868.28 566.67 764.24 668.72 913.30 675.00
00001960 00000144 607.98 186.27 411.29 622.77 742.31 421.89 943.97 427.93 870.97 562.58 767.38 669.12 915.74 675.80
00001961 00000145 607.89 182.64 410.02 624.33 743.09 419.85 942.99 425.56 872.24 560.54 768.81 668.07 915.37 674.47
00001962 00000146 606.40 183.98 410.81 617.10 744.09 417.99 942.90 423.04 873.38 557.74 770.09 665.72 916.28 671.44
00001963 00000147 605.84 181.98 412.23 615.01 745.80 414.74 942.89 418.04 875.46 554.83 771.85 661.16 920.12 665.09
00001964 00000148 606.26 177.52 412.57 617.07 745.24 411.83 942.62 413.94 875.30 551.44 770.59 655.30 922.86 657.95
00001965 00000149 606.36 173.08 413.01 621.51 744.67 409.22 942.18 409.81 877.18 548.18 770.33 651.46 927.68 652.51
00001966 00000150 605.99 170.14 413.59 624.16 744.49 406.14 941.89 407.31 876.88 544.14 769.09 648.93 927.63 650.31
00001967 00000151 605.76 168.40 413.96 627.40 744.47 404.02 942.30 405.89 877.15 541.91 766.71 648.25 926.81 650.15
00001968 00000152 605.94 168.51 412.75 625.23 744.16 402.62 942.56 403.22 878.15 540.40 768.54 648.12 928.03 648.83
00001969 00000153 606.00 165.37 413.21 629.51 744.92 401.91 941.68 402.83 877.28 539.48 768.75 647.97 926.52 648.88
00001970 00000154 605.26 166.93 413.49 627.09 743.61 400.10 940.88 400.74 875.81 537.78 769.62 647.42 925.81 647.98
00001971 00000155 605.27 166.82 413.55 627.89 743.45 399.52 940.95 400.53 875.55 536.96 769.67 647.33 924.97 648.21
00001972 00000156 605.74 166.56 413.08 628.06 743.48 398.16 941.05 399.12 875.84 536.04 769.93 647.31 924.57 648.14
00001973 00000157 605.80 166.64 413.18 628.39 743.30 397.20 940.53 398.31 874.99 535.10 769.67 647.08 923.84 647.99
00001974 00000158 606.06 164.71 412.81 630.27 743.47 396.24 940.60 397.81 875.40 533.34 770.58 646.98 923.76 648.21
00001975 00000159 606.42 164.41 412.86 628.76 743.90 395.94 941.41 397.58 875.64 531.98 771.66 646.16 924.60 647.38
00001976 00000160 607.82 163.65 412.75 628.03 744.76 396.27 941.31 398.01 875.69 532.09 772.84 645.67 924.45 646.96
00001977 00000161 607.90 163.50 413.39 627.80 744.99 396.40 941.52 397.93 875.85 531.86 773.11 645.79 924.52 646.97
00001978 00000162 608.36 161.75 413.48 629.66 745.59 397.12 941.98 398.69 876.57 532.24 773.02 645.83 924.47 647.09
00001979 00000163 609.06 161.98 413.37 627.97 746.27 397.30 942.82 398.75 876.96 532.68 773.53 645.94 924.48 647.14
00001980 00000164 608.95 162.14 413.81 628.55 746.66 397.32 943.17 398.76 877.37 533.12 773.89 645.92 924.88 647.10
00001981 00000165 609.68 160.82 414.98 627.83 746.96 397.66 947.09 398.53 879.26 534.99 772.50 644.56 929.70 645.25
00001982 00000166 610.11 159.47 414.95 628.56 748.44 397.54 948.87 398.81 880.93 535.70 772.89 643.47 930.49 644.50
00001983 00000167 610.47 160.39 416.32 630.37 751.32 397.75 949.67 398.52 883.27 536.62 776.04 643.97 933.73 644.42
00001984 00000168 610.92 164.21 415.56 624.80 755.64 402.03 952.17 401.89 887.19 541.48 780.67 645.67 935.69 645.53
00001985 00000169 611.50 163.23 413.46 622.61 757.00 407.73 952.40 403.01 891.37 545.44 783.88 646.73 940.07 642.86
00001986 00000170 610.34 162.47 412.79 620.18 765.42 421.51 953.41 415.42 893.98 551.15 789.56 648.00 940.61 643.12
