Video ID: 	5h94QhyIvYo
H: 	1080
W: 	1920
FPS: 	25.0

FRAME INDEX X0 Y0 W H [Landmarks (5 Points)]

00003801 00000000 779.13 184.19 420.66 601.40 860.10 413.27 1048.10 410.03 929.76 515.54 879.44 638.41 1020.76 635.32
00003802 00000001 774.52 178.46 425.67 608.29 860.69 409.37 1046.21 410.93 927.82 518.65 877.74 635.96 1022.99 637.64
00003803 00000002 770.90 179.27 427.07 607.54 857.37 408.79 1043.48 410.74 922.95 517.37 874.68 637.01 1018.29 639.17
00003804 00000003 768.75 178.60 427.25 603.74 854.03 407.69 1039.97 410.08 918.53 517.00 870.25 634.15 1013.13 636.65
00003805 00000004 767.11 179.22 428.18 600.12 854.12 406.94 1041.75 410.38 920.30 518.08 869.00 631.33 1014.51 634.67
00003806 00000005 764.89 185.27 429.89 594.58 850.61 408.62 1039.38 413.18 917.14 522.11 866.04 631.67 1012.10 635.95
00003807 00000006 762.07 190.52 432.30 598.66 847.20 413.24 1035.18 417.96 911.70 526.88 861.75 638.08 1006.13 642.95
00003808 00000007 764.75 203.73 423.41 613.49 848.03 416.93 1039.09 414.40 922.64 525.57 870.23 659.88 999.27 659.26
00003809 00000008 762.65 203.98 422.58 633.18 848.80 421.89 1040.91 418.25 924.72 533.37 871.43 676.57 998.97 674.98
00003810 00000009 758.58 205.63 423.93 635.26 845.85 426.90 1035.94 424.17 917.79 536.49 866.83 679.49 989.97 678.94
00003811 00000010 756.17 208.07 426.77 629.94 837.57 431.73 1028.98 427.43 908.61 543.81 862.38 684.66 986.05 683.08
00003812 00000011 760.54 205.00 426.66 625.74 839.24 436.24 1024.53 434.83 897.19 551.52 867.92 682.30 980.64 682.46
00003813 00000012 758.86 205.87 427.83 621.19 837.27 436.21 1022.54 435.12 896.25 554.46 866.80 680.95 980.93 681.26
00003814 00000013 759.18 206.50 426.42 617.55 835.24 432.83 1020.05 431.76 890.35 550.78 862.52 678.00 978.74 678.21
00003815 00000014 756.22 203.69 427.41 617.45 830.82 431.06 1016.28 431.51 884.98 548.14 855.21 675.63 974.52 676.91
00003816 00000015 755.16 202.71 425.25 618.41 825.37 429.35 1010.48 432.33 874.56 547.81 844.69 674.82 967.70 678.17
00003817 00000016 755.25 201.21 426.26 618.91 823.13 426.94 1005.43 432.15 866.73 544.78 838.49 672.51 961.66 677.76
00003818 00000017 757.17 204.27 427.76 613.22 823.65 430.52 1000.80 439.45 862.76 549.65 835.73 670.95 958.45 679.12
00003819 00000018 760.24 205.46 426.68 606.36 825.62 433.15 1006.80 444.76 870.93 556.60 837.35 666.90 969.47 677.10
00003820 00000019 766.77 209.93 420.41 601.71 837.13 433.99 1019.07 444.03 890.52 555.75 844.33 663.98 982.88 673.37
00003821 DELETE   767.59 204.52 425.13 609.02 843.70 434.85 1031.39 440.30 908.55 553.95 857.68 665.52 998.80 670.79
00003822 00000021 771.33 203.52 428.86 608.90 850.08 434.85 1041.29 437.88 920.40 550.29 868.02 665.37 1012.66 667.88
00003823 00000022 775.33 202.35 429.09 605.58 855.46 432.78 1050.33 438.53 927.29 546.83 867.60 660.36 1018.26 664.79
00003824 00000023 776.04 201.95 430.64 604.28 860.11 430.16 1056.67 435.94 935.02 544.49 874.52 658.08 1023.68 662.47
00003825 00000024 780.86 198.73 431.01 620.67 868.42 430.75 1067.50 431.82 947.40 548.02 888.01 668.41 1034.38 668.37
00003826 DELETE   785.44 199.52 428.58 638.75 883.46 434.55 1078.42 431.98 969.52 555.54 909.40 683.16 1045.73 679.65
00003827 DELETE   792.54 200.18 424.79 654.22 899.62 442.26 1093.15 439.38 991.69 560.91 926.93 694.41 1064.78 690.35
00003828 00000027 795.92 203.87 425.65 655.16 908.62 442.49 1102.18 440.14 1004.72 564.60 935.29 698.19 1073.86 694.52
00003829 00000028 796.64 203.51 425.47 650.42 908.20 445.34 1102.75 442.70 1004.34 568.30 934.81 698.66 1074.59 694.48
00003830 00000029 794.50 203.68 427.13 638.16 902.09 448.74 1098.24 447.04 995.06 569.54 930.45 697.37 1068.55 694.00
00003831 00000030 793.44 202.21 427.77 629.13 895.17 448.49 1092.91 447.45 986.25 570.97 922.61 691.56 1064.32 688.85
00003832 00000031 791.78 201.27 426.69 620.13 890.95 444.64 1087.44 444.34 980.28 571.21 917.47 685.47 1058.28 683.35
00003833 00000032 790.12 201.51 424.88 615.02 883.34 440.47 1079.89 439.28 971.35 567.36 908.50 680.39 1052.69 677.60
00003834 00000033 785.14 198.12 431.34 619.45 875.20 437.42 1074.01 438.23 959.51 562.79 898.19 676.03 1045.77 675.15
00003835 00000034 782.07 198.68 431.96 616.71 867.16 435.38 1067.10 436.96 946.44 557.81 887.08 672.14 1038.86 672.03
00003836 00000035 779.14 200.35 434.83 613.03 862.91 433.13 1063.63 437.12 940.01 554.87 880.72 668.87 1030.41 671.16
00003837 00000036 777.46 201.49 432.83 611.41 861.60 430.91 1059.46 436.21 936.98 551.88 879.37 666.91 1025.55 670.62
00003838 00000037 776.45 201.35 430.12 610.05 860.14 430.47 1058.29 435.70 935.84 550.91 877.90 666.07 1023.65 670.01
00003839 00000038 776.49 201.87 428.66 608.49 859.96 429.92 1057.68 435.04 935.91 550.62 877.27 665.51 1023.66 669.27
00003840 00000039 776.39 200.93 429.30 608.69 859.84 429.24 1056.33 433.78 936.49 550.39 879.03 664.60 1024.75 667.75
00003841 00000040 776.29 201.26 427.78 606.84 859.48 429.06 1055.94 432.86 936.29 548.49 878.41 662.70 1025.47 665.31
00003842 00000041 777.21 198.84 426.69 606.88 858.84 427.75 1054.50 431.37 934.34 547.00 877.04 661.18 1023.47 663.74
00003843 00000042 777.24 195.67 426.45 608.57 858.56 426.87 1055.45 430.59 934.42 545.34 877.10 660.08 1024.30 662.75
00003844 00000043 777.02 196.44 426.73 607.37 858.19 425.87 1054.24 430.09 933.37 545.55 876.76 659.37 1023.62 662.43
00003845 00000044 777.13 196.30 427.00 606.90 858.78 425.74 1054.91 430.00 934.24 545.32 876.99 659.04 1023.85 662.10
00003846 00000045 777.05 197.25 426.67 605.94 859.34 426.88 1055.11 430.31 934.88 544.80 877.83 658.56 1025.41 660.91
00003847 00000046 777.44 195.22 427.19 607.30 858.98 427.03 1056.02 430.00 934.49 544.99 877.89 660.24 1026.46 662.08
00003848 00000047 777.34 195.08 427.23 609.38 859.54 426.78 1057.09 430.81 935.49 545.48 877.84 660.46 1026.82 663.24
00003849 00000048 777.62 195.65 427.38 610.37 859.84 426.82 1057.69 430.48 935.75 545.08 878.19 661.31 1027.15 663.77
00003850 00000049 777.85 197.27 425.93 610.82 860.04 427.33 1057.76 431.32 935.56 545.77 877.86 661.75 1026.44 664.69
00003851 00000050 776.64 198.79 426.15 611.19 860.31 428.46 1057.70 432.86 936.53 547.52 878.59 663.45 1026.43 666.63
00003852 00000051 776.38 199.79 426.78 611.46 860.51 429.17 1056.68 433.61 936.98 549.51 879.42 664.72 1025.84 667.84
00003853 00000052 776.46 199.67 426.20 610.58 859.99 429.58 1056.16 433.63 935.99 549.12 879.03 664.11 1026.41 666.94
00003854 00000053 776.01 198.53 425.72 610.29 858.59 430.27 1055.66 433.36 934.99 549.21 878.25 664.14 1028.54 666.11
00003855 00000054 775.98 198.97 426.52 609.85 857.01 429.19 1054.77 431.99 932.64 548.60 876.80 663.39 1027.06 665.21
00003856 00000055 775.90 198.35 426.21 609.45 856.87 428.76 1054.11 432.18 932.03 548.68 875.81 662.60 1025.91 665.06
00003857 00000056 776.42 197.91 425.62 612.04 858.05 429.31 1054.32 432.77 933.35 548.57 876.57 664.06 1024.89 666.56
00003858 00000057 776.58 199.42 426.12 613.62 858.68 430.01 1054.17 433.07 933.86 547.73 877.11 665.57 1025.07 667.72
00003859 00000058 776.19 200.17 426.45 613.47 858.39 430.09 1054.15 433.40 933.82 548.18 877.08 665.96 1025.37 668.26
00003860 00000059 775.70 198.76 427.30 614.66 858.06 428.87 1053.36 432.61 933.37 547.67 876.93 665.50 1024.21 668.17
00003861 00000060 775.67 198.17 426.71 611.31 856.91 428.76 1053.59 431.91 932.37 547.12 875.81 663.21 1025.84 665.32
00003862 00000061 777.24 196.71 426.15 609.80 856.90 428.59 1053.19 432.75 930.38 546.98 872.78 660.03 1025.50 662.98
00003863 00000062 776.18 195.91 427.25 607.07 855.22 429.24 1051.32 432.49 929.18 547.93 871.68 658.60 1024.76 660.83
00003864 00000063 776.28 194.17 427.72 608.58 855.17 430.38 1050.88 433.54 928.76 547.02 870.69 657.59 1023.88 659.79
00003865 00000064 777.13 195.03 426.69 607.85 857.60 433.68 1049.87 438.01 929.59 546.75 870.91 656.61 1023.10 659.75
00003866 00000065 775.98 194.73 426.21 611.11 856.86 433.56 1049.96 437.31 929.74 545.88 871.14 658.74 1025.31 661.26
00003867 00000066 774.37 202.12 428.56 618.91 861.10 431.39 1052.83 435.57 934.65 545.87 876.22 662.77 1025.44 665.85
00003868 00000067 774.00 205.29 430.17 620.70 862.05 433.26 1055.66 435.38 937.04 547.38 878.98 666.54 1030.56 667.48
00003869 00000068 772.97 209.43 433.22 620.32 863.20 438.73 1056.74 440.36 940.06 553.16 880.39 670.60 1033.56 670.77
00003870 00000069 774.34 209.35 432.29 620.49 863.70 444.46 1052.50 448.53 935.68 559.22 877.88 673.12 1027.24 675.40
00003871 00000070 774.11 212.97 429.27 611.20 860.01 445.95 1047.80 449.41 930.58 559.73 875.02 674.77 1019.04 677.06
00003872 00000071 773.32 209.99 431.09 607.68 857.59 438.22 1046.87 445.40 926.95 555.19 870.06 668.33 1010.83 674.14
00003873 00000072 775.96 203.21 428.41 608.10 857.06 432.21 1047.68 442.42 924.70 551.23 866.52 662.51 1008.52 670.96
00003874 00000073 778.36 199.16 426.99 608.92 858.62 427.28 1052.50 436.99 927.06 546.09 868.66 660.31 1012.32 668.34
00003875 00000074 779.72 199.15 431.27 609.20 863.53 424.13 1060.01 434.09 934.89 543.26 874.10 657.72 1020.05 665.78
00003876 00000075 782.27 196.85 430.37 613.41 866.92 426.84 1065.72 436.34 939.48 546.64 877.88 661.35 1025.77 668.82
00003877 00000076 786.86 196.83 433.24 617.53 870.77 432.19 1070.21 440.83 942.71 555.78 882.86 667.81 1033.30 673.86
00003878 00000077 791.01 200.81 433.56 616.90 874.13 436.33 1071.95 444.03 943.33 560.89 886.59 673.00 1034.24 678.18
00003879 00000078 793.28 196.49 429.95 614.96 874.99 432.73 1074.35 441.20 944.92 557.33 887.06 667.93 1037.10 673.73
00003880 00000079 795.50 189.65 426.68 609.17 878.63 423.59 1072.82 432.42 949.24 543.01 890.64 652.83 1031.07 661.07
00003881 00000080 796.59 184.26 429.65 604.72 879.78 414.55 1074.73 425.53 947.29 536.77 885.88 642.72 1026.57 652.72
00003882 00000081 798.06 182.29 431.58 607.53 880.85 409.99 1074.28 422.00 946.51 534.93 885.99 640.26 1024.62 651.07
00003883 00000082 802.99 182.82 429.88 614.59 885.79 411.39 1081.53 425.49 951.80 538.40 890.82 645.38 1033.80 657.88
00003884 00000083 806.40 189.16 429.32 613.32 895.14 413.39 1088.61 433.04 960.01 545.75 896.43 648.11 1041.30 665.26
00003885 00000084 809.55 195.34 428.94 613.52 901.65 417.69 1099.79 438.18 969.45 551.45 900.53 653.65 1049.67 672.07
00003886 00000085 809.49 192.88 430.58 610.89 903.91 414.95 1100.33 434.96 970.80 544.60 904.14 648.52 1050.67 666.62
00003887 00000086 807.72 184.45 433.74 612.05 899.41 406.80 1095.97 424.65 965.32 533.62 898.71 640.89 1043.01 656.64
00003888 00000087 810.59 179.24 428.27 606.67 892.40 400.21 1088.91 420.74 954.20 530.33 889.95 632.38 1034.76 649.59
00003889 00000088 811.43 179.84 429.06 613.58 897.67 402.58 1092.83 422.99 960.86 532.78 895.03 637.18 1037.19 654.54
00003890 DELETE   813.50 190.16 429.39 614.80 915.63 413.96 1107.83 438.85 982.48 544.53 912.82 642.88 1056.12 665.13
00003891 00000090 825.33 202.63 423.70 623.65 928.09 421.41 1128.91 440.97 1013.16 554.33 928.04 659.16 1075.99 675.88
00003892 DELETE   821.27 194.11 428.80 619.32 923.06 421.37 1116.90 444.35 995.49 551.57 923.09 654.10 1072.59 674.28
00003893 DELETE   813.48 190.66 431.32 621.28 903.60 420.64 1102.73 441.17 971.62 556.06 905.11 655.59 1055.23 673.67
00003894 00000093 808.08 190.72 434.02 616.67 900.90 415.37 1100.54 434.07 969.72 549.67 904.39 649.93 1058.24 666.12
00003895 00000094 811.78 193.66 429.98 616.69 905.20 420.56 1106.71 436.93 978.71 552.42 911.02 655.32 1069.49 669.94
00003896 00000095 810.73 198.79 426.89 617.91 903.02 426.87 1100.18 441.31 978.20 559.24 914.00 664.56 1062.28 678.06
00003897 00000096 804.45 198.11 424.98 622.71 893.31 434.70 1090.27 445.72 963.52 569.17 901.45 676.99 1046.99 684.87
00003898 00000097 800.55 198.97 428.51 617.80 885.94 436.03 1083.85 445.67 955.46 567.94 896.77 675.05 1043.56 681.66
00003899 00000098 802.16 197.53 426.49 617.36 887.72 434.08 1085.32 441.91 960.46 565.64 900.63 670.35 1049.92 675.15
00003900 00000099 803.20 196.36 423.70 616.56 892.60 431.53 1085.13 443.54 966.72 560.53 906.15 662.03 1049.18 673.83
00003901 00000100 796.85 193.42 429.65 619.63 885.69 437.10 1084.48 442.91 962.64 563.51 900.82 669.30 1052.52 672.28
00003902 00000101 795.35 197.38 430.15 622.66 885.09 438.48 1082.11 443.16 961.50 566.59 900.61 674.53 1049.07 676.64
00003903 00000102 795.59 200.49 427.65 622.10 889.10 444.75 1084.42 448.91 969.37 571.43 905.65 679.87 1054.19 681.57
00003904 00000103 794.52 205.02 432.27 619.22 890.83 450.19 1087.42 452.92 975.37 578.55 912.66 685.89 1058.34 686.08
00003905 00000104 793.56 206.04 430.72 620.58 886.90 451.93 1081.38 452.03 970.18 577.34 911.83 688.41 1055.69 686.31
00003906 00000105 784.26 206.66 434.89 632.56 875.03 444.77 1067.49 446.06 951.31 568.91 897.81 684.68 1044.33 683.52
00003907 00000106 784.25 200.19 438.57 636.86 868.96 442.40 1065.26 439.60 944.08 564.01 895.15 684.42 1045.28 679.92
00003908 00000107 786.83 199.40 435.85 631.00 877.83 442.91 1072.27 435.86 962.86 568.57 909.90 682.14 1056.21 674.30
00003909 00000108 791.00 202.66 433.31 620.12 888.76 449.46 1086.08 440.83 982.66 573.26 925.39 685.47 1073.86 676.02
00003910 00000109 792.34 206.24 436.60 620.28 888.37 458.61 1085.80 448.12 979.89 583.50 926.41 694.29 1074.71 682.92
00003911 00000110 795.79 211.04 435.84 637.37 882.48 462.59 1079.56 456.65 973.21 597.70 918.45 704.73 1062.93 699.91
00003912 DELETE   797.97 220.21 437.23 639.77 884.56 472.32 1085.66 466.69 976.58 605.01 918.20 713.48 1067.66 709.37
00003913 00000112 800.79 227.26 435.49 632.31 892.15 477.16 1098.43 472.37 990.87 611.69 927.28 718.09 1081.11 715.13
00003914 00000113 799.10 228.37 435.37 628.00 890.47 477.01 1097.43 473.21 989.67 610.36 925.61 716.93 1076.57 714.82
00003915 00000114 796.29 226.54 436.44 632.21 886.56 475.68 1090.82 474.24 981.00 610.73 916.53 716.43 1064.51 716.41
00003916 00000115 793.54 226.66 437.84 635.52 885.99 477.27 1092.03 474.14 982.24 613.14 918.96 720.46 1069.31 718.67
00003917 00000116 791.25 228.53 439.43 635.66 885.84 481.69 1090.65 476.38 984.71 617.73 922.17 723.80 1073.39 720.28
00003918 00000117 782.95 232.49 440.63 625.87 874.58 480.30 1073.66 472.80 966.66 613.62 912.33 719.22 1052.81 713.84
00003919 00000118 771.88 230.35 438.96 622.50 862.83 473.36 1059.16 470.73 946.42 603.65 895.27 713.74 1043.22 710.39
00003920 00000119 773.93 228.28 437.04 624.92 866.40 463.13 1058.58 461.92 948.98 598.18 897.67 705.87 1041.45 703.53
00003921 00000120 778.84 226.52 439.97 637.17 882.60 468.14 1076.43 460.23 976.25 599.56 923.06 714.21 1066.85 705.00
00003922 00000121 789.49 223.01 440.31 646.10 885.78 476.54 1090.94 465.40 988.26 610.30 930.76 722.46 1082.77 713.98
00003923 00000122 785.16 233.95 441.22 639.31 878.95 481.98 1081.00 477.02 974.23 623.66 916.13 723.66 1072.16 720.13
00003924 00000123 781.86 237.31 441.39 637.34 872.82 484.06 1072.83 479.16 962.69 623.33 908.39 722.99 1061.45 719.56
00003925 00000124 782.54 229.17 442.42 643.96 874.88 480.12 1074.14 471.61 968.41 615.51 912.10 719.90 1065.98 713.25
00003926 00000125 782.00 229.75 438.89 639.11 874.44 477.04 1077.03 466.43 971.14 607.31 912.53 720.39 1067.42 709.85
00003927 00000126 780.61 220.80 443.98 645.91 868.24 468.61 1066.97 464.69 956.75 606.06 902.85 711.20 1047.97 708.79
00003928 00000127 779.58 232.40 437.16 633.30 867.94 472.36 1059.95 473.73 944.85 604.68 894.34 716.26 1040.03 716.24
00003929 00000128 778.25 229.85 443.46 631.82 863.89 475.88 1060.99 474.82 945.89 612.82 896.91 718.39 1034.96 718.72
00003930 DELETE   776.92 229.97 440.31 631.03 860.26 474.55 1052.67 473.84 940.26 610.24 894.37 714.65 1025.66 715.05
00003931 00000130 766.85 227.32 439.50 632.18 847.54 463.80 1035.29 468.64 913.51 598.92 869.98 702.92 1011.31 706.46
00003932 00000131 763.34 216.20 434.28 628.99 834.11 457.26 1024.41 460.82 895.81 588.96 853.51 697.13 999.52 699.38
00003933 00000132 760.38 214.65 433.05 625.85 832.63 455.52 1021.67 456.90 896.93 586.61 854.94 696.45 1001.24 696.82
00003934 00000133 758.51 219.06 437.87 631.77 835.06 459.32 1025.33 463.43 901.00 596.94 857.71 698.71 1005.33 701.39
00003935 00000134 758.58 232.01 437.86 633.80 831.67 470.90 1022.25 475.03 896.45 609.39 853.89 712.00 1003.91 714.99
00003936 DELETE   755.26 239.90 438.65 630.61 835.08 478.42 1024.57 486.51 897.80 618.08 857.33 720.35 1002.55 727.13
00003937 00000136 757.15 238.70 438.40 627.42 840.45 480.63 1031.37 483.87 910.02 614.99 866.24 718.22 1014.92 720.80
00003938 DELETE   758.12 228.29 438.16 630.07 837.89 467.30 1032.13 468.60 909.06 603.61 863.34 706.32 1015.03 706.95
00003939 00000138 758.98 218.82 434.75 625.98 837.02 458.68 1032.46 461.40 905.85 591.28 858.13 696.30 1011.06 697.77
00003940 00000139 761.45 215.49 434.30 624.36 837.98 455.41 1032.75 458.93 905.85 587.45 858.37 694.63 1011.37 696.65
00003941 00000140 761.66 217.00 439.21 630.34 842.28 456.08 1037.73 460.30 911.56 589.73 863.09 694.85 1016.88 697.52
00003942 00000141 762.37 223.02 440.07 631.76 844.60 461.45 1037.01 464.42 914.09 595.79 867.80 699.71 1018.22 701.53
00003943 00000142 763.95 224.40 437.31 633.72 842.88 466.51 1030.90 470.82 907.88 598.76 864.61 703.51 1013.57 706.52
00003944 DELETE   765.50 223.98 436.24 630.18 846.86 465.97 1034.09 469.38 913.55 597.77 868.43 702.31 1015.19 704.72
00003945 DELETE   772.24 219.49 437.05 621.36 858.97 460.29 1048.50 460.72 930.13 583.92 880.69 695.65 1027.23 695.15
00003946 00000145 776.47 211.79 438.95 616.67 864.60 448.26 1060.91 444.97 945.89 574.04 892.53 686.84 1040.48 682.44
00003947 00000146 774.85 203.85 438.52 619.55 858.99 444.42 1055.22 442.07 937.73 566.77 883.78 681.35 1033.50 678.00
00003948 00000147 771.09 204.54 434.97 619.72 853.30 440.88 1045.65 442.06 927.47 567.12 873.06 682.18 1018.23 682.63
00003949 00000148 767.36 208.52 433.18 619.84 850.44 443.42 1042.87 443.87 924.52 570.66 871.45 687.25 1015.05 687.30
00003950 00000149 768.76 211.33 434.47 618.15 854.10 446.75 1049.21 444.31 933.05 570.86 879.11 689.22 1026.26 686.23
00003951 00000150 769.62 207.84 434.79 615.37 853.86 444.14 1049.42 442.54 932.95 568.94 877.56 683.41 1029.13 680.79
00003952 00000151 768.56 203.51 436.93 619.20 849.62 438.71 1046.23 440.04 925.75 564.51 869.26 678.47 1022.37 678.59
00003953 00000152 770.18 204.15 434.68 620.67 851.65 441.31 1046.57 441.55 928.98 568.63 872.42 681.20 1025.40 680.32
00003954 00000153 767.56 209.83 436.34 624.79 857.86 447.84 1050.92 442.05 942.82 574.80 891.45 687.85 1036.40 681.65
00003955 00000154 762.69 215.37 439.80 622.70 848.37 456.49 1041.97 451.90 929.35 584.32 877.93 688.13 1036.81 682.60
00003956 00000155 757.09 211.73 434.02 627.32 830.61 451.52 1024.21 450.13 901.16 586.17 857.29 690.12 1014.22 687.88
00003957 00000156 755.16 210.89 435.68 630.08 832.40 448.56 1026.10 445.10 906.55 581.59 861.35 689.30 1014.61 685.62
00003958 00000157 757.89 213.06 435.77 626.37 842.61 453.59 1035.94 447.69 923.66 581.29 876.75 691.97 1027.95 685.85
00003959 00000158 756.79 217.61 438.36 622.80 839.51 459.20 1034.18 457.09 915.44 593.13 869.86 698.26 1020.26 695.52
00003960 00000159 760.37 225.74 438.03 624.76 843.49 466.16 1037.02 468.62 916.77 604.30 867.35 704.19 1018.26 705.50
00003961 DELETE   770.25 231.86 439.23 629.74 861.74 474.12 1055.95 475.56 942.68 610.77 890.38 711.03 1042.23 710.97
00003962 DELETE   785.61 228.39 441.04 641.15 884.39 476.74 1080.49 476.30 976.92 613.74 920.18 721.92 1057.67 723.32
00003963 00000162 792.46 229.95 438.56 648.79 891.45 473.34 1092.43 474.19 982.84 605.71 921.93 726.27 1058.70 728.86
00003964 00000163 794.86 227.91 438.32 652.39 892.77 466.46 1091.99 471.03 979.36 601.20 920.58 721.84 1050.54 727.73
00003965 00000164 798.76 223.16 435.52 656.44 895.89 464.88 1097.11 467.83 986.40 596.68 923.37 720.93 1056.88 725.17
00003966 00000165 802.29 224.21 435.56 651.89 897.19 466.52 1098.81 467.75 989.04 596.86 925.89 721.08 1061.05 723.92
00003967 00000166 805.09 224.58 433.07 646.09 896.58 466.57 1098.47 467.94 987.70 596.44 924.22 718.44 1061.05 721.30
00003968 00000167 803.87 222.39 433.13 645.00 894.59 461.19 1093.71 466.06 980.93 595.57 918.13 710.80 1054.51 716.38
