Video ID: 	E4hH4BkotA4
H: 	1080
W: 	1920
FPS: 	25.0

FRAME INDEX X0 Y0 W H [Landmarks (5 Points)]

00000581 00000000 524.28 312.70 402.06 544.44 693.31 576.80 865.32 513.21 847.71 670.53 718.39 735.75 881.31 688.25
00000582 DELETE   515.79 312.92 410.04 540.54 688.99 571.76 864.15 505.14 848.34 664.30 711.70 728.79 879.02 679.09
00000583 DELETE   506.73 296.91 413.79 556.64 685.88 566.17 859.55 499.11 846.80 657.85 706.83 727.71 873.52 677.78
00000584 00000003 516.30 282.24 395.57 568.14 685.30 553.43 859.29 492.05 844.89 644.20 719.11 722.32 874.46 674.93
00000585 00000004 513.21 278.88 397.10 564.07 683.89 549.05 857.94 489.30 842.20 637.50 722.58 718.10 874.79 671.50
00000586 00000005 513.10 275.72 396.94 562.91 685.15 546.58 856.15 489.43 840.76 634.93 725.45 715.03 872.69 670.33
00000587 00000006 511.74 278.14 399.30 560.55 685.94 545.10 857.10 488.85 841.89 634.21 724.75 715.26 871.24 671.45
00000588 00000007 510.88 277.98 401.97 560.31 685.87 544.34 857.19 488.74 841.36 633.30 726.57 715.66 871.81 672.11
00000589 00000008 511.30 278.22 402.30 560.65 687.66 545.11 859.11 489.98 843.42 633.50 727.24 716.90 871.95 673.88
00000590 00000009 514.63 280.31 399.36 558.60 689.89 546.23 862.20 491.31 846.19 634.97 731.23 719.61 874.94 676.54
00000591 00000010 517.73 281.03 398.03 558.05 691.54 547.91 863.86 491.85 848.57 636.42 733.19 721.01 877.97 676.85
00000592 00000011 518.47 280.07 398.33 560.44 691.44 549.35 864.08 493.55 847.70 636.73 733.23 722.11 878.59 677.96
00000593 00000012 519.84 280.54 398.31 559.85 691.61 549.55 864.65 494.20 847.24 637.27 733.02 722.56 878.89 678.74
00000594 00000013 520.61 280.18 396.79 562.35 692.06 549.71 864.95 494.05 848.15 637.76 733.09 723.89 878.65 679.83
00000595 00000014 522.05 278.99 396.14 564.14 693.16 548.64 865.35 494.09 848.09 637.38 733.46 724.23 878.66 680.96
00000596 00000015 525.60 274.49 393.66 567.25 693.04 544.72 864.85 489.90 848.30 634.34 735.71 722.84 880.85 679.04
00000597 00000016 523.87 262.91 393.20 570.17 694.19 533.08 858.55 479.76 846.57 622.68 744.05 713.36 880.37 670.26
00000598 00000017 515.68 247.48 402.45 568.46 691.46 514.51 855.13 461.36 845.43 599.51 743.99 697.05 880.29 654.25
00000599 00000018 516.44 230.81 407.09 577.37 696.64 497.37 856.35 447.21 849.11 579.30 739.20 680.13 879.94 640.26
00000600 00000019 516.93 223.07 406.78 579.99 704.29 487.22 862.41 437.78 860.03 574.37 731.71 667.49 878.40 629.88
00000601 00000020 521.37 226.53 406.40 578.20 709.54 493.10 864.86 441.29 864.88 581.37 734.56 668.69 882.74 629.36
00000602 00000021 528.92 236.67 402.65 571.24 717.96 502.01 871.67 447.11 874.10 586.30 744.14 675.59 889.64 633.34
00000603 00000022 532.09 234.32 403.87 572.25 721.71 502.93 874.58 446.29 881.08 583.12 745.46 672.27 894.66 628.87
00000604 00000023 533.29 229.81 408.85 578.09 723.23 494.80 876.85 438.31 885.05 573.80 744.95 667.76 895.16 624.22
00000605 00000024 534.93 220.58 411.31 590.05 722.14 480.95 879.81 433.82 883.28 561.33 741.61 662.25 894.00 625.50
00000606 00000025 538.18 213.16 411.35 590.68 726.55 468.93 885.10 427.16 885.81 553.40 744.30 654.84 894.07 622.09
00000607 00000026 541.04 208.26 414.39 585.12 733.11 459.58 893.78 423.78 890.50 547.44 751.00 646.89 898.65 618.33
00000608 00000027 545.97 201.40 412.01 583.50 739.99 454.70 900.55 418.89 895.64 543.49 759.08 643.89 901.81 615.43
00000609 00000028 550.36 204.00 408.90 573.20 744.99 455.47 907.41 416.91 901.45 542.94 768.38 647.50 907.55 616.75
00000610 00000029 556.25 207.39 404.25 569.60 750.19 457.05 913.43 417.09 907.53 543.99 775.59 650.76 913.70 618.97
00000611 00000030 558.90 209.39 401.74 570.29 755.72 456.87 917.68 421.98 912.60 546.22 779.23 653.38 914.35 625.78
00000612 00000031 561.94 206.03 399.95 569.46 759.77 454.22 921.71 423.52 914.70 548.48 782.33 651.04 915.95 626.94
00000613 00000032 563.04 207.43 401.66 569.04 761.58 452.43 923.94 423.64 916.99 547.65 781.42 648.89 917.95 626.47
00000614 00000033 565.51 204.18 403.30 577.97 764.98 452.08 925.07 427.32 918.26 548.93 783.96 653.08 918.26 633.79
00000615 00000034 569.81 205.77 401.69 576.73 768.75 454.65 928.83 430.31 920.94 550.99 787.35 655.46 920.98 636.56
00000616 00000035 575.21 208.38 398.09 570.96 770.52 454.17 933.46 430.10 922.23 549.31 793.37 654.76 926.99 635.61
00000617 00000036 578.38 211.89 397.74 568.05 774.14 451.56 936.96 430.39 926.21 546.70 795.04 652.63 929.28 635.82
00000618 00000037 580.12 214.82 398.83 573.17 778.07 447.97 936.77 431.07 927.45 545.31 794.35 652.15 927.37 639.00
00000619 00000038 581.82 211.77 399.92 587.20 782.82 446.72 938.54 432.04 932.12 546.94 791.46 654.12 925.22 643.27
00000620 00000039 577.28 214.03 408.05 585.60 781.86 443.95 934.02 433.74 921.98 549.65 793.91 649.07 920.35 642.71
00000621 00000040 580.23 215.47 408.53 582.92 785.35 448.45 936.86 435.64 927.42 549.20 798.47 649.72 924.52 641.40
00000622 00000041 584.22 216.12 405.63 576.83 788.09 447.49 938.17 433.63 929.36 545.17 804.11 647.24 927.46 637.59
00000623 00000042 585.91 213.86 402.68 570.64 789.94 456.24 939.16 440.08 930.66 545.80 808.13 643.22 930.73 632.01
00000624 00000043 595.21 219.55 395.75 562.27 789.43 464.56 946.63 439.76 936.56 548.74 811.16 646.22 939.18 627.87
00000625 00000044 596.96 219.89 394.93 561.93 789.19 464.29 948.85 436.90 938.67 549.02 811.70 646.49 943.85 625.66
00000626 00000045 595.80 218.87 396.12 564.70 786.02 460.82 947.11 437.35 933.98 546.85 811.27 646.50 943.37 628.73
00000627 00000046 589.97 219.85 402.26 567.37 788.35 453.20 940.08 441.26 925.32 546.12 807.18 644.87 930.04 636.62
00000628 00000047 587.60 221.72 406.31 571.31 783.92 451.58 938.42 440.71 923.60 547.11 798.60 645.57 928.03 638.54
00000629 00000048 585.80 222.98 408.48 571.43 781.19 450.99 936.88 440.20 921.19 547.42 792.28 643.59 927.06 637.06
00000630 00000049 586.37 221.47 405.96 570.71 779.96 451.72 935.92 440.43 919.09 547.36 790.63 642.50 926.23 635.71
00000631 00000050 585.47 219.47 404.56 568.82 778.14 453.98 935.15 441.89 916.85 548.07 791.12 642.80 925.67 635.27
00000632 00000051 584.80 216.54 400.22 568.65 773.14 458.35 930.25 446.78 909.78 549.81 790.46 644.30 923.47 636.94
00000633 00000052 592.26 215.48 393.91 562.64 774.57 460.41 938.89 448.62 916.32 552.18 784.48 647.88 926.85 639.40
00000634 00000053 590.53 215.27 392.56 560.66 769.53 461.92 937.77 450.43 911.11 555.17 781.24 649.89 924.34 641.49
00000635 00000054 589.99 214.65 392.09 560.72 764.94 462.55 936.02 452.86 905.91 555.76 779.40 651.07 923.38 643.69
00000636 00000055 589.40 219.72 391.91 556.61 761.41 463.37 934.17 454.12 901.25 559.19 776.38 652.95 920.30 645.92
00000637 00000056 588.22 225.29 392.17 553.97 757.46 464.44 934.48 455.86 898.29 563.15 772.11 655.72 919.16 649.27
00000638 00000057 587.51 226.61 392.70 553.96 755.06 466.16 931.93 458.65 894.07 564.86 770.06 656.53 917.08 650.81
00000639 00000058 584.92 231.40 392.86 551.69 756.17 470.46 929.56 464.87 892.94 567.10 768.52 657.45 913.04 653.37
00000640 00000059 582.12 234.20 394.35 553.89 760.20 473.79 927.90 466.12 895.15 569.61 766.23 659.06 907.92 654.16
00000641 00000060 580.66 233.07 395.44 558.02 757.78 473.60 923.94 468.13 890.57 569.16 761.94 657.84 903.97 654.77
00000642 00000061 577.85 233.41 397.16 558.18 756.48 469.77 924.15 467.34 888.59 568.70 759.52 656.15 901.83 655.26
00000643 00000062 579.53 231.22 396.39 560.25 751.74 468.61 920.69 466.68 884.63 566.47 757.91 654.95 901.77 654.24
00000644 00000063 581.11 231.82 396.07 559.01 750.56 467.12 921.03 465.66 883.53 566.05 756.08 653.30 902.17 653.12
00000645 00000064 582.13 229.86 396.39 561.31 751.37 466.50 922.15 464.62 884.63 566.64 756.78 653.34 903.68 652.87
00000646 00000065 582.51 229.07 396.89 563.43 751.81 466.32 922.29 463.46 885.51 567.50 756.66 653.35 904.22 652.22
00000647 00000066 583.02 230.33 397.69 563.54 752.79 465.82 922.62 463.18 886.33 566.99 757.69 653.88 904.16 652.99
00000648 00000067 583.58 232.27 397.45 562.52 753.27 466.05 923.55 464.04 886.80 567.56 758.72 655.40 904.74 654.96
00000649 00000068 583.14 234.90 397.64 556.71 751.86 466.51 924.61 465.90 885.45 569.53 756.77 654.98 903.85 655.75
00000650 00000069 582.03 236.01 396.75 552.79 751.08 467.50 924.71 466.15 884.82 570.67 757.67 654.92 904.03 654.98
00000651 00000070 580.28 238.19 398.00 552.22 749.90 467.69 923.82 467.37 883.17 569.68 757.85 656.62 902.23 657.26
00000652 00000071 577.37 239.31 400.51 558.25 748.05 468.79 920.89 469.25 880.66 570.20 754.90 659.03 899.34 660.45
00000653 00000072 574.70 238.83 402.24 567.72 746.99 469.50 918.21 470.14 878.52 570.02 752.46 660.92 897.47 662.31
00000654 00000073 573.06 239.50 401.91 567.97 743.66 470.99 915.58 473.26 874.27 570.32 748.71 659.82 895.88 662.33
00000655 00000074 572.64 242.59 399.04 555.93 740.28 473.73 914.81 476.18 869.99 574.71 746.20 657.99 894.92 660.63
00000656 00000075 571.78 246.10 396.56 548.28 737.23 475.88 913.54 477.88 866.32 576.45 746.15 657.55 894.22 659.60
00000657 00000076 571.48 246.90 395.72 545.40 735.88 476.18 910.96 477.49 863.57 576.29 747.73 658.32 892.10 659.60
00000658 00000077 570.75 247.62 394.53 543.67 735.81 475.32 910.68 475.67 863.97 575.15 749.50 658.11 892.24 658.58
00000659 00000078 571.05 246.59 394.40 543.21 736.63 474.45 910.87 474.98 864.10 574.51 751.50 658.02 891.97 658.51
00000660 00000079 571.11 246.57 396.22 543.37 736.89 474.44 911.41 475.77 863.45 573.65 752.38 658.40 892.76 659.42
00000661 00000080 572.17 248.96 397.66 541.22 738.53 476.07 912.63 477.48 864.65 573.98 753.81 659.62 893.34 660.66
00000662 00000081 571.81 251.30 395.31 541.30 739.15 476.67 912.41 478.07 866.05 573.58 755.21 661.14 893.52 662.37
00000663 00000082 573.72 248.38 395.11 545.28 741.67 476.05 914.76 478.66 869.27 573.27 758.61 663.62 895.20 665.76
00000664 00000083 575.54 251.36 394.81 544.00 744.45 475.43 918.67 477.94 873.59 574.17 759.42 664.20 897.83 666.37
00000665 00000084 576.13 248.00 396.19 547.10 744.50 474.30 919.46 476.53 873.95 573.78 761.02 665.80 898.44 667.57
00000666 00000085 578.24 248.86 395.07 544.68 747.08 472.28 923.05 476.00 877.23 572.32 764.02 666.11 900.31 669.03
00000667 00000086 579.86 247.54 395.34 544.44 748.51 473.09 925.54 476.57 878.80 572.02 766.63 666.93 902.23 669.50
00000668 00000087 582.15 247.26 394.47 540.42 751.17 472.93 929.82 474.88 882.49 573.81 768.83 665.98 905.62 667.38
00000669 00000088 584.64 248.55 395.05 538.11 752.17 474.31 932.92 475.60 884.33 575.79 770.49 666.13 908.79 667.02
00000670 00000089 586.65 248.64 395.21 538.69 751.97 477.30 934.18 477.47 885.07 578.11 770.02 666.29 912.06 666.37
00000671 00000090 586.76 251.82 395.62 537.70 754.19 478.06 935.02 477.32 887.54 579.45 770.52 666.34 912.32 665.89
00000672 00000091 587.28 252.90 395.30 539.53 754.91 477.09 933.57 478.27 886.16 579.46 770.22 668.80 908.29 670.10
00000673 00000092 578.55 250.23 407.55 555.42 755.40 478.23 922.48 472.48 882.46 582.58 770.16 670.21 905.82 667.39
00000674 00000093 578.38 250.91 408.52 556.55 753.52 478.58 922.33 471.77 882.89 583.17 769.19 670.92 907.80 667.37
00000675 00000094 578.45 249.64 408.80 556.98 754.47 478.92 922.98 471.98 883.79 582.71 770.73 670.36 908.96 666.62
00000676 00000095 586.92 256.04 397.79 537.63 751.24 478.34 934.55 479.81 884.77 582.97 767.67 668.25 911.78 669.96
00000677 00000096 586.57 256.17 397.27 536.22 750.48 478.80 934.23 479.15 884.22 583.56 766.40 668.08 911.54 668.89
00000678 00000097 586.81 256.49 396.53 539.00 751.02 477.82 931.67 479.07 882.40 581.27 768.54 669.64 908.55 671.00
00000679 00000098 585.71 257.73 396.90 543.78 751.68 478.51 930.62 479.87 883.18 582.01 766.77 671.64 908.43 673.28
00000680 00000099 585.12 257.17 397.83 547.01 752.49 478.74 930.39 479.18 884.74 583.35 764.67 670.56 909.66 671.88
00000681 00000100 584.73 254.86 399.80 548.27 754.08 476.53 931.90 475.72 887.20 582.27 765.78 668.94 910.89 669.23
00000682 00000101 585.45 252.71 398.94 548.24 754.17 476.33 932.39 475.52 887.76 581.85 766.71 667.90 911.99 668.20
00000683 00000102 585.90 253.59 398.97 548.53 754.93 476.56 932.63 475.32 888.29 581.62 767.34 668.10 912.17 668.06
00000684 00000103 587.23 254.81 397.76 545.71 755.07 476.16 933.49 475.88 888.16 581.18 767.68 667.36 912.05 668.01
00000685 00000104 587.78 253.78 397.82 543.51 755.21 474.97 934.32 474.04 888.80 580.22 770.36 667.55 913.33 667.40
00000686 00000105 588.43 252.92 396.82 543.62 755.56 474.61 934.34 473.65 888.78 578.57 772.07 667.76 913.32 667.35
00000687 00000106 589.20 256.13 395.67 542.50 755.05 475.88 932.99 475.33 887.56 578.35 772.93 669.83 912.92 669.75
00000688 00000107 588.88 259.72 395.73 541.14 753.63 477.43 933.17 477.21 886.56 581.28 771.92 671.89 912.62 672.02
00000689 00000108 589.92 267.59 395.25 534.23 752.57 479.14 932.07 478.45 884.34 583.94 772.33 673.75 911.06 673.28
00000690 00000109 590.86 263.63 395.02 533.19 751.37 482.43 933.16 478.51 884.66 586.63 774.55 675.67 913.12 672.13
00000691 00000110 591.80 263.28 393.93 528.61 751.82 482.92 935.72 477.19 886.67 587.02 774.94 673.74 915.70 668.84
00000692 00000111 591.96 260.27 393.93 527.95 751.65 479.96 936.83 475.14 886.78 583.68 773.84 669.38 917.17 665.19
00000693 00000112 592.88 259.96 391.53 530.44 752.44 479.90 936.43 473.31 888.25 581.40 775.69 669.62 918.79 663.88
00000694 00000113 592.18 261.06 390.81 535.56 756.11 481.55 932.89 473.90 890.58 579.29 779.52 673.76 915.14 666.99
00000695 00000114 588.71 259.04 395.18 551.61 753.32 481.24 929.63 475.90 887.02 581.32 771.94 676.72 912.31 672.62
00000696 00000115 588.02 258.13 394.46 556.73 754.56 480.11 928.91 473.97 889.63 581.58 766.82 676.19 910.79 672.28
00000697 00000116 587.37 254.69 394.19 550.88 754.61 477.80 930.22 472.40 888.87 578.80 769.30 671.13 911.82 667.46
00000698 00000117 587.90 254.28 391.57 545.48 753.98 477.79 929.07 471.54 887.21 577.64 771.65 670.04 911.40 665.40
00000699 00000118 586.89 252.86 390.50 548.13 753.02 479.19 927.22 473.14 885.65 576.71 772.33 671.13 910.50 666.46
00000700 00000119 583.76 251.33 391.79 547.58 749.27 481.64 925.41 474.91 882.90 577.43 773.70 674.65 909.94 668.58
00000701 00000120 580.68 247.37 393.01 547.04 741.73 485.77 922.49 477.57 875.56 580.75 771.01 677.11 908.17 669.43
00000702 00000121 578.59 249.96 391.62 540.58 734.52 486.53 921.52 477.24 870.84 583.23 767.58 678.71 908.30 669.98
00000703 00000122 572.53 249.98 390.54 547.71 731.67 484.34 912.57 476.80 865.83 580.85 766.09 681.42 900.00 674.02
00000704 00000123 565.89 249.31 393.23 559.19 727.68 482.16 902.50 476.36 858.89 581.50 758.37 684.26 888.59 678.80
00000705 00000124 560.42 255.11 394.97 555.53 721.39 480.65 899.27 475.49 855.66 577.52 744.46 676.81 888.39 672.26
00000706 00000125 558.24 257.61 393.76 548.41 718.76 480.41 894.13 473.08 852.10 576.82 744.35 673.59 885.65 667.22
00000707 00000126 556.44 255.09 391.14 546.74 717.41 481.76 887.82 472.23 847.35 577.13 748.16 674.51 879.90 666.47
00000708 00000127 554.80 253.97 388.76 547.16 713.91 485.20 884.63 473.20 845.68 579.41 746.57 676.10 878.66 666.08
00000709 00000128 549.59 259.07 389.80 544.15 709.29 490.58 878.94 475.24 841.66 584.94 741.65 677.85 876.66 665.22
00000710 00000129 545.00 258.46 391.74 547.13 702.52 491.75 875.08 473.58 837.11 588.67 735.25 681.17 873.20 666.61
00000711 00000130 542.16 254.63 392.37 549.96 697.55 488.02 873.46 472.16 834.11 584.21 729.33 677.24 871.52 664.86
00000712 00000131 539.54 255.12 392.65 546.18 694.93 486.75 870.22 469.48 829.85 582.74 725.54 672.69 867.28 659.92
00000713 00000132 537.22 253.15 391.60 548.87 691.70 488.26 866.72 470.20 825.34 585.18 721.68 673.45 865.16 660.15
00000714 00000133 533.12 251.14 393.00 550.39 687.97 490.84 862.21 471.47 820.69 587.33 720.29 676.98 861.14 662.68
00000715 00000134 528.54 253.62 395.79 547.31 684.48 492.62 856.52 470.44 816.23 589.44 719.31 678.87 857.06 662.56
00000716 00000135 526.27 252.75 396.38 549.83 681.19 493.20 853.93 470.97 813.61 591.23 717.63 682.87 854.87 666.29
00000717 00000136 521.87 257.26 399.02 547.94 678.00 492.56 851.13 470.97 809.80 592.65 715.50 685.26 851.35 669.09
00000718 00000137 520.62 259.72 398.11 544.20 676.12 494.41 849.91 472.95 805.40 594.02 711.34 684.34 848.31 668.28
00000719 00000138 520.03 259.93 398.70 541.86 673.97 498.60 849.68 476.52 801.47 593.62 707.53 683.29 847.68 666.66
00000720 00000139 520.19 258.45 397.40 543.23 671.92 498.89 847.63 477.33 798.74 592.40 706.76 682.53 847.78 666.22
00000721 00000140 520.83 258.32 396.77 543.62 671.75 498.70 846.60 477.45 798.27 592.48 707.22 682.79 847.30 666.65
00000722 00000141 520.89 258.49 396.66 544.40 671.13 498.44 845.66 477.82 797.24 592.67 705.71 682.16 846.91 666.52
00000723 00000142 520.36 259.15 396.84 543.64 669.40 498.89 845.11 477.84 795.75 592.56 703.86 681.85 847.44 665.81
00000724 00000143 519.23 260.76 396.59 542.31 667.54 499.22 844.40 478.28 793.78 593.19 700.87 681.77 846.84 665.83
00000725 00000144 518.76 260.95 397.51 541.14 667.24 501.04 843.71 479.64 792.68 593.06 700.24 680.50 847.12 664.16
00000726 00000145 520.63 261.71 393.68 536.09 665.06 504.93 848.48 487.84 795.78 595.44 692.54 681.80 843.90 667.54
00000727 00000146 520.27 259.71 393.45 538.76 665.13 504.32 846.90 487.47 794.63 594.38 692.92 682.39 841.95 668.30
00000728 00000147 520.69 258.70 393.75 541.51 665.40 503.34 847.38 487.00 794.89 594.40 692.43 682.37 842.23 668.80
00000729 00000148 522.61 256.62 395.81 547.60 669.63 499.09 846.01 480.71 794.76 593.65 699.25 680.13 846.68 666.30
00000730 00000149 524.44 257.49 394.83 546.49 672.34 500.55 847.57 481.35 797.19 595.83 699.29 679.87 847.19 665.51
00000731 00000150 526.63 259.86 392.87 540.61 674.83 501.95 848.14 481.81 797.70 596.53 700.16 677.39 846.93 662.51
00000732 00000151 528.60 261.41 391.64 537.65 676.42 503.14 848.82 482.35 797.78 596.96 701.39 676.10 846.51 660.62
00000733 00000152 529.33 261.74 391.86 538.39 677.36 502.52 849.82 481.19 800.04 596.73 705.09 678.78 848.14 662.91
00000734 00000153 530.25 262.69 391.75 537.53 678.29 503.00 851.03 480.90 802.26 596.47 707.75 680.07 850.74 663.37
00000735 00000154 532.92 265.44 389.92 535.73 680.89 504.82 853.18 482.31 805.24 597.46 711.68 681.34 852.75 664.11
00000736 00000155 535.61 266.84 388.39 534.26 682.96 506.09 855.58 482.95 807.91 597.79 714.07 682.23 854.23 664.44
00000737 00000156 537.48 271.41 388.26 530.93 684.18 507.63 857.30 484.69 808.34 599.05 715.51 682.19 855.81 664.36
00000738 00000157 539.61 270.11 387.83 533.23 686.57 508.00 859.21 485.44 810.81 600.47 717.64 682.56 857.79 664.95
00000739 00000158 539.03 269.38 389.65 535.21 688.06 510.86 861.11 486.99 813.87 602.68 719.56 684.55 859.93 665.86
00000740 00000159 539.60 273.73 389.65 532.46 690.14 511.63 864.04 487.53 816.35 605.10 721.69 686.90 859.77 668.20
00000741 00000160 538.84 275.37 390.44 531.39 689.85 513.98 864.34 489.50 816.10 607.40 720.85 689.07 858.51 670.07
00000742 00000161 539.01 274.14 389.14 533.63 688.31 512.58 862.97 487.68 815.80 607.01 721.65 689.55 861.71 669.80
00000743 00000162 537.71 273.69 390.25 533.96 688.11 509.39 862.49 482.78 817.30 606.79 722.53 689.73 860.80 668.93
00000744 00000163 536.53 275.43 392.09 532.19 687.09 508.16 861.55 480.40 817.14 606.98 722.76 689.53 861.01 667.84
00000745 00000164 535.56 274.80 392.74 534.37 686.79 506.26 860.45 480.02 816.50 605.83 721.79 689.86 858.10 669.69
00000746 00000165 532.71 273.50 395.19 543.93 685.22 504.02 859.96 479.81 816.24 607.61 718.39 692.72 857.70 674.37
00000747 00000166 531.73 270.44 395.73 557.47 681.89 499.91 857.87 478.56 814.31 608.64 712.18 695.48 856.04 679.56
00000748 00000167 530.37 271.60 398.19 562.30 678.30 491.51 854.85 474.14 810.36 608.21 703.71 694.88 848.72 682.56
00000749 00000168 529.53 267.37 401.26 566.59 671.80 488.32 848.75 475.68 796.59 607.22 693.92 692.02 841.86 683.35
00000750 00000169 530.95 267.65 398.33 556.72 668.19 485.11 844.28 478.61 782.63 605.29 684.84 685.64 829.77 682.37
00000751 00000170 534.92 267.22 396.40 544.12 673.42 484.02 851.34 477.48 786.83 603.07 689.27 676.86 833.35 673.48
