Video ID: 	NqviMei_MWE
H: 	1080
W: 	1920
FPS: 	25.0

FRAME INDEX X0 Y0 W H [Landmarks (5 Points)]

00001218 00000000 717.04 179.74 442.13 657.82 956.99 453.35 1113.13 439.00 1130.41 574.97 966.66 682.83 1098.07 674.93
00001219 00000001 707.82 187.53 442.57 651.67 946.09 451.50 1109.86 446.91 1109.42 576.76 953.83 684.45 1087.83 681.05
00001220 DELETE   702.05 174.15 447.80 660.02 925.01 436.25 1097.00 433.78 1089.58 560.15 933.23 671.16 1079.50 671.57
00001221 DELETE   705.43 162.12 444.75 665.55 929.80 418.91 1101.64 425.99 1088.60 547.49 935.60 660.45 1080.86 667.87
00001222 DELETE   722.11 157.82 443.58 666.88 957.59 398.51 1125.19 411.71 1125.82 539.30 947.45 648.74 1098.71 661.90
00001223 00000005 741.09 158.10 444.59 665.54 987.73 402.09 1147.48 422.20 1154.05 529.28 982.71 643.77 1116.43 661.97
00001224 00000006 743.66 155.35 444.31 664.66 992.84 404.54 1148.88 418.59 1164.59 531.42 992.77 646.94 1122.58 660.67
00001225 00000007 738.75 156.37 442.00 659.04 979.76 410.36 1143.34 416.91 1149.66 533.12 992.66 654.01 1122.44 660.70
00001226 00000008 728.55 160.12 448.42 656.80 969.64 413.91 1140.23 412.77 1144.69 535.22 992.70 661.72 1127.96 661.27
00001227 00000009 736.57 161.31 443.92 658.01 974.90 417.75 1144.58 412.08 1150.77 536.76 1004.26 665.81 1138.74 661.38
00001228 00000010 743.35 161.91 443.51 662.42 985.79 423.07 1150.44 416.38 1162.98 541.66 1015.45 671.50 1146.78 666.25
00001229 00000011 734.12 165.64 450.22 674.32 971.91 436.15 1135.62 415.16 1159.65 548.21 1004.74 680.69 1143.77 664.71
00001230 00000012 714.18 179.52 452.98 671.16 962.84 447.76 1122.36 430.46 1139.06 571.31 987.81 695.29 1116.12 681.33
00001231 00000013 700.00 181.43 450.97 675.75 943.35 451.09 1109.33 436.19 1117.38 576.15 968.03 698.53 1104.49 685.65
00001232 00000014 700.68 174.14 450.34 680.61 929.72 451.96 1102.73 430.01 1109.98 567.94 964.83 698.12 1104.91 681.34
00001233 00000015 693.96 177.43 456.66 676.35 939.42 444.27 1108.59 430.61 1114.26 570.72 967.30 695.42 1104.81 683.19
00001234 00000016 700.79 177.49 457.29 678.22 945.87 441.21 1114.22 426.06 1124.31 570.82 973.99 696.77 1110.66 683.57
00001235 00000017 704.24 175.99 458.73 683.69 948.52 437.16 1116.27 423.49 1127.99 567.47 975.38 696.21 1112.27 684.59
00001236 00000018 708.55 171.89 456.56 691.99 947.44 423.91 1116.84 416.93 1127.61 557.21 972.66 691.57 1112.22 685.46
00001237 00000019 706.30 158.16 463.16 691.07 951.99 412.47 1121.04 408.39 1131.77 540.60 971.15 674.86 1112.50 671.31
00001238 00000020 711.33 147.51 462.29 684.11 965.53 402.55 1129.65 404.25 1142.65 524.87 985.16 659.56 1120.41 661.49
00001239 00000021 718.47 143.13 456.79 674.81 973.83 402.39 1132.03 401.04 1148.29 521.69 994.94 654.26 1123.62 654.34
00001240 00000022 723.72 134.36 452.82 684.76 971.40 403.08 1131.23 392.42 1148.19 523.71 994.92 655.81 1128.45 648.07
00001241 00000023 722.14 133.36 451.21 682.40 967.14 399.16 1129.85 388.34 1143.80 520.03 997.77 654.59 1131.67 646.37
00001242 00000024 724.19 132.16 451.37 683.64 969.58 399.79 1132.71 389.31 1146.79 520.92 1002.05 655.93 1135.50 647.97
00001243 00000025 728.26 130.94 451.87 689.23 974.36 403.92 1136.95 391.49 1153.76 525.81 1006.21 660.42 1138.90 650.93
00001244 00000026 727.62 132.77 454.89 692.56 976.13 406.60 1137.84 395.28 1154.43 531.80 1004.31 665.47 1136.09 657.05
00001245 00000027 726.43 132.32 454.93 694.89 978.05 407.66 1137.94 398.75 1153.60 537.28 998.69 665.94 1128.04 659.83
00001246 00000028 725.42 138.41 454.67 695.05 978.51 415.22 1136.84 404.59 1152.27 544.33 994.26 671.22 1123.58 663.88
00001247 00000029 722.69 140.63 458.14 690.48 973.06 420.29 1136.73 407.66 1154.40 550.40 989.49 672.63 1128.57 663.79
00001248 00000030 726.54 143.70 458.44 689.41 974.53 424.37 1141.78 413.46 1154.90 553.58 989.47 674.55 1129.60 667.41
00001249 00000031 731.08 139.50 456.80 691.79 977.03 426.13 1146.72 414.51 1157.41 555.32 992.87 674.94 1134.33 667.13
00001250 00000032 737.39 133.98 452.39 698.20 981.58 423.52 1148.97 412.36 1160.72 554.52 997.62 675.11 1136.90 667.62
00001251 00000033 737.97 127.43 451.24 698.74 983.27 417.88 1147.23 406.05 1161.67 550.00 1001.11 670.58 1137.68 662.22
00001252 00000034 736.78 130.42 446.32 693.24 974.38 411.77 1143.42 398.64 1147.20 538.86 997.78 665.78 1137.42 655.72
00001253 00000035 722.49 128.06 444.56 698.24 949.65 406.17 1121.05 394.73 1120.28 532.28 989.08 668.07 1124.26 658.37
00001254 00000036 711.12 127.88 447.43 700.83 934.23 409.08 1108.12 399.51 1104.16 534.79 976.33 670.00 1112.84 661.41
00001255 00000037 715.18 129.91 449.47 696.49 943.39 412.08 1116.68 399.67 1113.83 534.13 987.11 670.07 1123.24 659.31
00001256 00000038 732.44 140.63 450.91 675.56 971.35 414.96 1146.87 402.81 1150.86 533.65 1011.99 670.70 1149.65 660.26
00001257 00000039 744.41 133.72 454.11 686.94 993.88 412.21 1161.90 400.71 1177.12 534.63 1030.83 671.74 1161.95 662.71
00001258 00000040 746.08 138.16 452.63 687.33 991.56 414.30 1162.41 403.07 1172.67 541.54 1023.07 676.23 1155.75 667.88
00001259 00000041 736.56 153.34 449.01 685.98 973.88 422.53 1146.26 405.14 1155.10 547.54 1001.99 680.76 1138.31 667.30
00001260 00000042 729.17 155.69 453.33 690.62 964.97 426.03 1138.11 411.00 1144.80 549.16 999.04 686.84 1133.97 674.63
00001261 00000043 734.27 159.68 448.48 686.19 974.03 434.81 1145.08 421.23 1152.70 555.91 1014.64 692.59 1145.23 680.80
00001262 00000044 742.20 159.90 448.45 692.06 984.71 441.86 1155.78 428.14 1163.00 562.78 1025.83 699.64 1155.92 687.94
00001263 00000045 745.69 160.48 450.73 697.86 990.05 444.57 1159.14 430.36 1170.33 567.16 1028.61 705.27 1157.87 693.74
00001264 00000046 753.63 154.54 447.98 720.73 990.39 443.14 1155.12 429.49 1174.87 563.69 1022.84 702.14 1157.84 692.07
00001265 00000047 762.63 158.89 453.44 724.19 1000.66 442.09 1164.98 435.77 1186.12 564.88 1024.12 704.62 1161.51 701.30
00001266 00000048 772.47 162.27 454.75 719.51 1010.13 441.79 1171.58 433.51 1194.51 565.58 1027.81 702.72 1165.67 698.45
00001267 00000049 773.63 161.33 455.10 717.70 1012.71 441.95 1175.97 433.97 1195.90 568.49 1029.44 702.45 1167.71 698.34
00001268 00000050 775.25 162.38 454.32 706.82 1014.77 448.86 1178.14 436.33 1192.79 572.84 1039.17 703.10 1171.70 694.79
00001269 00000051 777.54 165.36 452.07 700.56 1015.92 452.09 1180.84 436.87 1192.93 577.90 1045.08 707.11 1174.75 696.37
00001270 00000052 781.40 166.70 452.25 698.63 1020.70 453.48 1184.77 439.38 1195.41 580.02 1052.18 708.62 1179.20 698.74
00001271 00000053 786.58 167.64 450.57 697.18 1025.42 452.66 1188.25 437.70 1198.38 579.89 1055.62 707.28 1182.22 696.81
00001272 00000054 786.23 165.85 452.36 698.60 1026.98 451.57 1187.51 437.20 1199.16 578.42 1054.52 706.46 1179.44 696.83
00001273 00000055 785.49 164.62 451.81 700.46 1023.64 448.10 1184.84 436.73 1194.12 574.31 1048.54 702.35 1175.90 695.09
00001274 00000056 781.47 160.82 452.94 701.89 1018.95 442.16 1181.98 432.09 1191.58 570.48 1042.21 700.68 1170.71 694.65
00001275 00000057 777.40 157.80 450.69 697.56 1012.30 434.56 1178.61 425.08 1185.03 565.05 1038.48 695.60 1168.19 689.62
00001276 00000058 775.83 147.58 447.19 702.18 1007.41 428.42 1173.86 417.92 1178.87 555.63 1038.82 690.22 1168.07 682.89
00001277 00000059 768.10 138.38 446.09 698.42 999.65 426.41 1168.42 415.34 1168.96 551.10 1032.47 683.38 1162.76 675.16
00001278 00000060 759.03 133.99 449.62 692.69 982.25 428.82 1163.12 413.89 1157.67 542.25 1018.81 678.74 1159.91 666.93
00001279 00000061 748.26 133.12 448.29 682.42 966.30 422.59 1151.65 411.30 1139.93 531.48 1003.37 666.87 1150.13 657.45
00001280 00000062 746.05 131.45 441.30 673.98 960.38 404.58 1147.08 397.48 1129.63 519.13 996.19 653.60 1141.53 647.09
00001281 00000063 735.15 129.52 440.67 671.73 945.87 388.83 1131.70 388.42 1114.50 508.42 982.78 641.63 1128.81 639.89
00001282 00000064 725.89 124.41 440.03 669.94 929.83 380.13 1117.69 385.47 1095.56 499.50 967.65 630.57 1116.88 633.26
00001283 00000065 718.16 117.24 445.53 674.11 920.31 370.67 1108.08 383.09 1082.13 488.45 958.25 624.63 1104.60 633.18
00001284 00000066 710.75 110.35 447.67 693.10 904.41 351.83 1098.66 372.26 1067.11 474.44 931.95 616.98 1090.61 631.75
00001285 00000067 704.84 111.74 444.38 694.85 891.02 346.26 1092.07 373.81 1054.93 468.97 904.89 615.41 1073.96 636.81
00001286 00000068 696.16 113.54 441.65 686.72 871.06 359.31 1078.29 370.98 1032.73 474.98 888.16 620.19 1062.94 629.68
00001287 00000069 687.24 114.39 443.18 688.02 847.21 368.36 1058.56 373.66 1001.22 484.08 864.78 620.85 1048.79 624.32
00001288 DELETE   677.06 118.42 442.44 685.85 817.98 371.68 1032.65 378.87 960.95 489.72 834.03 622.77 1021.96 627.35
00001289 00000071 668.09 126.79 447.06 676.37 793.55 377.46 1010.94 383.38 917.23 498.79 806.71 625.51 995.32 629.26
00001290 DELETE   662.98 127.74 443.36 675.16 773.82 385.91 992.76 394.21 881.08 511.19 774.86 627.54 967.32 634.17
00001291 00000073 653.30 129.60 450.06 678.87 754.00 391.38 972.89 398.87 848.73 514.19 755.42 633.81 944.87 640.17
00001292 DELETE   645.52 131.01 452.07 683.30 742.57 392.57 959.79 405.33 830.94 520.19 741.24 636.16 927.32 647.24
00001293 00000075 642.29 143.88 446.97 669.16 732.70 393.65 947.02 417.10 799.93 525.84 728.10 637.69 911.87 655.01
00001294 00000076 641.99 146.84 441.32 670.20 729.24 397.22 938.48 422.59 791.84 530.77 721.93 641.70 900.71 660.65
00001295 00000077 640.61 151.49 440.10 670.54 726.22 401.11 935.09 424.78 789.34 534.81 719.82 647.16 897.25 665.07
00001296 00000078 641.84 155.57 438.88 673.95 726.14 404.04 935.11 425.24 789.00 537.57 720.58 653.07 897.01 669.18
00001297 00000079 638.25 156.12 444.19 676.12 728.13 409.02 939.24 431.07 793.32 541.83 722.87 654.23 905.27 670.12
00001298 00000080 639.88 159.40 445.67 674.98 732.52 410.92 946.27 431.05 800.30 543.90 729.42 657.80 910.49 671.96
00001299 00000081 641.66 159.56 446.28 674.27 737.02 412.97 954.12 431.80 810.68 545.56 734.54 659.35 917.33 672.43
00001300 00000082 644.38 160.02 446.87 672.09 742.84 413.90 961.71 431.09 822.67 545.29 741.00 659.68 923.38 671.35
00001301 00000083 649.14 151.69 444.94 681.19 750.90 409.05 965.72 424.45 840.37 542.61 749.52 654.29 929.03 667.97
00001302 00000084 650.41 149.64 444.70 680.12 755.79 410.07 972.65 424.20 851.21 542.36 756.09 652.82 937.09 665.54
00001303 00000085 652.59 148.64 444.46 673.10 758.33 412.29 978.25 423.39 859.85 541.97 762.03 650.30 949.07 659.99
00001304 00000086 655.46 151.00 440.07 662.81 762.00 414.28 984.63 420.69 870.73 540.65 768.48 648.29 961.09 653.70
00001305 00000087 658.25 150.49 440.12 664.63 771.11 414.13 993.03 418.92 884.84 543.41 777.61 648.71 972.23 652.84
00001306 00000088 660.78 152.55 441.10 666.73 784.44 411.31 1003.68 415.54 906.30 538.35 797.36 651.12 986.76 654.84
00001307 00000089 665.49 152.79 441.05 673.48 796.83 410.73 1009.53 415.83 922.87 538.64 815.06 655.75 993.20 660.30
00001308 00000090 672.69 148.00 439.12 681.22 809.69 412.96 1019.71 417.53 942.35 539.80 829.40 661.45 1004.49 665.58
00001309 00000091 676.59 146.84 438.56 685.98 820.90 413.74 1028.15 415.99 959.08 539.97 844.45 664.86 1016.73 666.73
00001310 00000092 676.89 148.62 441.39 685.11 834.70 410.73 1042.72 412.09 978.83 538.33 863.63 665.86 1028.65 664.04
00001311 00000093 679.46 148.88 444.37 682.19 843.05 411.13 1050.55 409.91 992.16 535.11 877.20 665.85 1038.83 662.23
00001312 00000094 684.30 150.38 442.06 672.65 853.25 413.55 1057.59 408.12 1004.64 536.73 896.46 669.12 1049.54 662.14
00001313 00000095 688.49 151.34 437.51 665.25 863.44 417.23 1065.08 406.94 1021.38 534.79 916.57 674.04 1064.28 663.43
00001314 00000096 694.20 151.97 432.75 659.67 870.54 419.82 1070.43 406.70 1030.60 539.29 926.27 678.17 1072.18 665.78
00001315 00000097 697.35 155.68 431.81 662.36 879.78 424.32 1076.73 405.23 1045.33 541.42 938.03 685.40 1082.13 668.50
00001316 00000098 703.95 152.22 431.72 675.18 882.04 428.08 1068.29 411.89 1042.90 542.42 941.14 681.66 1078.67 668.33
00001317 00000099 706.41 151.79 432.37 679.32 885.95 429.19 1071.88 410.92 1048.47 544.58 947.76 685.38 1082.96 670.30
00001318 00000100 708.86 150.64 431.03 682.17 889.95 429.21 1074.28 409.40 1052.24 545.33 954.31 687.08 1085.61 670.74
00001319 00000101 710.41 152.58 430.62 683.22 891.63 428.45 1075.56 409.87 1054.71 545.46 954.81 687.56 1085.46 672.45
00001320 00000102 709.56 154.18 432.22 683.30 889.23 426.72 1074.24 411.96 1051.98 545.43 945.42 684.72 1080.37 672.93
00001321 00000103 700.41 162.95 438.00 667.99 887.61 421.32 1086.17 404.83 1056.73 547.79 934.87 687.21 1084.70 673.22
00001322 00000104 697.28 160.03 440.45 668.65 883.62 419.84 1082.79 404.45 1048.61 547.72 922.00 679.95 1077.60 667.40
00001323 00000105 695.22 153.97 440.03 667.54 877.58 416.58 1079.61 406.48 1037.56 546.32 913.26 671.64 1072.57 662.90
00001324 00000106 694.52 150.20 439.56 664.23 873.14 413.30 1075.23 404.75 1030.03 542.41 909.20 665.83 1068.60 658.01
00001325 00000107 694.43 147.73 440.52 662.71 871.59 410.81 1075.59 403.93 1027.62 540.16 906.04 661.55 1067.58 655.01
00001326 00000108 697.22 143.82 439.55 662.53 876.44 407.68 1077.63 402.39 1031.60 536.61 905.95 655.34 1067.20 650.59
00001327 00000109 699.70 141.92 439.30 659.65 885.15 405.59 1081.33 398.81 1041.16 532.87 909.82 648.21 1071.61 642.95
00001328 00000110 707.94 136.76 437.12 670.09 890.59 398.04 1080.40 395.07 1045.72 529.65 913.18 644.44 1075.16 641.78
00001329 00000111 713.91 134.57 435.34 667.05 896.26 395.72 1083.92 393.85 1051.72 524.77 922.44 640.58 1081.23 638.43
00001330 00000112 718.52 132.56 434.85 667.18 904.94 395.06 1092.07 393.05 1061.12 524.63 929.37 637.54 1089.51 635.20
00001331 00000113 721.42 132.65 436.12 665.80 910.54 394.59 1098.54 392.13 1068.19 523.99 935.49 636.18 1096.28 633.17
00001332 00000114 723.45 131.83 435.48 667.98 912.70 394.96 1100.37 391.24 1071.30 523.15 938.43 637.06 1099.31 633.08
00001333 00000115 724.15 130.61 433.51 677.37 911.74 393.11 1097.30 389.83 1071.58 522.38 936.69 640.91 1095.99 637.54
00001334 00000116 720.10 129.24 436.65 678.13 906.49 389.37 1092.59 388.90 1065.08 518.12 931.89 636.72 1091.73 635.25
00001335 00000117 718.42 129.95 434.96 671.97 899.30 385.73 1086.75 388.37 1053.41 510.69 927.30 631.51 1086.52 632.05
00001336 00000118 714.41 128.06 435.56 662.06 891.63 382.15 1084.74 383.97 1044.02 505.13 921.99 625.53 1083.81 625.24
00001337 00000119 714.86 120.93 437.89 661.87 884.06 385.25 1086.97 380.75 1040.24 501.57 920.97 620.86 1082.21 617.39
00001338 00000120 712.29 120.85 438.28 666.59 876.31 385.23 1081.78 381.72 1032.28 501.98 913.82 624.59 1076.07 621.89
00001339 00000121 707.26 124.02 438.58 661.58 874.55 385.56 1078.77 383.26 1029.82 502.24 910.79 634.63 1072.80 631.88
00001340 00000122 702.73 125.48 441.06 664.79 869.00 387.26 1073.10 383.68 1020.86 505.71 904.75 635.76 1068.61 631.39
00001341 00000123 698.09 127.12 443.55 660.70 862.62 387.32 1067.71 381.80 1014.08 504.86 901.31 634.09 1065.51 627.72
00001342 00000124 692.26 127.41 448.47 672.24 858.22 389.63 1061.29 384.46 1004.35 507.86 893.76 633.35 1052.61 627.13
00001343 00000125 691.36 132.03 449.25 674.99 854.74 390.28 1059.38 387.01 1000.18 508.21 888.46 637.64 1048.76 632.84
00001344 00000126 690.50 132.89 447.90 681.95 848.77 391.53 1055.14 388.52 995.52 504.22 880.60 638.91 1047.55 634.19
00001345 00000127 687.21 130.48 449.76 693.21 840.44 392.68 1051.23 390.74 986.51 505.86 870.46 642.75 1042.06 638.60
00001346 00000128 683.55 131.86 448.17 694.84 829.64 393.06 1044.66 391.52 972.14 516.08 855.17 644.78 1032.06 641.02
00001347 00000129 682.30 137.37 441.07 686.76 817.60 394.58 1035.29 395.94 955.30 515.45 838.99 642.10 1021.20 640.18
00001348 00000130 681.31 140.72 437.36 679.63 805.65 393.53 1022.39 396.15 934.74 515.52 825.07 636.72 1009.99 635.69
00001349 00000131 675.68 133.35 436.82 673.37 793.61 392.98 1004.58 393.11 914.02 515.44 810.66 632.56 997.06 631.45
00001350 00000132 673.84 133.24 433.98 662.03 786.95 392.94 1001.46 394.02 903.71 516.30 801.33 626.65 992.19 626.08
00001351 00000133 672.56 132.02 434.64 658.80 787.09 391.70 1002.39 392.49 905.65 515.44 803.12 623.49 995.39 622.34
00001352 00000134 676.64 132.66 435.39 659.37 797.61 391.21 1011.10 390.73 922.20 509.41 817.19 622.77 1008.06 620.43
00001353 00000135 679.31 131.39 440.02 668.84 812.01 392.11 1025.06 389.17 947.73 512.11 835.44 632.86 1018.95 628.82
00001354 DELETE   686.77 130.38 439.35 676.21 836.02 393.93 1042.73 390.96 977.30 513.91 859.00 635.84 1036.51 631.80
00001355 DELETE   691.33 136.29 442.53 669.26 858.78 400.05 1059.94 392.93 1009.13 517.62 888.63 636.38 1054.81 628.96
00001356 DELETE   703.60 134.32 435.68 674.16 890.17 404.49 1077.47 389.96 1048.44 517.38 916.49 643.08 1078.06 631.61
00001357 00000139 716.28 139.83 433.33 672.19 907.14 405.95 1082.81 390.81 1071.07 523.22 940.47 649.62 1091.58 637.17
00001358 00000140 724.38 139.42 429.46 665.84 922.65 411.03 1098.40 390.56 1091.61 522.60 957.86 650.38 1105.65 633.47
00001359 00000141 733.01 140.88 427.80 659.56 935.75 413.42 1107.22 387.57 1105.31 521.83 971.22 650.06 1115.28 628.91
00001360 00000142 737.37 142.51 428.77 657.04 945.49 411.44 1113.92 383.79 1118.90 520.38 979.97 649.81 1119.78 627.76
00001361 00000143 738.53 139.07 432.01 659.44 952.04 408.45 1117.79 380.23 1127.96 514.80 988.00 647.31 1125.31 624.91
00001362 00000144 739.99 138.36 430.94 657.93 953.95 405.09 1117.11 378.35 1128.93 510.13 988.88 643.06 1125.48 622.00
00001363 00000145 736.75 137.21 431.60 656.89 949.62 400.63 1114.81 377.29 1123.14 508.11 984.41 639.63 1122.48 621.00
00001364 00000146 731.69 132.77 430.32 659.11 938.54 394.00 1109.09 377.77 1111.10 505.15 971.61 632.97 1115.13 619.54
00001365 00000147 725.10 130.19 428.10 667.37 928.73 391.18 1100.25 380.74 1099.82 504.24 958.87 631.66 1105.27 622.71
00001366 00000148 717.85 129.99 430.95 674.31 920.38 388.16 1091.36 382.98 1090.74 503.37 945.80 631.50 1092.99 627.25
00001367 00000149 714.84 131.29 429.70 675.60 912.93 386.39 1085.01 386.19 1077.11 503.40 932.59 628.89 1084.16 628.56
00001368 00000150 714.09 131.67 426.77 676.55 906.10 383.96 1081.40 384.77 1070.81 501.91 926.38 630.71 1079.93 631.04
00001369 00000151 711.80 132.07 426.65 676.97 905.17 384.51 1080.19 386.39 1069.66 502.47 924.59 632.08 1077.07 633.28
00001370 00000152 712.41 132.12 426.42 676.49 906.67 385.39 1081.74 386.57 1071.97 503.62 928.28 633.63 1079.11 634.10
00001371 00000153 714.05 133.03 427.18 675.31 911.38 388.87 1085.49 388.59 1077.66 504.69 935.35 636.62 1083.34 636.15
00001372 00000154 714.16 133.30 428.88 671.22 916.43 395.16 1093.88 395.29 1082.83 507.36 946.04 639.44 1090.94 639.10
00001373 00000155 713.05 134.09 431.64 667.24 920.99 400.43 1096.17 396.54 1089.38 507.66 952.44 639.64 1093.29 636.02
00001374 00000156 714.49 135.35 432.34 662.44 919.21 405.29 1096.22 397.86 1083.04 512.39 954.25 641.97 1094.89 635.14
00001375 DELETE   711.33 137.15 432.18 657.05 905.82 405.10 1091.27 398.00 1069.55 515.60 944.96 643.09 1091.49 636.38
00001376 00000158 706.32 137.69 428.63 651.14 890.34 401.58 1076.77 391.80 1048.04 515.97 931.40 640.94 1083.19 631.88
00001377 00000159 702.36 135.47 427.31 644.27 872.13 401.13 1069.73 393.06 1026.68 519.01 916.31 644.40 1070.31 636.05
00001378 00000160 692.15 135.99 434.49 648.40 852.48 401.23 1051.33 391.97 1001.79 516.86 895.74 641.64 1053.17 632.38
00001379 00000161 687.86 134.29 432.66 648.92 837.49 397.82 1041.06 395.69 981.78 515.01 872.65 635.65 1037.32 632.29
00001380 00000162 685.36 132.24 432.70 653.00 828.95 396.17 1036.02 395.43 969.38 514.98 856.98 634.12 1027.76 631.94
00001381 00000163 684.44 131.29 434.18 658.49 826.04 394.44 1033.02 394.47 964.75 513.43 851.23 633.99 1023.37 632.66
00001382 00000164 684.25 130.53 435.31 660.54 827.62 394.78 1034.33 394.64 967.00 513.03 851.62 632.98 1025.31 631.48
00001383 00000165 686.79 130.66 433.93 656.77 833.67 394.81 1038.77 394.46 974.26 512.95 860.33 632.39 1030.47 630.68
00001384 00000166 691.01 134.09 432.98 647.36 841.26 395.77 1046.63 393.59 986.08 512.06 877.21 634.19 1041.88 630.47
