Video ID: 	FwsQ-pngnIk
H: 	1080
W: 	1920
FPS: 	25.0

FRAME INDEX X0 Y0 W H [Landmarks (5 Points)]

00004864 00000000 876.48 130.35 519.63 730.76 967.34 441.57 1187.30 412.76 1058.05 581.11 1030.40 699.70 1194.75 675.80
00004865 00000001 874.77 133.54 522.54 725.98 965.51 437.00 1188.77 406.49 1058.75 577.91 1032.08 697.99 1198.08 672.44
00004866 00000002 874.95 133.27 521.89 722.33 965.18 433.92 1187.57 404.63 1056.74 574.09 1029.39 691.91 1193.57 667.42
00004867 00000003 874.98 131.78 522.47 722.77 966.66 431.53 1189.64 403.24 1058.70 571.76 1029.69 690.46 1193.22 666.97
00004868 00000004 874.21 128.55 524.08 727.81 969.53 432.26 1194.75 402.17 1066.38 572.43 1033.65 693.20 1201.05 668.07
00004869 00000005 873.49 126.65 525.68 729.65 970.06 431.23 1196.44 400.45 1069.01 572.47 1035.24 694.29 1202.88 668.59
00004870 00000006 874.62 128.85 525.33 729.76 970.67 429.64 1196.28 400.79 1067.67 571.85 1034.23 692.58 1201.37 668.50
00004871 00000007 875.80 133.13 524.00 723.16 972.51 429.09 1198.60 401.67 1070.05 572.25 1035.51 689.56 1203.02 666.70
00004872 00000008 877.74 134.27 523.17 721.22 976.06 430.01 1203.98 402.30 1076.13 570.80 1037.82 689.82 1207.16 666.75
00004873 00000009 879.18 133.66 522.44 722.31 978.29 429.91 1206.31 403.30 1077.83 569.66 1037.92 689.01 1207.94 666.91
00004874 00000010 882.08 130.85 519.52 725.27 982.20 430.75 1207.65 405.27 1080.53 568.95 1039.15 688.64 1207.95 667.74
00004875 00000011 884.17 130.55 517.77 724.59 985.21 429.56 1212.56 404.97 1086.25 568.76 1040.80 688.70 1210.83 668.61
00004876 00000012 884.56 127.16 521.38 726.04 989.46 426.93 1218.62 403.18 1092.40 567.34 1045.55 686.21 1217.04 666.71
00004877 00000013 885.89 131.26 519.73 720.18 991.01 424.41 1222.15 402.72 1095.16 567.73 1045.80 684.88 1217.22 667.18
00004878 00000014 887.76 131.51 519.36 722.82 992.64 423.00 1224.03 402.68 1096.90 568.41 1045.63 685.61 1218.06 669.13
00004879 00000015 892.43 132.39 516.14 719.33 996.50 420.78 1232.85 399.82 1107.51 569.71 1050.48 684.32 1226.54 667.24
00004880 00000016 894.63 130.15 519.56 720.89 997.21 417.81 1240.46 396.86 1113.06 569.21 1052.91 683.51 1235.91 666.33
00004881 00000017 894.73 131.70 518.21 714.64 995.80 413.53 1236.04 393.62 1108.40 561.99 1051.38 677.31 1229.90 661.04
00004882 DELETE   895.70 124.03 515.78 715.05 994.24 406.55 1232.28 386.24 1104.24 550.40 1048.73 670.67 1222.95 654.11
00004883 DELETE   899.94 112.84 512.72 720.23 999.63 400.58 1233.96 381.15 1107.00 534.93 1052.35 662.28 1222.05 646.36
00004884 DELETE   901.38 109.52 510.93 718.71 1001.18 391.30 1231.38 371.05 1105.94 521.09 1054.73 652.72 1219.66 636.22
00004885 00000021 893.58 101.60 521.70 723.62 1006.66 382.02 1235.42 357.16 1108.86 501.78 1056.65 647.93 1219.53 627.91
00004886 00000022 906.32 92.13 503.20 728.16 1003.98 376.23 1233.35 353.48 1109.54 500.14 1053.41 644.98 1226.89 626.90
00004887 00000023 907.67 87.46 502.05 734.49 1003.21 376.57 1235.61 352.39 1110.92 502.80 1050.73 644.02 1235.18 624.43
00004888 00000024 903.97 97.00 508.55 732.47 1006.48 379.36 1235.95 355.66 1114.99 507.40 1057.95 650.34 1233.57 631.49
00004889 00000025 902.24 101.19 509.65 732.28 1006.59 379.26 1233.97 356.47 1112.23 505.49 1056.75 650.47 1229.14 632.44
00004890 00000026 903.37 97.86 506.03 725.53 1005.87 379.04 1233.53 356.96 1110.94 504.15 1053.33 644.72 1228.34 627.22
00004891 00000027 905.18 100.30 503.63 718.74 1008.06 379.73 1237.20 358.53 1114.28 505.15 1054.88 642.41 1231.26 625.65
00004892 00000028 906.43 95.78 503.61 723.17 1008.87 380.87 1241.59 358.91 1118.51 507.62 1055.97 643.72 1236.42 626.14
00004893 00000029 907.94 92.07 501.58 722.31 1009.46 378.70 1242.26 358.29 1119.92 505.96 1055.00 639.43 1237.88 623.03
00004894 00000030 908.28 89.73 501.00 719.50 1010.36 376.72 1244.10 357.65 1121.20 504.15 1055.04 635.95 1237.91 620.66
00004895 00000031 909.62 90.67 500.83 718.45 1011.17 375.24 1247.24 356.27 1123.91 504.90 1056.37 636.73 1240.69 621.60
00004896 00000032 911.48 93.15 499.78 719.42 1013.58 377.29 1250.64 357.50 1127.64 507.93 1060.47 641.09 1243.73 625.46
00004897 00000033 912.44 93.81 501.74 720.75 1016.02 379.32 1253.63 358.37 1132.60 510.62 1064.94 644.03 1248.69 627.44
00004898 00000034 912.07 99.81 505.04 717.64 1018.21 381.09 1257.65 360.00 1137.54 515.71 1069.58 647.32 1253.25 630.68
00004899 00000035 912.44 101.49 506.94 718.15 1022.39 381.53 1262.61 360.63 1144.49 517.72 1074.74 648.67 1258.64 632.24
00004900 00000036 913.47 97.92 507.16 724.65 1027.05 382.76 1267.77 361.60 1151.93 518.33 1080.65 650.51 1265.70 633.88
00004901 DELETE   913.76 97.93 509.96 735.36 1046.35 387.40 1278.81 375.80 1165.94 519.85 1088.42 650.40 1270.53 641.67
00004902 DELETE   920.67 93.73 506.39 743.23 1052.97 402.75 1287.28 385.41 1178.74 525.21 1094.44 657.67 1281.83 644.31
00004903 00000039 923.39 97.29 506.84 739.31 1058.69 403.86 1294.52 385.42 1189.11 527.46 1103.49 660.72 1291.65 646.42
00004904 00000040 921.21 100.26 510.12 728.11 1063.17 401.71 1297.57 387.29 1200.99 529.11 1111.76 658.98 1294.83 646.73
00004905 00000041 923.48 101.38 511.91 732.69 1068.91 398.67 1303.63 383.29 1210.28 529.10 1120.25 661.33 1302.16 648.14
00004906 00000042 925.60 102.75 513.48 734.93 1074.88 396.88 1309.93 380.25 1221.00 526.32 1128.09 663.69 1308.50 649.26
00004907 00000043 927.87 101.89 513.72 734.38 1079.18 395.25 1314.29 378.65 1227.44 528.12 1135.27 665.65 1312.30 651.12
00004908 00000044 929.47 98.90 514.79 735.26 1081.07 396.70 1319.74 377.79 1233.90 528.61 1138.04 663.67 1321.85 646.92
00004909 00000045 931.67 100.67 515.68 734.34 1085.90 396.56 1324.58 376.38 1241.42 527.09 1144.30 663.93 1326.67 646.16
00004910 00000046 932.49 101.64 519.91 733.11 1089.66 397.20 1327.07 372.27 1245.51 527.33 1153.35 666.10 1325.37 641.95
00004911 00000047 933.61 104.90 520.10 727.65 1092.10 398.26 1328.66 373.46 1248.80 527.89 1156.15 666.09 1326.83 642.13
00004912 00000048 921.91 195.52 404.35 558.26 1037.79 427.12 1218.47 416.17 1144.72 523.39 1076.59 621.08 1220.55 611.50
00004913 00000049 920.86 192.77 405.53 560.18 1037.03 425.52 1216.79 415.09 1142.96 521.99 1076.73 620.47 1218.56 611.29
00004914 00000050 921.79 191.27 403.71 559.37 1036.53 424.69 1217.06 413.39 1143.35 521.22 1077.81 619.52 1220.83 609.50
00004915 00000051 921.91 188.72 403.10 559.47 1036.02 421.64 1217.17 410.70 1142.60 518.50 1077.53 617.42 1220.16 607.69
00004916 00000052 921.45 187.13 403.64 560.56 1036.23 418.87 1215.65 406.98 1142.07 516.77 1078.96 616.83 1218.30 606.34
00004917 00000053 919.69 185.47 404.93 560.02 1037.34 416.25 1213.49 406.80 1141.00 514.45 1080.12 614.32 1213.77 605.69
00004918 00000054 919.48 183.40 404.58 560.63 1038.26 414.03 1214.09 405.97 1141.53 512.03 1080.95 613.02 1212.38 605.48
00004919 00000055 919.81 183.26 404.37 560.40 1039.21 412.43 1214.44 404.27 1142.93 510.40 1082.41 612.38 1212.81 604.76
00004920 00000056 919.63 183.44 404.93 560.79 1039.28 411.94 1215.48 404.13 1143.34 510.30 1082.26 612.32 1213.44 605.00
00004921 00000057 921.41 184.11 404.11 559.36 1039.38 412.90 1217.70 403.37 1145.39 510.48 1082.55 611.78 1217.86 603.04
00004922 00000058 922.32 182.91 402.71 561.79 1039.72 412.91 1218.10 403.04 1146.20 510.87 1081.50 611.86 1218.45 602.82
00004923 00000059 922.02 182.48 404.24 564.87 1039.52 413.44 1218.81 402.99 1147.14 511.42 1080.71 613.55 1219.23 603.98
00004924 00000060 921.67 184.01 404.17 563.91 1039.77 414.09 1219.34 404.18 1147.33 511.66 1080.57 614.59 1218.34 605.51
00004925 00000061 921.09 184.40 404.51 563.49 1040.38 414.53 1219.60 405.03 1147.93 512.26 1081.38 615.47 1217.71 606.78
00004926 00000062 920.46 183.17 405.94 565.81 1040.13 415.13 1219.11 406.10 1147.32 513.60 1081.58 616.74 1217.77 608.43
00004927 00000063 920.86 184.81 404.93 563.94 1040.14 416.73 1220.02 406.53 1148.63 516.99 1082.74 617.60 1220.60 608.43
00004928 00000064 922.04 184.74 403.18 562.71 1039.97 416.53 1222.78 406.14 1150.20 517.68 1081.95 616.45 1224.65 607.14
00004929 00000065 921.44 184.65 403.61 564.76 1040.76 416.84 1222.28 406.63 1150.70 517.38 1080.80 615.90 1223.43 606.79
00004930 00000066 920.10 184.88 405.79 571.05 1040.64 417.59 1221.40 407.35 1150.55 518.11 1080.18 618.65 1222.53 609.55
00004931 00000067 918.59 186.21 408.07 574.00 1040.52 417.41 1220.36 407.94 1150.07 518.42 1079.14 620.39 1220.95 611.94
00004932 00000068 918.81 189.11 407.98 571.32 1041.16 418.10 1221.59 408.74 1151.09 519.44 1079.64 621.21 1221.80 612.81
00004933 00000069 919.51 187.46 407.26 572.00 1042.04 418.82 1222.11 408.95 1152.34 520.08 1081.05 621.82 1222.73 613.00
00004934 00000070 925.59 196.71 406.00 560.64 1045.66 416.80 1225.56 405.42 1155.83 520.01 1082.83 622.91 1216.38 611.43
00004935 00000071 926.73 196.31 405.22 560.93 1047.00 417.87 1226.88 406.70 1158.14 522.96 1084.88 625.38 1217.10 614.10
00004936 00000072 926.82 195.73 405.44 560.37 1049.13 419.52 1229.30 409.36 1161.34 526.73 1085.28 624.95 1221.45 614.50
00004937 00000073 927.55 199.82 404.75 557.30 1050.68 420.08 1231.65 410.09 1164.20 529.48 1085.65 626.00 1222.97 615.77
00004938 00000074 928.66 203.64 404.35 555.27 1051.72 421.94 1233.06 410.81 1166.18 530.69 1086.53 627.57 1225.46 616.44
00004939 00000075 930.74 206.64 403.50 553.24 1052.90 424.00 1234.16 410.60 1168.25 531.20 1089.41 630.04 1227.15 616.92
00004940 00000076 931.21 208.23 403.05 553.06 1053.27 424.88 1235.74 411.13 1170.11 532.95 1090.11 631.81 1229.89 618.31
00004941 00000077 932.16 209.46 401.64 553.72 1053.06 425.67 1235.93 410.90 1170.62 534.00 1091.84 635.13 1229.48 620.60
00004942 00000078 933.02 207.55 400.33 555.77 1053.35 426.64 1235.97 412.04 1170.82 533.86 1092.97 637.11 1228.16 622.74
00004943 00000079 933.54 206.28 399.72 556.99 1053.78 427.35 1235.75 412.41 1171.11 534.70 1094.26 638.77 1226.83 624.24
00004944 00000080 934.24 203.80 399.33 559.30 1053.90 427.95 1236.63 413.57 1171.49 535.06 1094.66 639.88 1227.90 625.87
00004945 00000081 934.33 205.95 398.57 557.53 1054.62 427.62 1236.68 413.53 1172.30 535.98 1095.81 640.61 1227.21 626.86
00004946 00000082 934.59 205.32 399.14 559.85 1055.35 428.32 1237.73 414.24 1173.68 537.25 1097.00 641.69 1229.02 627.90
00004947 00000083 935.40 206.80 398.35 559.47 1055.77 428.78 1238.00 414.73 1174.06 536.87 1097.35 642.51 1229.45 628.86
00004948 00000084 935.33 206.41 399.63 561.12 1055.81 429.60 1238.35 415.06 1174.57 537.64 1097.82 643.65 1230.99 629.51
00004949 00000085 935.70 205.66 400.48 562.99 1056.55 429.91 1238.90 415.30 1175.30 538.57 1098.59 644.36 1231.49 630.13
00004950 00000086 935.67 206.15 401.82 562.88 1056.80 429.86 1239.73 415.11 1175.99 538.61 1099.75 644.21 1232.31 629.71
00004951 00000087 935.92 207.72 401.25 559.87 1056.88 430.03 1241.38 415.66 1176.96 539.16 1098.07 642.42 1235.87 628.22
00004952 00000088 935.76 208.31 401.93 557.02 1057.15 428.86 1242.54 415.43 1177.19 537.38 1096.42 639.87 1236.72 626.42
00004953 00000089 935.04 208.11 403.16 556.78 1057.37 427.96 1242.68 414.36 1177.54 536.65 1095.70 637.74 1236.86 624.17
00004954 00000090 934.28 209.80 405.55 555.38 1056.55 425.79 1241.25 411.37 1175.52 534.44 1094.89 636.58 1233.11 622.23
00004955 00000091 934.07 210.31 405.13 554.20 1056.28 424.44 1240.42 410.29 1174.53 532.58 1095.16 636.79 1229.92 622.65
00004956 00000092 932.44 208.41 404.86 555.18 1054.59 423.02 1238.76 409.36 1172.60 531.84 1093.80 635.24 1229.29 621.51
00004957 00000093 931.20 204.78 404.95 556.73 1053.36 422.10 1236.56 408.85 1170.06 531.77 1091.87 633.65 1226.38 620.46
00004958 00000094 928.72 205.41 406.72 558.70 1051.45 421.81 1233.59 408.37 1166.86 531.15 1091.55 634.50 1222.94 620.99
00004959 00000095 927.02 204.20 406.74 563.94 1050.72 421.38 1231.34 408.87 1165.14 532.08 1091.39 636.68 1218.02 624.18
00004960 00000096 925.90 199.88 406.93 571.18 1048.63 423.03 1228.90 410.51 1161.84 534.09 1090.95 637.66 1217.64 624.90
00004961 00000097 925.24 201.16 404.66 564.48 1046.50 423.92 1228.98 413.27 1160.22 536.79 1086.14 633.58 1220.84 622.31
00004962 00000098 923.77 200.33 405.70 562.07 1045.20 423.42 1227.44 413.75 1158.30 535.85 1082.93 630.00 1220.76 619.68
00004963 00000099 922.95 200.60 406.23 561.76 1044.04 423.59 1226.35 414.21 1156.33 535.25 1082.02 629.81 1219.28 619.67
00004964 00000100 922.72 203.58 406.20 558.62 1043.06 423.52 1225.39 414.96 1154.15 535.63 1081.88 631.22 1216.09 621.81
00004965 00000101 922.13 200.67 406.88 563.32 1042.03 424.61 1224.73 416.17 1153.19 535.51 1081.34 632.44 1216.83 623.05
00004966 00000102 921.21 200.55 407.47 563.57 1041.48 424.81 1224.02 416.64 1152.40 535.74 1080.84 632.65 1215.24 623.50
00004967 00000103 920.93 200.44 407.47 563.85 1040.95 424.86 1224.30 417.14 1152.18 537.03 1080.11 633.30 1214.83 624.55
00004968 00000104 920.66 202.06 407.06 562.18 1041.18 425.58 1224.15 418.12 1152.38 538.47 1080.35 634.00 1213.83 625.47
00004969 00000105 921.00 202.15 406.55 562.29 1041.12 426.17 1224.36 418.24 1152.55 539.26 1080.34 635.04 1214.66 626.14
00004970 00000106 921.07 201.39 407.01 563.51 1041.12 426.50 1224.67 418.23 1152.81 538.52 1080.76 635.12 1216.01 625.87
00004971 00000107 921.04 201.21 407.22 563.75 1041.39 426.85 1224.66 418.41 1153.33 538.27 1081.00 635.09 1216.51 625.69
00004972 00000108 921.13 200.28 407.48 564.61 1041.55 427.25 1225.59 418.64 1154.12 538.68 1080.90 634.68 1219.34 625.12
00004973 00000109 921.48 197.09 407.67 566.99 1042.02 428.82 1226.33 420.20 1155.01 539.94 1080.24 633.91 1222.00 624.39
00004974 00000110 921.57 198.87 406.96 565.38 1042.67 429.24 1226.63 420.50 1156.09 541.80 1080.27 633.61 1222.86 623.99
00004975 00000111 920.91 199.45 407.34 565.03 1042.72 429.89 1226.31 421.01 1156.42 542.32 1079.31 632.69 1224.04 623.07
00004976 00000112 920.08 202.13 408.47 563.05 1042.23 429.29 1224.73 420.39 1155.05 541.50 1078.42 631.60 1222.01 622.05
00004977 00000113 920.04 202.44 408.32 561.78 1041.71 427.74 1224.07 418.93 1154.02 540.28 1078.42 630.55 1220.56 621.04
00004978 00000114 921.20 202.79 407.79 559.73 1041.94 426.27 1224.38 417.41 1153.82 538.20 1078.90 629.52 1220.04 619.96
00004979 00000115 922.13 204.57 407.27 556.21 1043.37 424.33 1225.84 415.55 1154.83 535.73 1079.22 627.42 1220.37 617.98
00004980 00000116 921.99 199.04 409.38 559.74 1043.73 421.59 1227.17 412.01 1155.47 533.20 1079.66 625.22 1222.58 615.00
00004981 00000117 917.32 187.82 413.06 571.71 1040.41 424.29 1226.48 412.44 1153.60 529.83 1078.51 624.77 1228.74 614.25
00004982 00000118 918.68 188.30 413.43 570.30 1041.53 422.61 1226.58 410.87 1153.51 528.55 1079.90 624.38 1227.24 614.01
00004983 00000119 919.29 189.53 413.32 568.65 1041.53 422.16 1226.97 410.80 1153.32 528.83 1079.63 624.40 1226.86 614.38
00004984 00000120 919.05 189.75 413.20 567.45 1040.55 422.13 1227.41 410.77 1152.99 529.14 1079.18 624.38 1227.53 614.30
00004985 00000121 918.59 189.53 413.99 569.41 1041.00 422.21 1226.26 411.21 1152.54 528.94 1078.86 624.35 1225.96 614.59
00004986 00000122 922.78 194.07 412.34 564.55 1043.89 417.30 1226.90 408.31 1153.52 528.01 1078.97 623.20 1216.90 613.43
00004987 00000123 921.86 192.76 412.56 566.71 1043.37 417.56 1226.37 408.72 1153.02 528.03 1078.73 623.61 1216.69 613.97
00004988 00000124 919.83 192.04 414.31 571.52 1042.67 418.10 1225.62 410.07 1152.40 527.80 1078.15 624.56 1215.08 615.60
00004989 00000125 918.83 193.98 413.71 573.02 1042.03 419.93 1224.99 412.25 1153.33 529.74 1078.25 627.47 1215.52 618.79
00004990 00000126 919.28 197.87 412.86 570.31 1041.38 421.61 1224.93 414.72 1152.27 532.11 1077.82 629.93 1213.90 621.88
00004991 00000127 919.53 200.04 411.91 568.90 1041.54 422.30 1224.62 415.65 1152.22 532.81 1077.82 630.91 1212.79 623.15
00004992 00000128 919.06 198.62 412.59 573.42 1041.84 422.53 1223.99 416.36 1152.45 533.57 1077.52 633.18 1210.97 625.89
00004993 00000129 919.27 199.92 411.79 571.99 1042.03 423.51 1225.28 417.98 1153.45 535.60 1077.01 633.93 1213.17 627.16
00004994 00000130 918.69 198.78 411.61 571.12 1041.25 424.02 1225.94 419.12 1153.10 536.36 1075.78 633.20 1214.66 626.98
00004995 00000131 918.04 199.14 411.54 570.25 1040.49 423.78 1225.69 419.52 1152.41 536.04 1074.78 633.23 1214.04 627.59
00004996 00000132 917.42 198.39 412.52 572.02 1039.63 423.12 1225.02 418.89 1151.04 535.75 1074.59 633.69 1212.26 628.08
00004997 00000133 916.94 201.79 412.38 568.99 1039.52 422.33 1224.45 418.41 1150.49 535.23 1074.48 633.91 1210.39 628.61
00004998 00000134 917.39 198.58 412.59 571.31 1038.78 422.39 1223.76 417.80 1149.80 533.45 1074.55 633.03 1211.70 627.04
00004999 00000135 917.03 196.67 412.03 570.24 1038.48 420.85 1224.33 416.17 1149.99 533.09 1074.53 631.72 1212.33 625.62
00005000 00000136 917.36 191.46 413.15 575.46 1038.72 420.00 1224.75 414.53 1150.35 531.27 1075.72 631.58 1212.86 624.65
00005001 00000137 918.68 192.62 412.24 574.42 1039.33 420.56 1224.53 414.54 1150.57 530.96 1077.20 632.89 1212.32 625.45
00005002 00000138 920.25 195.64 412.10 571.16 1040.16 421.49 1225.19 415.24 1150.81 531.99 1078.58 634.10 1212.02 626.42
00005003 00000139 922.02 197.14 411.30 568.27 1041.10 422.44 1225.76 415.93 1151.39 533.52 1079.65 635.35 1212.46 627.44
00005004 00000140 922.61 199.12 411.65 567.30 1041.94 423.75 1226.73 416.82 1152.38 535.16 1080.11 636.20 1213.28 627.98
00005005 00000141 924.51 199.69 409.74 566.27 1043.09 424.70 1227.63 416.83 1154.36 536.08 1081.78 637.61 1214.32 628.72
00005006 00000142 925.09 197.78 408.92 567.41 1043.89 424.02 1227.95 416.13 1155.40 536.61 1082.47 637.88 1213.90 628.94
00005007 00000143 925.93 197.96 408.10 566.37 1043.95 423.49 1228.21 415.49 1155.51 536.12 1082.25 637.31 1214.29 628.28
00005008 00000144 926.65 197.78 407.02 564.89 1043.65 422.72 1229.20 414.76 1155.05 534.41 1081.76 637.25 1214.42 628.22
00005009 00000145 925.93 196.80 408.30 565.08 1043.29 421.01 1229.23 414.13 1154.09 532.94 1080.14 635.21 1213.16 627.13
00005010 00000146 924.67 192.92 410.24 566.60 1042.56 419.92 1229.34 413.82 1152.96 531.44 1079.06 632.55 1214.20 625.17
00005011 00000147 917.01 189.65 413.41 571.00 1038.47 420.40 1225.55 415.15 1148.65 528.24 1076.17 627.84 1220.51 622.81
CROP_BBOX: 542 0 1707 1080
