Video ID: 	GypP4nzdGEs
H: 	1080
W: 	1920
FPS: 	25.0

FRAME INDEX X0 Y0 W H [Landmarks (5 Points)]

00003666 00000000 1154.69 176.14 453.79 686.80 1269.94 435.75 1469.94 417.53 1373.11 522.34 1306.73 677.40 1475.24 661.45
00003667 00000001 1157.86 173.50 453.53 691.15 1283.84 434.24 1480.96 419.47 1392.31 520.42 1315.02 675.37 1487.40 661.95
00003668 00000002 1157.53 175.73 453.14 689.83 1287.39 432.77 1484.00 421.11 1398.84 521.07 1314.37 673.47 1489.83 662.60
00003669 00000003 1152.13 173.71 453.60 695.21 1280.68 433.14 1478.15 423.01 1390.35 524.48 1305.87 674.66 1483.11 665.45
00003670 00000004 1143.08 175.48 454.53 696.44 1262.31 434.44 1459.94 421.48 1366.52 526.61 1291.36 677.22 1462.96 666.03
00003671 DELETE   1132.14 179.69 456.98 690.95 1238.38 432.61 1450.21 417.80 1336.18 535.29 1277.27 686.54 1447.18 671.87
00003672 DELETE   1118.06 180.24 462.90 690.68 1212.40 440.49 1416.17 416.31 1294.31 533.20 1255.83 693.48 1422.02 671.90
00003673 00000007 1116.80 183.26 458.00 677.11 1196.32 443.73 1393.81 419.90 1266.49 538.92 1234.69 688.78 1396.99 668.15
00003674 DELETE   1116.28 175.40 462.00 660.84 1177.77 445.59 1366.05 430.90 1223.56 540.69 1207.93 668.35 1364.27 656.21
00003675 00000009 1104.34 177.62 459.81 630.92 1164.85 446.30 1348.05 435.61 1208.74 541.20 1189.37 658.57 1335.74 650.55
00003676 00000010 1095.87 189.73 460.85 611.13 1157.22 446.69 1339.92 439.62 1200.61 544.05 1180.45 657.90 1320.88 652.69
00003677 00000011 1091.84 192.51 460.41 604.81 1153.10 447.99 1332.54 444.26 1193.81 545.22 1173.36 656.58 1309.12 654.07
00003678 00000012 1089.79 195.63 461.44 602.71 1150.90 448.89 1331.66 445.97 1191.57 546.88 1171.00 658.84 1306.77 656.90
00003679 00000013 1089.83 199.43 463.20 600.18 1152.22 449.90 1336.26 446.56 1196.69 551.40 1174.18 662.26 1311.74 659.94
00003680 00000014 1090.23 196.10 465.54 602.08 1156.03 450.30 1345.21 447.19 1209.24 556.51 1180.10 662.19 1322.94 660.26
00003681 00000015 1092.64 186.89 467.07 609.58 1162.91 452.04 1357.27 445.19 1226.62 558.85 1190.19 662.47 1338.74 657.48
00003682 00000016 1100.81 192.26 458.51 606.73 1171.24 455.77 1375.40 447.67 1242.52 561.23 1200.70 666.78 1363.84 659.91
00003683 00000017 1098.96 196.25 465.82 609.03 1187.11 462.43 1396.25 450.55 1273.20 564.05 1221.15 674.13 1385.61 664.56
00003684 00000018 1104.19 200.80 467.22 611.51 1202.36 468.07 1412.23 449.80 1298.09 565.81 1242.91 680.48 1406.38 665.47
00003685 00000019 1112.51 205.09 462.66 620.39 1215.22 470.62 1427.25 451.66 1324.45 565.67 1265.05 689.92 1426.82 672.61
00003686 00000020 1117.65 207.58 462.51 619.60 1230.85 473.78 1440.96 452.46 1346.46 561.93 1286.79 693.29 1446.48 673.16
00003687 00000021 1117.28 196.50 463.23 623.70 1248.63 477.02 1455.56 456.06 1367.57 570.68 1297.92 687.46 1460.37 668.90
00003688 00000022 1121.55 194.12 459.94 620.69 1257.70 479.39 1465.80 458.29 1382.25 575.13 1304.29 685.73 1470.62 666.84
00003689 00000023 1134.71 191.97 455.07 624.59 1274.04 481.85 1487.73 459.19 1402.24 569.30 1316.07 683.13 1488.97 665.25
00003690 00000024 1138.42 193.33 453.97 626.38 1285.13 484.90 1493.48 462.67 1416.89 569.39 1329.24 685.29 1497.27 667.96
00003691 00000025 1141.45 195.28 453.89 621.60 1293.18 492.70 1499.91 470.39 1427.15 569.11 1336.48 684.24 1503.62 666.95
00003692 00000026 1143.50 195.33 454.49 618.61 1296.48 493.93 1505.82 472.62 1432.41 570.78 1335.69 681.92 1510.14 665.11
00003693 00000027 1143.94 197.07 453.26 616.76 1296.33 492.99 1506.09 472.50 1432.04 571.67 1332.98 680.46 1509.45 664.45
00003694 00000028 1143.43 196.25 452.62 618.61 1293.35 493.67 1505.45 475.36 1427.58 572.64 1325.79 679.89 1505.75 665.55
00003695 00000029 1140.00 196.78 453.64 618.47 1285.87 494.79 1500.40 477.82 1416.90 574.09 1313.69 678.36 1498.43 665.15
00003696 00000030 1136.36 195.42 451.35 619.00 1273.45 488.62 1490.23 472.74 1398.66 571.33 1299.99 677.09 1485.57 664.52
00003697 00000031 1120.90 193.89 456.47 617.06 1255.21 479.38 1469.39 470.09 1373.65 576.16 1280.98 675.35 1463.83 666.53
00003698 00000032 1117.85 194.22 455.24 614.69 1247.09 476.85 1461.77 469.02 1362.45 575.32 1271.12 674.53 1452.23 667.21
00003699 00000033 1114.78 192.60 454.48 614.32 1241.48 473.75 1457.24 468.92 1356.53 571.47 1265.62 674.00 1444.55 669.08
00003700 00000034 1114.00 192.23 455.36 621.61 1242.28 471.07 1455.28 466.08 1357.66 569.16 1266.29 674.22 1442.67 669.33
00003701 00000035 1114.65 188.79 454.59 625.01 1245.62 470.40 1458.34 464.09 1364.43 567.53 1270.89 673.50 1449.63 667.32
00003702 00000036 1115.37 186.80 453.68 627.75 1250.44 469.02 1461.38 462.50 1371.00 567.99 1274.40 671.44 1454.95 665.25
00003703 00000037 1116.29 187.15 453.40 623.66 1256.22 466.23 1466.16 459.30 1378.53 568.20 1281.56 670.52 1459.43 664.24
00003704 00000038 1117.50 185.51 452.70 625.30 1260.45 465.80 1469.54 458.43 1383.53 568.03 1285.79 669.84 1463.56 663.31
00003705 00000039 1117.85 185.94 451.84 624.47 1262.95 467.01 1470.94 459.81 1386.04 570.49 1287.16 670.22 1464.07 663.91
00003706 00000040 1118.22 187.77 450.09 623.87 1264.31 468.79 1472.58 463.12 1387.47 573.63 1285.35 670.74 1463.75 665.85
00003707 00000041 1118.96 190.25 451.34 625.92 1265.38 473.08 1475.10 467.93 1389.08 578.66 1284.09 672.84 1466.01 668.14
00003708 00000042 1117.13 192.75 456.96 631.23 1264.22 475.74 1475.13 472.60 1387.34 579.29 1284.62 677.89 1464.81 674.29
00003709 00000043 1114.67 193.63 459.93 630.51 1258.30 474.54 1469.12 472.54 1377.51 578.36 1279.04 677.12 1457.14 674.48
00003710 00000044 1113.54 192.94 460.53 627.42 1247.58 469.16 1462.77 469.74 1363.96 580.52 1266.55 677.53 1445.20 677.61
00003711 00000045 1114.23 197.04 455.46 619.10 1233.38 468.67 1449.44 469.98 1341.53 579.37 1251.60 682.40 1424.43 683.47
00003712 00000046 1110.69 201.56 455.46 614.90 1218.34 472.49 1430.67 474.62 1313.04 582.84 1230.62 682.97 1399.90 684.71
00003713 00000047 1100.13 206.17 462.38 615.17 1194.69 475.82 1408.27 482.92 1278.33 591.09 1204.52 684.64 1375.96 690.86
00003714 00000048 1090.15 206.49 466.19 623.64 1173.29 473.60 1373.96 480.91 1242.46 594.25 1183.57 684.14 1348.30 691.12
00003715 00000049 1081.50 211.43 469.59 636.14 1159.71 478.85 1349.93 492.79 1205.20 592.29 1162.09 688.53 1318.85 700.91
00003716 00000050 1073.67 219.44 471.17 642.21 1142.63 480.96 1331.80 494.57 1176.91 589.93 1146.13 696.21 1300.82 708.06
00003717 00000051 1068.78 226.15 468.10 633.97 1129.90 482.94 1314.50 500.29 1154.57 594.49 1135.88 697.96 1284.74 712.57
00003718 00000052 1066.61 233.05 465.20 622.69 1122.85 484.33 1305.32 503.14 1142.63 600.30 1129.70 700.23 1275.57 716.08
00003719 00000053 1063.40 230.16 466.27 624.09 1120.11 484.35 1304.99 501.80 1142.63 600.40 1127.74 702.46 1272.70 717.23
00003720 00000054 1061.81 225.61 468.92 628.35 1122.92 483.93 1309.18 498.91 1152.12 596.72 1131.80 701.69 1277.43 714.43
00003721 00000055 1061.20 223.58 473.81 631.39 1128.72 480.50 1320.34 494.23 1167.61 594.58 1136.21 697.20 1289.61 709.00
00003722 00000056 1062.13 225.51 461.28 621.93 1124.39 480.15 1324.90 487.90 1173.32 595.91 1135.10 698.56 1301.65 702.73
00003723 00000057 1055.95 227.11 462.35 623.85 1125.15 478.72 1325.51 482.84 1183.88 596.06 1141.76 696.76 1309.33 698.19
00003724 00000058 1046.88 221.92 466.78 634.24 1118.68 484.17 1320.10 479.80 1185.44 598.75 1144.45 701.80 1312.71 696.58
00003725 DELETE   1033.90 221.83 475.52 639.22 1100.79 495.34 1292.14 486.42 1157.15 611.06 1134.25 705.79 1295.70 698.61
00003726 00000060 1001.59 231.56 486.78 635.57 1073.37 510.12 1262.60 500.47 1129.96 627.74 1112.70 716.78 1269.79 709.08
00003727 00000061 974.67 248.14 489.15 620.63 1035.10 518.50 1223.70 499.19 1080.60 623.96 1082.73 726.66 1233.53 709.96
00003728 00000062 947.85 250.25 494.88 621.35 1005.33 532.07 1184.25 506.90 1047.67 637.02 1053.64 734.01 1204.49 712.71
00003729 00000063 921.03 259.34 497.21 622.00 977.56 536.10 1156.78 509.84 1014.29 642.20 1036.22 744.70 1183.65 721.23
00003730 00000064 906.27 261.89 495.64 625.88 964.02 545.62 1144.15 506.61 1006.51 644.17 1035.37 756.24 1180.22 721.80
00003731 00000065 896.33 261.69 499.59 629.68 959.48 548.31 1142.03 505.57 1007.94 646.24 1034.62 758.78 1182.37 721.17
00003732 00000066 889.71 262.34 505.25 624.59 957.96 545.49 1142.60 501.37 1012.59 644.14 1034.37 754.53 1182.76 715.94
00003733 00000067 884.55 252.07 505.25 627.62 955.19 540.20 1141.48 496.15 1014.47 635.15 1029.24 750.97 1174.81 713.26
00003734 00000068 883.89 244.37 499.93 629.94 951.48 535.95 1137.59 488.39 1008.45 624.23 1020.52 746.62 1167.56 706.19
00003735 00000069 891.87 236.38 497.73 640.07 956.94 537.16 1127.79 490.08 1000.57 625.79 1023.42 741.71 1161.63 701.38
00003736 00000070 889.39 234.15 499.68 644.54 957.41 537.23 1128.25 489.17 1002.36 626.54 1025.16 742.64 1163.14 701.31
00003737 00000071 885.78 231.27 500.30 645.42 954.77 533.32 1124.74 486.12 1000.81 624.50 1023.24 738.18 1162.71 697.37
00003738 00000072 878.95 226.81 502.63 646.90 949.07 529.10 1119.32 481.18 996.68 619.87 1018.61 733.27 1160.16 691.81
00003739 00000073 870.90 228.01 507.56 639.93 940.82 526.63 1114.48 474.68 993.71 615.93 1013.94 729.69 1158.80 684.91
00003740 00000074 867.66 227.24 509.13 635.79 936.39 526.44 1111.20 468.00 991.55 608.56 1011.55 728.41 1156.68 678.38
00003741 00000075 865.00 224.59 510.08 635.53 935.06 530.31 1113.52 458.35 997.30 598.17 1014.71 731.30 1162.34 670.12
00003742 00000076 861.40 227.15 513.65 630.23 945.89 528.82 1135.98 453.31 1014.82 592.21 1022.89 733.11 1176.15 668.63
00003743 00000077 857.26 228.45 519.62 624.45 953.10 524.97 1143.49 450.98 1034.32 591.41 1037.45 726.00 1190.05 662.98
00003744 00000078 856.97 227.78 517.71 622.63 956.76 521.84 1147.13 451.63 1042.24 590.91 1041.78 720.73 1194.59 660.97
00003745 00000079 857.27 226.96 514.61 625.53 956.90 523.92 1149.52 452.35 1045.10 589.03 1040.17 722.55 1196.66 661.74
00003746 00000080 855.80 225.24 513.69 627.86 957.34 523.43 1151.24 452.63 1048.48 587.78 1039.91 722.53 1197.92 662.59
00003747 00000081 854.90 227.25 513.85 630.78 959.09 523.59 1155.45 452.03 1054.98 586.33 1042.32 723.98 1204.96 663.87
00003748 00000082 855.27 228.88 514.89 639.55 960.82 527.50 1162.81 452.33 1064.33 584.40 1047.46 732.76 1216.29 670.40
00003749 00000083 854.52 229.13 519.31 650.60 966.58 528.62 1168.97 451.99 1079.73 587.08 1059.09 737.00 1231.67 674.31
00003750 00000084 861.58 227.48 514.14 660.34 972.32 531.02 1176.43 453.32 1091.32 592.66 1070.14 746.58 1241.57 683.14
00003751 00000085 874.75 217.10 511.72 679.16 989.91 534.12 1191.57 456.80 1099.31 581.02 1073.31 752.82 1244.48 687.15
00003752 00000086 880.83 220.53 508.55 683.36 1001.91 525.57 1202.95 455.37 1115.25 572.49 1086.08 752.62 1251.76 693.70
00003753 00000087 887.58 219.01 506.74 688.95 1011.16 519.65 1214.16 453.35 1128.65 572.23 1093.01 751.40 1263.90 696.33
00003754 00000088 897.85 224.15 503.03 692.00 1022.75 519.42 1222.41 455.75 1141.82 577.31 1108.69 753.18 1276.28 701.03
00003755 00000089 909.54 224.63 493.58 689.09 1031.53 523.22 1229.70 459.50 1152.02 581.72 1115.65 750.60 1286.24 698.54
00003756 00000090 913.93 222.24 496.80 687.75 1038.14 520.16 1238.43 457.68 1162.67 587.28 1125.28 749.42 1295.74 698.72
00003757 00000091 921.95 219.66 497.05 665.10 1043.18 521.02 1245.70 458.99 1168.43 588.86 1129.87 739.32 1299.50 689.15
00003758 00000092 938.74 218.25 483.73 638.57 1057.31 517.83 1255.93 461.08 1175.77 583.21 1134.72 719.97 1300.00 673.29
00003759 00000093 953.29 219.24 475.30 627.04 1069.18 514.51 1268.84 460.86 1187.80 575.29 1139.85 712.72 1308.65 667.67
00003760 DELETE   964.35 225.56 467.25 611.91 1080.01 516.85 1276.14 469.13 1196.27 578.63 1147.86 708.82 1312.05 668.55
00003761 DELETE   970.59 224.05 468.71 608.61 1087.76 514.46 1284.49 471.55 1202.48 580.19 1153.12 708.76 1312.23 672.09
00003762 00000096 976.16 213.11 471.79 618.27 1093.57 515.92 1292.78 468.80 1199.90 579.62 1152.48 704.28 1312.72 665.67
00003763 00000097 979.30 212.73 471.98 619.27 1096.57 516.59 1295.64 470.15 1202.02 582.98 1155.51 704.76 1315.33 666.53
00003764 00000098 978.34 219.89 474.14 606.24 1093.89 511.10 1295.84 470.33 1209.09 584.80 1163.01 709.24 1320.68 673.29
00003765 00000099 979.46 219.53 471.45 602.36 1093.78 507.17 1297.01 469.11 1208.83 582.39 1161.22 706.39 1320.11 672.25
00003766 00000100 977.35 216.58 474.98 601.48 1093.11 503.01 1299.31 464.78 1210.83 576.33 1161.41 703.51 1321.80 669.01
00003767 00000101 979.35 214.64 474.01 604.17 1096.57 500.64 1303.74 462.60 1216.89 573.39 1163.67 703.09 1325.59 668.57
00003768 00000102 980.51 215.08 472.45 607.42 1098.32 500.23 1306.20 461.02 1222.27 571.71 1166.56 705.17 1329.40 669.75
00003769 00000103 978.56 204.95 469.95 633.50 1106.08 508.76 1308.05 467.80 1219.85 579.05 1164.77 704.10 1324.00 670.35
00003770 00000104 982.80 212.28 468.29 633.26 1111.23 517.00 1315.00 476.22 1228.33 585.56 1167.74 708.17 1333.74 674.30
00003771 00000105 990.08 213.61 467.43 633.68 1120.49 521.02 1323.53 481.86 1241.18 589.51 1173.78 712.77 1347.57 681.97
00003772 00000106 994.08 217.69 464.75 632.75 1127.43 528.70 1329.15 488.12 1251.84 595.35 1182.01 716.87 1356.21 684.65
00003773 00000107 995.65 222.24 464.91 627.89 1132.42 531.19 1334.92 490.64 1261.35 605.35 1189.15 720.36 1364.84 687.84
00003774 00000108 996.51 223.85 464.70 631.30 1132.24 532.20 1337.17 491.03 1263.82 612.87 1190.81 726.16 1368.12 692.65
00003775 00000109 993.94 226.19 467.65 629.59 1127.55 532.73 1336.54 493.50 1258.04 620.52 1188.87 731.64 1364.18 699.33
00003776 00000110 991.19 227.77 470.14 634.02 1121.75 535.37 1331.98 498.20 1247.66 629.39 1177.66 732.75 1357.48 702.20
CROP_BBOX: 661 0 1769 1080
