Video ID: 	8SvJD7dA_NA
H: 	1080
W: 	1920
FPS: 	29.97002997002997

FRAME INDEX X0 Y0 W H [Landmarks (5 Points)]

00003621 00000000 606.38 157.97 467.51 701.14 863.82 478.72 1016.06 416.92 1048.66 567.30 935.65 717.14 1049.96 668.10
00003622 DELETE   606.20 156.91 467.61 702.00 863.69 478.82 1016.08 417.25 1048.61 567.05 935.48 716.98 1050.28 668.08
00003623 DELETE   605.73 159.50 467.35 701.60 864.27 481.58 1017.81 420.03 1051.12 570.23 933.76 718.90 1049.93 670.01
00003624 00000003 606.32 161.27 466.42 702.88 866.79 483.12 1019.07 420.22 1056.24 573.10 929.37 719.14 1048.20 669.43
00003625 DELETE   608.61 163.34 464.76 700.09 868.94 483.76 1020.86 420.47 1057.75 575.34 929.38 718.84 1048.24 668.96
00003626 DELETE   608.68 160.51 465.37 703.31 868.49 483.84 1022.55 420.46 1058.85 577.69 928.57 720.76 1049.13 670.47
00003627 00000006 608.88 160.70 465.35 702.81 868.41 483.78 1022.46 420.09 1058.77 577.30 928.44 720.39 1049.02 669.94
00003628 00000007 610.82 162.08 461.86 702.11 868.45 484.10 1022.50 421.10 1058.46 577.78 927.23 720.03 1048.67 669.97
00003629 00000008 608.94 166.23 462.98 698.82 869.77 483.33 1022.07 420.25 1060.23 579.31 927.96 720.66 1046.29 670.69
00003630 00000009 608.54 167.43 463.29 698.18 868.85 483.71 1023.31 421.05 1060.34 580.53 928.14 722.07 1048.15 672.34
00003631 00000010 609.30 164.78 462.11 703.34 870.70 484.07 1023.14 421.48 1063.06 581.13 928.62 723.41 1047.86 673.70
00003632 00000011 609.94 165.31 461.73 703.29 869.95 484.26 1023.45 421.64 1062.57 581.15 927.83 723.42 1048.40 673.64
00003633 00000012 609.75 168.17 462.51 700.80 870.87 484.98 1024.64 422.81 1063.04 582.73 928.43 724.47 1047.80 675.22
00003634 00000013 607.85 166.14 462.34 703.05 871.63 484.77 1024.12 423.69 1063.75 582.53 928.09 724.46 1046.67 676.12
00003635 DELETE   608.77 172.19 462.69 697.67 870.42 484.59 1024.08 424.45 1063.29 583.25 929.08 725.14 1047.42 677.64
00003636 DELETE   607.91 169.84 463.00 702.38 869.05 484.54 1024.31 423.83 1063.11 583.94 926.51 727.42 1046.46 679.63
00003637 00000016 608.02 168.47 462.05 703.66 869.19 484.40 1024.58 423.58 1063.24 583.92 926.36 727.45 1046.33 679.56
00003638 DELETE   607.26 168.66 462.08 707.24 867.23 483.19 1023.49 423.27 1062.96 584.15 924.15 729.73 1045.29 682.51
00003639 00000018 607.63 168.11 461.16 709.49 866.38 483.52 1021.37 424.76 1060.51 584.58 923.43 732.10 1042.38 685.84
00003640 00000019 607.66 162.61 460.16 716.42 865.38 482.71 1021.80 425.86 1057.97 583.86 923.94 732.91 1043.36 687.85
00003641 00000020 431.67 123.21 384.34 578.42 601.59 384.42 768.20 350.32 749.78 458.63 651.83 583.98 786.59 554.40
00003642 00000021 431.96 122.68 384.90 581.01 601.51 383.32 768.15 349.17 749.60 456.36 652.33 583.27 787.48 553.64
00003643 00000022 431.58 122.63 387.19 583.12 602.17 383.70 765.11 348.04 747.94 456.01 653.16 583.85 786.69 553.00
00003644 00000023 431.61 122.28 387.18 583.87 602.11 383.83 764.88 348.10 748.05 456.02 652.86 583.75 786.87 552.85
00003645 00000024 431.40 124.82 387.95 584.62 601.11 384.59 763.45 348.74 745.97 457.29 650.20 584.13 785.16 553.07
00003646 00000025 430.02 128.49 388.68 581.55 601.09 384.91 761.57 349.08 744.41 458.04 647.65 582.52 782.02 551.59
00003647 00000026 430.46 127.67 387.00 583.26 601.29 385.20 762.74 349.90 744.86 460.12 645.07 581.97 781.32 551.68
00003648 00000027 430.24 139.81 385.81 571.09 600.19 387.82 763.35 351.51 743.39 463.91 639.79 582.89 779.12 552.19
00003649 00000028 429.68 141.53 386.25 568.76 600.32 387.56 763.37 351.39 743.32 464.37 639.15 582.17 778.35 551.65
00003650 00000029 430.95 134.43 385.54 577.89 602.35 388.08 763.50 352.65 744.87 463.48 639.72 582.50 778.18 552.69
00003651 00000030 431.46 133.94 385.04 576.76 602.89 389.01 763.42 353.29 744.66 463.34 639.68 581.66 777.77 551.70
00003652 00000031 431.69 135.72 385.12 572.38 603.74 389.39 764.06 352.67 745.38 463.13 640.05 579.45 778.68 548.69
00003653 00000032 430.84 135.74 386.50 571.75 602.38 391.77 765.43 350.56 747.01 464.45 637.46 577.54 781.39 543.34
00003654 00000033 430.70 136.78 386.67 570.99 602.06 392.00 764.80 350.27 746.89 464.39 637.41 577.33 781.24 542.65
00003655 00000034 430.87 135.42 388.21 565.80 602.94 392.62 767.16 348.29 749.40 464.62 639.20 576.80 783.44 540.23
00003656 00000035 431.09 132.08 388.32 564.46 601.28 391.41 767.99 345.74 749.12 463.86 642.82 576.99 786.22 538.96
00003657 00000036 431.53 129.99 387.74 562.25 599.98 390.03 767.82 344.43 748.13 462.66 643.16 575.86 786.95 537.96
00003658 00000037 430.77 123.58 388.09 564.75 599.69 386.98 766.93 344.06 747.51 459.13 645.81 574.98 787.18 538.95
00003659 00000038 430.45 124.38 388.44 564.57 599.77 386.99 766.97 344.04 747.46 459.04 645.79 574.92 787.23 538.85
00003660 00000039 430.04 123.54 388.19 563.51 598.88 383.58 765.82 342.39 745.90 455.71 646.42 573.22 786.38 538.44
00003661 00000040 429.10 126.71 388.68 558.51 597.39 380.07 764.65 342.51 743.12 450.98 646.45 570.82 785.24 538.41
00003662 00000041 428.73 127.39 388.96 556.00 595.69 376.77 765.09 342.58 741.56 448.15 646.26 568.61 785.32 538.74
00003663 00000042 426.48 122.30 391.83 559.94 594.92 373.04 764.77 340.74 741.13 444.38 644.93 565.65 784.60 537.25
00003664 00000043 426.64 121.68 391.49 560.53 594.91 373.20 764.76 340.33 741.34 444.46 645.25 565.99 784.74 537.14
00003665 00000044 426.40 118.41 390.05 560.61 594.66 368.92 764.21 337.01 742.11 439.96 647.41 563.75 784.21 535.55
00003666 00000045 424.87 119.71 392.06 555.44 593.21 365.03 764.64 334.01 742.60 434.40 650.03 560.07 785.95 532.05
00003667 00000046 429.74 130.30 385.87 540.94 593.18 365.53 768.15 338.58 747.36 428.92 649.94 555.21 789.52 531.11
00003668 00000047 430.87 125.28 388.05 542.12 591.35 360.54 770.36 330.75 745.82 423.01 649.38 552.04 792.30 525.67
00003669 00000048 430.97 125.12 387.86 542.36 591.48 360.68 770.64 331.02 745.99 423.25 649.15 552.11 792.29 525.79
00003670 00000049 430.64 111.99 388.05 542.57 589.20 356.18 769.14 325.20 740.94 416.41 650.20 546.79 792.56 519.15
00003671 00000050 429.60 103.84 386.44 544.05 587.24 352.90 766.83 319.99 738.26 411.29 650.12 542.74 791.70 513.65
00003672 00000051 428.87 105.49 386.14 537.34 584.92 350.24 764.45 316.88 734.82 408.96 648.91 539.69 789.81 510.27
00003673 00000052 426.96 106.62 385.07 532.27 582.62 348.28 761.26 314.84 731.34 404.99 649.31 536.66 788.47 506.86
00003674 00000053 427.06 106.78 385.07 531.96 582.33 348.42 761.00 314.86 730.89 404.97 649.34 536.70 788.44 506.76
00003675 00000054 426.14 100.88 386.50 536.50 581.90 346.85 759.81 313.82 730.10 397.27 649.90 533.40 789.53 503.70
00003676 00000055 425.53 102.04 384.95 533.05 580.23 343.94 756.54 310.16 728.56 392.52 650.19 529.42 789.88 498.89
00003677 00000056 423.68 99.93 386.52 535.42 579.42 342.45 755.69 310.19 727.84 390.13 648.97 528.04 789.70 498.69
00003678 00000057 422.55 100.74 386.57 534.90 579.29 340.99 753.84 309.36 728.35 388.26 648.53 525.74 788.53 496.97
00003679 00000058 422.60 99.09 386.24 536.06 579.36 341.44 753.29 309.40 728.29 387.61 648.93 525.81 788.76 496.76
00003680 00000059 424.07 101.92 383.55 532.38 577.91 341.24 753.13 309.45 723.98 389.24 647.66 526.46 786.22 497.57
00003681 00000060 423.37 102.22 383.57 531.09 576.48 341.55 751.08 310.16 721.69 388.60 646.40 525.87 783.83 497.34
00003682 00000061 424.27 97.64 382.55 535.27 575.96 343.44 750.01 311.39 720.81 387.56 646.37 526.98 784.10 498.03
00003683 00000062 424.37 99.08 382.58 535.65 575.49 343.55 750.39 311.19 720.62 388.40 645.68 527.54 784.66 498.30
00003684 00000063 424.24 99.80 382.68 535.25 575.24 343.53 750.33 311.42 720.26 388.57 645.41 527.67 784.58 498.61
00003685 00000064 424.34 100.82 382.07 534.48 575.16 343.74 750.98 312.20 720.08 389.17 645.12 528.05 784.38 499.44
00003686 00000065 423.33 102.67 383.63 534.62 574.74 344.26 751.22 313.00 720.16 389.06 645.25 528.59 785.17 500.14
00003687 00000066 423.62 99.59 382.93 538.41 574.20 344.63 750.52 312.73 719.55 389.82 645.18 529.91 784.91 500.93
00003688 00000067 422.94 104.15 383.08 535.79 573.42 344.53 751.06 314.49 718.86 391.03 644.02 531.34 784.20 504.00
00003689 00000068 423.09 103.34 382.77 536.56 573.52 344.48 751.03 314.40 719.00 390.67 644.19 531.24 784.26 503.87
00003690 00000069 424.08 106.17 383.46 536.71 573.08 345.22 753.88 316.42 718.85 394.89 643.27 534.75 784.96 508.43
00003691 00000070 424.16 119.68 385.78 527.65 573.72 349.75 755.57 320.82 719.96 402.04 642.75 538.46 785.26 511.94
00003692 00000071 426.57 123.05 385.48 532.19 576.21 355.52 755.94 324.50 722.69 408.02 644.28 544.62 785.56 516.57
00003693 00000072 427.07 122.92 385.57 537.72 578.00 358.81 759.34 329.79 726.81 415.06 644.68 550.79 786.47 524.36
00003694 00000073 426.97 123.48 385.54 537.38 577.86 358.89 759.30 330.12 726.70 414.83 644.54 550.73 786.45 524.49
00003695 00000074 423.93 132.21 388.81 538.30 583.07 356.24 754.04 328.64 730.31 418.34 649.97 554.33 781.15 528.35
00003696 00000075 424.32 125.32 389.29 547.77 584.87 359.98 752.77 329.66 730.60 422.98 650.02 557.90 779.66 529.99
00003697 00000076 424.85 124.03 387.33 551.22 586.65 361.91 755.95 334.59 732.58 426.66 650.94 561.59 779.66 536.23
00003698 00000077 424.12 113.45 387.42 564.53 588.02 366.12 757.02 336.43 734.68 431.61 650.97 565.69 780.43 538.80
00003699 00000078 424.31 113.73 387.33 563.78 588.10 365.97 757.17 336.71 734.86 431.42 651.15 565.60 780.55 539.04
00003700 00000079 426.27 111.74 380.43 562.94 586.32 374.68 755.63 347.45 730.08 442.18 646.38 568.72 775.13 544.56
00003701 00000080 425.95 119.81 385.96 563.29 589.72 372.09 759.48 343.30 733.46 442.09 647.76 571.16 778.52 544.94
00003702 00000081 428.24 121.24 383.49 563.39 593.16 378.43 762.07 345.77 736.71 446.26 649.05 573.84 781.53 544.78
00003703 DELETE   433.11 118.56 379.94 565.53 599.16 388.10 763.40 353.57 739.66 454.56 650.44 578.83 781.63 549.03
00003704 00000083 433.33 118.13 379.80 566.20 599.18 388.17 763.47 353.39 739.69 454.82 650.53 579.02 781.67 549.02
00003705 00000084 433.62 119.91 378.82 567.48 602.76 390.76 765.31 357.53 743.48 459.52 650.21 581.47 781.13 553.22
00003706 00000085 436.67 124.45 376.82 568.36 604.99 393.89 768.45 357.42 747.88 462.15 652.92 585.48 785.53 554.36
00003707 00000086 436.81 135.35 376.82 559.04 604.51 394.70 769.90 355.33 747.80 464.31 653.40 586.04 787.20 552.41
00003708 00000087 438.26 144.46 374.87 551.43 605.52 394.04 771.39 355.10 748.72 465.52 654.62 586.60 787.54 553.24
00003709 00000088 437.90 146.99 374.95 549.14 604.83 394.53 771.10 354.76 748.16 466.42 654.11 586.77 787.46 552.66
00003710 00000089 439.28 140.21 374.27 557.71 605.95 394.84 772.25 354.31 750.39 466.44 655.25 588.17 789.05 553.49
00003711 00000090 440.78 136.90 375.17 560.27 605.91 394.58 774.05 354.33 751.10 465.62 656.10 588.08 791.45 553.52
00003712 00000091 440.44 135.68 375.58 561.33 605.34 394.22 773.28 353.26 751.01 465.43 655.92 588.04 791.29 552.94
00003713 00000092 440.95 136.08 375.68 559.85 604.67 393.60 773.16 352.92 750.09 465.21 656.15 587.88 791.22 553.01
00003714 00000093 440.89 135.54 375.72 560.37 604.71 393.55 773.16 352.91 750.17 465.17 656.15 587.93 791.21 553.09
00003715 00000094 440.52 133.54 376.97 559.02 605.11 391.21 774.21 352.04 750.71 463.35 656.40 585.85 791.54 552.19
00003716 00000095 440.88 128.78 377.01 558.90 606.06 391.19 773.12 351.68 751.82 460.68 656.81 583.29 792.07 549.85
00003717 00000096 441.97 124.16 375.82 559.43 610.40 388.84 773.48 356.39 752.30 454.29 660.03 578.83 790.77 551.47
00003718 00000097 439.25 119.07 378.60 561.07 609.51 385.30 772.35 353.57 752.21 445.64 661.13 573.71 790.44 546.39
00003719 00000098 439.23 119.01 378.53 561.35 609.46 385.45 772.54 353.82 752.25 445.56 661.07 573.76 790.44 546.53
00003720 00000099 438.63 111.16 380.20 564.38 608.45 378.29 772.35 348.13 754.29 438.55 663.66 570.89 792.43 545.01
00003721 00000100 443.17 120.90 377.07 553.70 609.36 371.25 775.36 347.50 755.97 430.37 663.74 564.90 796.36 543.52
00003722 00000101 438.12 117.01 381.51 555.45 605.96 366.59 772.01 337.77 754.40 430.15 663.31 565.19 793.84 540.32
00003723 00000102 435.92 116.95 381.80 557.49 605.95 367.09 771.30 337.69 754.74 432.04 662.84 566.35 792.23 540.94
00003724 00000103 436.24 116.54 381.56 557.53 605.92 367.12 771.00 337.59 754.48 432.23 662.77 566.35 791.96 540.89
00003725 00000104 435.87 113.47 380.92 562.84 605.58 368.76 770.79 339.13 755.15 432.88 662.86 568.10 791.73 542.59
00003726 00000105 437.53 115.46 379.39 560.96 606.10 370.19 771.07 339.00 755.53 435.02 664.04 569.51 792.04 542.85
00003727 00000106 438.08 114.05 380.28 561.63 606.74 371.41 771.11 338.50 755.64 436.12 665.44 570.33 792.87 542.24
00003728 00000107 438.73 113.94 380.12 559.26 608.07 369.05 771.24 337.27 756.94 433.78 665.99 567.88 792.96 540.89
00003729 00000108 439.16 115.73 379.72 556.91 607.86 368.65 771.52 337.38 757.33 433.45 665.73 567.32 793.23 540.76
00003730 00000109 441.60 124.53 378.14 548.37 609.13 367.31 776.93 341.99 758.92 428.18 666.09 563.21 797.48 540.37
00003731 00000110 442.13 126.68 378.61 544.01 609.19 364.84 776.50 337.09 760.24 424.34 667.03 559.15 799.66 534.20
00003732 00000111 443.68 132.90 377.52 536.82 606.43 360.31 777.24 331.35 760.34 419.10 666.32 555.07 802.62 529.02
00003733 00000112 443.55 126.36 377.69 537.01 604.58 356.44 777.70 329.14 756.86 414.04 664.83 551.45 803.07 526.82
00003734 00000113 443.65 126.05 377.61 537.68 604.68 356.31 777.46 328.88 756.74 413.94 664.91 551.60 803.00 526.86
00003735 00000114 443.79 121.31 376.79 533.79 604.61 353.81 773.04 319.44 755.06 408.67 667.49 545.69 803.45 515.15
00003736 00000115 441.19 110.94 377.59 535.78 604.14 352.59 770.03 314.96 752.92 405.58 666.56 539.70 800.65 506.82
00003737 00000116 439.01 108.16 379.13 534.85 603.50 350.34 768.69 314.01 752.53 401.80 665.04 535.00 800.06 503.45
00003738 00000117 436.64 103.98 379.12 535.35 600.45 349.02 767.23 314.29 749.39 398.54 662.13 532.86 797.87 502.40
00003739 00000118 436.40 104.49 379.29 534.87 600.61 348.99 767.30 314.55 749.53 398.41 662.15 532.62 797.86 502.38
00003740 00000119 435.98 101.50 380.12 535.88 599.00 345.68 768.48 312.04 748.63 395.47 660.93 530.54 798.78 500.84
00003741 00000120 434.70 100.05 381.78 534.68 598.93 343.65 765.26 309.12 746.78 392.98 661.05 528.09 797.54 497.77
00003742 00000121 433.89 95.32 381.43 536.05 598.40 342.94 762.63 307.59 745.99 389.87 661.01 525.33 795.92 494.33
00003743 00000122 434.59 91.92 380.69 536.60 597.53 341.63 762.08 306.00 744.04 387.48 660.74 523.54 795.25 492.33
00003744 00000123 434.61 92.57 380.63 535.71 597.46 341.63 762.16 306.00 744.00 387.64 660.69 523.57 795.13 492.35
00003745 00000124 434.47 94.30 381.36 531.92 595.46 340.88 761.98 304.62 742.03 386.74 659.89 522.65 795.05 490.78
00003746 00000125 432.23 93.09 382.98 535.52 595.11 341.61 761.07 305.91 742.06 387.95 659.74 523.88 794.61 492.40
00003747 00000126 430.79 97.58 384.20 534.88 593.97 343.67 760.77 307.07 742.26 391.74 659.49 527.27 795.52 495.12
00003748 00000127 432.07 102.67 383.70 533.96 593.42 344.21 763.36 309.49 742.31 395.68 658.95 530.50 795.92 499.92
00003749 00000128 432.06 102.14 383.77 534.57 593.48 344.35 763.35 309.48 742.38 395.88 658.87 530.62 795.78 499.93
00003750 00000129 434.12 105.97 382.73 536.08 595.16 347.49 766.35 313.67 744.56 400.20 660.01 535.18 796.75 505.34
00003751 00000130 436.67 108.42 380.81 539.08 595.05 348.68 768.80 315.09 744.10 404.66 658.67 539.65 796.26 510.15
00003752 00000131 437.38 114.39 381.34 540.48 598.16 353.66 770.53 318.76 750.73 407.92 663.19 545.11 800.65 514.29
00003753 00000132 440.61 125.95 382.22 535.64 597.29 354.97 772.17 320.75 750.12 411.18 662.73 549.07 802.75 518.59
00003754 00000133 440.40 125.87 382.18 536.24 597.28 354.93 771.99 320.59 750.10 411.34 662.68 549.13 802.60 518.57
00003755 00000134 441.55 125.55 380.54 538.59 599.15 357.28 774.27 325.29 751.22 414.98 662.73 552.46 802.14 523.90
00003756 00000135 440.72 133.76 381.40 534.46 600.05 358.06 774.16 328.52 752.74 415.86 661.71 552.53 800.28 525.90
00003757 00000136 440.83 136.20 380.33 534.27 601.86 359.03 773.74 329.04 754.71 418.33 662.36 553.85 799.25 526.94
00003758 00000137 438.50 131.01 382.00 540.72 605.11 361.99 774.32 332.16 756.80 422.89 664.63 557.63 798.65 530.99
00003759 00000138 438.69 130.76 381.57 540.82 605.40 361.74 774.13 331.71 756.98 423.17 664.84 557.78 798.29 531.00
00003760 00000139 432.64 119.76 385.79 551.96 603.90 362.72 767.86 330.19 754.99 429.07 664.40 563.49 792.25 535.09
00003761 00000140 432.00 113.63 385.14 560.42 603.49 367.50 767.61 334.01 754.24 434.19 663.01 567.30 790.74 538.27
00003762 00000141 432.77 109.91 385.29 567.48 602.23 372.25 767.97 336.49 753.99 436.35 663.11 570.72 793.29 539.83
00003763 00000142 432.57 116.64 385.14 562.42 599.41 375.60 767.20 339.52 749.70 438.89 661.22 572.66 792.81 541.17
00003764 00000143 432.32 116.09 385.41 562.93 599.44 375.44 767.25 339.46 750.11 438.80 661.11 572.65 792.86 541.25
00003765 00000144 434.55 123.83 384.12 555.87 599.74 376.76 767.74 340.07 747.32 441.12 660.27 573.28 792.91 541.27
00003766 00000145 433.14 121.43 385.92 558.53 600.80 378.05 768.79 341.86 748.25 443.58 659.46 573.54 793.04 541.93
00003767 00000146 434.82 121.77 384.77 559.06 602.15 380.25 769.34 343.00 749.98 444.90 660.94 574.81 794.47 542.42
00003768 00000147 436.99 122.70 380.61 559.57 602.68 383.48 768.98 345.11 749.37 449.27 660.80 577.78 793.03 544.59
00003769 00000148 436.91 122.36 380.82 559.97 602.75 383.47 769.16 344.94 749.59 449.20 661.02 577.89 793.29 544.55
00003770 00000149 439.93 129.77 376.30 553.90 604.20 387.65 771.24 347.97 749.41 456.14 659.30 580.16 792.70 546.24
00003771 00000150 440.56 131.92 375.62 554.95 607.93 389.51 772.57 348.53 753.72 459.89 660.27 581.84 793.45 546.98
00003772 00000151 441.89 133.00 375.48 555.24 608.76 389.10 774.70 348.04 755.31 460.77 660.66 582.51 795.37 547.69
00003773 00000152 442.24 131.92 376.51 555.60 609.78 389.93 774.65 348.97 755.40 460.48 661.81 582.73 795.22 547.98
00003774 00000153 442.18 132.63 376.47 554.66 609.75 390.01 774.68 349.06 755.25 460.64 661.94 582.67 795.10 547.91
00003775 00000154 442.33 131.83 377.84 553.95 608.87 387.95 775.22 346.68 755.41 459.01 662.37 582.25 796.22 547.13
00003776 00000155 441.84 135.94 378.15 548.82 606.86 387.32 773.55 347.08 752.30 456.03 661.90 580.47 795.05 546.02
00003777 00000156 439.95 134.39 380.44 548.57 604.58 384.94 772.01 344.57 751.37 451.00 662.63 578.56 796.10 543.71
00003778 00000157 437.91 125.76 383.57 555.33 603.44 381.11 770.70 341.54 751.78 446.43 664.18 576.49 795.68 542.02
00003779 00000158 437.25 125.26 384.26 555.96 603.84 381.03 770.82 341.36 752.27 446.59 664.23 576.47 795.59 541.95
00003780 00000159 437.63 124.22 382.42 553.68 603.97 376.48 771.97 339.53 752.76 441.47 664.39 572.98 796.00 540.91
00003781 00000160 436.84 118.47 383.44 556.69 603.66 374.27 770.36 337.10 753.06 438.63 665.73 572.28 794.73 540.16
00003782 00000161 434.93 111.89 383.59 562.40 603.60 370.11 769.42 335.23 754.15 436.20 665.47 570.41 792.82 540.27
00003783 00000162 438.43 120.08 379.39 553.34 603.76 368.97 772.30 340.95 751.91 433.89 663.68 567.06 793.58 541.94
00003784 00000163 438.58 120.36 379.33 552.93 603.66 368.91 772.48 340.78 751.73 433.83 663.42 566.96 793.44 541.72
00003785 00000164 438.97 123.27 379.06 549.38 602.15 366.27 772.55 339.08 750.09 431.56 661.16 565.00 793.15 540.48
00003786 00000165 433.49 116.48 385.25 556.51 600.83 365.35 768.45 332.59 750.65 433.63 661.12 567.16 791.29 538.39
00003787 00000166 433.05 115.52 385.01 557.79 600.72 365.82 767.57 333.35 749.96 434.64 660.85 567.66 789.56 539.10
00003788 00000167 432.24 112.74 385.33 561.83 601.23 367.08 767.18 334.19 750.69 435.77 660.88 568.83 788.67 540.09
00003789 00000168 435.73 116.41 379.92 557.44 602.02 369.00 770.04 341.44 748.79 435.51 660.57 567.60 789.43 542.99
00003790 00000169 432.10 111.28 385.71 564.08 601.58 368.23 766.75 335.03 750.80 436.01 661.85 569.48 789.24 540.46
00003791 00000170 431.87 110.61 386.22 564.52 602.04 368.67 766.84 334.92 751.29 436.47 662.42 569.97 789.58 540.50
