Video ID: 	p0balGq1SQ4
H: 	2160
W: 	3840
FPS: 	23.976023976023978

FRAME INDEX X0 Y0 W H [Landmarks (5 Points)]

00007608 00000000 1694.44 321.44 580.12 853.98 1753.22 651.38 1970.74 637.72 1767.82 823.18 1786.42 986.50 1958.30 976.48
00007609 00000001 1691.75 316.87 583.99 866.58 1755.32 650.67 1977.33 632.99 1780.73 822.04 1794.20 995.35 1963.99 982.88
00007610 00000002 1683.11 316.10 588.34 876.31 1747.57 653.31 1972.69 633.84 1776.05 824.11 1792.55 1002.54 1958.61 988.24
00007611 00000003 1667.50 312.79 593.60 879.88 1725.95 657.51 1953.42 642.15 1750.32 828.05 1765.73 1004.44 1928.48 993.03
00007612 DELETE   1650.67 328.23 581.32 878.44 1707.38 673.57 1912.86 658.37 1711.38 845.15 1736.40 1019.27 1887.30 1007.10
00007613 00000005 1638.03 349.38 566.21 854.26 1692.24 686.57 1894.12 671.42 1698.46 852.43 1718.43 1028.46 1873.19 1018.20
00007614 00000006 1632.94 354.63 566.04 848.50 1687.69 697.10 1888.47 682.60 1696.44 863.92 1717.50 1035.14 1870.76 1026.20
00007615 00000007 1634.93 355.92 572.88 861.63 1694.68 704.29 1902.85 686.52 1712.52 872.84 1733.96 1050.69 1894.80 1039.84
00007616 DELETE   1646.20 349.83 586.15 875.41 1711.82 717.83 1930.00 697.44 1742.69 876.37 1758.42 1054.53 1919.44 1040.25
00007617 DELETE   1650.91 337.18 592.19 889.47 1721.69 718.66 1939.09 690.78 1758.39 872.50 1775.37 1053.11 1931.24 1033.68
00007618 00000010 1652.14 328.69 591.79 894.69 1719.47 699.67 1941.47 674.91 1756.58 865.35 1765.74 1044.02 1924.95 1025.91
00007619 00000011 1654.19 324.74 581.98 884.39 1714.68 677.06 1934.16 662.20 1736.47 842.70 1740.22 1025.74 1896.62 1015.00
00007620 00000012 1647.50 312.78 573.92 896.23 1708.20 657.84 1923.45 650.43 1720.11 830.28 1727.71 1008.95 1892.66 1003.68
00007621 00000013 1650.57 308.43 582.14 886.42 1716.31 653.44 1928.93 644.30 1727.09 823.57 1733.85 1001.06 1892.70 995.25
00007622 00000014 1658.15 300.25 596.01 884.02 1715.45 651.97 1954.21 635.09 1749.68 825.37 1756.16 999.62 1930.42 986.90
00007623 00000015 1667.11 296.40 600.30 884.43 1734.52 650.92 1976.37 633.06 1774.45 823.01 1779.03 993.84 1966.06 980.43
00007624 00000016 1672.74 293.07 604.41 893.12 1745.97 646.67 1989.39 626.95 1792.17 819.51 1793.13 991.22 1984.49 976.33
00007625 00000017 1678.72 300.48 598.06 881.89 1748.27 649.03 1989.88 632.32 1787.11 817.69 1786.84 987.43 1981.05 975.23
00007626 00000018 1675.61 301.77 595.25 872.62 1739.66 644.55 1978.96 633.60 1767.63 816.55 1770.44 983.00 1967.53 974.56
00007627 00000019 1676.04 303.93 590.33 872.46 1735.85 643.18 1969.06 629.76 1756.79 806.05 1766.40 979.36 1954.10 968.88
00007628 00000020 1684.32 303.67 579.12 860.41 1751.20 641.17 1968.66 621.61 1757.62 790.33 1776.68 967.46 1961.64 953.55
00007629 00000021 1690.88 284.78 588.82 881.98 1760.94 628.08 1989.77 602.61 1777.04 765.28 1789.99 963.27 1977.94 946.65
00007630 00000022 1695.90 269.92 593.58 899.33 1764.21 617.43 2004.18 595.97 1793.58 752.91 1800.70 953.58 1984.29 938.58
00007631 00000023 1700.70 271.00 580.95 897.20 1770.92 611.40 2009.36 586.94 1799.49 751.06 1800.03 958.65 1992.08 942.72
00007632 00000024 1701.05 269.58 582.98 886.15 1771.71 609.10 2013.04 586.56 1794.16 743.21 1792.53 951.63 1991.75 937.33
00007633 00000025 1698.32 264.24 592.49 866.47 1773.01 604.37 2009.17 588.72 1793.41 736.35 1789.73 933.66 1979.82 923.58
00007634 00000026 1701.36 263.63 591.63 865.56 1777.66 593.52 2017.79 577.54 1798.22 730.49 1784.39 928.09 1990.18 920.35
00007635 00000027 1704.88 258.16 592.89 860.39 1781.25 590.39 2023.69 573.62 1807.35 719.81 1789.09 914.05 1997.21 905.69
00007636 00000028 1707.29 257.93 594.06 859.94 1785.53 591.92 2029.04 571.19 1819.50 715.46 1797.03 912.39 2004.18 901.51
00007637 00000029 1706.45 257.22 593.10 872.85 1787.10 598.43 2034.35 569.81 1829.75 717.45 1820.32 928.88 2000.81 912.05
00007638 00000030 1696.56 283.48 606.43 886.37 1786.06 598.93 2043.25 580.39 1852.46 732.81 1837.55 956.77 2003.02 941.88
00007639 00000031 1701.40 288.31 606.16 898.35 1792.33 613.47 2049.21 599.77 1859.21 754.01 1841.41 975.45 2008.47 965.40
00007640 00000032 1704.73 308.63 607.72 890.90 1794.74 635.40 2054.57 623.03 1865.11 778.02 1842.11 989.42 2012.59 981.22
00007641 00000033 1705.51 320.04 609.83 888.93 1789.92 648.23 2043.69 632.27 1849.04 790.69 1833.32 997.36 2008.44 986.45
00007642 00000034 1703.28 320.49 606.55 890.62 1786.98 649.82 2036.16 636.52 1840.45 799.88 1823.06 998.31 2002.56 989.15
00007643 00000035 1699.56 315.40 606.72 888.17 1783.20 649.38 2029.97 638.12 1833.22 799.53 1818.52 993.33 1995.24 985.90
00007644 00000036 1698.23 311.42 607.25 883.37 1780.40 649.08 2025.68 635.69 1829.11 795.09 1815.14 989.11 1993.04 980.45
00007645 00000037 1701.63 296.24 601.68 894.28 1777.10 647.79 2027.41 625.20 1826.27 790.00 1810.19 992.39 1995.10 978.82
00007646 00000038 1700.51 295.28 605.67 893.53 1775.50 646.37 2029.54 623.68 1826.90 787.75 1808.90 989.84 2003.69 975.80
00007647 00000039 1694.53 295.79 607.85 907.04 1777.47 649.03 2040.63 626.13 1828.18 792.11 1809.53 990.23 2019.41 976.32
00007648 00000040 1695.07 298.85 610.46 919.64 1778.08 659.55 2037.52 631.50 1824.75 794.93 1812.57 995.65 2025.13 978.16
00007649 00000041 1700.05 319.84 605.38 911.08 1779.33 678.82 2030.02 640.92 1814.00 784.34 1809.31 1006.72 2027.18 978.42
00007650 00000042 1704.34 302.81 595.82 936.13 1779.69 669.10 2028.87 633.12 1815.38 788.14 1802.52 1004.23 2023.36 977.47
00007651 00000043 1694.16 304.57 613.01 927.35 1776.22 665.91 2030.94 632.67 1813.20 794.87 1810.47 996.81 2023.84 974.39
00007652 00000044 1691.86 301.89 614.22 916.93 1774.78 659.57 2031.84 631.58 1816.44 796.28 1807.01 989.65 2022.47 971.65
00007653 00000045 1699.90 303.65 598.22 900.92 1779.67 654.87 2023.29 631.37 1815.92 794.85 1798.87 986.03 2024.24 971.51
00007654 00000046 1699.89 307.48 594.38 886.37 1779.49 653.93 2021.28 631.89 1817.21 797.75 1799.77 982.27 2025.28 968.88
00007655 00000047 1699.74 308.03 591.88 875.32 1778.47 652.81 2021.60 632.34 1817.46 796.66 1795.56 978.58 2023.93 966.37
00007656 00000048 1698.54 309.47 593.43 872.71 1777.89 653.14 2021.55 632.83 1817.05 797.74 1796.24 979.27 2021.12 967.22
00007657 00000049 1697.36 312.72 594.87 869.30 1776.79 654.19 2019.42 633.02 1814.21 798.45 1797.16 980.30 2018.27 967.70
00007658 00000050 1694.32 312.15 600.23 864.12 1768.74 653.25 2020.94 631.45 1814.93 795.00 1796.21 982.19 2007.99 967.65
00007659 00000051 1694.21 313.67 601.35 860.33 1767.61 652.04 2019.03 630.85 1814.54 794.86 1797.80 979.92 2003.75 965.91
00007660 00000052 1694.13 313.61 601.35 858.67 1767.46 651.82 2017.67 631.06 1814.49 793.83 1798.25 977.49 2000.67 963.98
00007661 00000053 1692.06 312.71 604.96 859.17 1766.63 651.74 2017.28 630.59 1814.93 792.31 1799.33 975.22 1997.99 961.46
00007662 00000054 1692.97 311.43 603.47 860.06 1766.72 653.51 2016.92 633.87 1813.17 790.97 1797.95 973.92 1994.21 961.78
00007663 00000055 1694.49 313.40 600.61 856.31 1766.52 658.84 2013.44 639.01 1813.37 791.41 1797.44 972.52 1990.16 960.74
00007664 00000056 1693.92 316.49 599.91 851.08 1765.91 660.66 2012.58 641.59 1812.01 791.25 1795.07 974.40 1984.60 963.55
00007665 00000057 1693.13 315.17 600.27 854.32 1765.40 661.26 2011.47 642.76 1809.49 792.86 1793.39 976.15 1984.81 965.75
00007666 00000058 1692.78 314.01 600.30 856.73 1765.32 663.13 2011.03 643.68 1809.74 793.46 1793.73 977.74 1985.43 966.80
00007667 00000059 1690.38 314.03 602.25 856.25 1763.77 664.07 2011.34 645.02 1809.85 794.51 1792.17 979.47 1984.47 968.93
00007668 00000060 1691.12 314.96 601.40 856.57 1763.03 665.48 2012.03 646.17 1809.05 794.27 1791.02 981.07 1985.88 970.45
00007669 00000061 1691.46 312.89 602.07 860.71 1762.78 665.60 2012.44 646.29 1808.12 794.88 1789.64 982.96 1985.08 972.38
00007670 00000062 1690.81 313.31 602.30 864.34 1763.38 666.08 2012.74 646.90 1806.74 795.95 1788.18 987.54 1984.11 977.25
00007671 00000063 1691.07 314.69 602.28 872.92 1763.74 667.30 2015.03 647.16 1808.82 800.40 1789.65 993.13 1994.50 981.70
00007672 00000064 1691.68 314.59 605.18 881.78 1763.77 675.92 2011.65 653.67 1808.23 806.15 1791.05 998.07 1995.85 985.34
00007673 00000065 1683.22 326.12 616.66 884.10 1762.51 686.44 2013.83 664.90 1811.78 815.78 1795.24 1004.90 2006.00 990.19
00007674 00000066 1677.51 328.42 622.14 915.56 1757.83 680.04 2013.82 656.93 1808.07 821.11 1804.22 1021.37 2010.76 1003.21
00007675 00000067 1670.92 331.27 619.49 928.74 1751.59 682.66 2002.52 655.18 1793.89 832.01 1805.18 1037.05 2002.73 1014.76
00007676 00000068 1655.35 327.49 605.61 951.02 1739.28 686.12 1980.62 656.47 1772.78 844.50 1791.47 1051.12 1995.21 1029.55
00007677 00000069 1644.10 331.20 603.19 941.10 1711.96 698.46 1958.90 668.97 1756.05 857.27 1760.21 1060.25 1963.42 1040.19
00007678 00000070 1628.05 349.90 594.64 917.31 1692.03 703.58 1932.16 679.26 1722.71 867.03 1730.28 1067.73 1933.03 1051.58
00007679 00000071 1606.98 361.47 593.08 904.16 1673.68 715.00 1905.15 693.73 1696.53 883.10 1714.44 1070.25 1904.75 1055.80
00007680 00000072 1592.00 372.47 595.02 888.81 1659.99 718.20 1889.80 698.53 1685.86 892.91 1705.78 1071.71 1889.22 1058.10
00007681 00000073 1586.44 373.68 600.38 877.81 1656.66 719.64 1888.28 699.60 1683.84 892.54 1699.76 1069.49 1888.43 1055.93
00007682 00000074 1590.23 355.73 595.84 888.15 1662.63 719.13 1893.67 698.52 1688.28 887.44 1702.75 1067.34 1892.89 1053.82
00007683 00000075 1593.53 348.54 597.33 891.55 1666.50 717.37 1902.20 697.67 1697.02 882.67 1704.44 1065.89 1896.69 1053.76
00007684 00000076 1598.52 348.90 599.21 886.18 1672.29 715.68 1910.30 695.96 1704.39 880.57 1707.76 1059.48 1908.26 1046.93
00007685 00000077 1600.63 351.93 600.26 888.75 1676.74 715.41 1916.55 694.80 1711.77 883.60 1713.98 1058.98 1917.97 1045.05
00007686 00000078 1607.57 350.86 601.23 889.39 1682.82 713.08 1922.98 694.75 1718.69 883.97 1716.98 1057.18 1920.68 1044.92
00007687 00000079 1613.51 355.64 599.18 885.22 1687.03 711.18 1929.62 693.43 1728.00 884.00 1721.11 1058.56 1925.79 1047.05
00007688 00000080 1619.46 347.43 602.26 894.47 1691.82 710.66 1937.44 692.59 1734.71 881.09 1723.07 1058.40 1928.39 1046.81
00007689 00000081 1624.94 343.57 602.40 900.62 1695.17 709.31 1942.02 690.10 1737.84 879.97 1726.03 1060.69 1932.31 1048.53
00007690 00000082 1626.88 343.46 600.32 902.14 1696.92 708.65 1945.93 688.61 1742.85 879.02 1728.91 1065.60 1934.40 1053.25
00007691 00000083 1624.06 343.86 611.97 894.87 1695.46 710.19 1950.98 692.05 1746.80 878.31 1729.76 1064.62 1934.75 1052.75
00007692 00000084 1630.17 340.37 604.26 903.63 1700.40 708.89 1952.46 688.31 1749.25 877.61 1733.52 1064.73 1941.73 1052.41
00007693 00000085 1627.07 345.61 617.65 899.74 1697.85 711.21 1956.47 691.76 1750.26 877.62 1734.99 1064.09 1942.90 1051.17
00007694 00000086 1629.92 340.15 617.91 911.84 1700.80 709.93 1958.56 690.74 1753.07 876.95 1739.81 1064.76 1944.13 1052.04
00007695 00000087 1633.28 345.20 611.51 899.77 1706.73 706.98 1959.76 687.47 1755.98 873.36 1747.21 1058.10 1945.83 1045.09
00007696 00000088 1638.12 340.13 610.07 895.28 1710.80 701.54 1964.08 684.45 1758.39 871.25 1749.45 1051.45 1952.40 1039.89
00007697 00000089 1640.85 330.38 616.05 905.85 1711.91 696.39 1971.11 679.96 1763.21 860.79 1748.53 1048.38 1957.03 1036.29
00007698 00000090 1642.92 328.12 615.48 907.35 1713.32 693.92 1973.42 676.66 1763.15 855.40 1748.41 1044.25 1958.24 1031.66
00007699 00000091 1646.51 330.47 617.34 909.44 1717.82 709.86 1973.23 689.77 1765.08 855.22 1752.20 1046.46 1960.65 1033.03
00007700 00000092 1647.87 327.15 613.54 908.95 1721.40 709.72 1974.95 689.44 1769.59 854.49 1754.93 1047.27 1956.30 1034.03
00007701 00000093 1648.80 325.83 614.33 905.43 1722.63 704.45 1977.97 685.43 1773.67 853.36 1757.04 1044.89 1957.43 1032.54
00007702 00000094 1646.96 325.80 616.54 908.26 1723.08 698.82 1981.81 681.22 1776.93 851.28 1760.00 1045.42 1957.05 1033.94
00007703 00000095 1646.32 322.28 618.65 916.44 1721.97 696.79 1983.76 679.36 1776.88 852.21 1761.36 1047.73 1958.36 1036.28
00007704 00000096 1647.11 320.18 619.11 920.08 1721.99 695.84 1984.42 677.76 1775.67 852.26 1760.67 1049.77 1962.88 1037.51
00007705 00000097 1647.59 321.65 619.87 920.56 1723.14 695.59 1985.67 676.88 1775.62 850.84 1761.14 1048.83 1967.38 1035.76
00007706 00000098 1648.42 325.20 620.47 916.76 1724.95 693.19 1987.13 675.14 1777.46 849.29 1762.71 1048.14 1968.43 1035.43
00007707 00000099 1649.72 321.57 620.17 919.62 1726.04 691.67 1988.36 674.26 1779.55 847.66 1763.82 1046.85 1968.85 1034.82
00007708 00000100 1649.48 316.35 624.64 922.70 1726.99 689.58 1988.19 671.42 1781.17 846.18 1766.80 1044.05 1968.66 1031.64
00007709 00000101 1650.25 322.50 623.54 915.29 1728.06 687.93 1989.22 670.44 1782.94 846.22 1768.61 1042.78 1969.42 1030.63
00007710 00000102 1652.12 320.18 621.04 916.02 1729.51 688.00 1990.17 671.21 1783.93 845.98 1768.79 1041.80 1970.00 1030.24
00007711 00000103 1652.24 319.27 621.53 917.19 1729.33 688.96 1990.56 671.90 1783.64 845.53 1768.41 1042.10 1969.99 1030.50
00007712 00000104 1652.19 320.67 621.00 914.65 1729.77 689.70 1990.68 672.60 1783.87 845.59 1768.58 1042.52 1968.04 1031.06
00007713 00000105 1652.06 319.94 619.92 915.85 1729.38 690.24 1990.16 673.30 1783.93 846.37 1768.13 1043.40 1966.26 1032.15
00007714 00000106 1651.57 320.66 620.29 915.69 1728.56 688.80 1989.18 672.65 1782.65 845.86 1766.30 1043.56 1963.94 1032.91
00007715 00000107 1650.82 320.45 618.84 913.51 1727.06 688.47 1986.87 672.87 1780.36 846.53 1764.58 1044.26 1959.68 1034.12
00007716 00000108 1649.98 320.85 617.56 912.03 1724.82 689.31 1985.34 674.91 1778.35 847.06 1760.94 1044.16 1954.55 1035.04
00007717 00000109 1648.25 315.92 616.49 918.15 1722.41 689.17 1983.34 675.36 1776.30 846.42 1757.10 1044.02 1948.94 1035.40
00007718 00000110 1647.46 318.96 615.43 914.27 1719.66 690.57 1980.36 675.04 1773.15 846.59 1753.74 1044.26 1947.85 1034.19
00007719 00000111 1645.62 321.04 614.70 911.13 1717.02 690.41 1977.25 673.96 1769.80 847.86 1751.83 1044.21 1947.03 1033.13
00007720 00000112 1644.72 324.19 612.80 905.79 1715.31 689.94 1974.93 674.13 1769.07 849.18 1749.54 1044.15 1944.68 1033.37
00007721 00000113 1643.07 323.98 612.51 908.97 1713.71 692.34 1972.96 675.27 1765.85 851.08 1747.92 1046.10 1944.21 1034.44
00007722 00000114 1643.11 324.05 611.28 909.11 1712.13 694.45 1970.93 676.75 1763.11 853.85 1745.42 1049.31 1941.66 1037.21
00007723 00000115 1640.54 323.53 614.28 913.37 1710.84 697.48 1969.55 679.55 1763.04 857.59 1747.24 1051.62 1940.69 1039.56
00007724 00000116 1638.62 324.38 614.39 916.30 1708.85 699.44 1967.32 680.71 1759.41 858.82 1745.50 1052.91 1938.61 1040.23
00007725 00000117 1634.88 328.30 618.69 910.14 1705.69 707.41 1955.86 687.98 1754.65 860.83 1741.25 1052.66 1934.44 1040.54
00007726 00000118 1633.18 331.94 616.73 909.28 1702.50 708.46 1952.03 688.31 1750.24 861.33 1738.14 1054.55 1932.75 1041.91
00007727 00000119 1631.27 328.53 614.92 909.96 1699.32 708.84 1947.87 687.59 1744.26 860.63 1733.27 1054.51 1929.44 1041.12
00007728 00000120 1628.48 331.39 613.50 905.75 1694.67 706.06 1943.61 686.92 1736.65 858.80 1727.09 1050.98 1924.62 1039.03
00007729 00000121 1624.65 329.78 614.45 918.57 1689.47 704.35 1939.76 685.10 1728.81 856.70 1724.83 1053.73 1922.08 1041.30
00007730 00000122 1625.02 330.49 595.89 927.70 1690.56 702.88 1928.70 680.06 1719.95 854.07 1722.28 1062.03 1914.62 1047.88
00007731 00000123 1616.28 332.92 587.72 913.16 1682.11 701.58 1914.44 681.72 1704.31 857.54 1711.31 1055.87 1895.97 1043.49
00007732 00000124 1605.60 334.82 586.35 907.66 1671.68 702.22 1901.64 687.53 1690.21 862.17 1698.74 1048.19 1879.66 1039.55
00007733 00000125 1592.42 340.45 589.76 902.97 1661.69 707.31 1891.52 692.79 1681.24 864.46 1690.62 1049.99 1868.89 1041.39
00007734 00000126 1579.54 342.98 596.74 921.39 1653.54 707.08 1884.09 691.95 1671.84 866.57 1684.18 1067.13 1854.63 1057.91
00007735 00000127 1573.56 346.42 599.34 905.57 1647.56 710.55 1877.83 695.43 1663.20 868.79 1675.32 1064.81 1847.99 1055.85
00007736 00000128 1569.36 349.85 608.76 899.08 1644.94 713.88 1877.99 698.95 1661.09 867.77 1670.07 1056.08 1850.43 1047.37
00007737 00000129 1577.71 351.86 606.02 891.51 1648.53 727.10 1883.82 708.52 1672.49 861.24 1674.90 1047.93 1859.30 1037.65
00007738 00000130 1575.87 334.33 612.62 926.08 1653.53 726.86 1894.13 702.55 1689.18 869.47 1696.13 1063.93 1876.85 1048.76
00007739 00000131 1595.43 332.07 600.94 920.13 1670.63 711.19 1905.20 685.23 1702.33 863.16 1712.52 1061.70 1895.07 1045.59
00007740 00000132 1612.43 333.80 599.88 907.11 1684.84 698.73 1928.49 671.86 1726.66 852.35 1723.56 1054.10 1918.41 1036.83
00007741 00000133 1623.93 335.23 604.81 895.96 1697.67 692.29 1947.92 663.40 1754.82 845.90 1739.37 1044.36 1937.86 1025.12
00007742 00000134 1632.50 333.46 602.85 890.69 1707.65 691.19 1957.13 662.83 1763.58 841.82 1751.01 1031.22 1942.74 1010.89
00007743 00000135 1636.41 329.21 603.57 889.18 1710.29 689.43 1961.70 660.13 1766.62 838.74 1753.37 1028.26 1945.20 1007.64
CROP_BBOX: 966 0 2629 1516
