Video ID: 	f6uJOLHyWR8
H: 	1080
W: 	1920
FPS: 	25.0

FRAME INDEX X0 Y0 W H [Landmarks (5 Points)]

00001852 00000000 779.77 194.72 421.44 656.82 832.81 461.16 997.43 485.61 854.09 588.30 844.83 675.75 978.29 697.08
00001853 DELETE   774.65 196.86 423.32 662.34 828.64 462.76 992.83 486.84 847.14 592.53 841.17 683.50 968.06 704.95
00001854 DELETE   772.53 200.17 420.63 663.37 828.33 467.73 989.72 487.16 847.61 594.42 840.20 690.92 967.83 708.06
00001855 00000003 766.20 202.93 425.47 666.35 825.39 473.00 988.90 488.75 847.32 596.58 836.97 696.26 966.02 710.61
00001856 00000004 764.41 204.12 427.67 667.51 824.78 472.76 989.97 486.99 848.19 598.09 836.77 696.61 966.26 709.80
00001857 00000005 761.87 205.77 429.85 667.03 824.94 473.07 991.50 487.71 850.05 599.48 836.37 695.56 967.39 709.05
00001858 00000006 761.66 204.82 430.04 671.05 824.82 473.90 992.36 489.79 849.99 601.66 835.56 694.43 973.00 708.64
00001859 00000007 760.82 205.75 430.05 668.04 823.07 474.23 992.13 490.66 850.71 604.85 835.52 693.64 975.93 708.09
00001860 00000008 762.71 203.60 428.48 668.41 822.91 475.29 991.54 490.16 851.04 605.21 836.45 695.59 978.12 708.80
00001861 00000009 762.51 204.06 428.46 667.45 823.07 476.11 991.64 490.28 851.24 603.98 835.30 695.39 977.17 708.10
00001862 00000010 761.52 202.64 428.55 667.27 822.63 476.91 991.90 491.34 852.04 605.61 834.49 695.40 976.92 708.34
00001863 00000011 759.63 205.16 429.07 653.98 819.09 476.83 990.35 493.15 850.56 608.02 831.56 692.07 975.24 706.38
00001864 00000012 759.66 205.31 426.52 650.55 817.96 477.49 988.33 497.14 848.48 608.31 826.55 687.13 971.49 704.03
00001865 00000013 760.65 207.04 425.21 646.84 818.34 479.53 987.98 502.10 848.12 608.65 828.23 686.16 968.38 705.39
00001866 00000014 760.23 208.18 423.81 652.00 820.32 482.81 987.24 502.78 852.26 609.38 829.52 691.62 964.90 709.11
00001867 00000015 757.50 218.96 428.64 645.10 819.35 476.82 992.63 497.77 853.22 612.39 832.35 694.05 968.22 712.59
00001868 00000016 761.96 207.78 422.23 655.65 822.15 485.55 993.59 499.15 858.62 607.81 834.08 698.09 967.68 710.46
00001869 DELETE   760.42 206.35 428.90 663.49 824.91 485.10 997.25 495.25 865.15 606.25 839.42 701.60 970.41 711.40
00001870 DELETE   760.80 206.65 435.77 664.64 826.02 483.69 999.45 486.45 871.11 606.73 850.52 706.79 979.27 710.32
00001871 00000019 759.31 201.84 441.77 669.07 828.57 482.62 1003.75 483.39 879.15 608.34 857.71 707.88 987.49 709.51
00001872 00000020 760.81 204.15 444.53 667.83 833.71 482.80 1010.29 482.38 888.00 609.55 866.33 708.93 996.78 709.48
00001873 00000021 761.66 204.07 445.52 666.38 835.89 481.87 1014.42 481.41 892.50 607.81 869.05 707.75 1001.61 708.15
00001874 00000022 762.32 207.08 444.99 664.88 836.19 481.91 1012.99 482.91 891.21 608.67 867.95 704.47 1003.75 705.85
00001875 00000023 762.32 210.88 443.83 661.49 835.23 482.05 1011.84 483.18 889.83 610.62 868.27 703.90 1004.90 705.26
00001876 00000024 762.23 211.51 446.39 661.87 835.79 483.29 1013.36 484.11 890.91 612.25 869.95 705.17 1008.33 706.09
00001877 00000025 762.61 210.30 447.80 663.39 837.40 483.36 1015.91 484.72 892.69 612.68 870.33 703.56 1011.97 704.74
00001878 00000026 763.96 208.75 446.32 663.30 838.80 483.33 1017.08 485.44 893.40 613.07 870.67 702.18 1014.38 703.79
00001879 00000027 765.22 207.60 443.77 658.86 836.89 484.64 1019.27 486.70 894.11 615.47 866.36 702.06 1013.99 703.95
00001880 00000028 770.51 205.48 442.34 661.68 844.80 487.17 1026.65 488.58 898.16 614.28 869.50 706.45 1019.26 708.34
00001881 00000029 769.92 203.13 440.21 659.60 844.77 487.40 1027.23 490.44 900.49 612.89 867.84 700.85 1018.88 704.20
00001882 00000030 769.46 201.77 442.05 661.80 844.93 486.61 1028.26 492.73 900.49 612.17 865.65 698.23 1018.96 704.11
00001883 00000031 769.87 202.20 440.96 663.18 845.78 486.22 1029.28 493.69 900.74 613.64 865.57 698.62 1019.29 705.54
00001884 00000032 770.27 202.61 441.41 665.74 847.13 486.28 1030.58 493.44 902.59 615.78 867.53 700.01 1022.03 706.64
00001885 00000033 770.92 203.93 440.70 667.66 848.44 486.91 1031.23 493.18 904.35 617.34 869.08 700.08 1025.88 705.79
00001886 00000034 770.30 205.14 441.54 671.30 850.08 486.29 1032.97 490.87 907.15 616.47 870.42 700.20 1029.25 704.42
00001887 00000035 770.03 206.89 444.78 665.06 849.49 480.74 1031.49 486.56 908.84 614.84 872.68 695.92 1026.48 700.19
00001888 00000036 770.59 206.31 444.33 666.30 849.00 479.65 1030.86 486.25 907.50 615.10 872.59 697.88 1024.37 702.99
00001889 00000037 771.00 206.49 445.51 666.73 850.09 479.50 1031.99 485.90 908.88 614.49 874.22 698.71 1024.77 703.63
00001890 00000038 771.53 205.81 445.97 667.65 851.11 478.59 1033.86 485.46 910.74 614.74 875.22 699.26 1026.71 704.53
00001891 00000039 773.09 205.56 444.84 668.73 852.06 478.50 1034.34 485.32 911.28 614.23 876.40 700.29 1026.06 705.59
00001892 00000040 773.50 204.74 445.10 669.56 852.26 478.12 1035.16 485.61 911.58 614.71 876.42 700.42 1026.35 706.30
00001893 00000041 774.04 204.82 444.64 668.51 853.09 477.88 1036.34 485.86 912.58 614.60 876.49 700.25 1027.03 706.52
00001894 00000042 775.56 203.61 443.40 669.48 854.07 478.23 1037.37 486.03 913.30 614.15 876.63 699.55 1026.96 705.69
00001895 00000043 777.08 203.55 442.10 668.38 854.63 478.29 1037.84 486.35 913.88 614.15 876.69 699.09 1026.03 705.51
00001896 00000044 779.22 203.78 440.31 668.32 855.82 477.95 1038.50 486.63 914.22 614.22 877.55 699.34 1026.57 706.30
00001897 00000045 780.04 204.53 440.34 668.34 856.22 478.13 1039.56 486.93 915.60 615.21 878.17 700.68 1026.16 707.86
00001898 00000046 781.63 204.36 439.37 667.61 856.99 479.66 1040.29 488.18 916.04 615.30 878.85 700.97 1026.10 707.95
00001899 00000047 782.00 205.93 438.84 666.29 857.15 480.30 1039.90 488.45 915.98 615.76 879.18 701.14 1026.14 707.78
00001900 00000048 782.98 206.34 438.34 665.97 857.74 480.97 1042.72 489.72 916.64 616.62 879.53 701.84 1027.01 709.01
00001901 00000049 787.34 209.13 434.67 664.21 860.31 482.21 1043.73 490.37 918.09 617.31 881.92 703.67 1027.12 710.60
00001902 00000050 784.44 208.69 438.88 663.82 861.20 482.00 1046.17 490.16 921.12 617.41 882.52 703.80 1028.27 710.90
00001903 00000051 783.78 208.40 439.46 664.68 861.71 481.15 1046.50 489.62 922.19 617.56 883.22 704.08 1029.15 711.41
00001904 00000052 783.99 208.83 438.54 663.98 861.90 480.93 1046.74 489.92 922.32 617.90 883.15 703.47 1029.34 711.24
00001905 00000053 783.85 208.51 438.77 664.02 862.19 481.60 1046.95 490.63 923.37 618.77 883.57 703.90 1029.48 711.73
00001906 00000054 783.94 209.08 439.03 663.49 862.22 481.94 1046.34 491.44 921.68 618.42 882.80 702.18 1029.72 710.22
00001907 00000055 787.08 207.44 436.03 664.59 864.02 481.72 1047.91 492.25 922.36 618.66 883.01 701.99 1030.89 710.91
00001908 00000056 783.27 209.38 445.82 665.43 868.14 489.92 1051.34 495.48 923.93 615.83 881.05 704.23 1033.29 709.28
00001909 00000057 787.98 207.52 435.98 664.69 865.52 481.31 1048.70 491.81 923.27 618.55 884.59 702.38 1031.63 711.28
00001910 00000058 784.51 210.26 445.86 664.61 868.99 490.18 1052.57 496.19 924.68 616.27 882.62 704.53 1034.02 709.96
00001911 00000059 784.33 210.05 446.80 664.31 869.60 489.64 1053.13 495.40 925.69 615.49 883.02 703.83 1035.43 709.05
00001912 00000060 783.57 210.53 448.04 661.62 869.11 489.06 1052.88 495.21 925.62 615.69 882.32 701.95 1035.99 707.47
00001913 00000061 783.35 210.37 448.55 661.36 869.57 489.08 1053.24 495.61 926.30 615.85 882.70 701.87 1035.87 707.69
00001914 00000062 783.76 210.64 447.79 660.06 869.46 489.58 1053.50 495.97 927.20 616.95 883.52 701.92 1036.55 707.59
00001915 00000063 784.08 211.96 447.14 653.26 868.44 489.90 1052.65 497.25 927.47 618.63 882.56 699.99 1036.08 706.34
00001916 00000064 783.75 213.15 447.49 650.91 868.67 490.07 1052.77 497.72 928.17 618.61 882.58 699.13 1035.30 705.77
00001917 00000065 785.20 211.55 446.42 654.15 869.71 490.50 1052.55 498.24 928.01 618.55 883.22 699.55 1035.15 706.33
00001918 00000066 785.11 214.33 447.18 652.80 869.96 490.07 1053.32 498.20 928.84 620.19 883.97 700.55 1035.30 707.79
00001919 00000067 783.75 216.10 448.88 650.07 870.83 490.79 1053.09 499.46 929.52 620.04 884.65 698.38 1035.89 706.11
00001920 00000068 783.39 213.03 448.04 653.63 869.70 494.05 1051.14 500.65 928.74 619.19 885.18 696.52 1041.52 702.32
00001921 00000069 784.05 213.26 446.89 658.71 868.78 493.72 1050.40 500.21 926.66 619.11 884.27 695.94 1046.79 701.35
00001922 00000070 783.63 213.62 447.39 659.22 868.30 494.06 1050.08 500.70 925.85 619.88 884.41 697.30 1046.80 702.80
00001923 00000071 784.00 213.76 447.49 651.97 867.52 494.87 1049.29 502.30 925.91 619.79 882.59 697.11 1042.12 703.51
00001924 00000072 784.89 213.45 446.30 650.73 869.42 495.34 1050.63 502.95 927.96 620.09 884.44 698.21 1039.37 704.84
00001925 00000073 785.12 213.37 447.38 650.84 870.40 493.48 1051.19 502.49 927.39 620.54 884.40 697.63 1038.25 705.43
00001926 00000074 785.10 214.59 447.79 649.77 870.17 494.46 1051.49 503.08 927.73 620.54 883.84 697.59 1038.63 705.17
00001927 00000075 784.39 214.83 448.71 651.83 870.26 492.97 1051.85 502.02 927.64 619.62 882.65 696.35 1038.69 704.40
00001928 00000076 785.58 213.16 447.42 654.91 870.91 493.21 1051.56 501.85 927.08 618.44 883.18 695.60 1039.77 703.29
00001929 00000077 787.43 214.70 445.79 657.32 872.78 493.22 1052.47 501.82 927.81 617.52 885.89 696.66 1040.91 704.41
00001930 00000078 789.06 217.72 446.09 656.97 873.99 493.98 1055.94 502.25 929.95 618.52 887.99 699.48 1043.46 707.08
00001931 00000079 789.76 217.61 446.05 656.34 874.86 492.88 1056.35 501.75 931.53 619.22 888.02 698.96 1044.99 707.11
00001932 00000080 789.82 216.27 446.92 657.67 876.01 492.04 1056.60 501.07 931.97 618.57 888.28 696.99 1045.91 705.21
00001933 00000081 789.05 215.44 448.28 658.73 876.41 489.95 1058.17 499.04 932.73 616.25 886.62 694.72 1046.27 703.01
00001934 00000082 787.74 212.87 449.18 659.94 875.81 486.41 1057.84 495.98 931.70 613.84 885.54 691.32 1047.02 699.87
00001935 00000083 787.51 213.22 449.03 657.90 875.44 486.52 1056.50 496.07 931.18 614.45 885.61 690.40 1046.70 698.88
00001936 00000084 787.89 216.32 448.87 654.51 875.78 489.61 1057.80 499.69 932.80 616.56 885.51 691.66 1046.46 700.71
00001937 00000085 789.02 217.36 448.22 650.35 875.40 490.95 1058.26 501.65 932.86 618.97 885.56 692.71 1047.03 702.27
00001938 00000086 792.04 216.21 446.10 650.32 876.21 491.61 1059.74 502.19 934.07 620.24 885.33 692.87 1048.07 702.37
00001939 00000087 793.55 215.95 444.56 647.07 876.55 491.94 1059.41 502.96 934.39 620.74 885.19 691.53 1047.86 701.37
00001940 00000088 795.07 214.88 442.67 645.71 876.66 490.41 1058.72 501.42 934.38 620.39 885.28 690.24 1046.89 700.09
00001941 00000089 794.44 215.24 443.10 645.42 877.44 489.41 1059.34 501.12 935.07 619.91 885.32 689.43 1046.51 699.85
00001942 00000090 795.96 216.19 441.93 648.66 878.53 488.71 1061.18 501.05 935.23 619.43 885.76 690.23 1046.95 701.25
00001943 00000091 797.66 216.44 441.39 650.17 879.91 488.56 1061.81 500.86 935.53 619.39 887.53 691.50 1046.88 702.55
00001944 00000092 798.83 216.82 440.41 648.18 880.47 489.69 1062.46 502.19 935.88 619.17 888.13 692.56 1047.74 703.72
00001945 00000093 798.89 216.56 439.47 641.01 879.56 490.79 1060.81 503.08 936.91 621.33 889.56 692.84 1046.75 703.58
00001946 00000094 798.70 216.93 439.79 637.30 877.79 492.07 1059.54 502.34 936.08 621.90 890.81 697.46 1044.24 706.42
00001947 00000095 797.82 216.94 440.02 638.38 878.53 491.92 1060.20 502.69 936.40 621.84 891.33 697.51 1044.36 706.86
00001948 00000096 796.76 216.88 441.13 639.66 878.32 491.96 1060.77 502.52 937.33 621.91 890.91 697.98 1044.85 707.23
00001949 00000097 796.51 216.54 441.53 639.94 878.33 491.33 1061.21 502.25 937.78 621.79 890.63 697.12 1045.29 706.68
00001950 00000098 796.88 216.31 440.67 639.27 878.45 491.51 1061.06 502.39 938.11 621.92 890.99 696.42 1044.99 705.93
00001951 00000099 797.40 217.72 440.00 637.86 878.64 491.02 1061.28 502.03 938.21 621.85 890.94 695.79 1045.99 705.41
00001952 00000100 798.05 217.29 439.77 643.45 879.27 490.72 1061.70 502.63 936.79 621.86 889.31 693.74 1048.47 704.20
00001953 00000101 797.35 217.51 441.96 653.70 879.59 491.54 1062.97 502.73 936.81 622.44 889.94 697.06 1049.30 707.23
00001954 00000102 795.39 219.13 444.07 652.61 878.33 493.14 1061.64 502.46 935.07 621.45 890.86 700.84 1048.88 709.38
00001955 00000103 793.71 219.34 444.90 652.39 877.13 494.17 1060.54 502.72 934.93 622.21 890.49 703.19 1047.61 711.07
00001956 00000104 792.97 218.42 445.64 653.09 876.77 494.12 1060.57 502.43 934.53 621.64 890.40 703.23 1047.02 710.89
00001957 00000105 791.98 218.38 445.68 652.05 875.79 493.93 1059.84 501.90 934.15 621.32 889.92 703.23 1045.69 710.55
00001958 00000106 791.09 217.79 446.50 652.93 874.64 494.42 1058.56 501.70 933.39 620.82 889.29 703.72 1045.30 710.46
00001959 00000107 789.69 216.39 446.58 654.60 874.13 494.41 1058.41 501.98 933.63 621.37 888.94 704.82 1043.91 711.70
00001960 00000108 789.43 214.47 446.13 657.30 874.00 494.75 1058.05 502.34 933.17 621.70 888.25 705.02 1043.60 711.90
00001961 00000109 788.38 215.31 447.45 655.63 873.94 494.52 1057.88 501.96 933.48 621.16 888.71 704.88 1043.56 711.59
00001962 00000110 788.55 215.17 447.06 656.08 873.72 493.97 1057.90 501.24 933.32 620.89 888.39 705.04 1042.99 711.65
00001963 00000111 789.48 214.89 446.59 655.87 874.55 494.02 1058.65 501.24 933.97 620.43 888.78 704.91 1042.99 711.53
00001964 00000112 791.12 216.46 446.07 653.77 875.31 493.67 1059.13 501.02 933.79 619.37 888.73 704.51 1042.60 711.35
00001965 00000113 793.72 216.11 444.21 654.20 875.88 492.97 1059.45 501.21 933.05 618.97 887.62 704.62 1041.06 712.34
00001966 00000114 795.03 216.06 443.19 653.63 876.85 493.74 1060.47 502.14 933.31 618.43 888.06 705.00 1041.26 712.83
00001967 00000115 794.84 216.65 443.11 654.73 877.27 493.56 1061.13 502.40 933.93 618.61 888.30 704.69 1041.10 712.91
00001968 00000116 795.42 217.01 442.71 654.90 877.86 493.34 1061.87 502.79 933.98 618.14 887.99 703.95 1040.75 712.73
00001969 00000117 794.13 217.55 444.07 654.76 878.47 492.40 1062.22 501.77 934.42 617.46 889.16 703.17 1041.17 711.88
00001970 00000118 795.59 216.95 443.08 654.65 878.43 491.73 1062.92 500.87 934.55 616.88 888.08 702.58 1041.83 711.21
00001971 00000119 795.27 216.41 443.33 653.95 879.02 491.84 1063.72 501.67 935.52 617.47 888.17 701.69 1042.62 710.85
00001972 00000120 796.37 217.96 442.66 652.13 878.80 493.02 1064.13 503.19 935.47 619.60 888.34 702.74 1043.15 712.14
00001973 00000121 796.58 218.61 442.72 651.18 880.13 494.57 1065.35 505.17 936.73 621.49 889.99 704.49 1043.95 714.12
00001974 00000122 797.62 218.58 441.76 650.46 880.17 495.54 1065.45 506.03 937.04 623.27 890.50 705.69 1044.83 715.20
00001975 00000123 798.10 218.79 441.14 648.90 880.60 494.98 1066.45 506.16 938.02 624.18 890.73 704.81 1044.88 714.93
00001976 00000124 797.75 218.65 441.59 649.76 880.80 494.70 1066.82 505.30 938.21 623.21 891.26 704.36 1045.33 714.03
00001977 00000125 797.83 218.59 441.43 649.15 880.68 494.64 1066.81 505.17 938.29 623.19 891.25 704.11 1045.65 713.69
00001978 00000126 798.82 218.67 440.59 648.63 881.19 494.54 1067.09 505.07 938.93 623.80 892.41 704.24 1046.05 713.82
00001979 00000127 798.50 218.77 440.99 648.01 881.45 494.50 1067.18 505.38 939.32 624.99 892.82 704.45 1046.15 714.29
00001980 00000128 799.03 218.46 440.52 647.57 881.65 494.38 1067.41 505.76 939.69 626.31 892.78 703.89 1046.82 714.17
00001981 00000129 799.05 219.14 440.89 646.57 881.80 494.62 1067.58 506.23 939.75 626.67 892.62 703.27 1047.15 713.75
00001982 00000130 799.91 218.78 439.69 646.38 881.94 494.38 1067.45 506.01 939.59 626.46 893.33 702.94 1047.99 713.36
00001983 00000131 803.13 218.16 436.63 636.88 881.75 494.26 1066.68 506.26 941.02 626.80 895.76 702.09 1048.04 712.57
00001984 00000132 805.11 217.56 433.81 636.46 882.56 493.50 1068.74 505.81 943.16 626.96 894.91 700.89 1048.48 711.72
00001985 00000133 809.79 220.11 429.18 634.87 884.25 489.17 1074.31 501.92 948.43 627.59 903.50 703.51 1056.62 713.70
00001986 00000134 803.83 218.46 438.68 647.89 883.75 493.58 1071.59 504.87 943.48 625.90 893.86 700.80 1053.77 711.10
00001987 00000135 805.12 218.76 437.82 647.65 883.87 494.20 1070.77 505.51 942.38 626.15 894.18 703.21 1051.40 713.68
00001988 00000136 803.85 219.29 438.91 646.24 884.59 494.01 1070.99 506.50 943.14 627.52 894.51 701.23 1052.17 712.55
00001989 00000137 803.36 220.02 439.06 643.36 884.90 493.38 1071.38 506.25 943.38 626.27 893.36 697.69 1052.40 709.26
00001990 00000138 805.18 215.85 437.28 645.63 884.97 491.74 1071.22 502.36 945.90 623.73 893.82 694.87 1054.82 704.70
00001991 00000139 805.17 212.32 436.98 651.19 885.69 489.44 1071.53 499.79 946.43 620.23 895.53 691.83 1057.87 701.02
00001992 00000140 801.05 204.93 439.07 656.83 884.89 487.27 1077.77 494.21 955.66 615.87 903.82 697.91 1066.78 703.43
00001993 DELETE   802.68 198.59 441.64 646.81 886.88 476.48 1085.16 487.21 957.74 612.08 905.33 695.95 1059.80 705.62
00001994 00000142 800.42 195.12 449.82 658.29 890.69 471.52 1091.53 479.58 967.42 612.11 910.89 697.77 1064.88 705.97
00001995 00000143 803.08 197.03 451.39 666.79 896.33 471.26 1095.10 478.57 972.78 612.11 916.03 701.11 1067.01 708.94
00001996 00000144 805.58 200.38 453.58 667.04 901.81 473.64 1097.17 478.82 975.08 609.99 919.35 697.78 1072.29 703.27
00001997 00000145 807.23 204.77 454.88 663.50 902.86 476.91 1099.10 483.05 977.34 617.51 922.93 701.30 1077.33 707.52
00001998 00000146 807.68 208.30 455.38 663.59 903.88 479.11 1100.36 486.23 979.96 625.92 923.51 702.83 1081.91 709.92
00001999 00000147 808.09 212.47 456.54 657.20 903.97 482.35 1104.10 488.03 983.80 628.77 927.67 710.80 1088.54 716.32
CROP_BBOX: 499 0 1545 1025
