Video ID: 	QrZ6ilF9isA
H: 	1080
W: 	1920
FPS: 	25.0

FRAME INDEX X0 Y0 W H [Landmarks (5 Points)]

00021546 00000000 628.74 138.89 456.51 648.50 744.49 376.75 960.18 368.80 854.44 463.99 769.85 606.24 959.52 597.82
00021547 00000001 642.92 143.67 453.35 655.12 763.82 375.52 973.04 363.26 873.20 472.85 789.95 605.24 969.93 593.32
00021548 DELETE   651.97 144.50 450.43 655.60 770.65 385.58 983.50 376.66 886.14 487.18 793.20 616.71 986.33 608.96
00021549 00000003 661.61 165.27 451.35 654.96 783.40 396.05 995.97 388.13 900.78 502.12 812.04 629.72 989.59 621.29
00021550 DELETE   668.39 190.14 451.56 641.84 785.48 412.68 1003.40 406.48 907.37 528.01 820.92 651.83 994.90 644.62
00021551 00000005 667.56 204.65 450.05 635.56 787.88 427.66 1003.68 423.29 911.63 548.49 824.41 669.52 991.27 663.98
00021552 00000006 666.82 217.14 448.34 634.85 786.04 443.27 1004.39 437.95 910.32 568.59 822.45 686.63 992.43 680.93
00021553 00000007 661.43 221.64 451.69 643.77 783.52 452.71 998.29 448.30 903.31 579.81 817.34 695.63 985.09 691.38
00021554 00000008 656.15 226.82 458.63 645.11 780.74 459.38 992.40 453.21 898.05 591.30 815.02 702.97 980.71 697.93
00021555 00000009 651.78 231.24 459.92 646.36 778.49 468.56 990.42 461.62 896.83 597.99 813.14 708.97 982.70 703.58
00021556 00000010 652.86 253.34 458.81 633.03 776.07 478.85 987.48 470.22 893.38 608.41 814.51 719.47 981.56 712.92
00021557 00000011 652.28 258.79 455.27 636.76 771.65 489.89 982.78 480.25 887.63 620.91 808.05 729.09 979.26 721.61
00021558 00000012 648.30 263.57 454.81 634.84 762.78 498.59 978.45 486.00 879.01 630.71 805.08 737.73 976.98 727.97
00021559 00000013 642.45 266.08 459.63 636.14 757.34 497.55 972.49 486.65 871.42 631.37 796.95 736.13 970.60 727.72
00021560 00000014 639.47 262.44 458.50 637.98 753.77 492.86 968.79 484.12 866.41 625.76 788.21 728.68 968.30 721.81
00021561 00000015 635.35 275.43 459.60 618.13 747.98 494.98 962.65 482.29 860.14 619.56 782.74 723.74 959.88 710.17
00021562 00000016 631.79 270.40 459.13 616.98 742.63 490.76 957.00 478.39 854.00 616.53 775.18 715.33 956.49 702.52
00021563 00000017 625.91 263.70 462.78 621.21 739.04 485.48 951.95 471.47 852.83 610.84 774.99 711.19 953.88 696.74
00021564 00000018 624.14 250.53 462.74 629.07 735.04 479.52 950.73 466.19 849.96 606.20 772.07 707.52 952.11 693.46
00021565 00000019 620.41 244.52 464.77 628.93 728.90 475.60 948.21 459.84 845.60 601.20 770.50 702.12 953.16 685.94
00021566 00000020 615.47 238.54 465.61 627.37 724.80 468.95 937.61 454.54 836.98 590.21 760.16 691.97 949.84 678.47
00021567 00000021 612.57 233.18 464.81 626.07 720.86 463.88 931.88 449.94 831.77 580.77 757.44 685.90 944.32 672.40
00021568 00000022 611.68 231.13 462.58 625.75 715.48 461.86 928.17 445.69 826.95 575.40 752.67 682.75 945.19 667.34
00021569 00000023 609.72 229.20 464.76 625.56 713.62 458.98 927.49 442.49 825.62 572.89 751.16 680.19 944.23 664.46
00021570 00000024 608.83 225.50 465.37 626.72 713.02 456.51 925.16 440.85 823.09 569.39 748.20 674.73 942.40 659.43
00021571 00000025 607.64 223.42 464.77 625.07 710.96 454.07 923.63 438.23 819.95 565.71 744.99 670.21 941.13 654.89
00021572 00000026 607.05 224.52 466.75 622.59 713.46 448.98 925.07 435.72 821.60 563.61 745.49 665.56 939.97 652.28
00021573 00000027 606.63 221.77 466.67 625.95 713.97 447.15 924.24 434.85 821.35 562.27 745.39 664.31 937.97 651.83
00021574 00000028 607.32 223.69 465.89 626.46 712.47 447.21 922.65 433.41 819.10 561.97 745.89 666.45 938.43 652.68
00021575 00000029 607.93 220.64 465.83 626.91 713.19 444.60 922.87 431.33 819.38 558.19 747.44 664.86 936.25 651.57
00021576 00000030 607.59 218.96 464.48 623.79 713.21 439.92 923.50 427.39 819.75 553.73 747.75 661.71 935.72 648.88
00021577 00000031 609.13 215.44 463.31 623.68 715.23 437.59 926.11 425.91 822.19 549.89 748.30 658.73 937.05 646.57
00021578 00000032 611.24 213.94 461.62 624.98 716.21 437.95 927.99 426.51 823.11 551.05 748.86 659.57 937.99 647.56
00021579 00000033 611.79 213.84 461.13 626.00 718.07 437.70 931.40 427.56 826.18 552.27 750.25 661.50 937.44 650.63
00021580 00000034 613.26 213.36 461.57 627.29 721.06 436.10 935.21 426.95 829.44 550.04 752.37 660.95 938.71 650.97
00021581 00000035 616.61 207.79 457.54 632.74 725.04 433.31 937.72 424.38 834.49 546.53 754.86 658.23 941.97 648.73
00021582 00000036 620.22 209.60 456.51 628.02 728.59 429.38 940.04 421.74 834.96 543.62 756.63 653.30 945.08 644.61
00021583 00000037 622.99 204.70 455.52 628.01 732.63 427.13 944.24 419.94 839.21 541.55 759.36 647.23 951.23 638.79
00021584 00000038 625.48 201.15 454.89 627.47 735.31 425.00 947.47 417.85 842.88 537.86 760.90 644.35 952.31 636.21
00021585 00000039 628.36 199.39 453.47 628.85 738.88 422.33 952.11 415.35 845.86 535.57 762.28 640.61 956.51 632.28
00021586 00000040 631.08 196.97 454.82 629.08 740.90 418.87 955.49 411.58 847.50 531.13 762.91 636.46 958.35 627.88
00021587 00000041 632.09 195.46 456.89 627.68 741.75 417.48 957.34 409.94 847.67 529.11 763.18 632.71 960.39 624.03
00021588 00000042 632.10 193.23 457.52 626.84 741.91 415.89 957.89 407.94 847.57 527.20 762.39 629.58 961.21 620.60
00021589 00000043 632.41 192.56 456.67 626.09 743.37 415.70 958.06 407.55 849.29 526.90 763.52 627.42 962.28 618.22
00021590 00000044 632.78 191.88 456.19 624.47 743.22 416.20 958.00 408.47 848.91 527.28 762.24 625.80 962.80 616.96
00021591 00000045 631.53 192.73 457.03 623.93 742.10 417.76 957.18 409.88 848.51 528.78 761.02 626.02 963.15 617.08
00021592 00000046 629.32 193.78 459.25 625.39 739.14 420.53 955.18 409.42 847.31 529.86 762.01 630.03 963.91 618.28
00021593 00000047 628.63 192.24 456.37 633.00 738.17 419.72 953.76 408.40 848.25 531.04 763.98 637.85 959.37 625.92
00021594 00000048 627.32 190.03 455.44 638.20 738.10 417.46 952.39 406.53 850.00 532.08 771.51 651.36 948.25 639.26
00021595 00000049 626.50 189.31 454.80 638.22 737.01 417.83 951.91 406.15 849.67 533.92 773.45 655.18 946.43 642.46
00021596 00000050 625.79 189.18 454.73 638.32 736.61 416.92 950.90 406.31 848.67 534.65 772.96 656.14 942.21 644.31
00021597 00000051 624.79 187.07 453.79 639.01 736.38 416.46 949.67 405.60 848.78 533.16 773.20 655.47 941.40 643.39
00021598 00000052 624.47 189.90 453.88 636.34 737.38 415.23 950.40 405.86 848.75 532.98 771.05 653.20 940.60 642.51
00021599 00000053 623.90 188.50 454.52 638.04 736.79 414.95 949.97 405.24 848.47 532.88 771.40 653.10 940.72 642.05
00021600 00000054 623.59 191.19 454.59 635.60 736.11 415.58 948.98 405.69 847.73 532.95 770.58 653.09 940.43 641.92
00021601 00000055 623.09 192.01 454.96 637.09 735.93 416.08 949.11 406.38 847.73 533.24 770.41 654.94 939.72 643.97
00021602 00000056 622.75 195.37 456.67 636.01 734.50 417.32 949.08 408.03 846.13 534.06 768.33 655.88 940.30 645.29
00021603 00000057 623.22 195.19 457.27 634.55 734.04 419.34 949.61 409.23 846.72 534.94 767.71 655.25 943.66 644.13
00021604 00000058 624.42 197.38 455.08 631.01 734.62 421.08 949.34 410.52 846.57 534.43 766.57 653.18 946.24 641.91
00021605 00000059 624.12 200.08 455.11 628.06 735.82 420.94 948.41 410.71 846.93 533.48 765.87 650.43 947.07 639.44
00021606 00000060 622.35 198.55 456.96 627.45 736.75 419.32 949.66 411.08 848.86 532.55 766.15 647.59 946.96 638.26
00021607 00000061 622.38 196.42 458.19 628.61 738.24 419.11 951.82 410.72 851.28 531.41 766.12 645.25 950.39 635.88
00021608 00000062 623.67 194.69 457.77 632.72 739.15 419.01 952.94 410.15 851.70 529.47 765.99 644.30 952.71 634.46
00021609 00000063 624.63 193.29 457.34 634.27 740.93 418.82 952.92 410.53 852.99 529.55 767.59 643.71 953.24 634.31
00021610 00000064 625.17 192.74 458.64 634.73 739.77 419.26 953.64 409.79 852.69 529.54 767.83 644.41 954.30 633.92
00021611 00000065 625.09 192.52 457.98 634.17 738.86 418.75 952.07 407.74 852.69 529.78 769.14 644.79 954.54 632.88
00021612 00000066 626.47 183.44 457.73 640.12 738.58 418.57 954.03 404.36 853.98 529.58 773.53 648.03 954.80 633.48
00021613 00000067 626.68 177.89 457.21 636.95 736.45 415.83 955.04 401.26 853.44 529.27 772.42 644.87 954.84 629.89
00021614 00000068 626.30 174.95 456.98 641.47 736.73 412.32 954.71 397.93 853.49 526.13 774.10 645.50 951.91 630.58
00021615 00000069 626.81 177.64 456.75 642.34 738.22 411.08 954.45 397.87 851.94 523.67 773.95 645.36 950.56 631.45
00021616 00000070 627.33 184.38 458.33 637.26 738.66 414.19 954.97 402.31 851.53 526.31 770.13 641.82 955.11 629.18
00021617 00000071 627.15 186.72 458.49 635.96 738.88 416.32 955.86 405.88 852.19 528.78 768.22 641.11 957.00 629.84
00021618 00000072 626.52 189.38 458.86 640.52 739.51 417.65 955.60 408.27 852.60 530.48 767.12 642.65 958.06 632.14
00021619 00000073 626.06 189.15 458.54 645.87 739.17 416.85 954.29 407.60 851.08 529.26 767.01 643.45 957.76 632.88
00021620 00000074 624.84 187.01 459.56 643.78 737.63 416.14 952.87 405.87 850.54 527.61 766.75 641.16 957.23 629.84
00021621 00000075 625.08 181.69 459.68 645.13 736.77 416.39 951.95 403.89 848.79 525.92 767.64 638.52 958.40 625.26
00021622 00000076 624.71 181.61 462.60 639.72 736.80 415.89 953.04 402.49 849.12 525.13 767.90 635.10 960.50 621.04
00021623 00000077 626.40 181.53 461.96 636.69 737.59 415.38 954.14 401.84 849.17 524.79 768.20 633.39 961.48 619.21
00021624 00000078 628.22 182.73 461.52 635.81 739.85 414.16 955.44 401.21 851.08 523.59 769.63 631.20 962.63 617.51
00021625 00000079 629.38 179.13 462.41 640.51 741.31 413.57 958.19 400.24 852.57 521.27 770.13 629.91 965.54 615.94
00021626 00000080 632.75 175.61 461.49 642.72 746.00 411.66 962.88 398.91 857.09 519.81 772.08 628.00 967.48 614.64
00021627 00000081 634.14 174.52 463.34 638.99 748.17 411.07 966.28 398.35 860.41 518.52 773.27 625.90 970.73 612.59
00021628 00000082 634.82 177.23 461.68 633.37 748.62 411.71 967.09 399.11 861.28 520.35 773.59 625.21 971.97 611.98
00021629 00000083 635.49 180.47 459.86 630.66 748.43 412.88 966.23 399.86 861.29 522.28 773.48 626.33 971.34 612.78
00021630 00000084 634.56 183.60 458.92 628.94 747.07 415.16 964.40 402.78 858.74 524.81 772.03 627.73 969.92 614.78
00021631 00000085 633.68 184.50 460.10 628.22 745.99 416.58 964.67 403.86 858.89 526.68 770.96 628.85 970.40 615.59
00021632 00000086 633.57 185.96 461.56 626.88 746.94 418.18 966.24 406.44 860.29 529.49 770.02 628.81 971.73 616.39
00021633 00000087 634.88 186.87 459.66 628.04 747.16 418.77 966.22 406.63 860.46 530.75 770.20 630.58 971.79 617.87
00021634 00000088 634.62 188.61 461.03 624.76 747.91 418.30 967.66 407.08 861.86 530.21 772.30 631.93 970.94 619.98
00021635 00000089 635.36 186.85 461.48 627.18 747.94 417.81 968.40 406.66 861.72 529.62 772.04 632.18 971.05 620.33
00021636 00000090 635.34 185.86 461.63 629.72 748.50 417.45 968.32 405.72 862.24 528.78 772.55 632.25 970.00 619.98
00021637 00000091 635.26 186.15 461.22 633.65 748.22 417.51 966.61 405.77 861.43 528.42 771.95 633.15 968.90 620.94
00021638 00000092 635.20 187.86 460.77 636.51 748.52 418.23 966.46 407.02 860.98 530.00 771.18 634.13 969.76 622.43
00021639 00000093 633.82 190.30 461.26 631.83 747.55 418.57 965.51 407.87 860.67 530.95 770.91 633.50 969.82 622.15
00021640 00000094 633.44 189.15 461.17 632.00 747.18 418.58 965.43 407.57 860.79 530.93 771.40 632.82 970.71 621.08
00021641 00000095 633.68 189.14 461.30 631.16 746.85 418.01 965.66 406.63 860.68 529.72 770.74 632.18 970.94 620.12
00021642 00000096 633.38 186.18 461.57 632.59 747.39 418.58 966.53 407.06 861.26 529.12 771.15 632.25 971.19 620.12
00021643 00000097 633.95 186.47 460.39 631.38 747.63 418.70 966.96 406.41 862.07 528.95 771.89 632.59 972.04 619.87
00021644 00000098 633.63 188.59 460.81 628.75 748.03 419.00 966.09 406.40 862.59 529.36 773.47 633.80 970.59 620.89
00021645 00000099 634.50 189.06 460.54 630.22 748.93 418.35 965.69 405.75 863.83 530.82 777.30 638.32 967.14 625.29
00021646 00000100 632.74 185.04 462.07 635.47 749.50 416.86 966.22 403.49 866.31 529.67 783.94 646.53 961.96 632.58
00021647 00000101 631.17 182.58 461.59 638.97 748.04 415.89 966.66 401.30 866.86 529.93 786.49 652.62 958.69 637.50
00021648 00000102 630.45 180.56 460.58 641.63 748.21 415.59 965.94 400.58 867.51 528.73 788.18 655.06 957.06 639.67
00021649 00000103 629.69 180.78 461.12 641.30 747.49 416.08 965.26 401.66 866.97 529.07 786.81 654.64 956.50 639.69
00021650 00000104 628.72 180.20 462.93 638.59 745.81 416.43 963.34 402.30 864.25 527.60 783.05 649.95 957.08 635.31
00021651 00000105 627.76 182.01 462.46 637.10 743.97 415.90 960.07 401.48 860.65 525.26 780.73 646.94 955.57 631.98
00021652 00000106 627.67 181.15 462.97 637.98 744.29 416.20 960.30 401.68 861.09 525.31 779.65 644.93 957.22 629.95
00021653 00000107 628.08 181.58 462.34 639.30 744.26 416.05 960.85 402.78 860.46 526.04 779.67 646.74 956.25 632.78
00021654 00000108 629.18 179.40 460.81 639.70 744.01 416.52 961.54 402.06 861.68 528.25 782.15 650.34 955.09 635.41
00021655 00000109 629.07 179.87 461.13 637.07 743.93 417.73 962.70 403.25 863.06 530.67 784.76 654.01 954.81 639.04
00021656 00000110 629.14 180.21 460.34 636.25 743.57 417.92 962.26 403.46 862.37 530.56 784.72 655.08 953.40 640.18
00021657 00000111 629.89 181.35 459.32 635.10 743.84 418.07 961.52 404.62 860.68 529.38 783.29 654.88 951.50 640.92
00021658 00000112 628.44 182.34 460.21 635.92 743.80 418.56 961.37 405.45 860.87 528.93 783.92 657.42 950.09 643.85
00021659 00000113 628.49 185.71 459.79 641.57 745.60 417.54 961.86 405.07 860.96 527.09 786.34 661.75 947.81 648.46
00021660 00000114 627.98 184.98 458.25 641.11 742.87 419.51 960.62 405.19 860.06 529.35 783.85 661.80 950.36 647.42
00021661 00000115 627.47 185.50 458.09 638.24 741.92 419.79 960.02 405.31 859.98 529.86 783.23 659.50 952.03 644.84
00021662 00000116 626.59 186.46 459.32 639.94 741.95 419.52 959.80 405.51 859.88 529.63 782.34 659.32 951.63 644.96
00021663 00000117 627.45 193.71 456.28 635.38 743.39 420.81 959.55 410.97 859.93 532.23 777.25 658.35 950.94 647.79
00021664 00000118 624.61 194.65 454.81 639.04 739.71 424.78 955.04 416.07 855.55 537.07 771.05 659.78 949.84 650.31
00021665 00000119 620.22 202.06 456.64 638.54 737.16 428.18 952.41 421.22 852.41 541.05 766.37 661.74 948.54 653.76
00021666 00000120 614.14 202.97 461.87 644.06 733.11 434.21 947.68 426.93 848.23 549.17 764.12 667.46 945.45 659.01
00021667 00000121 611.92 212.18 460.34 638.89 725.88 443.77 942.60 432.54 843.50 558.80 760.81 675.63 946.73 664.04
00021668 00000122 607.61 219.32 459.41 637.70 718.67 452.08 937.42 438.84 839.60 568.82 754.10 682.63 946.70 669.52
00021669 00000123 604.75 225.46 460.96 636.01 715.12 457.55 930.82 442.36 833.75 573.26 754.04 688.91 940.54 674.41
00021670 00000124 603.37 227.12 460.75 640.77 713.81 458.24 929.96 444.08 830.72 579.58 757.08 698.99 933.35 685.71
00021671 00000125 607.51 228.25 461.73 643.91 716.54 460.98 935.96 446.41 836.20 587.68 763.16 706.84 937.42 693.13
00021672 00000126 613.04 231.06 464.52 651.29 729.70 471.26 951.47 453.34 855.32 594.50 780.48 716.92 948.58 698.44
00021673 00000127 617.14 243.03 464.26 650.30 738.37 484.86 957.36 466.63 864.80 606.37 786.67 729.50 954.27 711.00
00021674 00000128 622.36 261.91 462.28 638.48 742.70 498.13 960.49 481.03 867.40 617.33 784.30 734.62 958.54 717.55
00021675 00000129 623.23 270.99 458.64 634.84 748.16 508.10 958.32 493.60 868.68 628.03 781.39 734.82 959.07 719.88
00021676 DELETE   617.44 272.01 462.12 636.07 742.26 512.84 952.19 500.43 860.65 633.70 773.24 733.59 955.04 720.65
00021677 DELETE   612.79 280.05 461.14 630.42 733.51 514.72 941.59 503.06 848.31 634.43 763.13 732.45 946.53 720.38
00021678 DELETE   605.80 274.44 466.14 637.40 718.52 517.74 929.57 505.97 829.44 638.61 751.83 735.90 935.07 723.68
00021679 00000133 598.63 273.80 465.26 639.15 704.04 520.50 911.09 510.36 808.44 642.05 739.55 736.35 918.92 725.71
00021680 00000134 594.64 274.72 465.22 638.20 694.81 515.54 906.21 506.30 798.02 640.03 732.41 739.47 909.49 729.70
00021681 00000135 590.38 268.51 469.47 643.19 694.38 512.66 906.96 501.18 794.73 642.56 734.18 742.55 915.24 732.38
00021682 00000136 599.35 275.22 461.17 632.67 702.20 509.29 914.77 501.49 808.10 637.98 744.51 741.16 910.69 732.99
00021683 00000137 604.22 276.36 460.67 629.14 710.38 507.37 923.53 497.30 820.93 631.83 752.35 739.88 919.81 729.49
00021684 00000138 608.85 271.89 462.01 631.73 718.57 502.79 932.84 492.54 830.62 625.00 758.81 735.07 929.12 723.85
00021685 00000139 612.92 267.82 462.02 632.32 722.65 500.04 935.90 486.98 836.01 617.69 762.37 731.24 936.79 717.66
00021686 00000140 615.00 262.36 463.43 633.91 726.89 492.42 942.14 482.05 841.97 610.45 764.66 722.65 942.08 711.32
00021687 00000141 614.87 254.71 463.82 639.85 727.10 486.90 943.13 474.29 843.98 606.54 766.69 717.75 945.02 704.18
00021688 00000142 615.33 256.78 463.20 636.94 727.79 485.47 941.62 472.66 843.58 604.16 766.90 714.77 944.52 700.99
00021689 00000143 615.49 253.92 462.83 637.67 728.51 484.44 941.66 471.52 844.14 601.85 767.47 713.12 944.84 699.29
00021690 00000144 614.70 249.60 463.71 636.57 728.60 481.87 941.80 467.67 844.40 596.08 769.76 708.70 946.48 693.66
00021691 00000145 615.44 242.14 464.88 637.03 730.24 474.35 943.63 459.81 846.33 589.70 769.34 701.13 947.99 685.93
00021692 00000146 612.30 233.58 463.42 634.63 729.13 466.59 941.59 457.84 841.67 579.37 760.89 692.67 947.26 683.84
00021693 00000147 611.52 226.00 459.49 631.91 726.86 460.14 942.19 449.48 842.86 572.50 764.88 690.64 946.04 679.99
00021694 00000148 612.26 218.09 454.49 634.34 727.26 449.39 944.46 439.14 847.92 563.72 766.05 687.36 945.54 676.88
00021695 00000149 608.58 207.74 452.07 643.05 726.92 440.99 945.37 431.55 851.27 558.96 767.07 684.44 942.00 674.55
00021696 00000150 606.29 205.14 453.10 645.29 726.70 436.02 946.51 427.19 852.50 552.43 767.42 681.07 940.94 671.69
CROP_BBOX: 319 0 1501 1080
