Video ID: 	Vz_tXKMJ9NM
H: 	1080
W: 	1920
FPS: 	29.97002997002997

FRAME INDEX X0 Y0 W H [Landmarks (5 Points)]

00041750 00000000 832.67 162.92 349.73 542.79 880.29 360.67 1024.53 328.77 922.28 439.53 919.23 575.59 1026.07 552.12
00041751 00000001 826.60 168.45 351.18 537.94 870.73 367.57 1013.11 338.40 910.99 446.01 911.95 575.13 1020.59 554.11
00041752 00000002 826.61 168.30 351.00 539.30 869.94 371.03 1013.82 340.80 911.08 448.36 911.83 577.81 1022.20 556.10
00041753 00000003 826.75 168.35 352.33 538.61 872.24 369.04 1017.97 339.61 915.70 449.03 914.77 578.24 1026.65 556.80
00041754 00000004 828.55 165.84 352.49 540.70 874.98 368.39 1025.15 337.04 919.91 446.43 916.59 577.87 1033.33 554.38
00041755 00000005 831.83 163.11 351.76 542.85 878.32 369.80 1030.63 335.14 926.28 446.60 921.10 580.47 1039.11 553.93
00041756 00000006 824.55 163.59 357.55 543.98 872.66 368.14 1039.95 334.94 931.49 440.31 927.82 578.41 1048.00 551.86
00041757 00000007 827.11 163.66 355.59 545.80 876.47 368.17 1043.89 337.65 936.36 443.23 930.55 579.56 1051.12 554.94
00041758 00000008 832.27 165.13 352.53 542.00 884.70 363.89 1051.31 341.81 945.68 448.95 932.97 577.77 1055.10 559.82
00041759 00000009 842.03 164.81 349.30 541.42 899.19 364.57 1065.59 349.02 964.55 455.27 939.93 575.99 1066.18 563.57
00041760 00000010 855.67 152.36 345.79 555.55 915.33 368.15 1084.44 354.42 986.95 464.35 951.02 579.89 1082.99 569.42
00041761 DELETE   874.56 155.58 340.89 549.09 950.07 364.39 1111.08 359.34 1025.41 462.87 975.16 569.09 1099.03 567.67
00041762 00000012 887.41 146.79 339.30 553.21 968.43 363.74 1134.80 363.57 1052.32 472.38 987.02 566.35 1118.65 567.82
00041763 00000013 888.83 145.58 339.65 552.41 970.42 360.68 1137.30 362.67 1054.53 470.18 986.10 563.30 1119.31 566.74
00041764 00000014 879.63 148.05 341.49 548.67 959.26 357.44 1123.62 358.32 1037.26 465.39 975.27 558.81 1104.20 561.93
00041765 00000015 865.22 150.94 343.94 546.98 940.16 353.12 1097.79 354.90 1010.37 459.68 959.84 556.40 1080.65 559.22
00041766 00000016 853.72 147.36 343.06 546.53 914.75 355.03 1081.94 348.29 982.76 453.28 942.53 561.55 1072.80 556.97
00041767 00000017 838.91 151.53 350.23 540.86 898.82 352.34 1063.76 341.86 966.41 449.21 932.54 558.02 1058.57 550.33
00041768 00000018 830.26 151.02 353.00 545.84 887.20 352.40 1055.07 338.02 953.16 448.69 924.97 560.45 1054.71 549.31
00041769 00000019 839.87 157.10 338.74 542.85 890.14 357.18 1041.46 331.03 943.32 448.77 926.47 570.39 1043.74 550.89
00041770 00000020 836.38 158.24 340.26 541.67 887.12 356.30 1037.42 330.39 940.21 446.35 924.73 569.75 1039.33 551.03
00041771 00000021 824.75 156.37 349.92 535.43 883.89 354.27 1045.95 333.32 946.97 438.74 926.90 559.27 1043.75 542.89
00041772 00000022 828.03 154.67 352.93 531.21 891.27 350.93 1052.62 333.24 954.93 437.29 931.49 553.53 1049.96 539.87
00041773 00000023 834.54 150.21 349.27 529.71 902.09 350.96 1062.78 335.25 968.94 436.98 937.35 546.88 1061.35 534.84
00041774 00000024 845.56 147.77 354.05 529.58 915.38 350.22 1081.08 333.03 990.64 443.32 947.03 547.94 1079.62 535.30
00041775 00000025 848.05 138.34 349.77 538.76 926.14 349.39 1090.55 338.06 1003.23 437.15 954.20 543.08 1089.65 532.83
00041776 00000026 853.05 132.57 347.18 537.95 928.67 343.24 1097.20 333.15 1008.73 434.54 953.66 538.38 1097.06 529.60
00041777 00000027 858.04 128.02 342.99 538.29 931.37 338.23 1103.86 328.34 1014.57 431.84 954.57 536.12 1102.37 527.77
00041778 00000028 855.16 123.71 352.22 545.72 939.68 338.68 1112.69 337.41 1025.55 429.44 964.01 531.81 1108.44 531.52
00041779 00000029 857.19 122.13 352.03 546.93 942.17 340.02 1114.98 338.63 1027.39 430.35 967.45 532.92 1109.45 532.72
00041780 00000030 853.67 123.83 356.15 548.44 937.20 340.13 1110.59 337.39 1021.61 429.96 962.69 533.95 1106.06 532.45
00041781 00000031 843.00 127.13 365.43 552.19 923.36 344.08 1094.74 336.35 1002.82 434.12 950.82 538.05 1092.34 532.72
00041782 DELETE   837.74 141.21 358.95 543.73 895.96 347.88 1062.13 324.04 959.34 436.63 928.96 555.35 1060.73 535.68
00041783 DELETE   816.89 155.71 364.74 541.81 862.05 370.14 1015.37 341.86 904.95 448.47 892.76 561.64 1026.64 540.78
00041784 DELETE   799.89 174.37 362.96 544.94 838.64 382.42 978.98 352.18 867.76 470.46 881.64 587.20 997.70 562.79
00041785 00000035 790.76 175.20 363.52 544.93 817.71 398.61 962.20 355.30 848.73 481.27 874.00 606.30 985.75 570.60
00041786 00000036 791.80 175.75 365.93 536.90 821.24 397.55 973.22 360.24 859.13 491.68 873.27 604.18 992.29 573.44
00041787 DELETE   800.66 177.63 368.76 539.59 841.39 397.38 985.97 366.99 882.80 488.72 885.18 597.70 1007.04 573.47
00041788 DELETE   813.67 177.43 370.34 539.49 862.43 394.61 1009.33 369.92 909.12 487.89 904.24 593.43 1024.32 573.97
00041789 DELETE   822.76 167.89 369.30 547.30 884.00 391.09 1040.13 367.72 946.06 493.64 929.40 597.15 1051.27 578.43
00041790 00000040 828.09 157.17 368.82 568.00 885.21 389.36 1065.56 364.86 964.09 492.85 937.43 609.75 1072.88 589.92
00041791 00000041 829.50 155.65 369.81 571.03 891.64 385.73 1074.85 365.27 974.13 492.46 941.29 609.45 1079.28 592.77
00041792 00000042 828.74 159.09 372.56 568.89 894.46 390.34 1076.37 371.90 975.25 493.37 942.44 608.96 1075.34 593.81
00041793 00000043 828.86 160.81 372.25 567.70 890.30 409.09 1070.50 384.11 969.27 493.15 936.05 612.09 1074.81 591.13
00041794 00000044 825.96 162.37 372.71 565.40 885.39 406.90 1067.34 384.50 962.60 492.15 929.75 611.23 1066.93 592.41
00041795 00000045 826.25 159.00 369.42 567.78 885.87 399.09 1067.31 380.10 962.86 491.88 930.41 606.50 1063.05 590.68
00041796 00000046 826.03 155.10 368.72 570.60 885.56 388.99 1068.08 373.74 961.75 488.06 925.89 601.23 1062.27 588.94
00041797 00000047 828.38 152.22 368.51 572.11 884.60 379.04 1068.73 365.81 959.52 484.16 922.29 595.73 1065.69 585.25
00041798 00000048 830.16 151.45 369.01 569.99 884.22 374.45 1069.43 362.18 958.43 482.64 920.67 591.92 1068.47 582.35
00041799 00000049 830.66 150.95 368.68 569.42 885.96 371.15 1070.48 361.12 958.28 481.45 921.15 589.33 1067.47 581.62
00041800 00000050 830.46 150.57 370.19 569.23 886.30 368.46 1069.54 359.57 957.03 479.10 920.86 586.41 1065.10 579.66
00041801 00000051 830.32 149.62 370.61 569.22 886.94 366.38 1069.28 358.55 956.58 477.92 920.91 584.26 1065.69 578.40
00041802 00000052 828.59 149.85 372.11 568.71 884.51 367.23 1068.01 358.61 953.93 477.65 918.14 582.75 1067.20 576.24
00041803 00000053 824.65 146.65 375.18 573.11 874.83 370.42 1058.08 361.26 938.63 479.61 908.57 581.84 1060.42 574.78
00041804 00000054 821.38 157.35 374.86 556.91 869.68 384.15 1025.74 371.17 908.03 475.08 889.95 573.52 1035.76 563.51
00041805 00000055 812.17 168.61 369.79 542.41 852.79 380.60 1001.74 369.02 879.01 470.84 874.77 569.50 1016.22 560.13
00041806 00000056 803.52 171.44 368.26 540.00 843.75 379.76 988.40 370.00 865.24 470.61 867.54 570.67 1002.74 562.26
00041807 00000057 807.45 171.20 365.89 539.76 847.66 380.73 991.45 369.21 870.73 471.68 872.56 568.27 1010.42 558.17
00041808 DELETE   815.23 167.72 369.97 549.95 859.48 381.48 1010.21 365.46 892.69 469.50 883.94 569.14 1031.07 556.21
00041809 DELETE   827.17 160.31 370.03 559.99 879.95 382.64 1041.05 367.50 929.73 480.19 904.30 572.91 1059.41 560.65
00041810 00000060 844.63 167.39 362.99 578.77 915.01 379.81 1084.39 370.72 982.10 495.30 934.56 579.51 1098.23 571.31
00041811 00000061 850.25 155.98 363.90 596.69 926.60 389.40 1098.07 386.27 997.88 501.69 947.55 586.40 1115.31 581.69
00041812 00000062 853.21 149.66 357.12 607.15 917.60 393.84 1095.95 382.60 992.13 516.18 946.93 603.72 1109.75 591.80
00041813 00000063 846.11 161.02 357.66 590.55 908.70 394.46 1079.17 384.31 973.63 515.06 940.27 602.16 1093.80 590.34
00041814 00000064 832.68 161.80 361.50 582.59 891.64 396.29 1063.77 385.58 954.04 516.15 928.20 601.80 1081.59 589.48
00041815 00000065 829.34 178.10 366.30 563.07 890.21 395.65 1051.17 380.76 947.59 512.11 920.10 590.69 1074.14 577.83
00041816 00000066 827.77 177.44 368.16 560.24 890.37 394.10 1052.76 378.70 949.69 509.29 920.54 587.39 1076.94 574.05
00041817 00000067 833.24 174.77 363.84 563.18 896.00 391.41 1060.27 375.46 958.23 506.04 923.73 584.95 1082.63 571.13
00041818 00000068 837.80 175.15 360.50 567.12 903.73 388.81 1066.03 371.99 968.12 502.29 928.75 583.06 1086.74 568.63
00041819 00000069 841.19 174.76 356.39 571.45 909.08 386.70 1070.28 372.65 975.27 501.35 930.40 580.52 1088.80 568.41
00041820 00000070 842.59 173.38 355.03 573.71 911.66 384.12 1074.07 372.74 977.94 500.18 930.56 579.99 1089.26 570.17
00041821 00000071 843.77 170.97 354.61 573.50 911.87 383.83 1074.62 374.52 976.13 500.89 929.59 580.36 1086.22 572.06
00041822 00000072 838.74 154.70 353.02 575.98 898.17 382.30 1072.40 378.20 963.22 503.18 925.98 587.91 1078.40 582.90
00041823 00000073 834.10 158.66 357.73 569.94 892.88 384.93 1071.45 386.71 957.29 511.24 920.79 597.71 1063.74 598.20
00041824 00000074 832.22 166.68 363.67 557.05 894.27 389.70 1058.31 385.80 948.22 515.02 919.13 594.29 1056.53 590.13
00041825 00000075 829.55 169.51 360.38 555.26 887.58 385.78 1049.58 380.50 938.42 499.80 911.05 589.35 1047.85 584.82
00041826 00000076 819.88 162.53 364.51 564.14 868.32 377.21 1047.58 368.14 929.73 486.74 900.06 591.57 1042.83 584.86
00041827 00000077 822.37 156.85 363.60 564.01 867.68 370.76 1047.81 357.55 931.00 475.37 901.55 586.99 1042.37 577.34
00041828 00000078 826.42 158.39 363.11 555.30 877.51 362.23 1054.04 352.82 941.35 468.80 908.31 577.76 1048.35 571.12
00041829 00000079 833.68 157.58 357.29 550.33 888.18 357.99 1060.28 351.78 950.16 464.05 917.18 571.94 1052.50 568.00
00041830 00000080 835.92 152.31 356.63 554.71 891.42 375.52 1063.37 363.97 957.78 467.27 921.25 574.68 1060.59 565.79
00041831 00000081 840.77 153.36 354.49 546.88 895.97 380.37 1071.26 365.05 964.97 464.21 925.65 574.59 1067.56 562.58
00041832 00000082 845.42 151.72 350.23 547.42 903.06 376.88 1077.20 360.81 971.24 457.81 934.41 572.83 1072.64 560.23
00041833 00000083 850.48 147.46 347.51 556.61 911.61 370.05 1082.64 355.30 977.49 449.07 946.57 572.26 1074.36 560.76
00041834 00000084 854.58 146.95 344.07 558.47 914.83 358.43 1083.58 346.73 980.44 441.36 947.56 567.14 1076.18 558.10
00041835 00000085 859.68 155.47 341.70 547.43 923.55 352.67 1087.25 334.96 992.09 437.75 953.66 567.13 1082.41 551.91
00041836 00000086 859.66 154.72 341.42 547.89 922.16 350.60 1087.31 331.87 989.51 432.34 950.87 564.55 1082.39 548.76
00041837 00000087 859.24 155.43 340.67 545.95 920.72 349.84 1086.08 331.16 986.40 429.88 948.32 561.82 1081.84 546.28
00041838 00000088 854.55 156.50 337.68 543.61 913.71 352.64 1076.56 339.97 973.41 429.35 941.74 553.99 1072.79 544.06
00041839 00000089 852.65 155.76 338.65 543.95 912.48 353.43 1076.24 340.98 972.19 429.67 940.49 553.22 1071.33 543.65
00041840 00000090 850.82 154.67 339.64 544.20 911.34 353.97 1073.77 341.18 969.47 429.33 938.36 552.04 1068.50 542.28
00041841 00000091 849.52 156.15 339.16 540.82 911.24 355.18 1073.03 342.56 967.85 428.47 936.42 550.21 1066.36 540.58
00041842 00000092 848.79 153.14 341.89 538.04 910.28 359.13 1073.38 345.43 966.96 429.44 935.40 549.40 1067.87 538.79
00041843 00000093 847.93 152.84 343.03 531.45 911.22 358.75 1074.66 345.42 968.76 430.08 933.46 545.90 1066.39 535.96
00041844 00000094 848.07 149.51 345.89 530.77 912.33 350.46 1080.24 336.40 977.39 430.83 933.96 541.43 1071.59 531.16
00041845 00000095 852.01 150.65 342.67 526.27 920.35 346.96 1087.36 336.51 989.01 427.28 938.88 540.82 1077.27 531.41
00041846 00000096 854.16 148.18 342.90 524.10 922.05 344.26 1089.98 332.28 996.11 427.25 944.95 539.20 1084.61 528.84
00041847 00000097 857.90 139.47 336.48 529.95 925.08 339.91 1094.07 327.53 1002.24 429.62 953.03 540.26 1091.34 530.03
00041848 00000098 858.21 137.25 337.65 530.97 928.34 341.10 1096.48 327.71 1006.66 430.23 959.69 542.73 1091.63 531.73
00041849 00000099 855.78 139.96 341.16 527.87 931.05 342.16 1097.76 327.88 1010.24 429.41 970.52 548.11 1088.55 536.28
00041850 00000100 853.59 141.56 342.92 524.94 931.38 341.38 1095.65 325.69 1011.23 425.70 975.76 547.70 1086.76 534.52
00041851 00000101 851.70 144.24 345.58 522.36 931.51 341.54 1093.96 323.26 1011.83 419.32 976.85 547.46 1083.11 532.03
00041852 00000102 851.58 143.91 346.23 524.63 930.90 338.45 1095.30 316.98 1012.76 413.24 978.89 547.49 1084.90 529.20
00041853 00000103 847.93 143.60 351.72 535.80 928.27 338.01 1098.24 314.92 1010.98 406.88 977.72 551.53 1082.74 531.65
00041854 00000104 850.27 145.92 349.63 539.94 928.23 336.41 1101.86 313.34 1008.58 408.38 977.59 553.97 1086.78 533.69
00041855 00000105 856.12 142.42 348.62 533.50 928.72 334.19 1099.58 312.76 1004.90 411.48 976.94 544.37 1093.36 525.42
00041856 00000106 858.19 136.48 345.26 525.92 926.67 330.51 1098.61 310.50 1007.25 413.34 968.65 534.59 1099.23 517.14
00041857 00000107 860.92 135.10 344.07 520.05 924.94 335.46 1097.36 313.31 1007.98 415.01 962.49 531.81 1104.33 512.69
00041858 00000108 863.00 137.27 342.02 517.07 924.72 336.41 1096.12 314.56 1007.06 416.11 960.44 531.36 1103.77 512.56
00041859 00000109 863.25 137.60 342.87 516.03 924.89 336.95 1095.08 314.24 1007.10 415.54 961.62 529.65 1104.18 510.02
00041860 00000110 863.71 137.73 343.30 514.76 925.99 337.03 1096.56 314.98 1008.42 416.16 962.74 530.27 1103.91 511.30
00041861 00000111 857.83 137.49 354.12 521.45 931.61 342.16 1102.48 324.20 1008.69 418.85 965.70 530.07 1104.51 516.96
00041862 00000112 858.50 138.81 352.88 518.34 933.00 342.87 1102.91 324.38 1011.03 418.75 968.99 531.87 1103.92 518.45
00041863 00000113 859.71 138.46 352.49 518.79 934.74 341.68 1104.21 324.42 1013.06 418.44 970.42 532.10 1103.49 519.84
00041864 00000114 862.63 137.05 350.12 519.79 938.38 340.06 1106.74 324.18 1015.85 416.98 974.49 530.89 1106.00 519.90
00041865 00000115 865.28 136.97 348.49 518.48 941.39 339.83 1109.49 324.70 1019.23 417.28 977.55 530.84 1107.65 520.61
00041866 00000116 867.91 135.61 346.68 520.70 944.36 340.79 1113.14 326.94 1021.63 418.77 978.75 530.98 1110.16 522.07
00041867 00000117 870.08 136.45 344.89 520.41 945.60 341.46 1115.11 328.04 1023.33 420.05 978.18 531.22 1110.72 522.70
00041868 00000118 871.98 137.04 342.74 522.75 946.03 341.20 1114.66 328.58 1021.52 419.52 976.11 531.00 1109.86 523.22
00041869 00000119 872.19 139.67 340.99 522.91 944.17 343.06 1110.66 330.98 1019.65 420.73 974.91 532.58 1108.14 525.19
00041870 00000120 870.35 139.45 342.98 527.00 941.93 345.22 1108.93 334.49 1015.00 422.76 970.88 533.53 1105.70 526.82
00041871 00000121 867.30 140.51 345.70 528.09 940.39 346.35 1105.83 335.75 1012.30 425.63 968.76 535.76 1100.72 529.10
00041872 00000122 864.42 140.04 348.35 527.66 938.95 346.11 1104.01 335.08 1010.51 425.39 968.18 536.36 1097.89 529.40
00041873 00000123 862.95 140.63 349.25 526.05 937.32 346.07 1102.40 335.45 1008.19 425.51 966.14 535.90 1094.76 529.42
00041874 00000124 863.48 140.86 347.36 525.91 935.55 346.38 1100.66 334.69 1005.46 424.88 964.17 536.45 1092.07 529.24
00041875 00000125 865.60 148.43 339.19 515.60 930.27 346.16 1094.70 330.06 1001.11 424.79 965.41 542.71 1086.40 528.94
00041876 00000126 865.53 149.03 338.47 514.25 928.63 346.58 1092.92 329.91 999.20 425.60 964.35 543.18 1085.69 528.92
00041877 00000127 864.66 149.44 337.87 513.87 927.39 348.52 1090.95 331.07 997.39 425.56 963.40 544.08 1084.13 529.23
00041878 00000128 863.61 151.41 338.83 513.64 925.66 349.49 1089.46 331.64 995.49 425.16 961.66 545.62 1082.02 530.58
00041879 00000129 862.73 154.85 337.94 512.18 924.94 352.31 1087.17 333.56 993.24 426.89 961.06 547.56 1079.70 531.79
00041880 00000130 861.67 154.46 337.62 513.45 923.13 354.16 1085.37 334.52 990.83 429.39 960.66 549.31 1079.19 532.81
00041881 00000131 858.83 154.45 340.36 516.77 921.48 356.82 1084.58 336.56 990.26 430.95 959.41 551.80 1078.35 534.84
00041882 00000132 856.58 156.41 343.12 518.68 920.16 358.43 1084.05 337.77 989.73 433.25 958.80 554.70 1077.65 537.33
00041883 00000133 852.89 153.13 346.67 525.28 914.94 352.77 1079.87 334.12 980.76 433.05 949.42 552.20 1071.65 537.75
00041884 00000134 850.96 153.15 347.34 527.26 911.37 354.30 1077.92 334.58 979.08 435.72 948.10 555.06 1072.46 539.62
00041885 00000135 850.04 155.14 347.93 527.87 908.60 356.00 1075.32 336.33 976.50 438.62 947.18 556.68 1073.00 541.08
00041886 00000136 850.61 155.57 347.14 527.35 906.74 357.53 1074.65 337.07 975.22 441.09 945.92 558.16 1073.98 541.94
00041887 00000137 849.22 157.24 349.49 524.66 904.79 357.75 1074.79 337.12 974.71 442.31 944.30 558.04 1074.90 541.62
00041888 00000138 848.85 158.31 350.10 520.85 903.86 358.09 1074.67 338.57 973.32 443.89 940.99 556.93 1075.54 541.37
00041889 00000139 847.38 158.52 351.19 522.70 902.23 357.47 1074.14 340.84 970.54 447.59 937.76 558.84 1073.61 545.58
00041890 00000140 847.22 156.93 350.72 526.83 901.46 355.43 1073.70 343.03 968.35 451.72 934.78 560.41 1071.34 550.77
00041891 00000141 849.18 149.10 348.35 534.37 901.22 368.75 1071.10 356.68 961.52 459.19 928.66 563.87 1067.38 554.35
00041892 00000142 846.83 147.50 346.25 537.61 897.01 370.22 1066.01 361.57 954.37 464.13 923.74 564.69 1060.55 558.04
00041893 00000143 846.68 145.09 345.53 541.70 896.73 362.01 1060.67 361.23 946.34 466.98 918.82 561.17 1053.05 561.21
00041894 00000144 840.63 142.90 350.97 543.72 890.07 355.72 1054.27 355.16 940.36 467.69 914.44 559.15 1049.71 559.68
00041895 00000145 837.18 144.48 353.19 543.03 886.74 351.08 1052.56 350.73 937.58 465.96 910.54 557.10 1046.24 557.99
00041896 00000146 836.53 144.70 351.37 537.80 886.87 349.07 1052.65 347.96 939.12 462.61 910.81 553.87 1044.83 554.28
00041897 00000147 837.10 145.18 350.09 531.86 889.78 349.59 1056.07 345.95 945.76 459.02 915.95 550.86 1049.43 549.11
00041898 00000148 840.04 147.25 349.89 528.74 895.38 350.41 1059.66 345.37 953.27 456.18 921.42 548.63 1053.75 545.74
00041899 00000149 841.76 148.02 351.04 525.41 899.83 350.28 1064.35 344.04 960.31 451.34 925.22 547.06 1056.69 543.32
00041900 00000150 844.21 151.29 349.59 519.92 903.05 351.14 1068.58 343.20 966.51 451.92 930.16 548.66 1062.11 543.51
00041901 00000151 849.39 151.66 345.71 519.15 907.59 351.27 1074.93 343.52 971.90 452.86 934.69 551.83 1068.47 546.68
00041902 00000152 855.72 147.54 342.11 523.81 913.15 356.35 1081.43 347.93 979.59 457.42 939.22 556.29 1075.99 550.46
00041903 00000153 859.33 142.54 338.84 526.49 925.71 360.86 1091.80 355.54 997.13 467.75 944.90 560.02 1088.99 554.98
00041904 00000154 864.73 150.88 336.44 518.82 931.54 365.24 1098.94 359.28 1008.99 476.00 955.94 560.37 1089.70 557.04
00041905 00000155 865.97 147.11 344.78 532.38 941.24 367.88 1106.81 372.80 1011.84 478.18 961.67 556.96 1092.83 562.28
00041906 00000156 869.97 147.31 344.16 532.20 947.31 369.85 1115.44 376.15 1021.94 485.20 969.10 559.64 1101.86 566.22
00041907 00000157 871.27 148.35 344.57 529.57 949.79 369.77 1120.24 379.15 1025.79 488.01 970.38 562.61 1101.88 571.95
00041908 00000158 871.14 148.68 345.32 531.98 949.52 370.18 1120.08 383.34 1023.13 489.24 965.84 563.82 1096.40 576.49
00041909 00000159 869.77 147.91 347.45 534.84 946.85 370.33 1116.27 385.56 1016.54 490.37 960.32 564.83 1089.29 579.25
00041910 00000160 870.06 148.74 347.33 540.16 943.30 372.44 1109.60 389.25 1007.02 491.41 952.66 566.23 1078.77 582.25
00041911 00000161 867.06 151.05 348.67 543.67 938.65 375.48 1104.05 393.39 999.09 492.50 945.66 567.75 1071.26 584.78
00041912 00000162 866.94 152.35 342.99 544.74 924.23 375.95 1094.66 389.89 991.99 496.27 936.40 575.69 1068.04 586.85
00041913 00000163 862.63 153.46 342.95 544.35 918.93 374.56 1089.31 393.34 980.28 497.62 927.31 575.68 1059.07 590.72
00041914 00000164 856.99 151.96 345.42 546.29 916.08 373.75 1084.42 389.73 959.21 495.13 916.34 582.80 1042.93 597.88
00041915 00000165 857.61 155.67 341.13 545.89 910.64 370.13 1077.68 393.45 956.76 499.16 912.58 576.90 1039.26 595.58
00041916 00000166 856.77 155.24 340.65 548.35 909.19 367.30 1075.29 392.66 951.05 494.48 909.62 576.78 1032.85 596.97
00041917 00000167 858.42 152.62 340.21 554.71 909.04 366.53 1076.97 389.52 950.47 489.53 908.88 576.66 1034.08 594.82
