Video ID: 	Dehcd4_8EqM
H: 	1080
W: 	1920
FPS: 	25.0

FRAME INDEX X0 Y0 W H [Landmarks (5 Points)]

00045411 00000000 465.93 119.03 372.80 500.23 624.93 305.19 792.00 335.15 732.85 404.16 617.74 483.03 757.94 509.16
00045412 00000001 462.89 116.92 372.82 494.28 622.03 298.97 787.48 325.13 731.73 393.26 615.67 473.91 756.75 497.20
00045413 00000002 465.45 118.81 368.74 494.89 622.07 303.32 787.85 328.88 732.75 396.64 613.90 476.17 758.24 499.42
00045414 00000003 468.80 130.23 366.01 488.38 621.16 316.36 791.62 346.25 730.47 407.70 608.45 480.32 758.49 507.92
00045415 DELETE   458.03 136.62 377.34 500.04 624.88 337.79 790.85 355.23 733.91 420.90 625.47 499.62 762.96 514.51
00045416 DELETE   462.59 147.27 379.61 505.57 625.23 347.18 794.94 359.11 737.38 434.57 631.13 513.57 770.63 523.85
00045417 DELETE   464.06 151.86 379.04 505.61 622.88 354.37 795.95 358.88 739.53 440.61 634.28 523.38 774.70 527.50
00045418 00000007 466.53 151.95 381.74 505.19 620.36 357.19 796.38 357.74 739.54 439.95 639.25 526.99 781.63 527.61
00045419 00000008 467.33 150.10 379.99 505.51 619.12 356.96 795.06 353.74 741.37 436.67 642.90 526.82 786.92 524.39
00045420 00000009 469.51 145.03 380.65 507.22 620.02 357.47 796.41 352.33 743.90 434.53 647.46 525.94 792.92 521.91
00045421 00000010 476.75 146.52 381.68 510.05 625.80 362.74 801.72 359.73 749.93 435.67 658.89 530.90 801.98 527.88
00045422 00000011 485.06 157.19 386.91 514.25 637.63 363.98 804.20 360.17 762.16 437.10 666.15 534.97 807.75 532.05
00045423 00000012 502.21 162.68 382.34 513.87 648.76 370.31 818.96 364.32 775.30 443.26 678.08 541.87 823.67 536.87
00045424 DELETE   520.75 176.56 376.14 505.34 660.63 388.33 835.31 372.46 791.72 452.20 688.70 555.24 841.62 542.35
00045425 00000014 533.76 191.76 374.37 503.31 673.11 402.42 846.79 384.49 803.97 468.74 697.28 567.61 855.17 554.26
00045426 DELETE   538.12 202.03 384.60 513.46 685.76 409.49 861.10 394.08 815.83 486.85 716.35 584.12 868.92 572.75
00045427 DELETE   544.86 204.57 391.16 523.64 693.75 420.62 872.34 406.84 824.25 499.76 724.38 596.31 878.67 585.26
00045428 00000017 554.07 210.24 390.90 529.40 702.81 432.26 882.62 422.93 833.16 512.31 729.77 602.88 890.65 594.81
00045429 00000018 564.33 226.92 392.10 523.73 712.63 437.40 887.31 426.90 847.16 520.81 737.92 609.71 896.73 602.33
00045430 00000019 573.75 232.58 389.11 525.65 720.16 449.29 896.04 430.16 858.68 529.46 743.47 622.14 902.72 608.12
00045431 00000020 579.20 250.18 391.40 519.23 722.38 461.71 901.18 438.79 859.95 540.15 746.58 632.26 910.86 614.48
00045432 00000021 586.04 263.20 389.54 518.29 724.58 473.90 903.79 451.05 861.71 552.19 748.96 641.32 918.09 623.80
00045433 00000022 586.78 271.92 388.99 529.71 728.63 482.09 907.40 461.08 865.97 562.40 750.37 655.13 919.44 639.40
00045434 00000023 588.24 276.97 388.08 540.06 732.36 494.76 906.78 463.10 877.39 575.33 757.39 674.62 920.04 650.22
00045435 00000024 592.36 292.03 389.13 534.28 735.80 506.10 912.31 476.24 881.82 585.54 764.49 688.10 926.00 664.66
00045436 00000025 595.21 304.83 389.91 539.24 743.14 519.68 912.87 489.83 885.86 593.37 770.19 700.35 927.41 677.13
00045437 00000026 596.60 315.54 390.99 543.90 746.75 530.93 909.32 499.25 887.24 603.89 772.91 709.80 929.37 685.51
00045438 00000027 595.98 320.70 395.77 545.47 745.11 525.38 912.30 507.17 877.95 609.63 779.56 709.69 936.44 695.42
00045439 00000028 594.56 322.73 394.38 548.53 746.99 538.64 908.76 509.85 886.20 610.84 773.04 716.89 930.96 694.58
00045440 00000029 588.10 324.72 393.53 547.19 740.63 538.76 905.20 512.27 879.68 613.60 765.11 718.95 923.20 698.28
00045441 00000030 582.13 320.83 393.57 550.60 728.95 536.71 901.50 513.17 866.16 615.34 760.45 721.97 917.45 702.39
00045442 00000031 575.16 328.93 394.05 544.41 722.65 537.27 893.39 513.46 857.38 618.42 756.89 724.64 909.45 704.56
00045443 00000032 566.10 322.22 396.18 547.54 716.03 535.19 883.59 509.46 850.15 616.75 754.58 723.66 901.35 701.73
00045444 00000033 561.03 314.09 398.79 548.28 713.90 529.33 879.37 502.51 847.90 609.96 756.17 720.55 895.55 697.26
00045445 00000034 562.08 303.07 395.95 548.92 714.79 523.86 883.02 496.80 851.44 601.51 760.84 715.31 897.88 691.40
00045446 00000035 564.95 300.82 391.65 535.73 716.25 517.94 885.37 491.90 852.10 596.12 761.35 706.86 898.20 684.32
00045447 00000036 565.06 302.64 393.68 529.38 716.03 517.65 887.58 491.08 854.82 595.62 759.06 702.74 901.15 680.43
00045448 00000037 566.13 304.39 394.65 527.43 716.23 519.96 889.17 491.95 856.30 597.20 758.42 703.95 902.58 680.83
00045449 00000038 566.13 302.78 395.58 534.08 716.37 520.85 889.07 490.56 857.34 599.44 757.88 706.60 902.31 681.61
00045450 00000039 567.08 298.99 393.60 536.01 717.44 520.47 889.78 491.97 857.21 599.40 759.30 706.77 902.20 683.14
00045451 00000040 565.89 299.24 393.46 532.57 717.52 518.25 889.23 491.00 855.55 596.88 760.26 705.02 900.96 682.27
00045452 00000041 561.97 297.56 394.79 532.44 716.14 515.14 887.43 490.36 854.50 594.96 759.06 702.45 898.75 681.52
00045453 00000042 559.95 295.94 392.63 536.25 714.65 512.87 884.45 488.96 851.18 591.14 762.54 706.37 894.35 685.77
00045454 00000043 556.41 291.80 391.36 546.98 713.36 510.46 880.83 489.87 849.57 593.09 763.75 711.61 889.92 693.54
00045455 00000044 548.98 291.11 394.42 550.16 707.22 511.81 875.47 488.87 845.93 596.40 756.10 710.46 886.77 690.23
00045456 00000045 544.88 290.92 395.19 546.04 702.60 510.82 871.67 487.18 841.43 595.18 749.15 705.07 884.23 684.41
00045457 00000046 538.86 287.06 396.61 548.75 697.13 515.93 869.58 489.01 836.76 602.87 744.74 704.25 883.56 681.33
00045458 00000047 539.96 274.37 395.46 552.74 696.94 508.63 863.98 482.21 830.30 592.07 744.90 697.58 877.40 675.86
00045459 00000048 542.75 266.20 394.73 540.44 698.20 498.31 868.61 474.07 831.86 579.07 746.24 681.47 880.73 661.65
00045460 00000049 543.17 256.57 394.36 535.56 698.37 486.48 868.16 460.49 831.60 559.97 742.76 664.70 880.48 643.41
00045461 00000050 542.72 249.30 396.74 535.42 696.64 476.92 864.68 450.46 833.05 546.38 742.49 653.92 881.72 631.96
00045462 00000051 545.54 237.09 396.27 544.53 701.79 468.28 863.74 444.57 836.57 533.52 752.12 647.44 884.29 626.99
00045463 00000052 550.78 237.59 394.97 556.03 708.65 466.87 868.01 446.69 842.78 535.16 758.48 654.60 886.54 636.80
00045464 00000053 555.34 244.74 394.34 558.60 715.90 476.40 876.16 454.56 852.00 543.77 767.12 668.35 896.27 649.46
00045465 00000054 561.96 249.81 389.18 562.62 723.62 488.06 884.98 464.80 860.89 555.60 776.92 681.71 905.02 661.92
00045466 00000055 565.39 257.34 385.45 560.79 729.11 498.05 892.35 473.77 868.80 567.70 782.41 692.29 910.75 671.33
00045467 00000056 566.01 268.06 388.26 551.18 728.12 498.80 891.51 473.79 869.74 572.94 781.63 698.96 903.97 676.80
00045468 00000057 561.78 269.13 391.86 548.11 722.04 502.11 888.09 475.59 863.82 574.40 774.27 698.04 900.40 674.65
00045469 00000058 555.88 274.83 399.01 540.11 717.18 503.06 886.93 472.28 862.27 577.08 766.59 692.74 901.53 666.35
00045470 00000059 558.13 275.46 399.88 535.29 718.62 504.87 890.39 471.34 866.02 577.78 769.73 692.06 906.07 663.42
00045471 00000060 560.94 276.07 397.87 533.28 722.27 506.60 893.38 472.27 869.85 579.45 771.84 692.07 908.70 662.85
00045472 00000061 565.03 274.21 391.24 530.15 723.06 508.78 897.17 480.31 866.70 578.10 773.59 686.45 910.12 662.05
00045473 00000062 566.88 273.84 391.56 526.52 723.59 507.91 900.29 480.30 867.99 578.21 770.41 681.74 913.15 658.56
00045474 00000063 565.68 271.19 394.25 528.44 722.69 507.22 900.23 478.15 867.12 579.48 765.09 677.94 914.25 653.95
00045475 00000064 561.86 272.05 395.07 529.83 717.80 506.75 894.42 478.49 860.93 580.90 758.09 677.65 909.21 654.40
00045476 00000065 556.07 271.60 397.14 531.82 712.27 505.14 889.64 477.07 855.48 583.47 750.51 678.71 903.92 655.75
00045477 00000066 551.45 272.34 397.54 531.57 709.09 504.99 881.67 474.54 851.37 582.92 747.78 678.32 896.71 653.56
00045478 00000067 550.54 272.40 398.15 531.39 708.37 503.64 882.31 472.45 851.92 581.37 746.17 677.29 897.78 652.07
00045479 00000068 550.98 269.44 398.42 528.42 707.06 501.34 883.03 468.53 850.63 578.21 745.52 674.21 897.98 647.66
00045480 00000069 552.15 265.26 397.64 527.14 708.88 497.42 885.15 464.38 852.76 573.59 747.20 670.09 898.34 643.43
00045481 00000070 551.70 259.48 397.29 534.19 710.49 494.54 885.10 461.59 854.77 571.37 751.00 670.92 897.84 643.97
00045482 00000071 551.91 259.05 396.18 530.89 709.54 491.64 883.53 460.28 851.24 567.79 752.89 669.19 896.31 643.28
00045483 00000072 551.11 260.92 396.84 529.80 708.87 490.09 880.38 458.38 848.62 565.73 752.53 667.57 892.89 641.43
00045484 00000073 549.14 261.02 396.67 531.65 708.17 488.91 875.83 459.48 845.39 563.52 751.39 667.65 887.44 643.37
00045485 00000074 547.04 260.28 397.54 530.41 705.35 488.48 873.09 457.91 842.46 562.05 747.19 665.12 884.69 640.29
00045486 00000075 544.08 259.61 399.18 530.40 703.35 487.23 871.46 456.25 841.16 560.09 744.32 662.37 883.53 637.47
00045487 00000076 540.39 259.89 401.66 528.05 701.78 485.93 872.22 454.54 842.71 558.87 741.29 661.15 883.27 636.29
00045488 00000077 538.54 257.19 403.12 530.50 699.04 482.21 870.16 451.57 839.67 556.91 739.38 659.22 882.20 634.97
00045489 00000078 535.06 256.55 406.62 535.56 696.66 479.65 868.00 447.76 839.03 555.88 734.20 657.21 881.86 632.13
00045490 00000079 533.97 252.11 406.77 539.42 695.32 477.59 866.62 444.04 839.11 554.01 731.10 654.30 881.78 628.09
00045491 00000080 532.09 245.93 409.19 543.06 693.50 474.98 865.73 440.45 838.29 552.72 730.21 651.33 882.69 624.42
00045492 00000081 531.80 241.71 406.75 542.96 692.07 473.60 864.51 435.65 839.26 551.54 727.74 649.42 882.16 620.08
00045493 00000082 531.48 241.15 405.49 538.30 692.18 471.91 863.95 434.54 838.32 548.28 728.88 646.60 881.30 617.67
00045494 00000083 531.43 239.40 404.51 537.80 691.72 471.32 863.15 433.91 837.97 547.78 727.97 645.46 880.60 616.73
00045495 00000084 532.37 239.26 402.76 531.43 691.66 470.00 863.01 431.57 837.58 545.13 728.65 643.29 880.99 613.77
00045496 00000085 532.02 238.60 402.35 527.94 691.30 468.31 862.40 431.23 835.71 543.01 730.33 642.68 879.92 613.93
00045497 00000086 531.86 235.07 401.55 529.74 690.32 466.54 861.74 429.64 834.61 542.31 728.64 641.42 879.44 612.82
00045498 00000087 529.76 235.90 402.61 527.75 689.39 464.26 861.92 428.14 833.64 542.03 727.58 640.72 878.55 612.85
00045499 00000088 529.69 234.11 401.43 529.89 688.70 463.97 860.52 427.30 832.68 541.88 726.30 640.38 877.28 612.04
00045500 00000089 528.86 235.33 401.26 528.63 687.76 464.20 859.99 427.06 832.21 542.26 725.47 640.41 877.48 611.87
00045501 00000090 528.78 236.11 401.05 526.84 686.77 464.06 859.65 425.98 831.86 542.83 724.96 640.44 877.60 611.16
00045502 00000091 527.07 236.31 401.72 524.86 685.80 465.16 858.51 426.63 831.06 541.88 724.67 640.09 876.74 610.44
00045503 00000092 526.91 236.31 401.82 523.27 684.62 464.25 858.06 425.37 829.84 542.21 723.77 639.68 876.50 609.72
00045504 00000093 525.52 235.38 402.07 524.92 683.92 464.67 857.12 426.17 829.41 542.37 721.33 639.77 875.42 610.29
00045505 00000094 523.36 232.94 401.49 523.21 683.51 465.77 861.34 429.73 826.57 546.59 724.60 638.28 876.01 608.73
00045506 00000095 520.79 232.75 402.09 523.26 682.48 464.01 859.15 427.97 825.54 546.15 724.09 636.90 874.21 607.51
00045507 00000096 519.82 232.58 402.96 522.54 680.89 463.60 858.69 427.19 824.46 545.48 723.51 636.65 874.15 606.91
00045508 00000097 519.02 230.76 404.24 523.85 680.40 463.10 856.94 427.16 822.76 545.10 723.44 635.52 872.74 606.28
00045509 00000098 518.32 232.24 404.31 521.95 679.63 462.63 855.98 427.00 821.83 544.79 722.74 634.94 871.66 605.99
00045510 00000099 518.95 230.44 402.58 522.34 678.54 463.08 854.77 425.84 820.68 543.45 722.27 634.32 871.74 604.02
00045511 00000100 516.39 233.20 403.84 519.44 676.15 464.28 854.67 426.50 819.71 542.70 717.14 633.74 871.77 602.84
00045512 00000101 516.32 233.37 403.43 520.01 675.66 463.79 855.21 426.71 819.59 544.51 713.00 632.01 872.04 601.99
00045513 00000102 516.70 235.16 402.07 522.38 675.76 464.78 854.39 429.27 817.89 546.46 708.97 633.78 868.66 605.22
00045514 00000103 519.53 250.00 404.71 528.37 676.63 468.20 851.13 429.99 823.03 553.45 701.69 637.26 870.76 609.23
00045515 00000104 517.66 262.31 404.40 536.61 677.53 483.78 850.40 441.12 830.57 573.96 701.97 657.46 869.88 625.84
00045516 00000105 521.50 274.03 402.03 541.04 682.11 504.46 851.64 459.03 832.02 599.79 707.13 677.33 871.12 642.55
00045517 00000106 521.79 287.30 403.31 530.75 679.98 509.51 854.27 471.41 823.58 609.35 710.68 684.57 869.04 654.82
00045518 00000107 521.37 269.73 399.54 532.03 682.02 496.95 853.91 455.18 828.90 584.66 712.53 670.28 871.36 638.52
00045519 00000108 519.22 259.49 403.34 519.33 676.76 467.36 850.73 430.13 821.78 551.23 708.10 640.11 869.55 612.21
00045520 00000109 510.93 233.19 399.67 536.73 671.74 458.97 840.69 415.26 821.82 535.05 695.11 632.09 856.01 598.49
00045521 00000110 504.01 227.91 401.01 542.25 662.45 454.98 836.71 413.28 814.11 533.54 686.94 630.02 851.57 597.71
00045522 00000111 499.17 228.35 401.59 539.15 654.32 454.08 831.09 412.79 806.01 532.95 682.68 628.88 846.57 596.60
00045523 00000112 492.92 228.16 399.84 524.84 646.73 444.90 825.55 408.99 797.25 526.86 676.39 619.08 839.03 591.33
00045524 00000113 486.62 219.11 394.52 519.77 638.17 439.72 809.04 405.54 778.09 522.05 669.51 603.92 824.91 577.13
00045525 00000114 472.24 196.19 399.49 524.78 630.31 424.57 801.53 389.27 771.60 497.92 659.70 589.08 814.18 561.79
00045526 00000115 461.06 185.80 402.75 522.78 616.49 406.38 791.41 373.19 755.58 484.30 654.56 580.00 806.79 554.41
00045527 00000116 453.37 184.22 395.97 516.85 601.65 402.04 777.73 367.70 738.92 480.99 643.85 579.37 796.94 552.40
00045528 00000117 440.19 185.56 387.94 504.84 575.54 403.61 753.29 369.63 711.89 476.80 616.59 569.40 771.56 541.30
00045529 DELETE   408.83 178.23 400.08 512.45 553.76 388.39 724.98 359.98 681.23 472.98 591.35 562.45 737.16 539.61
00045530 DELETE   393.93 160.34 396.89 513.39 539.97 378.29 715.31 355.71 664.01 473.66 569.53 552.16 714.18 534.15
00045531 00000120 389.35 144.76 392.15 515.35 533.11 357.82 707.97 335.76 658.41 449.54 567.82 535.49 714.18 518.14
00045532 00000121 386.95 124.50 383.74 516.25 534.05 342.86 708.53 315.92 666.32 425.79 568.41 518.22 719.74 497.52
00045533 00000122 387.29 115.56 377.39 511.25 526.16 338.90 698.51 302.89 663.23 406.09 558.77 503.99 716.00 475.90
00045534 00000123 374.52 105.04 378.71 514.39 511.10 333.92 687.25 301.05 647.70 398.49 553.11 500.07 706.49 472.49
00045535 00000124 351.19 110.06 387.15 522.10 486.15 328.12 655.67 300.59 612.37 404.73 533.17 504.62 672.87 481.08
00045536 DELETE   328.38 118.87 393.34 528.48 461.55 326.87 630.29 309.40 576.88 413.76 509.56 512.20 644.34 498.33
00045537 DELETE   311.26 119.57 391.81 526.80 433.48 341.05 604.42 315.57 547.15 422.33 479.65 523.83 618.19 501.83
00045538 00000127 299.07 131.77 391.19 513.10 422.74 343.68 592.96 318.72 536.24 425.99 471.37 525.68 605.99 504.25
00045539 00000128 302.64 135.48 386.36 513.37 432.42 350.87 599.54 324.12 550.06 428.77 478.75 528.78 612.11 506.09
00045540 00000129 317.07 130.41 381.37 514.52 450.51 346.35 619.25 321.27 570.57 430.96 502.77 526.36 639.53 506.44
00045541 00000130 327.42 133.44 382.17 509.55 466.42 349.58 634.39 320.27 591.71 431.02 514.03 524.50 650.62 501.00
CROP_BBOX: 107 0 1183 1027
