Video ID: 	Q44jbwyRFWM
H: 	2160
W: 	3840
FPS: 	23.976023976023978

FRAME INDEX X0 Y0 W H [Landmarks (5 Points)]

00001823 00000000 2250.10 242.17 625.75 878.32 2303.28 634.61 2544.74 627.62 2338.25 764.69 2323.29 918.38 2528.41 915.73
00001824 DELETE   2250.35 244.23 622.32 876.89 2306.64 635.94 2549.61 626.06 2342.40 765.05 2322.93 917.78 2540.93 912.97
00001825 DELETE   2252.55 235.13 633.15 881.29 2313.94 633.60 2557.19 617.20 2348.03 758.57 2330.02 917.09 2551.78 907.57
00001826 00000003 2253.86 234.76 637.81 886.92 2320.32 632.31 2567.10 613.75 2359.60 753.49 2339.70 915.75 2567.48 904.97
00001827 00000004 2257.48 231.28 641.95 897.57 2320.67 632.57 2568.24 609.16 2360.85 753.75 2345.27 920.31 2572.38 906.12
00001828 00000005 2255.10 236.06 644.18 895.20 2319.08 634.06 2564.90 608.86 2358.46 758.06 2346.57 925.26 2572.43 909.51
00001829 00000006 2253.17 239.00 642.02 890.96 2315.33 638.65 2560.33 613.37 2351.57 764.32 2341.69 928.42 2568.63 912.21
00001830 00000007 2251.97 235.47 637.92 893.70 2313.10 641.35 2554.78 621.31 2346.01 772.68 2337.38 926.97 2561.15 914.11
00001831 00000008 2249.89 236.17 624.59 892.94 2308.50 643.33 2547.14 626.88 2342.42 779.45 2332.83 929.51 2552.46 919.22
00001832 00000009 2246.31 236.46 619.00 904.52 2306.28 648.40 2539.01 629.97 2338.48 783.35 2334.28 935.94 2545.86 924.16
00001833 00000010 2244.13 233.07 626.87 913.64 2301.58 649.47 2534.91 631.77 2330.67 784.03 2330.98 938.88 2540.10 927.34
00001834 00000011 2242.25 238.30 626.05 910.44 2300.13 653.13 2533.92 633.59 2331.07 787.92 2332.93 941.98 2542.45 928.88
00001835 00000012 2242.45 238.24 626.48 908.38 2301.84 655.24 2537.11 633.54 2335.33 790.39 2335.43 942.73 2547.84 928.10
00001836 00000013 2242.56 246.99 616.37 889.13 2305.06 653.63 2540.84 634.65 2343.30 789.25 2335.65 936.83 2550.62 924.34
00001837 00000014 2241.97 246.25 613.98 880.65 2304.72 650.56 2543.49 633.08 2345.32 786.54 2333.28 929.96 2555.22 918.33
00001838 00000015 2243.25 239.69 620.21 886.17 2305.94 648.72 2545.49 632.46 2344.15 785.55 2333.31 928.27 2556.77 917.49
00001839 00000016 2243.58 237.33 616.20 887.75 2305.67 649.02 2543.96 634.09 2343.57 786.30 2333.60 926.02 2556.83 915.85
00001840 00000017 2243.35 235.35 617.07 889.68 2303.81 649.38 2541.51 635.48 2341.66 789.31 2334.78 926.27 2555.02 916.54
00001841 00000018 2243.03 233.75 616.26 891.29 2303.10 649.14 2539.65 635.38 2339.65 788.40 2332.95 924.77 2553.38 914.96
00001842 00000019 2243.20 234.16 616.67 889.48 2302.66 648.54 2539.16 635.44 2341.03 788.78 2334.20 921.43 2552.41 912.07
00001843 00000020 2242.06 228.83 618.59 894.31 2301.84 647.43 2539.65 634.67 2339.71 787.31 2332.46 920.44 2551.71 911.26
00001844 00000021 2241.37 229.70 619.49 893.75 2301.74 647.57 2539.91 634.18 2340.64 787.35 2333.27 920.11 2550.75 910.41
00001845 00000022 2239.38 229.74 621.27 894.22 2300.50 646.97 2542.14 633.12 2341.75 786.94 2330.52 920.52 2553.37 910.54
00001846 00000023 2238.16 229.81 627.32 899.48 2301.21 644.87 2543.13 630.01 2341.71 785.15 2330.46 916.52 2559.34 905.56
00001847 00000024 2236.41 240.50 632.18 889.23 2301.04 642.49 2543.51 626.60 2341.75 780.64 2330.28 913.72 2561.46 902.00
00001848 00000025 2234.59 235.91 633.37 893.29 2297.22 639.09 2539.41 623.20 2339.54 774.95 2327.88 908.39 2557.62 896.46
00001849 00000026 2228.46 230.68 624.03 889.72 2298.05 638.73 2532.08 619.94 2338.29 771.14 2323.25 903.86 2551.48 888.64
00001850 00000027 2227.60 228.96 627.43 893.92 2296.49 639.80 2529.52 621.20 2334.61 773.63 2322.65 904.04 2551.84 888.61
00001851 00000028 2232.25 233.08 626.03 892.64 2294.74 639.36 2531.90 625.94 2334.08 779.99 2324.88 903.84 2557.52 892.52
00001852 00000029 2221.91 226.84 631.09 900.74 2296.81 652.96 2538.76 628.22 2342.08 782.08 2326.33 912.49 2570.99 889.26
00001853 00000030 2236.62 227.53 620.06 895.02 2301.78 642.47 2541.54 625.81 2344.76 777.48 2328.33 902.74 2575.37 889.39
00001854 00000031 2239.70 221.82 633.54 900.59 2304.36 639.67 2550.36 623.56 2347.33 773.94 2328.28 901.50 2582.18 888.93
00001855 00000032 2239.25 230.69 632.88 891.98 2305.70 639.78 2551.28 624.51 2347.41 774.19 2327.89 900.46 2584.67 888.53
00001856 00000033 2239.80 233.05 636.79 893.47 2305.82 638.93 2552.05 625.67 2346.62 777.11 2326.75 899.05 2586.97 888.50
00001857 00000034 2239.59 231.17 636.78 895.12 2305.96 638.29 2553.28 624.88 2347.15 776.54 2326.02 899.50 2588.41 888.96
00001858 00000035 2238.21 236.41 638.32 891.23 2305.92 639.09 2553.11 623.12 2348.10 774.77 2326.06 901.54 2587.15 889.22
00001859 00000036 2237.97 240.50 630.97 885.41 2303.73 640.40 2549.18 623.77 2347.24 776.65 2326.03 901.71 2583.68 888.78
00001860 00000037 2235.42 238.73 636.67 892.61 2300.74 643.16 2545.14 626.55 2342.96 781.24 2327.04 902.44 2579.05 889.27
00001861 00000038 2228.00 237.18 624.99 896.60 2296.55 648.14 2534.01 625.51 2338.11 785.88 2326.31 908.54 2571.19 887.66
00001862 00000039 2222.01 240.93 629.43 894.76 2291.55 648.85 2525.46 625.97 2329.88 789.09 2322.23 911.44 2561.43 890.38
00001863 00000040 2218.67 233.11 640.24 909.22 2286.96 648.71 2514.24 626.43 2315.92 788.10 2319.10 914.46 2548.85 893.45
00001864 00000041 2214.67 238.37 640.19 903.53 2281.48 650.93 2509.79 626.79 2308.77 787.71 2312.38 915.89 2543.06 893.93
00001865 00000042 2212.29 233.66 645.13 912.16 2278.28 652.03 2506.71 627.49 2305.73 789.63 2310.14 919.78 2537.40 898.10
00001866 00000043 2211.69 246.70 640.43 897.02 2276.98 653.48 2506.98 627.34 2306.67 789.84 2308.31 919.45 2537.80 896.78
00001867 00000044 2216.55 245.77 639.40 893.58 2275.72 652.10 2506.34 624.81 2308.57 791.65 2309.41 916.61 2538.53 895.68
00001868 00000045 2210.04 245.82 637.29 897.78 2274.71 656.43 2504.98 626.73 2306.28 790.20 2309.31 920.86 2538.94 895.48
00001869 00000046 2211.05 246.46 642.49 898.14 2275.16 656.95 2505.26 627.19 2305.27 791.33 2309.97 922.87 2538.72 897.40
00001870 00000047 2216.32 245.67 641.66 894.09 2274.89 654.77 2506.98 625.99 2307.96 792.86 2311.13 920.64 2538.26 898.54
00001871 00000048 2215.66 246.24 637.69 894.37 2274.64 654.57 2506.91 626.86 2308.81 793.95 2310.16 920.37 2538.83 899.20
00001872 00000049 2215.35 248.69 629.94 888.86 2274.95 655.25 2506.43 628.16 2310.46 792.98 2309.73 920.15 2536.63 899.74
00001873 00000050 2216.33 247.11 630.53 889.86 2275.18 654.46 2506.92 627.91 2310.62 792.42 2309.65 920.50 2535.31 900.59
00001874 00000051 2216.53 249.05 629.57 886.03 2275.20 655.20 2508.16 629.17 2312.12 793.22 2309.49 921.04 2536.15 901.70
00001875 00000052 2216.52 253.13 626.44 881.81 2276.59 661.10 2510.96 633.81 2317.65 792.26 2309.90 922.96 2537.28 903.49
00001876 00000053 2212.80 248.25 622.45 889.22 2274.77 667.73 2508.64 629.33 2317.94 789.31 2309.24 926.42 2542.49 897.55
00001877 00000054 2211.11 249.94 615.08 885.25 2275.08 668.24 2508.69 629.94 2321.46 789.05 2310.84 924.86 2542.62 896.42
00001878 00000055 2211.66 256.20 615.24 879.66 2275.71 669.27 2509.86 631.60 2321.79 788.65 2310.15 924.04 2543.52 895.80
00001879 00000056 2205.30 250.40 629.03 887.13 2272.62 679.46 2506.84 634.49 2316.87 785.94 2313.19 933.16 2539.30 895.72
00001880 00000057 2204.12 241.27 636.70 896.82 2274.96 673.72 2509.77 632.40 2316.11 786.00 2312.89 930.95 2541.80 896.07
00001881 00000058 2205.37 240.14 641.06 896.84 2278.38 667.90 2510.10 632.34 2315.24 790.10 2316.09 927.80 2543.97 897.33
00001882 00000059 2206.14 240.65 639.62 894.70 2280.28 664.76 2511.10 632.17 2317.01 790.03 2316.46 924.70 2544.24 896.56
00001883 00000060 2206.50 236.44 644.44 900.73 2281.08 662.66 2511.71 632.01 2317.78 791.32 2318.07 923.73 2545.39 896.76
00001884 00000061 2205.52 232.57 648.15 906.55 2281.56 661.74 2513.05 632.55 2318.34 791.89 2318.28 922.68 2548.54 896.06
00001885 00000062 2217.58 234.00 632.06 900.71 2283.00 650.43 2515.52 626.08 2320.72 793.27 2314.69 912.13 2548.32 893.49
00001886 00000063 2218.09 234.92 631.63 899.97 2283.71 649.61 2515.74 625.50 2320.79 792.39 2315.63 912.13 2548.49 893.69
00001887 00000064 2218.29 235.93 631.64 899.40 2284.36 649.42 2515.62 625.60 2320.83 792.53 2315.99 911.88 2548.35 893.69
00001888 00000065 2217.88 234.27 633.98 902.74 2283.95 650.57 2515.78 625.64 2320.64 794.11 2316.12 912.49 2549.38 893.35
00001889 00000066 2217.74 236.69 634.26 900.66 2283.12 650.70 2514.65 625.60 2319.49 794.87 2315.13 912.77 2548.35 893.46
00001890 00000067 2217.37 237.26 636.93 900.42 2282.76 650.48 2514.85 625.24 2318.89 794.99 2314.64 912.74 2549.28 893.22
00001891 00000068 2218.42 238.98 637.36 900.17 2283.25 651.01 2514.23 625.11 2318.95 795.64 2316.31 913.45 2549.41 893.33
00001892 00000069 2219.05 241.14 635.13 897.43 2283.29 652.43 2513.70 626.13 2318.92 795.55 2316.45 914.45 2548.49 894.11
00001893 00000070 2217.65 242.64 632.35 896.05 2281.83 652.74 2513.10 627.42 2318.75 795.96 2315.59 914.95 2546.35 895.50
00001894 00000071 2212.63 248.24 631.89 890.74 2278.88 662.81 2514.40 632.77 2317.08 790.68 2311.83 922.02 2544.06 896.85
00001895 00000072 2212.89 252.81 628.24 885.64 2276.59 673.92 2516.27 634.26 2319.71 788.05 2311.01 926.77 2547.20 893.91
00001896 00000073 2212.80 251.47 626.89 886.79 2276.46 675.41 2515.54 631.90 2320.81 786.45 2311.74 928.22 2548.68 892.02
00001897 00000074 2212.59 249.53 629.84 889.06 2276.48 675.81 2514.97 631.63 2320.60 787.42 2313.14 928.92 2547.23 892.77
00001898 00000075 2212.68 245.95 632.81 893.93 2277.43 674.60 2516.47 634.65 2320.04 789.23 2312.21 927.42 2546.08 894.73
00001899 00000076 2212.68 241.32 632.18 899.04 2278.18 669.31 2515.42 632.50 2318.67 789.31 2312.07 925.57 2545.08 895.21
00001900 00000077 2212.98 240.84 633.28 899.24 2279.22 663.41 2514.11 631.63 2316.34 790.58 2313.60 923.53 2545.24 896.72
00001901 00000078 2218.04 238.42 636.88 899.02 2280.20 654.13 2512.81 628.09 2317.86 794.84 2314.94 916.20 2547.24 896.34
00001902 00000079 2218.50 238.21 637.94 897.86 2280.25 653.38 2513.79 628.44 2317.72 795.61 2313.67 915.17 2548.08 895.97
00001903 00000080 2215.13 238.68 638.38 900.78 2281.54 654.02 2511.37 629.19 2311.19 791.15 2314.85 918.29 2547.12 895.31
00001904 00000081 2213.83 233.92 640.01 906.54 2280.91 652.51 2510.43 628.86 2310.35 790.41 2314.44 917.80 2545.53 895.88
00001905 00000082 2216.71 231.84 649.24 904.88 2280.17 649.55 2514.32 626.17 2314.99 794.53 2313.43 912.03 2549.36 893.57
00001906 00000083 2214.02 230.20 645.30 909.10 2279.59 651.70 2509.28 627.97 2306.10 789.68 2314.74 917.26 2547.53 894.82
00001907 00000084 2212.12 229.42 636.01 907.21 2279.62 653.63 2508.48 625.92 2306.89 787.53 2314.98 917.80 2547.13 892.89
00001908 00000085 2214.19 231.24 638.95 904.66 2278.64 650.89 2512.57 623.89 2315.64 792.32 2313.76 911.73 2550.29 890.79
00001909 00000086 2213.56 239.54 629.22 895.75 2278.99 651.44 2511.36 624.79 2317.08 791.62 2314.01 911.30 2549.64 890.66
00001910 00000087 2202.89 237.83 645.98 900.00 2278.82 662.81 2511.12 629.22 2313.94 788.96 2316.32 922.82 2550.17 892.30
00001911 00000088 2213.13 231.01 645.20 906.67 2278.37 650.72 2512.64 623.44 2314.13 792.89 2312.53 912.78 2548.28 891.84
00001912 00000089 2213.87 232.89 648.21 906.23 2278.68 649.96 2513.77 623.44 2314.02 794.71 2311.53 912.52 2551.06 891.94
00001913 00000090 2214.03 235.87 646.41 903.31 2278.58 650.73 2513.93 624.15 2314.44 794.72 2310.98 913.00 2550.91 892.39
00001914 00000091 2214.45 235.97 648.09 903.11 2278.39 650.30 2514.23 623.70 2314.39 794.58 2311.37 913.44 2550.62 892.81
00001915 00000092 2214.60 235.83 648.80 902.24 2278.26 650.58 2514.08 623.19 2313.91 793.07 2311.39 913.40 2551.48 892.04
00001916 00000093 2214.29 235.30 647.18 902.56 2278.03 650.36 2513.72 622.84 2314.10 793.05 2311.51 912.95 2552.17 891.51
00001917 00000094 2214.46 235.62 647.55 902.94 2278.00 651.02 2513.75 622.21 2313.70 790.44 2310.52 912.78 2553.24 890.07
00001918 00000095 2214.31 237.84 644.41 900.89 2278.45 650.70 2513.46 622.16 2314.64 789.45 2310.60 911.51 2553.07 888.89
00001919 00000096 2213.78 238.37 644.64 899.07 2277.41 653.51 2513.90 623.64 2315.12 787.71 2309.18 912.30 2554.70 888.42
00001920 00000097 2210.62 237.70 637.86 899.91 2272.17 666.33 2519.82 626.75 2315.55 781.35 2302.54 919.50 2555.53 884.67
00001921 00000098 2211.57 240.26 637.01 896.49 2271.44 667.16 2518.23 626.13 2313.66 780.76 2301.26 920.60 2555.80 884.36
00001922 00000099 2211.58 236.14 647.34 898.71 2272.01 658.18 2514.63 620.88 2315.07 785.29 2301.30 914.82 2558.03 884.45
00001923 00000100 2209.79 232.21 639.13 906.43 2269.45 666.88 2516.78 624.59 2311.23 781.34 2300.75 922.38 2553.33 885.69
00001924 00000101 2209.95 233.25 634.25 902.77 2270.93 664.01 2515.38 624.63 2311.16 782.30 2301.86 920.71 2552.34 886.69
00001925 00000102 2203.00 232.21 650.38 904.48 2271.83 664.74 2514.51 624.72 2311.23 781.83 2307.43 924.15 2551.66 888.41
00001926 00000103 2203.15 231.39 648.18 904.42 2272.65 663.60 2513.05 624.90 2309.96 781.80 2306.98 922.46 2550.89 887.76
00001927 00000104 2202.65 236.96 646.08 898.20 2272.94 661.54 2512.12 624.08 2309.41 781.89 2306.75 920.78 2550.85 886.98
00001928 00000105 2212.07 233.43 641.50 900.57 2273.12 648.94 2510.78 620.55 2310.11 786.56 2303.03 910.72 2551.14 888.37
00001929 00000106 2213.30 237.13 642.60 897.54 2273.71 648.23 2510.62 620.79 2310.83 787.78 2303.49 910.89 2550.40 889.47
00001930 00000107 2213.05 236.50 642.42 898.03 2273.43 648.71 2510.52 620.96 2310.30 788.07 2303.11 911.71 2550.00 890.11
00001931 00000108 2213.50 235.92 643.95 898.53 2273.55 648.85 2511.39 620.44 2310.65 787.85 2303.29 912.12 2550.84 889.91
00001932 00000109 2212.88 236.48 643.06 896.86 2273.82 648.23 2511.77 620.77 2311.39 787.69 2302.79 911.88 2550.31 890.63
00001933 00000110 2212.62 238.18 642.31 894.02 2274.18 648.39 2512.08 621.28 2312.29 787.26 2302.74 911.48 2550.94 890.45
00001934 00000111 2213.12 240.53 639.88 890.73 2273.75 649.51 2512.09 622.76 2312.94 786.02 2302.64 911.66 2550.45 890.87
00001935 00000112 2200.71 243.15 650.33 892.34 2269.02 668.94 2516.04 629.18 2313.71 780.83 2303.52 925.80 2546.95 890.83
00001936 00000113 2202.11 247.53 641.73 885.16 2268.50 672.24 2510.71 630.40 2312.73 781.42 2304.79 929.33 2542.39 893.60
00001937 00000114 2211.93 247.38 631.35 873.98 2269.36 665.95 2509.57 627.25 2312.46 785.73 2303.23 926.70 2532.60 898.78
00001938 00000115 2213.61 251.14 626.11 870.46 2269.42 665.65 2509.35 630.97 2313.22 785.80 2302.08 925.89 2524.79 901.71
00001939 00000116 2215.15 252.73 619.00 864.97 2270.72 663.48 2506.81 631.89 2311.25 785.91 2303.51 927.56 2516.19 906.50
00001940 00000117 2215.50 252.74 616.48 867.84 2271.72 661.18 2503.25 632.89 2305.53 788.28 2301.91 930.45 2511.30 911.53
00001941 00000118 2216.04 253.11 614.49 866.83 2272.68 659.09 2500.79 631.87 2303.15 788.19 2302.10 930.23 2510.60 911.74
00001942 00000119 2216.35 254.46 612.08 865.93 2273.34 656.90 2499.90 630.28 2303.22 787.92 2302.88 930.95 2508.00 912.78
00001943 00000120 2216.25 256.16 609.34 864.27 2273.88 655.58 2499.35 630.27 2304.94 788.17 2304.05 930.08 2505.67 912.83
00001944 00000121 2215.66 257.86 609.05 864.11 2274.20 655.37 2498.84 630.53 2304.52 789.33 2303.96 930.70 2504.74 913.72
00001945 00000122 2216.09 260.14 609.54 861.98 2274.42 655.33 2499.01 630.53 2303.53 788.74 2303.05 931.76 2503.51 914.80
00001946 00000123 2215.81 254.98 614.37 868.29 2273.61 655.83 2500.50 630.08 2302.75 788.85 2302.18 933.99 2502.85 916.43
00001947 00000124 2216.20 254.76 614.22 868.59 2273.59 656.26 2500.47 629.66 2302.63 789.09 2302.47 935.44 2504.12 917.23
00001948 00000125 2215.77 255.60 616.56 866.59 2272.87 656.50 2500.66 629.20 2303.16 788.92 2303.23 934.81 2505.83 916.12
00001949 00000126 2216.69 251.87 624.24 871.09 2272.05 655.47 2501.88 628.18 2301.95 788.98 2302.12 935.11 2506.22 916.34
00001950 00000127 2216.98 252.84 625.64 870.22 2272.03 656.59 2501.57 628.08 2302.12 789.16 2303.94 935.73 2507.17 916.11
00001951 00000128 2216.67 252.10 624.73 871.19 2271.35 656.36 2501.25 627.95 2302.01 789.32 2303.91 936.18 2506.30 916.73
00001952 00000129 2216.61 254.55 617.45 867.05 2271.24 657.08 2499.40 628.72 2303.08 789.94 2304.87 936.00 2505.19 916.69
00001953 00000130 2214.85 258.75 612.81 862.45 2268.01 667.83 2504.80 636.75 2307.94 790.37 2302.61 938.43 2505.67 918.27
00001954 00000131 2214.12 260.09 614.52 864.26 2265.21 668.51 2500.69 630.96 2305.90 790.70 2303.32 942.61 2503.86 917.51
00001955 00000132 2213.65 252.69 612.28 871.62 2264.89 669.51 2500.72 632.24 2305.22 790.78 2301.88 943.26 2503.26 918.57
00001956 00000133 2212.90 257.04 610.20 867.13 2264.90 672.08 2500.47 634.46 2305.59 790.90 2302.28 944.02 2504.04 919.11
00001957 00000134 2210.05 257.76 596.05 864.76 2265.68 671.80 2499.69 637.43 2305.98 791.18 2302.69 941.94 2503.93 919.41
00001958 00000135 2211.71 260.24 596.93 862.02 2268.57 668.78 2499.65 637.68 2304.87 790.69 2302.06 941.65 2499.43 921.37
00001959 00000136 2214.60 264.88 611.10 860.72 2269.45 663.23 2497.19 632.81 2301.72 790.41 2301.09 941.44 2497.09 920.73
00001960 00000137 2216.28 267.01 606.04 857.32 2271.98 660.33 2495.44 631.18 2301.47 788.77 2301.69 939.50 2496.57 919.60
00001961 00000138 2217.11 263.04 605.72 860.75 2273.01 657.55 2496.16 629.05 2302.96 787.10 2301.49 936.36 2496.51 916.85
00001962 00000139 2216.45 262.73 602.06 857.58 2273.69 656.01 2497.78 629.27 2306.46 785.50 2302.76 932.45 2498.89 914.39
00001963 00000140 2214.80 267.64 605.61 860.05 2276.38 656.35 2498.01 630.20 2305.15 782.30 2307.09 932.33 2495.53 913.59
00001964 00000141 2215.37 261.89 610.26 863.97 2276.07 653.06 2498.88 626.36 2303.20 779.19 2305.13 931.64 2496.15 912.05
00001965 00000142 2215.72 258.70 612.54 866.86 2275.78 648.90 2497.97 623.07 2300.38 776.47 2302.44 931.38 2492.51 912.50
00001966 00000143 2214.99 253.30 612.19 869.65 2275.66 647.68 2496.42 621.17 2300.17 771.65 2302.79 926.65 2491.09 907.53
00001967 00000144 2214.13 257.50 613.70 858.36 2266.58 638.96 2500.13 612.91 2303.68 763.26 2291.73 918.12 2489.97 901.59
00001968 00000145 2212.43 253.51 610.41 855.89 2263.35 633.68 2495.70 608.04 2302.15 757.74 2287.72 911.23 2485.32 894.87
00001969 00000146 2212.05 252.89 609.93 845.49 2260.97 631.04 2492.80 603.48 2298.49 750.18 2285.39 906.00 2481.74 888.87
00001970 00000147 2210.30 257.95 605.12 829.48 2258.41 629.14 2494.59 606.65 2293.03 745.48 2274.51 899.62 2478.90 886.50
00001971 00000148 2207.28 246.71 612.97 841.17 2257.96 622.13 2493.03 601.48 2291.95 742.13 2275.11 896.02 2472.58 884.53
00001972 00000149 2201.19 232.09 619.96 847.28 2259.55 623.52 2493.82 604.59 2287.31 737.53 2273.08 890.85 2474.42 878.32
00001973 00000150 2198.69 229.30 623.51 845.35 2258.12 617.95 2492.13 601.04 2284.46 735.94 2271.05 888.98 2474.00 877.61
00001974 00000151 2194.85 227.62 626.05 853.69 2257.30 615.08 2488.36 599.93 2279.08 735.86 2269.36 888.31 2470.93 878.09
00001975 00000152 2191.88 231.63 628.11 854.32 2256.30 613.78 2486.58 599.41 2277.08 737.52 2268.84 888.90 2472.38 879.06
00001976 00000153 2187.78 231.93 627.00 853.75 2253.69 612.83 2483.48 600.15 2275.01 738.34 2266.89 887.94 2468.06 879.40
00001977 00000154 2190.58 236.96 630.17 855.83 2254.62 614.72 2484.71 601.19 2276.83 744.18 2270.66 892.62 2473.84 883.32
00001978 00000155 2199.92 237.55 625.27 856.00 2260.59 620.77 2489.14 603.75 2283.07 748.56 2277.96 899.93 2479.95 888.02
00001979 00000156 2207.71 234.91 626.66 864.21 2266.71 621.50 2496.67 606.14 2291.39 753.57 2284.41 902.43 2484.86 891.50
00001980 00000157 2212.62 243.24 620.10 861.62 2275.28 625.21 2504.53 613.54 2300.30 755.72 2290.11 906.04 2485.50 898.78
00001981 00000158 2217.92 243.52 622.88 862.77 2282.78 625.88 2514.62 613.45 2309.42 752.74 2295.67 907.94 2492.95 900.15
00001982 00000159 2222.62 242.10 625.99 864.38 2288.31 626.99 2524.14 618.06 2318.69 755.78 2300.72 907.94 2503.33 902.41
00001983 00000160 2231.22 234.95 623.14 868.01 2298.49 626.94 2533.05 617.68 2329.91 753.07 2311.11 907.93 2509.38 902.42
00001984 00000161 2244.34 237.59 617.16 858.47 2312.86 620.81 2540.95 615.65 2339.95 751.53 2322.62 901.74 2515.42 899.03
00001985 00000162 2252.11 239.64 634.15 857.65 2315.07 613.86 2553.26 608.66 2345.82 744.92 2324.44 898.91 2522.90 898.33
