Video ID: 	wxTRMB-YugM
H: 	1080
W: 	1920
FPS: 	25.0

FRAME INDEX X0 Y0 W H [Landmarks (5 Points)]

00001076 00000000 736.74 177.35 602.04 798.29 811.61 480.79 1063.46 455.45 878.32 624.62 856.75 787.16 1062.24 766.64
00001077 00000001 733.34 181.94 603.54 797.36 809.35 480.25 1061.21 454.76 876.92 624.76 855.70 785.99 1064.39 765.10
00001078 00000002 731.22 182.46 604.25 797.73 808.67 480.28 1059.86 452.29 877.14 624.14 856.24 785.00 1068.72 761.49
00001079 00000003 738.58 181.39 586.28 755.97 799.07 476.15 1067.31 452.00 875.92 624.79 849.17 778.81 1067.34 758.41
00001080 00000004 739.98 181.95 588.86 736.37 796.86 474.81 1069.82 447.87 877.48 623.14 849.21 773.06 1076.84 748.88
00001081 00000005 738.01 176.23 589.82 735.80 796.72 473.91 1070.82 444.47 880.56 617.60 850.20 773.34 1076.75 747.49
00001082 00000006 734.62 172.36 590.86 739.55 795.85 474.37 1069.07 445.44 879.98 616.52 848.21 773.59 1073.00 748.32
00001083 00000007 736.54 175.38 585.00 739.91 795.07 481.17 1053.92 453.60 868.54 619.12 836.70 778.69 1054.62 756.60
00001084 DELETE   735.47 178.23 575.71 723.26 789.08 482.44 1047.30 451.09 865.84 618.68 833.82 779.81 1046.53 754.90
00001085 DELETE   735.37 170.55 573.07 729.42 786.17 478.42 1044.28 446.25 861.61 617.79 830.98 779.86 1041.29 754.75
00001086 00000010 733.89 170.36 572.75 729.18 784.03 472.15 1040.32 438.52 858.07 613.75 830.14 777.14 1038.85 751.09
00001087 00000011 725.50 160.94 580.34 743.25 787.06 468.47 1039.63 432.26 860.55 605.20 836.61 774.20 1036.16 746.35
00001088 00000012 724.45 147.19 582.02 744.74 787.56 456.31 1046.29 420.72 866.86 599.15 842.53 773.89 1032.44 747.58
00001089 00000013 728.86 157.98 572.86 725.77 791.34 455.19 1048.49 417.02 873.93 594.67 849.17 774.31 1036.12 745.91
00001090 00000014 727.77 160.25 573.71 718.99 790.12 454.45 1046.87 416.39 873.72 592.42 845.70 773.33 1031.80 745.20
00001091 00000015 726.66 154.49 571.24 724.80 786.19 452.42 1043.13 418.94 863.71 591.61 835.23 769.96 1023.52 745.61
00001092 DELETE   717.77 149.79 575.40 725.98 775.50 451.00 1031.67 421.35 846.05 593.08 816.28 768.26 1005.06 747.53
00001093 DELETE   710.50 157.29 573.93 726.29 768.17 453.13 1018.67 420.56 828.72 590.92 803.31 774.99 986.27 751.69
00001094 00000018 702.67 151.96 575.64 743.62 758.76 445.56 1012.11 416.80 813.68 589.86 788.28 777.01 973.98 756.47
00001095 00000019 698.97 140.91 578.82 777.77 750.01 443.84 1009.81 417.38 796.35 587.15 770.26 777.78 966.85 758.76
00001096 00000020 705.73 150.02 574.17 761.40 746.96 442.19 1000.27 413.19 796.42 578.32 778.80 772.39 974.27 751.09
00001097 00000021 705.10 150.14 573.93 752.45 755.28 449.28 1010.32 411.86 815.72 590.38 795.97 775.54 994.93 748.04
00001098 00000022 707.48 157.21 576.12 721.35 764.17 449.38 1013.98 415.01 826.40 594.43 808.85 770.60 999.72 746.08
00001099 00000023 709.51 164.76 574.96 707.06 766.30 452.25 1017.84 419.49 830.13 599.02 810.87 775.36 1000.58 752.14
00001100 00000024 706.19 171.13 579.42 707.31 767.25 463.65 1019.36 424.75 832.72 603.98 811.59 787.77 999.11 759.55
00001101 00000025 701.03 176.26 575.91 696.57 766.98 468.66 1015.19 430.81 837.44 614.12 816.68 791.55 1002.51 763.73
00001102 00000026 696.12 172.01 580.32 711.71 759.59 466.99 1013.83 433.34 830.15 615.91 807.21 788.85 996.78 764.32
00001103 00000027 694.91 164.85 586.48 742.86 752.11 468.36 1014.20 432.91 823.28 612.66 797.22 787.07 995.52 761.14
00001104 00000028 692.71 154.08 595.32 751.42 746.63 464.77 1017.68 430.47 817.00 608.11 789.86 783.26 997.30 758.07
00001105 00000029 699.30 159.51 591.64 733.36 747.24 467.15 1003.26 427.91 812.62 608.45 799.39 779.84 999.43 749.58
00001106 00000030 689.84 157.14 602.29 772.76 755.03 464.24 1017.20 434.61 812.84 612.08 806.22 779.17 999.42 755.42
00001107 00000031 690.24 158.48 604.51 780.13 756.59 466.22 1019.07 434.91 815.84 613.39 809.39 781.92 1004.59 756.93
00001108 00000032 692.62 163.25 604.59 782.34 758.45 469.83 1019.81 437.47 816.36 617.13 810.94 784.27 1009.22 757.98
00001109 00000033 689.96 171.87 606.55 767.42 756.65 470.01 1018.05 441.18 815.22 620.61 809.87 783.89 1004.73 760.19
00001110 00000034 683.85 170.04 608.26 772.86 753.13 470.42 1014.66 444.30 813.06 622.62 807.87 784.67 1002.52 762.91
00001111 00000035 676.38 172.38 605.68 764.16 743.50 471.93 1008.53 445.67 809.36 627.31 802.20 785.47 1000.31 763.01
00001112 00000036 684.86 169.88 590.31 738.22 732.28 476.72 990.52 445.89 800.57 627.10 785.45 790.07 991.47 765.75
00001113 00000037 681.59 177.54 585.33 733.32 724.47 479.90 981.27 449.56 791.71 632.82 777.72 792.40 985.43 768.10
00001114 00000038 672.55 178.79 588.81 730.76 717.69 482.00 977.26 453.12 786.14 635.71 770.46 792.71 979.99 769.58
00001115 00000039 659.56 172.52 593.05 739.25 708.58 484.93 969.08 453.89 776.60 638.65 761.10 794.15 973.41 769.08
00001116 00000040 653.84 174.61 584.98 724.29 697.05 487.75 963.07 452.88 771.54 638.52 751.38 797.73 965.88 770.30
00001117 00000041 647.15 177.95 588.96 730.10 693.54 492.40 959.20 454.31 766.69 640.06 746.95 801.36 961.00 771.62
00001118 00000042 645.74 178.36 586.71 728.33 690.10 492.12 956.22 454.21 762.74 640.09 742.60 800.84 958.49 771.24
00001119 00000043 641.91 184.04 584.46 726.69 686.65 491.63 954.30 453.36 761.45 640.31 740.07 801.26 957.24 771.38
00001120 00000044 621.59 182.82 608.18 749.31 686.08 486.77 952.88 455.41 750.51 644.50 748.19 798.19 942.54 771.62
00001121 00000045 616.23 177.69 612.41 755.43 681.51 487.72 948.51 455.66 745.06 646.44 744.35 798.69 940.88 771.24
00001122 00000046 610.79 177.71 614.08 746.08 678.65 485.86 945.29 459.38 741.86 649.12 740.26 796.46 933.63 773.36
00001123 DELETE   608.10 184.50 607.98 727.49 673.16 489.05 939.23 463.08 739.11 653.39 739.64 798.41 926.28 775.52
00001124 00000048 604.81 195.11 603.11 704.32 672.81 490.79 933.86 464.64 737.42 651.48 740.06 804.84 905.34 782.26
00001125 00000049 604.54 204.93 603.10 666.15 670.25 490.96 930.10 458.17 735.53 642.49 737.57 806.36 889.55 777.85
00001126 00000050 602.63 196.61 604.24 673.32 670.47 483.49 932.37 452.51 736.99 635.29 734.53 800.38 888.98 773.68
00001127 00000051 604.66 185.97 602.15 672.35 668.89 474.85 935.28 448.27 740.69 632.10 732.92 788.49 895.15 765.35
00001128 00000052 604.09 181.87 602.44 690.44 670.13 470.33 935.89 445.55 737.86 626.74 729.38 785.20 896.84 763.96
00001129 00000053 605.47 178.92 600.86 724.49 671.81 468.11 936.12 444.45 737.07 624.48 730.16 786.98 904.23 767.06
00001130 00000054 607.95 178.01 602.03 720.99 674.88 468.66 939.00 444.32 741.48 626.93 734.44 786.94 907.22 766.62
00001131 00000055 609.85 177.27 599.70 697.41 677.94 470.09 939.49 445.24 747.77 628.11 740.98 783.31 904.84 762.17
00001132 00000056 614.05 175.44 601.41 685.83 679.94 473.28 939.52 445.38 747.93 631.02 745.85 786.61 902.92 762.83
00001133 00000057 615.45 180.06 602.11 686.40 682.36 474.69 941.77 445.63 750.11 630.91 747.39 789.20 903.12 764.66
00001134 00000058 619.42 183.03 600.52 680.63 683.91 477.46 944.22 446.22 750.81 633.17 749.86 793.30 904.74 767.02
00001135 00000059 620.87 186.49 601.18 682.71 686.36 477.55 944.93 446.48 751.00 633.51 751.06 794.55 904.96 768.36
00001136 00000060 630.57 182.99 580.95 686.58 689.19 479.66 941.95 440.12 763.18 634.93 746.34 804.90 936.04 775.49
00001137 00000061 634.87 185.04 579.98 692.14 688.95 481.50 943.46 441.63 761.71 633.31 744.97 803.23 935.98 773.35
00001138 00000062 636.66 185.89 582.18 700.90 687.93 480.06 945.80 442.99 758.34 632.85 739.58 800.57 936.18 772.81
00001139 00000063 638.11 184.53 580.47 702.69 689.16 479.73 945.32 442.09 759.90 631.74 742.92 798.10 939.35 769.67
00001140 00000064 637.71 182.16 579.24 705.19 691.16 478.02 947.51 441.78 761.95 632.17 746.15 797.20 941.02 769.96
00001141 00000065 639.91 182.74 577.17 706.95 693.40 478.09 949.11 441.51 763.37 633.36 748.88 797.67 943.85 770.12
00001142 00000066 640.01 179.54 578.42 713.30 694.71 478.15 952.24 441.56 765.60 632.51 750.35 797.55 946.47 769.85
00001143 00000067 639.65 178.65 578.03 711.86 696.60 478.29 951.81 440.69 770.39 634.52 756.67 797.52 951.56 768.89
00001144 00000068 638.51 180.89 576.86 697.82 697.21 480.04 952.89 439.25 773.21 635.33 757.50 802.59 952.08 771.67
00001145 00000069 636.96 178.75 579.70 695.36 696.95 482.88 955.55 439.91 773.94 635.84 756.42 808.59 951.73 776.23
00001146 00000070 637.19 179.19 581.99 700.56 697.40 484.86 959.39 443.75 771.18 642.09 755.48 813.23 949.96 782.51
00001147 00000071 632.98 191.43 597.36 697.50 703.05 489.56 960.26 455.62 769.71 640.76 769.77 802.50 925.08 774.99
00001148 00000072 640.45 181.06 582.79 679.87 700.65 489.82 961.21 445.48 776.59 642.62 759.81 814.78 954.75 781.57
00001149 00000073 644.46 173.69 581.05 698.16 705.04 479.65 968.73 443.50 781.20 637.76 761.14 806.33 956.63 779.91
00001150 00000074 647.73 169.13 577.92 713.67 707.06 471.75 970.45 435.50 790.39 628.79 769.41 795.46 962.13 768.45
00001151 00000075 654.55 162.16 574.71 715.14 715.04 458.90 974.09 430.34 794.48 620.29 771.56 779.97 962.84 759.30
00001152 00000076 655.45 155.50 583.20 732.70 717.44 459.27 976.45 426.93 797.69 613.96 775.93 776.24 968.94 752.48
00001153 00000077 662.24 157.08 584.67 734.01 718.83 459.48 978.99 421.23 798.28 608.01 779.19 776.95 972.30 748.48
00001154 00000078 667.13 156.22 585.44 742.13 722.63 459.95 982.23 421.62 798.61 607.02 781.06 776.74 974.80 748.19
00001155 00000079 673.86 151.85 574.31 739.63 725.35 462.73 984.17 428.09 802.52 607.97 779.20 773.21 975.34 747.76
00001156 DELETE   672.12 149.29 574.83 742.09 726.49 465.60 988.95 430.23 807.01 606.36 781.45 774.01 978.10 747.89
00001157 DELETE   674.04 154.51 574.81 730.36 726.60 463.41 989.87 429.18 808.91 607.43 779.66 775.19 980.72 750.04
00001158 DELETE   675.58 157.23 579.13 753.09 730.79 463.67 993.35 428.01 809.50 606.30 780.71 778.34 983.77 751.22
00001159 00000083 673.53 155.14 584.41 759.53 730.51 464.36 992.51 428.15 808.98 604.22 781.43 779.73 983.92 752.04
00001160 00000084 674.86 159.61 585.02 758.15 731.32 464.10 992.97 425.93 809.15 603.03 782.64 781.21 984.76 751.70
00001161 00000085 673.39 160.91 585.08 756.38 729.64 461.16 991.87 422.37 807.88 599.19 780.64 781.83 982.80 751.93
00001162 00000086 674.58 161.92 584.40 754.74 729.31 461.27 991.49 421.16 806.96 597.61 780.67 781.92 983.33 750.91
00001163 00000087 675.46 158.99 581.83 753.28 728.94 459.70 991.18 420.66 806.39 597.68 780.05 781.53 981.74 751.50
00001164 00000088 674.97 158.61 579.77 753.22 728.80 459.50 991.47 420.63 807.33 597.19 779.86 781.09 981.45 751.30
00001165 00000089 674.05 156.97 582.41 756.26 729.25 459.45 991.40 421.30 807.06 597.17 779.96 780.50 982.58 751.30
00001166 00000090 673.11 156.09 583.82 762.21 730.38 459.34 992.84 421.12 807.56 597.28 780.56 781.65 982.89 752.43
00001167 00000091 674.68 158.90 584.15 756.40 730.47 459.29 992.88 420.60 806.92 595.88 780.80 781.89 981.28 752.32
00001168 00000092 673.87 155.61 585.34 761.45 730.65 458.23 993.15 419.58 806.57 593.74 780.30 780.88 982.30 751.34
00001169 00000093 676.10 155.44 583.19 758.85 730.83 458.59 992.63 421.16 806.01 595.29 779.31 780.18 980.79 751.65
00001170 00000094 675.75 154.56 581.02 755.68 730.18 461.92 992.87 424.88 807.17 597.39 780.03 780.61 983.18 752.21
00001171 00000095 675.05 159.90 580.37 752.82 732.02 464.48 993.70 427.87 809.49 599.18 780.78 778.96 983.48 750.93
00001172 00000096 670.34 160.57 583.02 751.04 733.98 464.03 997.32 430.44 811.93 601.01 784.46 775.45 984.41 749.93
00001173 00000097 671.23 156.33 578.22 741.51 732.62 462.23 999.90 428.24 816.11 603.47 787.24 777.09 986.26 751.90
00001174 00000098 671.98 158.85 575.78 733.17 733.03 464.53 996.65 428.84 815.34 604.24 790.40 779.15 984.94 752.89
00001175 00000099 672.11 159.35 576.46 730.55 733.66 465.82 996.50 430.98 814.40 605.18 789.18 780.21 985.31 754.53
00001176 00000100 674.51 158.08 571.15 724.45 732.97 467.13 995.54 432.62 813.48 607.24 787.74 782.33 983.85 757.19
00001177 00000101 675.75 168.01 580.83 732.61 739.46 473.58 998.35 451.67 803.36 618.65 787.41 777.29 965.41 760.22
00001178 00000102 675.06 170.45 581.10 731.19 741.18 472.73 1001.25 453.75 806.81 619.51 786.27 775.69 965.84 761.05
00001179 00000103 673.82 169.36 588.25 735.44 743.10 474.85 1003.73 456.76 806.88 621.24 785.84 778.17 965.60 764.52
00001180 00000104 673.41 173.48 589.38 728.38 742.34 476.45 1005.24 458.53 807.34 624.01 784.13 780.33 964.41 766.66
00001181 00000105 672.25 173.82 590.23 727.44 740.61 478.50 1003.34 460.33 805.52 625.95 784.45 783.81 960.72 769.92
00001182 00000106 669.16 175.33 593.84 727.55 740.63 482.75 1003.97 464.47 805.25 628.75 785.59 787.55 960.61 773.66
00001183 00000107 667.47 177.00 594.23 727.65 740.04 485.79 1002.63 465.77 805.39 628.81 787.81 790.60 960.77 775.05
00001184 00000108 667.11 177.45 588.37 725.84 740.10 485.54 1001.20 466.10 805.66 628.40 787.49 790.55 956.98 775.62
00001185 00000109 666.47 176.68 588.13 727.46 738.52 485.91 999.33 466.27 803.92 627.20 785.85 791.92 952.32 777.03
00001186 00000110 666.05 179.09 588.54 721.15 739.32 486.07 1000.63 465.09 805.20 628.26 787.92 796.10 951.30 779.80
00001187 00000111 667.80 163.49 582.37 734.69 738.36 476.77 1004.60 448.82 818.49 618.17 787.29 803.34 965.01 783.03
00001188 00000112 667.35 159.49 580.78 737.47 739.08 474.10 1004.03 445.05 818.65 614.00 788.30 801.19 965.50 779.88
00001189 00000113 669.18 161.16 575.43 728.56 737.39 473.49 1000.19 444.18 817.27 611.69 786.30 794.46 965.49 773.20
00001190 00000114 670.57 161.26 578.31 737.66 733.74 475.57 997.48 445.47 811.06 611.54 779.41 792.10 965.96 770.17
00001191 00000115 672.21 159.83 579.17 750.58 732.06 475.81 995.86 448.76 804.41 615.91 774.26 789.76 963.03 770.11
00001192 00000116 670.88 165.39 582.04 747.55 730.10 479.15 995.35 451.68 804.60 619.15 772.44 790.44 968.42 770.00
00001193 00000117 665.51 166.99 586.45 755.16 728.82 485.44 998.48 457.25 804.44 620.24 779.07 796.79 971.60 775.04
00001194 00000118 667.22 168.64 585.75 751.49 731.31 487.11 1001.08 457.20 809.66 621.28 784.15 798.37 975.25 775.13
00001195 00000119 668.68 171.59 591.92 748.48 742.54 486.31 1002.05 464.70 810.74 628.28 793.14 787.81 969.35 771.27
00001196 00000120 671.08 176.27 590.45 720.60 745.14 486.91 1004.50 464.43 815.33 629.95 799.42 786.59 967.52 768.96
00001197 00000121 668.46 189.48 590.52 691.17 739.86 483.87 1008.02 459.17 821.13 627.65 802.80 787.00 970.69 766.13
00001198 00000122 672.38 188.37 592.16 713.56 742.47 484.85 1011.99 461.71 820.74 629.86 800.68 788.30 978.08 769.15
00001199 00000123 673.36 191.61 591.92 715.51 743.51 488.66 1012.60 465.53 820.69 632.96 800.59 791.74 979.33 772.58
00001200 00000124 675.85 192.10 596.55 706.82 748.68 489.24 1018.89 468.21 825.29 636.92 804.91 795.31 981.06 777.70
00001201 00000125 678.55 195.45 599.09 687.04 751.40 491.46 1022.77 467.65 829.39 636.96 809.65 798.30 980.68 778.18
00001202 00000126 682.77 195.31 594.51 689.31 757.89 489.09 1030.14 468.36 836.30 636.80 811.71 795.54 986.12 778.34
00001203 00000127 689.31 190.14 593.20 702.65 764.51 493.45 1034.16 472.14 843.51 640.02 821.69 797.92 997.37 780.10
00001204 00000128 694.74 188.28 597.09 707.82 770.83 495.68 1039.73 472.68 847.75 640.38 826.70 798.88 1003.35 779.85
00001205 00000129 697.23 187.36 598.92 716.13 772.69 496.15 1044.42 472.41 849.35 641.80 827.51 801.23 1009.92 781.44
00001206 00000130 701.27 180.11 601.63 740.24 776.48 498.88 1048.40 472.91 852.02 645.69 830.95 802.73 1022.86 780.73
00001207 00000131 720.94 176.44 583.67 732.40 772.83 498.40 1043.70 465.88 855.90 651.01 829.14 805.07 1042.32 779.77
00001208 00000132 713.98 186.65 602.76 744.50 782.34 494.21 1054.03 468.48 855.68 648.38 839.20 801.00 1037.05 778.57
00001209 00000133 717.26 186.09 603.04 747.31 785.18 494.06 1055.43 467.54 857.91 648.12 843.09 801.11 1039.45 778.19
00001210 00000134 718.29 183.43 601.91 748.18 786.04 493.71 1055.83 467.75 858.26 647.63 842.66 799.39 1038.80 777.02
00001211 00000135 718.33 178.48 602.83 750.03 787.11 493.80 1057.34 468.08 860.09 647.94 844.57 800.63 1039.43 778.42
00001212 00000136 719.81 182.29 601.60 747.49 788.17 492.57 1058.10 467.77 860.39 646.24 843.72 797.54 1039.61 776.33
00001213 00000137 719.08 180.70 602.71 749.47 788.09 493.07 1058.15 467.78 860.43 645.30 843.73 798.05 1038.68 776.59
00001214 00000138 718.55 180.48 604.04 750.10 788.20 493.17 1058.55 467.62 860.35 645.34 843.69 798.36 1039.21 776.64
00001215 00000139 719.15 181.13 602.55 751.86 788.21 492.70 1057.97 466.73 860.29 645.39 843.48 798.93 1039.97 776.71
00001216 00000140 719.04 179.39 603.93 751.57 787.97 490.31 1058.86 466.02 859.65 646.03 842.20 797.93 1038.51 777.21
00001217 00000141 718.92 179.74 604.24 751.69 787.45 489.32 1059.16 465.29 859.33 645.84 841.19 797.85 1038.04 777.36
00001218 00000142 718.59 179.60 603.63 751.72 788.02 488.84 1058.89 465.16 860.07 645.44 842.09 797.75 1037.08 777.49
00001219 00000143 717.67 179.99 608.44 752.82 787.56 488.77 1060.20 464.59 859.46 645.89 842.29 800.44 1038.00 779.72
00001220 00000144 715.28 180.12 607.14 754.75 784.87 489.17 1059.20 463.06 859.05 644.20 840.61 800.89 1038.08 778.71
00001221 00000145 714.14 178.65 606.58 760.38 783.64 489.01 1057.75 463.14 857.48 642.72 837.84 800.58 1037.69 778.59
00001222 00000146 713.03 176.75 606.31 760.84 782.30 489.00 1057.34 462.91 856.92 643.65 835.72 798.87 1039.29 776.44
00001223 00000147 724.71 175.54 584.97 735.39 776.63 490.99 1045.21 461.05 858.41 644.71 830.92 799.56 1043.43 775.97
00001224 00000148 720.63 179.38 587.29 739.61 774.23 492.72 1042.21 461.28 855.41 646.53 830.33 803.09 1043.38 777.99
00001225 00000149 709.19 175.66 600.98 774.52 776.41 492.68 1039.75 461.52 854.46 643.35 830.54 804.14 1040.77 778.70
00001226 00000150 698.46 172.23 610.96 822.34 778.13 488.44 1036.20 456.43 853.05 637.17 832.98 806.75 1043.48 780.56
00001227 00000151 697.29 176.18 607.60 819.36 776.34 487.55 1032.53 455.99 847.70 635.77 828.47 804.05 1041.14 778.31
00001228 00000152 698.67 175.37 601.66 806.39 772.65 486.24 1026.99 455.23 842.35 636.20 824.09 799.43 1034.07 774.28
00001229 00000153 696.79 177.31 599.47 799.63 769.02 485.02 1022.73 455.40 838.71 637.69 819.47 799.57 1024.51 775.99
00001230 00000154 696.50 175.88 597.69 787.58 765.90 486.16 1024.60 454.45 841.21 638.99 818.99 800.73 1021.78 775.87
00001231 00000155 698.87 172.57 595.35 787.97 764.79 484.94 1025.47 455.99 838.78 640.96 816.61 800.23 1018.80 777.69
00001232 00000156 696.00 173.68 597.91 790.62 764.27 485.38 1022.50 453.86 838.93 638.33 817.66 799.80 1020.39 775.03
00001233 00000157 690.34 174.89 606.78 812.20 760.83 486.90 1015.40 454.32 829.10 637.33 813.47 804.54 1022.34 778.32
CROP_BBOX: 333 0 1592 1080
