Video ID: 	H2Pu6uk6P8A
H: 	1080
W: 	1920
FPS: 	25.0

FRAME INDEX X0 Y0 W H [Landmarks (5 Points)]

00016268 00000000 353.79 134.96 487.87 655.50 450.41 397.55 653.73 380.56 535.54 515.35 488.09 626.67 661.33 612.48
00016269 00000001 349.80 127.75 490.20 663.38 447.54 392.73 645.92 378.29 525.21 509.24 481.24 623.27 649.95 611.52
00016270 DELETE   361.41 123.43 486.80 666.75 475.00 386.96 682.91 367.16 578.74 493.36 514.45 618.74 694.38 601.21
00016271 00000003 384.96 124.49 479.55 649.21 523.70 379.19 733.36 353.18 658.75 470.00 577.78 611.35 751.71 587.82
00016272 DELETE   410.70 118.38 482.27 644.13 582.13 377.54 777.44 345.22 728.56 459.78 638.61 600.51 809.41 571.16
00016273 00000005 427.82 120.89 480.37 639.25 611.82 372.97 802.66 344.31 759.81 463.29 666.38 599.00 827.35 572.81
00016274 00000006 431.93 120.41 481.81 646.11 613.16 370.36 809.10 352.86 755.55 469.91 659.92 600.67 822.94 583.44
00016275 00000007 441.66 127.39 477.09 640.93 608.13 368.56 811.15 361.12 743.39 474.49 647.52 599.85 815.19 591.65
00016276 00000008 448.41 124.30 473.90 641.29 612.26 364.76 816.10 364.09 741.39 477.15 645.38 599.08 810.68 597.00
00016277 00000009 449.67 117.33 475.23 649.87 616.98 363.49 820.65 364.20 744.96 480.66 647.88 600.73 812.98 599.39
00016278 00000010 452.51 107.40 477.52 653.32 619.47 365.37 825.17 365.37 746.69 487.60 649.13 601.39 814.19 601.43
00016279 00000011 454.10 120.99 471.01 641.64 622.14 362.46 823.61 365.01 747.80 479.31 652.37 599.20 811.69 599.42
00016280 00000012 455.38 121.44 469.75 641.22 625.53 358.68 822.96 363.37 748.47 474.53 654.58 596.72 807.77 598.84
00016281 00000013 455.22 117.53 470.30 640.76 624.51 352.80 824.16 357.34 749.09 469.52 655.38 594.05 806.51 596.01
00016282 00000014 456.99 111.78 472.24 637.49 623.42 344.92 827.87 347.36 747.82 456.70 655.99 585.74 809.36 585.81
00016283 00000015 466.73 98.61 463.70 632.02 625.77 331.49 830.67 342.54 746.33 438.14 647.55 564.18 815.87 573.13
00016284 00000016 467.59 95.61 461.78 613.97 623.47 321.66 830.97 334.07 743.79 418.35 642.71 546.20 812.50 556.19
00016285 00000017 468.54 89.59 458.46 605.20 622.51 311.21 827.53 324.97 740.78 400.89 640.88 531.67 807.95 542.55
00016286 00000018 471.56 90.29 457.09 599.01 620.86 305.51 827.24 318.70 738.16 385.38 637.71 523.41 807.37 533.43
00016287 00000019 473.56 90.59 456.82 595.79 619.12 299.74 829.81 315.45 736.88 375.27 632.82 516.18 810.93 527.98
00016288 00000020 479.24 89.88 452.21 592.15 618.27 295.22 827.82 312.55 731.19 360.74 629.10 508.26 809.29 521.20
00016289 00000021 478.44 90.67 452.07 584.52 610.51 300.07 820.88 314.08 721.37 353.51 622.88 505.74 806.34 515.98
00016290 00000022 469.19 93.42 454.04 578.75 597.75 301.77 808.22 313.00 706.74 355.55 612.70 506.03 797.30 514.36
00016291 00000023 456.72 98.58 463.83 569.20 582.65 304.45 793.71 312.43 688.37 358.05 600.63 507.54 783.16 513.23
00016292 00000024 449.11 99.13 466.33 566.39 567.70 307.07 776.12 308.64 664.20 356.74 583.85 508.95 764.74 509.52
00016293 00000025 440.33 101.12 466.43 558.46 559.51 308.08 766.22 307.74 650.71 351.74 569.48 509.05 745.82 508.06
00016294 00000026 433.23 101.33 468.64 559.99 544.68 318.61 749.02 304.20 630.34 347.63 558.81 514.15 734.75 501.62
00016295 00000027 421.86 90.29 479.19 568.93 528.28 318.21 729.86 296.10 605.12 349.58 547.37 520.33 719.30 501.46
00016296 00000028 419.82 108.28 453.17 552.52 508.22 314.78 718.05 297.65 586.39 349.83 533.92 514.00 713.86 498.85
00016297 00000029 410.97 116.86 456.70 543.86 494.17 321.10 705.06 293.34 569.12 353.95 523.03 520.57 703.13 496.76
00016298 00000030 396.33 119.31 464.23 536.67 486.06 324.75 695.95 293.24 562.02 355.40 514.26 521.71 692.79 494.57
00016299 00000031 392.84 113.31 465.31 542.13 476.56 327.54 687.15 290.32 547.30 353.06 502.16 525.24 681.71 493.38
00016300 00000032 389.28 108.34 466.12 553.57 470.60 327.47 681.01 287.21 537.44 354.76 495.44 529.54 673.23 495.15
00016301 00000033 383.42 104.89 466.98 558.83 464.80 329.82 671.93 288.82 530.78 357.49 490.08 532.08 665.04 496.95
00016302 00000034 381.32 96.02 467.63 570.22 453.61 338.08 653.54 297.10 520.86 366.17 484.81 528.36 656.42 494.96
00016303 00000035 371.33 98.11 471.74 568.65 442.65 341.22 645.81 300.50 514.32 370.79 476.04 530.29 651.09 498.07
00016304 00000036 365.23 95.37 476.05 574.37 434.79 342.01 639.66 300.08 506.34 371.03 469.38 532.11 645.54 498.98
00016305 00000037 362.90 97.75 473.93 572.04 431.29 343.47 637.22 299.88 504.06 369.95 467.34 533.68 641.07 499.23
00016306 00000038 361.65 97.27 476.60 582.34 434.80 342.58 636.90 298.88 506.82 370.82 471.12 535.45 640.02 500.56
00016307 00000039 365.73 98.27 474.75 587.37 438.95 343.41 640.78 297.27 513.02 367.18 477.23 538.85 647.37 501.32
00016308 00000040 370.87 103.37 470.71 572.78 447.06 342.80 647.31 299.67 521.71 364.64 484.80 531.90 650.78 497.06
00016309 00000041 370.01 104.38 477.07 564.40 462.12 340.35 665.66 294.65 539.36 363.98 496.94 537.73 666.34 497.89
00016310 00000042 376.00 109.91 472.29 555.55 469.94 337.80 673.44 294.07 550.33 368.10 506.36 532.50 676.10 494.80
00016311 00000043 383.44 109.57 468.08 556.78 479.95 332.11 680.14 293.74 563.61 368.80 519.41 527.70 689.80 494.36
00016312 00000044 390.85 109.72 464.93 554.79 490.31 329.81 690.75 296.61 578.94 369.57 533.75 526.32 704.75 497.04
00016313 00000045 393.33 112.63 468.91 556.18 496.13 325.83 703.53 298.31 590.87 367.63 542.73 525.42 717.70 500.73
00016314 00000046 395.66 110.86 468.06 564.45 502.08 325.08 708.21 300.96 600.35 368.37 548.09 528.62 718.88 506.95
00016315 00000047 396.15 104.44 470.84 582.75 504.41 327.27 712.41 299.68 606.91 371.48 553.87 537.39 726.77 512.45
00016316 00000048 393.73 103.32 472.51 592.82 508.03 329.53 714.87 299.15 615.92 375.99 560.54 543.60 733.43 516.46
00016317 00000049 388.53 102.34 476.43 594.50 511.65 338.88 716.90 304.91 628.87 387.17 569.66 546.98 741.27 517.05
00016318 00000050 383.05 102.69 481.68 591.99 513.33 345.31 717.86 307.71 637.72 393.01 578.36 550.20 746.99 517.52
00016319 00000051 380.41 111.82 482.36 588.50 524.60 357.94 716.95 311.64 650.70 401.79 594.12 563.72 752.49 521.50
00016320 00000052 373.17 108.82 489.60 600.48 522.87 368.16 713.75 316.09 654.26 408.43 597.90 571.36 755.97 524.79
00016321 00000053 369.68 111.43 491.77 605.05 520.03 374.89 711.57 320.06 653.98 416.67 598.95 578.71 757.10 529.91
00016322 00000054 367.98 113.61 495.63 613.12 517.96 378.03 708.40 318.01 654.26 422.54 601.79 585.68 759.73 532.82
00016323 00000055 367.92 110.03 499.81 628.82 519.49 377.48 711.61 317.10 658.72 424.22 604.01 591.00 763.56 537.81
00016324 00000056 375.50 104.02 495.33 645.31 527.60 368.32 717.68 319.97 667.15 426.18 606.29 587.02 772.87 545.06
00016325 00000057 384.25 100.82 490.39 656.54 535.51 368.81 722.59 320.82 674.48 426.34 616.87 591.74 779.40 550.81
00016326 00000058 392.23 104.59 488.36 645.53 542.94 369.25 732.86 325.52 680.85 425.69 622.02 590.28 783.10 554.10
00016327 00000059 401.23 100.18 481.63 620.72 550.11 369.24 745.87 323.07 689.79 424.66 627.00 580.33 790.34 542.76
00016328 00000060 408.91 101.78 474.02 607.98 552.61 366.21 753.18 320.50 693.71 423.17 627.93 572.90 796.52 535.71
00016329 00000061 409.14 100.92 473.17 606.10 555.36 361.51 749.92 320.03 691.19 417.11 629.31 567.98 788.03 534.32
00016330 00000062 395.97 100.99 481.97 618.65 550.63 353.68 738.39 318.50 684.75 405.59 623.46 568.90 773.26 539.74
00016331 00000063 384.90 104.84 489.38 610.42 537.40 354.34 736.68 309.14 681.75 404.87 616.66 578.32 772.42 536.88
00016332 00000064 381.29 109.47 484.38 599.41 532.84 355.57 728.74 310.73 671.72 406.22 606.97 571.08 765.59 529.73
00016333 00000065 376.14 112.89 481.82 586.59 527.76 355.76 721.67 308.69 663.29 406.89 601.56 566.50 760.57 523.31
00016334 00000066 368.62 106.14 473.56 584.32 519.00 360.37 709.23 306.75 654.46 400.62 594.87 562.92 752.18 514.90
00016335 00000067 361.18 113.73 473.47 576.54 509.12 359.24 697.03 298.87 645.58 396.88 589.44 562.86 746.28 509.91
00016336 00000068 353.81 100.45 483.43 590.73 493.59 355.16 690.65 295.24 633.09 389.56 577.84 552.68 744.64 502.28
00016337 00000069 351.00 100.84 476.50 582.63 489.56 355.20 683.89 296.56 627.56 386.44 573.11 548.31 737.70 498.99
00016338 00000070 349.48 103.70 476.33 575.89 486.07 354.55 681.12 295.40 623.15 383.46 569.53 545.96 734.78 496.11
00016339 00000071 348.51 102.42 474.63 573.29 485.31 351.88 679.82 292.83 623.13 377.60 568.69 543.05 733.69 493.05
00016340 00000072 349.28 103.93 476.06 566.38 489.04 349.30 684.27 290.11 628.34 373.09 573.40 540.76 736.90 490.44
00016341 00000073 354.62 105.13 473.51 563.15 490.09 344.94 690.38 287.71 628.62 371.27 573.98 540.66 740.45 491.86
00016342 00000074 357.18 107.00 475.10 560.07 493.74 343.51 694.23 287.12 633.21 369.48 577.42 539.16 745.30 491.32
00016343 00000075 361.86 102.79 477.43 564.53 499.91 343.81 699.70 287.48 639.39 366.20 584.53 538.53 751.81 490.38
00016344 00000076 363.69 104.27 480.72 563.51 507.70 342.13 704.35 289.14 647.39 366.27 589.31 535.97 754.08 490.80
00016345 00000077 368.87 104.41 483.09 565.97 513.62 342.24 711.81 294.45 653.37 364.95 592.32 536.38 758.73 495.16
00016346 00000078 372.29 108.07 485.09 567.40 519.64 340.48 717.23 294.20 660.27 369.62 597.72 535.62 764.97 495.28
00016347 00000079 374.66 104.20 484.93 578.40 521.90 342.17 721.86 295.04 664.11 374.75 598.62 541.31 767.28 500.65
00016348 00000080 381.38 102.45 481.53 583.04 525.89 345.86 727.64 297.71 669.35 384.24 601.89 546.35 771.46 505.23
00016349 00000081 382.25 99.61 480.06 590.96 529.45 351.20 730.75 304.94 675.73 391.64 605.11 552.08 774.18 513.14
00016350 00000082 382.65 105.71 480.29 591.70 538.63 360.64 735.54 314.40 683.74 402.65 615.32 566.80 777.15 523.85
00016351 00000083 385.07 110.95 482.41 592.78 539.20 370.43 732.89 321.28 680.99 416.73 615.97 576.36 773.72 531.25
00016352 00000084 385.27 114.52 485.68 607.54 538.51 376.18 732.46 322.95 682.88 430.62 619.26 590.46 774.99 542.55
00016353 00000085 389.48 110.58 481.43 623.47 539.82 375.02 730.13 331.06 677.74 437.87 617.22 586.88 776.16 549.43
00016354 00000086 386.91 110.03 484.47 631.28 537.83 375.83 728.65 331.85 675.49 441.24 615.18 590.18 775.23 552.74
00016355 00000087 386.95 111.51 483.54 638.93 538.67 373.54 727.94 331.23 676.30 440.63 614.64 591.88 775.24 555.89
00016356 00000088 387.92 108.83 481.34 644.69 539.32 370.56 726.98 329.51 676.84 438.53 614.04 592.67 774.62 558.05
00016357 00000089 387.41 105.97 481.66 643.31 538.45 368.56 725.77 327.59 674.65 435.99 612.64 590.58 772.29 555.99
00016358 00000090 386.35 105.36 482.70 633.90 536.93 368.47 725.56 325.96 673.02 434.81 611.86 587.33 770.51 551.43
00016359 00000091 387.03 104.83 482.15 627.95 534.33 367.46 725.53 323.26 670.81 433.43 608.89 583.92 771.14 546.24
00016360 00000092 388.12 104.40 481.68 624.99 534.82 366.89 726.24 323.36 669.90 433.49 608.27 582.31 769.45 545.27
00016361 00000093 388.82 103.45 481.78 627.57 535.55 367.00 726.46 323.86 670.23 434.61 608.46 582.83 769.92 546.22
00016362 00000094 390.14 104.72 480.92 628.44 536.84 366.92 727.36 325.51 670.07 436.49 608.61 583.68 768.84 548.68
00016363 00000095 390.65 105.29 480.85 628.39 536.62 366.70 727.84 325.41 669.97 437.16 608.18 583.87 769.41 548.98
00016364 00000096 390.66 105.61 480.48 627.35 536.87 366.29 727.45 325.41 669.99 436.25 608.78 583.68 768.56 549.15
00016365 00000097 389.37 106.55 480.69 626.69 536.45 365.45 727.02 325.60 669.80 433.44 607.11 582.70 767.21 549.07
00016366 00000098 384.61 111.93 487.85 620.06 534.13 369.19 731.29 321.48 674.32 432.17 611.34 591.76 768.08 548.71
00016367 00000099 382.59 110.54 487.90 621.52 532.60 368.96 729.63 322.20 672.54 431.93 610.26 592.18 766.48 549.88
00016368 00000100 381.49 113.36 485.62 615.67 529.58 369.19 727.00 323.85 667.95 431.68 605.57 589.13 763.54 548.11
00016369 00000101 379.00 115.01 483.00 612.63 525.00 369.81 721.32 323.33 661.71 429.32 599.93 587.42 759.28 545.55
00016370 00000102 374.72 116.23 484.43 608.52 521.87 370.06 718.03 323.39 657.68 427.16 596.50 585.70 757.06 543.48
00016371 00000103 372.48 110.46 485.44 610.20 521.20 370.39 715.11 322.65 655.86 424.35 595.81 582.91 755.04 539.89
00016372 00000104 372.66 108.75 483.23 606.50 520.73 369.00 713.30 319.07 655.25 419.27 597.00 580.71 754.14 535.96
00016373 00000105 372.68 108.43 482.00 604.44 522.27 366.80 711.10 316.16 655.92 411.21 597.79 576.39 752.08 531.58
00016374 00000106 374.23 109.39 480.25 599.84 525.71 362.78 710.42 311.02 658.49 406.99 603.42 573.02 750.88 527.21
00016375 00000107 376.86 112.89 480.45 596.61 527.71 360.30 714.07 308.83 661.25 407.58 605.59 572.70 754.82 526.91
00016376 00000108 379.64 109.27 482.37 601.78 529.96 359.23 719.13 308.87 665.73 408.54 607.80 574.27 758.65 529.32
00016377 00000109 381.20 106.06 487.47 610.49 533.75 360.84 725.99 311.70 672.28 412.21 612.54 579.79 763.80 535.55
00016378 00000110 387.07 98.70 481.24 629.80 539.30 361.86 725.35 321.22 673.79 419.51 611.79 578.26 766.56 543.83
00016379 00000111 387.20 106.30 481.15 643.48 540.83 372.41 724.04 330.94 675.96 438.74 617.72 594.71 769.88 559.99
00016380 00000112 376.17 121.64 485.27 650.37 529.36 396.48 719.88 346.15 673.69 460.18 608.07 617.29 763.55 574.48
00016381 DELETE   371.54 135.43 484.19 652.20 516.80 416.42 707.57 364.44 659.43 487.58 596.62 633.64 759.45 590.72
00016382 00000114 362.42 138.76 488.16 664.17 501.24 436.23 694.57 381.46 639.49 521.22 580.99 654.29 748.83 610.09
00016383 00000115 353.83 141.76 495.59 675.76 493.74 446.33 688.71 391.00 630.54 536.05 573.50 665.68 744.46 620.70
00016384 00000116 348.90 142.98 498.28 674.48 489.58 453.08 683.82 399.95 624.82 546.23 569.87 668.63 739.05 625.06
00016385 00000117 351.69 141.55 495.59 670.37 490.65 451.04 683.29 397.17 624.05 543.07 568.75 664.26 738.09 620.42
00016386 00000118 356.81 138.19 497.79 665.21 494.17 442.41 689.11 388.97 625.79 532.87 572.96 656.58 741.43 613.20
00016387 00000119 362.75 134.32 491.51 657.46 502.75 433.62 695.52 381.35 637.58 520.58 580.32 646.73 745.62 604.28
00016388 00000120 372.15 113.26 491.66 677.19 521.81 418.41 714.55 367.30 660.99 491.12 592.92 633.54 762.73 589.80
CROP_BBOX: 74 0 1185 1035
