Video ID: 	uTeyoMGjTcg
H: 	1080
W: 	1920
FPS: 	25.0

FRAME INDEX X0 Y0 W H [Landmarks (5 Points)]

00003558 00000000 690.77 264.56 403.32 557.60 778.05 508.94 937.74 522.68 841.47 616.99 796.73 689.26 920.02 699.92
00003559 00000001 693.04 264.20 403.05 557.20 779.97 507.41 939.10 522.14 842.15 615.88 798.45 688.15 921.32 699.47
00003560 00000002 692.21 262.84 402.73 554.40 778.59 505.25 939.88 520.23 841.52 613.96 794.45 685.29 920.31 696.91
00003561 00000003 692.51 264.40 402.58 550.04 778.27 504.94 939.14 519.93 841.20 613.50 794.54 682.85 920.47 694.42
00003562 00000004 693.55 264.46 402.28 551.00 781.08 506.05 939.79 521.12 842.88 612.98 795.72 682.74 919.98 694.35
00003563 00000005 695.40 263.81 401.37 553.57 783.14 505.77 941.74 521.44 844.00 612.82 796.08 684.40 919.36 696.52
00003564 00000006 695.63 264.75 401.84 554.99 783.71 506.16 941.96 522.02 844.78 613.51 796.07 684.44 919.32 696.73
00003565 00000007 695.33 268.26 399.46 549.72 793.00 507.52 957.40 527.12 854.32 609.96 796.36 684.04 925.73 700.76
00003566 00000008 701.01 268.12 401.25 555.02 791.23 506.94 952.48 521.87 857.39 613.43 803.89 683.93 931.31 695.24
00003567 00000009 700.73 267.59 401.82 557.54 790.82 506.39 952.68 521.07 856.97 613.13 804.56 683.16 931.96 693.99
00003568 00000010 702.90 269.27 396.92 552.49 800.05 506.34 959.54 523.20 862.79 608.52 809.95 682.84 936.25 697.67
00003569 00000011 709.90 265.83 395.58 557.36 803.26 506.63 966.45 522.02 865.72 611.09 812.26 684.30 943.56 697.75
00003570 DELETE   713.32 270.03 391.14 551.09 804.86 507.66 971.23 524.96 867.48 612.95 809.00 684.34 943.77 699.67
00003571 DELETE   711.71 269.59 392.88 549.09 805.00 507.17 969.61 524.85 867.39 611.86 809.50 683.52 940.70 698.99
00003572 00000014 714.22 269.42 391.16 550.56 807.87 506.20 969.84 522.74 870.71 610.28 815.25 683.23 944.38 697.68
00003573 00000015 714.39 271.20 391.04 545.83 807.41 507.61 970.29 522.94 871.07 611.02 815.77 682.91 945.85 696.30
00003574 00000016 716.23 270.01 391.14 548.58 807.53 509.73 971.55 525.23 870.48 611.59 815.12 683.71 947.32 697.15
00003575 00000017 712.08 271.13 394.43 547.51 804.61 510.10 970.09 524.57 868.43 611.52 811.90 683.33 946.10 695.89
00003576 00000018 709.90 271.58 394.37 546.68 802.13 508.83 968.76 525.72 864.99 611.32 806.07 680.73 942.48 695.22
00003577 00000019 709.70 270.89 395.14 547.69 802.28 510.15 968.18 526.92 863.98 610.76 806.50 680.87 941.85 695.17
00003578 00000020 710.48 271.51 395.31 549.43 802.87 510.09 966.98 526.36 864.04 611.58 808.27 682.09 942.01 696.08
00003579 00000021 710.44 271.22 394.56 552.59 803.46 508.29 965.61 525.66 864.04 611.17 809.53 684.56 939.58 699.64
00003580 00000022 710.97 269.54 392.94 552.86 803.31 507.52 966.19 525.75 863.84 613.22 808.12 685.99 938.19 701.86
00003581 00000023 710.68 271.53 392.87 549.71 803.23 507.97 965.78 528.28 862.53 614.17 805.69 686.61 933.12 704.43
00003582 00000024 710.53 267.84 393.10 557.31 804.19 509.39 964.33 530.08 862.88 615.05 807.81 688.61 933.24 706.72
00003583 00000025 710.49 267.50 392.85 558.96 803.71 508.93 964.12 529.99 861.85 615.62 807.09 688.81 933.36 707.24
00003584 00000026 710.03 266.74 393.67 561.73 803.34 506.61 964.64 528.54 861.39 615.04 805.75 688.70 933.09 707.93
00003585 00000027 710.80 270.89 392.69 561.35 803.13 509.11 963.22 530.00 860.52 616.72 806.76 689.88 934.96 708.31
00003586 00000028 711.75 270.47 391.27 564.01 802.95 511.90 962.43 531.97 860.32 616.85 806.90 690.47 936.28 708.15
00003587 00000029 712.44 270.35 391.19 561.59 804.01 511.29 962.98 531.08 861.54 616.40 808.62 689.71 936.95 707.14
00003588 00000030 711.87 275.02 391.64 556.27 803.14 512.50 964.41 530.68 862.10 618.39 808.56 690.49 939.69 706.47
00003589 00000031 712.19 274.28 392.51 556.58 802.69 511.57 965.80 528.89 862.11 619.10 808.37 691.76 940.15 707.19
00003590 00000032 713.11 275.79 392.14 555.04 803.60 511.48 966.04 529.73 862.12 619.85 809.09 691.64 940.04 707.87
00003591 00000033 714.41 273.44 391.80 555.74 804.83 510.24 966.49 528.80 862.86 619.13 810.34 691.75 938.77 708.31
00003592 00000034 716.17 271.06 390.48 555.52 804.79 509.49 967.51 527.99 863.55 619.71 809.96 691.48 939.51 707.73
00003593 00000035 717.63 272.49 389.83 553.61 806.17 508.25 968.21 528.02 863.56 617.77 810.27 689.97 938.87 707.41
00003594 00000036 717.44 273.15 390.39 560.76 806.01 509.04 967.44 528.01 863.70 617.15 811.41 690.95 942.69 707.72
00003595 00000037 717.65 273.99 391.35 560.31 806.31 510.35 967.92 529.17 863.45 617.39 811.13 691.11 942.83 707.75
00003596 00000038 716.96 274.53 391.02 561.08 805.96 510.19 967.53 529.86 862.75 618.19 809.95 691.15 942.07 708.54
00003597 00000039 716.31 273.00 391.18 560.83 805.48 510.91 967.09 529.41 863.41 618.57 811.23 691.01 942.79 707.36
00003598 00000040 716.16 273.04 391.25 557.13 805.65 510.31 967.38 529.51 863.43 618.44 810.38 690.12 941.23 707.10
00003599 00000041 715.03 274.39 391.90 550.71 804.79 510.29 968.37 529.65 863.80 618.65 808.28 689.58 939.17 706.57
00003600 00000042 715.81 272.59 391.53 547.43 804.69 510.54 968.18 529.20 864.12 618.29 809.14 688.04 939.81 704.13
00003601 00000043 715.32 273.87 392.39 542.66 804.25 508.91 967.68 527.81 862.78 616.78 807.38 687.20 936.32 703.61
00003602 00000044 714.62 270.91 391.89 544.88 804.44 507.89 966.75 527.18 862.94 616.36 807.12 687.07 934.19 703.89
00003603 00000045 713.67 269.08 392.15 543.51 803.74 507.01 965.56 525.76 863.04 613.44 807.98 685.92 933.40 702.20
00003604 00000046 713.25 267.35 393.05 545.24 802.79 505.27 965.17 524.65 861.52 611.67 806.19 684.49 932.59 701.15
00003605 00000047 712.95 263.86 393.16 546.88 802.21 502.91 966.13 522.09 861.73 608.72 804.69 681.74 933.31 698.31
00003606 00000048 712.10 266.35 392.57 541.52 803.08 501.23 966.29 520.05 862.65 606.01 805.45 680.50 931.53 696.93
00003607 00000049 712.06 265.78 392.70 543.40 803.51 501.23 966.10 520.43 863.23 606.10 805.94 681.24 931.42 698.00
00003608 00000050 713.79 265.19 392.80 545.98 802.64 504.03 966.90 523.31 861.67 610.31 805.08 683.27 933.90 699.86
00003609 00000051 714.19 267.09 391.95 545.21 803.45 505.69 966.92 525.23 862.20 612.04 805.59 684.67 933.82 701.50
00003610 00000052 714.15 267.12 392.37 542.73 803.05 503.44 965.36 523.21 860.98 608.78 805.50 681.84 931.57 699.00
00003611 00000053 712.62 257.73 393.19 546.47 803.71 496.23 963.89 516.52 861.71 599.88 805.71 675.35 929.12 692.91
00003612 00000054 713.26 254.20 392.53 546.40 803.59 494.24 963.67 514.35 861.75 595.99 805.89 672.46 929.53 689.80
00003613 00000055 713.31 258.05 393.10 543.22 804.18 494.37 964.26 514.52 862.12 595.70 806.55 672.51 929.71 690.01
00003614 00000056 713.73 260.00 394.26 546.25 804.00 498.04 963.98 517.25 860.92 600.81 806.35 677.56 929.09 694.27
00003615 00000057 714.27 258.50 393.60 547.95 804.16 498.39 965.26 517.64 861.53 601.23 806.30 677.10 930.78 693.85
00003616 00000058 713.56 254.87 393.91 551.49 804.55 496.17 965.42 516.35 862.62 599.74 807.04 675.41 932.39 692.92
00003617 00000059 714.08 255.30 393.64 551.99 804.05 497.29 965.82 517.42 861.90 601.11 806.09 676.18 932.52 693.52
00003618 00000060 714.56 259.06 393.16 548.55 803.59 499.08 966.49 518.82 861.82 602.01 805.75 677.74 932.52 694.92
00003619 00000061 713.35 262.04 392.98 546.72 802.56 500.95 965.06 519.99 859.71 601.66 804.89 678.50 931.27 695.10
00003620 00000062 712.14 257.26 394.16 549.60 802.05 496.62 964.93 516.06 860.76 599.40 804.70 676.41 930.80 693.45
00003621 00000063 711.95 258.04 392.72 548.43 802.92 497.15 963.37 516.81 860.82 599.77 805.57 676.27 929.17 693.44
00003622 00000064 712.50 262.05 392.95 545.77 801.94 499.09 963.60 517.89 859.47 601.00 804.40 677.41 929.83 693.76
00003623 00000065 712.45 265.44 393.37 543.21 802.17 500.13 964.27 518.59 860.14 601.59 805.10 678.36 930.27 694.53
00003624 00000066 712.48 260.78 393.69 544.75 802.34 498.21 963.53 516.85 860.12 599.61 805.13 676.50 929.67 692.78
00003625 00000067 711.72 259.21 393.73 546.10 803.01 496.05 963.96 515.07 861.54 598.80 805.67 675.70 930.36 692.33
00003626 00000068 712.60 257.80 394.04 549.89 803.28 498.32 964.80 516.97 862.00 601.09 806.59 677.63 932.55 693.70
00003627 00000069 713.45 258.11 394.32 553.20 803.65 501.83 966.35 519.62 863.62 605.19 808.15 681.08 935.52 696.46
00003628 00000070 714.77 259.33 393.02 551.29 805.72 501.27 969.38 518.69 867.41 607.12 811.60 681.84 939.48 697.04
00003629 DELETE   716.76 260.20 393.46 553.17 808.39 501.94 972.69 518.97 870.63 607.34 815.29 682.42 944.41 697.18
00003630 00000072 719.06 261.75 391.75 553.10 811.79 503.34 976.04 518.17 877.06 607.90 821.92 684.29 951.63 697.31
00003631 00000073 720.67 263.05 392.35 552.39 816.66 505.95 979.99 520.79 883.20 608.84 828.13 685.13 957.13 697.93
00003632 DELETE   720.41 259.76 396.05 556.56 820.53 506.75 984.81 520.07 890.77 607.80 835.16 686.32 964.57 697.55
00003633 00000075 720.85 262.09 397.71 554.48 823.56 507.34 988.32 519.12 895.91 608.26 839.50 686.35 969.57 696.22
00003634 00000076 720.63 262.99 399.16 555.63 826.55 507.49 991.97 519.44 900.33 612.84 842.75 687.54 973.06 697.48
00003635 00000077 722.16 262.99 399.81 557.75 831.53 511.67 994.15 522.29 906.24 615.34 848.27 689.90 975.99 698.68
00003636 DELETE   724.52 262.47 398.75 560.02 836.29 514.67 998.21 524.23 913.67 616.76 853.33 692.01 980.75 699.60
00003637 00000079 725.40 262.05 399.07 559.29 837.91 515.32 1000.20 524.09 915.94 617.47 855.24 692.18 983.10 699.03
00003638 00000080 725.67 261.07 398.92 559.91 838.34 515.21 1000.58 524.48 916.12 617.00 855.23 691.78 983.12 698.95
00003639 00000081 726.09 265.50 399.22 555.73 839.39 516.04 1000.95 526.39 916.33 618.02 855.02 692.21 981.79 700.47
00003640 00000082 725.99 267.16 398.81 556.43 839.73 516.98 1000.77 527.84 916.38 621.56 854.73 694.39 980.63 703.25
00003641 00000083 725.68 267.28 398.16 556.15 836.11 515.96 997.12 528.19 910.22 620.72 850.80 694.28 976.03 704.38
00003642 00000084 723.49 270.31 398.34 550.20 831.88 513.60 993.10 526.13 903.86 616.39 845.67 690.95 970.32 701.66
00003643 00000085 721.14 267.34 399.69 549.18 825.96 501.97 993.46 514.83 897.82 609.24 838.96 686.21 968.16 697.56
00003644 00000086 721.78 259.04 401.18 555.64 822.65 499.39 990.40 511.68 894.59 607.67 835.48 685.59 967.18 696.15
00003645 00000087 721.46 254.15 402.81 559.73 821.31 493.69 990.56 508.03 892.32 606.58 833.09 684.41 965.13 696.63
00003646 00000088 721.33 253.84 402.25 560.22 821.72 491.42 991.00 506.08 892.24 604.29 831.99 683.28 963.76 695.91
00003647 00000089 722.34 253.05 401.15 558.81 821.40 487.80 990.96 502.58 892.09 602.21 831.41 681.81 962.10 694.81
00003648 00000090 722.65 251.70 400.59 560.85 821.74 486.32 989.69 500.81 891.02 600.68 830.40 680.62 960.07 693.48
00003649 00000091 723.15 254.10 399.32 559.33 821.81 485.19 990.08 499.54 891.20 599.61 830.36 680.34 959.77 693.18
00003650 00000092 724.02 252.45 399.22 560.74 822.71 484.57 989.77 497.06 892.21 598.29 832.47 679.88 961.12 691.13
00003651 00000093 724.50 248.63 398.87 564.06 824.01 482.45 990.63 493.84 894.17 595.13 833.69 677.97 962.84 688.17
00003652 00000094 724.03 246.39 399.18 564.63 824.50 479.96 988.93 491.31 894.14 590.35 833.64 675.14 960.45 685.37
00003653 00000095 723.27 242.66 400.32 566.19 823.72 477.87 988.27 487.99 894.31 585.62 834.12 673.05 961.44 682.04
00003654 00000096 724.03 243.80 400.41 561.97 823.86 475.27 988.39 484.43 893.73 582.70 834.51 670.56 961.52 678.82
00003655 00000097 723.88 241.91 400.96 557.46 822.83 468.92 986.53 480.32 890.60 577.32 831.63 663.95 957.33 673.77
00003656 00000098 724.09 237.98 399.20 556.37 819.91 462.91 984.02 474.51 887.29 568.60 828.78 657.89 955.16 667.96
00003657 00000099 725.67 230.97 399.55 556.67 818.52 457.67 984.58 470.15 885.68 564.10 828.30 651.55 955.95 662.08
00003658 00000100 726.70 232.24 399.47 546.00 818.61 450.95 986.53 462.94 885.75 557.03 828.40 646.46 954.38 656.72
00003659 00000101 728.00 219.31 401.10 555.83 818.28 444.31 988.54 455.04 887.73 548.13 831.62 641.21 958.98 650.10
00003660 00000102 729.60 211.07 400.31 562.83 822.54 441.68 991.09 454.30 891.79 546.22 834.14 638.63 961.81 648.98
00003661 00000103 731.33 213.12 399.87 562.70 824.10 442.38 993.50 455.22 893.13 547.63 835.23 640.61 963.48 651.12
00003662 00000104 731.78 213.95 399.98 565.42 824.42 446.76 992.93 458.97 893.34 551.94 836.16 643.72 964.21 653.52
00003663 00000105 731.58 219.16 400.63 562.43 825.30 449.08 994.00 461.26 893.78 557.71 837.18 647.39 963.48 657.25
00003664 00000106 731.46 218.22 400.71 565.88 827.16 450.45 993.52 464.13 895.53 560.44 837.68 647.92 963.63 659.04
00003665 00000107 731.31 217.00 400.57 567.31 827.21 449.82 993.57 463.28 895.76 560.30 838.18 647.96 963.59 658.83
00003666 00000108 731.24 218.85 400.46 566.57 828.52 450.16 994.31 465.74 896.82 562.03 838.10 648.23 962.69 660.82
00003667 00000109 731.60 220.85 400.57 565.28 829.56 450.39 996.10 466.08 898.32 563.40 838.50 649.42 963.32 662.12
00003668 00000110 732.92 219.46 399.69 566.44 830.30 450.72 997.87 466.87 899.54 564.01 838.91 649.43 965.62 662.44
00003669 00000111 733.22 215.44 400.28 570.99 831.15 450.81 998.87 467.37 901.08 565.13 839.69 650.20 967.26 663.41
00003670 00000112 734.77 210.94 398.90 575.81 832.05 452.67 999.91 469.76 902.21 567.09 839.53 652.01 968.66 665.39
00003671 00000113 735.86 212.28 398.44 575.05 833.01 454.78 1000.73 472.08 903.15 568.61 840.43 653.46 970.35 666.94
00003672 00000114 735.21 212.03 399.50 575.93 832.94 455.22 1001.40 472.89 903.26 569.47 840.23 654.06 971.25 667.84
00003673 00000115 735.39 213.01 399.26 573.70 832.53 454.82 1001.58 471.46 903.51 568.58 840.28 653.79 971.88 666.78
00003674 00000116 735.22 213.88 399.38 571.16 833.10 452.77 1001.82 469.05 903.63 566.92 840.90 652.24 970.40 665.09
00003675 00000117 735.80 210.50 398.51 573.17 833.71 453.41 1002.11 469.45 905.29 566.18 841.72 652.09 971.67 664.65
00003676 00000118 737.08 207.48 396.58 572.53 833.99 452.10 1003.68 467.93 906.25 565.56 842.19 651.07 973.22 663.38
00003677 00000119 738.00 208.14 395.87 568.92 834.25 451.24 1004.73 467.54 906.57 564.42 841.95 650.05 973.49 662.77
00003678 00000120 737.76 210.33 396.59 561.20 834.28 446.23 1005.71 461.15 906.94 557.16 843.77 643.85 976.70 655.62
00003679 00000121 740.07 207.86 395.08 555.53 835.31 439.94 1009.33 454.14 909.06 546.81 845.10 637.07 979.71 648.54
00003680 00000122 739.18 201.71 400.74 553.82 833.23 431.95 1010.15 446.71 906.00 534.18 843.59 626.38 981.42 637.94
00003681 00000123 740.51 196.31 401.62 546.53 842.31 425.12 1015.02 440.95 909.01 528.84 851.95 613.82 984.32 627.56
00003682 00000124 746.13 195.44 401.19 545.51 845.79 415.85 1022.46 431.67 915.56 524.87 851.90 612.63 982.91 626.52
00003683 00000125 748.32 192.47 402.34 547.01 848.56 415.83 1025.40 432.38 918.45 523.39 854.48 611.64 985.74 625.99
00003684 00000126 750.23 189.24 403.22 552.13 852.12 418.43 1026.47 436.82 920.66 523.77 857.29 612.08 987.70 627.85
00003685 00000127 750.22 187.57 407.09 557.77 855.71 419.95 1029.19 441.76 922.05 525.38 857.36 613.04 988.42 631.68
00003686 00000128 751.21 190.77 407.32 554.91 857.54 422.02 1029.20 444.21 922.33 526.77 858.82 615.00 987.41 634.04
00003687 00000129 752.49 189.00 410.07 557.35 861.02 422.22 1031.43 445.53 924.83 526.82 860.84 613.54 988.21 633.53
00003688 00000130 754.72 187.82 409.09 559.89 864.36 422.24 1032.68 445.29 928.07 525.94 864.33 611.33 989.94 631.39
00003689 00000131 756.87 185.08 409.13 562.61 868.28 419.85 1037.16 444.17 933.11 524.44 867.42 608.27 993.73 629.37
00003690 00000132 757.75 187.46 411.06 562.46 872.52 418.51 1040.22 442.21 939.58 524.82 872.31 609.47 996.48 630.31
00003691 00000133 762.52 185.63 409.63 567.11 876.99 417.63 1044.27 442.47 943.96 524.67 876.04 610.27 1001.47 631.92
00003692 DELETE   772.45 203.37 406.20 560.22 876.21 426.39 1043.50 446.34 947.60 528.12 878.71 620.51 1003.64 637.46
00003693 DELETE   778.66 220.82 402.96 557.57 883.02 432.59 1050.30 455.18 952.89 535.39 881.79 630.46 1006.47 649.73
00003694 DELETE   781.45 219.70 402.56 568.16 887.18 443.12 1053.64 468.35 956.30 554.42 885.59 642.83 1010.32 664.50
00003695 00000137 783.19 222.74 405.94 574.13 890.85 456.34 1055.64 479.96 959.72 565.12 889.49 653.87 1015.85 673.66
00003696 00000138 785.34 230.70 405.47 570.31 896.19 461.59 1058.22 488.49 961.44 573.29 890.51 658.19 1016.05 680.76
00003697 00000139 785.84 234.29 403.93 564.39 899.06 465.06 1064.66 491.57 966.96 577.64 892.63 661.54 1020.92 683.72
00003698 00000140 788.58 233.12 404.64 562.86 902.21 465.84 1069.08 492.97 970.58 580.67 896.06 661.27 1025.06 683.95
00003699 DELETE   789.55 241.64 405.66 552.57 906.33 471.42 1071.20 498.97 973.32 581.08 899.41 660.27 1027.73 683.32
00003700 00000142 790.98 242.22 403.86 553.14 907.77 474.90 1071.09 502.78 974.66 582.51 901.03 661.75 1028.26 685.16
00003701 00000143 789.06 244.20 403.65 552.40 905.81 474.01 1070.58 502.52 973.19 582.33 899.54 662.17 1027.50 686.08
00003702 00000144 788.14 237.25 405.58 559.76 903.67 469.86 1069.08 498.36 970.83 580.53 897.14 661.23 1025.36 684.96
00003703 00000145 786.31 233.06 405.20 563.18 900.07 465.85 1062.64 492.58 967.19 574.86 893.62 657.71 1021.08 680.06
00003704 00000146 785.73 221.86 406.91 572.24 895.34 459.97 1058.99 487.00 962.21 569.74 888.99 653.13 1020.03 675.52
00003705 00000147 784.09 219.33 406.85 574.75 892.75 458.24 1056.15 485.96 959.51 566.98 885.70 649.35 1018.57 672.13
00003706 00000148 779.92 218.95 408.32 571.78 887.52 458.46 1053.62 484.63 956.34 566.48 882.83 648.61 1016.99 669.91
00003707 00000149 776.62 219.18 406.45 571.36 884.76 459.22 1048.24 486.66 953.12 568.10 880.00 646.84 1013.37 669.00
00003708 00000150 774.40 215.88 407.18 577.28 881.88 458.76 1044.69 486.71 949.59 567.13 876.61 647.49 1009.76 669.88
00003709 00000151 772.43 214.59 406.97 580.10 880.56 459.43 1041.53 487.39 946.80 568.04 876.53 649.40 1001.88 672.15
00003710 00000152 774.53 211.28 402.64 572.14 879.41 455.03 1041.79 484.17 936.60 567.72 870.72 638.98 997.29 665.13
00003711 00000153 772.50 212.39 402.05 571.49 878.40 453.57 1041.74 483.88 936.24 566.74 868.16 638.94 995.70 666.09
00003712 00000154 771.08 212.18 404.64 572.53 876.43 453.53 1041.59 482.68 934.69 566.14 867.01 639.11 996.32 665.35
00003713 00000155 767.46 219.56 406.34 574.36 876.50 454.38 1039.98 482.41 943.26 562.85 870.45 645.87 998.21 669.12
00003714 00000156 766.98 219.23 405.61 574.38 876.06 454.56 1039.84 482.15 943.77 563.59 870.85 646.34 998.10 669.35
00003715 00000157 767.00 219.72 405.39 577.61 876.44 454.91 1039.37 483.15 943.60 564.68 870.84 647.58 998.07 671.06
00003716 00000158 765.07 221.45 407.74 577.94 875.04 457.44 1038.34 484.55 942.21 568.24 869.76 652.44 995.18 674.88
00003717 00000159 764.80 222.30 407.05 577.19 874.72 457.98 1038.06 484.92 943.00 569.62 870.25 653.69 994.73 676.03
00003718 00000160 764.92 224.88 406.92 570.47 874.93 459.73 1037.97 485.57 944.08 571.07 870.74 652.64 996.81 674.08
00003719 00000161 768.16 218.63 407.71 562.53 875.94 456.03 1042.74 484.95 936.91 570.09 867.28 642.30 994.03 668.54
00003720 00000162 767.43 214.90 409.32 567.68 875.97 456.50 1043.24 484.76 937.49 570.58 867.71 641.61 996.44 667.09
00003721 00000163 766.31 221.69 410.13 574.10 876.88 458.45 1041.47 485.57 945.14 570.74 872.61 651.59 999.74 673.90
00003722 00000164 768.31 222.47 410.05 573.11 877.88 459.75 1042.07 487.00 945.68 570.42 873.57 652.30 1000.75 674.63
00003723 00000165 772.59 218.51 406.42 563.40 879.20 458.12 1045.34 486.57 938.81 574.04 870.15 643.49 997.50 669.42
00003724 00000166 773.94 217.64 406.59 564.31 879.97 459.41 1046.02 487.46 939.30 575.20 871.31 643.66 999.60 669.17
00003725 00000167 773.22 227.99 408.47 565.97 881.62 461.33 1044.69 488.71 947.52 574.32 875.99 653.22 1004.00 675.96
00003726 00000168 773.70 234.27 409.43 569.56 886.88 459.09 1049.89 487.63 952.79 574.90 880.69 655.61 1005.57 679.44
00003727 00000169 777.90 233.01 408.61 567.41 891.65 461.75 1053.81 489.38 957.98 574.70 884.76 655.39 1012.01 678.41
