Video ID: 	8P6UF9gp-_M
H: 	1080
W: 	1920
FPS: 	29.97002997002997

FRAME INDEX X0 Y0 W H [Landmarks (5 Points)]

00042114 00000000 744.11 192.86 328.54 542.92 798.20 414.47 956.57 441.86 844.84 544.38 790.95 611.75 931.52 633.38
00042115 00000001 746.68 186.68 327.22 549.10 802.32 414.11 962.14 439.38 851.16 544.47 794.51 609.29 940.74 629.02
00042116 00000002 745.90 185.53 329.24 550.95 803.66 414.02 963.84 438.11 852.43 542.37 797.68 608.30 942.15 627.03
00042117 00000003 742.57 184.44 332.59 555.36 799.63 414.52 959.99 437.72 850.04 543.88 797.28 609.62 938.63 627.70
00042118 00000004 736.84 185.31 335.24 553.54 793.04 413.77 954.02 437.82 842.59 545.63 792.15 613.36 929.60 632.36
00042119 00000005 733.29 176.64 336.00 567.99 789.48 417.00 951.44 440.72 840.86 549.03 788.11 617.24 927.08 636.16
00042120 00000006 731.00 183.42 343.37 564.91 792.99 419.45 950.27 444.68 836.73 545.49 793.40 612.00 922.25 633.38
00042121 00000007 729.40 186.27 344.73 567.55 791.49 421.82 950.11 447.15 836.35 550.61 792.22 617.95 920.57 639.53
00042122 00000008 726.76 182.04 339.92 575.16 783.62 424.88 945.87 448.67 834.87 561.21 781.25 626.27 919.88 645.88
00042123 00000009 721.82 180.49 341.47 574.82 774.38 426.80 940.69 452.32 826.40 559.95 771.87 626.82 912.66 647.74
00042124 00000010 715.15 172.00 340.56 582.85 763.47 428.16 925.59 450.76 809.28 554.61 762.84 627.09 896.58 645.54
00042125 00000011 703.74 173.70 342.57 574.82 749.33 423.67 901.32 449.58 780.84 547.97 744.52 617.04 870.17 637.82
00042126 00000012 693.00 165.02 343.98 577.74 737.41 414.97 878.18 441.10 754.10 537.14 736.19 609.86 849.99 630.00
00042127 DELETE   687.56 159.99 341.75 576.55 714.80 405.64 863.80 433.16 726.80 536.66 726.19 606.61 844.34 629.51
00042128 00000014 682.52 160.95 343.97 575.11 720.24 400.28 856.75 429.90 724.35 529.09 727.09 601.34 848.30 624.09
00042129 00000015 679.22 158.91 341.81 574.42 718.29 397.81 845.95 426.61 714.64 525.48 726.14 598.38 839.79 620.76
00042130 00000016 678.67 164.93 341.23 564.44 716.17 398.33 839.53 426.36 710.12 524.13 726.24 597.42 835.80 619.12
00042131 00000017 677.69 166.54 341.11 561.13 715.29 398.88 835.79 426.23 708.14 524.45 727.49 596.74 834.42 617.75
00042132 00000018 678.39 170.49 340.34 555.03 715.77 399.43 835.92 426.75 708.26 524.49 728.77 596.47 835.40 617.34
00042133 00000019 684.56 168.72 340.57 555.92 710.61 410.15 837.44 429.30 703.44 524.89 731.66 597.46 832.35 613.93
00042134 00000020 686.19 162.51 339.61 561.24 710.59 406.29 839.78 427.87 703.70 525.83 732.39 597.08 833.41 615.80
00042135 00000021 689.11 158.19 339.22 562.69 711.09 401.69 841.79 425.76 704.27 525.53 732.32 596.10 833.09 617.18
00042136 00000022 691.26 158.09 339.90 559.48 711.18 399.13 844.18 425.32 703.96 525.34 731.56 596.35 833.33 619.59
00042137 00000023 693.14 156.77 338.93 558.88 711.87 398.23 846.17 424.69 705.38 524.17 730.32 597.31 833.00 621.14
00042138 00000024 694.57 160.71 339.77 553.80 713.22 399.89 847.34 426.33 707.18 525.66 730.51 599.49 832.80 623.40
00042139 00000025 696.41 159.91 338.87 554.79 715.09 402.57 847.51 426.90 708.65 524.76 732.43 602.09 831.48 624.29
00042140 00000026 697.91 159.62 340.02 555.48 716.77 403.34 850.10 427.64 709.58 526.56 734.59 604.23 834.32 626.27
00042141 00000027 699.86 160.92 339.56 554.16 718.86 402.54 850.97 426.81 711.87 527.01 736.88 605.38 833.35 627.46
00042142 00000028 700.96 162.55 343.63 553.41 723.57 403.70 854.51 428.58 715.69 528.11 742.04 605.33 836.77 627.45
00042143 00000029 704.12 166.27 341.49 554.39 730.17 404.46 859.03 427.90 721.06 527.36 748.68 606.02 840.91 626.74
00042144 00000030 705.81 174.24 342.10 549.18 735.23 406.77 861.79 429.52 727.30 532.72 757.07 606.97 849.18 626.21
00042145 00000031 711.82 170.74 335.83 564.01 746.49 411.82 867.31 437.53 744.23 530.82 757.21 610.40 850.56 630.24
00042146 00000032 716.71 178.54 344.23 561.41 749.56 424.69 875.11 447.92 752.47 542.81 762.69 626.00 861.75 643.78
00042147 00000033 722.46 195.76 343.76 543.40 758.67 431.47 877.03 459.83 756.74 554.31 770.04 627.45 869.14 648.46
00042148 00000034 729.42 190.98 343.49 554.94 763.66 435.20 878.75 464.27 762.21 559.10 777.25 632.86 874.57 654.17
00042149 00000035 733.79 182.40 345.95 564.25 767.36 429.87 885.77 458.60 767.34 554.75 784.91 629.46 877.84 650.95
00042150 00000036 742.40 184.24 350.96 561.56 783.18 423.31 899.86 447.01 774.73 549.76 799.92 625.06 885.43 642.59
00042151 00000037 750.12 170.10 350.57 568.51 786.30 413.89 907.68 447.40 785.98 544.39 799.97 613.80 899.51 639.48
00042152 00000038 753.26 171.76 347.61 562.61 789.56 407.22 919.21 443.16 796.93 542.01 801.39 606.50 910.84 634.21
00042153 00000039 758.87 166.17 349.81 565.35 787.16 405.08 930.58 440.68 790.53 544.74 803.86 603.08 912.81 632.08
00042154 00000040 765.60 162.78 349.54 568.15 796.58 401.90 942.18 439.38 801.55 548.91 810.50 603.88 927.49 633.85
00042155 00000041 779.01 163.90 346.80 570.97 813.88 418.04 955.65 446.44 830.79 544.55 811.82 608.73 931.52 631.49
00042156 DELETE   794.90 167.05 349.11 576.07 830.09 415.07 978.69 446.06 850.36 547.39 826.99 613.87 951.85 639.12
00042157 DELETE   809.79 179.42 353.34 568.78 851.76 412.75 1004.86 449.57 876.36 556.64 852.39 618.43 980.50 647.67
00042158 00000044 818.31 180.32 355.47 573.78 870.48 414.90 1026.81 443.83 899.59 550.03 866.23 617.41 990.54 640.06
00042159 00000045 825.27 171.19 352.77 583.96 879.28 410.74 1042.30 444.43 913.87 551.47 872.78 615.32 1006.81 642.78
00042160 00000046 830.65 162.85 354.36 588.67 884.18 409.87 1049.18 441.33 923.05 548.54 877.95 614.64 1012.66 640.03
00042161 00000047 832.70 167.98 355.02 583.89 888.09 408.57 1052.17 441.01 925.70 548.98 881.20 613.86 1014.47 639.92
00042162 00000048 834.96 166.85 354.88 587.12 892.17 410.63 1056.40 443.10 930.22 549.44 884.44 613.48 1018.38 639.34
00042163 00000049 835.92 170.21 357.56 585.39 896.55 410.47 1063.46 447.26 935.06 552.60 885.55 610.58 1026.12 639.95
00042164 00000050 836.72 174.03 360.32 584.89 903.49 413.19 1072.03 451.59 944.66 553.00 891.00 609.84 1035.99 640.38
00042165 00000051 838.17 174.90 362.63 585.84 908.30 415.09 1077.58 452.74 950.81 554.60 896.24 611.96 1040.73 642.27
00042166 00000052 838.01 169.63 365.92 596.56 909.70 416.91 1078.49 453.08 951.79 555.75 898.48 615.82 1040.42 645.07
00042167 00000053 837.61 168.23 364.01 597.36 906.58 415.64 1074.26 449.90 947.19 551.47 896.16 618.03 1033.30 645.84
00042168 00000054 835.64 156.08 361.65 606.15 898.72 416.34 1061.53 448.22 935.63 545.42 889.88 621.20 1015.80 647.01
00042169 00000055 828.45 156.97 361.56 599.43 883.64 409.05 1048.09 440.50 921.47 539.72 876.08 621.52 1001.21 647.72
00042170 00000056 826.01 139.87 356.81 613.70 873.98 399.11 1034.29 431.07 907.74 532.93 866.57 618.31 989.35 645.73
00042171 00000057 815.45 140.51 357.49 599.74 860.35 386.46 1019.18 413.84 889.10 527.93 857.14 608.15 980.57 632.15
00042172 00000058 805.51 131.00 363.79 598.68 848.66 380.77 1005.56 404.84 874.14 518.97 843.29 600.29 965.98 622.49
00042173 00000059 801.54 119.99 363.59 608.85 840.65 375.50 995.11 397.66 861.49 508.94 835.49 595.75 955.76 616.44
00042174 00000060 795.60 121.97 362.40 606.87 836.19 374.33 984.05 396.45 850.30 506.05 830.49 588.89 953.03 609.10
00042175 00000061 791.14 124.53 363.91 606.23 832.53 375.54 977.11 395.66 842.93 505.16 829.26 587.33 950.64 605.51
00042176 00000062 786.76 128.97 363.91 603.64 829.53 379.54 971.43 398.51 839.15 506.17 826.66 587.26 948.48 604.10
00042177 00000063 783.99 131.39 360.73 603.33 826.95 381.62 966.08 401.66 833.68 506.03 824.12 586.82 945.29 604.02
00042178 00000064 779.41 131.45 357.67 602.77 822.70 383.28 959.72 404.77 828.69 507.76 819.73 587.74 938.02 605.64
00042179 00000065 776.18 134.12 355.72 597.10 818.95 385.87 956.10 404.39 826.76 511.21 818.05 589.95 935.43 605.24
00042180 00000066 777.67 117.62 354.92 610.90 813.39 376.49 955.35 396.83 821.79 495.86 824.18 580.94 936.37 596.84
00042181 00000067 775.32 114.56 354.16 610.25 809.13 373.70 951.13 394.54 816.16 498.64 822.81 579.49 937.22 595.17
00042182 00000068 760.80 120.11 367.87 600.82 794.31 368.51 951.31 391.74 801.52 504.88 808.73 589.06 930.39 608.62
00042183 00000069 757.07 117.79 370.08 602.00 789.70 366.85 946.26 389.45 797.82 504.88 807.87 589.08 927.08 608.21
00042184 00000070 754.64 118.21 369.70 601.46 786.45 366.23 943.21 389.03 797.67 508.55 808.02 591.12 925.97 610.63
00042185 00000071 751.45 116.43 369.83 605.53 782.37 364.85 940.89 388.88 796.26 510.53 804.68 593.01 922.44 613.59
00042186 00000072 748.42 115.35 369.09 608.69 778.07 367.20 939.18 388.87 793.45 510.66 800.58 596.89 921.81 615.61
00042187 00000073 740.61 112.50 369.12 614.24 779.14 368.18 937.97 389.01 798.22 510.44 789.39 591.56 919.09 610.12
00042188 00000074 737.55 112.76 370.04 620.46 776.81 372.56 933.05 391.04 794.10 510.11 787.33 596.00 914.07 612.71
00042189 00000075 737.43 115.62 367.30 618.33 775.36 379.93 923.85 398.56 785.86 508.93 790.89 596.34 907.67 611.99
00042190 00000076 729.77 113.49 373.00 623.81 768.47 375.36 920.86 388.47 784.71 508.80 782.23 594.70 912.52 606.86
00042191 00000077 726.22 117.85 371.06 618.05 767.49 378.52 912.64 387.23 779.87 505.79 782.67 592.89 909.36 601.25
00042192 00000078 725.70 117.97 369.17 611.60 763.37 374.55 906.84 391.71 771.67 501.72 784.24 584.64 902.53 598.39
00042193 00000079 723.76 115.96 366.05 610.71 763.05 374.31 902.97 390.57 771.15 500.25 785.54 581.78 901.29 594.74
00042194 00000080 719.43 119.38 367.53 604.10 759.08 372.41 896.14 387.05 767.77 499.77 785.69 578.84 899.94 590.17
00042195 00000081 719.51 121.80 361.11 598.71 757.83 372.88 890.91 384.78 764.94 496.36 785.23 577.05 896.38 586.13
00042196 00000082 718.53 120.79 359.52 596.29 756.66 373.71 887.60 383.42 763.53 492.51 783.87 574.29 893.98 581.70
00042197 00000083 720.05 122.75 356.38 593.94 757.30 373.24 886.53 382.34 763.59 491.96 784.50 574.82 891.68 581.83
00042198 00000084 720.96 124.55 353.51 590.77 758.67 372.78 889.62 384.80 767.54 495.45 786.95 576.06 893.20 585.52
00042199 00000085 725.25 129.60 350.43 586.04 762.26 377.32 894.30 390.18 773.65 500.79 791.34 580.07 896.38 590.51
00042200 00000086 719.97 145.14 352.38 573.86 759.49 390.06 899.93 395.61 780.57 517.11 778.78 593.58 901.82 598.63
00042201 00000087 717.84 147.91 355.67 575.99 756.81 395.60 901.96 402.20 782.11 526.96 780.71 601.26 903.49 606.80
00042202 00000088 718.90 146.81 356.54 586.95 757.42 402.60 903.94 411.24 787.77 539.12 784.54 609.82 906.99 617.16
00042203 00000089 720.38 151.18 354.44 584.47 758.90 405.35 904.91 413.54 789.47 541.12 786.27 614.87 906.25 621.75
00042204 00000090 722.44 150.29 352.67 588.06 758.83 407.70 903.43 414.50 788.87 541.82 786.75 621.05 902.38 626.70
00042205 00000091 724.85 153.43 351.02 581.37 760.06 406.07 905.62 412.61 791.43 540.64 786.09 622.71 901.47 628.18
00042206 00000092 728.87 153.80 348.15 581.14 762.27 404.87 907.01 410.06 794.44 535.83 786.42 624.40 897.66 628.90
00042207 00000093 733.98 162.75 347.83 572.68 767.88 401.85 911.90 407.00 802.23 534.91 792.43 625.69 900.82 629.91
00042208 00000094 745.09 168.60 341.94 571.82 784.29 404.09 930.69 415.10 819.42 540.70 805.67 630.27 914.98 638.74
00042209 00000095 752.85 165.78 345.06 586.31 805.94 417.13 952.52 424.73 840.75 542.44 829.53 633.87 931.10 638.48
00042210 00000096 759.14 167.03 347.07 592.10 818.24 425.91 970.58 435.23 862.47 553.94 839.85 628.88 956.93 634.47
00042211 00000097 765.77 166.29 343.14 591.41 828.63 426.28 978.72 434.24 873.71 553.41 850.11 625.29 974.64 629.82
00042212 00000098 769.62 157.12 343.18 596.76 830.85 419.19 979.93 429.87 870.83 545.83 846.69 617.54 969.47 624.62
00042213 00000099 769.12 170.40 343.04 574.14 826.37 411.14 976.10 420.27 868.54 541.95 841.46 612.83 965.16 618.97
00042214 00000100 771.28 158.60 342.65 577.42 826.30 412.75 973.34 423.19 866.51 536.33 836.81 607.23 959.43 614.81
00042215 DELETE   775.11 151.05 339.38 578.83 826.39 409.93 974.94 420.33 866.65 532.16 836.90 603.95 960.84 611.45
00042216 DELETE   774.86 147.89 339.02 579.40 826.09 406.16 973.82 417.35 864.93 528.45 835.12 600.21 960.15 608.30
00042217 00000103 767.10 152.17 345.04 570.62 823.25 400.70 967.42 410.88 858.22 522.38 832.76 595.71 952.67 603.24
00042218 00000104 765.29 145.98 342.34 576.90 820.33 398.11 960.82 407.63 846.85 513.98 832.43 594.03 945.06 600.85
00042219 00000105 763.82 141.92 349.68 577.09 808.34 385.42 965.29 398.80 834.82 509.80 827.10 595.73 946.72 606.56
00042220 00000106 757.54 147.84 353.48 566.45 800.14 378.57 957.56 391.51 829.07 503.02 819.28 585.13 941.12 596.24
00042221 00000107 753.98 139.53 351.06 571.89 792.43 370.65 947.81 383.56 820.24 497.61 814.74 580.04 933.86 591.34
00042222 00000108 749.09 142.58 351.99 561.20 787.49 364.86 940.70 378.15 817.16 493.94 813.29 574.35 930.52 586.77
00042223 00000109 747.03 132.65 351.85 557.93 787.05 360.51 932.36 370.01 812.35 477.57 798.30 562.13 922.97 571.87
00042224 00000110 744.98 117.37 347.69 577.10 774.68 356.85 921.54 366.23 800.53 478.67 792.32 565.70 915.41 572.28
00042225 00000111 738.65 111.95 346.61 585.23 768.84 356.49 914.20 362.26 791.83 475.95 786.14 565.86 908.36 569.70
00042226 00000112 729.69 112.88 348.01 584.77 763.61 355.23 908.75 361.07 785.43 474.04 780.79 564.12 903.70 568.11
00042227 00000113 726.30 119.78 346.97 578.71 761.45 356.98 902.36 360.62 780.42 470.95 782.65 563.09 899.53 565.22
00042228 00000114 721.46 120.38 348.34 577.72 756.75 362.40 894.99 361.79 776.12 469.42 781.97 566.13 895.56 564.71
00042229 00000115 718.44 131.72 345.66 563.71 754.44 370.28 889.25 368.04 776.27 476.80 781.74 567.06 893.29 564.25
00042230 00000116 715.27 133.69 344.32 561.62 749.58 376.47 877.67 372.62 770.40 485.26 779.19 569.94 887.58 565.91
00042231 00000117 713.70 138.89 345.66 560.96 747.81 379.45 875.71 380.43 765.90 488.18 784.35 568.14 890.13 567.68
00042232 00000118 700.63 162.31 356.22 540.49 733.77 391.30 875.80 386.11 759.62 515.94 782.48 592.27 896.82 587.56
00042233 00000119 693.34 169.01 356.16 553.44 743.29 409.97 862.58 398.84 769.93 520.95 790.63 600.05 896.52 588.73
00042234 00000120 688.33 178.06 356.62 552.75 740.39 416.87 859.49 408.50 769.87 532.53 792.98 605.23 899.00 595.56
00042235 00000121 689.59 180.84 354.28 543.71 730.87 421.44 852.80 409.91 758.82 534.44 792.82 607.56 894.63 594.92
00042236 00000122 684.82 173.00 355.55 550.37 728.32 418.57 854.12 402.72 758.62 527.70 788.26 605.27 895.49 589.62
00042237 00000123 681.72 181.00 353.94 537.35 727.23 413.25 852.92 393.76 758.68 520.19 785.84 601.35 892.71 583.47
00042238 00000124 681.12 180.32 352.71 531.71 722.46 408.39 847.72 390.05 751.33 513.95 777.51 595.75 883.64 579.61
00042239 00000125 674.67 170.23 356.84 537.33 707.61 403.40 852.90 380.82 748.44 512.62 765.01 596.63 874.00 579.69
00042240 00000126 673.89 167.91 353.24 537.62 705.11 399.93 850.36 377.65 742.65 510.30 758.46 596.33 868.75 579.78
00042241 00000127 674.16 171.46 349.43 532.83 705.82 397.39 847.32 377.71 740.58 509.23 756.86 592.75 864.77 578.27
00042242 00000128 674.28 173.30 348.88 533.18 707.82 400.35 847.94 381.33 742.29 507.65 756.86 590.56 864.29 576.36
00042243 00000129 674.26 169.33 351.51 538.08 710.15 404.57 848.16 383.85 743.93 503.73 759.44 589.04 866.52 573.31
00042244 00000130 673.55 177.17 353.36 530.14 710.60 401.17 849.96 381.86 746.41 502.43 760.30 586.27 869.23 571.96
00042245 00000131 674.67 170.24 353.85 536.86 710.25 396.74 852.31 376.85 745.93 500.69 760.41 586.69 872.05 571.86
00042246 00000132 674.04 166.43 356.26 540.19 709.31 390.99 854.41 371.71 746.54 498.43 759.45 586.28 872.91 572.23
00042247 00000133 674.69 162.69 357.64 544.35 709.91 389.99 854.20 368.50 746.71 495.32 761.08 585.85 874.61 570.06
00042248 00000134 673.51 165.02 358.44 541.79 709.20 389.76 853.01 367.69 746.37 494.30 759.33 585.65 873.05 569.55
00042249 00000135 672.98 162.20 358.66 544.68 709.19 389.33 852.67 367.20 746.04 493.25 758.54 585.02 871.88 568.86
00042250 00000136 672.44 161.54 359.75 545.78 707.26 389.71 852.31 368.19 743.34 494.59 755.23 585.83 870.34 570.03
00042251 00000137 672.23 165.00 359.56 541.85 707.66 388.18 852.77 368.48 743.31 495.13 754.13 584.81 869.15 570.41
00042252 00000138 672.04 164.58 360.93 542.79 706.98 388.34 853.59 368.65 742.49 495.20 753.02 586.43 868.62 572.14
00042253 00000139 668.80 164.46 365.56 546.91 706.28 387.55 855.35 369.50 744.29 498.56 753.36 588.25 868.75 574.89
00042254 00000140 667.31 161.30 367.51 551.37 706.17 387.68 856.64 369.46 745.87 500.49 754.60 589.01 870.67 575.38
00042255 00000141 666.47 157.22 370.59 555.20 704.73 387.66 855.55 366.52 743.52 498.89 755.96 591.31 872.98 575.34
00042256 00000142 666.83 155.98 370.03 555.72 711.05 385.06 850.04 372.32 744.12 489.84 752.56 581.82 874.19 571.13
00042257 00000143 668.09 155.36 370.06 556.06 712.55 383.53 852.07 370.75 746.15 486.76 753.31 579.28 878.47 568.36
00042258 00000144 669.17 148.18 369.14 558.27 713.01 380.73 856.03 368.70 748.90 483.83 751.46 575.96 879.82 566.00
00042259 00000145 670.35 147.69 368.90 551.41 713.58 375.33 861.24 362.99 752.39 477.71 750.33 569.52 882.99 559.27
00042260 00000146 671.59 145.22 367.64 546.25 713.46 371.02 864.36 358.21 755.56 475.57 750.17 565.57 884.63 554.97
00042261 00000147 673.23 136.52 367.32 559.10 717.09 368.48 869.26 355.70 760.37 472.96 753.62 567.27 885.80 557.23
00042262 00000148 674.01 139.53 368.37 558.64 719.46 370.04 871.00 357.14 762.92 473.50 756.68 571.46 885.17 561.27
00042263 00000149 674.72 138.14 368.64 563.67 720.28 373.12 871.34 361.72 762.47 477.91 755.19 574.16 884.06 565.02
00042264 00000150 669.94 141.92 376.45 567.60 711.05 377.14 874.67 358.43 761.48 492.54 759.73 589.77 883.47 575.84
00042265 00000151 669.66 145.78 377.26 566.81 709.92 381.44 876.44 363.68 761.94 499.37 759.38 594.43 885.96 581.18
00042266 00000152 671.78 144.17 376.82 569.50 712.07 382.75 875.84 366.68 762.33 502.59 761.45 592.89 888.70 580.71
00042267 00000153 676.31 154.47 373.06 553.61 723.95 387.89 871.46 374.30 767.48 493.62 763.79 580.81 894.39 568.87
00042268 00000154 675.15 145.15 376.44 561.67 716.24 378.18 879.21 362.83 767.79 495.69 762.89 583.47 895.00 571.97
00042269 00000155 675.86 140.18 375.23 560.68 717.78 376.03 880.02 357.52 769.30 489.12 766.32 580.66 897.81 566.48
00042270 00000156 676.79 134.22 375.94 569.18 721.19 374.68 881.79 353.62 773.18 484.10 772.15 579.73 901.30 563.20
00042271 00000157 677.26 139.39 376.03 564.97 721.32 375.75 880.46 353.91 772.43 484.43 773.26 580.99 901.62 563.81
00042272 00000158 677.00 139.59 375.91 564.18 720.54 376.85 879.74 354.90 771.38 485.66 772.47 581.70 901.19 564.45
00042273 00000159 677.81 138.96 376.45 564.66 720.01 377.72 878.95 356.48 770.15 488.17 772.18 581.79 901.87 565.12
00042274 00000160 677.95 137.94 376.67 565.37 720.89 375.90 880.37 355.99 770.77 487.90 772.61 581.19 902.35 565.39
00042275 00000161 679.57 132.61 374.58 569.55 722.10 377.31 881.27 356.52 770.25 486.74 772.65 581.18 902.52 564.55
00042276 00000162 682.70 135.29 371.37 567.06 720.63 383.49 876.59 362.72 764.56 488.49 769.74 582.85 898.36 566.44
00042277 00000163 681.24 134.04 372.25 568.80 715.59 380.10 870.91 364.38 754.21 490.01 760.82 582.55 886.20 570.84
00042278 00000164 681.91 135.11 371.23 566.89 711.61 371.61 862.15 367.05 735.83 492.54 753.66 579.57 873.65 576.89
00042279 00000165 679.69 132.48 368.62 571.28 709.19 372.10 855.21 373.01 726.91 496.68 751.29 579.34 866.78 581.32
00042280 00000166 682.72 126.07 362.96 578.20 709.16 374.41 850.53 379.84 718.06 497.64 743.96 579.93 856.08 585.77
00042281 00000167 689.00 128.20 360.50 576.60 712.60 375.31 856.17 390.47 715.51 500.53 741.42 580.84 851.45 594.27
00042282 00000168 698.03 129.30 352.82 573.58 721.48 372.12 864.94 393.44 719.13 499.00 742.93 579.76 854.12 597.85
00042283 00000169 709.34 112.91 350.38 587.56 742.08 370.20 875.59 392.35 741.04 485.79 759.68 571.09 863.72 586.33
00042284 00000170 713.76 119.24 351.23 581.56 746.49 371.44 880.52 391.51 747.92 486.66 764.60 571.73 867.26 586.10
