Video ID: 	Ds2IHl7MImM
H: 	1080
W: 	1920
FPS: 	29.97002997002997

FRAME INDEX X0 Y0 W H [Landmarks (5 Points)]

00002032 00000000 1007.54 268.18 436.07 473.26 1055.15 404.19 1225.37 395.42 1084.34 495.84 1078.22 593.40 1216.30 583.62
00002033 00000001 1006.91 269.07 433.65 471.12 1049.55 402.42 1213.51 392.66 1071.18 492.08 1073.17 589.60 1211.86 578.76
00002034 DELETE   1007.77 268.03 430.33 469.29 1042.96 396.00 1201.04 384.79 1057.60 486.72 1065.60 588.52 1201.90 576.40
00002035 00000003 1003.52 264.04 424.80 463.25 1036.27 387.89 1189.58 381.22 1045.28 483.14 1057.66 583.19 1189.47 575.04
00002036 00000004 998.81 258.18 418.40 470.25 1030.14 384.23 1175.28 377.25 1032.37 478.55 1050.64 583.65 1174.90 575.47
00002037 00000005 989.68 260.77 414.14 462.46 1017.31 383.27 1160.86 373.22 1020.50 478.22 1040.45 586.08 1158.64 575.63
00002038 DELETE   983.44 247.71 406.30 469.47 1009.58 380.24 1155.94 368.31 1011.31 474.34 1025.12 585.63 1147.83 572.18
00002039 00000007 979.98 245.94 406.07 472.72 1003.27 381.32 1149.86 366.12 1007.21 474.01 1021.69 589.25 1143.21 572.90
00002040 00000008 976.55 239.63 408.47 480.02 999.44 378.32 1147.07 363.98 1007.10 471.48 1019.34 587.30 1141.38 571.83
00002041 00000009 973.86 243.42 410.17 471.68 995.40 376.02 1146.55 364.32 1003.98 471.04 1016.22 584.71 1141.86 571.30
00002042 00000010 963.32 250.29 414.41 472.38 994.79 372.86 1138.37 364.91 1002.00 476.14 1021.26 582.32 1134.81 577.30
00002043 00000011 961.70 249.52 413.81 474.91 993.03 369.80 1136.77 362.95 1001.64 474.54 1018.60 579.91 1133.90 575.51
00002044 00000012 967.21 240.54 407.80 477.15 989.57 369.74 1140.45 363.20 997.81 468.98 1010.30 579.79 1138.67 570.76
00002045 00000013 963.03 242.36 407.34 472.60 985.50 370.99 1137.90 362.74 994.07 465.42 1004.91 577.04 1136.65 566.76
00002046 00000014 955.96 245.36 410.34 467.17 980.93 371.75 1131.73 363.09 988.08 463.26 1000.91 573.77 1134.86 563.17
00002047 00000015 949.42 247.29 414.21 463.78 976.11 372.37 1127.27 362.75 984.48 463.84 999.26 571.51 1136.84 560.23
00002048 00000016 942.22 248.37 417.05 463.83 970.62 374.05 1119.93 361.17 978.61 463.17 998.81 570.01 1135.68 556.33
00002049 00000017 936.53 247.24 421.99 466.09 964.51 368.66 1118.12 356.99 973.64 459.57 996.36 567.51 1137.76 555.03
00002050 00000018 935.82 246.83 419.62 462.98 961.97 365.19 1115.26 356.08 969.58 459.67 994.88 564.82 1137.21 554.45
00002051 00000019 933.31 246.66 416.54 456.11 959.23 361.25 1112.05 353.72 965.29 455.27 989.37 560.72 1130.60 552.09
00002052 00000020 931.40 246.45 410.13 454.31 957.33 358.20 1107.23 349.14 961.41 452.02 988.34 559.57 1127.29 550.15
00002053 00000021 927.44 240.58 413.03 462.92 954.33 354.17 1102.75 343.98 957.05 448.34 986.65 558.60 1125.27 548.48
00002054 00000022 917.31 234.48 411.84 472.50 955.96 348.72 1101.79 337.63 957.90 437.78 986.16 560.76 1121.97 546.29
00002055 00000023 914.33 233.21 413.57 480.21 950.45 346.90 1099.27 335.96 954.08 439.54 981.50 561.69 1121.67 547.17
00002056 00000024 910.70 232.86 414.56 482.31 945.98 345.42 1098.18 336.22 951.55 441.42 976.22 561.28 1120.28 548.07
00002057 00000025 910.25 230.74 414.95 485.23 944.71 342.39 1097.17 336.17 949.17 440.70 973.63 559.93 1118.03 549.11
00002058 00000026 906.63 230.46 414.52 483.27 941.33 340.25 1096.13 337.37 948.35 441.66 968.47 558.50 1114.28 550.69
00002059 00000027 904.83 229.76 410.42 475.11 936.13 343.90 1092.24 342.45 948.38 443.12 958.94 559.61 1099.66 553.89
00002060 00000028 904.51 224.40 411.43 471.48 932.31 344.13 1090.38 342.41 943.50 441.06 951.86 558.33 1092.15 552.60
00002061 00000029 894.78 217.53 421.23 485.95 927.53 348.61 1085.50 344.69 934.60 452.64 944.96 559.00 1075.05 552.05
00002062 00000030 891.91 215.79 423.64 487.82 924.02 345.79 1081.69 342.08 930.21 449.45 940.98 557.13 1070.20 550.38
00002063 00000031 890.19 212.08 426.03 494.48 923.54 343.03 1078.36 338.90 927.22 447.45 942.73 556.21 1070.31 549.08
00002064 00000032 890.12 215.26 422.23 490.01 923.60 336.30 1073.27 333.80 932.66 433.99 946.11 550.76 1079.33 545.34
00002065 00000033 887.49 214.65 420.54 488.89 920.16 336.70 1067.96 331.92 927.07 430.34 943.30 549.42 1075.73 542.27
00002066 00000034 885.52 214.63 417.10 484.11 918.28 336.97 1063.89 333.49 923.08 430.15 939.88 546.83 1072.77 540.71
00002067 00000035 884.09 217.05 415.67 480.76 914.19 336.98 1059.50 333.62 919.13 430.72 936.30 545.51 1069.41 539.54
00002068 00000036 883.12 217.56 417.39 483.41 912.49 334.89 1058.26 331.89 917.24 430.65 935.78 545.88 1068.54 540.06
00002069 00000037 877.80 213.00 427.34 486.76 908.33 344.36 1057.65 332.69 914.31 442.48 934.24 549.86 1055.20 536.06
00002070 00000038 875.97 219.30 430.37 483.39 902.79 355.48 1054.57 340.10 911.88 449.32 931.02 555.99 1055.38 538.99
00002071 00000039 872.19 223.42 433.75 482.32 901.19 357.49 1055.96 343.86 913.16 453.81 930.05 557.43 1058.99 541.79
00002072 00000040 869.79 230.84 439.10 478.03 903.48 356.02 1060.47 345.55 917.14 458.00 933.39 558.37 1064.27 545.58
00002073 DELETE   868.46 229.16 436.86 483.67 908.06 355.35 1060.63 346.19 921.07 460.31 940.11 558.24 1067.66 546.56
00002074 00000042 871.33 237.21 436.10 475.03 906.47 353.23 1068.99 347.18 927.61 450.39 941.08 559.81 1083.47 551.26
00002075 00000043 872.29 237.00 437.49 476.65 908.21 350.33 1070.55 346.31 929.15 449.89 941.50 557.90 1086.96 550.84
00002076 00000044 872.56 234.85 437.86 476.36 910.45 347.91 1072.79 346.62 931.02 449.94 941.14 554.91 1086.43 550.14
00002077 00000045 871.52 233.14 439.71 477.86 911.38 345.81 1074.23 343.91 932.50 445.45 939.82 551.78 1085.37 546.76
00002078 00000046 871.93 229.07 438.54 482.07 913.33 343.15 1075.70 342.00 934.37 443.44 941.33 550.79 1086.73 546.32
00002079 00000047 873.37 227.06 440.67 483.36 914.96 342.61 1076.79 342.41 934.09 441.84 941.57 550.28 1088.68 546.53
00002080 00000048 873.18 225.14 440.52 487.20 917.34 342.09 1079.75 342.79 937.31 442.39 945.15 549.52 1092.13 546.48
00002081 00000049 875.47 225.79 437.63 486.78 919.78 341.71 1083.15 342.21 940.79 442.39 948.56 549.65 1096.24 546.10
00002082 00000050 876.49 226.36 436.66 486.88 921.96 341.62 1087.73 341.93 944.06 442.47 951.76 550.33 1102.58 546.54
00002083 00000051 879.54 224.69 437.23 490.31 926.26 340.54 1093.95 342.33 947.49 442.26 953.89 548.87 1107.74 546.42
00002084 00000052 881.28 225.53 434.48 486.52 929.10 338.50 1098.95 344.78 951.30 441.70 952.76 545.18 1109.07 546.29
00002085 00000053 880.58 222.26 431.68 487.72 931.64 339.11 1102.36 346.84 955.58 438.77 949.95 541.09 1108.14 543.57
00002086 00000054 879.77 217.87 430.13 487.54 931.12 339.37 1103.46 346.29 958.36 438.33 948.60 540.96 1106.49 543.07
00002087 00000055 878.18 213.93 431.13 493.62 930.30 340.42 1103.39 345.93 957.75 437.00 948.08 540.81 1106.10 541.97
00002088 00000056 874.89 212.73 433.75 500.62 928.33 340.85 1101.92 344.39 956.28 436.71 949.40 542.18 1107.25 542.01
00002089 00000057 871.54 207.99 439.26 508.51 923.49 339.21 1098.52 342.16 951.24 436.81 947.17 540.89 1108.11 540.29
00002090 00000058 861.46 197.79 437.95 516.91 921.74 342.70 1097.09 336.05 945.20 428.85 944.35 545.32 1103.73 538.13
00002091 00000059 858.05 197.57 439.56 514.66 919.65 342.67 1095.58 334.39 943.69 425.18 940.84 546.67 1097.96 538.12
00002092 00000060 857.71 192.06 449.02 518.39 912.19 339.41 1085.10 333.17 937.58 436.77 930.81 544.31 1082.06 537.78
00002093 00000061 855.62 195.26 451.38 515.44 911.04 336.30 1085.17 331.60 937.96 436.95 930.42 543.10 1081.19 537.92
00002094 00000062 854.54 194.55 450.85 513.18 908.23 335.69 1083.08 330.83 936.42 437.43 928.62 542.89 1079.39 537.56
00002095 00000063 853.57 193.34 450.58 510.60 906.68 335.91 1085.93 332.34 938.63 438.31 925.41 542.47 1078.19 538.39
00002096 00000064 854.20 193.69 450.23 515.91 908.25 334.44 1087.13 333.57 939.55 441.82 926.87 543.26 1079.25 541.53
00002097 00000065 853.82 194.36 449.16 515.26 908.60 337.30 1087.96 335.69 941.82 443.05 925.77 547.49 1075.17 545.28
00002098 00000066 853.39 195.30 449.65 519.26 909.15 334.81 1089.54 335.21 943.80 446.19 926.38 549.60 1074.81 549.14
00002099 00000067 852.24 202.03 446.11 518.06 908.29 341.23 1093.44 340.01 955.00 441.51 933.93 553.42 1092.07 550.64
00002100 00000068 843.11 200.72 450.95 519.86 909.16 344.20 1097.51 342.65 948.76 446.33 931.97 561.19 1083.93 559.30
00002101 00000069 841.64 205.93 459.22 517.77 898.89 352.06 1091.04 340.76 938.83 456.09 928.87 567.96 1088.27 556.58
00002102 00000070 835.30 218.53 457.19 511.01 894.77 357.39 1083.67 346.46 934.37 461.36 926.42 571.00 1084.66 560.57
00002103 00000071 831.73 221.10 454.22 514.50 890.37 359.28 1075.19 350.75 922.42 465.37 917.28 572.98 1079.34 564.39
00002104 00000072 827.23 229.07 447.39 514.19 885.68 358.70 1063.25 352.15 915.65 466.76 911.28 570.76 1068.20 563.63
00002105 00000073 825.30 233.48 441.36 521.34 883.10 355.75 1055.20 351.29 912.66 466.50 909.61 569.91 1065.14 564.27
00002106 00000074 820.00 224.57 448.86 528.76 880.38 347.30 1054.83 349.19 905.44 468.34 906.15 576.19 1060.29 574.65
00002107 00000075 820.11 225.55 448.67 529.36 879.85 348.20 1053.81 348.03 904.37 469.65 907.86 577.96 1062.08 574.67
00002108 00000076 827.01 233.48 440.75 526.78 882.11 356.75 1050.12 349.14 910.59 464.36 916.36 573.28 1069.32 564.65
00002109 00000077 828.97 235.50 441.92 522.00 885.24 356.65 1055.45 348.86 916.42 464.59 919.08 573.19 1073.91 564.45
00002110 00000078 831.26 230.32 443.01 523.21 887.95 355.04 1061.13 347.99 918.42 463.16 921.07 571.54 1077.54 563.53
00002111 00000079 834.51 229.45 447.16 514.57 890.45 356.88 1065.55 347.97 920.02 462.09 924.04 570.13 1079.84 560.62
00002112 00000080 835.24 222.52 450.41 509.58 890.07 359.07 1072.12 348.76 920.24 461.43 924.00 567.56 1084.78 557.42
00002113 00000081 837.04 222.93 451.22 497.82 892.94 361.42 1078.75 347.33 928.26 461.57 927.59 568.46 1088.78 555.18
00002114 00000082 841.46 221.67 450.95 487.28 898.98 357.93 1085.19 346.15 935.80 458.49 932.31 564.45 1090.84 552.85
00002115 00000083 849.91 210.12 446.71 495.48 906.64 354.96 1092.90 344.81 944.25 456.84 936.36 557.86 1096.89 547.21
00002116 00000084 853.37 204.68 438.78 505.97 918.33 353.54 1102.07 345.17 959.40 445.50 944.32 553.98 1107.78 545.88
00002117 DELETE   859.85 207.00 441.97 503.32 923.12 346.93 1108.91 344.66 975.37 446.19 951.02 546.46 1121.01 542.09
00002118 00000086 863.26 194.76 445.97 515.51 934.24 342.16 1122.07 336.90 988.07 439.75 959.70 544.32 1133.96 537.12
00002119 00000087 875.38 187.15 436.23 520.52 944.91 338.72 1132.85 333.67 999.63 434.45 963.32 539.74 1140.62 532.60
00002120 00000088 885.51 175.02 429.98 529.83 953.00 333.91 1138.04 326.32 1006.44 428.81 972.85 540.11 1144.77 531.15
00002121 00000089 890.14 173.74 429.44 528.52 958.27 330.26 1142.58 323.44 1010.69 423.40 976.54 534.51 1146.30 526.36
00002122 00000090 891.25 172.01 431.52 525.92 961.39 328.91 1145.36 321.83 1014.05 420.37 979.36 531.40 1146.83 523.33
00002123 00000091 889.92 159.83 435.27 536.87 961.68 326.37 1147.05 319.56 1014.67 418.55 979.76 529.42 1149.09 521.75
00002124 00000092 889.75 161.36 434.93 536.04 963.16 328.53 1148.12 319.69 1018.18 414.66 980.78 528.77 1150.48 519.49
00002125 00000093 890.26 148.48 430.00 541.57 961.04 332.73 1148.13 318.90 1018.07 412.12 980.14 530.01 1150.42 516.86
00002126 00000094 889.47 148.25 429.14 537.22 958.80 334.43 1146.80 316.83 1017.49 411.66 979.71 529.09 1152.15 512.77
00002127 00000095 886.08 144.49 432.99 534.19 954.31 331.54 1145.76 311.26 1014.60 409.52 976.93 528.18 1151.45 509.72
00002128 00000096 881.51 121.16 437.81 556.86 942.83 336.04 1132.80 307.94 1005.76 405.97 972.69 532.01 1142.88 507.33
00002129 00000097 875.63 127.06 433.32 547.88 936.28 331.00 1134.17 301.93 1003.90 403.71 967.17 531.67 1143.43 506.86
00002130 00000098 874.65 140.88 428.26 527.17 939.35 334.48 1124.97 299.53 1000.82 404.79 971.23 522.15 1140.28 492.94
00002131 00000099 864.71 149.17 431.83 525.00 932.04 336.79 1114.54 299.73 993.85 406.33 972.22 524.67 1137.57 492.28
00002132 00000100 856.41 153.16 437.06 521.17 922.16 346.23 1104.59 302.91 982.48 410.59 967.30 533.70 1131.07 495.41
00002133 00000101 843.57 153.65 441.15 523.80 909.21 357.46 1092.80 306.67 971.94 414.81 960.61 545.79 1122.26 501.40
00002134 00000102 827.75 154.34 447.74 527.45 897.95 366.45 1080.00 312.67 965.75 424.00 954.49 552.36 1111.18 505.36
00002135 00000103 818.04 156.05 450.29 525.72 889.36 375.48 1070.92 317.30 958.29 427.90 947.95 557.48 1106.03 506.84
00002136 DELETE   813.98 163.90 449.96 523.27 884.74 377.71 1067.59 321.29 954.52 430.15 941.94 559.15 1102.02 509.87
00002137 DELETE   810.78 167.42 447.48 525.48 880.50 377.67 1063.94 323.09 949.75 430.64 935.00 560.12 1096.49 512.48
00002138 00000106 807.69 176.44 442.50 527.41 882.58 375.42 1060.77 323.16 954.42 427.80 934.42 561.13 1096.12 515.04
00002139 00000107 808.74 169.08 443.46 531.02 874.21 375.77 1055.20 321.92 938.96 431.55 927.15 560.93 1088.55 513.86
00002140 00000108 805.77 167.71 444.26 535.60 871.98 373.16 1052.40 320.52 935.50 431.47 924.20 561.47 1084.58 515.55
00002141 00000109 804.36 164.10 441.20 542.55 870.28 371.49 1049.24 317.81 933.42 430.26 923.21 562.42 1082.43 515.82
00002142 00000110 807.60 160.74 437.40 542.17 863.73 380.26 1037.04 318.94 929.30 422.10 926.59 558.78 1075.93 506.81
00002143 00000111 807.98 153.86 433.56 552.66 870.64 364.82 1040.71 311.44 931.44 424.76 923.57 551.95 1080.48 506.00
00002144 00000112 807.32 152.44 432.51 551.99 869.90 360.86 1041.10 308.85 929.61 420.93 921.22 549.04 1077.41 504.09
00002145 00000113 808.20 155.12 430.00 548.74 870.68 355.21 1042.33 306.95 928.96 417.98 918.52 544.61 1074.28 502.99
00002146 00000114 807.77 154.65 431.22 548.16 869.03 351.01 1043.65 304.83 925.73 415.91 915.71 543.41 1071.28 503.84
00002147 00000115 806.80 149.96 429.26 553.87 868.47 349.56 1042.78 305.82 923.03 414.53 911.91 541.69 1068.83 503.59
00002148 00000116 805.71 150.73 430.76 552.91 866.32 348.59 1041.52 305.54 919.31 413.32 908.80 541.40 1065.77 503.99
00002149 00000117 803.36 151.00 431.25 553.57 863.72 349.00 1039.57 306.89 916.65 414.60 907.53 542.71 1064.51 505.86
00002150 00000118 802.81 155.98 429.52 546.44 862.80 348.63 1038.96 309.33 915.22 415.20 904.99 541.91 1060.82 507.64
00002151 00000119 805.04 158.61 427.92 541.59 864.21 349.39 1039.51 310.95 915.94 415.87 904.59 541.14 1058.61 507.89
00002152 00000120 807.07 149.45 428.68 546.38 866.50 350.74 1039.93 313.88 915.48 416.37 904.57 539.86 1054.86 507.99
00002153 00000121 804.50 148.30 440.41 547.44 859.92 364.89 1036.86 319.05 917.66 416.94 904.11 553.96 1049.65 515.36
00002154 00000122 808.79 150.76 440.91 540.93 863.90 364.86 1038.10 322.36 921.45 419.72 905.70 552.82 1047.46 517.27
00002155 00000123 816.42 151.88 433.67 541.49 870.01 362.11 1041.44 323.85 924.11 420.77 907.99 552.48 1044.67 520.69
00002156 00000124 821.38 154.58 430.59 537.58 877.17 356.84 1048.54 325.28 931.45 423.28 913.62 549.29 1046.75 523.19
00002157 00000125 829.01 163.30 432.30 530.94 885.52 355.34 1058.28 325.70 938.21 424.95 919.34 550.54 1052.29 526.27
00002158 00000126 833.43 159.03 438.62 536.30 896.97 341.77 1074.62 317.15 945.74 418.96 931.46 546.79 1067.54 525.56
00002159 00000127 839.37 148.48 439.23 534.36 903.51 340.14 1080.62 317.47 949.53 418.14 937.54 542.64 1074.21 523.49
00002160 00000128 847.84 153.47 438.40 528.81 907.82 338.63 1089.46 316.21 952.54 417.76 939.59 542.91 1081.97 524.10
00002161 00000129 852.92 148.26 437.00 527.07 913.97 335.56 1095.59 313.92 962.25 414.92 947.10 536.53 1085.74 518.61
00002162 00000130 854.17 140.28 446.23 539.55 917.11 341.33 1097.61 307.29 974.79 408.71 951.19 543.18 1093.83 514.47
00002163 00000131 859.21 133.24 444.67 543.83 920.83 335.17 1102.78 301.80 978.50 403.49 954.23 537.33 1103.85 509.02
00002164 00000132 865.14 131.73 442.37 545.74 925.79 331.25 1107.32 300.27 981.64 400.96 957.59 533.26 1109.97 507.10
00002165 00000133 870.27 128.76 438.65 547.74 935.28 323.42 1116.53 294.34 985.29 401.45 964.89 524.46 1117.14 499.76
00002166 00000134 873.17 119.17 440.61 557.57 937.52 322.12 1122.56 292.21 988.67 399.76 963.72 523.06 1121.77 497.54
00002167 00000135 873.25 114.62 441.38 563.64 934.86 327.43 1118.17 299.87 988.32 398.93 962.75 528.82 1117.09 506.12
00002168 00000136 874.66 109.73 440.45 569.24 936.86 327.90 1119.16 300.11 989.64 397.85 963.75 528.62 1117.38 505.77
00002169 00000137 875.23 110.36 441.35 569.84 937.23 327.75 1118.80 299.35 989.29 397.76 964.22 529.29 1117.39 505.95
00002170 00000138 877.29 114.65 439.07 563.70 937.78 328.04 1119.30 298.92 989.45 397.40 964.14 529.53 1118.63 505.60
00002171 00000139 877.41 114.17 439.63 562.55 937.57 328.19 1119.27 299.36 988.98 398.17 963.53 529.33 1117.90 505.70
00002172 00000140 877.56 113.55 439.08 562.24 938.94 326.93 1117.48 299.11 988.52 396.06 963.82 527.27 1111.11 504.71
00002173 00000141 876.91 115.42 438.45 562.05 938.76 326.85 1115.95 299.42 987.88 394.96 963.07 526.48 1106.28 504.33
00002174 00000142 877.52 121.25 442.47 556.52 938.40 328.87 1116.19 301.56 985.69 396.18 961.23 528.40 1105.74 506.25
00002175 00000143 880.47 132.26 438.82 540.36 941.84 325.67 1123.48 296.68 987.93 402.66 961.79 527.34 1114.20 502.73
00002176 00000144 877.75 137.54 442.69 540.10 935.97 333.47 1113.55 305.94 984.08 403.24 958.84 530.97 1102.70 508.50
00002177 00000145 878.85 143.63 438.86 528.53 938.52 329.59 1120.63 299.78 987.30 406.42 960.75 529.81 1113.25 504.14
00002178 00000146 877.63 143.09 440.30 530.89 935.32 328.98 1119.09 300.35 986.16 408.89 960.37 531.92 1111.22 507.13
00002179 00000147 875.89 147.42 438.87 531.01 935.76 329.80 1117.50 301.38 987.33 408.95 962.53 532.53 1109.67 508.01
00002180 00000148 875.33 151.56 439.04 531.42 936.61 329.55 1116.81 301.20 986.27 410.33 965.67 534.23 1112.35 509.60
00002181 00000149 874.96 151.65 439.50 533.89 936.77 329.87 1117.12 300.78 986.55 409.46 966.52 535.56 1113.39 510.29
00002182 00000150 877.25 155.93 437.57 531.10 938.50 328.50 1117.28 301.13 986.39 409.08 967.41 534.24 1115.11 510.19
00002183 00000151 877.40 152.10 438.10 533.38 939.52 325.75 1117.02 299.34 986.22 407.08 968.73 530.78 1115.57 507.57
00002184 00000152 878.51 151.27 437.95 534.29 940.13 324.82 1118.21 298.26 986.04 406.54 969.24 530.60 1117.52 507.16
00002185 00000153 879.43 150.62 435.97 534.25 940.66 325.08 1118.06 297.87 985.19 405.81 970.24 530.28 1119.39 506.23
00002186 00000154 879.54 149.98 435.16 535.23 940.00 324.11 1117.42 298.02 982.97 406.29 969.22 530.14 1119.39 506.91
00002187 00000155 879.83 150.29 434.87 534.70 939.84 324.48 1116.96 298.20 982.23 405.97 968.56 530.67 1119.01 507.27
00002188 00000156 880.29 149.33 435.78 537.31 939.80 323.95 1117.86 297.83 981.98 405.73 967.90 531.37 1119.30 508.12
00002189 00000157 880.73 160.40 433.33 527.99 940.36 326.73 1117.10 300.29 984.29 405.66 968.58 532.24 1118.41 508.49
00002190 00000158 881.78 171.98 430.59 517.84 942.24 331.87 1116.63 306.07 986.01 406.59 969.85 533.48 1118.76 510.06
00002191 00000159 885.52 173.22 428.51 516.70 945.30 329.52 1118.33 305.96 987.94 406.10 970.10 532.41 1117.79 510.90
00002192 00000160 888.58 165.29 429.76 521.87 947.42 326.96 1120.51 303.80 986.64 404.98 970.19 531.70 1116.30 510.74
00002193 00000161 890.77 162.90 425.07 526.33 949.70 326.91 1120.97 303.69 987.31 403.98 971.53 532.44 1117.15 511.45
00002194 00000162 890.76 158.04 426.50 533.53 950.17 327.28 1121.52 302.64 988.35 403.01 972.71 534.79 1116.99 512.82
00002195 00000163 890.42 159.39 426.27 540.01 951.59 325.78 1121.10 302.08 988.57 402.91 976.69 536.30 1118.54 515.13
00002196 00000164 888.92 170.22 426.84 533.44 949.78 327.80 1119.31 304.11 989.78 405.30 977.87 539.11 1117.50 517.78
00002197 00000165 889.56 174.74 428.88 529.21 947.96 330.55 1120.22 307.80 988.89 409.15 974.92 541.85 1116.86 521.09
00002198 00000166 890.46 184.44 432.04 516.72 947.62 334.67 1124.56 313.46 991.55 415.52 971.41 542.53 1117.26 522.78
00002199 00000167 891.27 191.95 434.21 504.91 946.42 337.63 1126.51 320.50 991.63 421.78 964.37 543.11 1114.01 527.20
