Video ID: 	WRHhdRaOd2M
H: 	1440
W: 	2560
FPS: 	23.976023976023978

FRAME INDEX X0 Y0 W H [Landmarks (5 Points)]

00006293 00000000 923.61 272.17 612.70 819.00 1088.99 570.05 1377.99 588.77 1225.02 730.83 1102.40 863.59 1348.87 876.47
00006294 DELETE   911.61 273.36 619.55 831.37 1074.92 574.73 1369.61 592.06 1218.26 737.86 1099.56 877.02 1338.89 888.69
00006295 DELETE   910.73 273.10 615.59 843.86 1063.92 578.50 1366.10 590.81 1214.33 746.39 1097.53 899.36 1334.23 906.77
00006296 00000003 907.64 281.20 619.70 858.43 1054.84 584.81 1362.43 590.64 1205.81 753.54 1085.70 914.15 1336.54 916.55
00006297 00000004 911.97 282.56 617.71 859.60 1052.43 584.10 1360.38 587.68 1200.56 757.13 1088.51 918.66 1337.50 918.99
00006298 00000005 911.45 282.49 618.21 854.85 1055.67 579.91 1361.83 584.03 1203.76 755.79 1093.61 916.90 1332.94 917.72
00006299 00000006 915.57 278.79 618.37 847.02 1060.74 577.07 1363.62 583.02 1205.48 755.55 1098.97 910.13 1329.26 912.44
00006300 00000007 917.52 279.39 619.86 843.11 1062.20 580.24 1362.85 583.74 1208.08 758.63 1106.55 913.26 1329.84 913.03
00006301 00000008 919.85 281.16 619.97 844.42 1067.46 593.57 1361.27 592.46 1212.54 778.96 1119.18 924.42 1339.05 920.51
00006302 00000009 919.97 279.75 622.31 861.99 1065.74 604.70 1363.60 599.77 1212.32 791.34 1116.37 938.83 1345.68 932.08
00006303 00000010 928.19 278.27 617.77 889.15 1066.41 608.01 1370.02 598.84 1212.45 796.53 1119.07 956.35 1360.45 945.08
00006304 00000011 933.84 285.98 616.17 885.43 1074.86 606.64 1374.18 598.50 1214.93 793.13 1126.42 953.31 1363.79 942.42
00006305 00000012 936.06 285.27 621.88 846.44 1080.97 606.62 1373.90 601.91 1216.83 786.04 1131.63 932.06 1360.23 924.17
00006306 00000013 943.71 276.95 619.44 845.07 1084.23 608.77 1379.02 598.45 1220.28 792.62 1131.32 922.54 1363.73 915.27
00006307 00000014 946.68 282.31 620.94 856.25 1088.26 609.85 1382.35 599.73 1224.00 795.48 1135.98 929.21 1364.54 922.25
00006308 00000015 953.76 281.85 627.55 872.63 1093.13 610.92 1382.56 597.82 1227.83 797.42 1146.47 939.63 1371.75 930.41
00006309 00000016 957.52 276.33 625.58 886.02 1093.83 605.11 1389.46 590.22 1232.99 797.38 1153.79 946.98 1383.75 933.77
00006310 00000017 967.42 274.15 629.66 885.60 1101.06 611.80 1391.86 595.79 1235.11 799.90 1165.07 951.32 1384.24 939.04
00006311 00000018 974.25 274.76 633.76 864.09 1108.01 612.44 1399.51 597.26 1243.20 801.94 1174.44 942.65 1392.91 930.78
00006312 00000019 980.16 275.08 631.84 868.73 1114.31 610.87 1406.35 599.03 1246.53 802.10 1175.62 941.68 1394.99 932.38
00006313 00000020 989.02 281.84 623.55 855.02 1124.12 608.46 1414.30 598.69 1259.45 797.31 1178.56 931.78 1398.42 922.64
00006314 00000021 994.32 281.61 618.34 852.65 1127.05 608.29 1417.33 596.54 1263.81 795.16 1179.83 928.75 1404.75 917.31
00006315 00000022 995.78 278.42 620.26 848.98 1132.23 606.47 1418.94 597.61 1266.79 790.52 1181.94 924.64 1403.09 915.33
00006316 00000023 998.25 281.59 615.35 846.85 1135.59 605.13 1421.08 596.32 1270.10 789.27 1181.74 925.35 1401.83 916.42
00006317 00000024 998.70 280.66 615.36 844.48 1135.60 601.13 1421.62 594.37 1270.70 786.88 1182.99 923.28 1401.68 916.07
00006318 00000025 999.77 281.94 614.06 837.10 1135.39 597.10 1421.44 593.04 1268.58 782.72 1180.75 919.74 1398.98 914.74
00006319 00000026 999.10 279.34 612.97 838.28 1134.21 595.11 1419.57 592.30 1266.58 778.43 1176.73 912.66 1395.28 908.93
00006320 00000027 997.09 282.16 612.16 835.49 1132.79 595.12 1416.67 591.82 1263.35 775.83 1175.94 913.86 1393.79 909.93
00006321 00000028 994.86 279.77 616.34 847.49 1124.90 596.93 1414.76 588.17 1256.86 777.70 1175.18 921.92 1400.46 913.04
00006322 00000029 992.90 280.91 618.09 845.70 1123.28 596.93 1413.87 589.61 1253.71 777.54 1171.48 920.23 1396.90 912.76
00006323 00000030 991.47 278.20 618.57 840.81 1122.26 595.85 1412.23 593.01 1250.81 778.07 1166.05 916.78 1387.95 913.18
00006324 00000031 987.83 281.08 618.40 832.93 1121.02 592.92 1409.49 595.68 1246.51 775.00 1157.90 908.83 1379.34 910.06
00006325 00000032 983.89 278.04 618.33 838.41 1117.91 591.26 1408.40 595.78 1245.25 772.71 1152.29 908.40 1374.84 911.20
00006326 00000033 979.28 273.79 620.98 846.81 1116.18 590.56 1406.15 595.54 1244.27 772.41 1151.62 908.12 1374.65 911.23
00006327 00000034 976.62 272.94 620.24 848.32 1113.60 590.17 1403.86 593.40 1244.23 772.50 1150.40 908.35 1373.03 910.24
00006328 00000035 973.96 269.44 615.12 844.59 1108.13 591.15 1396.65 592.57 1230.31 761.17 1139.14 902.44 1363.89 905.01
00006329 00000036 974.03 270.28 611.38 827.30 1110.74 579.34 1404.00 586.89 1231.81 752.20 1132.47 886.03 1362.06 893.95
00006330 00000037 977.43 258.01 604.74 857.09 1110.79 573.90 1404.64 585.45 1223.44 741.77 1125.24 889.77 1356.68 900.74
00006331 00000038 978.99 260.74 605.24 850.14 1117.32 572.43 1407.91 591.82 1221.23 737.58 1121.92 882.64 1353.42 900.28
00006332 00000039 981.70 272.06 606.07 834.87 1121.89 577.28 1408.97 602.31 1219.77 749.15 1120.25 881.73 1343.35 904.46
00006333 DELETE   984.64 273.80 609.85 856.49 1120.73 585.19 1403.61 615.93 1219.20 777.42 1118.40 903.16 1329.81 929.35
00006334 00000041 982.91 281.33 612.86 866.69 1113.47 598.98 1402.98 625.02 1216.98 801.03 1121.50 930.70 1331.89 952.44
00006335 00000042 984.65 286.48 611.22 870.63 1112.13 617.93 1405.66 641.06 1220.50 818.60 1126.13 956.86 1337.34 976.15
00006336 00000043 986.72 298.52 611.64 862.74 1112.48 626.69 1408.62 654.07 1221.15 833.38 1124.70 964.71 1340.22 987.66
00006337 00000044 987.57 301.36 613.18 867.93 1112.61 633.72 1413.18 660.26 1221.55 841.74 1126.05 966.47 1353.86 988.46
00006338 00000045 987.10 301.84 619.65 871.10 1114.58 632.21 1416.24 660.00 1222.83 844.70 1127.04 961.30 1360.10 983.99
00006339 00000046 989.29 300.27 620.31 868.20 1117.86 627.41 1416.39 656.36 1224.33 844.81 1129.12 953.97 1363.92 977.40
00006340 00000047 990.52 298.73 620.70 863.72 1120.97 623.50 1416.69 654.33 1226.37 845.45 1130.04 947.65 1362.44 972.74
00006341 00000048 991.92 298.18 617.03 859.09 1121.72 622.49 1416.51 654.30 1226.74 846.62 1128.76 945.86 1355.96 972.13
00006342 00000049 992.40 294.15 617.24 860.85 1121.12 621.25 1416.13 651.70 1226.35 844.53 1131.76 948.12 1356.77 973.35
00006343 00000050 992.87 288.69 617.65 872.92 1121.38 622.39 1415.36 647.72 1230.54 841.84 1138.18 953.10 1361.08 974.10
00006344 00000051 992.89 288.47 617.78 879.16 1121.68 622.53 1416.51 645.55 1232.61 839.30 1138.60 954.19 1361.16 973.48
00006345 00000052 991.53 289.45 619.73 884.13 1120.19 622.00 1415.78 643.78 1231.88 839.30 1139.03 953.04 1368.85 970.92
00006346 00000053 989.64 290.16 620.09 886.86 1118.89 623.59 1414.55 643.39 1231.17 837.20 1138.31 953.12 1370.91 969.26
00006347 00000054 987.86 291.70 624.27 881.97 1115.25 625.62 1414.67 644.31 1228.66 839.49 1136.35 952.61 1376.88 967.43
00006348 00000055 984.06 293.48 624.49 875.54 1112.16 625.16 1413.23 643.95 1226.68 839.60 1134.53 951.03 1375.97 965.83
00006349 00000056 980.60 288.57 625.31 874.47 1109.94 623.64 1412.85 642.75 1227.32 838.38 1134.18 949.64 1374.71 964.70
00006350 00000057 976.63 289.06 628.27 871.07 1107.21 621.70 1411.11 640.18 1225.45 833.94 1132.80 946.61 1374.98 961.05
00006351 00000058 974.15 287.11 626.56 872.44 1106.30 620.01 1408.54 639.23 1224.50 832.25 1130.82 943.22 1373.47 958.34
00006352 00000059 970.02 284.48 630.94 878.71 1104.73 618.14 1405.74 636.49 1224.20 829.33 1129.84 942.67 1372.92 957.04
00006353 00000060 967.53 283.09 634.28 894.97 1103.76 616.90 1400.97 629.95 1223.93 823.91 1128.28 945.79 1375.97 955.65
00006354 00000061 963.87 274.81 637.11 902.19 1103.00 617.75 1398.34 623.33 1229.81 817.53 1130.12 940.40 1373.74 945.32
00006355 00000062 961.64 272.79 638.70 906.26 1101.81 615.29 1396.21 619.68 1229.84 813.25 1130.30 939.75 1373.88 943.75
00006356 00000063 960.05 270.73 639.47 912.15 1100.43 611.08 1393.33 616.09 1225.65 807.65 1127.40 937.52 1371.58 942.14
00006357 00000064 959.82 269.92 633.74 915.22 1094.56 604.35 1391.67 612.91 1217.24 808.65 1120.53 940.06 1372.57 946.31
00006358 00000065 957.26 271.80 632.54 920.02 1094.70 601.10 1390.69 604.57 1220.38 799.70 1129.81 934.72 1374.11 936.45
00006359 00000066 958.99 272.75 635.96 910.52 1092.01 600.13 1389.38 602.57 1216.89 800.78 1122.24 933.75 1380.81 934.15
00006360 00000067 961.07 267.89 637.39 902.77 1097.10 601.22 1391.31 596.20 1227.70 793.34 1138.06 930.39 1393.74 924.41
00006361 DELETE   962.10 272.73 649.49 885.04 1098.14 608.77 1401.82 587.12 1238.70 790.65 1159.32 934.37 1411.94 916.20
00006362 00000069 968.00 281.15 642.10 851.77 1109.20 600.56 1411.23 580.14 1261.57 778.43 1180.09 927.45 1417.67 907.81
00006363 00000070 964.99 281.17 644.47 847.92 1116.78 598.91 1415.89 577.20 1277.72 771.00 1191.79 922.78 1419.06 901.88
00006364 00000071 963.44 281.53 640.79 848.09 1113.93 592.17 1413.03 570.34 1274.75 762.61 1188.51 924.10 1407.01 903.34
00006365 00000072 961.90 280.91 634.81 840.16 1106.42 593.67 1398.42 565.88 1256.13 758.65 1179.23 918.40 1398.58 896.07
00006366 00000073 964.89 275.31 630.17 837.40 1102.27 585.14 1393.98 556.85 1250.66 744.48 1176.59 916.13 1389.99 894.06
00006367 00000074 970.73 270.14 627.23 861.08 1104.49 571.32 1401.29 542.65 1248.58 716.90 1168.93 911.83 1395.58 886.27
00006368 00000075 973.95 272.17 627.97 855.98 1103.78 564.54 1407.85 533.90 1248.46 706.30 1168.08 902.04 1415.82 874.02
00006369 00000076 977.33 279.42 625.79 833.16 1108.10 554.71 1411.90 530.53 1249.92 699.91 1164.48 883.76 1417.13 861.04
00006370 00000077 981.53 284.41 623.54 825.44 1113.68 551.14 1415.10 529.01 1253.13 696.13 1165.19 875.41 1419.75 854.19
00006371 00000078 986.58 275.56 615.38 830.30 1116.30 565.91 1416.08 544.86 1255.43 706.23 1164.52 880.11 1423.62 860.06
00006372 00000079 980.60 270.46 629.02 836.39 1116.21 573.55 1420.47 558.80 1253.71 738.10 1164.40 883.24 1424.52 870.57
00006373 00000080 977.57 268.02 631.74 849.96 1118.16 587.92 1421.90 576.38 1252.57 756.83 1162.45 892.97 1418.91 883.28
00006374 00000081 976.80 264.04 634.35 855.11 1114.71 593.79 1417.90 583.50 1247.16 764.02 1158.38 897.66 1414.20 888.98
00006375 00000082 979.67 261.98 634.37 860.26 1111.75 597.02 1412.47 585.46 1240.00 769.16 1156.84 903.29 1410.57 893.53
00006376 00000083 987.47 265.80 624.14 869.23 1114.75 588.50 1414.51 583.16 1243.69 764.64 1159.68 909.99 1409.44 902.96
00006377 00000084 990.48 262.53 621.68 880.04 1119.71 581.55 1418.08 579.46 1246.61 767.34 1162.21 917.63 1394.24 914.38
00006378 00000085 990.08 263.73 621.04 871.94 1122.43 582.39 1418.58 581.75 1251.34 769.24 1166.16 915.94 1390.10 914.07
00006379 00000086 991.83 267.00 622.08 863.24 1123.96 584.75 1420.00 586.84 1252.32 774.70 1166.57 915.18 1389.79 915.56
00006380 00000087 994.29 275.99 619.46 856.26 1127.95 587.84 1418.91 591.00 1252.06 787.78 1170.41 920.29 1383.90 922.02
00006381 00000088 996.49 280.66 618.63 863.42 1126.63 605.73 1418.32 608.86 1249.33 806.13 1166.32 936.06 1383.25 938.22
00006382 00000089 996.24 286.64 617.82 874.50 1123.12 615.43 1416.29 614.10 1247.23 814.42 1168.98 949.03 1390.94 947.52
00006383 00000090 995.88 286.18 618.35 873.36 1122.83 615.09 1416.87 616.91 1245.34 816.45 1165.97 948.86 1384.14 950.17
00006384 00000091 997.85 283.69 617.07 867.90 1122.30 612.80 1418.44 618.50 1243.53 816.82 1161.18 948.59 1380.03 953.01
00006385 00000092 999.04 281.67 616.47 861.47 1125.76 614.04 1419.54 624.39 1244.15 817.30 1157.51 947.72 1375.36 955.78
00006386 00000093 1001.12 282.19 615.18 865.74 1131.28 615.73 1423.87 630.12 1248.67 821.85 1157.11 947.27 1377.56 958.73
00006387 00000094 1004.00 293.24 613.31 875.04 1138.04 621.97 1427.56 640.91 1251.68 836.72 1157.36 952.00 1377.08 968.10
00006388 00000095 1003.71 303.16 614.69 882.07 1134.46 636.68 1431.89 657.18 1251.07 860.22 1160.41 976.25 1379.42 993.46
00006389 00000096 1001.90 305.07 612.26 898.63 1135.04 651.10 1432.27 669.80 1252.70 865.94 1161.97 995.81 1375.68 1011.69
00006390 00000097 1009.26 299.10 608.94 905.57 1140.13 654.77 1431.99 665.96 1259.13 865.62 1173.81 998.54 1371.65 1010.86
00006391 00000098 999.70 301.84 612.87 914.41 1127.66 655.63 1427.65 668.96 1247.06 870.24 1160.36 1006.59 1377.67 1018.16
00006392 00000099 995.58 299.87 618.91 908.89 1126.96 651.47 1429.84 667.97 1247.55 868.22 1153.95 996.27 1379.28 1010.21
00006393 00000100 990.11 300.53 628.85 914.43 1124.30 646.57 1431.22 664.17 1244.85 867.94 1149.31 986.66 1388.75 1001.49
00006394 00000101 988.73 303.28 633.48 915.34 1122.86 646.26 1430.87 660.49 1245.40 866.89 1150.35 986.71 1397.98 998.28
00006395 00000102 989.27 305.16 630.22 903.85 1121.82 645.30 1429.01 659.60 1245.20 865.52 1151.33 984.78 1393.64 996.76
00006396 00000103 989.39 306.54 628.21 885.55 1116.92 642.30 1428.40 655.41 1243.02 860.52 1150.01 980.78 1394.57 991.74
00006397 00000104 987.36 302.69 628.98 886.20 1116.15 639.63 1427.06 652.03 1243.23 859.95 1151.77 979.43 1393.11 990.04
00006398 00000105 984.49 300.43 629.22 887.15 1115.40 638.77 1424.50 649.84 1244.05 855.64 1151.52 974.04 1396.90 983.42
00006399 00000106 981.45 300.58 631.58 885.29 1114.80 639.24 1423.23 651.98 1242.73 855.14 1146.91 971.07 1392.97 981.91
00006400 00000107 981.63 304.58 632.71 878.29 1115.42 636.60 1423.82 651.16 1242.22 853.12 1144.69 966.49 1392.23 978.91
00006401 00000108 982.46 303.27 633.65 879.48 1114.53 638.57 1425.66 653.04 1242.34 855.49 1145.52 970.72 1394.25 982.95
00006402 00000109 982.39 303.05 631.97 884.73 1113.89 639.44 1423.59 652.50 1241.50 857.84 1147.24 975.08 1393.49 986.32
00006403 00000110 980.09 299.32 636.28 898.30 1113.11 638.09 1424.38 650.88 1240.92 860.33 1147.59 977.26 1398.07 987.97
00006404 00000111 976.69 298.10 638.67 903.89 1115.62 639.57 1420.14 649.02 1244.69 857.26 1150.24 971.46 1401.85 979.11
00006405 00000112 975.13 297.64 636.49 919.65 1123.59 649.49 1417.24 655.55 1252.13 852.91 1155.19 972.32 1411.04 976.57
00006406 DELETE   976.68 304.55 634.36 890.22 1127.26 650.71 1424.59 651.57 1262.82 836.63 1163.66 967.60 1412.21 968.23
00006407 DELETE   978.04 302.28 632.92 873.06 1133.14 643.31 1432.04 631.60 1281.69 819.41 1179.00 954.58 1432.01 944.19
00006408 00000115 970.82 300.69 636.23 860.62 1131.16 627.68 1428.95 605.11 1289.55 803.87 1195.44 948.87 1433.54 928.98
00006409 DELETE   959.44 283.37 645.15 890.77 1122.43 616.47 1415.48 592.76 1282.18 790.81 1181.69 933.16 1439.02 911.84
00006410 DELETE   956.88 281.26 644.60 882.08 1108.40 610.33 1403.41 585.51 1264.48 779.93 1168.76 923.33 1429.73 900.33
00006411 DELETE   956.90 280.67 633.76 887.50 1099.17 601.92 1392.34 572.31 1241.38 764.52 1159.82 920.24 1411.48 890.98
00006412 00000119 957.88 266.44 628.94 888.07 1095.80 596.48 1389.48 568.14 1237.42 763.04 1156.05 915.70 1404.83 887.54
00006413 00000120 959.29 263.53 621.93 851.16 1084.83 587.41 1390.57 562.98 1227.71 754.25 1143.64 905.17 1401.09 885.27
00006414 00000121 958.82 264.82 619.97 840.11 1085.48 581.72 1390.80 561.10 1226.21 753.37 1143.52 898.16 1397.64 881.45
00006415 00000122 959.98 264.64 620.59 845.34 1086.96 580.08 1390.21 562.59 1222.61 754.15 1138.22 894.06 1398.04 879.69
00006416 00000123 961.66 261.94 619.41 850.49 1089.08 583.06 1392.67 570.56 1223.09 755.58 1132.93 897.06 1392.13 887.08
00006417 00000124 963.07 264.64 625.75 874.53 1094.42 593.05 1391.67 580.37 1223.95 769.14 1136.69 912.06 1392.35 901.66
00006418 00000125 957.64 274.38 630.53 889.19 1097.19 599.36 1393.53 593.26 1228.61 791.54 1143.75 922.09 1389.68 914.01
00006419 00000126 958.66 271.38 641.08 896.20 1095.16 608.01 1395.46 603.62 1226.09 803.33 1134.23 936.78 1384.91 934.06
00006420 00000127 959.73 281.18 639.57 881.94 1094.08 616.85 1396.53 608.06 1226.84 809.20 1136.23 942.86 1385.47 936.73
00006421 00000128 959.03 278.34 639.20 891.57 1095.10 620.43 1394.26 610.27 1228.75 812.63 1137.45 944.92 1387.72 937.63
00006422 00000129 958.81 279.82 641.10 891.50 1094.56 620.14 1395.15 608.96 1228.16 814.00 1139.61 946.08 1391.60 937.83
00006423 00000130 955.82 283.50 640.35 884.19 1092.69 610.18 1399.13 611.32 1227.72 820.13 1133.82 938.94 1391.25 938.42
00006424 00000131 955.67 282.36 638.56 889.33 1095.60 609.23 1397.04 609.71 1230.20 817.57 1133.73 936.71 1391.74 935.81
00006425 00000132 954.96 284.26 644.42 892.11 1096.45 609.11 1397.03 608.47 1231.06 817.69 1135.77 933.72 1398.50 931.54
00006426 00000133 954.89 284.41 645.34 890.38 1097.60 609.53 1396.93 609.71 1232.14 816.92 1136.20 932.00 1398.07 930.47
00006427 00000134 955.22 284.10 645.43 894.46 1097.96 609.91 1396.38 610.37 1231.58 815.48 1134.37 933.73 1394.40 932.71
00006428 00000135 954.00 283.54 645.23 898.63 1099.10 612.85 1395.62 610.81 1233.70 812.85 1135.63 935.90 1395.22 932.82
00006429 00000136 951.27 288.99 638.50 909.97 1105.45 617.83 1398.16 616.47 1239.40 806.23 1141.32 931.92 1388.38 927.75
00006430 00000137 951.13 291.17 639.15 913.94 1103.72 620.33 1398.96 618.29 1238.24 809.61 1140.89 935.17 1392.75 930.28
00006431 00000138 951.00 284.64 641.52 922.21 1103.17 619.40 1397.36 617.17 1238.20 811.81 1139.48 936.32 1390.11 931.34
00006432 00000139 951.35 285.62 645.42 918.92 1102.97 617.96 1397.48 615.22 1237.30 811.02 1139.69 933.91 1387.42 928.96
00006433 00000140 951.70 278.72 645.98 918.58 1101.66 617.83 1398.10 616.30 1236.10 812.75 1137.76 930.04 1389.13 925.80
00006434 00000141 952.80 284.81 645.80 909.66 1106.94 623.10 1401.01 627.01 1235.96 813.57 1138.48 926.83 1393.79 926.19
00006435 00000142 958.47 291.22 646.52 895.68 1111.90 632.68 1404.18 635.66 1239.05 820.21 1139.06 931.86 1407.68 931.81
00006436 00000143 964.44 297.96 643.36 886.76 1112.26 637.23 1407.79 640.38 1237.73 823.70 1140.54 938.58 1404.43 939.28
00006437 00000144 968.66 291.63 636.94 868.18 1108.95 625.28 1411.43 639.16 1229.42 824.19 1137.27 934.91 1392.59 944.49
00006438 DELETE   965.48 280.91 635.70 870.20 1113.96 606.65 1407.25 635.94 1224.92 807.53 1125.37 914.42 1371.17 936.75
00006439 DELETE   965.92 275.89 637.78 873.96 1124.76 587.30 1413.05 618.81 1229.39 775.61 1120.92 895.08 1366.51 919.94
00006440 DELETE   975.18 278.96 634.63 862.96 1125.11 564.72 1414.87 601.09 1222.12 745.20 1114.49 878.41 1367.08 907.49
00006441 00000148 981.85 280.00 633.03 863.56 1128.03 552.26 1421.64 587.99 1227.80 741.11 1115.79 876.50 1371.96 905.39
00006442 00000149 994.80 283.71 624.88 836.72 1134.57 550.22 1428.02 590.46 1232.46 745.31 1129.37 869.58 1368.30 902.43
00006443 00000150 1001.08 283.51 623.71 823.80 1142.33 550.84 1430.30 592.32 1240.21 750.71 1133.46 856.17 1366.39 890.08
00006444 00000151 1002.93 284.02 621.73 817.32 1143.63 555.37 1431.82 596.50 1243.88 757.96 1137.18 859.04 1371.22 892.70
00006445 00000152 1004.90 284.22 622.98 823.68 1142.40 558.46 1434.42 597.55 1242.50 758.92 1134.86 866.08 1379.56 897.71
00006446 00000153 1005.05 284.30 623.28 835.96 1142.71 560.32 1436.68 598.06 1243.25 758.13 1138.31 875.44 1382.67 905.72
00006447 00000154 1002.44 279.63 629.12 859.65 1142.29 562.93 1438.72 596.91 1248.41 758.03 1141.34 888.07 1389.62 914.93
00006448 00000155 1001.11 279.42 629.50 867.28 1141.73 564.84 1437.82 594.95 1250.14 758.69 1143.61 889.21 1397.80 912.40
00006449 00000156 1001.29 279.36 627.02 863.07 1142.45 564.65 1435.31 596.87 1248.29 760.98 1140.99 884.08 1395.26 909.21
00006450 00000157 1002.93 277.32 623.39 848.95 1138.87 566.25 1433.31 598.33 1244.25 762.13 1138.98 881.54 1390.51 906.99
00006451 00000158 1003.16 275.19 622.96 837.35 1137.13 567.35 1431.99 599.18 1243.11 761.40 1137.51 877.83 1387.37 903.04
00006452 00000159 1001.35 277.01 623.20 832.80 1136.82 567.12 1431.33 599.12 1243.80 761.35 1137.23 876.46 1386.83 901.85
00006453 00000160 1000.45 277.18 622.69 832.81 1135.14 567.20 1428.93 598.33 1242.40 760.92 1136.80 875.18 1386.45 899.79
00006454 00000161 997.32 273.05 623.41 840.47 1134.53 568.44 1428.07 600.20 1242.42 760.31 1134.89 875.69 1384.95 900.86
00006455 00000162 993.30 279.88 622.36 836.97 1132.72 565.37 1425.84 594.43 1242.10 758.36 1135.07 872.93 1386.67 895.96
00006456 00000163 988.79 278.35 620.84 837.39 1126.59 557.04 1419.34 583.16 1235.90 746.86 1133.56 868.55 1385.44 888.92
