Video ID: 	2vx9QuLmIFc
H: 	1080
W: 	1920
FPS: 	25.0

FRAME INDEX X0 Y0 W H [Landmarks (5 Points)]

00009280 00000000 599.70 288.13 444.68 596.87 755.35 518.61 958.20 483.57 906.88 636.27 815.31 746.72 980.01 714.88
00009281 00000001 598.58 289.94 445.77 598.54 754.78 520.74 956.70 485.14 905.97 638.16 814.27 747.92 980.01 715.84
00009282 00000002 598.49 290.64 445.67 598.36 754.58 520.71 956.69 483.75 905.91 637.14 815.51 749.43 979.61 716.24
00009283 00000003 599.47 287.34 444.93 600.44 754.82 518.75 955.14 480.56 904.47 633.88 817.18 748.89 976.03 714.63
00009284 00000004 601.10 283.38 442.11 601.96 756.77 514.09 952.25 476.18 903.72 628.03 819.30 747.08 970.25 713.05
00009285 00000005 600.44 279.49 440.29 608.24 754.54 509.57 950.68 469.93 903.91 620.59 824.03 750.64 972.10 714.74
00009286 00000006 599.63 272.47 439.93 615.69 754.78 503.82 947.71 463.45 901.89 611.27 824.51 748.58 969.75 711.81
00009287 00000007 594.67 271.59 442.67 614.24 753.50 499.70 944.97 459.73 902.14 605.82 824.45 744.44 968.75 708.14
00009288 00000008 591.48 259.22 444.72 623.54 751.70 494.43 938.37 455.51 897.42 598.07 821.19 738.95 963.91 703.22
00009289 00000009 586.78 258.06 445.83 619.03 749.14 491.38 935.40 452.91 895.00 595.40 820.91 733.14 962.37 697.72
00009290 00000010 579.76 238.48 445.56 631.72 740.82 484.89 924.63 450.03 883.08 592.41 809.58 722.76 954.24 693.28
00009291 DELETE   577.40 239.17 446.73 623.20 735.08 473.59 921.32 440.33 878.23 579.97 802.98 711.74 952.91 683.54
00009292 00000012 573.56 238.44 443.20 619.63 730.39 463.73 916.06 430.84 873.18 571.39 798.97 703.26 948.82 674.95
00009293 00000013 572.51 227.98 440.20 625.82 720.98 459.63 911.03 427.21 863.46 562.41 793.49 701.50 944.04 673.15
00009294 00000014 569.85 228.85 442.33 617.36 714.25 452.32 909.61 417.50 860.77 551.09 791.49 696.03 946.13 665.19
00009295 00000015 565.79 223.45 441.16 618.40 710.50 447.33 907.15 413.23 857.22 543.43 787.47 691.34 943.96 660.66
00009296 00000016 564.53 218.77 440.32 616.17 708.11 445.84 905.19 411.55 852.47 540.19 784.05 686.45 939.82 655.46
00009297 00000017 558.92 223.69 445.18 602.27 710.59 453.70 909.30 413.80 858.77 546.47 779.82 682.88 938.37 646.15
00009298 00000018 560.13 222.54 443.36 597.49 713.48 453.47 909.90 411.92 862.27 544.56 784.30 681.72 939.39 643.79
00009299 00000019 559.83 223.54 444.31 595.44 715.05 451.92 910.83 408.20 866.77 542.08 786.95 681.86 940.44 642.24
00009300 00000020 568.46 216.40 441.82 609.68 716.12 445.08 910.26 405.67 862.28 536.32 794.05 680.24 946.08 645.01
00009301 00000021 569.48 216.64 441.75 606.70 717.02 445.07 910.30 404.91 863.10 535.33 796.21 679.21 945.90 643.44
00009302 00000022 571.02 215.23 441.37 603.79 720.90 447.18 910.20 404.88 867.20 533.60 802.06 677.81 949.30 640.19
00009303 00000023 572.01 217.18 440.03 602.70 724.78 446.60 912.13 405.85 871.36 534.48 807.62 678.86 950.83 642.75
00009304 00000024 570.83 220.14 442.57 607.40 724.14 446.80 912.68 405.85 870.95 534.32 806.62 681.57 951.89 645.09
00009305 00000025 570.94 221.39 443.33 607.06 723.04 449.75 914.31 407.00 869.86 537.01 804.95 682.84 953.76 644.69
00009306 00000026 572.37 220.02 444.33 605.82 724.38 453.64 918.16 408.50 873.09 539.75 806.13 682.32 959.24 642.08
00009307 00000027 571.06 218.36 445.08 604.30 723.71 456.85 919.24 412.37 874.73 543.40 805.39 682.88 959.49 643.24
00009308 00000028 571.58 220.72 444.90 604.03 724.69 460.54 915.61 414.58 874.13 547.17 805.38 683.31 959.72 642.55
00009309 00000029 570.07 224.28 444.38 599.35 723.52 464.58 914.52 417.75 874.66 551.26 803.20 684.68 958.84 643.52
00009310 00000030 568.30 229.80 444.34 595.28 720.26 464.10 913.24 417.17 870.84 550.61 802.29 686.58 959.36 645.29
00009311 00000031 567.25 229.22 443.98 596.62 717.39 462.64 910.53 414.41 867.19 548.96 801.12 686.51 957.84 644.29
00009312 00000032 567.31 233.59 445.03 591.30 715.99 460.69 910.36 411.49 865.02 549.12 802.14 685.34 956.86 642.45
00009313 00000033 566.95 235.04 446.71 588.61 715.99 462.56 911.45 412.15 865.95 551.39 803.93 685.78 959.15 641.80
00009314 00000034 568.92 233.95 444.76 591.82 717.76 467.92 906.23 414.30 865.80 556.85 807.31 688.14 959.82 641.47
00009315 00000035 569.09 239.08 443.76 593.66 717.51 473.88 904.58 419.30 868.37 565.72 810.17 694.70 960.27 647.51
00009316 00000036 565.33 242.37 445.94 597.62 716.11 481.40 906.26 427.01 869.08 576.19 806.51 701.49 958.96 655.32
00009317 00000037 562.41 247.90 448.32 598.76 715.28 490.53 905.93 434.21 869.21 585.87 805.04 709.80 957.08 662.62
00009318 00000038 560.67 253.55 447.52 599.61 716.81 501.66 903.96 445.85 870.46 593.92 807.30 717.90 955.92 671.33
00009319 00000039 560.35 259.47 447.96 600.27 714.23 507.52 903.63 453.27 868.40 601.49 806.94 725.53 956.05 680.41
00009320 DELETE   561.65 276.09 446.86 591.33 720.20 504.20 909.50 447.78 878.41 600.30 810.41 735.86 962.93 686.16
00009321 00000041 562.61 285.98 443.38 589.50 718.33 506.65 910.73 454.23 875.29 606.77 805.56 741.25 955.82 694.99
00009322 DELETE   567.38 292.16 440.02 599.91 717.37 512.56 910.07 464.52 868.83 617.52 803.12 753.87 950.73 711.45
00009323 00000043 564.09 294.10 444.87 606.31 717.35 524.37 908.09 473.36 871.41 628.15 801.59 761.28 953.95 716.44
00009324 00000044 564.06 298.02 446.75 605.05 717.35 536.48 906.03 486.25 868.90 638.27 798.92 764.48 952.67 720.71
00009325 00000045 564.27 305.67 446.99 598.65 714.83 540.00 906.93 488.63 867.78 645.34 798.12 767.88 955.29 723.55
00009326 00000046 562.32 305.12 448.11 595.66 713.13 541.49 905.03 488.76 865.99 643.61 798.16 766.94 953.59 721.43
00009327 00000047 561.48 301.97 448.17 594.35 711.75 540.01 904.68 487.40 864.67 644.37 795.95 765.48 952.02 720.13
00009328 00000048 558.12 298.93 450.41 598.51 709.02 534.47 903.59 484.07 860.52 640.01 793.47 763.90 947.59 720.15
00009329 00000049 559.04 298.32 447.09 594.11 709.10 531.11 904.83 481.71 860.79 631.41 790.79 760.51 946.35 717.62
00009330 00000050 550.95 292.76 451.32 591.31 706.22 526.48 907.76 474.32 862.14 630.14 780.01 754.88 939.22 707.91
00009331 00000051 547.78 287.44 452.31 593.16 706.88 520.24 907.34 468.49 863.36 625.54 778.04 750.83 938.27 704.14
00009332 00000052 547.46 286.97 450.41 584.03 705.28 519.23 906.72 467.83 861.88 627.05 774.64 746.76 936.11 700.33
00009333 00000053 546.16 286.23 452.23 582.53 705.23 518.36 906.03 465.79 861.02 626.97 774.28 744.47 935.80 697.09
00009334 00000054 545.28 287.81 452.84 585.76 703.11 518.82 903.66 465.71 857.89 626.41 772.39 745.64 934.21 697.87
00009335 00000055 545.43 283.56 450.03 589.00 702.25 520.77 900.46 465.03 855.79 624.67 772.94 746.11 932.43 696.10
00009336 00000056 543.91 279.37 448.14 588.72 701.11 517.73 899.38 460.75 855.12 619.76 773.30 743.22 931.36 691.98
00009337 00000057 543.55 279.61 445.01 591.08 699.04 514.59 896.42 458.55 852.76 617.23 771.53 742.10 929.29 691.78
00009338 00000058 541.52 279.59 446.12 594.97 696.94 511.00 893.94 454.72 850.92 614.80 772.34 743.53 926.84 692.86
00009339 00000059 541.12 283.84 446.15 591.82 695.09 509.39 894.32 456.24 849.83 614.97 771.07 746.03 924.83 697.96
00009340 00000060 543.07 280.64 445.74 594.77 697.60 510.37 896.54 456.81 851.78 615.48 770.98 744.05 927.28 695.50
00009341 00000061 547.68 274.06 444.56 598.27 702.87 517.36 902.19 464.21 856.47 621.55 772.15 746.08 931.93 698.08
00009342 00000062 550.45 283.09 446.44 588.94 707.12 517.09 907.71 466.40 862.17 624.60 775.53 745.52 936.75 699.39
00009343 00000063 553.68 283.40 446.95 591.23 708.74 518.18 911.47 468.77 867.11 625.67 778.02 747.61 941.82 702.71
00009344 00000064 553.86 284.10 447.51 594.29 709.96 518.12 911.35 468.07 868.59 624.54 778.82 746.76 941.88 701.43
00009345 00000065 556.34 284.67 444.66 593.00 711.48 518.02 911.19 469.59 868.93 620.68 779.70 748.17 940.79 704.41
00009346 00000066 555.63 276.70 446.97 598.63 710.85 513.96 911.18 463.53 868.72 618.09 779.48 745.05 941.46 699.28
00009347 00000067 557.80 279.42 445.61 591.43 711.08 512.95 910.75 461.56 869.65 614.90 780.06 741.31 940.74 695.15
00009348 00000068 556.77 278.37 445.79 592.32 709.52 512.13 910.62 461.74 867.46 617.68 777.68 741.49 939.07 696.35
00009349 00000069 555.47 280.97 444.54 594.27 709.24 512.60 910.87 466.85 864.64 622.27 775.68 745.27 936.22 703.68
00009350 00000070 553.82 281.83 446.02 593.94 709.37 513.98 909.75 469.08 862.95 625.39 774.53 745.49 933.50 704.61
00009351 00000071 551.53 284.87 446.93 590.96 706.09 512.24 908.12 466.00 858.63 624.58 772.07 744.52 932.26 702.18
00009352 00000072 547.20 275.39 447.85 595.22 703.85 509.48 905.42 460.26 857.74 619.10 770.39 741.24 927.99 696.77
00009353 00000073 544.52 274.10 447.81 598.21 701.27 505.49 900.95 457.43 854.40 614.36 769.32 738.59 924.42 694.95
00009354 00000074 545.08 278.98 444.55 593.65 702.79 507.20 902.19 461.51 855.13 617.89 769.62 741.13 922.92 699.66
00009355 00000075 546.94 280.18 444.37 596.67 702.90 510.47 903.59 465.56 854.18 621.13 770.83 746.79 925.35 705.68
00009356 00000076 549.61 282.98 444.24 594.25 705.62 514.03 906.49 469.88 856.60 625.33 773.44 749.14 928.91 708.29
00009357 00000077 550.98 283.66 445.23 596.24 706.19 513.96 908.35 471.11 857.70 628.25 773.42 749.77 930.86 710.05
00009358 00000078 553.15 284.37 444.26 594.65 708.03 514.70 908.52 471.68 860.35 627.29 776.24 748.39 933.42 708.60
00009359 00000079 554.74 279.48 443.66 595.48 707.34 511.70 910.20 468.73 862.04 626.19 775.87 746.34 934.48 706.80
00009360 00000080 558.36 277.11 440.99 593.27 708.47 512.29 911.04 470.15 862.67 626.93 777.00 746.78 933.64 707.91
00009361 00000081 559.31 280.78 443.41 591.80 710.24 511.97 913.10 469.80 865.55 626.05 778.64 746.91 936.07 708.04
00009362 00000082 559.68 285.45 446.97 588.38 711.22 510.43 914.86 468.43 867.25 624.07 778.29 744.98 938.27 706.34
00009363 00000083 561.16 281.82 445.54 591.36 712.03 507.72 915.91 466.10 868.65 621.09 778.47 742.46 937.34 704.50
00009364 00000084 561.31 281.45 448.68 590.23 713.15 506.03 918.29 464.85 869.79 620.63 778.83 739.77 937.79 702.16
00009365 00000085 562.82 281.65 448.20 588.94 714.33 506.52 918.90 464.18 870.75 620.42 779.09 738.05 938.79 699.38
00009366 00000086 563.45 279.03 449.50 591.37 715.70 507.27 920.23 463.82 872.81 620.32 780.35 737.60 940.28 697.97
00009367 00000087 569.87 278.46 443.53 598.94 723.27 498.15 923.76 460.17 874.93 613.72 793.62 737.97 948.02 703.91
00009368 00000088 572.32 278.26 444.19 599.63 726.67 497.80 927.15 459.32 878.36 613.07 797.60 736.57 952.48 701.78
00009369 00000089 572.97 279.95 445.89 597.68 728.47 498.48 929.50 458.96 881.27 613.74 798.99 736.16 955.74 700.67
00009370 00000090 574.05 275.17 447.17 604.28 731.15 500.87 930.74 460.71 884.38 613.95 800.93 736.87 958.10 700.74
00009371 00000091 576.95 275.61 446.34 607.48 732.74 501.51 931.97 462.47 885.81 613.51 801.56 739.54 958.15 704.29
00009372 00000092 576.97 275.98 446.68 607.96 733.43 501.05 933.48 463.35 886.60 613.05 802.64 741.80 958.34 707.55
00009373 00000093 574.92 275.33 447.75 605.57 734.38 500.35 931.91 461.84 888.06 608.82 803.59 740.27 957.71 705.60
00009374 00000094 574.63 269.57 448.04 607.27 737.04 498.87 929.74 461.76 887.92 604.98 803.85 735.20 957.29 701.48
00009375 00000095 573.92 271.86 447.88 607.72 736.55 497.12 930.74 462.57 888.33 604.99 802.11 736.38 957.63 704.61
00009376 00000096 573.02 274.21 451.57 616.12 732.95 499.91 931.00 462.87 888.50 610.90 795.53 739.52 960.75 705.60
00009377 00000097 575.42 276.13 449.22 615.87 731.27 501.27 932.38 464.97 885.49 615.34 796.94 741.02 961.35 707.49
00009378 00000098 578.44 274.56 445.04 619.59 727.69 505.47 931.94 468.96 880.97 622.58 799.69 748.72 956.41 715.16
00009379 00000099 576.69 274.11 447.25 624.26 727.76 512.88 929.35 474.23 881.56 629.23 803.97 755.52 959.95 720.22
00009380 00000100 577.05 283.85 446.57 619.45 730.41 516.95 928.19 479.72 881.90 636.11 806.90 761.63 957.00 728.07
00009381 00000101 577.01 294.44 446.16 615.82 730.11 520.23 929.12 483.49 881.63 644.79 806.87 767.48 958.66 734.71
00009382 00000102 577.62 299.99 447.91 612.45 731.04 527.51 931.10 487.02 883.89 649.96 806.10 769.60 964.88 733.86
00009383 00000103 578.14 301.71 448.84 614.23 735.42 538.46 930.95 496.97 885.08 658.49 805.86 774.76 963.94 738.64
00009384 00000104 577.16 299.81 451.39 623.65 735.36 551.14 929.64 508.37 882.18 672.39 805.17 784.06 962.71 746.95
CROP_BBOX: 289 0 1406 1080
