Video ID: 	zhCoO7i0aOc
H: 	2160
W: 	3840
FPS: 	23.976023976023978

FRAME INDEX X0 Y0 W H [Landmarks (5 Points)]

00001275 00000000 1695.80 192.80 717.83 1113.63 2139.84 629.63 2346.90 650.55 2379.22 847.15 2163.45 1041.21 2299.18 1058.81
00001276 00000001 1731.57 199.14 699.11 1105.77 2159.65 632.18 2379.98 661.17 2402.03 861.02 2176.29 1037.88 2322.59 1064.59
00001277 00000002 1729.76 207.07 700.68 1101.92 2179.73 625.71 2394.08 659.75 2418.73 875.52 2186.56 1050.77 2335.28 1079.31
00001278 00000003 1742.72 201.20 705.20 1111.65 2169.08 646.78 2413.97 682.30 2426.05 873.52 2185.53 1051.68 2347.38 1083.78
00001279 00000004 1748.72 209.68 704.91 1108.82 2162.97 671.43 2418.42 700.39 2415.26 876.11 2177.03 1062.28 2352.68 1089.31
00001280 00000005 1743.09 216.90 712.58 1118.47 2142.59 674.29 2417.35 687.07 2398.59 886.55 2157.28 1073.60 2351.38 1086.47
00001281 00000006 1736.21 222.62 712.76 1094.60 2117.30 677.11 2404.68 678.06 2377.62 895.94 2159.04 1081.11 2352.78 1082.88
00001282 00000007 1733.02 226.49 715.29 1091.11 2105.77 678.29 2397.51 667.97 2370.46 889.99 2157.08 1079.12 2361.89 1071.46
00001283 DELETE   1724.38 225.48 716.75 1084.06 2077.90 681.03 2379.74 666.21 2336.29 886.40 2131.77 1074.15 2346.29 1063.10
00001284 00000009 1703.99 219.55 720.04 1095.34 2051.66 685.79 2347.24 669.48 2299.70 888.98 2110.11 1072.59 2320.62 1060.46
00001285 00000010 1687.75 222.99 727.89 1092.64 2034.18 678.22 2332.60 672.50 2284.54 881.43 2089.31 1070.95 2296.72 1068.20
00001286 DELETE   1670.41 222.54 739.55 1086.30 2012.07 671.55 2318.04 673.66 2258.22 876.65 2060.76 1056.73 2280.90 1061.37
00001287 00000012 1656.73 226.54 738.88 1070.69 1997.45 657.53 2305.06 663.95 2238.94 861.94 2040.20 1045.09 2264.34 1052.82
00001288 00000013 1649.88 223.33 738.93 1066.35 1984.85 642.00 2304.95 654.01 2235.17 854.70 2015.05 1048.79 2261.06 1061.05
00001289 00000014 1641.36 217.90 737.87 1093.37 1970.81 641.12 2293.09 652.01 2232.90 855.20 1991.28 1047.86 2248.28 1059.96
00001290 00000015 1625.82 212.12 739.52 1122.49 1965.76 637.61 2280.70 647.41 2233.34 855.25 1971.63 1051.23 2229.64 1064.75
00001291 00000016 1615.12 209.00 738.91 1125.44 1964.06 630.84 2274.37 643.76 2231.35 853.80 1958.53 1043.70 2211.34 1060.81
00001292 00000017 1611.60 201.08 740.01 1117.40 1959.01 627.54 2273.02 643.72 2224.12 854.68 1957.22 1039.60 2205.17 1059.15
00001293 00000018 1605.24 199.45 736.93 1117.80 1961.79 623.05 2270.68 649.74 2224.93 852.35 1958.85 1033.61 2202.71 1061.30
00001294 00000019 1596.61 199.48 741.48 1105.39 1970.90 618.98 2274.70 652.89 2227.33 845.16 1976.83 1031.05 2200.15 1063.35
00001295 00000020 1593.74 192.18 737.73 1104.94 1981.65 623.54 2280.10 659.12 2243.55 836.37 2000.04 1027.51 2215.84 1059.70
00001296 00000021 1600.23 192.03 737.12 1109.19 2006.51 623.46 2296.29 658.10 2263.69 841.35 2010.38 1025.47 2226.15 1057.47
00001297 00000022 1617.07 186.59 731.23 1116.00 2026.46 614.71 2308.65 652.95 2287.25 852.72 2021.09 1031.93 2225.92 1067.89
00001298 00000023 1628.25 201.33 724.65 1127.11 2045.79 619.10 2313.76 658.62 2300.57 873.26 2022.68 1049.45 2213.83 1087.87
00001299 00000024 1640.32 221.85 720.41 1112.71 2052.57 635.21 2323.78 661.51 2311.61 897.57 2029.68 1062.42 2226.90 1090.56
00001300 00000025 1650.90 231.97 717.63 1099.35 2055.39 643.10 2326.96 663.68 2310.37 905.23 2040.83 1069.96 2234.58 1092.67
00001301 00000026 1657.64 238.05 712.90 1091.74 2048.58 642.24 2330.06 665.84 2305.24 902.50 2044.04 1073.01 2243.35 1097.14
00001302 00000027 1653.92 232.82 719.04 1085.66 2038.45 646.28 2330.37 656.70 2301.21 902.07 2047.93 1076.10 2251.63 1089.71
00001303 00000028 1655.81 239.98 725.90 1079.85 2025.83 647.45 2332.90 659.17 2289.63 895.39 2052.95 1080.23 2267.18 1092.20
00001304 00000029 1661.22 232.82 725.38 1085.89 2020.05 648.34 2334.50 660.18 2285.16 896.56 2059.84 1084.57 2280.72 1095.18
00001305 00000030 1664.21 230.79 727.35 1083.45 2011.15 647.65 2331.99 660.12 2279.17 890.34 2062.18 1087.89 2285.90 1098.43
00001306 00000031 1666.32 228.01 718.93 1089.42 2004.75 655.57 2309.76 649.87 2266.30 880.86 2070.44 1077.85 2271.37 1074.10
00001307 00000032 1672.04 229.87 731.87 1077.90 2004.39 655.19 2315.37 651.97 2260.31 860.73 2058.70 1045.59 2296.99 1045.62
00001308 00000033 1675.02 222.56 744.59 1079.11 2003.20 652.50 2328.51 648.25 2265.81 845.53 2047.94 1027.59 2312.62 1026.68
00001309 00000034 1680.73 220.47 751.96 1089.25 2005.35 660.21 2341.63 658.59 2277.66 846.70 2041.06 1029.51 2323.87 1030.85
00001310 00000035 1690.12 231.09 746.71 1111.34 2012.32 668.64 2339.60 673.58 2283.54 871.35 2035.87 1048.52 2319.69 1054.61
00001311 00000036 1689.49 244.84 747.75 1118.11 2012.86 693.18 2340.81 686.21 2283.81 916.16 2039.90 1080.50 2320.74 1076.74
00001312 00000037 1696.72 263.85 750.07 1108.33 2030.00 718.80 2352.19 706.98 2286.57 938.75 2065.70 1104.59 2322.32 1095.59
00001313 00000038 1712.99 282.62 750.91 1094.30 2050.05 706.36 2360.57 689.02 2303.73 937.96 2098.71 1112.99 2339.51 1100.68
00001314 00000039 1711.94 282.26 751.71 1085.01 2055.53 708.28 2363.21 681.30 2310.74 936.38 2114.35 1117.28 2347.02 1096.96
00001315 00000040 1709.52 274.18 755.10 1088.80 2057.54 704.91 2369.75 678.17 2318.33 938.10 2116.38 1119.78 2347.02 1099.38
00001316 00000041 1707.58 281.82 749.45 1087.92 2054.27 702.99 2358.62 682.18 2309.08 926.50 2115.25 1121.58 2333.46 1105.52
00001317 00000042 1694.81 264.79 758.14 1100.53 2048.18 699.47 2351.70 685.73 2299.46 925.71 2091.40 1111.64 2314.71 1102.50
00001318 00000043 1690.33 243.41 741.35 1096.65 2034.47 712.57 2344.77 693.65 2291.41 924.59 2085.16 1100.16 2310.63 1086.30
00001319 00000044 1694.85 234.87 730.46 1099.20 2022.65 724.70 2339.15 711.77 2283.61 907.28 2077.76 1091.37 2316.24 1082.53
00001320 00000045 1680.64 232.30 737.77 1091.93 2014.67 705.48 2334.05 691.90 2280.34 899.71 2077.19 1083.50 2311.52 1074.33
00001321 00000046 1671.26 228.07 740.16 1091.18 2007.18 685.52 2321.47 670.24 2275.83 881.35 2078.70 1075.58 2305.62 1065.31
00001322 00000047 1658.36 223.60 741.57 1098.28 1997.68 670.20 2302.95 653.08 2265.41 864.11 2068.31 1057.78 2303.08 1046.10
00001323 00000048 1647.11 207.36 742.50 1110.53 1991.46 645.01 2303.26 638.09 2258.55 838.05 2038.66 1051.51 2291.12 1047.76
00001324 00000049 1632.51 200.50 742.98 1123.82 1968.95 635.92 2277.43 628.88 2239.95 820.16 2025.59 1048.27 2274.93 1044.68
00001325 DELETE   1621.10 185.00 726.27 1137.45 1957.54 644.73 2255.33 637.06 2225.48 797.78 2003.99 1029.38 2260.73 1026.68
00001326 DELETE   1595.44 170.12 732.94 1146.35 1921.38 631.57 2222.64 618.81 2199.95 780.55 1990.37 1020.96 2247.05 1012.15
00001327 00000052 1573.55 164.50 743.16 1140.48 1897.42 615.13 2190.81 589.91 2172.95 766.36 1985.10 1015.45 2224.32 995.89
00001328 00000053 1556.93 164.08 744.31 1132.18 1875.73 599.33 2161.25 560.57 2143.11 766.94 1972.15 1013.39 2191.41 982.22
00001329 00000054 1530.98 162.96 739.24 1123.47 1860.70 602.88 2133.63 565.41 2120.11 771.19 1957.76 1003.35 2168.72 972.69
00001330 DELETE   1513.60 175.75 740.62 1100.07 1831.64 623.83 2124.88 565.95 2106.55 769.96 1921.32 1013.96 2169.65 969.12
00001331 00000056 1492.55 156.69 744.31 1104.51 1806.87 631.32 2100.52 552.74 2087.69 767.45 1904.96 1014.73 2152.88 952.75
00001332 00000057 1482.47 153.84 737.70 1092.20 1783.08 638.76 2082.11 547.70 2064.86 764.51 1901.54 1018.76 2141.66 945.35
00001333 00000058 1477.20 158.80 733.40 1069.66 1771.63 638.61 2081.76 544.76 2058.88 766.04 1894.58 1016.18 2139.06 939.68
00001334 00000059 1477.44 161.94 733.19 1053.12 1765.68 640.08 2085.10 547.18 2055.57 769.24 1891.22 1013.59 2139.94 937.62
00001335 00000060 1483.79 160.70 734.10 1049.40 1773.18 645.38 2093.69 548.65 2062.49 776.55 1887.96 1011.04 2144.40 933.11
00001336 00000061 1483.01 161.44 740.36 1038.87 1777.01 645.75 2100.86 548.33 2067.67 780.26 1888.13 1005.04 2148.89 927.46
00001337 00000062 1485.68 163.09 742.58 1037.26 1780.49 650.71 2101.20 556.86 2065.96 782.56 1891.36 1005.58 2149.83 930.66
00001338 00000063 1491.85 164.63 737.44 1044.87 1782.78 653.31 2099.96 556.77 2066.77 786.42 1886.30 1005.45 2148.78 929.51
00001339 00000064 1487.88 183.76 751.20 1047.25 1790.40 639.85 2108.66 559.36 2065.27 800.20 1915.17 996.90 2168.29 931.30
00001340 00000065 1501.01 174.54 737.58 1052.53 1791.94 654.81 2107.26 564.48 2071.24 793.86 1893.30 1015.28 2154.53 944.23
00001341 00000066 1505.63 180.58 740.38 1072.62 1806.98 652.48 2118.22 570.97 2087.61 795.18 1903.27 1022.53 2164.91 957.92
00001342 00000067 1511.90 192.60 739.22 1075.63 1816.51 650.97 2123.66 576.80 2092.07 797.52 1913.61 1030.56 2168.50 971.59
00001343 00000068 1516.63 196.78 738.85 1077.85 1818.41 630.31 2127.56 577.08 2090.57 805.85 1928.14 1019.49 2167.61 977.59
00001344 00000069 1519.46 198.08 750.97 1075.42 1821.15 640.23 2137.37 580.87 2097.57 811.23 1912.90 1012.28 2177.42 965.71
00001345 00000070 1525.17 195.28 752.23 1070.02 1828.82 644.85 2143.35 583.67 2101.38 811.80 1913.57 1008.77 2179.70 961.52
00001346 00000071 1531.53 190.10 751.15 1073.87 1832.26 646.38 2146.10 586.17 2102.42 811.09 1916.64 1008.64 2183.27 961.81
00001347 00000072 1538.55 190.20 749.04 1073.70 1833.94 650.97 2147.30 588.61 2103.90 811.46 1918.03 1009.85 2185.95 961.20
00001348 00000073 1540.94 191.00 750.10 1073.76 1838.84 647.74 2152.65 587.62 2107.87 810.09 1920.13 1007.94 2188.69 961.15
00001349 00000074 1544.14 193.77 748.35 1069.13 1842.18 648.43 2153.88 589.10 2107.97 811.90 1920.24 1006.59 2188.80 960.74
00001350 00000075 1547.39 195.01 746.24 1067.38 1842.28 651.04 2154.83 588.59 2109.76 813.36 1921.57 1007.06 2191.19 958.52
00001351 00000076 1548.73 195.95 746.80 1063.09 1847.00 652.94 2157.03 590.25 2113.46 815.14 1923.29 1006.55 2189.83 958.24
00001352 00000077 1551.37 195.94 746.35 1063.21 1845.33 655.50 2156.64 589.07 2112.31 817.24 1924.30 1009.79 2191.65 958.21
00001353 00000078 1556.17 197.44 742.64 1058.34 1847.88 657.30 2160.60 590.13 2117.33 818.96 1927.98 1010.73 2193.84 958.30
00001354 00000079 1556.97 195.37 741.45 1058.16 1850.83 654.10 2161.35 587.50 2122.14 817.41 1933.00 1010.78 2194.82 958.76
00001355 00000080 1555.89 203.32 744.13 1051.12 1851.68 657.25 2163.98 587.87 2123.48 820.82 1935.39 1014.13 2196.45 959.77
00001356 00000081 1561.22 197.80 736.51 1059.74 1852.67 661.22 2166.71 589.86 2129.23 825.08 1934.86 1018.44 2196.26 962.75
00001357 00000082 1568.88 200.81 729.39 1042.21 1853.78 654.69 2165.50 583.55 2124.10 817.50 1957.16 1023.60 2196.93 966.66
00001358 00000083 1573.12 186.74 738.07 1051.85 1862.92 650.30 2168.13 570.16 2130.01 802.43 1978.24 1015.56 2211.28 949.36
00001359 00000084 1572.42 181.04 738.16 1057.88 1864.95 641.23 2168.67 563.85 2134.76 789.63 1983.53 1009.77 2216.35 945.32
00001360 00000085 1576.98 177.93 728.59 1069.10 1872.15 641.52 2169.74 564.43 2143.73 794.41 1994.52 1018.35 2217.90 954.69
00001361 00000086 1577.81 182.15 730.71 1078.61 1881.33 645.28 2167.82 569.44 2149.77 799.36 2007.07 1029.83 2218.40 967.40
00001362 00000087 1582.11 187.08 726.26 1078.81 1884.04 647.95 2172.34 576.04 2157.97 802.75 2010.46 1035.70 2222.54 976.88
00001363 00000088 1585.11 189.56 727.08 1073.71 1887.88 653.15 2172.69 576.70 2159.78 805.43 2009.26 1034.78 2224.46 972.93
00001364 00000089 1586.32 192.00 724.27 1064.51 1885.79 655.73 2172.67 575.54 2154.11 807.32 1995.63 1025.32 2219.00 960.52
00001365 00000090 1586.81 196.29 725.83 1055.75 1883.87 659.34 2175.61 578.16 2153.61 809.59 1987.96 1022.71 2219.45 957.29
00001366 00000091 1584.95 197.38 728.01 1055.15 1882.60 665.87 2175.79 582.35 2154.75 811.62 1978.98 1018.27 2220.61 951.00
00001367 00000092 1585.34 197.18 728.67 1052.09 1880.53 667.61 2176.54 580.73 2154.76 812.46 1974.72 1014.24 2223.49 944.57
00001368 00000093 1584.73 193.15 727.89 1052.26 1876.69 663.70 2177.03 577.64 2153.48 813.50 1969.68 1012.31 2221.91 943.79
00001369 00000094 1581.22 198.03 730.36 1045.59 1878.37 662.84 2176.18 579.42 2150.52 814.57 1971.44 1013.16 2217.30 946.53
00001370 00000095 1578.16 197.40 733.31 1046.79 1876.47 661.26 2177.56 577.72 2148.33 816.50 1974.06 1015.68 2217.68 948.36
00001371 00000096 1576.30 193.74 735.79 1051.54 1871.04 661.20 2171.71 577.50 2139.93 815.15 1975.65 1016.49 2216.23 947.98
00001372 00000097 1574.92 196.49 730.95 1046.60 1871.78 657.47 2169.53 578.28 2138.44 814.23 1979.22 1018.88 2210.92 954.11
00001373 00000098 1573.08 197.40 730.04 1046.64 1872.36 655.34 2168.04 579.28 2136.88 814.58 1978.43 1019.10 2206.78 957.19
00001374 00000099 1571.23 193.52 731.40 1050.12 1865.42 654.74 2167.20 578.74 2132.57 816.71 1974.53 1019.80 2206.49 957.66
00001375 00000100 1569.32 196.97 727.95 1047.74 1863.66 657.09 2166.27 584.02 2130.63 818.37 1966.23 1019.52 2199.96 960.54
00001376 00000101 1565.72 191.83 735.15 1051.24 1859.15 655.47 2165.39 581.58 2126.93 817.99 1964.92 1015.26 2202.68 954.89
00001377 00000102 1565.81 198.07 735.61 1045.19 1858.63 656.93 2165.22 582.27 2126.53 819.05 1965.90 1018.07 2204.19 957.01
00001378 00000103 1563.33 202.12 725.60 1046.78 1855.64 660.21 2162.00 594.32 2120.74 825.41 1959.45 1026.29 2193.27 973.66
00001379 00000104 1564.77 203.86 725.80 1055.37 1858.00 664.03 2162.88 595.15 2124.41 834.69 1961.15 1034.79 2195.02 979.98
00001380 00000105 1562.13 203.19 731.76 1059.55 1854.88 663.21 2163.36 593.88 2121.03 837.05 1964.66 1034.67 2198.78 978.30
00001381 00000106 1558.71 197.45 737.75 1064.33 1858.68 663.80 2159.44 590.04 2123.20 832.75 1966.95 1027.38 2201.27 966.91
00001382 00000107 1561.68 200.70 722.89 1069.63 1860.23 657.21 2152.68 589.73 2118.58 836.50 1981.14 1042.71 2190.52 987.56
00001383 00000108 1556.60 200.65 722.37 1075.49 1854.54 660.80 2154.47 596.60 2116.41 846.07 1971.65 1048.59 2189.58 996.31
00001384 00000109 1549.69 201.80 735.73 1073.92 1850.15 664.52 2152.80 595.29 2116.97 839.47 1962.18 1037.04 2196.61 980.71
00001385 00000110 1551.36 201.86 730.94 1066.44 1849.65 658.37 2152.14 595.54 2110.67 836.29 1959.48 1029.79 2193.59 978.64
00001386 00000111 1545.88 203.26 731.28 1065.23 1841.88 661.14 2145.84 592.78 2105.66 835.92 1958.46 1031.59 2191.58 975.98
00001387 00000112 1539.23 210.34 734.66 1051.83 1835.17 668.55 2142.53 601.13 2098.44 835.73 1940.22 1025.00 2185.61 970.98
00001388 00000113 1538.34 221.45 736.80 1041.40 1827.25 678.74 2142.86 609.23 2090.54 843.10 1923.33 1025.23 2183.07 970.15
00001389 00000114 1535.70 231.96 746.83 1052.00 1827.01 700.02 2144.91 623.59 2091.66 866.98 1914.39 1040.51 2184.33 979.84
00001390 00000115 1530.10 251.38 755.63 1048.03 1830.59 714.25 2151.82 630.29 2104.12 893.38 1903.50 1050.40 2190.83 984.46
00001391 00000116 1533.98 247.91 754.72 1046.49 1829.11 703.44 2148.99 627.51 2098.07 875.05 1899.34 1036.35 2189.37 977.14
00001392 00000117 1523.44 229.77 760.09 1051.79 1819.71 686.08 2144.21 609.95 2096.52 856.51 1897.44 1022.36 2192.07 963.25
00001393 00000118 1524.53 224.06 754.24 1046.97 1818.04 673.99 2138.81 602.44 2089.45 844.54 1899.71 1014.19 2187.04 958.67
00001394 00000119 1523.27 225.93 747.73 1039.42 1817.43 672.53 2139.07 602.34 2090.76 844.57 1897.62 1014.50 2181.90 960.54
00001395 00000120 1521.11 229.35 743.15 1033.27 1817.20 678.33 2138.82 607.72 2087.08 849.25 1903.43 1024.19 2177.11 969.83
00001396 00000121 1525.22 230.21 736.46 1031.07 1816.11 683.91 2136.01 613.34 2081.51 858.12 1911.54 1031.08 2178.39 975.99
00001397 00000122 1524.46 231.30 728.37 1042.08 1821.76 679.07 2133.08 616.03 2081.24 863.17 1923.98 1043.05 2167.06 992.90
00001398 00000123 1525.37 234.68 719.31 1050.51 1821.07 668.49 2128.45 614.84 2078.97 861.31 1929.21 1053.29 2156.99 1010.66
00001399 00000124 1519.95 232.89 715.90 1065.90 1822.58 662.74 2114.77 613.79 2079.38 855.36 1936.69 1059.01 2150.78 1019.60
00001400 00000125 1512.47 234.83 726.56 1064.21 1818.69 677.05 2123.89 613.97 2084.44 844.57 1905.60 1062.95 2152.09 1012.12
00001401 00000126 1517.18 234.31 725.89 1047.91 1819.51 683.37 2131.94 618.08 2084.40 852.29 1904.94 1063.32 2153.09 1010.86
00001402 00000127 1516.88 235.52 721.36 1033.89 1812.50 703.84 2125.84 637.30 2071.72 866.55 1919.92 1057.61 2157.72 1004.89
00001403 00000128 1510.01 236.58 724.04 1026.30 1806.73 692.29 2121.56 625.81 2069.61 848.11 1913.43 1044.00 2156.63 991.63
CROP_BBOX: 1055 0 2865 1657
