Video ID: 	ESVkh6oR19U
H: 	2160
W: 	3840
FPS: 	23.976023976023978

FRAME INDEX X0 Y0 W H [Landmarks (5 Points)]

00002470 00000000 1936.14 385.48 431.93 557.46 2196.45 579.49 2318.16 613.44 2337.73 697.23 2205.21 804.83 2301.77 830.19
00002471 00000001 1923.52 384.03 426.04 564.11 2184.62 579.39 2306.31 606.45 2325.23 694.06 2204.61 804.98 2293.57 823.88
00002472 DELETE   1901.12 374.61 439.20 594.51 2175.08 577.04 2304.55 610.27 2327.18 691.01 2194.18 812.24 2279.99 838.90
00002473 DELETE   1889.08 351.89 445.05 610.64 2148.99 572.58 2302.43 596.78 2302.11 694.81 2175.51 816.11 2286.40 833.89
00002474 DELETE   1865.37 340.62 469.20 622.13 2127.46 567.30 2284.18 616.84 2275.23 683.55 2130.30 794.57 2250.06 832.70
00002475 00000005 1855.99 342.77 468.13 613.87 2106.91 558.25 2265.82 629.33 2246.14 677.02 2092.29 772.03 2217.39 828.37
00002476 DELETE   1858.54 344.19 465.48 615.50 2103.27 559.70 2264.48 634.74 2240.78 679.15 2082.59 771.28 2211.56 831.19
00002477 DELETE   1865.11 348.79 460.89 621.53 2116.50 562.72 2273.40 636.35 2255.98 685.31 2093.83 777.18 2221.09 835.93
00002478 00000008 1872.19 355.00 458.43 600.34 2132.45 567.69 2281.12 634.27 2270.56 686.15 2114.55 779.92 2232.63 832.25
00002479 DELETE   1882.86 370.24 452.08 577.30 2143.88 572.50 2289.49 625.94 2283.40 692.77 2131.39 791.17 2249.44 831.92
00002480 00000010 1888.91 389.23 447.66 555.53 2157.22 580.32 2296.32 620.48 2296.52 706.16 2147.96 805.99 2254.38 833.60
00002481 00000011 1890.44 394.84 441.51 567.56 2170.20 588.42 2301.14 625.52 2313.58 706.98 2161.35 811.32 2252.44 839.48
00002482 00000012 1895.52 397.69 436.36 563.13 2174.07 591.47 2299.77 619.88 2315.51 712.16 2165.35 816.22 2251.22 837.29
00002483 00000013 1895.39 401.03 436.06 559.35 2174.01 591.78 2300.01 625.46 2315.10 714.39 2158.76 815.71 2246.66 841.27
00002484 00000014 1889.22 401.90 442.24 560.76 2167.35 592.20 2289.39 627.69 2304.78 721.02 2139.43 817.90 2229.60 842.99
00002485 00000015 1881.13 375.96 444.43 590.81 2157.46 590.73 2283.90 636.17 2298.35 713.13 2130.58 805.41 2226.01 840.07
00002486 00000016 1883.28 372.35 439.01 588.18 2149.16 584.83 2273.83 631.44 2275.68 716.29 2107.17 794.25 2210.02 830.10
00002487 00000017 1876.78 378.25 442.94 585.28 2145.64 582.60 2270.73 637.74 2271.10 714.06 2107.58 789.36 2211.86 831.90
00002488 00000018 1871.51 374.78 442.62 582.50 2142.21 583.52 2271.78 640.25 2271.03 712.62 2106.68 787.01 2204.84 830.36
00002489 00000019 1871.54 372.12 441.15 581.24 2140.63 583.63 2269.36 640.06 2269.10 711.76 2105.21 785.95 2203.30 828.96
00002490 00000020 1864.65 370.67 447.95 578.05 2138.15 582.79 2263.98 631.90 2266.76 712.73 2100.32 785.19 2196.61 822.50
00002491 00000021 1862.34 364.55 450.29 585.65 2135.91 580.27 2264.22 634.61 2266.37 708.14 2099.99 781.72 2199.65 823.22
00002492 00000022 1858.27 364.75 455.28 586.94 2131.89 577.88 2263.58 633.46 2262.30 707.20 2096.99 781.23 2200.11 823.35
00002493 00000023 1854.32 361.28 452.69 599.65 2127.92 576.90 2257.41 635.87 2261.67 708.47 2089.18 779.72 2193.91 825.64
00002494 00000024 1854.71 353.09 452.47 613.79 2122.41 572.12 2255.40 635.28 2262.71 702.99 2085.88 780.26 2193.98 830.17
00002495 00000025 1856.46 353.15 452.05 605.05 2123.66 576.58 2256.32 625.09 2261.86 702.43 2095.83 786.40 2200.04 823.56
00002496 DELETE   1864.95 366.48 443.28 579.81 2128.89 581.10 2250.19 616.26 2273.39 710.78 2112.00 807.68 2211.25 835.43
00002497 DELETE   1868.70 380.03 443.60 568.35 2144.72 585.84 2260.36 615.74 2292.78 708.24 2144.29 812.30 2225.56 834.22
00002498 00000028 1880.29 390.85 435.79 578.51 2159.01 595.92 2268.39 618.14 2309.25 712.30 2162.57 820.98 2236.73 838.56
00002499 00000029 1890.81 393.04 425.77 583.97 2161.27 601.93 2273.87 627.15 2306.76 721.55 2163.45 828.38 2239.99 848.85
00002500 00000030 1877.04 410.89 435.96 576.74 2145.95 607.61 2274.16 643.04 2290.99 732.41 2145.91 837.03 2235.92 863.24
00002501 00000031 1865.12 393.36 451.27 612.65 2125.03 606.07 2277.11 651.53 2266.65 738.96 2120.03 841.33 2228.78 874.71
00002502 DELETE   1848.46 387.75 460.26 596.44 2105.19 606.66 2261.50 650.85 2233.77 748.86 2063.96 816.95 2184.35 850.57
00002503 00000033 1835.30 371.68 466.46 598.24 2091.10 598.99 2254.42 646.13 2219.10 743.11 2034.45 798.91 2164.12 837.05
00002504 00000034 1833.88 376.69 465.25 587.80 2085.20 595.44 2250.46 644.85 2212.38 733.24 2036.08 794.79 2168.12 833.91
00002505 00000035 1834.07 374.03 463.75 590.47 2088.92 596.50 2249.99 642.20 2217.48 730.09 2044.61 797.54 2172.06 833.17
00002506 00000036 1840.48 371.01 456.28 595.21 2093.76 599.83 2249.12 644.93 2225.02 735.92 2051.81 803.95 2172.61 838.80
00002507 00000037 1844.39 372.32 454.20 594.28 2099.97 599.74 2250.98 643.93 2231.24 737.67 2060.59 808.14 2174.66 841.50
00002508 00000038 1842.56 379.83 452.24 588.53 2099.76 601.59 2248.59 643.53 2232.05 738.69 2057.22 808.18 2172.16 840.59
00002509 00000039 1838.31 378.68 455.25 600.72 2100.05 594.98 2250.65 640.52 2234.77 733.43 2054.13 805.42 2174.21 841.01
00002510 00000040 1831.28 372.85 461.86 615.67 2090.84 586.49 2249.87 641.03 2232.10 727.25 2050.35 804.31 2182.13 846.73
00002511 00000041 1827.68 367.36 463.36 619.16 2086.14 582.33 2245.82 638.92 2228.33 720.94 2046.27 798.68 2183.17 843.06
00002512 00000042 1825.16 350.72 465.68 638.39 2081.86 577.18 2244.76 635.48 2226.19 718.19 2041.63 796.18 2182.56 842.36
00002513 00000043 1819.10 353.01 464.90 630.47 2081.25 574.74 2239.05 632.01 2222.90 714.70 2035.90 791.76 2176.28 837.54
00002514 00000044 1814.82 346.15 464.83 643.56 2078.55 568.54 2233.01 634.71 2221.59 711.37 2033.89 791.02 2170.64 843.77
00002515 00000045 1811.69 341.18 466.79 649.94 2079.51 565.69 2229.59 631.11 2220.15 707.20 2038.66 792.09 2169.57 843.62
00002516 00000046 1808.13 346.72 468.49 645.40 2076.55 563.43 2223.37 625.03 2216.52 703.88 2038.23 796.73 2163.60 844.70
00002517 00000047 1807.56 348.27 467.50 639.85 2071.47 555.54 2223.03 619.22 2217.24 695.40 2036.65 792.09 2167.94 841.70
00002518 00000048 1811.52 347.19 468.76 640.72 2074.77 556.42 2227.37 619.89 2215.62 693.61 2037.41 787.86 2168.95 837.39
00002519 00000049 1814.97 338.27 468.03 640.75 2076.69 557.41 2230.98 623.89 2217.08 693.06 2036.98 780.64 2175.67 833.40
00002520 00000050 1826.92 340.63 464.23 625.00 2080.14 561.56 2240.10 622.40 2221.52 689.93 2044.84 775.15 2191.20 823.41
00002521 00000051 1836.71 343.72 460.55 617.48 2083.68 562.82 2245.66 623.51 2224.05 689.39 2053.89 773.70 2198.74 821.52
00002522 00000052 1850.29 352.39 460.39 606.10 2090.71 570.06 2250.76 617.17 2227.84 693.48 2062.10 783.72 2207.60 821.82
00002523 00000053 1856.15 363.60 462.11 601.53 2102.87 579.36 2259.83 627.95 2237.50 699.80 2082.19 792.90 2215.42 830.69
00002524 00000054 1854.13 359.75 463.45 605.67 2107.62 588.98 2267.68 635.68 2246.53 705.23 2105.18 801.09 2226.51 835.69
00002525 00000055 1863.51 353.49 467.25 616.03 2120.41 586.64 2274.32 636.11 2261.12 717.74 2123.85 823.82 2232.70 859.27
00002526 00000056 1865.33 373.82 460.59 601.11 2128.28 595.67 2283.26 636.26 2270.29 725.64 2131.18 827.45 2238.16 856.32
00002527 00000057 1870.04 375.32 458.63 615.12 2135.79 597.28 2288.20 629.12 2286.25 721.44 2155.84 837.21 2257.35 860.49
00002528 00000058 1871.11 376.20 458.47 606.15 2139.00 597.78 2282.78 626.49 2287.44 714.63 2153.93 828.05 2252.66 849.11
00002529 00000059 1869.46 367.01 463.06 600.08 2138.63 591.54 2282.48 617.63 2288.97 710.70 2153.58 823.26 2253.51 841.64
00002530 00000060 1873.61 358.20 458.87 583.28 2140.78 580.12 2278.33 609.94 2285.49 697.75 2145.61 804.92 2252.72 825.97
00002531 00000061 1880.32 324.30 444.85 603.06 2136.03 566.31 2280.92 609.57 2287.64 676.11 2149.94 779.69 2259.88 813.37
00002532 00000062 1882.05 325.63 441.27 598.33 2129.50 558.78 2280.62 610.55 2279.64 665.13 2144.43 770.59 2260.60 811.33
00002533 00000063 1884.12 323.42 443.62 593.56 2129.68 551.47 2277.26 597.54 2278.00 666.33 2136.29 770.93 2255.46 803.31
00002534 00000064 1883.95 322.83 444.89 594.35 2127.45 550.26 2277.39 599.00 2275.84 660.55 2139.21 766.78 2257.99 801.35
00002535 00000065 1884.89 320.38 444.74 602.05 2134.29 553.12 2287.50 605.57 2286.68 658.42 2148.64 764.63 2266.32 806.73
00002536 00000066 1885.74 329.39 446.66 591.84 2133.70 555.21 2280.84 602.98 2280.37 667.90 2141.38 772.66 2257.49 806.21
00002537 00000067 1890.00 331.47 442.31 593.23 2134.87 560.31 2283.23 605.73 2281.60 672.26 2140.31 777.00 2258.57 808.57
00002538 00000068 1892.03 330.64 441.63 593.86 2140.47 566.55 2291.62 612.85 2289.17 672.39 2149.89 777.38 2264.22 813.79
00002539 00000069 1884.84 354.75 454.48 587.99 2142.98 573.30 2289.05 617.56 2290.26 685.11 2144.18 792.84 2261.06 826.11
00002540 00000070 1879.91 361.35 457.11 601.33 2143.44 578.44 2286.11 619.69 2288.88 695.32 2132.38 798.58 2251.14 829.73
00002541 00000071 1879.53 369.67 453.46 590.76 2143.72 581.48 2281.77 619.64 2286.16 705.40 2125.74 802.19 2242.18 830.61
00002542 00000072 1876.20 374.84 451.70 592.90 2144.55 588.73 2281.91 634.55 2289.35 708.16 2125.81 805.87 2232.54 840.93
00002543 00000073 1875.42 387.29 449.20 586.55 2143.62 597.20 2279.85 644.04 2284.57 714.39 2123.57 811.99 2229.26 847.72
00002544 00000074 1873.38 383.89 449.69 596.65 2136.88 602.55 2280.03 642.92 2277.15 729.96 2113.20 823.14 2222.22 852.93
00002545 00000075 1880.98 402.77 441.29 585.84 2144.18 610.03 2284.22 652.46 2283.50 743.43 2118.80 831.82 2227.42 863.51
00002546 00000076 1888.42 401.07 437.57 588.37 2151.09 612.91 2288.93 646.84 2287.70 758.28 2116.44 840.37 2220.47 866.73
00002547 00000077 1888.25 406.24 437.86 592.37 2150.57 616.78 2292.19 647.85 2287.54 765.38 2121.59 850.16 2224.60 874.36
00002548 00000078 1891.94 411.18 438.54 586.08 2155.75 614.27 2297.12 651.07 2294.54 759.75 2136.43 853.52 2238.21 881.36
00002549 00000079 1897.37 406.05 432.71 593.00 2156.11 613.10 2295.84 649.19 2294.26 760.41 2141.42 854.96 2238.90 882.46
00002550 00000080 1896.54 405.25 434.20 595.06 2160.15 612.26 2296.29 648.42 2297.87 758.83 2149.05 855.31 2241.31 882.83
00002551 00000081 1903.05 405.40 432.56 588.73 2165.48 611.64 2302.11 649.13 2299.72 759.15 2144.94 851.12 2241.17 880.58
00002552 00000082 1900.92 406.31 437.66 588.49 2164.92 613.69 2302.63 652.11 2300.24 762.64 2135.18 850.92 2233.88 881.71
00002553 00000083 1892.68 401.83 441.51 612.42 2161.39 610.32 2299.15 651.72 2299.94 760.00 2125.85 852.48 2227.14 885.63
00002554 00000084 1881.07 413.06 456.43 617.18 2161.93 617.28 2291.10 652.63 2296.43 759.29 2119.27 857.11 2212.96 886.35
00002555 00000085 1883.28 415.12 449.54 604.85 2164.86 620.44 2285.50 646.73 2289.75 767.49 2112.94 858.18 2208.39 880.59
00002556 00000086 1881.44 423.58 449.74 587.72 2158.73 629.11 2280.35 653.21 2287.19 767.63 2113.94 855.37 2201.85 876.40
00002557 00000087 1886.98 415.06 446.27 584.65 2156.11 621.42 2293.30 654.15 2290.39 771.75 2118.45 854.70 2215.77 881.30
00002558 00000088 1888.24 416.17 446.36 592.88 2156.94 625.13 2297.51 657.44 2292.93 776.43 2121.52 858.64 2223.70 885.34
00002559 00000089 1887.12 421.28 450.23 607.65 2165.86 632.17 2290.02 658.76 2293.60 775.61 2117.86 861.29 2205.57 885.73
00002560 00000090 1891.62 426.67 446.10 623.92 2170.66 630.47 2292.10 659.26 2292.45 775.12 2117.80 864.55 2207.03 891.75
00002561 00000091 1896.73 419.63 443.50 607.28 2171.01 633.62 2293.24 658.39 2294.20 774.40 2121.55 857.69 2206.66 881.35
00002562 00000092 1897.14 417.24 441.43 595.53 2160.46 625.74 2298.87 655.40 2290.59 777.66 2121.07 856.73 2219.66 882.73
00002563 00000093 1892.01 411.25 448.26 605.54 2163.11 622.53 2301.04 655.92 2296.27 777.05 2122.20 855.00 2220.52 883.84
00002564 00000094 1892.79 406.56 450.27 607.41 2163.89 617.22 2299.74 652.67 2295.40 770.58 2121.42 854.53 2216.52 884.34
00002565 00000095 1895.50 405.16 447.35 609.96 2163.83 618.21 2299.41 654.62 2291.41 773.34 2117.20 850.67 2214.01 882.03
00002566 00000096 1893.76 406.22 446.82 606.17 2165.54 617.63 2294.89 653.64 2291.13 771.58 2118.13 850.46 2209.01 880.94
00002567 00000097 1898.19 431.35 451.26 585.20 2175.20 631.20 2300.40 662.41 2296.11 771.62 2126.39 855.68 2213.63 882.67
00002568 00000098 1893.13 427.72 448.72 603.55 2176.93 633.66 2290.21 665.15 2291.02 776.27 2113.88 855.21 2190.77 884.97
00002569 00000099 1890.89 433.38 448.29 621.68 2173.97 631.60 2291.17 669.40 2288.61 773.15 2111.21 859.58 2198.18 893.95
00002570 00000100 1892.19 444.59 446.57 617.28 2176.65 633.98 2290.02 673.22 2291.23 774.41 2112.66 860.78 2196.14 896.67
00002571 00000101 1885.92 429.45 448.40 617.38 2169.13 635.95 2281.87 667.64 2282.46 775.73 2109.91 859.05 2190.53 888.15
00002572 00000102 1887.43 423.80 447.57 593.06 2168.89 637.28 2283.70 666.51 2283.85 775.50 2112.66 850.70 2191.61 876.91
00002573 00000103 1887.03 420.56 447.32 586.67 2164.82 636.95 2283.69 661.97 2283.53 774.45 2113.96 852.20 2197.08 874.56
00002574 00000104 1884.27 423.01 454.53 585.70 2167.98 635.42 2284.75 661.18 2286.14 771.23 2115.65 851.52 2195.19 874.19
00002575 00000105 1882.65 423.14 454.33 592.29 2167.70 635.88 2281.07 663.05 2283.06 771.71 2114.83 853.35 2190.55 877.02
00002576 00000106 1885.48 414.20 452.12 604.19 2169.03 637.67 2284.17 672.74 2283.09 771.83 2117.11 853.22 2195.16 882.32
00002577 00000107 1884.22 408.78 454.62 611.20 2171.68 640.92 2283.13 672.45 2285.39 771.84 2117.03 852.23 2191.31 879.66
00002578 00000108 1880.73 422.30 447.81 607.09 2164.27 637.79 2280.25 671.35 2281.98 774.54 2114.58 857.88 2198.30 885.91
00002579 00000109 1878.52 425.89 451.22 604.55 2162.99 635.63 2277.90 665.96 2284.57 772.65 2111.36 859.04 2195.08 885.06
00002580 00000110 1878.35 423.85 450.12 585.11 2163.13 629.24 2275.19 658.21 2286.09 763.36 2121.01 854.30 2197.95 877.13
00002581 00000111 1876.58 432.45 449.15 574.89 2163.40 623.37 2274.80 645.41 2295.44 759.46 2124.97 855.51 2202.20 873.42
00002582 00000112 1876.53 421.28 447.64 581.76 2158.12 617.15 2282.18 643.83 2298.76 763.16 2126.34 853.74 2214.72 874.76
00002583 00000113 1883.38 421.52 439.28 584.05 2160.92 620.19 2277.66 645.69 2298.31 765.82 2125.73 852.98 2208.54 873.74
00002584 00000114 1885.54 435.96 436.08 573.70 2166.47 624.73 2280.88 656.53 2298.52 770.22 2137.27 855.54 2216.75 880.06
00002585 00000115 1884.64 439.66 435.54 570.20 2170.36 630.04 2273.69 658.55 2293.05 767.55 2139.64 859.73 2216.31 881.56
00002586 00000116 1875.95 444.95 439.23 574.09 2166.62 636.33 2273.32 660.89 2291.24 767.93 2139.12 863.26 2209.82 881.32
00002587 00000117 1879.99 449.95 435.25 576.76 2168.01 640.13 2275.48 668.24 2293.49 766.95 2139.52 866.26 2212.83 887.17
00002588 00000118 1880.27 451.09 435.49 574.81 2169.99 643.34 2273.79 671.82 2291.93 771.33 2128.47 860.15 2202.68 883.06
00002589 00000119 1876.08 443.54 440.40 583.03 2169.71 643.99 2269.07 673.29 2287.01 772.78 2125.17 860.88 2192.94 884.37
CROP_BBOX: 1654 44 2726 1223
