Video ID: 	pxoHm-VbQDo
H: 	1080
W: 	1920
FPS: 	25.0

FRAME INDEX X0 Y0 W H [Landmarks (5 Points)]

00041406 00000000 417.62 161.52 373.89 521.16 549.69 368.28 705.28 359.42 658.95 422.88 595.72 551.83 712.26 544.06
00041407 00000001 433.23 154.14 371.33 523.41 568.77 358.58 726.75 358.39 687.30 411.00 614.52 545.02 736.14 543.74
00041408 00000002 448.36 152.68 369.54 516.09 583.33 352.19 746.50 358.21 708.20 404.49 623.72 537.27 751.04 541.46
00041409 00000003 462.87 156.78 366.53 510.25 599.63 349.08 765.23 358.87 727.16 399.19 639.41 538.52 767.83 545.50
00041410 00000004 468.12 142.98 377.16 527.22 618.16 350.36 784.27 359.76 737.53 410.10 658.01 537.87 781.04 544.81
00041411 00000005 487.79 161.84 378.56 512.39 642.37 351.11 796.04 363.72 763.37 408.49 683.50 534.59 801.38 543.20
00041412 DELETE   516.74 161.69 365.09 510.87 678.35 351.88 833.39 374.57 802.14 413.42 705.94 537.64 825.42 555.40
00041413 DELETE   541.28 170.54 366.78 511.72 728.81 363.21 857.94 385.06 850.23 429.01 763.70 537.67 864.02 553.96
00041414 DELETE   586.09 170.01 348.40 533.61 764.65 376.59 901.74 392.39 890.01 448.50 787.44 559.01 898.69 571.48
00041415 00000009 619.70 171.13 340.41 545.85 797.03 373.98 936.59 392.66 929.59 445.40 803.58 558.23 930.56 575.90
00041416 00000010 630.96 172.15 345.42 545.22 811.55 372.56 951.69 391.00 944.85 447.73 812.29 557.67 938.75 575.41
00041417 00000011 626.60 174.96 358.97 522.28 809.28 375.69 950.83 398.86 941.29 446.10 830.23 547.17 945.27 566.58
00041418 00000012 636.29 167.53 366.36 511.17 820.11 368.27 964.83 392.57 950.71 436.24 848.68 541.67 962.75 560.19
00041419 00000013 655.04 160.49 358.89 512.03 839.17 360.82 990.00 384.08 972.87 433.56 864.03 542.54 980.18 561.20
00041420 00000014 682.53 154.18 347.69 520.53 866.83 361.23 1016.61 383.27 999.48 430.16 881.71 542.95 1002.06 561.00
00041421 00000015 697.24 158.61 346.33 524.93 882.12 361.42 1028.50 380.35 1019.21 432.43 892.62 545.53 1014.56 561.92
00041422 00000016 694.17 165.29 355.19 521.23 883.13 365.00 1021.82 395.76 1020.76 443.24 901.26 537.83 1017.57 564.28
00041423 00000017 699.00 172.15 364.95 518.31 884.11 371.80 1030.61 400.19 1016.78 444.19 901.83 544.03 1021.60 567.54
00041424 00000018 706.22 175.31 369.27 514.46 890.31 374.75 1041.64 403.99 1022.28 446.64 907.47 547.88 1029.87 571.12
00041425 00000019 719.60 174.40 363.63 516.90 904.60 375.82 1056.48 402.33 1036.93 450.81 918.36 553.24 1039.54 574.68
00041426 00000020 735.16 174.11 356.43 519.71 915.28 379.43 1069.47 403.72 1045.60 455.12 923.41 556.75 1050.95 577.26
00041427 00000021 746.61 170.16 353.69 528.14 925.18 382.92 1080.59 408.19 1053.16 463.01 929.24 563.73 1057.40 585.39
00041428 DELETE   750.24 172.13 356.21 529.51 930.62 390.43 1088.29 417.20 1059.36 468.70 933.09 569.65 1064.51 592.53
00041429 00000023 752.72 176.34 356.16 526.54 935.47 393.21 1088.44 415.98 1061.61 471.98 937.97 571.71 1064.18 591.48
00041430 00000024 752.65 172.51 356.85 530.03 937.30 390.02 1089.00 413.49 1064.05 469.64 941.62 570.75 1065.36 590.77
00041431 00000025 752.09 171.28 356.62 531.00 938.05 389.29 1087.06 412.87 1063.04 469.17 942.64 570.28 1064.11 590.30
00041432 00000026 749.37 165.92 358.10 535.38 934.26 387.58 1085.17 408.47 1060.66 469.28 940.22 571.15 1063.50 588.85
00041433 00000027 746.92 164.63 356.82 538.65 928.42 388.78 1081.87 410.95 1056.31 470.36 933.46 571.66 1059.77 590.58
00041434 00000028 743.14 165.80 354.83 536.34 922.29 388.83 1074.98 410.59 1049.89 470.26 927.14 569.26 1053.34 587.94
00041435 00000029 735.91 167.53 356.69 535.60 918.02 388.70 1066.89 409.51 1045.77 468.38 923.97 567.81 1047.30 585.65
00041436 00000030 728.28 167.41 359.66 534.84 911.41 387.86 1063.89 409.82 1042.50 464.98 921.73 567.85 1045.17 586.09
00041437 00000031 722.92 171.02 356.92 528.16 906.26 383.63 1054.35 406.38 1035.53 460.51 920.02 564.75 1035.93 583.65
00041438 00000032 714.76 174.07 360.08 520.88 899.68 383.09 1045.37 406.77 1027.37 456.69 915.65 559.45 1029.60 578.57
00041439 00000033 710.17 175.85 361.90 514.61 894.52 382.55 1041.54 408.91 1022.08 454.55 912.09 555.38 1026.92 576.43
00041440 00000034 706.79 175.19 362.12 511.68 891.95 380.89 1039.91 410.41 1021.34 451.97 911.54 551.52 1027.35 575.08
00041441 00000035 702.82 174.99 362.45 510.05 887.98 380.27 1035.67 410.39 1018.22 449.66 909.66 549.03 1024.50 572.91
00041442 00000036 701.66 173.66 363.00 509.88 886.95 379.89 1034.29 409.10 1017.88 448.77 910.16 548.13 1024.66 571.29
00041443 00000037 699.99 174.73 363.88 507.49 886.13 378.65 1035.24 409.56 1018.09 447.23 908.80 545.58 1025.29 570.02
00041444 00000038 697.85 174.63 364.74 505.82 883.99 376.84 1033.68 409.64 1015.63 446.56 906.28 543.66 1023.51 569.69
00041445 00000039 693.80 174.70 367.09 505.69 881.10 374.86 1030.55 408.72 1012.60 444.85 902.33 541.18 1020.34 568.51
00041446 00000040 685.96 176.29 374.21 505.83 873.26 373.55 1024.36 408.42 1000.74 444.54 890.78 540.86 1010.41 568.91
00041447 00000041 679.91 179.97 381.41 513.76 862.79 373.41 1018.89 411.66 985.29 448.95 869.90 549.52 995.08 580.76
00041448 00000042 678.45 186.82 383.37 519.20 858.13 374.77 1014.62 411.51 976.08 455.33 858.23 554.10 984.69 584.92
00041449 00000043 677.59 187.04 385.52 516.15 860.38 379.94 1019.93 417.49 979.78 459.83 858.50 556.88 988.91 588.24
00041450 00000044 681.70 185.99 381.93 507.57 863.97 386.18 1025.43 421.79 986.83 460.79 873.91 560.47 1001.21 589.20
00041451 00000045 689.89 186.03 375.87 505.91 867.44 389.65 1029.91 420.63 991.73 461.88 878.44 559.97 1008.02 585.47
00041452 00000046 691.74 188.52 374.40 509.97 863.25 391.22 1033.33 425.12 988.87 467.36 871.63 567.09 1009.33 595.33
00041453 00000047 684.99 191.51 380.95 521.91 860.18 398.43 1031.53 436.02 983.25 477.72 861.08 574.33 999.96 606.42
00041454 00000048 678.37 197.00 386.25 523.72 855.61 406.20 1027.73 441.14 976.56 486.97 853.46 580.14 993.24 609.97
00041455 00000049 673.74 201.71 387.94 522.83 848.26 405.20 1022.36 439.55 968.30 489.03 851.37 585.69 987.51 614.23
00041456 00000050 674.62 203.21 386.05 523.31 845.81 406.07 1020.29 437.74 966.02 491.08 851.84 590.51 986.83 616.88
00041457 00000051 676.07 204.58 384.49 522.94 845.68 407.09 1020.56 435.98 967.07 492.96 852.74 591.94 987.70 616.29
00041458 00000052 674.81 204.34 384.40 524.42 845.24 407.25 1018.30 434.63 967.10 496.34 853.05 594.04 986.28 617.25
00041459 00000053 673.18 205.63 383.53 521.96 843.56 408.47 1015.58 434.63 965.85 498.83 851.85 596.21 984.12 618.52
00041460 00000054 677.42 215.31 374.67 511.47 835.39 410.52 1016.37 437.64 961.12 497.80 844.71 601.71 984.18 624.91
00041461 00000055 673.01 220.74 376.16 506.96 832.66 411.18 1012.33 439.70 956.36 499.31 838.86 600.84 977.95 625.47
00041462 00000056 671.17 219.64 376.46 508.00 834.73 417.49 1009.70 449.02 953.21 501.51 833.84 598.52 970.38 626.15
00041463 00000057 667.20 212.66 383.97 513.72 842.70 413.73 1007.19 448.62 952.33 499.58 836.88 588.01 967.91 617.74
00041464 00000058 668.21 209.39 384.97 516.38 845.63 406.04 1009.49 440.98 958.40 492.96 842.82 584.48 972.62 613.93
00041465 00000059 670.06 206.06 384.18 519.62 849.27 403.08 1014.24 437.28 966.54 491.93 848.19 584.10 978.77 613.00
00041466 00000060 672.93 200.65 380.73 521.59 852.39 403.28 1015.09 434.88 971.04 490.72 853.76 582.76 981.45 609.47
00041467 00000061 671.75 199.80 379.58 520.40 853.97 402.21 1013.74 435.43 971.64 490.13 854.39 580.71 979.41 608.69
00041468 00000062 669.85 200.38 380.35 519.59 854.00 401.36 1011.27 435.54 969.61 491.30 850.74 579.79 974.16 608.86
00041469 00000063 666.69 199.90 383.48 519.90 855.43 399.18 1010.42 436.49 969.78 490.21 849.18 577.81 971.14 609.55
00041470 00000064 668.42 197.26 381.14 521.10 857.70 397.80 1012.52 437.08 971.27 488.49 848.98 574.96 970.54 608.31
00041471 00000065 667.73 201.65 380.95 515.56 859.49 398.65 1015.27 440.81 973.01 488.59 849.42 573.72 971.72 609.23
00041472 00000066 667.50 201.02 381.98 514.63 862.90 406.55 1018.36 452.59 975.17 489.51 850.60 572.64 973.71 611.08
00041473 00000067 666.76 198.53 383.76 518.12 862.29 404.60 1019.34 449.00 975.56 488.59 850.39 571.53 975.28 608.67
00041474 00000068 670.92 204.66 381.08 515.18 866.21 402.75 1021.50 445.33 980.99 490.61 856.67 574.37 979.08 609.91
00041475 00000069 679.45 204.28 374.98 516.98 874.05 410.08 1025.40 444.73 992.71 496.63 870.72 580.60 987.22 609.53
00041476 00000070 688.25 209.79 371.56 514.64 881.78 419.65 1033.39 451.15 1004.23 503.99 881.90 585.02 999.93 610.91
00041477 00000071 696.45 207.32 369.46 526.19 890.84 416.47 1042.17 448.69 1016.39 504.91 889.00 587.89 1007.88 614.77
00041478 00000072 701.41 206.86 366.81 535.11 899.62 411.75 1042.47 443.00 1024.12 506.68 890.75 589.46 1005.48 616.24
00041479 00000073 702.05 207.42 366.41 535.98 898.44 412.51 1043.87 447.59 1024.95 511.50 886.41 591.92 1002.41 622.67
00041480 00000074 698.10 215.75 371.27 531.58 893.68 421.22 1040.81 454.31 1015.87 523.05 880.34 598.82 995.89 627.59
00041481 00000075 691.70 227.47 373.50 530.53 888.65 428.75 1034.05 458.07 1006.27 538.02 869.70 610.76 985.11 636.24
00041482 00000076 686.19 241.23 374.32 526.32 888.77 443.87 1022.66 474.61 994.95 546.97 862.93 625.16 967.72 652.15
00041483 00000077 676.04 244.56 374.18 528.36 879.46 457.02 1011.18 486.73 983.04 554.28 856.36 631.03 960.70 657.20
00041484 00000078 687.83 244.20 362.52 530.73 880.33 445.13 1023.84 473.57 993.94 552.22 858.31 634.51 975.13 661.09
00041485 00000079 685.78 233.01 356.32 534.12 872.06 437.20 1018.82 461.91 991.93 542.78 855.78 629.97 974.08 653.93
00041486 00000080 675.94 234.69 361.54 526.72 857.23 432.05 1012.27 461.12 976.49 532.96 844.36 626.31 966.43 653.12
00041487 00000081 648.70 245.30 375.00 524.57 835.21 433.38 989.83 463.07 954.67 532.42 823.00 626.06 944.00 651.99
00041488 00000082 630.70 263.01 383.59 513.13 818.82 435.25 969.36 465.94 928.86 539.04 799.16 622.31 918.97 648.81
00041489 00000083 610.88 267.93 392.73 510.38 799.63 440.10 952.79 471.73 901.47 543.78 776.27 624.01 901.64 650.76
00041490 DELETE   590.50 263.03 399.46 513.77 779.58 439.10 933.87 476.41 877.14 546.69 748.07 623.42 879.69 654.90
00041491 00000085 585.68 265.12 391.67 505.32 760.50 433.83 925.23 474.97 863.13 543.21 733.24 622.57 869.89 658.74
00041492 DELETE   581.02 263.96 393.21 507.19 757.40 433.86 921.94 472.97 861.15 545.42 728.96 623.50 865.23 658.13
00041493 DELETE   587.80 265.92 385.45 504.08 761.55 437.75 926.63 473.30 868.57 545.33 739.60 627.62 874.36 659.35
00041494 DELETE   602.55 258.02 374.26 508.34 773.33 442.97 940.62 475.45 884.42 549.52 756.98 633.27 891.92 662.46
00041495 00000089 613.98 246.01 367.53 518.81 783.87 443.09 947.89 470.78 898.38 550.59 773.37 636.11 903.24 661.35
00041496 DELETE   614.80 246.43 365.61 516.11 784.47 449.14 947.92 476.41 899.65 547.86 772.80 632.42 906.60 657.49
00041497 00000091 613.32 247.60 364.13 511.93 778.91 446.50 942.20 476.20 893.32 540.57 765.50 626.50 901.35 653.76
00041498 00000092 601.37 245.64 370.28 512.11 770.55 437.34 932.16 469.20 882.13 535.12 756.70 622.02 889.46 650.43
00041499 00000093 591.26 241.13 376.08 512.34 757.72 427.94 925.26 459.37 871.16 531.67 744.19 617.15 880.98 644.79
00041500 00000094 585.02 236.10 383.00 513.02 756.21 424.73 923.22 454.35 872.02 525.98 742.95 609.39 878.49 635.94
00041501 00000095 588.07 228.74 381.78 517.21 759.97 417.78 925.65 444.68 877.17 517.28 748.78 604.90 884.13 629.17
00041502 00000096 597.21 230.31 376.44 511.23 766.47 413.74 930.85 437.32 885.20 513.93 758.79 602.57 894.08 623.70
00041503 00000097 597.58 210.23 382.89 527.80 777.52 408.66 934.46 433.77 892.32 512.43 774.05 599.72 895.38 622.14
00041504 00000098 599.27 209.71 383.67 522.01 781.69 411.22 942.25 435.82 898.56 511.41 781.27 597.28 903.44 618.88
00041505 00000099 599.48 211.28 384.46 520.48 778.83 413.72 941.46 443.90 891.43 510.96 773.20 595.62 899.30 621.97
00041506 00000100 593.63 222.70 390.42 517.63 777.15 414.74 939.23 452.05 882.59 514.75 758.98 593.20 890.09 625.52
00041507 00000101 590.94 230.89 390.17 512.32 772.39 412.18 932.55 447.00 876.22 515.04 752.72 593.01 885.52 623.14
00041508 00000102 592.24 227.57 388.45 515.24 768.64 407.66 929.99 440.69 874.51 513.27 750.21 593.78 884.51 622.70
00041509 00000103 601.71 226.40 378.18 511.82 766.99 409.13 932.82 435.84 881.67 508.42 757.09 597.83 892.17 621.63
00041510 00000104 596.34 214.88 386.17 516.74 769.74 405.14 933.30 436.15 879.20 505.30 763.07 594.19 889.42 621.07
00041511 00000105 603.84 217.69 376.48 507.46 762.56 405.34 938.76 433.47 880.10 498.38 760.54 594.09 898.58 619.16
00041512 00000106 602.85 219.70 379.75 512.94 761.18 405.90 937.66 433.55 879.69 500.71 755.10 593.87 898.91 619.09
00041513 00000107 596.16 221.61 390.28 523.22 768.65 408.21 933.12 435.76 880.25 513.38 756.22 595.67 894.18 620.38
00041514 00000108 604.77 234.20 379.86 513.72 767.72 424.96 937.54 451.54 885.52 525.06 754.84 604.26 901.75 628.27
00041515 00000109 602.47 225.14 387.00 522.65 778.91 429.41 943.69 454.63 891.58 527.12 770.36 610.31 902.10 632.57
00041516 00000110 604.93 224.54 388.22 526.82 784.49 432.65 947.71 453.00 902.86 531.65 784.51 617.82 908.91 635.76
00041517 00000111 613.10 226.50 382.02 529.62 789.42 439.55 954.45 453.26 911.91 539.56 790.96 623.40 920.03 636.16
00041518 00000112 621.72 237.80 377.48 518.98 795.34 435.79 952.04 452.48 915.10 533.58 794.41 621.64 921.95 636.90
00041519 00000113 623.20 234.66 380.85 523.52 798.78 433.23 955.48 451.61 919.04 529.82 796.24 619.07 925.44 635.92
00041520 00000114 624.28 224.01 382.52 531.16 797.52 433.50 961.61 449.95 921.31 527.67 797.56 613.59 930.40 628.89
00041521 00000115 626.24 211.13 383.49 529.04 799.47 424.13 966.67 441.44 924.29 517.58 804.40 605.90 935.02 621.92
00041522 00000116 627.10 201.18 383.76 529.72 799.72 414.33 967.73 433.59 924.09 505.15 805.87 596.09 936.49 613.51
00041523 00000117 628.26 200.65 381.45 518.67 804.58 401.11 972.17 429.93 928.66 488.62 805.75 580.86 938.15 605.48
00041524 00000118 630.52 189.84 376.41 519.67 806.15 394.10 966.85 421.91 926.71 478.72 805.51 571.97 933.91 595.76
00041525 00000119 630.56 188.20 375.06 513.53 803.05 387.03 965.28 415.45 923.14 471.74 801.11 566.53 933.04 590.72
00041526 00000120 627.85 184.78 378.13 507.56 799.77 378.07 963.53 408.93 919.66 462.87 796.64 556.53 931.49 582.69
00041527 00000121 625.44 185.21 378.98 501.30 800.43 371.19 961.88 408.22 917.10 455.57 791.60 546.30 926.76 577.70
00041528 00000122 622.19 186.65 382.38 496.68 798.97 365.23 959.59 404.80 912.03 452.32 784.40 541.43 920.17 574.80
00041529 00000123 619.20 186.93 385.90 498.20 797.44 364.66 957.51 406.25 907.04 452.86 776.78 539.08 914.53 574.20
00041530 00000124 616.34 188.29 386.28 507.78 794.63 365.25 954.82 408.20 902.49 455.15 772.82 543.19 910.55 579.53
00041531 00000125 618.50 187.99 382.00 508.01 795.12 371.43 956.40 414.76 903.84 459.32 777.27 550.03 911.76 586.42
00041532 00000126 617.86 188.26 381.69 508.61 793.87 379.24 957.09 422.30 903.72 466.79 777.65 555.22 914.35 591.25
00041533 00000127 613.76 189.51 383.23 516.25 792.62 386.49 957.10 430.32 904.04 474.06 778.30 562.43 913.00 599.15
00041534 00000128 608.77 191.73 388.87 529.95 792.92 395.30 959.49 437.79 910.24 487.92 779.94 576.61 913.86 612.83
CROP_BBOX: 217 0 1258 980
