Video ID: 	ti70PYMyWi0
H: 	2160
W: 	3840
FPS: 	25.0

FRAME INDEX X0 Y0 W H [Landmarks (5 Points)]

00003296 00000000 1298.66 206.43 689.18 1026.53 1457.27 615.05 1766.18 610.30 1597.43 757.19 1488.68 965.25 1746.04 966.11
00003297 00000001 1298.39 211.14 689.89 1040.13 1457.49 623.35 1769.05 617.35 1599.85 768.21 1491.24 985.11 1751.12 984.82
00003298 00000002 1297.55 223.87 688.29 1032.63 1455.70 640.49 1768.72 633.93 1597.18 792.33 1485.80 1000.47 1754.44 999.38
00003299 DELETE   1297.17 229.73 682.61 1018.74 1441.87 647.61 1771.32 638.57 1583.98 820.65 1468.04 1019.36 1745.41 1014.79
00003300 00000004 1287.81 233.95 685.07 1021.24 1431.28 663.72 1760.94 654.07 1574.05 833.52 1464.05 1036.09 1738.64 1030.04
00003301 00000005 1284.43 239.85 684.13 1025.02 1427.96 674.93 1750.17 666.11 1568.36 843.36 1463.16 1044.98 1729.80 1039.93
00003302 00000006 1278.33 255.88 694.83 1020.31 1430.84 708.56 1756.43 691.31 1567.28 850.70 1464.70 1047.11 1735.83 1037.70
00003303 00000007 1278.63 256.23 691.76 1024.62 1426.72 713.11 1751.57 693.63 1559.00 849.93 1459.77 1048.33 1732.79 1037.31
00003304 00000008 1274.41 248.61 699.54 1027.51 1419.66 698.53 1750.20 681.74 1551.15 848.32 1455.66 1044.33 1733.57 1035.16
00003305 00000009 1285.15 231.94 682.62 1036.62 1424.11 671.89 1747.41 666.89 1555.22 844.11 1456.11 1043.57 1729.75 1041.29
00003306 00000010 1297.36 224.63 682.17 1055.27 1434.18 659.49 1758.77 652.44 1557.97 835.71 1465.41 1041.08 1740.55 1036.99
00003307 00000011 1302.31 220.36 688.25 1074.76 1441.68 659.67 1771.53 653.04 1569.58 828.22 1475.18 1033.88 1756.50 1033.14
00003308 00000012 1312.24 214.68 691.98 1082.46 1446.40 652.27 1777.19 641.54 1573.65 819.64 1480.27 1031.65 1764.96 1027.82
00003309 00000013 1319.98 213.71 697.02 1079.91 1452.94 650.87 1780.92 636.89 1578.98 817.51 1487.24 1029.53 1771.03 1022.93
00003310 00000014 1323.00 219.04 692.71 1071.69 1458.21 657.85 1790.14 646.53 1585.09 824.15 1492.06 1031.87 1775.94 1027.72
00003311 00000015 1320.56 226.29 693.60 1062.56 1461.18 669.90 1792.57 661.81 1593.39 838.56 1497.88 1035.06 1779.96 1033.23
00003312 00000016 1318.83 238.48 694.31 1053.74 1461.44 683.21 1790.19 676.06 1596.63 851.67 1499.34 1044.03 1776.84 1042.77
00003313 00000017 1318.23 247.63 692.78 1046.66 1458.84 695.80 1787.29 690.70 1593.25 869.28 1497.56 1049.22 1775.36 1048.96
00003314 00000018 1320.08 255.17 691.31 1037.92 1457.98 700.51 1789.01 696.17 1591.64 872.21 1494.67 1049.95 1775.76 1050.39
00003315 00000019 1324.12 254.25 691.15 1041.30 1462.73 702.09 1792.36 698.54 1596.24 876.09 1500.51 1053.17 1778.80 1054.32
00003316 00000020 1333.47 247.52 690.42 1056.45 1470.19 700.29 1800.83 694.70 1602.69 871.08 1511.24 1055.10 1789.01 1054.74
00003317 00000021 1341.15 242.17 692.44 1067.47 1476.57 693.99 1808.37 685.21 1611.19 865.71 1520.26 1056.87 1796.77 1053.95
00003318 00000022 1346.43 240.94 694.66 1066.44 1483.57 687.34 1811.16 678.92 1615.62 862.04 1525.24 1053.99 1796.85 1051.61
00003319 00000023 1348.00 237.43 697.04 1063.26 1485.77 681.11 1812.25 670.59 1617.35 855.29 1526.42 1049.52 1798.27 1045.61
00003320 00000024 1350.86 232.03 698.20 1057.93 1490.30 675.43 1816.21 666.08 1622.12 851.65 1529.38 1042.42 1802.40 1039.61
00003321 00000025 1357.64 228.70 697.47 1054.41 1495.41 670.91 1822.25 662.00 1627.90 848.52 1532.17 1038.36 1807.52 1036.33
00003322 00000026 1363.12 227.98 698.35 1053.97 1501.19 668.71 1825.64 658.72 1632.63 846.05 1537.94 1034.13 1814.70 1031.34
00003323 00000027 1368.24 226.67 697.50 1058.11 1504.85 666.89 1828.57 654.19 1633.80 843.61 1541.94 1031.89 1821.35 1027.21
00003324 00000028 1369.72 223.27 699.96 1062.72 1505.16 666.18 1830.12 650.36 1635.01 839.61 1543.65 1030.43 1827.01 1023.09
00003325 00000029 1372.38 218.66 702.45 1059.48 1504.26 664.31 1829.94 647.52 1632.76 831.89 1543.82 1026.71 1828.47 1018.31
00003326 00000030 1371.81 216.76 703.74 1049.37 1505.85 661.24 1827.37 648.78 1635.22 829.23 1547.64 1020.59 1825.72 1014.88
00003327 00000031 1372.47 220.67 703.00 1042.73 1507.91 662.68 1826.77 652.07 1637.88 833.87 1547.88 1016.06 1825.07 1011.74
00003328 00000032 1369.85 223.25 704.41 1043.51 1506.89 667.76 1827.76 658.43 1638.00 842.14 1543.52 1019.86 1823.31 1016.27
00003329 00000033 1363.75 227.73 706.27 1045.10 1500.56 676.41 1824.52 668.51 1630.73 853.06 1537.11 1029.75 1816.97 1026.58
00003330 00000034 1357.81 235.61 702.60 1040.24 1497.35 682.64 1820.25 673.67 1631.78 865.31 1539.00 1041.16 1809.82 1037.56
00003331 00000035 1356.82 243.87 699.04 1031.94 1494.66 686.99 1816.13 677.40 1627.48 869.40 1537.05 1049.70 1796.72 1046.17
00003332 00000036 1355.50 239.45 696.69 1040.05 1492.99 685.96 1816.41 675.35 1625.88 863.00 1534.52 1053.56 1793.20 1049.55
00003333 00000037 1359.67 237.04 690.09 1038.69 1500.80 682.06 1815.94 671.42 1629.54 852.36 1542.22 1044.03 1794.85 1040.75
00003334 00000038 1367.12 228.25 687.52 1026.10 1504.40 679.89 1825.61 675.23 1632.84 831.64 1537.93 1018.83 1812.80 1019.10
00003335 00000039 1367.44 212.36 692.82 1024.20 1502.76 653.79 1824.50 647.28 1627.11 803.98 1530.39 994.64 1811.69 994.75
00003336 00000040 1370.93 191.49 692.60 1032.52 1503.90 636.81 1819.58 628.93 1627.69 789.54 1529.73 976.80 1811.06 976.75
00003337 00000041 1376.04 176.20 685.27 1040.85 1509.18 620.15 1823.06 616.38 1635.94 781.33 1533.92 967.39 1808.90 971.16
00003338 00000042 1379.79 174.45 678.42 1040.33 1515.64 611.62 1826.62 611.40 1643.04 780.49 1541.92 973.11 1798.34 980.06
00003339 00000043 1377.40 178.65 685.01 1049.19 1508.12 624.74 1827.56 618.45 1636.12 795.31 1539.36 989.71 1808.79 991.98
00003340 00000044 1375.04 202.79 686.07 1043.00 1502.57 643.58 1826.01 635.71 1626.50 819.25 1537.34 1014.00 1804.74 1014.61
00003341 00000045 1373.04 218.90 682.41 1041.12 1501.88 661.76 1825.28 653.77 1626.46 845.18 1539.37 1028.80 1808.32 1028.59
00003342 00000046 1371.58 226.63 681.43 1041.76 1503.09 669.11 1823.79 660.55 1627.11 854.74 1539.98 1036.32 1803.96 1035.27
00003343 00000047 1370.14 228.00 684.73 1040.74 1501.50 670.43 1824.40 662.34 1625.79 853.90 1537.27 1034.58 1806.76 1033.54
00003344 00000048 1372.80 223.62 682.03 1041.44 1501.07 664.89 1826.08 656.91 1625.40 848.23 1535.53 1028.59 1811.15 1027.55
00003345 00000049 1374.03 214.13 682.24 1040.84 1501.30 655.72 1825.46 650.21 1622.90 834.87 1531.61 1017.21 1809.31 1018.66
00003346 00000050 1373.98 203.03 681.12 1037.72 1500.86 642.16 1822.82 634.38 1621.76 814.71 1528.66 1001.18 1807.14 1001.85
00003347 00000051 1374.66 191.92 683.54 1040.07 1503.09 631.01 1823.06 623.64 1624.42 803.80 1530.46 992.87 1805.46 994.39
00003348 00000052 1375.01 188.11 680.82 1040.80 1503.08 625.39 1821.81 617.10 1622.20 792.99 1528.72 985.65 1804.42 987.00
00003349 00000053 1377.46 175.77 676.70 1050.48 1505.79 617.51 1819.99 612.14 1625.06 788.88 1531.38 981.13 1801.08 984.49
00003350 00000054 1377.97 172.63 672.68 1053.88 1505.51 614.29 1816.64 610.14 1623.75 790.36 1531.69 980.72 1798.13 985.11
00003351 00000055 1374.07 175.17 674.50 1052.36 1501.65 620.54 1816.17 617.07 1622.56 798.49 1528.93 985.52 1796.58 990.52
00003352 00000056 1368.40 189.75 675.00 1038.43 1498.61 623.99 1811.47 621.82 1616.42 803.32 1526.51 993.13 1783.00 999.15
00003353 00000057 1368.78 199.54 670.37 1041.35 1500.19 631.50 1806.57 636.48 1610.83 833.55 1524.13 1007.28 1770.67 1018.03
00003354 00000058 1363.18 205.49 671.10 1049.51 1496.56 645.82 1804.35 651.39 1611.12 847.92 1529.13 1030.14 1759.86 1041.10
00003355 00000059 1356.35 217.97 677.79 1055.56 1492.95 666.41 1802.11 668.44 1612.88 871.41 1527.88 1054.11 1755.88 1062.52
00003356 DELETE   1351.27 240.79 677.96 1058.66 1496.14 690.40 1805.16 703.01 1619.41 896.12 1533.04 1072.26 1754.98 1088.55
00003357 00000061 1353.72 246.46 667.64 1078.84 1493.76 702.98 1799.58 714.94 1616.05 910.53 1536.04 1097.12 1744.71 1113.96
00003358 00000062 1351.22 260.29 671.61 1101.92 1483.41 714.01 1790.62 722.51 1608.50 928.03 1532.19 1111.77 1753.36 1125.44
00003359 00000063 1352.84 298.85 670.60 1103.39 1478.45 735.76 1793.42 734.25 1605.57 943.64 1517.19 1136.90 1766.45 1143.80
00003360 00000064 1351.32 327.87 678.46 1098.91 1474.87 768.31 1801.96 768.02 1596.25 979.54 1506.83 1162.03 1784.88 1167.80
00003361 00000065 1344.13 337.58 689.31 1105.75 1474.39 785.25 1798.30 784.88 1592.71 1000.64 1506.71 1175.75 1784.10 1180.16
00003362 00000066 1340.25 341.39 691.51 1106.02 1473.34 792.13 1796.88 794.98 1592.66 1015.59 1503.33 1179.81 1782.81 1185.74
00003363 00000067 1337.60 354.12 688.91 1082.72 1472.27 795.93 1795.67 803.00 1592.45 1019.41 1500.17 1175.23 1780.34 1184.39
00003364 00000068 1338.40 353.44 683.69 1070.15 1472.20 790.49 1794.59 798.14 1592.76 1015.92 1496.92 1167.30 1777.71 1176.98
00003365 00000069 1339.32 351.21 679.12 1063.48 1473.05 786.12 1790.84 793.48 1591.99 1012.21 1496.77 1157.29 1777.22 1166.41
00003366 00000070 1341.06 348.42 680.31 1058.08 1473.52 781.14 1791.00 786.65 1592.07 1003.65 1500.05 1152.02 1777.76 1159.86
00003367 00000071 1343.97 342.11 682.31 1056.51 1474.64 777.87 1790.90 782.74 1593.74 993.20 1502.77 1145.23 1779.41 1152.70
00003368 00000072 1346.14 336.98 683.13 1056.98 1475.26 776.12 1792.27 780.76 1594.41 990.23 1503.45 1144.67 1779.43 1152.24
00003369 00000073 1347.65 337.58 680.76 1056.23 1476.37 775.79 1792.56 780.48 1596.32 991.84 1506.06 1144.75 1780.17 1152.50
00003370 00000074 1346.83 337.23 680.97 1050.78 1475.60 774.73 1792.17 780.32 1595.82 991.45 1505.85 1144.19 1777.94 1152.60
00003371 00000075 1348.42 333.44 681.33 1050.97 1475.13 774.84 1791.55 780.95 1594.65 989.70 1503.67 1142.26 1777.48 1151.08
00003372 00000076 1346.69 332.97 679.83 1045.67 1473.28 770.94 1789.03 780.09 1591.33 987.46 1503.51 1140.11 1773.80 1151.31
00003373 00000077 1347.15 331.37 681.54 1042.84 1473.64 770.45 1787.95 780.30 1590.94 988.64 1504.94 1139.37 1773.66 1150.78
00003374 00000078 1350.41 328.73 680.25 1042.12 1476.30 771.10 1790.47 779.47 1592.87 985.67 1506.76 1137.49 1777.18 1147.85
00003375 00000079 1352.96 326.75 682.98 1041.76 1478.06 770.56 1793.22 778.86 1595.99 983.68 1507.20 1135.36 1779.48 1146.10
00003376 00000080 1353.78 327.74 684.07 1040.84 1480.58 770.07 1796.22 778.72 1600.30 983.68 1510.96 1134.14 1781.65 1144.93
00003377 00000081 1356.16 324.14 685.83 1040.74 1481.92 768.13 1798.07 775.64 1600.91 980.78 1511.16 1129.42 1785.80 1139.46
00003378 00000082 1358.37 302.10 669.43 1049.31 1492.84 757.24 1805.97 761.64 1613.50 976.29 1519.24 1123.72 1786.69 1128.33
00003379 00000083 1365.38 310.47 666.55 1043.05 1495.67 757.86 1801.15 773.07 1607.75 961.27 1533.99 1098.90 1787.30 1114.27
00003380 00000084 1372.04 290.62 664.61 1051.43 1512.17 744.03 1817.38 754.30 1627.44 948.67 1532.09 1108.69 1785.53 1118.89
00003381 00000085 1377.36 267.74 664.81 1082.37 1510.71 720.93 1815.84 752.09 1621.70 935.16 1534.54 1101.19 1779.01 1125.09
00003382 00000086 1388.01 271.32 656.72 1083.23 1520.21 714.03 1821.59 742.98 1627.70 930.01 1537.70 1106.32 1770.63 1129.27
00003383 00000087 1398.71 290.22 663.63 1051.00 1525.15 718.08 1839.98 740.91 1637.32 936.89 1543.97 1114.54 1770.67 1133.16
00003384 00000088 1412.33 288.35 659.10 1049.23 1534.04 720.81 1849.58 743.51 1647.41 939.64 1556.41 1112.48 1784.03 1131.46
00003385 00000089 1424.54 287.24 654.62 1043.65 1547.05 726.02 1861.32 744.93 1660.94 944.21 1572.01 1111.64 1806.80 1127.39
00003386 00000090 1436.28 295.00 651.89 1037.09 1562.16 730.44 1867.43 745.47 1672.45 944.62 1588.73 1111.35 1823.87 1124.08
00003387 00000091 1447.06 283.34 648.47 1022.48 1574.92 729.66 1872.36 740.67 1687.55 941.14 1605.79 1110.99 1834.41 1120.69
00003388 00000092 1450.01 293.27 658.85 1001.00 1580.04 726.21 1882.95 728.73 1702.93 949.11 1631.38 1100.73 1841.39 1103.81
00003389 00000093 1457.84 300.61 662.08 1008.02 1590.47 711.23 1890.57 732.18 1697.68 943.98 1610.34 1086.50 1828.91 1102.91
00003390 DELETE   1460.30 298.75 715.55 1256.14 1584.93 701.04 1901.07 729.99 1690.60 956.16 1604.94 1146.01 1835.02 1166.71
00003391 DELETE   1496.86 271.66 642.84 1102.32 1622.59 688.48 1968.22 682.91 1774.47 957.20 1672.09 1117.31 1891.41 1116.68
00003392 00000096 1511.37 324.49 630.73 1018.29 1630.24 724.38 1893.76 728.51 1708.29 954.23 1661.52 1129.94 1853.32 1133.60
00003393 00000097 1514.02 330.57 694.83 1030.93 1617.17 733.78 1934.76 743.01 1719.39 939.49 1669.41 1123.73 1880.02 1128.57
00003394 00000098 1508.30 299.73 613.89 1045.68 1635.75 734.88 1933.56 742.10 1752.63 953.96 1670.61 1122.44 1885.40 1129.07
00003395 00000099 1508.09 310.02 620.57 1024.65 1639.54 734.86 1937.07 746.58 1749.35 952.02 1671.29 1115.88 1886.52 1126.22
00003396 00000100 1514.94 305.27 649.26 1031.63 1643.90 732.80 1943.98 744.82 1752.77 947.70 1671.81 1115.76 1894.67 1127.25
00003397 00000101 1518.94 305.55 640.63 1039.30 1649.92 730.72 1947.99 744.03 1759.71 945.40 1671.44 1109.92 1903.50 1122.89
00003398 00000102 1520.08 299.47 643.84 1040.43 1652.92 729.15 1950.74 744.73 1761.98 944.38 1669.05 1103.16 1906.77 1118.02
00003399 00000103 1522.56 303.58 645.25 1036.83 1655.67 731.43 1953.34 749.51 1762.14 945.79 1668.92 1103.89 1907.90 1120.24
00003400 00000104 1526.31 308.78 644.02 1031.31 1659.34 734.62 1958.08 754.06 1766.27 948.07 1672.08 1106.70 1913.94 1123.53
00003401 00000105 1527.76 324.58 657.95 1015.06 1660.49 737.23 1970.12 759.38 1771.68 954.90 1672.24 1105.46 1923.26 1122.15
00003402 00000106 1533.22 322.32 653.82 1014.56 1665.55 739.06 1975.86 760.91 1778.74 958.82 1677.93 1104.17 1932.63 1120.09
00003403 00000107 1537.01 323.58 653.09 1008.15 1669.76 739.03 1978.17 760.53 1782.14 957.03 1684.50 1102.13 1935.88 1117.67
00003404 00000108 1543.13 319.99 648.88 1006.53 1676.01 738.11 1978.02 760.08 1783.28 953.14 1689.93 1097.33 1939.19 1113.30
00003405 00000109 1544.02 320.78 649.46 1000.38 1682.37 744.06 1982.32 769.88 1788.22 947.36 1690.70 1092.64 1935.75 1113.37
00003406 00000110 1548.66 315.31 648.20 1008.72 1684.75 736.92 1988.22 766.08 1793.83 938.75 1688.79 1095.73 1929.29 1120.04
00003407 00000111 1556.38 316.45 649.84 1006.35 1691.15 727.23 1998.52 761.98 1800.04 935.36 1692.92 1092.61 1936.55 1120.69
00003408 00000112 1569.74 309.17 645.13 1008.10 1702.09 720.20 2008.60 758.18 1808.28 926.37 1698.32 1083.96 1941.38 1115.19
00003409 00000113 1572.46 303.56 647.87 1012.19 1710.94 709.02 2017.79 750.20 1817.52 918.56 1701.07 1075.57 1948.06 1109.92
00003410 00000114 1571.50 298.92 648.29 1011.34 1713.14 699.20 2020.87 740.29 1820.85 906.42 1704.05 1066.75 1942.56 1101.63
00003411 00000115 1566.47 283.86 651.88 1029.32 1709.66 689.14 2014.81 727.14 1816.78 890.42 1701.60 1057.38 1941.31 1088.07
00003412 00000116 1564.19 273.35 652.22 1040.18 1709.99 679.97 2013.10 719.15 1815.96 875.74 1698.88 1052.35 1933.72 1084.26
00003413 00000117 1564.22 281.96 661.78 1036.21 1711.91 675.42 2024.02 705.04 1824.61 861.76 1698.27 1048.78 1946.26 1079.66
00003414 00000118 1560.57 279.05 670.13 1039.40 1713.77 671.20 2023.22 702.53 1823.52 850.35 1693.87 1044.60 1936.22 1077.54
00003415 00000119 1557.65 278.02 672.50 1035.25 1714.64 669.56 2023.76 702.17 1824.86 847.91 1693.11 1041.98 1932.27 1075.86
00003416 00000120 1551.18 273.52 676.46 1028.46 1706.04 673.01 2018.66 708.82 1819.61 862.07 1690.71 1039.65 1932.09 1075.52
00003417 00000121 1541.27 259.91 674.49 1032.75 1687.35 677.88 2006.79 713.97 1802.59 872.71 1679.38 1040.94 1930.44 1076.08
00003418 00000122 1524.58 262.01 675.59 1029.33 1677.95 684.57 1995.84 722.50 1793.91 872.00 1668.12 1041.61 1922.73 1077.46
00003419 00000123 1453.93 423.79 521.17 713.74 1673.29 688.26 1885.01 738.77 1799.79 842.92 1658.53 945.54 1806.71 984.50
00003420 00000124 1456.51 421.51 513.32 715.92 1667.69 690.97 1882.47 735.51 1794.92 848.57 1646.76 954.47 1815.31 988.53
00003421 00000125 1457.05 423.52 506.16 716.85 1663.46 701.38 1876.72 743.81 1790.00 859.53 1639.54 956.98 1811.79 990.30
00003422 00000126 1456.20 427.50 502.58 716.10 1656.74 716.67 1869.80 756.29 1784.60 861.30 1636.16 962.69 1805.35 994.39
00003423 00000127 1454.20 440.09 503.88 705.92 1647.30 714.21 1870.69 761.14 1775.77 864.91 1634.15 965.68 1800.98 1002.16
00003424 00000128 1453.09 428.68 502.09 720.27 1645.71 712.97 1868.01 754.24 1773.32 868.18 1627.46 968.04 1802.07 1001.15
00003425 00000129 1452.27 445.62 507.99 710.42 1644.58 717.94 1868.78 762.51 1771.15 872.73 1631.13 971.10 1797.17 1005.85
00003426 00000130 1451.57 448.56 511.86 722.71 1645.34 720.83 1870.53 762.74 1772.83 880.27 1630.84 981.45 1796.52 1014.44
00003427 00000131 1453.29 441.66 511.68 738.88 1647.85 722.38 1869.84 756.74 1783.88 878.43 1642.89 1001.58 1792.42 1027.98
00003428 00000132 1452.92 446.64 510.94 741.67 1647.81 725.20 1869.12 759.17 1784.32 878.94 1644.25 1007.42 1790.34 1033.56
00003429 00000133 1455.53 451.31 510.91 733.27 1649.76 727.94 1871.24 760.62 1784.05 883.71 1648.33 1007.51 1796.63 1032.48
00003430 00000134 1458.54 451.01 511.20 730.34 1650.90 730.04 1874.96 763.47 1785.27 888.10 1647.09 1005.53 1805.32 1030.98
00003431 00000135 1461.81 460.28 509.42 722.10 1652.67 731.73 1876.85 766.65 1785.87 893.66 1644.22 1005.17 1812.92 1031.65
00003432 00000136 1464.05 457.09 511.60 727.08 1654.98 734.76 1880.65 770.82 1787.38 895.68 1642.18 1002.38 1819.78 1030.24
00003433 00000137 1468.39 456.84 510.36 732.98 1657.41 737.03 1883.64 773.06 1790.04 895.22 1646.91 1004.29 1823.89 1032.33
00003434 00000138 1469.54 456.27 511.86 748.25 1660.41 744.46 1891.91 779.74 1793.22 899.31 1648.10 1009.54 1825.37 1038.62
00003435 00000139 1470.38 459.97 511.45 755.03 1661.00 744.34 1892.36 782.34 1793.26 900.95 1646.76 1016.50 1822.05 1047.46
00003436 00000140 1470.62 459.87 512.02 763.51 1660.96 747.22 1892.61 786.23 1794.60 903.75 1642.31 1021.29 1821.30 1053.36
00003437 00000141 1469.90 461.02 512.26 768.64 1660.64 749.13 1893.32 788.07 1796.09 904.93 1641.72 1025.14 1822.05 1057.15
00003438 00000142 1469.61 461.96 512.17 768.70 1660.45 750.68 1892.32 789.67 1796.13 908.34 1642.44 1028.70 1821.15 1060.38
00003439 00000143 1473.39 459.45 506.51 757.48 1665.15 759.62 1890.69 794.77 1799.38 911.24 1649.55 1020.55 1828.72 1049.25
00003440 00000144 1475.02 462.90 506.84 743.74 1666.79 764.37 1884.66 799.29 1798.81 906.83 1648.91 1008.78 1827.12 1038.05
00003441 00000145 1474.05 459.05 508.21 740.12 1662.23 753.96 1887.88 790.27 1795.77 900.36 1650.68 1007.34 1829.48 1036.95
00003442 00000146 1472.88 457.83 510.52 735.16 1662.85 747.06 1889.09 783.47 1794.85 899.98 1653.10 1005.57 1831.38 1034.50
00003443 00000147 1472.76 462.97 509.90 734.47 1663.11 749.43 1890.51 785.90 1797.43 904.26 1651.30 1009.54 1833.40 1038.78
00003444 00000148 1475.89 463.37 505.54 740.08 1664.70 756.00 1894.35 790.49 1797.38 912.63 1655.69 1020.72 1835.19 1048.00
00003445 00000149 1475.56 471.03 508.30 741.90 1668.01 759.63 1893.99 796.86 1801.22 921.37 1652.81 1027.23 1831.97 1056.36
00003446 00000150 1476.43 476.39 506.50 740.68 1665.51 764.47 1891.39 802.15 1799.34 927.93 1646.22 1030.89 1830.80 1060.65
00003447 00000151 1475.89 477.31 505.23 740.08 1664.53 766.16 1887.15 804.24 1796.37 933.42 1643.70 1031.43 1825.67 1061.41
00003448 00000152 1472.26 475.71 506.05 738.43 1659.60 767.56 1883.44 803.62 1790.79 936.11 1639.49 1031.81 1823.68 1059.99
00003449 00000153 1468.97 475.47 506.29 738.81 1656.50 767.87 1879.79 802.95 1787.14 937.11 1636.69 1032.34 1819.78 1059.54
00003450 00000154 1467.34 478.12 507.07 739.33 1656.17 768.63 1879.30 805.28 1787.56 938.44 1634.00 1032.50 1818.17 1061.15
00003451 00000155 1469.24 480.01 507.91 742.12 1659.97 770.73 1882.45 810.51 1793.88 940.23 1635.08 1036.64 1819.85 1068.00
00003452 00000156 1470.28 493.08 509.87 731.35 1666.44 772.89 1884.62 815.44 1798.19 946.77 1638.13 1038.20 1821.22 1072.07
00003453 00000157 1470.71 495.82 510.61 728.14 1663.64 778.32 1884.47 821.19 1792.40 957.66 1633.53 1039.67 1818.97 1074.55
00003454 00000158 1464.31 499.33 511.80 723.37 1654.80 781.56 1876.55 822.72 1781.42 962.76 1624.48 1039.40 1809.31 1072.78
