Video ID: 	vrkxwm3wY6Q
H: 	2160
W: 	3840
FPS: 	25.0

FRAME INDEX X0 Y0 W H [Landmarks (5 Points)]

00003878 00000000 1405.45 626.58 403.51 570.50 1535.35 840.34 1715.24 837.85 1653.78 934.99 1545.62 1038.81 1711.69 1035.24
00003879 00000001 1398.01 620.27 404.29 575.61 1539.61 835.54 1713.56 830.74 1658.10 922.75 1566.22 1036.50 1707.56 1030.90
00003880 DELETE   1391.18 612.71 410.64 572.05 1529.09 835.14 1707.49 826.37 1643.13 922.28 1560.67 1035.74 1700.90 1027.03
00003881 DELETE   1381.26 614.36 409.62 570.33 1509.60 834.37 1691.74 825.14 1618.69 919.96 1542.39 1036.83 1686.11 1027.40
00003882 00000004 1372.73 622.87 409.28 566.88 1496.51 837.36 1681.07 827.11 1604.06 924.66 1531.86 1045.02 1672.88 1035.18
00003883 00000005 1369.59 628.96 410.46 574.32 1493.37 843.62 1678.94 830.02 1602.99 928.07 1530.50 1057.52 1670.74 1045.15
00003884 00000006 1363.99 629.21 418.86 593.61 1492.27 851.51 1683.60 839.31 1611.60 937.15 1536.68 1068.65 1671.70 1058.99
00003885 DELETE   1362.91 638.57 422.34 596.07 1488.99 869.56 1676.73 853.85 1606.15 956.67 1539.20 1084.37 1668.28 1071.61
00003886 DELETE   1355.51 638.95 432.16 629.87 1479.66 885.99 1671.95 869.78 1591.05 980.49 1519.46 1106.73 1660.36 1092.64
00003887 00000009 1352.12 646.35 435.56 639.06 1473.28 902.82 1670.12 885.02 1585.38 996.77 1513.99 1123.68 1661.14 1108.13
00003888 00000010 1354.93 654.43 429.58 638.96 1475.78 907.60 1672.70 890.28 1591.47 1003.62 1515.45 1131.53 1664.13 1116.03
00003889 00000011 1356.40 644.77 433.67 642.64 1481.39 904.66 1676.72 884.95 1599.81 995.88 1523.76 1124.77 1672.32 1108.12
00003890 00000012 1356.04 637.83 431.17 634.78 1489.05 900.76 1680.78 879.42 1614.96 987.23 1537.31 1114.12 1683.05 1096.79
00003891 00000013 1360.00 632.84 427.55 627.94 1496.25 899.25 1682.36 876.66 1624.11 989.57 1542.50 1107.57 1691.09 1089.42
00003892 00000014 1363.47 637.92 422.00 612.70 1500.91 895.29 1683.16 875.33 1627.71 987.76 1539.59 1098.07 1691.13 1081.66
00003893 00000015 1363.96 643.34 419.20 595.91 1500.04 891.45 1681.44 872.05 1628.20 982.08 1539.75 1093.20 1689.21 1077.45
00003894 00000016 1361.45 643.08 421.40 590.57 1498.30 888.19 1678.59 868.83 1625.07 977.53 1539.64 1091.78 1686.89 1076.27
00003895 00000017 1354.22 636.85 419.06 604.16 1496.45 882.27 1681.64 867.98 1629.54 976.02 1530.77 1088.78 1684.71 1077.31
00003896 00000018 1351.11 637.18 416.86 601.58 1489.65 881.21 1678.34 866.41 1623.43 976.45 1522.82 1087.01 1680.16 1075.26
00003897 00000019 1344.42 633.39 420.22 600.18 1478.77 880.94 1673.68 866.04 1609.68 973.93 1512.43 1084.54 1673.90 1072.56
00003898 00000020 1342.07 633.08 421.47 595.13 1476.93 876.59 1671.42 864.38 1605.21 971.18 1511.71 1080.01 1668.34 1069.62
00003899 DELETE   1344.87 633.68 424.04 575.55 1481.84 866.52 1670.90 853.85 1603.88 955.41 1513.13 1067.78 1670.93 1055.73
00003900 DELETE   1346.24 628.15 421.64 576.19 1484.21 860.61 1670.95 845.97 1605.71 949.77 1518.23 1063.29 1670.19 1049.65
00003901 DELETE   1345.65 620.61 419.80 582.98 1478.02 857.26 1664.56 842.73 1596.58 943.54 1508.09 1058.74 1666.11 1045.89
00003902 00000024 1339.02 619.42 420.45 580.07 1465.62 855.93 1654.88 845.96 1581.00 944.58 1496.59 1059.81 1650.52 1049.38
00003903 00000025 1336.74 620.31 419.74 581.68 1461.17 858.83 1649.45 846.97 1575.04 944.27 1493.75 1061.56 1647.68 1049.37
00003904 00000026 1339.14 622.83 418.76 574.79 1467.25 855.29 1654.55 844.32 1583.32 942.13 1500.72 1057.43 1652.10 1045.86
00003905 00000027 1339.38 621.34 420.43 571.68 1471.78 853.90 1658.32 840.35 1590.78 937.46 1506.85 1053.48 1658.29 1040.06
00003906 00000028 1340.76 615.68 418.94 579.22 1468.79 850.28 1655.87 835.69 1584.65 934.84 1504.87 1055.13 1655.18 1040.93
00003907 00000029 1340.22 613.62 417.17 583.74 1467.68 846.37 1652.84 834.48 1580.52 933.08 1501.17 1056.02 1650.01 1043.72
00003908 00000030 1343.39 614.68 414.71 592.61 1466.69 843.99 1652.39 832.23 1577.64 927.97 1498.37 1057.41 1649.98 1045.79
00003909 00000031 1346.06 611.27 412.54 601.06 1469.20 838.88 1654.54 829.26 1580.38 925.97 1497.66 1055.21 1650.39 1045.91
00003910 00000032 1346.71 610.48 411.94 599.67 1468.31 837.75 1653.61 828.24 1579.36 924.02 1494.40 1051.18 1650.15 1042.44
00003911 00000033 1345.91 609.43 413.67 595.00 1465.37 838.22 1651.56 828.97 1575.41 925.61 1487.99 1047.67 1650.23 1039.45
00003912 00000034 1345.93 608.31 415.32 594.10 1466.75 837.56 1653.90 828.23 1577.51 926.79 1488.69 1045.28 1652.53 1037.21
00003913 00000035 1348.90 612.30 414.31 588.69 1470.45 837.97 1658.90 828.38 1583.93 925.24 1491.16 1041.85 1659.11 1033.89
00003914 00000036 1349.54 613.96 416.87 585.31 1472.29 837.03 1663.26 828.92 1586.80 925.15 1491.29 1038.91 1663.58 1032.37
00003915 00000037 1350.60 613.84 417.89 584.37 1473.06 837.12 1665.17 829.59 1587.40 924.97 1490.84 1038.27 1664.96 1032.41
00003916 00000038 1352.05 618.08 415.66 573.29 1470.18 841.22 1661.75 831.82 1584.46 926.15 1486.63 1036.61 1665.33 1029.60
00003917 DELETE   1348.51 618.27 418.53 569.41 1458.79 847.68 1648.87 836.30 1564.90 930.35 1475.73 1037.49 1652.82 1028.77
00003918 DELETE   1340.70 622.42 423.24 562.64 1443.82 854.67 1633.27 842.51 1541.36 936.39 1467.20 1040.29 1631.68 1029.79
00003919 DELETE   1327.62 623.51 431.97 572.50 1429.42 853.18 1620.78 843.23 1519.67 942.31 1449.50 1046.10 1613.59 1037.58
00003920 00000042 1323.64 623.32 427.88 575.85 1422.62 851.34 1610.86 845.79 1503.55 948.59 1436.11 1045.01 1602.90 1040.23
00003921 00000043 1320.87 625.48 426.90 578.62 1414.34 852.66 1604.39 849.05 1489.82 950.81 1432.25 1046.85 1590.47 1043.61
00003922 00000044 1319.09 626.53 428.13 578.82 1410.10 852.92 1599.64 851.21 1481.43 951.69 1426.53 1050.45 1583.45 1049.01
00003923 00000045 1316.92 626.03 430.74 582.46 1411.74 853.46 1598.53 850.43 1483.22 949.36 1423.62 1054.33 1585.25 1052.29
00003924 00000046 1322.34 626.75 428.15 578.85 1421.38 853.78 1606.62 850.93 1496.38 950.23 1431.81 1050.92 1595.14 1048.89
00003925 DELETE   1328.21 624.88 432.03 579.05 1429.58 855.50 1617.11 852.59 1509.20 948.29 1442.25 1050.18 1605.43 1047.67
00003926 00000048 1337.30 627.56 427.28 575.45 1434.44 857.22 1624.01 849.89 1522.10 942.80 1454.55 1051.49 1616.97 1044.83
00003927 00000049 1341.19 629.87 424.60 578.01 1439.00 857.59 1626.27 848.67 1528.18 941.86 1464.43 1055.74 1620.02 1047.05
00003928 00000050 1345.07 630.17 423.26 589.11 1444.07 858.68 1630.14 849.04 1534.41 941.34 1472.14 1063.19 1624.10 1053.57
00003929 00000051 1340.31 626.44 424.50 602.23 1443.71 862.73 1640.69 851.47 1546.90 944.65 1482.73 1067.60 1621.76 1059.16
00003930 00000052 1336.11 626.66 428.76 605.45 1441.56 865.40 1642.22 851.61 1551.10 947.67 1485.89 1074.17 1625.18 1063.42
00003931 00000053 1332.85 628.54 428.48 604.19 1441.65 867.00 1642.04 854.13 1552.56 952.48 1486.61 1078.91 1625.05 1068.60
00003932 00000054 1336.24 640.64 421.32 582.14 1442.04 874.42 1638.27 856.37 1545.95 961.45 1482.68 1085.50 1629.72 1069.07
00003933 00000055 1332.15 631.35 428.30 582.00 1441.86 868.79 1634.23 854.73 1543.55 951.48 1477.33 1070.52 1631.41 1056.25
00003934 00000056 1328.24 624.78 431.82 585.61 1441.08 866.41 1636.41 850.20 1545.27 949.39 1475.79 1067.54 1634.49 1051.87
00003935 00000057 1329.61 622.19 428.43 598.80 1442.83 864.69 1635.55 847.57 1548.06 948.89 1474.53 1068.69 1639.00 1052.53
00003936 00000058 1330.50 627.06 425.45 612.65 1443.49 866.08 1640.12 845.71 1552.16 953.09 1476.15 1077.87 1637.91 1059.84
00003937 00000059 1332.41 626.26 421.24 615.65 1444.92 862.89 1638.00 843.40 1554.76 948.93 1477.79 1076.44 1633.39 1059.25
00003938 00000060 1332.69 624.62 421.34 613.12 1446.67 860.22 1639.68 841.53 1557.31 944.67 1478.25 1071.21 1634.98 1054.61
00003939 00000061 1333.53 618.12 421.80 611.67 1446.30 859.54 1635.85 844.53 1554.65 942.30 1475.56 1066.28 1637.78 1052.18
00003940 00000062 1332.72 618.49 423.46 600.89 1444.45 862.56 1635.25 847.07 1550.98 948.15 1472.38 1064.18 1638.40 1049.66
00003941 00000063 1331.87 619.26 426.26 595.55 1443.10 863.64 1635.58 849.68 1548.12 951.93 1469.27 1062.54 1636.61 1049.36
00003942 00000064 1332.47 617.96 426.97 595.50 1443.45 864.36 1637.41 850.70 1548.92 951.63 1470.25 1063.24 1637.81 1050.29
00003943 00000065 1333.46 617.61 427.27 594.81 1444.01 863.23 1638.62 849.28 1549.45 950.86 1470.35 1062.00 1639.83 1049.00
00003944 00000066 1334.60 618.72 426.67 591.13 1445.42 860.91 1639.70 847.30 1551.26 950.25 1471.12 1060.58 1640.39 1047.95
00003945 00000067 1336.53 618.51 424.70 588.84 1447.30 859.33 1640.19 846.41 1552.86 948.98 1472.75 1058.85 1639.64 1046.85
00003946 00000068 1336.43 617.42 425.15 589.20 1447.02 858.72 1640.09 845.54 1553.22 948.63 1472.41 1058.47 1639.80 1046.28
00003947 00000069 1337.21 617.88 424.51 588.17 1448.11 857.77 1641.31 845.45 1554.55 948.89 1473.54 1058.07 1640.07 1046.53
00003948 00000070 1338.19 617.96 425.00 589.33 1448.43 858.42 1642.48 846.38 1555.58 949.25 1474.19 1058.40 1641.17 1047.16
00003949 00000071 1340.52 618.41 424.40 591.04 1450.16 858.86 1643.38 847.37 1556.55 949.10 1475.45 1059.24 1642.06 1048.55
00003950 00000072 1340.50 618.02 424.26 589.66 1450.17 858.77 1643.71 847.80 1556.74 950.25 1476.19 1059.54 1641.39 1049.13
00003951 00000073 1339.74 619.18 424.91 586.74 1449.72 859.17 1643.33 848.17 1555.64 948.89 1475.59 1058.46 1640.40 1048.03
00003952 00000074 1340.55 619.64 423.58 585.83 1450.05 858.27 1643.46 847.52 1555.87 948.66 1474.99 1058.81 1640.70 1048.66
00003953 00000075 1338.45 623.56 427.37 582.86 1448.64 861.96 1643.46 849.52 1554.85 945.16 1474.86 1058.22 1642.79 1046.93
00003954 00000076 1338.11 627.23 431.25 580.98 1446.28 865.88 1644.02 854.01 1553.49 940.77 1473.21 1057.18 1642.89 1046.56
00003955 00000077 1339.37 625.85 429.43 580.47 1447.34 864.27 1642.94 853.33 1552.32 940.46 1472.68 1055.80 1641.18 1045.98
00003956 00000078 1336.24 624.71 430.72 580.48 1444.38 862.77 1642.10 849.98 1549.09 940.86 1471.02 1056.08 1640.46 1044.62
00003957 00000079 1335.85 622.94 430.02 581.30 1444.20 860.28 1642.42 847.11 1548.67 939.85 1470.18 1055.34 1641.27 1043.67
00003958 00000080 1337.63 622.05 428.47 582.37 1445.60 858.39 1642.81 845.23 1550.04 940.05 1471.43 1056.26 1641.16 1044.60
00003959 00000081 1340.34 620.85 426.52 587.51 1448.80 855.23 1643.25 842.15 1552.93 940.01 1474.27 1057.03 1641.73 1045.48
00003960 00000082 1342.78 620.09 423.77 588.06 1451.38 854.19 1643.51 842.28 1554.73 940.21 1476.90 1057.63 1639.64 1046.90
00003961 00000083 1342.78 619.59 423.46 587.18 1451.84 854.60 1642.76 842.99 1554.65 941.12 1478.04 1058.24 1637.56 1047.51
00003962 00000084 1343.46 619.82 423.12 587.52 1454.15 854.19 1644.01 843.94 1557.18 941.70 1479.51 1058.42 1638.14 1048.76
00003963 00000085 1343.61 619.73 423.87 587.66 1454.46 854.65 1645.98 844.17 1559.11 941.21 1479.96 1058.04 1640.65 1048.35
00003964 00000086 1344.54 619.15 422.68 587.79 1455.54 854.02 1646.67 844.14 1560.68 940.75 1481.27 1057.93 1641.03 1048.71
00003965 00000087 1344.95 618.96 422.69 588.72 1456.18 853.25 1646.49 843.28 1560.77 940.05 1482.00 1058.74 1640.40 1049.39
00003966 00000088 1345.53 617.88 422.68 591.46 1456.40 853.14 1646.36 842.88 1560.79 939.03 1482.08 1059.02 1640.91 1049.57
00003967 00000089 1345.18 619.52 422.89 590.01 1456.89 853.21 1646.87 843.03 1561.62 938.16 1482.86 1059.94 1641.28 1050.49
00003968 00000090 1347.05 618.87 421.78 589.18 1458.53 854.08 1647.32 842.89 1561.94 939.05 1485.44 1060.38 1642.29 1050.13
00003969 00000091 1348.71 619.58 422.10 588.52 1459.95 852.56 1649.36 841.47 1563.72 937.63 1485.41 1059.26 1644.78 1049.46
00003970 00000092 1350.59 618.45 420.21 587.88 1461.98 849.94 1652.23 839.92 1565.86 936.02 1487.64 1057.72 1646.15 1048.78
00003971 00000093 1351.59 617.97 420.28 588.57 1464.32 848.81 1652.86 837.02 1567.50 933.62 1490.09 1057.19 1648.93 1046.95
00003972 00000094 1353.85 617.81 419.86 586.71 1465.97 846.46 1656.19 835.60 1570.38 934.15 1490.97 1055.32 1651.26 1045.95
00003973 00000095 1355.41 618.52 422.04 582.18 1469.18 845.34 1659.24 835.14 1574.02 934.79 1493.11 1052.74 1654.42 1044.00
00003974 00000096 1356.53 618.01 420.24 579.37 1471.36 844.91 1661.45 834.84 1577.58 934.04 1492.13 1048.94 1660.21 1040.64
00003975 00000097 1357.25 621.17 421.49 572.66 1472.65 842.40 1664.27 832.74 1581.11 932.75 1492.83 1045.67 1663.78 1037.74
00003976 00000098 1359.02 621.54 421.04 572.02 1474.84 845.86 1667.07 835.39 1584.72 930.22 1494.37 1044.09 1667.84 1036.02
00003977 00000099 1364.87 620.14 417.42 578.29 1476.97 847.57 1670.41 840.55 1585.43 930.74 1494.88 1046.78 1667.27 1040.83
00003978 00000100 1364.67 619.56 416.03 581.68 1477.96 845.14 1670.16 838.04 1587.13 929.26 1496.64 1046.66 1666.42 1040.77
00003979 00000101 1364.18 618.24 415.81 583.67 1476.16 844.07 1668.98 835.48 1586.20 929.71 1496.38 1046.49 1667.24 1039.14
00003980 00000102 1363.84 617.80 416.04 579.31 1476.07 841.05 1668.82 832.80 1586.96 929.64 1498.55 1044.61 1667.54 1037.49
00003981 00000103 1364.07 617.47 417.19 577.01 1477.28 840.26 1668.56 830.89 1587.50 929.55 1501.70 1042.62 1667.57 1034.47
00003982 00000104 1365.22 617.44 418.28 576.92 1479.35 838.20 1669.82 828.35 1589.03 928.09 1505.03 1041.05 1669.47 1032.10
00003983 00000105 1365.69 614.65 418.87 580.05 1480.53 838.05 1671.17 828.01 1590.48 927.61 1507.33 1042.71 1670.33 1033.75
00003984 00000106 1365.10 614.57 418.53 581.33 1480.74 836.59 1670.54 828.14 1590.58 927.64 1507.75 1043.35 1667.57 1036.02
00003985 00000107 1365.30 614.22 418.06 581.04 1480.98 836.08 1669.91 829.16 1589.62 927.48 1506.07 1043.45 1664.99 1037.65
00003986 00000108 1364.13 614.30 417.64 580.15 1479.85 836.30 1668.11 829.59 1588.30 928.18 1505.31 1043.61 1662.75 1038.21
00003987 00000109 1364.59 614.84 416.98 577.66 1478.35 838.29 1666.44 829.71 1586.55 929.06 1504.52 1043.14 1663.64 1036.00
00003988 00000110 1364.06 616.01 417.73 577.25 1476.55 839.55 1666.23 829.32 1585.08 929.14 1503.87 1043.69 1664.95 1034.85
00003989 00000111 1365.24 620.71 419.19 574.59 1478.10 846.03 1668.24 834.20 1586.31 926.77 1507.92 1048.65 1665.37 1038.57
00003990 00000112 1366.35 624.34 422.83 578.37 1484.95 854.85 1673.05 840.07 1588.22 930.54 1517.16 1052.19 1667.65 1038.59
00003991 00000113 1368.57 623.77 424.89 581.25 1489.72 857.63 1676.31 842.46 1593.33 935.22 1521.11 1054.32 1669.67 1040.26
00003992 00000114 1364.23 630.01 425.91 585.35 1485.52 860.11 1673.83 844.23 1590.82 940.45 1519.44 1063.33 1664.35 1048.12
00003993 DELETE   1351.91 626.62 429.71 624.15 1464.87 864.66 1663.63 850.21 1573.39 951.53 1497.56 1084.40 1646.80 1072.96
00003994 DELETE   1342.37 643.12 432.26 632.26 1445.14 879.40 1642.64 868.57 1538.93 977.35 1465.56 1099.22 1627.77 1091.88
00003995 00000117 1334.29 646.80 435.60 628.81 1441.68 885.42 1637.37 876.97 1534.64 985.43 1455.73 1099.42 1629.46 1093.28
00003996 00000118 1337.44 645.41 435.95 621.11 1448.13 884.41 1642.16 874.52 1545.95 983.85 1465.73 1096.49 1636.82 1089.23
00003997 00000119 1340.09 638.51 432.56 604.81 1451.00 879.27 1647.31 867.11 1555.74 978.59 1472.07 1084.25 1643.52 1075.32
00003998 00000120 1348.00 629.81 428.37 600.99 1452.64 868.06 1646.11 858.27 1552.14 958.27 1473.78 1071.09 1644.65 1062.48
00003999 00000121 1346.81 627.61 428.06 591.74 1453.41 861.88 1647.01 852.11 1552.81 954.31 1477.60 1066.99 1642.20 1057.96
00004000 00000122 1345.69 623.94 429.24 591.21 1453.74 860.32 1647.29 849.85 1554.22 952.16 1479.54 1064.38 1643.43 1054.62
00004001 00000123 1347.00 624.60 427.31 591.37 1452.83 860.56 1644.30 849.84 1550.87 953.02 1479.85 1065.05 1640.13 1055.01
00004002 00000124 1345.17 627.57 427.70 587.87 1447.70 861.72 1639.17 848.81 1544.16 955.63 1473.99 1063.58 1639.27 1051.86
00004003 00000125 1342.87 626.58 427.68 587.19 1440.57 863.62 1632.23 849.96 1532.93 954.55 1469.48 1065.32 1630.29 1052.73
00004004 00000126 1334.65 628.41 433.36 589.92 1429.54 864.04 1621.72 850.93 1518.40 958.76 1457.80 1069.75 1617.56 1058.04
00004005 00000127 1330.72 625.08 433.86 593.54 1424.57 863.11 1614.76 851.36 1508.59 962.03 1449.86 1069.33 1608.26 1059.41
00004006 00000128 1333.00 623.55 433.93 594.35 1427.28 860.85 1618.94 849.41 1513.29 959.98 1453.32 1068.77 1612.32 1058.89
00004007 00000129 1342.66 619.61 429.81 592.08 1438.32 857.78 1630.20 845.06 1527.18 950.13 1466.58 1063.62 1624.52 1052.56
00004008 00000130 1351.41 620.01 426.33 586.10 1446.90 852.64 1636.61 839.95 1536.48 941.50 1476.90 1057.96 1630.28 1047.04
00004009 00000131 1351.19 614.07 427.82 583.74 1450.18 844.92 1640.00 835.54 1541.68 938.81 1477.83 1052.53 1630.70 1044.29
00004010 00000132 1350.18 604.60 428.32 587.03 1451.63 836.45 1640.85 829.56 1544.16 929.47 1475.99 1043.53 1631.79 1037.45
00004011 00000133 1349.56 594.09 429.67 590.87 1453.71 828.98 1644.33 821.61 1548.33 923.44 1476.67 1035.89 1637.60 1029.75
00004012 00000134 1349.64 585.04 428.62 596.43 1456.73 823.90 1647.43 817.33 1553.96 921.02 1482.07 1032.69 1639.49 1026.70
00004013 00000135 1348.86 583.60 428.31 596.64 1455.84 822.50 1647.10 816.23 1553.03 920.95 1481.04 1031.40 1638.26 1025.66
00004014 00000136 1348.05 586.23 427.93 593.54 1452.07 823.65 1643.40 816.68 1547.52 921.09 1475.72 1031.11 1634.99 1025.17
00004015 00000137 1348.74 589.03 426.80 591.82 1451.67 827.52 1641.74 819.14 1546.81 922.11 1475.96 1034.08 1635.32 1026.94
00004016 00000138 1349.45 593.14 426.42 589.50 1453.28 829.95 1642.98 819.42 1550.18 922.43 1478.12 1036.33 1639.73 1027.62
00004017 00000139 1352.02 594.04 426.97 588.53 1457.08 830.14 1646.21 819.81 1554.73 924.93 1481.76 1037.03 1644.76 1028.40
00004018 00000140 1356.21 591.80 424.64 585.54 1460.80 828.07 1651.41 819.12 1560.67 922.39 1485.15 1033.89 1648.86 1026.26
00004019 00000141 1361.08 591.85 424.37 580.29 1466.17 825.41 1661.52 817.88 1569.68 917.56 1489.86 1028.96 1657.20 1022.53
00004020 00000142 1365.48 588.44 423.77 583.19 1472.80 823.19 1669.74 815.54 1578.90 914.63 1493.72 1027.14 1664.97 1021.10
00004021 00000143 1370.14 587.82 421.73 586.11 1479.90 821.37 1673.83 815.16 1584.47 913.84 1497.88 1026.37 1668.00 1021.69
00004022 00000144 1370.74 589.01 422.55 588.55 1482.21 820.57 1675.30 815.13 1586.99 914.65 1498.29 1025.35 1669.61 1021.44
00004023 00000145 1371.08 589.59 422.47 587.24 1482.43 820.53 1675.47 815.20 1586.97 913.69 1498.73 1025.16 1668.96 1021.30
00004024 00000146 1370.70 589.92 422.79 587.24 1482.30 820.59 1674.84 815.34 1586.32 914.56 1497.87 1025.20 1668.72 1021.42
00004025 00000147 1370.64 589.82 422.49 587.94 1482.06 821.22 1674.37 815.71 1586.06 915.12 1496.81 1025.79 1668.55 1021.91
00004026 00000148 1370.94 589.43 420.69 587.61 1482.31 821.53 1674.40 816.34 1586.37 916.22 1496.46 1025.66 1668.70 1022.06
00004027 00000149 1372.73 595.51 420.34 581.10 1482.00 821.43 1676.78 817.95 1585.57 917.75 1501.38 1022.92 1666.32 1020.09
00004028 00000150 1369.48 591.54 420.10 586.78 1482.41 820.42 1674.03 816.91 1585.40 915.41 1495.09 1025.66 1666.29 1023.25
00004029 00000151 1367.12 589.06 422.29 586.16 1480.03 819.75 1673.64 816.66 1584.01 913.90 1491.74 1023.36 1666.12 1021.38
00004030 00000152 1364.56 589.95 423.57 580.86 1477.88 820.26 1672.09 816.71 1583.46 915.26 1490.08 1021.87 1666.14 1019.45
00004031 00000153 1361.49 590.50 424.99 581.74 1474.54 820.88 1669.62 817.59 1580.38 915.78 1487.81 1022.78 1663.47 1020.31
00004032 00000154 1358.70 592.48 426.60 586.58 1471.82 822.42 1666.67 819.86 1575.88 918.77 1485.54 1026.29 1660.12 1024.20
00004033 00000155 1356.21 592.31 427.49 588.03 1467.85 824.02 1661.54 819.99 1571.25 919.33 1481.79 1027.88 1657.99 1024.66
00004034 00000156 1354.80 592.42 427.26 588.45 1465.88 825.27 1658.71 820.68 1567.82 920.56 1480.54 1029.26 1655.21 1025.65
00004035 00000157 1352.48 593.35 426.29 589.15 1462.68 826.23 1654.83 820.37 1564.76 921.87 1478.87 1030.59 1652.72 1025.91
00004036 00000158 1350.94 596.00 426.43 589.22 1461.17 827.87 1652.66 820.79 1562.22 922.01 1478.66 1031.95 1650.65 1026.30
00004037 00000159 1351.12 595.11 426.29 592.60 1461.18 828.96 1652.74 821.43 1562.30 921.33 1478.96 1033.30 1651.17 1027.40
