Video ID: 	Luha_Hc0m7Q
H: 	1080
W: 	1920
FPS: 	25.0

FRAME INDEX X0 Y0 W H [Landmarks (5 Points)]

00016841 00000000 859.37 163.92 386.05 531.89 946.86 364.30 1124.38 396.05 998.36 450.51 926.47 549.29 1077.30 576.36
00016842 DELETE   863.55 163.58 388.93 533.36 951.41 365.28 1130.61 397.61 1003.38 450.92 932.27 551.33 1084.14 579.09
00016843 00000002 869.42 165.93 383.92 532.09 958.70 369.12 1136.33 403.32 1013.39 454.99 938.81 554.67 1090.64 584.11
00016844 00000003 874.50 170.84 385.29 531.86 968.80 377.45 1147.46 412.76 1024.17 457.29 950.01 560.73 1102.45 590.98
00016845 DELETE   881.29 173.17 387.82 535.60 976.77 382.43 1155.17 420.90 1031.52 466.91 958.73 565.41 1110.74 597.70
00016846 00000005 883.65 172.62 390.25 536.85 978.54 386.58 1162.32 427.08 1035.74 474.46 961.91 571.57 1118.10 605.19
00016847 00000006 884.97 178.23 391.66 534.00 984.80 388.93 1167.75 431.05 1043.17 477.44 967.89 573.13 1121.18 608.17
00016848 00000007 887.15 180.17 389.16 536.66 987.03 390.19 1169.46 432.87 1045.38 477.32 968.89 574.41 1120.50 610.23
00016849 00000008 888.90 175.91 383.79 544.87 989.88 387.29 1167.08 428.82 1044.32 478.47 968.61 577.46 1110.84 612.83
00016850 00000009 886.71 174.19 383.93 550.76 990.48 383.98 1165.08 423.38 1043.91 478.10 967.22 580.04 1102.61 614.46
00016851 00000010 883.48 169.16 389.98 550.15 984.10 379.94 1162.56 419.78 1038.74 471.96 963.74 573.16 1109.00 606.80
00016852 00000011 879.80 163.93 393.94 550.87 977.20 375.48 1155.60 412.20 1030.21 462.95 956.23 565.77 1104.19 596.90
00016853 00000012 874.39 165.19 392.19 543.01 971.04 370.98 1145.76 405.85 1025.20 454.21 952.24 558.69 1095.52 589.09
00016854 00000013 868.63 166.89 394.47 539.00 960.64 368.43 1135.84 401.24 1013.08 453.20 942.40 554.01 1085.60 583.15
00016855 00000014 860.62 165.55 395.53 535.24 951.00 365.82 1128.99 396.13 1004.81 447.76 932.84 552.31 1077.42 578.83
00016856 00000015 857.04 162.94 386.56 537.13 945.41 365.26 1117.58 391.11 997.80 442.81 929.70 551.54 1065.47 575.05
00016857 00000016 847.99 156.89 384.46 538.89 936.54 362.34 1112.01 388.19 994.97 440.19 922.32 549.14 1064.47 571.78
00016858 00000017 835.55 155.26 377.27 532.47 919.21 358.03 1104.12 378.04 982.49 434.05 908.80 546.83 1065.49 566.89
00016859 00000018 826.52 151.27 382.26 535.89 911.32 356.39 1098.15 372.39 969.82 425.86 896.98 544.70 1055.36 560.99
00016860 00000019 823.89 154.50 374.54 530.12 905.93 357.33 1085.23 368.33 955.34 424.80 889.41 543.74 1038.17 556.39
00016861 00000020 818.31 151.23 372.70 537.38 897.29 357.89 1071.92 364.21 946.22 423.62 884.71 546.26 1028.17 555.54
00016862 00000021 810.75 146.07 379.37 539.29 887.91 358.12 1066.70 363.09 940.01 423.38 878.80 545.98 1026.36 553.19
00016863 00000022 805.21 146.22 384.08 543.05 882.41 358.97 1064.08 365.49 936.20 422.19 873.11 543.69 1029.09 551.56
00016864 00000023 803.25 151.88 382.04 535.84 879.90 360.44 1057.69 365.72 932.19 423.58 872.21 542.27 1024.97 549.38
00016865 00000024 801.76 154.73 381.91 533.70 878.98 362.34 1054.08 366.47 932.11 423.16 873.05 545.22 1019.44 551.68
00016866 00000025 800.55 157.42 381.57 532.99 877.66 362.64 1052.94 368.76 930.52 423.93 871.12 548.30 1017.16 556.57
00016867 00000026 799.24 159.72 384.68 532.03 876.33 366.20 1051.14 370.74 928.94 427.19 871.03 550.80 1015.53 557.60
00016868 00000027 799.21 159.32 385.07 532.74 876.48 366.89 1051.53 372.33 929.11 430.44 870.84 551.55 1015.72 558.93
00016869 00000028 799.62 159.28 384.55 533.04 876.89 366.54 1052.02 372.91 929.50 431.78 870.54 552.25 1015.64 560.43
00016870 00000029 799.91 159.96 386.59 531.21 877.10 366.98 1053.69 373.85 929.79 433.37 870.84 552.89 1017.51 561.20
00016871 00000030 800.96 161.67 384.52 531.26 879.43 366.95 1054.93 376.60 931.65 437.15 872.54 553.34 1016.49 563.92
00016872 00000031 802.81 161.94 383.68 533.85 881.63 366.93 1057.23 378.66 932.96 438.77 873.97 554.66 1016.93 566.95
00016873 00000032 802.55 165.70 383.19 534.83 883.00 368.17 1057.60 379.05 936.17 439.61 876.59 557.10 1017.02 568.71
00016874 00000033 802.81 167.64 381.68 536.49 883.85 369.89 1058.48 380.30 938.06 439.85 877.92 559.77 1018.08 571.10
00016875 00000034 802.20 165.96 382.13 540.31 883.01 371.56 1059.12 380.29 939.07 440.77 878.61 562.32 1020.99 572.01
00016876 00000035 801.74 166.69 381.79 541.70 883.24 372.32 1059.79 381.90 939.65 441.66 878.55 563.30 1021.37 573.80
00016877 00000036 801.22 168.76 381.17 540.50 883.68 372.54 1060.23 382.96 940.60 442.07 879.43 563.65 1021.89 574.88
00016878 00000037 801.25 169.59 379.90 541.62 884.02 373.49 1059.26 385.25 941.45 444.73 879.94 563.94 1021.55 576.23
00016879 00000038 800.46 170.10 381.80 545.37 884.07 376.92 1057.79 387.28 942.78 447.43 881.73 566.78 1021.55 577.70
00016880 00000039 800.84 170.91 381.83 547.36 885.62 378.57 1058.41 389.76 944.64 450.09 883.46 568.56 1022.73 580.13
00016881 00000040 800.34 172.22 381.34 546.30 885.65 379.73 1058.49 391.15 946.17 452.12 884.14 569.37 1024.34 580.98
00016882 00000041 799.85 172.75 382.95 547.25 885.83 380.36 1058.93 391.73 947.21 453.13 884.63 570.30 1025.50 581.82
00016883 00000042 799.72 173.42 383.68 547.83 885.45 381.57 1058.68 392.94 946.90 453.96 884.46 570.99 1026.98 582.44
00016884 00000043 800.18 172.99 383.61 548.89 885.77 382.10 1059.63 393.50 947.81 455.32 885.10 571.69 1029.22 583.05
00016885 00000044 801.05 173.14 381.71 547.99 886.58 382.70 1060.68 393.68 949.21 455.71 886.29 572.25 1030.35 583.23
00016886 00000045 801.44 173.77 381.16 547.87 887.33 382.50 1061.86 393.73 949.69 455.28 886.59 572.32 1031.17 583.56
00016887 00000046 801.94 173.12 380.32 548.09 887.53 381.70 1062.66 392.74 950.57 454.61 887.28 572.48 1031.80 583.58
00016888 00000047 802.22 173.96 380.87 547.38 887.94 382.46 1063.27 392.91 951.05 454.87 888.39 573.23 1032.33 583.79
00016889 00000048 802.98 174.51 379.32 545.68 888.56 382.67 1063.76 392.91 951.82 455.01 889.14 573.22 1033.04 583.63
00016890 00000049 803.31 174.69 379.30 545.76 889.13 382.95 1064.57 393.79 952.10 455.12 889.46 573.09 1033.85 583.97
00016891 00000050 802.99 174.48 379.95 546.05 889.35 383.01 1064.74 394.10 953.09 455.62 890.11 573.18 1034.34 584.21
00016892 00000051 803.25 175.01 379.96 544.90 889.25 383.06 1065.13 394.26 953.12 455.79 890.33 573.41 1034.57 584.56
00016893 00000052 803.27 174.47 379.90 546.58 889.17 383.39 1065.34 394.24 953.58 456.88 890.26 574.10 1035.82 584.85
00016894 00000053 803.57 175.35 378.48 546.23 889.24 383.81 1065.49 394.55 953.43 457.32 890.65 574.57 1036.23 585.29
00016895 00000054 803.10 174.50 379.02 547.89 888.81 383.73 1065.24 394.16 953.16 457.97 890.32 575.22 1035.77 585.68
00016896 00000055 803.34 175.57 380.35 547.59 889.33 384.74 1065.17 394.83 953.51 458.86 891.45 575.35 1037.14 585.53
00016897 00000056 803.84 175.49 380.29 547.99 889.39 385.06 1065.50 394.86 953.63 458.60 891.72 575.88 1038.33 585.77
00016898 00000057 803.90 173.69 380.61 549.79 889.71 385.35 1065.37 395.07 954.92 460.28 892.66 575.93 1039.48 585.61
00016899 00000058 804.22 172.94 379.93 550.25 889.79 385.62 1066.31 395.13 955.87 460.61 893.55 577.04 1040.14 586.49
00016900 00000059 805.39 172.19 379.56 550.51 890.98 385.97 1067.21 395.52 957.15 461.34 895.09 577.03 1041.40 586.47
00016901 00000060 806.16 171.62 379.36 550.45 891.79 385.42 1069.15 394.80 959.15 460.93 896.06 577.33 1043.66 586.59
00016902 00000061 806.46 170.76 379.93 550.54 893.20 384.45 1071.12 395.00 960.89 460.64 896.66 576.59 1044.43 586.74
00016903 00000062 807.34 170.29 379.09 549.58 894.34 384.44 1073.15 395.81 962.27 460.89 897.32 576.46 1046.13 587.28
00016904 00000063 807.42 169.65 378.57 548.88 893.84 384.54 1073.02 395.96 961.87 461.61 897.41 576.89 1046.33 587.67
00016905 00000064 807.59 169.64 378.46 549.30 893.81 385.21 1073.11 396.39 961.82 462.07 897.61 577.76 1046.84 588.36
00016906 00000065 806.83 170.73 379.87 548.11 891.83 386.90 1070.07 396.46 959.42 463.33 896.65 578.35 1045.84 587.64
00016907 00000066 805.48 172.28 380.09 545.50 890.30 388.71 1068.36 398.49 957.78 464.76 894.41 578.30 1044.06 587.80
00016908 00000067 805.06 172.68 379.67 545.25 889.35 389.51 1066.42 400.11 955.27 465.74 892.87 577.88 1042.09 588.05
00016909 00000068 804.45 174.89 377.55 543.80 887.78 389.07 1064.19 399.46 952.33 465.78 891.21 578.25 1039.50 588.42
00016910 00000069 803.95 174.35 377.37 544.63 886.78 389.57 1063.44 400.07 950.78 468.19 889.87 579.31 1038.80 589.54
00016911 00000070 803.06 173.96 377.87 544.58 884.82 390.75 1061.67 400.59 948.44 470.00 888.09 580.76 1036.84 590.48
00016912 00000071 801.46 173.02 379.55 547.94 883.26 391.10 1059.87 401.62 946.15 471.17 885.79 580.89 1035.37 591.07
00016913 00000072 800.24 174.02 382.09 546.71 881.39 392.87 1058.59 403.40 943.77 471.80 883.33 581.22 1033.79 591.31
00016914 00000073 799.39 177.63 383.72 544.39 880.43 394.95 1056.53 405.02 941.68 473.18 882.66 581.81 1032.11 591.59
00016915 00000074 798.13 178.17 386.73 545.72 878.73 395.39 1055.25 405.95 939.16 474.28 880.15 582.30 1030.39 592.40
00016916 00000075 797.50 178.33 385.42 546.17 878.15 396.12 1055.07 407.77 938.76 475.25 878.90 582.81 1029.57 593.83
00016917 00000076 797.72 178.41 385.50 546.76 877.77 397.04 1055.55 409.32 938.35 476.24 878.08 582.92 1031.09 594.41
00016918 00000077 797.71 177.45 385.41 545.10 877.05 396.94 1054.72 408.79 937.89 476.98 877.84 582.36 1030.57 593.48
00016919 00000078 798.21 176.61 384.37 546.67 877.39 397.82 1054.38 409.81 937.82 477.78 878.38 583.24 1029.69 594.53
00016920 00000079 797.39 177.91 385.94 550.99 878.22 398.56 1055.33 410.81 939.06 478.00 878.57 583.25 1031.53 594.64
00016921 00000080 796.63 179.58 384.75 551.85 879.32 398.02 1054.02 410.47 938.49 478.33 877.96 585.76 1024.46 597.71
00016922 00000081 796.42 178.35 381.21 561.65 879.61 397.33 1051.35 407.08 937.21 478.65 879.08 593.37 1016.28 603.81
00016923 00000082 797.72 177.70 379.22 565.50 879.44 397.86 1050.25 405.84 936.29 479.51 880.39 596.56 1015.03 605.70
00016924 00000083 798.89 175.82 380.94 559.98 879.16 397.79 1054.94 408.95 937.08 480.74 877.95 590.19 1025.58 601.17
00016925 00000084 802.50 175.62 382.26 553.87 880.19 400.97 1056.76 414.03 937.88 483.01 879.34 583.21 1035.14 595.21
00016926 00000085 806.44 174.71 377.91 555.17 887.64 399.09 1062.10 412.68 947.02 480.78 885.05 580.67 1038.91 593.27
00016927 00000086 810.92 172.15 379.26 549.32 895.12 395.00 1067.78 408.33 955.34 481.68 894.67 580.49 1042.60 592.67
00016928 00000087 816.63 172.54 380.28 544.21 903.11 392.60 1079.63 407.25 966.20 477.97 903.73 579.33 1053.16 592.34
00016929 DELETE   822.03 171.18 381.09 539.23 907.77 393.84 1086.71 408.22 972.15 476.59 910.67 576.63 1064.79 588.84
00016930 00000089 824.13 167.56 384.23 539.66 918.10 387.30 1099.15 401.04 989.56 471.91 921.63 576.11 1072.28 587.67
00016931 00000090 830.34 167.07 378.60 542.06 927.81 382.51 1107.83 395.21 1003.81 465.59 932.22 577.02 1080.00 588.62
00016932 00000091 836.31 166.56 375.62 545.74 936.51 377.20 1115.30 389.04 1015.93 457.95 940.78 574.22 1086.35 585.61
00016933 00000092 837.25 167.92 377.27 538.31 941.05 374.46 1114.20 395.25 1017.95 449.59 939.21 561.49 1079.73 579.24
00016934 00000093 840.74 165.69 371.01 532.38 937.61 371.61 1121.46 384.48 1021.94 446.72 940.94 564.15 1092.75 577.38
00016935 00000094 841.87 165.73 370.42 527.36 937.93 369.65 1123.37 382.34 1023.01 443.73 941.11 561.28 1095.07 574.51
00016936 00000095 841.24 164.62 370.53 525.00 937.85 369.39 1123.73 382.18 1023.94 444.07 942.32 560.80 1095.48 573.95
00016937 00000096 840.96 163.37 370.00 523.99 936.79 369.72 1122.73 382.24 1023.02 445.55 941.95 560.80 1095.09 573.59
00016938 00000097 839.57 161.48 368.82 524.84 933.63 369.55 1120.18 380.69 1019.83 447.31 940.78 562.60 1093.34 573.97
00016939 00000098 835.38 161.15 373.18 525.55 930.84 369.57 1118.18 381.26 1017.27 446.42 937.83 562.74 1090.90 573.96
00016940 00000099 832.59 161.18 376.56 525.24 928.83 370.28 1116.95 381.97 1014.25 448.19 935.11 562.82 1089.18 573.77
00016941 00000100 830.21 161.52 378.63 525.73 926.72 371.01 1115.33 383.11 1012.08 451.28 932.48 563.15 1088.29 574.31
00016942 00000101 829.11 162.11 378.31 525.86 924.52 373.38 1112.22 385.22 1008.80 453.82 930.12 563.91 1086.41 574.77
00016943 00000102 827.85 163.83 378.82 524.82 923.00 375.61 1109.50 387.44 1006.49 455.92 928.62 564.62 1084.62 575.27
00016944 00000103 827.22 164.24 378.65 526.00 922.19 376.75 1108.87 388.31 1005.78 457.05 927.88 565.35 1084.87 575.74
00016945 00000104 828.00 164.49 377.71 525.17 922.36 378.18 1107.91 390.18 1004.99 457.67 927.92 565.47 1084.14 576.37
00016946 00000105 828.64 164.32 377.69 526.50 922.53 377.66 1109.01 390.55 1004.61 456.91 926.97 564.85 1084.81 576.65
00016947 00000106 830.60 164.40 377.59 523.86 923.73 375.20 1110.02 389.30 1004.20 453.73 927.46 562.75 1084.20 575.67
00016948 00000107 830.97 163.63 378.30 525.02 924.02 373.47 1110.31 387.50 1003.70 450.90 926.25 560.78 1083.26 574.06
00016949 00000108 832.26 164.40 376.62 522.89 923.87 372.53 1109.44 386.36 1002.63 448.68 925.90 559.51 1082.14 572.77
00016950 00000109 830.97 164.16 378.16 525.51 921.67 372.91 1109.09 386.39 1000.77 448.14 923.23 560.26 1081.99 573.38
00016951 00000110 828.23 163.76 381.49 526.78 919.21 373.91 1106.37 387.22 997.59 447.63 920.14 559.30 1080.89 572.17
00016952 00000111 825.93 165.79 383.35 524.76 917.28 375.52 1103.47 388.59 994.55 448.98 918.77 558.79 1079.77 570.99
00016953 00000112 824.70 166.93 384.40 523.85 915.81 376.28 1102.48 389.80 992.60 450.17 916.91 558.78 1079.39 571.08
00016954 00000113 824.67 165.88 383.86 524.68 915.28 377.31 1101.57 391.34 991.15 453.35 916.50 560.17 1078.91 572.55
00016955 00000114 824.90 168.66 382.46 525.31 914.99 379.93 1099.46 393.00 988.86 456.16 916.92 562.35 1077.53 573.82
00016956 00000115 824.18 169.59 382.70 525.82 913.46 380.82 1097.67 394.75 986.54 457.81 914.75 562.96 1076.05 574.97
00016957 00000116 822.80 169.81 383.02 526.66 912.00 380.67 1095.50 396.64 983.74 460.68 912.19 562.99 1073.59 576.34
00016958 00000117 822.62 168.24 380.15 528.17 909.26 379.71 1092.40 399.37 977.49 463.06 905.37 561.89 1068.39 578.50
00016959 00000118 821.65 168.55 380.71 529.46 906.48 381.00 1091.31 400.21 973.51 463.39 902.87 562.90 1068.33 579.12
00016960 00000119 821.46 169.43 380.88 528.44 906.45 381.24 1091.37 400.37 973.81 463.93 902.93 562.37 1069.53 578.40
00016961 00000120 821.85 168.68 383.27 529.39 907.64 381.78 1093.47 400.42 976.11 465.56 906.21 566.03 1070.23 581.54
00016962 00000121 822.18 168.53 383.40 528.85 908.68 381.21 1093.92 398.33 978.02 465.56 908.79 567.36 1069.44 581.59
00016963 00000122 820.57 170.03 382.38 526.94 906.24 382.05 1089.53 398.49 973.59 464.87 906.60 567.36 1064.73 581.14
00016964 00000123 819.12 167.95 380.47 529.35 902.77 381.24 1084.38 398.38 967.42 465.27 900.95 566.14 1059.11 580.69
00016965 00000124 816.83 168.05 381.38 529.79 900.58 381.12 1081.23 398.73 964.00 465.32 897.88 564.85 1055.35 579.89
00016966 00000125 818.58 168.46 378.58 531.71 902.08 381.06 1082.13 396.00 966.00 463.40 901.46 567.17 1056.07 580.16
00016967 00000126 820.32 168.28 377.05 534.81 904.17 380.45 1085.22 394.31 968.53 460.20 904.37 568.89 1057.74 581.14
00016968 00000127 820.84 164.23 378.98 540.99 904.49 380.08 1086.41 393.80 968.90 458.43 904.71 570.00 1058.34 582.11
00016969 00000128 820.77 165.22 376.82 540.65 903.85 379.66 1084.09 394.88 966.51 458.44 901.51 567.52 1055.19 581.22
00016970 00000129 819.66 166.68 377.13 541.18 901.92 382.59 1081.33 398.77 963.36 460.57 897.42 565.71 1055.13 580.09
00016971 00000130 823.01 170.54 374.60 536.96 905.53 386.29 1080.47 403.52 962.63 462.63 899.17 563.71 1055.34 579.12
00016972 00000131 823.56 171.67 374.51 534.57 906.98 385.35 1082.12 402.31 965.30 462.32 901.69 563.77 1056.82 578.80
00016973 00000132 825.71 169.35 376.65 535.93 908.15 383.38 1085.07 400.86 966.62 461.84 902.34 563.33 1058.49 578.64
00016974 00000133 825.77 166.47 377.90 540.28 907.66 382.34 1086.89 398.11 967.98 461.91 904.92 567.41 1059.95 581.10
00016975 00000134 827.93 170.82 377.29 534.69 910.66 385.04 1089.80 399.49 970.49 462.44 907.58 569.53 1061.83 582.42
00016976 00000135 827.06 169.33 378.34 537.22 910.46 384.65 1090.45 400.83 971.66 462.12 907.65 568.94 1063.15 583.12
00016977 00000136 825.48 164.36 380.62 542.65 908.79 381.28 1090.74 398.67 970.62 458.26 905.43 567.03 1062.14 582.10
00016978 00000137 824.67 162.71 379.63 547.75 908.78 378.95 1090.51 394.59 969.70 453.64 904.31 568.21 1059.11 582.35
00016979 00000138 824.56 166.03 376.91 544.33 912.31 377.28 1090.95 394.62 973.10 455.72 905.57 568.23 1055.49 584.27
00016980 00000139 822.94 168.03 381.28 542.57 914.07 380.19 1093.75 398.56 978.10 459.78 908.77 569.13 1060.16 585.40
00016981 00000140 822.39 169.69 383.58 540.63 920.13 381.92 1099.34 401.14 989.32 464.69 915.61 570.66 1066.25 587.22
00016982 00000141 824.45 168.33 383.63 539.60 925.90 383.77 1107.96 402.03 1003.65 465.45 925.22 572.05 1079.51 587.63
00016983 00000142 828.72 167.71 381.47 549.06 934.76 381.36 1115.60 399.44 1015.72 464.41 934.22 574.92 1085.66 590.79
00016984 00000143 830.19 167.79 383.18 555.32 942.02 383.22 1119.58 400.30 1027.33 471.60 942.01 577.05 1091.41 592.14
00016985 00000144 831.09 171.27 385.44 547.55 944.21 386.54 1128.86 404.71 1034.38 478.07 948.09 581.95 1099.90 597.75
00016986 00000145 831.06 172.71 387.78 549.07 947.87 392.51 1131.30 408.57 1042.13 481.85 952.49 583.65 1106.01 597.58
00016987 00000146 830.43 175.22 387.37 549.93 951.37 395.21 1135.07 412.39 1049.64 483.63 956.11 585.91 1110.05 600.99
00016988 00000147 829.29 175.58 393.33 560.57 957.67 391.07 1139.13 416.03 1056.10 477.42 963.36 586.36 1107.97 607.04
00016989 00000148 830.85 175.75 389.82 557.76 960.65 394.23 1141.20 418.06 1061.75 479.08 967.89 587.45 1112.44 607.36
00016990 00000149 831.82 176.55 389.91 557.50 964.31 396.39 1144.48 421.62 1066.91 481.02 970.99 588.44 1115.46 609.38
00016991 00000150 832.91 175.42 388.94 561.96 966.49 396.82 1145.49 423.06 1069.38 483.52 973.36 591.85 1114.55 613.71
00016992 00000151 834.69 176.90 387.84 560.66 967.69 399.36 1147.65 424.46 1071.36 486.11 976.53 593.18 1118.44 613.97
00016993 00000152 836.08 175.25 387.92 564.83 968.96 398.50 1148.80 424.48 1072.50 486.11 977.49 592.68 1119.92 614.11
00016994 00000153 837.75 173.59 388.82 570.38 969.24 396.62 1150.57 425.58 1071.95 485.32 974.71 592.27 1119.68 616.05
00016995 00000154 840.30 170.78 388.70 571.38 971.10 396.42 1153.50 426.75 1072.72 483.37 974.86 590.67 1122.11 615.41
00016996 00000155 842.62 169.38 387.77 570.01 972.96 396.55 1156.71 428.61 1073.37 485.09 974.07 588.46 1124.04 614.61
00016997 00000156 844.25 171.22 386.23 568.08 975.96 397.24 1157.37 429.32 1075.68 484.89 978.96 589.68 1125.14 616.04
00016998 00000157 848.49 170.72 384.81 567.99 980.72 396.04 1162.40 428.34 1080.85 484.66 982.77 589.01 1129.30 615.45
00016999 00000158 853.26 170.87 383.31 563.18 983.99 395.72 1169.17 427.97 1086.96 482.87 987.25 588.71 1137.39 615.20
CROP_BBOX: 609 0 1446 863
