Video ID: 	mzViUzHJszo
H: 	1080
W: 	1920
FPS: 	25.0

FRAME INDEX X0 Y0 W H [Landmarks (5 Points)]

00015006 00000000 911.83 135.97 377.52 595.07 948.64 381.97 1084.63 402.76 930.99 482.34 941.58 591.93 1039.13 611.69
00015007 00000001 913.45 135.68 369.33 605.83 947.39 383.49 1083.58 403.78 929.57 488.30 943.48 601.74 1044.92 620.03
00015008 00000002 912.70 142.04 368.82 605.91 946.70 385.89 1083.56 410.15 929.34 498.25 945.04 605.27 1049.47 625.67
00015009 00000003 911.85 143.36 372.55 611.79 943.01 391.12 1087.54 416.50 931.26 508.57 946.36 612.99 1051.51 634.01
00015010 00000004 916.00 140.98 367.42 617.48 950.16 397.02 1087.95 420.87 948.89 511.90 954.06 613.09 1058.69 631.74
00015011 00000005 912.12 139.45 365.68 623.24 946.05 400.75 1085.04 423.54 948.96 517.31 952.55 617.90 1058.97 635.67
00015012 00000006 901.55 153.42 365.73 614.42 933.79 404.58 1071.21 432.32 935.95 530.74 940.40 623.63 1046.03 646.02
00015013 DELETE   877.90 177.51 378.40 589.76 919.05 419.86 1053.17 441.07 911.35 535.42 920.51 635.54 1021.42 652.02
00015014 DELETE   858.41 177.63 378.40 589.20 900.85 421.22 1022.96 448.69 881.06 538.22 906.47 630.94 997.07 651.32
00015015 DELETE   839.48 173.47 375.50 601.58 872.72 431.85 1001.63 455.12 852.16 544.26 876.85 643.76 971.31 663.75
00015016 00000010 836.25 171.56 368.53 606.15 865.58 428.47 994.34 457.79 843.37 542.35 865.60 640.67 963.18 664.74
00015017 00000011 828.13 185.04 374.38 593.97 870.97 442.61 985.20 462.16 842.15 554.09 872.95 655.26 957.11 669.31
00015018 00000012 833.66 182.11 373.13 607.29 861.15 442.35 994.07 468.21 842.02 559.85 869.19 656.26 965.25 679.46
00015019 00000013 834.73 181.98 372.47 608.22 860.61 444.87 995.12 467.75 843.88 563.06 871.59 660.21 968.08 681.08
00015020 00000014 835.75 179.40 372.86 607.66 859.43 442.09 998.87 463.67 847.58 562.44 872.81 659.29 972.29 679.30
00015021 00000015 834.01 167.69 370.37 608.10 856.97 434.17 995.66 458.58 849.51 551.94 869.54 646.52 967.40 668.18
00015022 00000016 832.17 163.60 371.51 606.58 858.32 431.70 993.89 454.73 848.98 544.40 867.94 640.39 964.20 660.91
00015023 00000017 830.67 161.05 368.91 604.65 859.32 428.72 990.38 450.39 845.66 537.68 867.26 637.60 958.87 656.74
00015024 00000018 827.90 170.06 378.05 585.27 873.45 425.58 983.72 447.41 845.15 536.44 873.05 632.53 951.91 648.53
00015025 00000019 827.75 167.42 377.83 582.67 873.87 421.88 983.51 442.85 845.41 531.21 873.33 627.56 952.67 643.07
00015026 00000020 833.88 152.79 373.07 606.49 863.77 421.26 993.50 437.93 847.70 530.41 877.07 631.10 966.33 645.45
00015027 00000021 848.56 157.46 371.52 598.09 882.90 421.53 1002.92 437.43 871.71 530.99 899.41 626.49 987.23 636.75
00015028 00000022 853.50 156.31 376.38 601.45 886.48 420.88 1009.00 434.54 874.84 531.34 906.73 626.17 1001.46 634.13
00015029 00000023 854.72 155.89 371.42 595.10 887.29 417.65 1009.81 432.55 876.60 525.69 901.65 621.36 995.20 631.03
00015030 00000024 843.57 147.53 378.99 603.30 878.76 418.81 1003.77 431.27 859.88 526.01 891.05 625.17 977.30 635.78
00015031 00000025 843.60 143.54 378.34 602.23 879.56 415.76 1001.30 429.24 856.08 522.51 890.86 621.24 975.05 632.80
00015032 00000026 847.99 143.34 373.97 602.68 884.11 416.47 1004.17 429.40 860.10 522.63 898.54 621.47 981.11 631.79
00015033 DELETE   864.85 148.87 364.66 598.24 899.55 416.08 1019.55 433.77 888.70 517.13 908.33 617.36 1001.43 629.95
00015034 DELETE   868.94 152.05 373.60 596.27 908.23 415.58 1038.79 433.79 906.90 520.86 913.62 619.38 1016.58 632.80
00015035 00000029 871.60 146.62 374.34 601.30 912.92 413.21 1045.87 430.05 915.15 520.34 916.31 620.69 1020.17 633.58
00015036 00000030 875.81 152.09 375.36 595.32 918.12 414.47 1048.45 427.56 914.95 516.77 924.35 620.41 1020.89 631.18
00015037 00000031 878.55 148.94 376.31 597.84 920.62 413.39 1055.96 427.24 919.90 516.78 926.57 619.20 1027.91 630.88
00015038 00000032 879.42 136.45 376.18 608.56 919.39 413.23 1061.88 430.14 925.90 520.03 922.74 617.82 1037.01 630.68
00015039 00000033 879.90 139.48 378.70 604.61 919.06 413.68 1063.77 429.52 926.59 519.71 922.79 618.15 1038.44 630.12
00015040 00000034 884.02 144.62 372.10 597.83 925.88 417.86 1061.60 431.24 929.93 514.04 930.51 614.75 1033.16 625.94
00015041 DELETE   883.35 140.93 373.57 601.08 924.88 417.26 1061.42 429.48 927.49 511.20 928.28 614.15 1031.68 624.53
00015042 00000036 883.75 146.10 375.52 595.72 922.99 413.43 1060.53 426.33 922.70 513.47 928.24 614.23 1032.64 625.11
00015043 00000037 888.50 128.84 372.89 620.76 920.73 398.97 1059.58 414.88 929.38 514.38 924.98 610.72 1032.04 625.13
00015044 00000038 890.12 132.21 372.90 616.17 922.77 397.20 1060.59 412.95 931.69 513.84 927.59 611.31 1034.17 625.32
00015045 00000039 889.68 133.23 374.20 614.35 922.77 396.33 1060.54 411.26 931.69 512.03 927.69 610.63 1033.95 624.00
00015046 00000040 889.24 132.51 374.69 614.27 922.07 395.13 1061.99 409.43 932.10 511.10 926.87 609.81 1034.35 622.90
00015047 00000041 889.13 133.41 374.77 614.65 922.31 394.59 1063.37 408.73 932.83 510.80 927.75 610.05 1036.06 622.98
00015048 00000042 889.21 132.83 374.68 615.93 922.80 394.69 1063.69 409.00 933.07 510.74 928.48 609.95 1036.51 622.95
00015049 00000043 889.24 133.87 374.05 616.16 923.87 394.40 1064.15 408.94 933.64 511.36 931.07 609.95 1038.27 622.99
00015050 00000044 889.17 132.58 375.69 620.07 924.37 393.16 1065.54 408.56 933.10 511.49 932.22 609.95 1040.23 623.65
00015051 00000045 888.79 130.21 375.64 623.46 924.30 392.42 1065.58 408.80 932.33 510.62 930.85 609.40 1038.54 624.03
00015052 00000046 888.01 131.49 375.03 621.77 922.86 392.06 1064.83 408.68 931.30 510.54 928.84 609.53 1036.83 624.51
00015053 00000047 888.38 132.80 374.31 621.08 923.36 393.08 1064.39 409.82 931.06 510.68 928.88 609.73 1036.37 624.73
00015054 00000048 888.41 132.29 374.62 621.46 923.20 393.01 1064.48 409.81 930.92 510.46 928.61 609.46 1036.50 624.54
00015055 00000049 888.81 132.00 373.98 621.92 923.68 393.30 1064.78 409.93 931.13 510.13 928.98 609.80 1035.95 624.74
00015056 00000050 888.63 132.88 374.34 620.03 923.24 393.76 1064.11 409.96 931.71 511.10 929.51 608.86 1037.50 623.41
00015057 00000051 886.72 130.87 375.71 620.86 920.28 394.86 1063.39 409.85 930.03 513.45 927.70 607.53 1042.20 620.99
00015058 00000052 885.38 131.52 377.79 619.89 919.33 394.97 1062.95 410.55 929.46 513.68 926.17 606.94 1042.86 620.80
00015059 00000053 884.96 132.57 379.60 617.71 918.55 394.43 1063.47 410.89 928.42 514.42 926.67 605.44 1048.42 619.63
00015060 00000054 882.98 152.03 381.89 591.37 919.90 403.21 1062.59 418.45 922.19 516.83 931.49 607.00 1048.33 618.94
00015061 00000055 885.30 134.88 380.14 613.47 919.39 394.20 1063.86 411.02 928.74 514.16 928.24 604.09 1051.70 618.27
00015062 00000056 885.84 133.35 380.45 614.89 920.13 393.37 1063.99 411.04 928.30 514.05 928.54 603.35 1051.81 618.18
00015063 00000057 886.03 133.06 380.31 615.30 920.05 393.16 1064.16 410.77 928.77 514.07 928.66 603.46 1051.73 618.24
00015064 00000058 887.07 130.93 380.24 617.88 921.22 393.55 1065.45 411.94 930.01 514.61 929.11 604.18 1051.50 619.62
00015065 00000059 889.47 132.04 378.81 617.96 924.12 394.80 1065.53 411.37 931.19 512.81 931.19 606.25 1045.22 620.44
00015066 00000060 892.53 136.95 374.67 613.49 927.47 395.72 1065.78 412.87 934.51 512.23 933.65 608.78 1040.71 623.40
00015067 00000061 894.70 136.60 372.89 615.30 929.26 396.09 1065.33 413.18 934.60 512.43 934.97 610.77 1039.45 625.37
00015068 00000062 896.37 135.54 371.36 617.10 930.78 397.40 1065.97 414.26 935.58 511.60 935.57 612.26 1038.34 626.67
00015069 00000063 897.10 136.16 371.18 616.04 931.32 398.23 1066.46 415.04 936.10 512.11 935.48 612.48 1037.98 626.87
00015070 00000064 897.83 134.34 372.18 618.71 931.12 398.40 1067.01 414.44 935.57 511.34 934.98 613.45 1037.00 627.28
00015071 00000065 898.44 133.97 370.81 618.22 931.67 397.88 1067.90 414.64 937.27 511.50 935.76 613.58 1038.23 627.87
00015072 00000066 899.50 134.17 371.64 617.53 933.35 398.38 1068.94 414.08 938.91 510.99 938.21 613.28 1039.90 626.54
00015073 00000067 899.70 134.30 371.74 618.73 933.36 398.32 1069.11 413.81 938.90 510.64 938.57 613.77 1039.42 626.97
00015074 00000068 899.59 133.65 371.50 620.62 933.20 398.68 1068.76 413.98 938.29 511.13 938.77 613.90 1039.44 626.94
00015075 00000069 899.24 133.44 371.25 621.82 932.81 399.08 1067.56 414.22 937.15 511.43 937.94 614.40 1038.41 627.42
00015076 00000070 899.13 134.65 371.05 621.30 932.09 400.82 1067.07 415.30 936.98 512.27 938.09 615.71 1038.22 628.10
00015077 00000071 898.85 133.35 371.16 622.40 932.04 400.32 1067.38 415.75 937.00 512.83 937.35 615.07 1038.31 628.30
00015078 00000072 898.61 133.00 370.63 621.21 931.64 400.01 1068.54 416.39 937.77 513.17 935.45 614.87 1038.29 628.91
00015079 00000073 897.56 133.87 371.69 617.41 931.07 399.21 1069.14 416.58 937.23 512.78 932.84 612.91 1039.06 627.77
00015080 00000074 896.54 134.39 372.98 614.32 930.06 399.27 1070.06 416.42 938.43 512.75 931.50 610.80 1039.37 625.56
00015081 00000075 897.01 135.64 371.89 611.65 929.67 398.89 1070.84 416.52 939.07 513.21 931.11 610.22 1040.98 625.29
00015082 00000076 897.65 139.85 370.55 606.30 930.02 398.32 1070.14 416.88 939.36 513.58 931.21 609.57 1040.62 625.29
00015083 00000077 898.90 136.91 369.39 614.25 932.12 398.49 1071.76 416.68 941.31 512.95 934.36 611.99 1041.14 627.53
00015084 00000078 900.79 134.41 369.28 619.95 935.05 400.56 1076.03 416.94 945.99 513.38 940.29 615.77 1044.87 629.49
00015085 00000079 901.46 136.74 371.41 615.67 936.82 402.19 1078.74 417.10 951.16 512.86 943.63 615.94 1046.13 628.49
00015086 00000080 902.41 138.17 371.09 613.51 938.46 403.30 1080.89 417.01 955.13 512.70 946.88 616.60 1048.04 628.11
00015087 00000081 902.47 136.36 373.33 615.37 939.07 403.05 1082.34 417.03 955.41 513.14 947.40 616.10 1049.60 627.75
00015088 00000082 902.04 137.39 373.88 612.60 938.74 401.13 1081.96 416.16 954.03 512.48 945.94 614.55 1047.43 627.15
00015089 00000083 901.95 136.17 374.18 612.50 938.06 399.79 1081.41 415.93 953.18 512.39 943.82 613.55 1046.76 627.08
00015090 00000084 901.82 132.68 376.33 616.80 937.97 399.50 1082.79 415.75 953.14 511.78 942.60 613.03 1047.90 626.75
00015091 00000085 903.18 135.18 377.64 612.98 938.73 399.62 1084.33 416.07 954.33 511.81 943.95 612.27 1049.72 626.03
00015092 00000086 899.11 137.68 380.39 612.41 940.53 400.99 1087.75 420.58 950.00 512.68 942.80 613.63 1047.67 629.57
00015093 00000087 901.52 135.01 382.42 616.08 942.47 401.56 1092.01 420.88 955.00 515.37 945.25 615.28 1053.02 630.95
00015094 00000088 903.95 135.27 384.24 617.58 942.81 401.84 1097.89 422.43 960.91 519.35 944.75 616.17 1059.27 633.01
00015095 00000089 908.81 143.02 385.32 607.94 948.60 399.82 1107.81 421.88 973.21 520.78 947.26 613.99 1065.35 632.41
00015096 00000090 922.03 148.87 380.85 600.01 965.67 403.42 1121.25 422.33 990.90 519.24 964.56 612.54 1086.16 627.09
00015097 00000091 927.82 152.75 383.12 604.60 978.83 404.70 1139.39 420.53 1009.29 522.10 981.75 616.68 1103.13 629.25
00015098 00000092 935.43 157.34 380.68 612.08 990.66 408.66 1154.95 422.41 1027.00 524.81 996.51 624.24 1126.35 635.66
00015099 00000093 942.50 156.21 380.89 621.15 1000.55 411.79 1165.29 427.24 1040.50 528.17 1004.85 625.17 1139.41 637.92
00015100 00000094 947.16 158.43 379.83 625.33 1004.01 413.78 1169.65 429.06 1047.81 534.97 1010.35 629.87 1147.21 642.46
00015101 00000095 947.15 158.98 380.49 631.56 1002.94 416.22 1170.51 430.99 1045.81 538.40 1009.67 633.83 1149.89 645.86
00015102 00000096 946.08 156.17 378.42 641.12 1000.57 417.02 1169.67 432.11 1043.25 540.57 1006.57 637.92 1149.06 650.34
00015103 00000097 948.48 162.08 377.09 642.11 1004.07 419.62 1173.19 430.89 1051.89 543.49 1013.77 644.16 1155.69 653.45
00015104 00000098 944.78 169.62 394.08 632.96 1008.12 431.66 1185.66 433.06 1071.35 553.80 1029.52 655.76 1173.00 656.67
00015105 00000099 947.15 174.71 396.83 634.62 1013.52 441.74 1190.05 437.24 1078.45 559.88 1038.33 663.71 1182.84 659.72
00015106 00000100 945.93 177.88 398.66 635.96 1011.60 443.80 1186.18 442.33 1073.33 564.16 1034.64 666.06 1178.26 664.31
00015107 00000101 946.38 180.02 391.61 642.13 1011.16 444.03 1180.80 445.49 1067.84 566.00 1031.80 669.26 1170.50 669.31
00015108 00000102 945.69 179.18 392.76 649.64 1010.96 446.99 1182.25 448.02 1067.72 570.47 1032.58 674.09 1173.64 673.44
00015109 00000103 944.79 178.91 397.54 655.17 1011.94 450.79 1185.67 448.60 1070.56 573.23 1037.35 680.11 1181.09 676.47
00015110 00000104 943.54 176.58 393.84 660.51 1010.16 450.33 1182.34 450.26 1067.66 573.76 1034.70 681.25 1176.66 679.22
00015111 00000105 942.98 181.59 384.48 661.22 1004.26 449.21 1171.87 449.44 1055.95 572.69 1027.70 683.46 1164.23 681.89
00015112 00000106 938.33 183.57 380.46 661.17 999.33 448.90 1168.47 450.48 1052.97 572.27 1020.72 684.34 1158.96 684.19
00015113 00000107 937.93 180.88 381.95 669.83 999.92 453.55 1169.12 453.00 1055.40 577.72 1025.35 690.50 1163.38 688.39
00015114 00000108 934.15 179.03 391.76 673.14 1000.25 459.39 1173.55 453.72 1063.09 583.04 1033.12 696.23 1173.12 689.63
00015115 00000109 932.82 184.58 390.96 666.02 997.76 461.60 1169.73 454.35 1061.62 584.30 1033.32 696.91 1172.43 689.54
00015116 00000110 929.84 186.20 389.69 651.93 990.46 462.99 1161.50 459.59 1054.02 583.99 1022.31 687.36 1164.36 683.98
00015117 00000111 927.10 192.43 392.49 625.88 980.92 461.31 1157.84 458.57 1043.20 579.69 1008.21 675.89 1152.11 673.80
00015118 00000112 926.51 193.29 395.58 627.13 980.01 463.42 1161.76 456.05 1046.92 581.18 1010.21 677.90 1161.74 671.77
00015119 00000113 926.06 195.19 399.90 621.15 988.74 465.04 1168.74 451.00 1065.06 585.68 1031.31 680.69 1178.65 668.85
00015120 00000114 923.29 197.79 409.95 622.59 996.42 471.42 1176.49 452.43 1080.30 592.46 1045.56 685.74 1192.68 669.19
00015121 00000115 916.70 201.29 411.80 615.67 987.26 476.40 1170.28 458.23 1076.87 602.17 1044.47 693.53 1190.21 679.13
00015122 00000116 921.35 208.84 400.84 610.09 982.62 480.62 1160.47 467.09 1055.57 602.53 1030.31 691.21 1170.52 680.12
00015123 00000117 914.90 209.05 398.88 610.71 974.05 478.18 1153.32 473.00 1043.20 602.60 1012.89 689.93 1152.44 685.96
00015124 00000118 914.28 203.23 399.36 616.84 974.23 479.70 1153.42 475.22 1043.61 603.46 1012.58 690.45 1151.99 686.92
00015125 00000119 912.13 203.29 400.37 615.53 972.84 480.37 1151.92 475.39 1042.34 604.03 1012.20 688.60 1152.74 684.65
00015126 00000120 911.21 199.01 396.69 614.26 967.27 479.55 1141.05 478.32 1032.42 602.25 1006.67 686.10 1140.32 685.43
00015127 00000121 910.53 197.28 392.28 611.67 963.00 477.63 1133.34 480.71 1022.04 598.42 997.78 682.87 1128.03 685.85
00015128 00000122 910.09 193.95 393.29 615.05 962.23 476.72 1132.80 478.95 1021.92 598.00 998.05 682.70 1129.88 684.88
00015129 00000123 910.36 195.01 394.25 613.43 963.49 475.29 1133.88 478.04 1022.50 597.57 998.96 681.47 1130.73 684.15
00015130 00000124 911.99 193.04 390.21 611.31 961.00 473.54 1127.19 476.53 1016.40 592.88 995.66 679.60 1122.48 682.47
00015131 00000125 911.02 193.13 387.65 610.95 956.39 468.89 1119.97 473.58 1006.01 589.23 988.00 678.10 1113.14 682.74
00015132 00000126 910.32 193.55 388.72 610.69 956.70 469.12 1120.69 474.16 1007.12 589.10 988.82 678.00 1113.55 682.90
00015133 00000127 910.14 187.58 390.45 618.93 957.83 467.88 1121.10 470.52 1009.23 586.41 992.23 677.84 1116.98 680.81
00015134 00000128 909.66 180.41 389.63 626.18 955.19 464.45 1116.17 465.58 1002.88 583.07 991.03 677.57 1113.22 679.25
00015135 00000129 905.76 170.74 387.14 634.68 945.85 457.38 1107.67 462.52 992.05 583.57 979.45 674.66 1102.47 678.80
00015136 00000130 906.56 173.74 381.81 626.93 944.65 451.92 1101.00 456.26 986.04 572.32 976.49 669.39 1090.35 673.41
00015137 00000131 909.95 171.27 380.67 626.61 950.73 451.76 1103.91 455.51 992.49 571.19 986.23 669.30 1096.02 673.14
00015138 00000132 910.03 170.57 382.69 623.26 951.87 451.49 1104.78 456.58 994.75 574.07 988.16 667.20 1097.23 671.53
00015139 00000133 907.92 171.08 381.26 625.83 947.68 449.35 1099.03 457.02 983.34 571.88 980.12 663.43 1089.73 669.72
00015140 00000134 904.45 170.55 376.06 628.56 940.50 444.85 1090.41 454.81 966.58 565.97 966.64 659.22 1073.71 667.01
00015141 00000135 901.06 165.30 376.12 627.16 935.41 440.52 1086.73 451.22 963.56 558.74 956.57 655.70 1067.46 663.73
00015142 00000136 899.71 158.04 375.72 631.37 933.15 436.86 1085.08 447.72 962.42 555.85 954.01 654.78 1064.47 663.09
00015143 00000137 901.06 163.60 372.26 623.34 936.41 438.26 1084.69 448.09 964.01 555.14 960.77 655.27 1064.95 662.73
00015144 00000138 902.86 161.82 371.37 627.60 936.84 437.15 1083.87 447.73 961.47 553.54 957.42 651.14 1066.64 659.08
00015145 00000139 901.40 156.99 370.74 627.30 932.78 434.72 1080.12 447.94 958.15 554.69 952.06 648.90 1062.55 659.07
00015146 00000140 900.29 156.76 372.27 627.33 930.27 435.19 1081.98 448.57 958.60 556.84 948.94 648.77 1066.95 658.78
00015147 00000141 900.40 159.96 374.39 623.73 930.77 435.86 1084.92 449.36 960.03 557.82 949.63 648.77 1070.28 658.73
00015148 00000142 901.05 159.68 375.57 623.76 932.00 436.12 1086.27 449.32 960.44 557.83 951.02 648.14 1072.76 657.65
00015149 00000143 901.14 159.33 375.35 621.38 931.69 435.38 1086.11 449.21 960.80 558.00 950.89 646.36 1072.97 656.32
00015150 00000144 901.51 161.05 373.04 617.47 930.91 433.86 1084.57 448.83 959.95 557.75 950.24 645.35 1071.57 656.25
00015151 00000145 903.01 165.80 372.59 613.74 932.29 434.34 1085.40 449.47 961.64 557.34 950.72 645.68 1070.78 656.87
00015152 00000146 905.49 172.21 370.78 612.48 937.93 438.96 1087.88 452.45 966.33 560.31 958.29 647.51 1076.93 657.22
00015153 00000147 911.66 174.35 376.27 610.42 949.17 440.84 1102.10 451.38 981.86 556.32 970.49 649.33 1088.27 657.20
00015154 DELETE   920.10 180.96 386.36 607.51 969.16 444.78 1135.24 454.73 1014.61 563.58 992.44 656.56 1117.50 665.15
00015155 DELETE   932.09 182.43 387.70 597.59 999.31 446.59 1166.56 449.27 1062.07 569.33 1031.55 657.50 1155.01 660.14
00015156 DELETE   935.70 179.76 401.45 589.25 1027.89 445.00 1200.40 441.56 1110.70 567.08 1068.82 653.86 1192.78 651.00
CROP_BBOX: 581 0 1595 996
