Video ID: 	JiUE4w-_03c
H: 	1080
W: 	1920
FPS: 	25.0

FRAME INDEX X0 Y0 W H [Landmarks (5 Points)]

00000659 00000000 982.23 118.57 345.45 536.80 1039.05 348.15 1191.09 336.85 1087.30 449.79 1072.64 543.83 1186.40 537.10
00000660 00000001 981.52 120.56 345.17 532.49 1036.99 349.60 1188.41 340.15 1082.73 451.70 1069.00 541.69 1184.31 536.38
00000661 00000002 981.02 118.51 348.31 530.44 1035.94 348.49 1190.33 340.53 1081.79 452.20 1065.29 538.85 1185.04 534.42
00000662 00000003 981.55 118.81 349.61 528.77 1037.55 346.41 1191.87 338.64 1082.55 449.04 1064.29 535.97 1184.61 532.06
00000663 DELETE   986.38 116.48 346.25 530.95 1042.06 342.97 1197.76 337.27 1089.51 447.52 1067.86 530.48 1193.71 527.70
00000664 00000005 989.13 109.63 345.13 539.05 1047.10 341.01 1204.99 335.91 1097.87 445.47 1071.48 527.87 1202.59 525.20
00000665 DELETE   994.68 108.07 342.78 538.56 1054.87 335.37 1216.49 330.47 1110.88 439.48 1077.48 523.35 1213.49 520.27
00000666 00000007 1002.26 106.57 337.50 538.77 1064.54 330.06 1230.31 325.95 1122.28 433.13 1086.60 519.53 1224.56 517.00
00000667 00000008 1012.16 109.28 329.47 538.77 1076.97 329.49 1244.93 325.30 1136.04 430.55 1094.95 517.97 1237.39 516.63
00000668 DELETE   1027.85 103.86 324.11 547.42 1090.70 326.70 1255.71 329.19 1145.92 426.69 1099.18 512.76 1246.59 516.88
00000669 DELETE   1040.48 99.86 325.59 557.86 1099.53 324.29 1266.08 326.45 1153.45 428.90 1106.97 514.96 1255.47 519.14
00000670 DELETE   1047.88 103.00 321.52 555.30 1108.61 327.60 1274.56 332.88 1164.37 435.32 1113.03 517.30 1259.54 523.84
00000671 00000012 1053.51 106.42 323.54 551.37 1115.20 332.16 1278.31 338.11 1175.26 440.57 1124.83 519.98 1266.57 526.59
00000672 00000013 1056.68 108.90 327.86 543.19 1118.02 334.13 1281.01 339.38 1178.75 446.21 1130.69 521.11 1270.01 527.12
00000673 00000014 1057.13 108.77 330.16 537.21 1117.50 335.27 1282.96 339.30 1178.74 447.48 1132.57 520.13 1274.83 524.75
00000674 00000015 1056.16 108.30 332.40 536.22 1116.72 335.47 1281.54 337.73 1177.40 445.52 1131.94 518.25 1275.38 521.28
00000675 00000016 1053.98 107.30 330.70 537.76 1113.56 335.26 1277.46 337.29 1171.68 442.22 1127.54 516.32 1271.69 519.16
00000676 00000017 1049.80 107.94 329.22 536.61 1108.74 333.01 1273.81 335.99 1164.32 437.57 1121.55 513.74 1267.14 517.35
00000677 00000018 1046.37 104.67 332.66 538.55 1102.59 330.42 1270.29 332.03 1156.87 435.80 1115.28 514.26 1261.74 517.16
00000678 00000019 1043.49 104.04 330.46 539.96 1100.19 329.26 1265.72 330.78 1151.25 433.43 1112.42 513.90 1256.59 517.15
00000679 00000020 1039.84 102.32 332.50 537.82 1095.80 328.37 1259.62 329.72 1145.67 431.62 1110.50 515.14 1249.08 518.26
00000680 00000021 1039.29 99.51 329.69 548.03 1095.25 326.79 1257.72 325.95 1144.13 429.21 1108.09 515.53 1249.61 516.86
00000681 00000022 1038.77 98.15 328.79 553.31 1093.98 322.55 1255.60 322.22 1140.65 427.03 1106.83 516.34 1246.60 517.97
00000682 00000023 1036.16 99.89 328.39 550.16 1093.18 321.55 1255.70 322.09 1141.13 425.46 1104.15 515.34 1244.39 517.89
00000683 00000024 1035.76 99.23 325.23 550.33 1091.88 321.14 1255.31 321.31 1140.14 424.72 1103.59 514.80 1244.89 517.06
00000684 00000025 1032.95 97.73 327.05 552.89 1090.34 320.68 1252.05 320.55 1140.32 425.75 1105.43 517.50 1242.36 519.30
00000685 00000026 1029.16 98.01 330.02 553.49 1087.15 323.35 1243.87 319.54 1137.72 424.55 1108.29 525.26 1231.03 524.41
00000686 00000027 1026.60 97.86 326.40 550.38 1083.81 323.40 1238.67 319.25 1135.54 424.29 1108.73 526.54 1226.22 525.61
00000687 00000028 1023.73 97.78 323.77 549.80 1080.86 323.29 1235.31 318.78 1133.91 423.37 1107.33 527.60 1221.80 526.61
00000688 00000029 1021.92 97.55 323.59 551.73 1079.45 324.29 1232.70 320.45 1133.40 424.38 1105.93 529.21 1220.61 528.61
00000689 00000030 1018.72 98.66 324.85 552.55 1077.65 326.06 1233.01 324.12 1130.73 426.04 1103.50 531.53 1219.87 532.32
00000690 00000031 1013.13 104.08 332.15 548.29 1075.65 328.18 1237.81 319.06 1129.66 431.28 1100.95 536.97 1220.57 532.30
00000691 00000032 1009.29 105.20 334.19 550.87 1071.98 331.73 1236.57 324.86 1129.05 436.36 1097.35 538.50 1220.36 535.30
00000692 00000033 1006.59 105.28 339.89 555.39 1069.17 333.16 1233.07 327.25 1125.64 441.33 1096.32 541.17 1220.02 538.04
00000693 00000034 1006.94 107.21 339.73 553.62 1070.33 334.32 1232.76 328.35 1125.78 439.55 1096.88 538.96 1222.13 535.51
00000694 00000035 1008.29 107.59 337.77 552.73 1071.53 334.00 1233.89 327.94 1126.85 439.24 1097.32 537.12 1224.91 533.48
00000695 00000036 1012.62 108.81 332.76 544.06 1073.86 334.46 1238.09 329.72 1129.18 441.11 1096.94 532.29 1228.00 530.21
00000696 00000037 1014.16 108.56 324.47 538.03 1074.25 330.66 1232.26 328.51 1131.45 437.05 1097.75 525.39 1220.91 524.32
00000697 00000038 1023.94 105.19 326.82 540.46 1084.67 336.43 1244.92 337.39 1138.59 438.20 1100.94 524.57 1234.17 527.33
00000698 00000039 1029.66 105.73 329.12 541.93 1090.86 335.26 1255.58 336.01 1144.52 438.21 1103.51 523.27 1242.60 526.05
00000699 00000040 1034.67 103.32 332.07 544.90 1094.97 334.91 1262.47 334.90 1150.62 435.36 1109.08 521.17 1250.51 523.33
00000700 00000041 1039.20 104.82 330.24 539.33 1099.46 333.96 1266.78 336.45 1156.58 433.96 1112.23 515.93 1255.57 519.96
00000701 DELETE   1042.36 108.83 329.06 533.85 1104.36 334.55 1270.70 338.46 1162.84 432.81 1117.73 513.36 1260.85 518.18
00000702 00000043 1046.63 105.76 328.16 538.14 1107.53 334.54 1274.13 337.23 1164.44 431.45 1122.03 515.09 1265.22 519.01
00000703 00000044 1049.99 100.75 329.17 546.63 1111.47 328.86 1277.85 334.09 1167.62 432.07 1122.56 512.79 1268.50 518.58
00000704 00000045 1054.46 101.07 328.62 545.98 1115.85 329.69 1280.52 333.29 1173.75 434.54 1126.97 511.56 1274.12 515.98
00000705 00000046 1056.70 99.68 335.74 544.49 1120.00 329.79 1286.24 334.03 1180.89 438.62 1130.82 511.84 1279.58 516.56
00000706 00000047 1062.54 98.88 333.60 544.65 1123.85 329.81 1290.13 333.60 1186.03 440.33 1135.38 513.15 1282.68 517.60
00000707 00000048 1066.72 100.23 332.29 543.78 1126.46 330.23 1295.07 334.11 1190.34 440.97 1137.60 515.65 1285.19 520.75
00000708 00000049 1070.02 100.14 330.82 545.78 1130.16 328.76 1299.76 334.18 1193.20 440.92 1139.98 517.17 1285.87 523.40
00000709 00000050 1070.56 97.96 332.73 546.83 1130.95 327.69 1301.28 335.37 1193.05 440.10 1139.89 517.76 1284.01 526.00
00000710 00000051 1070.55 97.27 333.14 546.58 1130.58 327.93 1300.06 337.37 1191.27 440.62 1138.54 519.33 1277.79 529.21
00000711 00000052 1069.52 97.00 334.19 546.49 1130.94 327.14 1297.99 340.19 1189.61 442.66 1137.06 519.52 1272.01 532.26
00000712 00000053 1069.81 96.47 334.18 547.43 1131.10 327.34 1298.37 340.45 1189.40 442.46 1136.94 520.56 1270.84 533.48
00000713 00000054 1069.14 94.62 334.76 548.29 1130.76 326.96 1299.02 339.67 1189.41 440.67 1137.23 520.17 1272.46 532.92
00000714 00000055 1068.00 92.65 334.92 547.33 1130.55 325.18 1299.69 338.46 1190.39 439.46 1136.39 518.78 1272.35 531.80
00000715 00000056 1065.50 91.88 335.23 547.71 1129.32 322.53 1299.06 336.98 1189.77 436.95 1134.05 515.51 1272.60 529.72
00000716 00000057 1064.48 91.52 334.47 547.53 1127.70 321.30 1295.55 334.19 1187.79 435.96 1132.28 514.01 1271.01 526.53
00000717 00000058 1060.36 92.49 335.59 547.29 1124.28 321.94 1290.71 333.63 1183.87 435.34 1128.48 511.87 1269.23 523.21
00000718 00000059 1056.82 92.27 336.28 549.37 1120.60 324.17 1287.67 334.69 1179.79 437.06 1125.99 512.56 1269.13 522.62
00000719 00000060 1056.24 91.81 335.90 550.00 1117.82 326.94 1285.45 335.89 1177.43 439.50 1125.57 514.84 1269.05 523.54
00000720 00000061 1055.80 92.69 336.05 550.87 1116.94 328.81 1283.24 337.31 1175.48 441.76 1124.51 514.87 1269.75 523.02
00000721 00000062 1055.72 94.15 335.09 548.60 1115.91 329.36 1283.08 336.74 1175.03 441.73 1124.07 514.94 1270.46 522.34
00000722 00000063 1058.02 94.17 334.54 548.95 1117.84 329.96 1284.63 335.15 1177.78 441.95 1127.86 515.51 1274.66 521.07
00000723 00000064 1060.76 94.61 336.61 549.37 1121.58 328.37 1289.05 333.55 1182.68 441.39 1131.71 514.57 1279.14 520.13
00000724 00000065 1063.59 95.12 337.40 546.28 1124.63 325.59 1293.08 330.85 1187.07 435.93 1132.89 511.92 1280.11 518.23
00000725 00000066 1063.71 96.15 337.71 544.01 1126.51 323.61 1295.59 330.74 1188.62 435.42 1132.51 509.63 1280.83 517.74
00000726 00000067 1063.79 95.35 337.50 545.23 1127.25 324.53 1294.40 333.10 1189.34 437.30 1133.13 510.19 1279.29 519.27
00000727 00000068 1064.56 95.30 338.65 546.11 1127.28 326.31 1295.99 334.97 1189.26 439.48 1133.43 512.41 1280.55 521.28
00000728 00000069 1067.29 96.65 335.79 546.37 1128.52 327.65 1297.98 336.34 1191.07 439.16 1135.76 514.39 1281.84 523.41
00000729 00000070 1067.42 95.49 335.60 547.71 1128.51 327.62 1297.57 337.15 1190.55 439.62 1135.24 514.91 1279.43 524.70
00000730 00000071 1063.43 94.97 334.02 546.95 1125.87 324.93 1291.31 335.81 1187.17 442.30 1131.32 514.22 1272.32 524.84
00000731 00000072 1059.36 97.24 332.44 544.80 1120.74 327.18 1283.10 338.92 1177.44 442.01 1125.71 513.59 1264.59 524.69
00000732 00000073 1054.53 96.96 331.98 547.58 1114.47 327.06 1277.57 338.55 1168.43 439.81 1120.18 516.26 1256.52 527.54
00000733 00000074 1051.16 97.20 331.69 547.94 1110.70 326.67 1274.02 337.41 1164.13 438.91 1116.85 517.21 1252.81 528.06
00000734 00000075 1046.16 98.89 336.21 545.62 1106.92 326.30 1272.86 337.79 1159.01 439.83 1112.38 515.80 1252.34 527.24
00000735 00000076 1044.24 102.84 337.89 542.51 1105.05 327.96 1270.80 337.38 1158.85 441.93 1111.98 517.64 1252.46 527.37
00000736 00000077 1044.14 104.47 337.91 543.93 1104.58 331.65 1272.44 339.04 1161.07 443.26 1114.67 519.79 1257.54 527.67
00000737 00000078 1045.63 106.43 337.82 545.39 1105.70 333.74 1273.74 340.69 1161.18 445.89 1117.98 521.72 1262.35 528.97
00000738 00000079 1049.42 105.05 339.33 546.48 1108.97 337.25 1277.67 344.03 1165.72 451.91 1123.78 524.17 1269.51 530.94
00000739 00000080 1052.17 110.69 338.46 540.10 1113.24 341.02 1280.82 347.80 1170.72 457.07 1127.30 524.82 1273.42 531.42
00000740 00000081 1055.53 110.29 337.85 542.75 1115.21 340.96 1284.48 349.01 1175.81 461.05 1128.91 526.40 1276.20 533.81
00000741 00000082 1056.82 110.22 338.12 543.41 1116.97 340.38 1286.41 349.18 1178.04 461.89 1130.23 527.28 1276.44 535.24
00000742 00000083 1055.19 109.61 338.09 545.22 1115.71 340.76 1285.61 349.56 1178.11 461.39 1128.64 527.67 1275.66 535.72
00000743 00000084 1053.73 112.53 337.08 542.36 1114.60 341.39 1284.16 351.37 1176.54 462.03 1126.54 527.69 1273.82 536.70
00000744 00000085 1050.30 110.86 336.02 546.71 1111.11 343.78 1280.58 354.44 1172.00 462.02 1123.72 529.11 1271.10 538.52
00000745 00000086 1045.91 111.00 335.04 548.92 1107.04 344.24 1277.13 356.40 1167.66 461.40 1118.71 529.63 1266.56 540.40
00000746 00000087 1044.93 110.55 334.56 550.12 1103.71 343.82 1273.65 354.76 1164.69 462.85 1118.27 530.90 1264.40 540.70
00000747 00000088 1044.54 111.11 333.97 549.62 1102.09 345.60 1271.69 354.93 1162.98 462.54 1118.44 532.50 1263.38 541.03
00000748 00000089 1044.15 110.49 336.25 548.48 1101.97 345.34 1271.47 353.69 1161.67 461.93 1119.48 532.46 1264.00 540.23
00000749 00000090 1044.52 109.77 337.77 546.43 1103.53 343.46 1273.89 352.73 1163.54 461.02 1120.08 529.51 1266.61 537.88
00000750 00000091 1045.61 108.10 337.35 547.64 1105.11 341.25 1275.07 350.77 1165.55 459.90 1120.52 527.74 1267.71 536.32
00000751 00000092 1048.19 108.78 337.15 545.72 1108.16 339.55 1276.80 349.37 1167.67 460.36 1123.04 526.37 1269.29 535.26
00000752 00000093 1050.73 107.77 335.00 546.76 1110.11 340.75 1278.53 349.04 1170.98 460.21 1125.70 528.00 1271.24 535.71
00000753 00000094 1052.25 107.19 335.00 547.53 1111.66 340.53 1279.99 347.72 1173.49 460.12 1128.06 528.76 1272.93 535.68
00000754 00000095 1054.27 105.03 333.40 549.96 1111.24 340.56 1280.41 347.92 1172.50 459.63 1126.94 529.71 1271.96 536.72
00000755 00000096 1051.63 103.21 335.43 550.46 1110.25 339.18 1280.84 348.01 1171.92 458.82 1125.85 529.89 1270.41 538.12
00000756 00000097 1050.52 103.41 334.25 549.22 1109.54 338.57 1278.81 348.08 1170.22 458.85 1124.25 528.56 1267.88 537.45
00000757 00000098 1049.64 105.07 331.42 546.76 1109.24 338.87 1276.70 349.06 1169.51 457.46 1123.02 527.45 1264.26 537.03
00000758 00000099 1048.82 105.08 333.95 546.73 1109.33 336.57 1276.76 347.44 1169.25 457.27 1122.66 527.14 1262.70 537.58
00000759 00000100 1047.08 102.93 336.45 548.17 1107.89 335.60 1276.04 346.51 1168.14 457.16 1121.74 527.27 1262.02 537.68
00000760 00000101 1046.84 102.00 336.57 549.36 1107.47 335.14 1276.22 346.09 1167.99 456.84 1121.04 528.23 1260.81 538.77
00000761 00000102 1048.39 102.40 334.88 548.03 1108.11 334.93 1276.92 346.12 1169.03 457.00 1121.53 528.80 1260.55 539.63
00000762 00000103 1050.15 102.06 337.25 547.03 1109.87 335.90 1277.25 346.14 1169.90 458.02 1124.60 529.01 1262.17 538.90
00000763 00000104 1050.92 99.50 337.22 547.54 1110.20 334.94 1278.71 344.40 1170.99 457.49 1124.74 528.04 1264.13 537.18
00000764 00000105 1051.04 98.40 336.74 546.86 1110.23 335.08 1278.58 344.17 1171.12 456.92 1125.13 527.36 1265.10 536.03
CROP_BBOX: 791 0 1593 779
