Video ID: 	_444EmK8KyM
H: 	1080
W: 	1920
FPS: 	59.94005994005994

FRAME INDEX X0 Y0 W H [Landmarks (5 Points)]

00062245 00000000 285.20 53.79 260.39 378.29
00062246 00000001 285.70 57.03 260.22 378.04
00062247 00000002 284.68 56.73 260.23 377.69
00062248 00000003 283.66 56.43 260.23 377.34
00062249 00000004 282.65 56.13 260.24 376.99
00062250 00000005 281.63 55.83 260.25 376.63
00062251 DELETE   280.61 55.53 260.25 376.28
00062252 00000007 279.59 55.23 260.26 375.93
00062253 DELETE   278.58 54.93 260.27 375.58
00062254 DELETE   277.56 54.63 260.27 375.23
00062255 DELETE   276.54 54.33 260.28 374.87
00062256 00000011 275.52 54.03 260.29 374.52
00062257 00000012 274.50 53.73 260.29 374.17
00062258 00000013 273.35 53.43 260.28 373.80
00062259 00000014 271.29 53.14 260.16 373.32
00062260 00000015 269.23 52.85 260.04 372.83
00062261 00000016 267.17 52.55 259.91 372.35
00062262 00000017 265.12 52.26 259.79 371.86
00062263 00000018 263.06 51.97 259.67 371.38
00062264 00000019 261.00 51.67 259.54 370.89
00062265 00000020 258.94 51.38 259.42 370.41
00062266 00000021 256.88 51.09 259.30 369.92
00062267 00000022 254.82 50.79 259.17 369.44
00062268 00000023 252.77 50.50 259.05 368.96
00062269 00000024 250.71 50.21 258.92 368.47
00062270 00000025 248.82 50.06 258.79 368.03
00062271 00000026 247.96 50.79 258.62 367.85
00062272 DELETE   247.10 51.52 258.45 367.67
00062273 00000028 246.24 52.25 258.28 367.50
00062274 00000029 245.37 52.98 258.11 367.32
00062275 00000030 244.51 53.71 257.94 367.14
00062276 00000031 243.65 54.44 257.77 366.96
00062277 00000032 242.79 55.17 257.60 366.78
00062278 00000033 241.93 55.90 257.43 366.61
00062279 00000034 241.07 56.63 257.26 366.43
00062280 00000035 240.21 57.36 257.09 366.25
00062281 00000036 239.34 58.09 256.92 366.07
00062282 00000037 238.39 58.75 256.77 365.87
00062283 00000038 236.91 59.01 256.72 365.53
00062284 00000039 235.44 59.27 256.67 365.18
00062285 DELETE   233.96 59.53 256.63 364.84
00062286 00000041 232.49 59.79 256.58 364.50
00062287 00000042 231.01 60.04 256.54 364.15
00062288 00000043 229.53 60.30 256.49 363.81
00062289 DELETE   228.06 60.56 256.45 363.47
00062290 00000045 226.58 60.82 256.40 363.13
00062291 00000046 225.11 61.08 256.36 362.78
00062292 00000047 223.63 61.34 256.31 362.44
00062293 00000048 222.16 61.60 256.27 362.10
00062294 00000049 220.78 61.84 256.28 361.74
00062295 00000050 219.91 62.03 256.61 361.34
00062296 00000051 219.04 62.21 256.94 360.94
00062297 00000052 218.18 62.39 257.26 360.53
00062298 00000053 217.31 62.57 257.59 360.13
00062299 00000054 216.44 62.76 257.92 359.73
00062300 00000055 215.57 62.94 258.24 359.32
00062301 00000056 214.70 63.12 258.57 358.92
00062302 00000057 213.83 63.30 258.90 358.51
00062303 00000058 212.96 63.49 259.22 358.11
00062304 00000059 212.09 63.67 259.55 357.71
00062305 00000060 211.22 63.85 259.88 357.30
00062306 00000061 210.39 64.04 260.23 356.92
00062307 00000062 209.73 64.25 260.70 356.65
00062308 00000063 209.08 64.47 261.17 356.38
00062309 00000064 208.42 64.68 261.64 356.10
00062310 00000065 207.76 64.89 262.11 355.83
00062311 00000066 207.11 65.11 262.58 355.56
00062312 00000067 206.45 65.32 263.06 355.29
00062313 00000068 205.79 65.53 263.53 355.01
00062314 00000069 205.14 65.75 264.00 354.74
00062315 00000070 204.48 65.96 264.47 354.47
00062316 00000071 203.82 66.17 264.94 354.19
00062317 00000072 203.17 66.39 265.41 353.92
00062318 00000073 202.63 66.60 265.84 353.70
00062319 00000074 202.57 66.82 266.06 353.67
00062320 00000075 202.51 67.04 266.27 353.65
00062321 00000076 202.46 67.26 266.49 353.63
00062322 00000077 202.40 67.47 266.71 353.60
00062323 00000078 202.35 67.69 266.93 353.58
00062324 00000079 202.29 67.91 267.15 353.56
00062325 00000080 202.24 68.13 267.37 353.54
00062326 00000081 202.18 68.35 267.59 353.51
00062327 00000082 202.13 68.57 267.81 353.49
00062328 00000083 202.07 68.78 268.03 353.47
00062329 00000084 202.02 69.00 268.25 353.44
00062330 00000085 202.06 69.22 268.42 353.45
00062331 00000086 202.50 69.44 268.40 353.58
00062332 00000087 202.93 69.67 268.38 353.70
00062333 00000088 203.37 69.89 268.36 353.83
00062334 00000089 203.80 70.11 268.34 353.96
00062335 00000090 204.24 70.33 268.32 354.09
00062336 00000091 204.67 70.55 268.30 354.21
00062337 00000092 205.11 70.77 268.28 354.34
00062338 00000093 205.54 71.00 268.26 354.47
00062339 00000094 205.98 71.22 268.24 354.59
00062340 00000095 206.41 71.44 268.22 354.72
00062341 00000096 206.85 71.66 268.20 354.85
00062342 00000097 207.36 71.93 268.16 354.96
00062343 00000098 208.18 72.34 268.05 355.00
00062344 00000099 208.99 72.76 267.95 355.04
00062345 00000100 209.81 73.18 267.84 355.08
00062346 00000101 210.62 73.59 267.74 355.12
00062347 00000102 211.44 74.01 267.63 355.16
00062348 00000103 212.25 74.43 267.53 355.20
00062349 00000104 213.06 74.84 267.42 355.24
00062350 00000105 213.88 75.26 267.32 355.28
00062351 00000106 214.69 75.67 267.21 355.32
00062352 00000107 215.51 76.09 267.11 355.36
00062353 00000108 216.32 76.51 267.00 355.40
00062354 00000109 217.17 77.14 266.93 355.50
00062355 00000110 218.15 78.49 266.95 355.77
00062356 00000111 219.13 79.85 266.97 356.04
00062357 00000112 220.11 81.20 266.99 356.31
00062358 00000113 221.09 82.56 267.01 356.59
00062359 00000114 222.06 83.91 267.03 356.86
00062360 00000115 223.04 85.27 267.06 357.13
00062361 00000116 224.02 86.63 267.08 357.40
00062362 00000117 225.00 87.98 267.10 357.68
00062363 00000118 225.97 89.34 267.12 357.95
00062364 00000119 226.95 90.69 267.14 358.22
00062365 00000120 227.93 92.05 267.16 358.50
00062366 00000121 228.94 93.23 267.15 358.73
00062367 00000122 230.06 93.85 267.03 358.85
00062368 00000123 231.17 94.48 266.91 358.96
00062369 00000124 232.29 95.11 266.79 359.08
00062370 00000125 233.40 95.73 266.67 359.20
00062371 00000126 234.52 96.36 266.55 359.32
00062372 00000127 235.63 96.99 266.42 359.43
00062373 00000128 236.75 97.61 266.30 359.55
00062374 00000129 237.86 98.24 266.18 359.67
00062375 00000130 238.98 98.87 266.06 359.78
00062376 00000131 240.09 99.49 265.94 359.90
00062377 00000132 241.21 100.12 265.82 360.02
00062378 00000133 242.33 100.73 265.72 360.10
00062379 00000134 243.47 101.30 265.69 360.08
00062380 00000135 244.61 101.87 265.66 360.06
00062381 00000136 245.76 102.44 265.62 360.04
00062382 00000137 246.90 103.00 265.59 360.02
00062383 00000138 248.04 103.57 265.56 360.00
00062384 00000139 249.19 104.14 265.53 359.98
00062385 00000140 250.33 104.71 265.50 359.96
00062386 00000141 251.47 105.28 265.46 359.94
00062387 00000142 252.61 105.84 265.43 359.91
00062388 00000143 253.76 106.41 265.40 359.89
00062389 00000144 254.90 106.98 265.37 359.87
00062390 00000145 255.89 107.38 265.38 359.90
00062391 00000146 256.45 107.31 265.50 360.08
00062392 00000147 257.02 107.23 265.63 360.25
00062393 00000148 257.58 107.16 265.76 360.43
00062394 00000149 258.14 107.09 265.89 360.60
00062395 00000150 258.70 107.01 266.01 360.77
00062396 00000151 259.27 106.94 266.14 360.95
00062397 00000152 259.83 106.87 266.27 361.12
00062398 00000153 260.39 106.79 266.40 361.30
00062399 00000154 260.96 106.72 266.52 361.47
00062400 00000155 261.52 106.65 266.65 361.65
00062401 00000156 262.08 106.58 266.78 361.82
00062402 00000157 262.57 106.32 266.90 362.01
00062403 00000158 262.87 105.57 267.01 362.26
00062404 00000159 263.18 104.82 267.13 362.52
00062405 00000160 263.48 104.07 267.24 362.77
00062406 00000161 263.78 103.32 267.35 363.02
00062407 00000162 264.08 102.57 267.47 363.27
00062408 00000163 264.38 101.82 267.58 363.52
00062409 00000164 264.68 101.07 267.69 363.77
00062410 00000165 264.98 100.32 267.81 364.02
00062411 00000166 265.28 99.57 267.92 364.27
00062412 00000167 265.58 98.82 268.03 364.52
00062413 00000168 265.88 98.07 268.14 364.77
00062414 00000169 266.02 97.34 268.22 364.91
00062415 00000170 265.76 96.65 268.18 364.80
00062416 00000171 265.49 95.97 268.15 364.69
00062417 00000172 265.22 95.28 268.11 364.57
00062418 00000173 264.96 94.60 268.08 364.46
00062419 00000174 264.69 93.91 268.05 364.34
00062420 00000175 264.42 93.23 268.01 364.23
00062421 00000176 264.16 92.54 267.98 364.11
00062422 00000177 263.89 91.85 267.94 364.00
00062423 00000178 263.63 91.17 267.91 363.88
00062424 00000179 263.36 90.48 267.88 363.77
00062425 00000180 263.09 89.80 267.84 363.65
00062426 00000181 262.84 89.23 267.78 363.53
00062427 00000182 262.61 88.95 267.67 363.37
00062428 00000183 262.37 88.66 267.56 363.22
00062429 00000184 262.14 88.38 267.44 363.06
00062430 00000185 261.91 88.09 267.33 362.91
00062431 00000186 261.68 87.81 267.21 362.75
00062432 00000187 261.45 87.52 267.10 362.60
00062433 00000188 261.21 87.24 266.98 362.44
00062434 00000189 260.98 86.95 266.87 362.28
00062435 00000190 260.75 86.67 266.76 362.13
00062436 00000191 260.52 86.38 266.64 361.97
00062437 00000192 260.29 86.10 266.53 361.82
00062438 00000193 259.99 85.84 266.40 361.72
00062439 00000194 259.53 85.65 266.25 361.75
00062440 00000195 259.08 85.45 266.10 361.79
00062441 00000196 258.63 85.26 265.95 361.82
00062442 00000197 258.18 85.06 265.80 361.85
00062443 00000198 257.73 84.86 265.65 361.88
00062444 00000199 257.27 84.67 265.50 361.92
00062445 00000200 256.82 84.47 265.35 361.95
00062446 00000201 256.37 84.28 265.20 361.98
00062447 00000202 255.92 84.08 265.05 362.01
00062448 00000203 255.46 83.89 264.90 362.05
00062449 00000204 255.01 83.69 264.76 362.08
00062450 00000205 254.92 83.42 264.67 362.08
00062451 00000206 255.56 82.98 264.73 362.03
00062452 00000207 256.21 82.55 264.78 361.98
00062453 00000208 256.86 82.11 264.84 361.93
00062454 00000209 257.50 81.68 264.89 361.88
00062455 00000210 258.15 81.24 264.95 361.83
00062456 00000211 258.80 80.81 265.00 361.78
00062457 00000212 259.45 80.37 265.06 361.73
00062458 00000213 260.09 79.94 265.11 361.68
00062459 00000214 260.74 79.50 265.17 361.63
00062460 00000215 261.39 79.07 265.22 361.58
00062461 00000216 262.03 78.63 265.28 361.53
00062462 00000217 262.61 78.34 265.30 361.48
00062463 00000218 263.05 78.31 265.26 361.42
00062464 00000219 263.48 78.29 265.22 361.35
00062465 00000220 263.92 78.26 265.17 361.29
00062466 00000221 264.35 78.24 265.13 361.22
00062467 00000222 264.79 78.21 265.09 361.16
00062468 00000223 265.23 78.19 265.05 361.09
00062469 00000224 265.66 78.16 265.00 361.03
00062470 00000225 266.10 78.14 264.96 360.97
00062471 00000226 266.53 78.12 264.92 360.90
00062472 00000227 266.97 78.09 264.87 360.84
00062473 00000228 267.41 78.07 264.83 360.77
00062474 00000229 267.79 77.60 264.76 360.74
00062475 00000230 268.09 76.30 264.65 360.76
00062476 00000231 268.39 74.99 264.53 360.78
00062477 00000232 268.68 73.69 264.41 360.80
00062478 00000233 268.98 72.39 264.30 360.82
00062479 00000234 269.28 71.08 264.18 360.84
00062480 00000235 269.57 69.78 264.06 360.86
00062481 00000236 269.87 68.48 263.95 360.88
00062482 00000237 270.17 67.17 263.83 360.90
00062483 00000238 514.44 162.38 388.10 561.48 661.89 394.65 825.97 371.17 803.88 490.65 662.13 558.38 837.53 543.35
00062484 00000239 512.23 161.78 389.61 558.70 661.40 390.08 824.18 368.39 801.91 484.64 661.43 553.32 835.11 539.56
00062485 00000240 514.65 154.19 388.38 560.13 662.19 384.16 825.47 364.80 802.89 476.37 663.35 546.74 834.80 534.54
00062486 00000241 271.60 62.33 263.40 360.90
00062487 00000242 272.58 62.04 263.38 360.71
00062488 00000243 273.55 61.76 263.37 360.52
00062489 00000244 274.53 61.47 263.36 360.33
00062490 00000245 275.50 61.18 263.34 360.15
00062491 00000246 276.48 60.90 263.33 359.96
00062492 00000247 277.46 60.61 263.31 359.77
00062493 00000248 278.43 60.33 263.30 359.58
00062494 00000249 279.41 60.04 263.29 359.39
00062495 00000250 280.38 59.76 263.27 359.20
00062496 00000251 281.36 59.47 263.26 359.02
00062497 00000252 282.34 59.18 263.24 358.83
00062498 00000253 282.89 59.14 263.25 358.68
00062499 00000254 282.72 59.52 263.28 358.62
00062500 00000255 282.55 59.90 263.32 358.56
00062501 00000256 282.39 60.28 263.35 358.49
00062502 00000257 282.22 60.66 263.39 358.43
00062503 00000258 282.05 61.04 263.42 358.37
00062504 00000259 281.89 61.42 263.46 358.30
00062505 00000260 281.72 61.80 263.49 358.24
00062506 00000261 281.55 62.18 263.53 358.17
00062507 00000262 281.39 62.56 263.56 358.11
00062508 00000263 281.22 62.94 263.60 358.05
00062509 00000264 281.05 63.32 263.63 357.98
00062510 00000265 280.32 64.90 263.68 357.85
00062511 00000266 278.67 68.43 263.74 357.61
00062512 00000267 277.03 71.96 263.79 357.37
00062513 00000268 275.38 75.49 263.85 357.12
00062514 00000269 273.73 79.02 263.91 356.88
00062515 00000270 272.09 82.55 263.97 356.64
00062516 00000271 270.44 86.08 264.03 356.40
00062517 00000272 268.80 89.62 264.09 356.16
00062518 00000273 517.97 215.39 392.82 540.07 660.39 448.31 836.70 425.05 805.02 537.03 680.87 616.36 848.80 599.03
00062519 00000274 518.88 229.79 386.12 533.22 659.74 458.79 832.14 433.62 801.80 547.37 678.09 623.40 846.06 605.53
00062520 00000275 263.86 100.21 264.27 355.43
00062521 00000276 262.21 103.74 264.33 355.19
00062522 00000277 496.69 265.76 383.22 540.22 636.44 502.40 806.56 474.40 768.09 590.72 658.13 670.31 818.18 649.15
00062523 DELETE   485.38 274.84 383.35 540.52 627.77 514.33 795.36 483.80 760.11 604.05 656.00 686.65 808.76 662.21
00062524 00000279 258.40 112.75 264.27 354.69
00062525 00000280 257.22 115.63 264.23 354.55
00062526 00000281 256.04 118.50 264.18 354.40
00062527 00000282 254.86 121.38 264.14 354.26
00062528 00000283 253.69 124.25 264.10 354.11
00062529 00000284 252.51 127.12 264.06 353.96
00062530 00000285 251.33 130.00 264.02 353.82
00062531 00000286 250.15 132.87 263.98 353.67
00062532 00000287 248.97 135.74 263.94 353.53
00062533 00000288 247.80 138.62 263.90 353.38
00062534 00000289 247.63 139.59 263.89 353.29
00062535 00000290 248.94 137.81 263.93 353.27
00062536 00000291 250.24 136.03 263.96 353.26
00062537 00000292 251.55 134.25 264.00 353.24
00062538 00000293 252.86 132.47 264.04 353.22
00062539 DELETE   254.16 130.69 264.08 353.21
CROP_BBOX: 234 0 1294 1062
