Video ID: 	nbwMV7o7Was
H: 	1080
W: 	1920
FPS: 	29.97002997002997

FRAME INDEX X0 Y0 W H [Landmarks (5 Points)]

00000659 00000000 731.50 214.79 353.23 537.26 866.75 425.34 1033.41 392.54 1011.30 517.88 928.40 641.20 1043.68 613.69
00000660 00000001 734.42 207.47 353.35 545.23 874.28 420.71 1038.29 389.08 1023.30 509.36 933.49 637.36 1051.60 611.48
00000661 00000002 735.69 195.31 349.50 557.52 879.27 411.31 1039.31 380.37 1032.88 501.95 931.61 631.71 1051.47 607.35
00000662 00000003 737.64 206.19 348.71 543.23 878.14 408.71 1037.81 375.24 1039.03 496.63 930.89 626.93 1052.98 600.65
00000663 00000004 736.73 196.07 338.61 552.34 877.10 407.69 1033.91 374.58 1033.56 485.89 926.73 614.63 1049.02 587.64
00000664 DELETE   737.82 201.00 340.16 550.15 873.73 398.54 1031.10 364.60 1030.83 474.89 926.44 609.62 1051.11 581.96
00000665 DELETE   740.31 182.37 341.27 567.46 870.01 391.59 1032.92 356.67 1027.41 469.08 921.87 605.96 1053.97 578.31
00000666 00000007 741.15 179.48 344.45 565.46 868.76 381.77 1039.42 347.19 1030.70 460.24 914.17 596.37 1055.97 569.63
00000667 00000008 735.19 165.47 356.01 577.23 866.37 369.70 1035.00 327.76 1032.65 454.32 907.31 590.66 1053.61 558.53
00000668 00000009 723.89 157.52 372.92 584.21 866.15 368.57 1037.47 323.92 1034.63 450.93 906.31 586.38 1056.32 550.78
00000669 00000010 725.50 165.71 371.57 564.92 865.70 364.20 1038.36 325.93 1031.19 447.38 908.93 578.71 1057.91 547.77
00000670 00000011 730.30 153.89 367.11 555.05 873.17 358.56 1045.42 318.66 1037.68 443.84 915.31 568.64 1061.35 536.77
00000671 00000012 722.97 144.10 376.60 547.52 878.51 356.70 1048.16 307.95 1048.40 440.08 925.80 562.89 1065.29 524.65
00000672 00000013 727.70 133.45 371.58 539.15 885.47 352.44 1054.47 303.09 1052.19 435.77 932.17 550.61 1072.68 512.40
00000673 00000014 731.39 123.29 372.88 539.36 890.16 347.48 1056.20 295.05 1056.79 428.18 936.71 544.28 1074.87 503.76
00000674 00000015 737.92 128.92 371.50 519.20 899.90 337.95 1072.84 288.21 1070.72 415.81 948.66 529.82 1086.51 490.80
00000675 00000016 744.40 106.63 364.63 534.51 905.84 328.22 1072.68 289.83 1070.95 399.76 965.42 515.61 1099.27 486.89
00000676 00000017 754.64 93.26 366.25 548.88 920.18 320.53 1077.65 282.86 1085.37 389.42 976.08 508.29 1102.91 479.29
00000677 00000018 761.15 87.93 371.89 549.76 929.59 314.84 1087.38 273.24 1093.65 386.04 986.81 506.79 1108.68 473.19
00000678 00000019 769.44 77.84 369.50 556.64 941.46 313.15 1092.22 274.32 1099.02 383.22 997.25 506.07 1111.40 473.51
00000679 00000020 775.58 76.56 370.28 564.20 944.74 302.73 1101.02 270.20 1113.32 378.05 1002.03 505.64 1121.24 478.51
00000680 DELETE   792.80 92.40 359.77 577.70 957.44 305.80 1114.65 274.55 1126.60 385.73 997.75 516.42 1127.15 491.63
00000681 DELETE   807.65 116.43 350.69 569.29 972.50 314.74 1130.05 290.46 1142.66 405.18 1003.17 534.58 1132.98 515.65
00000682 00000023 795.78 118.79 369.74 566.09 991.24 338.28 1133.36 307.08 1157.45 431.48 1015.15 550.28 1130.63 528.05
00000683 DELETE   799.13 115.61 371.94 573.69 998.44 352.81 1139.54 319.96 1162.57 445.77 1030.93 563.33 1138.59 538.99
00000684 00000025 805.47 127.80 368.54 556.84 1011.49 356.44 1152.52 324.11 1171.91 450.26 1044.89 567.52 1147.34 542.96
00000685 00000026 795.65 127.46 383.11 541.70 1026.52 354.18 1151.90 323.87 1189.64 444.44 1076.48 550.26 1159.26 527.05
00000686 00000027 808.05 137.47 375.02 526.35 1038.83 356.44 1147.31 323.39 1198.67 435.48 1089.25 544.37 1161.06 518.90
00000687 00000028 804.07 129.19 387.75 538.41 1046.28 354.35 1150.04 322.82 1209.75 432.26 1097.17 543.69 1165.94 519.97
00000688 00000029 806.09 131.00 387.35 538.93 1044.40 348.93 1150.55 318.56 1212.95 430.92 1096.37 542.50 1166.41 520.06
00000689 00000030 806.34 131.29 385.99 540.74 1043.23 353.38 1145.98 317.97 1215.02 432.49 1093.14 547.44 1161.41 521.50
00000690 00000031 796.47 127.84 388.34 544.66 1039.28 350.68 1137.71 318.55 1205.72 432.38 1091.43 549.53 1156.88 525.61
00000691 DELETE   795.26 129.23 378.17 552.23 1022.39 353.32 1140.70 317.41 1185.16 440.14 1065.76 565.25 1143.24 537.33
00000692 00000033 794.04 122.63 370.25 564.35 1003.20 351.83 1130.05 320.88 1163.56 442.21 1047.63 567.47 1135.54 543.20
00000693 00000034 785.26 116.88 369.18 576.85 988.67 347.47 1122.03 323.48 1150.95 438.85 1037.05 567.72 1129.07 548.27
00000694 00000035 786.72 128.51 365.37 566.95 969.12 344.31 1119.50 314.84 1133.68 440.34 1026.32 572.66 1125.45 547.81
00000695 00000036 779.75 130.13 361.21 568.42 955.21 340.45 1097.26 311.61 1117.35 436.93 1013.25 570.07 1107.77 546.44
00000696 00000037 769.08 133.90 360.94 558.09 947.88 340.83 1092.40 320.85 1106.12 434.72 1007.25 564.63 1102.43 547.70
00000697 00000038 765.13 138.09 361.20 552.91 945.72 344.83 1094.96 321.57 1100.24 436.86 993.44 562.93 1103.14 543.55
00000698 00000039 759.21 139.58 363.65 548.37 933.58 344.25 1088.38 317.90 1088.80 433.53 986.95 561.80 1101.36 539.51
00000699 00000040 757.07 139.13 363.45 547.62 929.59 346.01 1083.27 317.85 1084.27 429.70 985.68 561.99 1098.32 537.98
00000700 00000041 752.92 138.83 366.18 544.83 928.82 342.38 1084.02 315.50 1082.86 428.58 982.07 557.36 1097.85 534.44
00000701 00000042 749.97 134.25 371.09 552.55 927.99 342.71 1082.39 311.56 1086.53 426.91 980.25 556.88 1099.28 531.09
00000702 00000043 749.78 136.18 372.71 549.98 927.10 343.65 1082.84 311.37 1086.42 426.73 980.63 557.11 1100.67 530.25
00000703 00000044 746.98 134.78 375.49 554.18 925.57 342.45 1081.81 310.92 1085.47 427.62 978.76 557.68 1099.25 531.25
00000704 00000045 747.90 134.58 376.06 557.38 925.17 342.58 1082.13 309.67 1084.83 428.58 978.59 557.59 1100.97 529.70
00000705 00000046 751.24 136.71 374.06 559.66 925.55 342.54 1082.25 312.09 1085.05 428.00 975.50 557.10 1101.44 531.42
00000706 00000047 753.83 139.46 372.02 568.56 923.52 343.15 1080.93 308.44 1081.95 430.58 967.40 557.11 1103.73 528.18
00000707 00000048 748.51 145.99 378.12 568.58 921.93 344.19 1077.09 308.10 1082.02 433.80 959.76 555.46 1100.27 526.17
00000708 00000049 750.81 150.70 378.67 565.12 922.18 343.50 1078.20 307.85 1077.33 435.31 957.30 553.00 1100.03 523.71
00000709 00000050 751.24 150.20 375.52 558.15 922.70 348.25 1079.10 308.40 1077.65 437.72 957.16 554.67 1096.43 522.89
00000710 00000051 747.64 139.54 374.39 547.13 918.27 355.42 1079.79 316.20 1074.16 441.08 959.91 558.39 1091.05 527.71
00000711 00000052 738.53 157.50 381.45 517.62 909.56 362.83 1077.64 320.99 1066.00 447.55 958.64 562.30 1087.06 528.83
00000712 00000053 746.20 161.19 366.40 512.01 897.20 363.08 1069.93 321.51 1045.92 450.57 953.01 567.39 1079.53 533.26
00000713 DELETE   748.09 165.12 360.70 508.59 886.51 374.34 1060.83 330.56 1034.28 454.23 950.70 575.82 1075.79 539.16
00000714 DELETE   745.03 163.08 359.94 523.68 878.33 373.18 1054.52 334.80 1025.06 459.92 937.50 580.14 1066.93 548.15
00000715 DELETE   740.26 170.01 360.80 525.50 872.06 380.54 1049.87 343.28 1019.39 467.90 922.81 583.55 1059.84 553.18
00000716 00000057 733.49 171.96 360.93 526.59 866.95 382.96 1044.21 347.69 1012.41 470.28 921.48 583.59 1057.68 554.30
00000717 00000058 735.08 164.78 356.65 536.93 865.24 384.92 1043.79 348.77 1011.12 474.87 919.77 587.68 1055.60 557.83
00000718 00000059 734.09 165.43 358.02 538.42 866.09 387.84 1044.78 352.69 1013.00 477.08 919.70 587.06 1057.76 557.98
00000719 00000060 735.04 169.14 357.49 533.41 870.54 390.38 1045.43 356.09 1016.43 478.82 920.66 586.20 1055.99 558.43
00000720 00000061 738.23 166.96 357.68 537.02 877.18 393.28 1052.17 356.04 1026.22 479.11 925.85 587.27 1063.69 557.22
00000721 00000062 736.84 162.77 363.99 546.80 881.14 388.91 1059.99 350.76 1036.55 477.85 931.14 589.08 1071.73 558.04
00000722 00000063 747.50 162.31 362.95 562.75 884.90 382.50 1065.60 347.99 1039.66 475.22 936.86 593.23 1081.43 564.66
00000723 DELETE   753.04 167.63 360.78 570.32 895.79 379.33 1073.97 347.91 1053.40 474.31 944.46 596.31 1088.48 570.79
00000724 00000065 758.44 169.22 360.73 570.76 908.78 379.95 1083.74 354.09 1063.19 479.21 947.08 594.43 1092.59 573.65
00000725 00000066 760.25 159.95 360.61 574.65 921.50 378.43 1089.77 354.51 1075.53 481.19 957.13 593.70 1094.25 575.09
00000726 00000067 766.02 168.48 357.12 567.11 929.41 378.90 1089.04 356.71 1078.79 482.41 958.41 591.53 1090.73 575.12
00000727 00000068 771.40 170.59 358.79 569.03 933.72 377.36 1092.53 353.45 1084.09 480.38 961.57 587.85 1097.35 569.39
00000728 00000069 776.39 164.59 354.76 575.17 933.41 374.89 1091.79 346.19 1099.74 470.82 964.77 586.19 1095.43 565.03
00000729 00000070 773.92 154.62 358.77 587.66 932.60 373.02 1093.61 339.03 1108.79 464.29 967.93 587.26 1099.08 561.93
00000730 00000071 774.38 140.28 362.10 590.88 938.46 369.05 1100.90 333.14 1111.60 465.13 972.41 587.71 1098.47 560.68
00000731 00000072 779.90 121.06 358.85 586.83 940.59 374.28 1104.49 335.16 1104.77 464.37 979.94 581.09 1106.40 551.82
00000732 00000073 779.90 119.13 358.74 585.80 944.36 379.25 1100.06 337.06 1105.54 464.06 982.72 580.03 1103.10 548.44
00000733 00000074 775.76 122.36 359.95 578.69 948.43 379.65 1096.63 340.69 1105.62 465.09 983.82 578.89 1096.55 549.64
00000734 00000075 781.21 132.48 353.38 570.68 943.04 382.66 1093.26 348.96 1095.05 468.88 981.59 582.67 1093.92 556.96
00000735 00000076 771.66 134.97 360.72 586.54 939.61 386.62 1089.55 355.32 1087.05 478.32 976.69 591.55 1087.05 567.05
00000736 00000077 779.34 150.42 351.74 574.25 940.91 391.28 1092.48 366.49 1080.18 485.60 969.79 593.83 1091.38 574.43
00000737 00000078 778.40 147.71 349.97 568.82 933.13 396.97 1090.71 368.97 1073.24 486.79 969.88 599.22 1089.18 576.75
00000738 00000079 768.53 144.61 356.48 571.11 925.05 393.79 1088.08 368.28 1068.42 485.86 962.11 598.40 1083.66 578.35
00000739 00000080 762.67 159.25 359.94 560.54 918.92 397.98 1084.92 371.19 1062.95 487.66 958.72 601.64 1083.66 580.40
00000740 00000081 759.21 148.63 359.36 566.16 909.14 396.96 1080.51 369.84 1056.41 484.64 951.61 602.27 1079.14 580.78
00000741 DELETE   756.03 142.76 358.56 572.93 897.24 398.61 1069.35 369.24 1043.61 483.50 943.04 603.85 1072.00 580.89
00000742 00000083 755.52 143.45 359.32 572.63 894.48 395.67 1066.27 371.43 1037.69 484.10 938.76 604.58 1066.86 585.92
00000743 00000084 749.12 142.05 362.54 575.99 889.58 397.39 1062.20 373.38 1032.81 489.20 931.37 605.86 1060.68 587.12
00000744 00000085 747.19 140.35 362.38 579.50 887.08 399.64 1059.12 375.49 1030.17 493.22 926.00 606.83 1056.72 587.99
00000745 00000086 745.69 145.10 359.48 576.62 885.37 401.84 1055.93 379.03 1025.82 496.88 922.13 607.75 1052.64 590.15
00000746 00000087 742.03 147.44 363.26 574.75 883.70 404.75 1052.56 382.23 1021.36 499.39 922.06 609.37 1049.32 591.70
00000747 00000088 741.14 146.29 364.86 575.85 882.12 406.16 1053.18 383.26 1019.72 500.69 922.05 610.86 1049.74 592.60
00000748 00000089 743.05 146.23 363.08 576.68 885.52 405.04 1053.89 382.47 1023.40 499.62 923.76 609.75 1050.87 592.03
00000749 00000090 744.27 145.47 362.43 579.11 887.51 403.54 1055.59 379.68 1027.83 497.85 925.11 609.18 1054.04 590.76
00000750 DELETE   746.92 143.59 362.09 587.50 890.05 401.80 1059.19 376.50 1034.01 496.75 923.46 608.65 1058.23 589.76
00000751 00000092 754.17 148.32 357.92 598.81 894.76 399.43 1063.54 371.89 1040.62 492.45 923.36 608.61 1066.61 587.69
00000752 DELETE   760.46 149.84 360.35 593.86 905.10 401.08 1070.84 367.02 1054.96 489.80 939.90 604.36 1081.55 577.99
00000753 00000094 770.31 151.23 354.90 572.75 923.75 401.10 1085.24 370.12 1067.99 487.08 957.09 595.29 1089.03 572.00
00000754 00000095 775.57 142.99 351.69 558.17 935.58 392.66 1085.99 356.51 1082.57 473.36 984.98 584.01 1094.72 556.44
00000755 00000096 780.02 132.41 357.03 565.52 944.75 386.57 1095.08 347.90 1100.86 461.45 996.80 581.77 1106.27 551.25
00000756 00000097 791.95 130.80 357.54 576.00 954.21 385.04 1102.74 344.11 1110.06 458.94 991.19 580.99 1108.83 549.09
00000757 00000098 798.28 124.88 359.18 603.00 950.55 373.70 1102.36 330.22 1115.77 449.48 988.87 585.78 1113.02 551.42
00000758 00000099 806.18 125.89 352.41 607.24 953.78 366.52 1102.49 331.17 1114.63 440.09 989.44 579.93 1112.57 551.59
00000759 00000100 801.55 132.48 359.33 600.78 952.63 356.98 1104.78 320.94 1118.12 436.05 990.92 578.59 1115.04 549.38
00000760 00000101 811.15 131.40 348.47 589.11 947.35 358.97 1103.26 314.98 1112.35 434.29 993.52 575.51 1122.62 540.56
00000761 00000102 794.71 125.05 359.44 578.42 954.84 352.46 1106.35 307.18 1123.89 427.60 1003.69 568.09 1123.91 531.70
00000762 00000103 798.02 128.95 352.95 569.59 953.03 344.92 1099.65 304.91 1123.99 419.12 1002.58 562.08 1118.51 531.27
00000763 00000104 808.31 129.71 338.95 575.91 945.07 343.13 1092.67 303.23 1110.76 415.52 988.46 559.17 1112.18 528.76
00000764 00000105 790.31 130.85 355.82 585.70 938.54 338.87 1086.48 299.73 1106.38 412.37 984.58 557.34 1110.52 527.01
00000765 00000106 774.33 134.15 365.27 580.25 929.10 333.63 1080.37 300.79 1097.69 413.06 981.45 555.77 1104.98 529.72
00000766 00000107 769.17 140.16 363.78 573.94 925.66 342.51 1079.40 306.86 1077.57 423.52 971.05 553.40 1107.87 522.38
00000767 00000108 772.56 120.87 348.91 573.31 916.52 342.70 1066.95 303.23 1080.63 409.71 983.26 548.90 1106.77 517.30
00000768 00000109 777.49 119.96 343.74 563.85 920.18 341.30 1070.31 305.87 1078.88 407.76 983.85 543.35 1104.48 515.16
00000769 00000110 767.01 125.15 353.96 549.86 916.31 340.60 1070.10 307.02 1076.80 409.02 982.89 540.25 1103.95 513.96
00000770 00000111 762.47 129.47 358.63 543.90 913.06 335.97 1066.60 304.69 1071.58 408.02 977.49 535.65 1099.75 511.37
00000771 00000112 763.25 135.63 358.07 532.83 911.78 334.05 1067.62 304.02 1067.30 406.22 969.39 527.57 1098.12 504.74
00000772 00000113 761.57 133.72 359.71 519.12 912.31 335.00 1070.95 303.79 1066.18 404.10 968.73 519.29 1098.77 495.67
00000773 00000114 756.26 133.58 365.13 522.23 912.77 338.13 1072.72 308.22 1066.09 405.30 967.00 520.57 1098.23 497.78
00000774 00000115 758.33 135.93 357.79 521.40 910.18 339.33 1072.79 314.84 1065.22 407.79 965.74 527.25 1095.89 509.02
00000775 00000116 761.08 137.58 356.85 533.86 909.87 343.60 1067.42 315.87 1065.40 409.19 963.62 533.52 1095.54 512.47
00000776 00000117 763.18 134.34 358.62 547.22 917.31 349.71 1069.56 319.17 1064.14 424.68 958.72 549.31 1084.59 525.19
00000777 00000118 761.12 144.81 361.92 542.03 911.68 355.54 1069.37 324.39 1059.22 432.52 951.63 551.41 1086.10 526.85
00000778 00000119 749.04 142.01 374.62 547.58 906.66 360.64 1071.54 327.17 1059.65 437.36 951.57 558.70 1088.08 531.93
00000779 00000120 743.70 130.40 375.12 544.76 903.98 370.31 1074.21 328.39 1059.12 449.93 948.93 561.07 1086.06 528.10
00000780 00000121 740.57 130.05 374.34 543.95 903.74 370.92 1074.64 329.26 1055.27 448.94 958.25 560.37 1089.97 527.06
00000781 00000122 747.29 123.94 370.93 559.29 897.22 374.82 1070.61 334.66 1050.60 456.78 946.29 573.96 1082.57 541.97
00000782 00000123 748.19 130.08 367.38 560.89 895.47 378.54 1065.89 336.62 1048.77 457.58 945.98 577.55 1081.25 544.17
00000783 00000124 746.73 137.73 368.87 558.28 892.98 381.82 1065.52 338.93 1045.69 459.42 941.69 578.26 1081.70 543.80
00000784 00000125 747.83 132.23 366.48 564.70 891.13 386.37 1064.24 341.78 1044.22 463.20 939.83 580.91 1081.10 544.96
00000785 00000126 746.71 132.71 367.69 564.29 885.58 385.55 1063.92 345.41 1039.09 464.16 935.95 583.76 1078.10 550.93
00000786 00000127 744.28 125.64 365.46 569.81 881.59 385.13 1059.70 349.23 1032.93 466.23 930.03 583.46 1071.20 554.06
00000787 00000128 741.97 126.73 363.67 569.57 875.70 386.09 1054.09 347.72 1028.92 466.98 924.84 583.36 1068.00 552.16
00000788 00000129 738.01 126.28 365.91 567.75 873.86 386.48 1047.86 346.99 1024.16 466.57 924.69 580.40 1064.51 547.99
00000789 00000130 734.46 127.87 369.47 569.92 870.36 382.11 1047.37 345.00 1020.13 466.02 919.48 580.24 1061.63 549.74
00000790 00000131 733.46 130.81 367.89 571.83 866.75 379.95 1043.49 347.02 1013.93 465.79 914.88 583.34 1052.82 556.07
00000791 00000132 731.99 132.28 371.96 587.28 863.65 378.54 1040.68 349.72 1012.01 466.55 909.93 587.18 1052.64 563.46
00000792 00000133 732.88 128.79 367.09 583.47 862.63 380.64 1040.98 350.28 1010.16 469.36 910.61 587.13 1052.22 562.32
00000793 00000134 735.41 126.63 359.83 570.60 865.03 381.69 1042.58 348.89 1010.69 471.09 913.28 584.18 1050.54 557.72
00000794 00000135 731.64 122.01 362.26 578.77 865.19 383.30 1042.76 350.54 1012.72 472.30 913.14 584.46 1052.08 557.91
00000795 00000136 734.60 125.00 356.40 573.61 863.63 385.49 1041.39 350.68 1010.27 473.42 913.08 585.98 1052.03 557.72
00000796 00000137 735.17 128.99 357.13 574.09 863.22 387.48 1038.90 352.61 1008.52 474.06 915.48 588.47 1049.89 560.08
00000797 00000138 733.64 131.78 357.28 574.99 860.49 386.15 1036.84 356.05 1002.40 476.27 912.77 592.40 1043.51 567.73
00000798 00000139 736.54 131.99 355.73 587.93 860.12 387.91 1035.83 360.84 1000.65 481.00 909.39 598.47 1042.08 577.12
00000799 00000140 734.67 130.94 358.12 596.02 857.32 387.04 1033.34 362.32 994.86 483.75 904.32 601.92 1036.25 582.17
00000800 00000141 728.34 132.98 362.92 601.56 853.64 388.24 1026.91 364.37 988.63 485.10 900.63 605.21 1029.19 586.14
00000801 00000142 729.24 131.17 360.68 596.81 850.36 388.63 1024.82 366.24 983.30 486.97 897.34 603.65 1026.81 585.44
00000802 00000143 725.59 132.49 365.43 591.84 846.26 389.16 1022.64 367.90 977.86 487.06 893.93 600.09 1027.45 582.19
00000803 00000144 724.38 131.13 364.27 599.37 843.93 390.48 1018.51 368.08 974.24 486.59 889.98 599.26 1025.72 580.52
00000804 00000145 720.65 131.74 364.36 600.66 840.91 390.77 1013.40 368.18 970.29 486.23 886.86 600.58 1018.79 581.76
00000805 00000146 718.94 135.72 363.07 598.31 836.95 391.03 1011.91 368.66 965.61 485.92 881.49 602.46 1015.49 583.97
00000806 00000147 715.07 133.71 368.21 612.70 835.74 392.76 1013.76 372.41 965.15 486.59 871.60 601.36 1016.26 583.76
00000807 00000148 710.80 132.30 372.52 620.90 834.28 394.31 1012.81 373.59 964.38 489.43 869.27 600.02 1022.14 581.38
00000808 00000149 708.98 136.32 374.89 620.84 835.60 395.95 1016.53 375.97 966.66 492.95 865.28 599.51 1027.18 581.49
00000809 00000150 714.18 142.10 371.47 615.60 839.60 402.08 1018.16 379.61 970.47 495.43 868.19 603.41 1028.84 584.44
00000810 00000151 718.12 146.54 369.03 610.55 845.60 404.11 1022.23 382.43 976.41 504.89 875.32 607.39 1030.56 588.92
CROP_BBOX: 449 0 1433 919
