Video ID: 	B5pKw6flFZE
H: 	1080
W: 	1920
FPS: 	59.94006309148265

FRAME INDEX X0 Y0 W H [Landmarks (5 Points)]

00051290 00000000 556.96 122.64 443.16 701.75 667.82 392.26 896.66 358.06 813.36 508.48 727.84 654.55 917.47 624.00
00051291 00000001 555.18 120.26 444.71 702.82 669.07 391.88 897.06 359.03 815.83 509.29 728.23 653.02 917.27 623.95
00051292 00000002 554.96 122.63 445.64 696.80 669.40 392.44 897.67 358.87 815.89 508.68 729.07 651.75 918.27 621.83
00051293 00000003 553.85 126.10 447.05 691.39 668.97 391.97 898.06 357.38 817.52 508.61 728.13 650.48 919.22 619.66
00051294 00000004 555.64 129.05 444.24 683.59 669.61 391.33 899.27 357.94 817.38 509.50 726.72 647.30 919.10 617.51
00051295 00000005 556.11 136.76 443.16 670.54 670.03 389.82 901.07 356.79 819.19 508.64 727.83 646.12 920.20 616.74
00051296 00000006 557.84 135.96 441.38 668.19 670.00 390.42 902.61 357.62 818.40 509.27 725.72 644.33 920.66 615.24
00051297 00000007 558.50 132.90 441.23 668.60 670.54 390.18 903.10 358.47 817.84 509.33 726.41 643.66 920.46 615.34
00051298 00000008 558.75 129.95 441.94 669.40 671.20 390.51 903.61 359.68 817.75 510.44 727.58 643.55 920.82 615.89
00051299 00000009 559.85 131.06 441.40 670.08 672.04 390.94 904.68 359.46 818.55 510.69 728.08 644.17 922.02 616.10
00051300 00000010 558.85 129.56 443.60 672.33 671.99 391.43 904.78 359.34 820.18 510.86 728.65 645.51 922.09 616.83
00051301 00000011 558.30 120.36 444.94 680.41 670.92 393.20 904.33 361.03 817.81 511.31 728.22 645.06 922.55 616.36
00051302 00000012 557.06 112.58 446.30 689.20 671.41 392.79 904.82 360.03 819.49 510.37 729.27 645.56 923.36 616.35
00051303 00000013 559.62 119.52 443.96 682.45 671.34 393.33 904.61 359.53 818.42 509.88 729.59 645.84 923.79 616.11
00051304 00000014 563.03 115.84 441.23 683.57 673.55 391.59 904.77 360.30 816.83 511.35 729.87 643.90 922.34 616.65
00051305 DELETE   563.80 116.90 440.62 682.99 675.04 391.25 905.82 360.83 817.91 510.58 728.99 642.32 921.79 615.81
00051306 00000016 565.96 125.48 438.23 672.67 675.81 391.43 906.52 358.68 821.24 508.12 731.29 642.81 923.08 614.77
00051307 00000017 567.72 121.48 437.53 678.35 677.84 391.25 907.93 358.58 822.27 507.39 732.37 642.34 924.40 614.40
00051308 00000018 569.00 119.03 437.20 678.54 679.26 390.76 908.98 359.08 822.19 507.22 733.37 641.09 924.89 614.06
00051309 00000019 570.08 121.54 436.44 676.91 680.42 391.08 909.45 359.03 823.70 506.94 734.45 641.71 925.32 614.54
00051310 00000020 574.01 105.48 435.41 696.73 680.58 395.14 904.87 362.78 821.11 505.50 737.56 639.46 925.89 612.18
00051311 00000021 575.69 108.22 434.92 695.48 682.50 394.79 905.73 363.18 821.19 505.92 738.21 639.59 926.08 612.92
00051312 00000022 575.77 110.73 436.07 698.55 683.79 393.87 907.35 362.20 822.11 506.08 739.01 640.12 928.33 613.50
00051313 00000023 575.29 115.04 437.47 703.77 685.24 393.58 909.02 360.87 825.37 505.71 741.02 642.76 932.09 615.27
00051314 00000024 577.52 111.86 435.86 708.74 688.06 394.20 909.48 361.86 824.20 505.20 742.22 642.57 931.54 615.48
00051315 00000025 578.12 113.47 436.03 709.99 689.83 394.91 909.89 361.49 825.54 504.22 745.52 644.25 932.48 616.48
00051316 00000026 578.58 112.52 435.84 709.12 690.23 394.83 910.68 361.78 825.99 504.74 746.21 644.40 932.11 617.00
00051317 00000027 578.05 114.61 437.72 702.87 690.15 393.81 910.49 361.80 825.10 504.89 747.74 646.26 927.80 619.98
00051318 00000028 577.98 116.13 438.85 691.97 690.39 394.71 909.42 362.44 824.88 503.88 750.60 645.96 924.36 619.53
00051319 00000029 579.03 116.22 438.25 690.39 691.42 394.04 909.41 362.36 824.86 502.62 752.44 645.68 923.53 619.74
00051320 00000030 580.20 114.53 437.35 693.31 692.20 393.28 910.84 361.66 826.02 501.84 752.70 645.43 925.01 619.56
00051321 00000031 581.37 117.85 436.29 689.28 692.57 393.52 910.56 361.27 825.59 500.99 753.82 645.00 925.33 618.60
00051322 00000032 581.40 117.48 437.23 687.60 692.96 393.24 910.74 360.58 826.81 500.20 754.84 644.44 925.90 617.74
00051323 00000033 581.92 117.01 437.33 688.42 694.36 393.64 910.94 360.91 826.88 499.83 756.14 645.17 924.96 618.56
00051324 00000034 579.19 119.08 432.81 687.44 693.16 387.67 914.74 358.51 831.82 499.59 754.59 646.12 930.97 621.74
00051325 00000035 581.48 120.11 431.20 687.04 695.11 388.63 915.03 359.76 832.33 499.44 753.65 644.78 932.19 620.92
00051326 00000036 581.25 119.67 431.89 690.38 696.28 388.13 915.48 360.09 834.04 500.67 754.40 645.15 933.64 621.82
00051327 00000037 582.38 119.72 432.06 690.36 696.63 388.06 915.89 360.08 835.97 501.44 754.39 644.54 935.08 621.29
00051328 00000038 582.47 116.66 433.40 693.55 697.87 389.24 916.05 362.22 834.92 501.78 753.14 643.16 934.56 620.42
00051329 DELETE   582.55 118.87 433.62 691.20 697.65 388.73 916.49 361.62 835.36 502.70 753.03 643.18 934.93 620.39
00051330 00000040 584.67 123.03 432.52 687.59 697.75 389.16 917.34 361.62 836.49 502.87 753.10 642.58 937.18 619.44
00051331 00000041 585.10 122.06 433.16 690.47 698.19 389.77 917.62 362.37 837.38 504.85 752.02 642.83 938.76 619.68
00051332 00000042 584.67 122.90 434.25 690.66 698.35 390.33 917.69 362.54 837.88 505.18 752.71 643.19 939.09 619.79
00051333 00000043 585.32 126.74 434.15 689.43 698.55 390.28 917.48 362.38 837.88 505.29 753.18 644.49 939.35 620.75
00051334 00000044 585.44 125.97 434.81 689.79 698.83 390.50 918.19 362.53 838.45 505.78 753.61 644.52 940.04 620.77
00051335 00000045 585.24 124.66 435.22 690.86 699.38 390.05 918.32 362.52 838.85 506.08 754.23 644.52 939.69 621.17
00051336 00000046 583.87 124.83 437.75 693.37 699.51 390.14 918.74 362.35 839.44 506.50 754.65 645.37 940.42 621.91
00051337 00000047 584.07 124.96 437.57 692.62 700.32 389.79 918.50 362.00 840.53 505.94 756.00 645.35 939.78 621.76
00051338 00000048 584.92 130.89 436.98 685.56 700.47 389.54 918.67 361.66 841.42 505.46 756.95 645.10 939.88 621.55
00051339 00000049 583.58 126.87 438.49 684.39 700.03 389.20 918.64 361.38 842.22 505.82 758.33 644.91 938.93 621.53
00051340 00000050 585.35 128.51 436.10 678.70 700.17 389.34 918.14 361.45 842.28 505.08 759.13 644.74 938.13 621.45
00051341 00000051 584.93 125.32 435.49 679.19 700.56 389.08 917.87 361.26 842.19 504.60 761.16 644.82 937.16 621.29
00051342 00000052 583.43 126.73 436.24 675.36 699.45 388.81 917.39 360.65 842.93 503.69 763.94 646.49 936.62 622.83
00051343 00000053 583.37 124.44 434.34 676.86 699.84 388.53 917.87 360.33 842.85 503.24 764.77 647.39 935.52 623.81
00051344 00000054 583.05 126.61 433.18 676.95 699.12 387.61 918.12 358.84 843.17 503.09 765.63 648.01 936.68 623.81
00051345 00000055 581.52 125.44 434.30 678.35 698.37 387.92 918.07 358.72 842.98 503.52 765.06 648.21 936.68 623.63
00051346 00000056 580.04 120.71 435.34 681.34 697.74 387.85 918.34 359.31 841.12 503.63 762.82 647.57 935.87 623.33
00051347 00000057 579.92 123.58 434.58 680.23 696.60 388.10 917.39 358.93 839.01 504.25 761.89 648.33 935.29 623.63
00051348 00000058 581.45 115.87 440.64 692.21 695.60 394.95 915.41 360.83 834.33 505.33 761.81 650.20 931.73 622.02
00051349 00000059 579.71 119.64 441.34 690.27 694.24 395.35 914.75 359.33 834.04 505.71 762.12 652.20 932.31 622.37
00051350 DELETE   579.54 124.49 440.87 681.33 692.90 397.56 912.93 360.99 832.39 506.67 762.27 652.47 930.68 622.38
00051351 00000061 577.07 125.04 442.58 682.09 691.90 397.95 912.27 362.50 832.70 507.78 760.78 653.59 929.38 624.37
00051352 00000062 575.72 124.21 443.51 690.46 690.94 397.45 912.81 363.00 832.30 510.14 756.66 655.06 930.14 626.39
00051353 00000063 577.00 122.79 441.68 695.95 690.90 399.07 911.44 363.72 829.90 511.18 756.45 654.96 931.13 625.52
00051354 00000064 576.23 116.76 440.66 701.73 690.75 400.28 910.53 365.14 829.72 511.18 756.19 654.84 929.73 625.54
00051355 00000065 575.88 118.89 441.30 700.16 690.06 401.14 909.48 365.59 829.18 512.87 757.31 656.84 929.62 627.06
00051356 00000066 575.39 119.18 441.09 693.23 689.32 402.42 908.28 367.06 827.50 513.31 759.44 658.06 926.47 628.75
00051357 00000067 575.42 117.43 439.70 692.77 689.00 402.17 907.77 367.50 826.33 512.68 758.87 657.59 923.83 629.06
00051358 00000068 575.11 116.33 439.07 692.56 689.41 402.22 907.50 368.83 826.24 513.30 759.45 657.61 921.53 630.23
00051359 00000069 574.95 120.56 438.73 689.56 689.91 401.63 908.28 368.18 827.54 513.26 760.07 658.63 922.04 631.18
00051360 00000070 575.84 124.07 438.14 689.87 690.13 399.04 907.84 366.50 827.20 513.02 759.87 659.77 920.74 632.98
00051361 00000071 576.22 118.97 438.41 695.24 691.41 398.85 908.37 367.12 827.68 512.30 760.12 659.50 920.04 633.51
00051362 00000072 576.41 117.87 438.34 697.04 692.58 398.25 910.04 366.93 829.75 511.34 760.96 660.25 919.80 634.65
00051363 00000073 576.55 119.97 431.46 690.17 694.34 389.59 910.47 361.32 835.25 508.78 763.03 657.58 922.62 634.24
00051364 00000074 577.59 121.93 431.32 687.24 694.81 388.93 912.00 359.50 837.30 505.99 766.13 657.45 925.74 632.99
00051365 DELETE   577.89 119.28 431.78 694.29 696.94 387.87 912.78 359.52 837.73 504.52 766.92 657.57 926.81 633.50
00051366 00000076 579.99 121.60 431.45 693.25 698.32 388.26 914.31 360.43 838.63 504.68 766.02 656.52 928.67 633.16
00051367 00000077 580.99 117.37 431.87 695.52 698.66 389.62 916.54 360.22 841.81 506.59 764.12 655.73 931.91 631.22
00051368 00000078 578.73 119.71 436.23 695.24 697.66 387.59 918.74 359.14 843.81 507.96 761.25 655.54 933.28 631.63
00051369 00000079 581.17 124.68 434.51 690.30 698.98 387.77 919.15 360.11 843.39 506.98 761.14 653.97 934.42 630.84
00051370 00000080 581.75 127.50 435.42 686.26 699.66 387.81 919.65 360.46 844.48 507.26 761.55 653.05 935.36 630.16
00051371 00000081 583.31 126.14 434.54 685.58 700.43 388.45 920.01 360.67 844.67 507.00 761.49 651.76 936.82 628.38
00051372 00000082 582.67 127.64 436.86 688.68 700.54 387.72 920.90 359.44 847.07 507.03 761.05 652.63 938.87 628.80
00051373 00000083 582.16 128.44 437.95 687.60 700.84 388.40 920.97 359.78 847.90 508.04 763.35 653.82 938.74 629.68
00051374 00000084 585.37 130.71 435.55 681.96 701.28 388.03 920.96 358.76 847.66 507.05 765.04 653.09 937.83 628.66
00051375 00000085 584.11 124.90 436.80 690.94 702.52 389.86 920.02 359.87 848.37 508.49 767.58 654.76 938.46 629.51
00051376 00000086 586.61 131.38 434.47 676.07 702.01 390.56 918.67 358.94 848.36 508.03 771.19 654.65 937.29 628.32
00051377 00000087 587.54 135.18 433.47 671.33 702.05 390.79 919.19 359.94 848.09 507.54 770.58 654.89 936.05 629.39
00051378 00000088 585.77 137.68 435.95 671.07 701.27 392.12 919.21 361.11 849.61 509.71 769.51 656.40 936.03 630.99
00051379 00000089 584.65 140.97 438.13 671.34 700.02 393.20 919.29 361.40 848.06 511.68 768.19 658.34 935.85 632.27
00051380 00000090 585.13 137.00 437.78 674.30 700.35 393.43 918.95 361.83 847.35 512.00 768.78 659.20 934.67 633.08
00051381 00000091 584.19 139.37 439.30 674.81 699.47 394.62 917.44 362.05 846.23 513.51 769.62 661.04 933.79 634.28
00051382 00000092 581.50 135.39 441.72 678.33 698.89 395.28 917.07 363.27 846.66 513.99 769.31 661.04 933.71 634.66
00051383 00000093 584.10 134.60 439.34 679.87 699.75 395.40 917.08 362.53 845.00 512.63 770.42 661.70 933.56 634.69
00051384 00000094 583.67 132.84 440.45 689.68 700.47 396.10 916.71 362.90 844.04 512.77 770.56 663.80 933.66 636.43
00051385 00000095 583.06 132.72 440.13 695.64 700.46 395.25 916.04 362.71 843.03 512.47 771.04 666.57 933.45 639.34
00051386 00000096 582.96 138.46 440.25 688.66 697.99 396.35 915.26 361.91 841.81 511.28 770.88 668.88 934.77 639.96
00051387 DELETE   584.17 137.00 438.31 682.46 697.93 396.68 915.95 361.46 841.40 511.90 771.57 666.73 935.67 637.28
00051388 00000098 581.92 128.63 440.06 691.41 696.23 396.68 917.05 362.43 840.23 513.69 762.57 663.27 935.37 634.88
00051389 00000099 580.25 126.52 441.50 691.20 694.33 396.86 918.44 362.16 838.70 513.90 758.15 662.29 935.71 633.51
00051390 00000100 578.66 128.73 442.44 690.24 692.89 396.01 917.84 361.40 838.42 513.82 756.60 661.87 935.89 633.07
00051391 00000101 576.99 130.55 442.39 687.51 691.89 394.74 917.23 360.56 839.40 513.06 756.76 661.54 936.06 633.15
00051392 00000102 575.87 124.39 442.69 694.25 691.50 395.01 916.31 360.98 838.45 513.37 754.38 660.97 935.14 632.58
00051393 00000103 574.87 120.62 442.30 699.72 690.49 395.11 915.67 359.80 838.10 513.22 755.48 662.04 935.50 632.72
00051394 00000104 576.42 116.67 447.06 706.20 689.66 400.04 915.19 362.99 832.97 513.57 756.48 661.72 932.62 631.28
00051395 00000105 574.14 119.87 442.08 701.66 690.95 393.08 912.77 359.55 835.89 511.87 755.34 659.22 932.04 631.42
00051396 00000106 574.52 112.57 448.33 710.88 690.23 397.76 913.60 362.51 832.48 511.30 756.62 659.73 930.76 630.63
00051397 00000107 573.09 113.91 442.54 705.59 690.66 392.00 912.84 360.18 832.63 509.09 752.70 655.44 932.03 628.64
00051398 00000108 574.72 112.16 448.82 708.13 690.65 396.04 911.73 361.33 830.41 508.83 756.75 656.82 929.45 628.19
00051399 00000109 576.41 113.46 447.14 707.13 691.84 394.82 911.49 360.52 831.03 507.10 756.34 654.86 929.66 626.61
00051400 00000110 576.99 109.86 445.52 709.75 692.29 393.59 912.26 358.88 833.16 506.22 757.84 654.78 930.70 626.14
00051401 00000111 572.58 107.40 440.10 708.14 693.63 385.92 913.05 355.66 837.95 502.88 757.60 652.09 932.84 626.23
00051402 00000112 574.67 110.44 438.17 705.14 696.33 383.38 914.56 355.05 840.96 502.01 760.94 651.01 933.08 626.66
00051403 00000113 576.27 112.90 437.87 705.67 699.52 385.23 916.60 356.15 845.01 503.42 765.51 653.63 935.39 628.98
00051404 DELETE   576.84 121.00 438.88 700.13 701.25 385.07 917.65 355.91 847.95 504.11 769.94 655.00 937.28 630.24
00051405 00000115 578.13 122.28 440.99 701.56 704.00 386.01 919.72 356.85 851.02 503.48 772.19 655.80 940.27 631.21
00051406 00000116 576.44 123.39 444.83 702.69 706.33 387.77 921.72 358.40 855.36 505.42 775.50 656.91 943.77 632.16
00051407 00000117 577.49 128.86 447.06 692.17 708.37 388.21 924.14 358.27 858.49 508.40 780.25 655.95 946.64 630.72
00051408 00000118 580.23 131.79 447.74 686.27 710.36 389.65 926.62 357.90 861.32 508.77 785.15 656.16 951.33 629.27
00051409 00000119 581.72 132.28 449.93 685.51 712.45 390.84 930.89 358.98 866.25 509.98 788.09 656.46 955.91 629.25
00051410 00000120 582.40 124.99 450.61 693.37 715.26 391.15 932.60 359.38 869.61 512.65 789.22 655.76 959.10 628.39
00051411 00000121 582.14 135.80 453.05 684.87 714.28 391.27 935.04 358.71 872.96 514.74 788.02 656.43 962.38 628.42
00051412 00000122 581.87 126.69 454.66 696.39 716.21 393.27 937.90 361.18 875.51 515.57 786.02 655.74 965.50 628.18
00051413 00000123 581.98 131.26 455.50 695.67 716.73 393.22 938.76 360.42 878.21 515.21 782.08 654.36 966.97 626.41
00051414 00000124 580.99 118.63 457.15 708.30 719.44 394.77 939.19 361.83 880.42 516.56 781.37 652.03 968.46 623.55
00051415 00000125 582.26 121.80 456.12 703.66 719.63 395.38 940.12 360.22 882.28 515.81 778.51 648.68 970.71 618.52
00051416 00000126 581.69 119.21 457.20 704.57 719.91 394.93 939.76 360.53 881.89 514.95 776.22 645.42 969.91 615.92
00051417 00000127 582.23 119.78 455.86 704.45 719.04 395.25 939.15 359.96 880.93 513.79 771.87 643.39 970.62 613.37
00051418 00000128 580.49 124.00 456.09 699.52 718.00 394.75 936.51 357.37 880.96 511.66 769.60 641.54 970.27 610.05
00051419 00000129 580.97 123.81 452.78 699.02 717.79 393.30 935.13 357.19 879.75 511.45 766.16 638.31 968.35 608.15
00051420 00000130 582.50 125.26 450.94 698.17 717.59 392.66 933.89 356.68 877.65 511.35 761.97 635.85 966.62 605.83
00051421 00000131 582.35 121.49 450.65 702.59 716.91 391.93 931.79 357.70 874.57 510.88 758.07 633.46 964.31 605.04
00051422 00000132 582.11 118.94 450.61 704.99 715.12 391.58 929.93 358.34 869.66 510.21 753.96 631.06 963.38 603.66
00051423 00000133 582.27 124.29 449.90 697.16 714.20 391.00 929.12 358.34 868.04 510.12 752.52 628.07 962.84 601.52
00051424 00000134 583.61 120.99 447.88 697.25 713.77 390.53 928.11 358.37 864.98 509.54 751.22 625.86 962.06 599.55
00051425 00000135 583.65 117.80 447.10 700.08 712.67 389.57 927.87 357.70 862.79 508.69 750.69 624.64 963.17 598.16
00051426 00000136 583.17 124.03 447.17 693.30 711.99 389.63 926.35 356.92 861.66 508.42 749.86 623.87 962.61 596.82
00051427 00000137 583.49 123.00 446.79 692.81 711.32 389.76 925.82 357.26 860.28 507.50 748.84 622.89 962.32 595.94
00051428 00000138 583.04 123.97 446.67 691.73 710.59 390.15 926.07 357.62 859.10 507.80 747.41 622.53 961.93 595.75
00051429 00000139 582.58 127.95 446.77 687.54 709.38 390.26 925.04 356.34 858.66 507.66 747.06 622.60 961.87 594.78
00051430 00000140 583.30 128.52 445.21 686.65 708.25 390.59 925.26 356.19 857.34 509.99 745.22 623.44 961.58 595.29
00051431 00000141 583.88 127.21 443.06 687.64 707.53 390.77 925.38 356.55 856.06 509.38 743.63 622.82 961.18 594.96
00051432 00000142 591.86 137.51 437.54 683.88 710.20 394.54 926.79 358.29 849.10 509.54 743.43 624.03 957.20 590.49
00051433 00000143 590.33 135.44 438.77 689.67 709.24 395.49 925.11 358.83 848.10 509.93 741.56 625.14 955.52 591.26
00051434 00000144 590.01 139.22 437.43 689.69 707.97 395.65 922.70 357.93 846.67 509.96 739.76 626.29 954.02 591.56
00051435 00000145 589.18 139.28 436.45 689.98 706.09 395.06 921.27 359.62 843.67 511.18 736.68 626.75 950.93 593.83
00051436 00000146 589.63 138.52 433.82 690.06 704.40 395.74 919.16 359.39 842.07 511.66 735.36 627.38 950.19 593.66
00051437 00000147 589.16 139.08 432.40 689.31 702.21 396.73 917.89 360.29 839.48 513.57 731.70 628.17 948.59 594.34
00051438 00000148 588.78 136.33 433.75 693.22 700.81 397.26 917.33 360.89 838.04 515.61 730.56 629.67 946.67 596.00
00051439 00000149 588.00 128.92 431.59 700.33 698.77 398.03 914.08 361.13 836.26 514.92 727.82 629.77 943.77 595.47
00051440 00000150 586.37 128.51 431.90 702.77 696.36 398.92 911.95 362.03 832.45 516.22 727.18 631.38 942.20 596.84
00051441 00000151 585.11 131.50 430.74 697.39 692.96 399.74 910.00 363.02 832.42 516.50 725.41 633.03 938.98 598.79
00051442 00000152 577.27 108.94 434.46 714.24 689.11 398.35 912.37 364.86 828.24 514.54 727.23 629.92 941.06 601.24
00051443 00000153 576.26 131.06 435.03 689.93 689.13 401.90 908.94 368.40 826.99 522.18 720.25 633.62 930.49 605.38
00051444 00000154 574.97 133.84 434.21 689.35 685.04 402.74 905.82 367.08 824.05 523.03 718.02 635.76 929.54 605.75
00051445 00000155 573.81 137.53 431.77 682.89 681.91 404.89 902.91 369.03 820.09 524.20 716.57 636.37 927.93 606.04
00051446 00000156 572.10 142.14 431.43 677.51 680.05 404.12 901.33 370.36 816.73 526.92 716.68 638.41 925.31 609.50
00051447 00000157 570.89 140.36 430.60 678.77 678.16 405.56 900.17 371.42 814.69 528.96 715.93 639.93 924.01 610.57
00051448 00000158 568.80 140.50 430.67 679.31 676.57 407.60 898.88 372.30 813.66 532.00 712.10 640.41 922.08 610.29
00051449 00000159 568.43 134.22 429.67 684.42 675.55 409.54 899.36 373.50 814.32 532.62 711.89 643.07 920.76 613.01
00051450 00000160 567.54 137.05 431.33 683.23 674.42 411.40 897.89 374.77 814.03 533.79 709.98 644.41 919.46 613.56
00051451 00000161 568.81 145.25 430.29 675.30 675.43 411.01 899.07 373.82 814.97 538.05 710.53 646.59 918.89 615.11
00051452 00000162 567.62 142.56 433.06 678.10 674.82 412.34 898.48 375.02 815.03 539.89 710.28 647.64 918.94 616.16
00051453 00000163 568.57 143.29 431.73 677.13 674.15 412.96 898.44 375.16 814.41 541.90 709.93 648.86 918.75 617.09
00051454 00000164 567.52 136.89 434.00 681.99 674.85 414.48 899.17 377.85 814.81 543.51 710.28 649.48 918.53 618.67
00051455 00000165 569.01 142.64 432.97 676.14 675.64 413.52 900.07 377.23 814.64 544.84 712.46 651.12 918.57 620.51
00051456 00000166 569.33 140.54 434.06 678.40 676.15 415.01 900.67 378.94 815.27 546.39 714.76 653.82 918.85 623.27
00051457 00000167 570.21 140.36 433.69 679.34 677.33 414.58 903.02 379.92 816.79 547.36 716.02 654.87 920.11 625.39
00051458 00000168 569.42 136.80 436.29 683.19 678.37 415.42 904.04 380.19 819.33 547.15 719.58 655.80 922.10 625.69
00051459 00000169 568.79 137.09 438.62 679.06 679.12 416.42 905.67 380.22 823.11 547.27 722.53 657.03 923.04 626.44
00051460 00000170 571.17 136.22 437.37 682.03 681.55 416.51 907.67 381.06 824.76 548.06 722.34 656.59 923.81 626.43
