Video ID: 	pTQsoZ0STNE
H: 	1080
W: 	1920
FPS: 	25.0

FRAME INDEX X0 Y0 W H [Landmarks (5 Points)]

00008387 00000000 626.85 221.56 393.35 597.74 814.23 472.16 977.55 446.51 970.32 557.61 870.89 688.44 997.12 666.11
00008388 00000001 625.33 251.52 393.82 587.99 819.28 483.02 976.67 457.56 972.83 580.23 876.07 708.33 989.97 685.70
00008389 DELETE   617.29 260.25 398.83 592.47 803.82 497.98 967.53 469.98 951.20 598.46 856.84 719.17 975.13 693.89
00008390 DELETE   604.92 270.15 404.70 592.01 786.40 509.47 958.26 485.31 927.95 620.94 832.77 730.99 956.40 709.94
00008391 00000004 592.76 265.94 412.99 591.73 773.49 523.13 950.28 498.39 911.17 639.25 817.38 735.23 948.79 715.93
00008392 00000005 590.89 257.71 411.76 594.58 765.68 523.46 947.15 496.60 905.44 634.86 811.59 732.45 948.41 711.74
00008393 00000006 590.80 257.44 410.76 592.22 766.90 520.52 945.09 491.15 906.75 633.25 814.70 729.07 949.97 705.96
00008394 00000007 589.85 265.39 410.18 580.85 766.92 514.27 945.30 483.96 909.70 631.60 816.33 725.05 952.63 700.91
00008395 00000008 587.02 264.98 412.25 578.69 764.09 510.64 943.59 478.35 909.93 628.36 815.02 721.48 953.36 695.42
00008396 00000009 584.33 263.51 414.58 578.04 757.52 507.74 940.23 476.17 903.41 623.80 811.32 719.20 952.63 693.58
00008397 00000010 579.03 255.72 418.49 582.69 752.65 505.11 937.46 474.27 901.32 617.88 807.78 716.64 951.11 691.74
00008398 00000011 575.59 255.77 419.28 581.81 748.40 502.66 933.60 472.41 897.56 614.25 804.59 712.89 949.02 688.51
00008399 00000012 574.66 247.69 418.34 586.26 747.59 498.16 930.70 468.50 895.69 609.44 804.56 709.13 949.15 684.88
00008400 00000013 575.94 242.25 415.44 590.57 742.03 496.77 923.76 467.27 886.70 603.24 800.13 703.60 948.65 678.98
00008401 00000014 566.37 231.11 416.97 603.51 734.98 494.30 911.67 469.62 870.51 594.21 779.22 702.84 919.92 681.15
00008402 00000015 558.90 219.89 422.66 616.36 718.96 483.71 903.85 460.44 853.40 589.48 756.72 692.95 913.75 672.46
00008403 00000016 551.12 207.85 426.79 607.35 709.79 469.39 899.06 444.42 849.26 562.24 752.57 673.28 914.12 650.58
00008404 00000017 554.20 190.72 420.56 594.93 713.80 459.70 897.35 425.70 853.48 547.64 766.76 659.28 918.48 628.47
00008405 00000018 558.71 193.97 419.01 577.97 726.35 449.87 902.47 414.17 868.24 524.09 781.22 645.91 925.31 614.28
00008406 00000019 558.85 191.63 417.91 578.25 735.22 441.83 905.06 405.56 884.52 515.56 792.74 641.55 928.36 609.76
00008407 00000020 553.82 186.04 418.73 579.13 730.62 437.19 901.95 403.22 877.11 509.21 789.90 636.69 924.24 605.84
00008408 00000021 547.10 175.35 419.80 578.98 710.15 433.46 891.75 407.84 848.83 513.10 771.86 630.94 914.71 607.95
00008409 00000022 535.05 172.02 426.67 582.41 692.08 429.63 876.18 403.20 830.43 506.79 754.99 627.55 902.15 604.84
00008410 00000023 529.25 168.23 428.63 589.21 684.08 429.13 866.93 400.02 821.24 506.50 747.91 628.09 894.96 603.53
00008411 00000024 530.31 168.26 428.58 590.55 686.98 430.34 867.48 400.96 823.47 508.25 751.34 629.61 896.36 604.72
00008412 00000025 534.29 173.66 429.14 588.35 696.98 434.92 872.95 403.82 833.75 513.21 761.26 634.16 901.34 607.65
00008413 00000026 542.22 180.25 424.73 588.10 710.04 442.46 881.61 403.95 849.39 517.71 772.67 646.41 905.69 611.24
00008414 00000027 549.46 189.72 420.63 585.94 720.50 449.40 894.02 413.41 859.85 527.77 780.72 656.02 911.63 623.09
00008415 00000028 562.52 200.89 411.61 591.12 735.51 461.81 909.40 429.16 879.35 542.98 791.67 668.56 927.42 639.56
00008416 00000029 568.47 209.57 415.83 609.43 749.28 479.84 915.50 443.91 895.59 560.20 804.48 688.68 936.83 657.47
00008417 00000030 579.35 218.45 415.39 611.87 758.94 487.88 922.32 454.41 902.38 581.99 817.77 696.45 950.80 667.91
00008418 00000031 582.23 228.22 416.08 603.98 763.30 495.31 926.76 460.24 907.95 590.81 823.16 703.88 954.91 674.35
00008419 00000032 581.29 234.78 417.88 601.21 758.98 507.69 927.61 467.99 902.94 606.57 819.45 712.84 955.59 679.42
00008420 00000033 582.62 247.81 415.56 599.56 757.38 517.77 933.64 482.73 899.77 623.87 811.60 723.08 952.52 694.45
00008421 00000034 587.62 254.11 414.92 604.24 756.12 534.18 936.93 501.30 896.17 636.51 808.78 734.17 950.50 707.78
00008422 00000035 588.06 262.23 419.21 608.81 754.55 541.38 938.40 505.16 896.25 646.33 809.89 743.82 950.47 715.08
00008423 00000036 587.24 262.15 419.77 608.61 751.14 539.96 937.29 505.01 893.51 644.30 807.57 743.10 949.79 715.43
00008424 00000037 587.96 256.33 416.81 604.55 750.51 534.61 935.08 500.82 891.89 638.12 805.98 736.94 948.82 710.01
00008425 00000038 585.12 251.56 416.99 601.98 746.72 528.26 932.84 493.92 890.49 632.46 804.76 732.18 949.67 704.60
00008426 00000039 578.72 250.98 418.40 599.89 743.08 521.83 927.06 488.19 887.00 628.08 803.94 728.52 945.97 701.42
00008427 00000040 578.39 249.30 415.70 603.05 741.42 518.98 922.27 484.48 885.31 624.95 801.53 725.80 945.70 697.81
00008428 00000041 572.22 244.93 412.43 602.52 737.05 515.85 918.49 479.77 876.83 624.08 790.50 732.95 928.01 701.64
00008429 00000042 566.22 234.20 418.15 600.70 728.10 508.66 912.37 471.43 866.55 612.98 786.28 723.53 924.38 691.36
00008430 00000043 558.85 227.68 423.76 602.28 721.72 499.99 903.03 465.12 856.58 601.67 785.49 716.32 918.61 685.19
00008431 00000044 554.23 220.41 425.88 602.23 716.18 490.92 898.20 458.54 851.90 586.10 781.90 705.09 917.86 675.75
00008432 00000045 550.48 212.62 424.69 604.71 710.26 477.93 896.51 448.26 848.77 571.80 773.37 695.14 914.36 667.59
00008433 00000046 546.22 207.96 425.24 602.86 701.77 469.85 882.86 436.36 837.70 555.03 769.63 684.90 905.25 654.02
00008434 00000047 545.42 202.31 425.30 606.95 694.68 466.77 877.36 429.66 831.16 550.42 765.50 681.70 903.47 647.84
00008435 00000048 539.85 203.88 430.73 597.16 687.49 460.07 873.99 424.38 823.63 542.65 758.91 675.96 897.60 643.39
00008436 00000049 533.97 203.58 431.89 592.37 683.85 458.02 866.46 420.89 819.85 537.29 753.91 670.13 892.36 636.74
00008437 00000050 528.82 202.83 434.15 587.43 680.04 456.14 860.74 418.29 814.95 534.62 749.34 665.75 888.04 631.98
00008438 00000051 519.52 194.71 436.30 583.22 669.53 451.27 852.98 416.09 801.04 541.09 739.04 656.12 878.51 627.48
00008439 00000052 516.97 190.73 437.18 583.60 666.17 445.95 849.81 409.75 798.56 534.21 737.62 651.52 878.22 621.92
00008440 00000053 514.44 188.92 438.94 583.56 662.75 441.33 846.03 404.51 795.32 528.61 736.71 649.18 876.25 619.23
00008441 00000054 513.37 187.74 438.89 582.45 660.14 439.04 844.41 401.63 793.23 523.42 735.68 647.20 876.34 616.62
00008442 00000055 513.15 185.19 438.84 583.62 659.45 437.49 841.54 400.62 790.62 519.25 735.71 644.93 874.82 614.75
00008443 00000056 512.16 185.31 438.45 583.43 658.44 438.16 840.11 400.00 790.55 516.84 736.57 645.06 875.39 613.85
00008444 00000057 511.82 185.16 437.81 582.55 658.54 437.23 839.74 399.41 790.40 515.67 736.38 643.50 875.33 612.46
00008445 00000058 511.85 185.51 438.28 583.55 658.37 437.36 839.21 399.03 790.67 514.71 737.12 644.54 875.53 613.05
00008446 00000059 511.79 185.31 438.68 583.07 658.69 437.01 839.81 398.00 791.49 513.54 737.56 644.40 875.90 612.43
00008447 00000060 512.41 184.60 438.45 584.27 659.53 437.66 840.65 398.64 792.35 514.38 738.58 645.75 876.20 613.84
00008448 00000061 512.87 184.05 437.71 581.70 660.70 436.92 843.22 398.45 794.82 516.81 739.01 644.75 878.06 613.24
00008449 00000062 512.87 183.17 437.82 580.59 660.78 437.83 846.38 398.53 797.58 519.50 737.00 643.63 881.93 611.04
00008450 00000063 513.60 183.52 437.27 578.38 661.52 438.32 847.50 398.39 799.92 519.98 738.29 642.70 885.05 609.41
00008451 00000064 513.75 183.50 437.85 579.64 661.77 437.73 848.71 397.87 800.98 520.95 738.07 642.57 886.04 609.31
00008452 00000065 517.35 180.53 434.99 583.72 665.40 440.17 852.05 399.15 805.25 521.20 740.17 643.30 889.60 609.12
00008453 00000066 517.39 180.53 435.61 591.39 666.91 442.97 854.13 398.10 810.45 523.32 742.28 647.31 894.43 609.80
00008454 00000067 518.50 180.33 434.68 593.45 672.38 444.75 854.36 401.12 814.04 526.11 746.68 648.06 891.95 611.89
00008455 00000068 528.29 186.06 429.72 596.53 686.71 447.25 858.98 398.20 828.62 515.22 765.05 655.43 895.63 611.60
00008456 00000069 525.70 183.21 428.38 588.68 683.75 448.74 859.05 406.23 823.49 528.86 760.55 652.75 892.96 617.69
00008457 00000070 526.31 185.10 426.54 587.76 683.58 449.91 858.85 407.37 823.08 532.31 760.24 654.52 891.83 619.37
00008458 00000071 525.37 186.36 427.42 585.56 682.82 451.27 858.49 409.59 821.92 532.40 758.17 653.87 890.91 619.43
00008459 00000072 525.28 188.95 426.10 582.60 681.19 453.24 857.41 410.58 820.21 534.36 756.37 654.41 890.59 619.12
00008460 00000073 523.51 188.55 428.10 584.13 678.92 453.69 857.53 412.83 817.62 536.12 752.68 655.06 889.34 621.25
00008461 00000074 522.63 187.97 428.79 584.96 677.13 455.46 855.97 412.96 816.14 537.46 752.53 657.11 889.04 622.02
00008462 00000075 520.38 191.09 430.87 585.32 673.46 460.07 853.09 416.62 811.21 539.97 748.54 660.14 886.37 624.37
00008463 00000076 521.94 197.84 433.58 593.77 673.61 460.71 850.23 416.38 811.39 531.23 750.94 668.13 887.23 629.20
00008464 00000077 520.23 195.89 436.94 605.33 668.07 463.75 845.38 417.00 804.52 541.20 743.94 675.28 883.75 635.17
00008465 00000078 515.87 200.29 439.21 602.90 661.69 467.24 842.56 423.68 797.42 545.78 736.56 678.94 878.87 641.59
00008466 00000079 513.23 195.75 440.77 604.27 657.53 471.86 842.30 427.54 789.70 556.02 733.31 673.61 877.02 637.68
00008467 00000080 512.65 194.88 441.68 606.34 658.61 472.54 843.61 428.01 791.48 557.61 734.69 674.66 878.35 638.45
00008468 00000081 514.19 200.82 441.16 605.89 660.46 470.01 844.72 427.18 797.06 551.86 734.93 680.72 880.65 643.82
00008469 00000082 514.33 202.19 441.18 609.50 661.20 468.29 843.91 426.00 797.41 549.62 737.45 681.76 880.02 645.21
00008470 00000083 516.76 205.78 442.12 609.21 661.65 464.62 842.41 421.48 797.34 543.76 739.65 681.44 878.97 644.26
00008471 00000084 519.57 200.55 440.90 604.28 665.74 460.16 844.47 415.05 800.57 534.61 741.12 672.34 880.44 633.57
00008472 00000085 514.07 190.20 441.31 589.00 660.85 456.44 843.72 415.06 791.49 535.11 733.62 655.35 876.72 621.72
00008473 00000086 511.80 186.26 438.73 586.81 659.01 448.20 841.07 407.17 790.69 531.81 732.01 648.60 875.35 615.04
00008474 00000087 509.75 185.31 436.99 587.98 656.23 444.97 839.12 403.97 788.40 528.76 730.59 648.48 873.45 614.92
00008475 00000088 507.56 185.69 436.56 588.27 654.69 444.63 838.84 403.33 788.76 527.24 729.73 648.89 873.96 615.10
00008476 00000089 508.10 188.04 436.18 585.54 654.92 444.08 839.29 404.29 788.11 525.36 730.94 649.05 873.03 616.52
00008477 00000090 508.45 186.85 436.91 585.07 655.58 443.24 839.37 403.50 788.59 525.33 731.44 648.03 873.65 615.48
00008478 00000091 509.89 187.01 435.69 586.66 657.06 445.62 840.62 405.57 790.23 528.79 731.03 649.00 874.58 616.23
00008479 00000092 509.64 191.51 436.06 583.32 657.42 447.43 840.92 408.39 790.36 531.30 730.22 649.85 873.15 618.11
00008480 00000093 509.66 191.93 436.10 583.51 657.93 447.94 840.08 409.51 789.96 530.71 730.92 650.18 872.11 619.01
00008481 00000094 509.54 192.44 436.32 582.78 658.21 448.28 840.51 410.01 790.36 532.21 730.69 650.35 872.06 619.38
00008482 00000095 510.82 193.93 436.10 582.41 658.82 451.23 841.51 411.86 791.22 533.77 730.79 652.11 873.26 620.32
00008483 00000096 511.66 194.94 436.47 582.96 660.65 453.28 843.09 413.86 793.03 534.97 732.88 654.05 873.42 622.33
00008484 00000097 511.03 195.80 438.26 586.04 660.35 456.18 844.03 417.37 792.65 537.54 732.59 657.04 873.36 625.77
00008485 00000098 511.67 193.88 438.89 589.39 661.04 459.12 844.51 419.78 792.83 539.90 733.77 659.99 873.85 628.38
00008486 00000099 511.03 195.51 439.67 593.14 659.97 461.48 842.69 420.19 792.30 541.64 734.33 663.23 874.64 629.91
00008487 00000100 511.73 195.09 438.41 594.56 659.61 462.14 841.62 420.71 791.30 542.93 733.69 664.13 873.85 630.83
00008488 00000101 516.14 201.89 436.81 590.23 665.14 460.61 843.71 418.69 800.56 535.52 736.91 670.42 876.22 634.50
00008489 00000102 511.62 196.21 438.88 592.69 660.13 462.00 842.25 420.57 792.20 542.40 734.03 663.79 874.07 630.46
00008490 00000103 511.69 196.79 439.61 594.20 660.03 462.14 843.00 420.34 792.86 543.64 734.52 665.21 875.01 631.62
00008491 00000104 517.95 202.71 435.79 593.52 665.13 460.11 845.97 418.24 801.36 538.33 737.12 673.51 877.94 637.64
00008492 00000105 517.78 202.97 435.82 596.76 664.09 461.06 845.56 417.87 801.76 539.97 736.54 674.95 879.53 637.97
00008493 00000106 518.44 203.69 435.04 595.76 664.43 461.78 845.44 418.72 801.57 539.50 737.58 675.17 879.95 638.36
00008494 00000107 518.08 204.14 435.83 595.72 664.50 461.75 845.32 418.52 801.47 539.08 737.90 675.24 879.93 638.18
00008495 00000108 518.53 203.54 436.06 597.24 664.40 461.83 845.01 418.06 801.29 539.00 738.07 675.11 880.63 637.53
00008496 00000109 519.21 202.86 436.17 596.86 664.90 461.71 845.44 418.09 801.36 538.76 738.48 674.65 880.72 637.25
00008497 00000110 519.61 201.71 436.47 597.22 665.88 461.25 845.95 418.06 801.96 537.16 739.66 673.71 880.84 636.51
00008498 00000111 520.25 200.57 435.91 596.69 666.86 459.98 846.67 417.54 802.45 535.36 740.50 672.53 880.27 635.66
00008499 00000112 514.42 194.39 439.45 598.41 662.85 461.48 846.33 420.59 795.09 543.11 736.66 666.14 877.33 632.98
00008500 00000113 513.92 195.63 440.29 593.62 661.21 459.07 845.62 419.08 792.34 543.65 734.45 664.11 875.09 631.81
00008501 00000114 513.21 195.58 440.52 591.66 661.41 457.88 844.88 418.98 791.75 542.70 733.96 661.76 873.33 630.43
00008502 00000115 513.47 195.17 439.58 585.88 659.70 453.59 844.61 415.77 789.12 538.84 730.54 657.05 871.70 626.74
00008503 00000116 512.04 190.90 439.88 580.16 658.57 446.79 844.34 408.13 790.60 533.77 731.10 650.50 873.73 618.93
00008504 00000117 515.38 181.87 438.60 581.36 659.47 439.25 842.45 401.44 789.55 518.80 734.22 642.06 875.99 611.20
00008505 00000118 517.79 174.29 440.65 587.28 664.51 434.24 844.08 394.40 795.64 504.12 738.95 634.63 880.75 602.16
00008506 00000119 522.08 173.54 436.51 588.55 672.03 424.01 849.66 390.12 803.62 495.36 742.73 627.71 883.87 599.72
00008507 00000120 520.54 173.22 434.87 589.36 670.24 424.43 848.35 389.86 802.29 502.12 740.77 630.12 882.37 601.61
00008508 00000121 512.96 176.89 440.41 594.24 659.71 435.63 839.61 399.27 789.25 515.87 729.22 639.51 875.08 609.75
00008509 00000122 508.84 181.87 442.42 595.71 654.18 437.93 841.68 402.67 786.97 526.79 721.93 645.33 874.21 616.38
00008510 00000123 510.95 182.48 440.62 595.19 656.79 438.90 845.04 403.13 791.92 528.25 723.04 644.48 878.85 614.95
00008511 00000124 515.27 182.17 438.72 589.99 664.02 438.53 850.95 404.56 798.94 522.76 730.54 643.40 880.39 615.52
00008512 00000125 516.31 179.49 439.21 599.91 665.72 436.62 845.50 405.63 794.66 520.48 732.25 646.73 872.48 621.81
00008513 00000126 513.19 180.10 443.29 607.52 660.39 433.51 840.75 405.47 786.17 521.62 726.64 649.89 866.64 627.34
00008514 00000127 513.78 181.22 442.64 602.20 659.54 436.23 842.94 406.85 786.72 527.11 724.80 649.33 868.72 625.58
00008515 00000128 517.81 185.22 439.51 596.54 667.93 439.65 852.09 412.40 797.44 531.96 729.97 649.05 873.84 627.11
00008516 00000129 527.94 193.41 437.18 593.03 678.27 444.27 861.86 411.28 812.60 527.33 742.16 655.86 886.78 625.75
00008517 00000130 525.71 188.47 437.95 584.69 671.30 443.46 860.79 415.23 801.74 538.00 731.58 647.67 881.95 624.28
00008518 00000131 528.86 184.25 440.59 589.64 675.10 444.58 866.53 416.49 806.23 541.12 730.95 646.69 885.03 623.07
00008519 00000132 547.72 187.38 434.13 597.65 693.44 443.66 883.23 414.90 826.16 535.19 745.63 652.20 900.19 625.44
00008520 00000133 556.38 190.68 430.63 596.60 708.74 443.27 891.08 414.11 840.73 525.44 763.34 655.47 905.84 628.19
00008521 00000134 561.51 189.95 426.93 596.42 711.53 444.97 895.72 417.66 843.35 531.10 764.94 658.73 907.03 633.20
00008522 00000135 561.38 194.71 427.99 596.17 710.46 447.16 895.74 420.41 843.74 533.22 764.27 661.69 908.35 636.81
00008523 00000136 562.12 198.48 425.92 592.05 714.05 448.29 898.36 423.43 845.31 536.90 766.51 661.28 909.46 638.01
00008524 00000137 567.92 197.01 417.67 587.93 720.81 447.80 907.25 424.40 856.27 538.37 769.88 659.97 916.45 638.49
00008525 00000138 571.25 194.13 417.21 589.20 723.35 449.29 911.88 423.47 862.16 538.93 772.70 659.21 923.35 635.87
00008526 00000139 569.39 193.67 420.12 587.95 720.98 446.50 910.24 422.47 858.52 537.45 768.92 657.11 920.28 635.16
00008527 00000140 573.79 193.29 417.72 583.97 725.15 444.81 914.45 421.36 862.29 534.46 771.66 654.54 922.23 633.12
00008528 00000141 578.65 197.21 417.19 584.40 733.45 447.23 919.83 422.28 871.98 533.21 780.26 654.73 930.20 632.07
00008529 00000142 579.89 191.57 420.88 599.58 739.83 446.20 924.77 427.01 878.00 542.25 791.89 651.08 943.06 635.91
00008530 00000143 583.31 191.75 416.06 599.85 742.49 457.94 925.97 436.48 878.85 549.10 791.73 654.54 942.02 637.56
00008531 00000144 584.90 197.71 413.99 605.78 743.02 466.93 927.11 445.26 883.51 552.92 785.41 670.95 934.55 651.96
00008532 00000145 584.72 196.27 416.26 617.13 740.08 468.16 919.20 449.37 877.23 558.15 792.98 674.28 938.27 657.78
00008533 00000146 582.79 202.13 420.43 614.27 740.42 473.74 920.98 451.42 878.07 566.14 796.09 677.26 944.81 657.71
00008534 00000147 581.77 204.11 422.10 613.08 740.38 482.98 920.63 453.73 880.36 572.61 799.41 681.40 950.04 656.23
00008535 00000148 579.92 207.17 421.97 614.79 737.98 491.14 917.05 456.23 878.01 575.32 800.16 689.18 948.05 659.68
00008536 00000149 577.48 209.30 424.32 620.65 733.60 497.54 912.43 457.90 872.43 576.88 799.66 697.94 947.27 664.58
00008537 00000150 573.92 207.16 422.37 623.47 730.21 504.08 910.37 462.53 869.49 581.16 796.48 701.73 946.39 667.30
00008538 00000151 563.71 212.15 422.43 619.33 726.72 511.55 910.26 470.10 867.32 593.61 789.54 714.33 933.00 678.25
00008539 00000152 557.39 213.43 424.94 620.55 722.33 515.76 904.51 472.04 864.11 599.69 786.53 719.68 925.90 682.06
00008540 00000153 555.00 215.18 426.53 617.41 719.14 517.86 900.76 473.37 860.54 599.01 784.06 718.60 924.36 680.40
00008541 00000154 550.86 214.55 426.78 618.55 714.39 519.33 894.84 471.96 855.66 601.48 779.05 718.91 919.95 678.37
00008542 00000155 548.30 218.35 426.24 617.65 711.40 520.69 889.34 473.92 850.97 603.71 776.76 722.19 914.10 682.36
00008543 00000156 546.75 220.63 425.86 616.05 708.50 521.71 885.89 474.62 846.66 606.52 774.24 724.62 909.59 684.74
00008544 00000157 547.57 221.48 424.34 613.88 708.99 523.15 885.57 476.52 845.57 610.11 774.22 724.87 908.69 685.29
00008545 00000158 548.36 227.01 424.31 606.78 708.60 523.98 885.61 476.50 845.49 610.58 774.16 724.67 909.07 684.45
00008546 00000159 548.40 225.50 425.90 609.62 707.95 525.12 886.45 475.30 846.41 610.84 772.08 723.62 911.54 681.47
00008547 00000160 548.91 226.32 426.68 605.59 708.96 523.75 888.57 475.13 848.58 608.08 773.60 721.18 913.48 679.92
00008548 00000161 551.07 224.55 425.03 608.39 709.59 523.12 889.89 475.15 848.84 607.63 773.42 722.11 913.51 681.40
00008549 00000162 552.96 222.66 422.34 609.98 710.88 521.70 890.48 476.35 848.15 607.24 774.71 723.05 912.21 684.47
00008550 00000163 552.64 219.48 422.11 615.10 711.77 521.48 891.18 476.48 848.89 607.63 774.13 724.01 911.27 685.70
00008551 00000164 551.53 221.76 423.41 611.89 710.32 521.80 890.73 477.58 847.64 607.84 772.94 723.17 911.52 685.49
00008552 00000165 548.18 219.52 424.73 613.88 709.93 521.34 888.22 477.47 846.98 606.87 772.64 722.52 908.81 685.06
00008553 00000166 546.93 220.45 424.49 612.52 708.92 517.60 887.33 474.35 846.35 604.51 771.45 720.24 908.32 683.20
00008554 00000167 546.94 218.57 426.17 612.47 708.86 513.28 890.31 472.10 846.94 600.34 772.04 718.06 910.02 682.56
00008555 00000168 548.14 214.08 425.98 615.52 713.81 505.69 892.52 467.28 850.77 592.32 778.17 714.88 910.79 681.36
00008556 00000169 552.24 215.17 423.73 608.82 718.35 500.37 897.15 462.74 857.03 580.88 782.80 705.17 918.73 672.22
00008557 00000170 557.83 205.79 420.61 607.64 721.23 488.09 902.34 447.39 864.14 568.36 789.51 696.07 929.39 660.12
