Video ID: 	l-00Pn3UHno
H: 	1080
W: 	1920
FPS: 	23.976023976023978

FRAME INDEX X0 Y0 W H [Landmarks (5 Points)]

00038056 00000000 776.94 188.63 381.38 546.96 908.95 399.96 1082.11 396.71 1027.50 481.04 943.47 594.32 1086.52 592.08
00038057 00000001 781.37 188.02 380.83 542.66 911.02 397.64 1084.55 395.26 1028.56 479.12 945.10 590.44 1088.74 588.93
00038058 00000002 786.03 188.34 380.06 540.29 914.44 396.47 1089.85 397.00 1031.32 477.57 946.76 588.31 1091.69 589.05
00038059 00000003 790.36 189.87 381.10 537.79 918.56 398.11 1092.81 398.53 1033.64 480.02 948.81 588.47 1094.00 589.46
00038060 00000004 800.52 196.28 376.88 531.32 926.20 404.14 1100.91 406.21 1039.45 485.78 951.16 591.72 1098.13 594.43
00038061 00000005 804.14 200.35 376.76 530.81 930.58 406.56 1106.08 410.04 1042.92 488.00 953.58 594.03 1100.65 597.83
00038062 00000006 809.13 200.71 376.91 531.21 935.43 409.77 1109.62 413.74 1045.07 493.02 958.88 596.85 1102.33 601.08
00038063 00000007 813.70 202.31 376.90 532.48 938.63 413.26 1112.67 416.86 1047.72 496.87 962.54 600.94 1105.30 604.90
00038064 00000008 819.30 210.39 380.25 534.27 944.86 420.93 1120.30 424.23 1055.92 509.25 970.67 609.86 1114.80 612.96
00038065 00000009 822.25 219.37 380.78 527.58 941.20 425.33 1119.38 422.56 1058.41 512.48 967.47 617.42 1115.08 614.83
00038066 00000010 825.83 223.23 380.30 526.93 944.17 428.23 1121.19 424.69 1061.24 515.90 971.46 621.45 1117.21 618.54
00038067 00000011 827.27 224.93 381.16 529.03 947.22 432.01 1124.35 428.91 1063.82 519.92 973.75 624.65 1120.78 622.08
00038068 00000012 830.72 229.97 381.70 527.43 952.29 435.09 1129.93 430.86 1069.61 521.35 980.07 629.25 1127.58 625.72
00038069 00000013 832.04 230.28 383.08 532.95 954.99 435.22 1131.90 432.30 1071.55 520.93 982.11 631.45 1129.63 629.13
00038070 00000014 830.65 232.47 391.12 544.10 961.50 434.42 1135.98 433.40 1074.87 524.60 990.47 633.86 1128.73 633.10
00038071 00000015 831.27 233.31 392.31 551.96 963.23 436.43 1137.72 437.05 1076.81 525.58 994.11 639.12 1131.09 639.74
00038072 00000016 836.55 230.43 390.51 572.87 969.92 442.02 1144.15 444.83 1086.20 533.35 1001.10 655.06 1135.91 657.43
00038073 00000017 838.76 229.72 391.12 579.19 974.02 443.62 1147.91 447.39 1090.60 535.54 1004.35 660.29 1135.91 663.48
00038074 00000018 838.27 228.26 392.76 588.34 974.54 445.57 1148.61 450.25 1092.21 537.83 1003.17 661.97 1138.86 665.53
00038075 DELETE   836.35 226.83 394.64 595.30 975.48 453.54 1148.79 458.32 1093.24 540.51 1002.46 664.42 1143.15 667.90
00038076 DELETE   834.66 229.93 395.77 594.92 969.74 458.40 1146.99 463.67 1087.76 546.55 993.87 666.40 1142.24 670.43
00038077 00000021 833.99 230.76 394.28 593.02 966.51 458.83 1144.75 464.97 1085.23 546.16 990.12 666.74 1139.26 671.73
00038078 00000022 833.87 231.83 393.96 591.15 966.00 457.42 1144.22 464.82 1084.04 547.97 988.98 666.92 1137.47 673.01
00038079 00000023 833.61 231.98 393.93 588.36 966.25 456.97 1142.39 464.93 1082.48 548.98 987.60 666.47 1133.02 673.20
00038080 00000024 831.80 233.86 394.99 581.79 965.16 454.20 1142.74 462.81 1080.42 549.01 986.16 664.71 1129.21 672.05
00038081 00000025 829.56 232.51 397.15 582.60 963.34 451.13 1140.76 459.99 1077.21 548.27 985.67 664.83 1121.13 672.71
00038082 00000026 828.95 234.40 397.31 577.85 964.03 450.37 1141.38 458.43 1077.58 548.19 988.39 664.54 1118.26 671.93
00038083 00000027 829.17 236.60 397.71 571.72 964.39 450.54 1142.89 458.43 1078.00 550.91 989.90 662.92 1122.46 669.85
00038084 00000028 828.07 237.55 396.93 569.65 960.76 449.25 1139.59 458.51 1071.71 552.49 982.93 658.97 1118.48 666.95
00038085 00000029 825.83 236.39 397.26 570.49 958.63 447.78 1135.73 457.82 1068.27 551.45 979.17 656.70 1112.02 665.59
00038086 00000030 824.69 236.56 397.24 568.04 955.65 446.52 1133.13 456.14 1064.31 551.67 975.61 655.73 1106.86 664.43
00038087 00000031 822.96 235.44 397.30 565.41 952.40 445.94 1130.38 455.36 1060.37 552.15 972.65 653.55 1103.74 662.09
00038088 00000032 817.63 235.70 394.90 557.51 947.61 448.49 1121.76 451.27 1059.45 550.55 970.81 655.06 1104.11 657.83
00038089 00000033 815.01 233.99 393.42 558.36 945.49 446.14 1117.20 449.51 1056.13 546.29 969.93 655.74 1095.18 659.50
00038090 00000034 811.19 230.48 393.01 565.87 944.78 443.05 1113.29 446.76 1054.27 540.57 968.70 656.74 1086.96 661.17
00038091 00000035 809.29 231.08 392.57 558.63 941.72 439.34 1109.40 442.66 1049.66 535.21 965.57 652.02 1082.92 656.24
00038092 00000036 807.06 223.10 394.06 557.49 936.38 434.35 1106.14 435.40 1045.40 528.22 961.60 644.00 1085.43 645.20
00038093 00000037 807.69 220.74 392.87 551.90 933.00 434.17 1107.10 435.46 1042.91 530.45 958.01 641.91 1087.73 643.20
00038094 00000038 810.64 217.88 388.01 547.15 932.67 433.59 1107.98 434.18 1042.24 529.57 957.92 638.04 1090.41 639.32
00038095 00000039 811.30 216.44 386.55 545.60 932.31 432.62 1108.75 433.87 1041.19 527.47 954.90 634.58 1091.27 636.65
00038096 00000040 812.62 211.94 382.73 547.04 927.93 429.21 1108.83 427.84 1038.26 522.98 951.24 631.06 1094.11 630.79
00038097 00000041 812.49 213.56 381.00 554.81 927.98 427.19 1106.07 426.24 1038.06 519.22 950.03 629.26 1094.83 628.81
00038098 DELETE   813.89 214.49 379.97 557.92 932.58 428.61 1110.75 430.05 1042.04 514.47 947.55 625.08 1099.28 627.26
00038099 DELETE   819.53 215.04 377.88 552.67 938.43 428.63 1116.41 430.31 1048.35 515.40 952.09 623.37 1103.60 625.70
00038100 DELETE   824.05 201.92 387.03 550.96 959.52 419.89 1141.45 430.51 1071.75 508.34 978.38 611.30 1126.04 621.03
00038101 00000045 826.98 193.80 387.04 553.71 966.64 413.40 1144.43 424.09 1081.34 499.18 989.02 608.90 1128.03 618.48
00038102 00000046 828.57 188.27 386.24 554.52 969.15 409.19 1143.34 420.01 1082.58 495.99 993.61 605.95 1127.54 615.57
00038103 00000047 828.79 186.68 388.05 549.77 967.91 405.76 1145.94 417.05 1080.81 493.38 993.13 602.10 1129.69 611.95
00038104 00000048 832.00 186.62 388.26 546.32 969.84 401.87 1148.88 416.60 1080.49 489.96 990.72 590.54 1135.05 602.75
00038105 00000049 834.61 186.18 388.51 547.65 971.69 399.92 1151.54 414.07 1083.08 487.68 992.95 588.88 1139.64 600.34
00038106 00000050 836.90 185.08 389.08 553.37 975.64 398.83 1152.80 410.77 1087.28 487.28 998.62 593.44 1138.81 603.23
00038107 00000051 840.58 186.51 387.47 553.91 980.08 399.81 1151.41 411.79 1088.70 485.97 1001.66 596.38 1132.74 606.73
00038108 00000052 849.84 189.82 381.67 555.00 988.53 403.43 1154.21 415.67 1093.82 482.00 1006.42 601.59 1131.57 612.81
00038109 00000053 851.44 191.06 382.62 555.30 990.61 402.67 1159.43 416.96 1096.75 482.93 1005.24 601.55 1135.37 614.62
00038110 00000054 854.01 192.08 383.71 553.99 992.84 403.11 1164.14 418.66 1099.04 484.62 1006.83 601.43 1140.27 615.61
00038111 00000055 865.25 196.52 381.71 546.51 999.75 405.44 1174.67 424.13 1104.43 489.85 1007.99 599.66 1147.33 616.80
00038112 00000056 870.44 199.19 379.98 545.75 1003.62 407.46 1179.13 425.27 1109.43 491.77 1012.14 599.12 1154.87 615.42
00038113 00000057 873.56 203.28 378.91 543.05 1006.29 409.34 1183.20 428.50 1112.71 492.52 1014.54 600.53 1158.17 617.98
00038114 00000058 875.02 206.60 379.84 542.11 1007.99 411.56 1185.68 431.12 1114.08 495.84 1015.04 602.71 1159.22 620.43
00038115 00000059 875.22 212.94 379.99 540.34 1007.95 411.58 1188.35 432.98 1122.78 491.93 1015.62 608.50 1162.26 626.75
00038116 00000060 875.69 213.89 382.59 538.59 1010.20 410.14 1191.18 432.37 1124.67 492.89 1016.61 608.00 1163.47 626.64
00038117 00000061 877.65 215.81 381.15 536.37 1013.21 408.13 1192.53 432.16 1127.60 486.66 1017.92 604.28 1164.79 624.67
00038118 00000062 877.60 215.23 380.57 535.67 1015.45 406.45 1193.40 431.93 1132.99 480.91 1021.27 601.70 1167.47 623.37
00038119 00000063 877.18 214.49 381.06 538.29 1017.19 407.01 1194.78 433.60 1138.65 480.67 1023.98 601.48 1171.47 623.92
00038120 00000064 877.77 216.04 380.12 537.07 1015.31 408.52 1192.86 432.52 1135.15 480.85 1023.12 603.00 1170.31 623.41
00038121 00000065 877.12 215.21 380.50 539.16 1012.65 409.92 1191.64 432.89 1131.54 483.28 1020.15 605.19 1168.59 624.79
00038122 00000066 876.89 216.63 379.85 538.76 1010.36 410.46 1190.57 433.52 1127.42 485.80 1017.29 606.82 1166.54 626.34
00038123 00000067 872.53 216.21 381.23 540.19 1007.67 410.72 1188.49 433.76 1125.94 484.98 1015.52 608.22 1164.51 627.64
00038124 00000068 871.83 215.72 380.89 540.79 1005.74 412.19 1187.09 434.84 1124.48 484.83 1014.86 608.96 1164.48 628.00
00038125 00000069 870.41 215.85 380.51 541.29 1005.13 412.51 1185.69 435.85 1123.97 485.23 1014.16 608.95 1163.16 628.57
00038126 00000070 869.25 216.83 380.22 541.84 1003.04 413.06 1182.62 435.47 1119.68 485.71 1011.37 609.25 1159.68 628.15
00038127 00000071 866.90 218.92 379.17 540.01 1000.96 412.53 1178.74 435.52 1114.23 488.83 1005.59 608.17 1152.83 627.81
00038128 00000072 863.91 219.86 380.87 538.80 999.29 412.18 1175.26 434.08 1110.20 488.14 1002.95 606.65 1148.86 625.52
00038129 00000073 861.93 217.59 381.88 539.02 997.32 411.79 1172.64 432.84 1107.71 486.71 1001.70 605.53 1146.59 623.69
00038130 00000074 860.44 218.28 381.84 538.29 995.70 410.99 1171.01 431.85 1105.76 484.37 1000.99 604.42 1145.88 622.35
00038131 00000075 858.93 217.09 380.74 539.64 993.90 410.05 1169.49 430.58 1104.60 483.67 999.68 604.24 1144.82 621.94
00038132 00000076 857.36 218.15 381.10 539.54 991.73 410.11 1167.46 429.90 1102.13 483.59 998.15 604.37 1143.60 621.38
00038133 00000077 856.38 219.76 381.28 539.55 989.04 409.96 1164.88 429.18 1098.08 483.30 995.41 604.64 1140.35 621.17
00038134 00000078 855.33 217.77 381.49 541.92 987.08 408.95 1163.94 428.35 1096.03 482.57 993.68 603.75 1138.88 620.41
00038135 00000079 850.53 217.62 383.33 543.78 980.87 408.89 1158.69 425.74 1090.19 483.88 990.23 605.83 1135.27 620.06
00038136 00000080 848.85 217.94 384.68 543.97 978.20 410.56 1156.74 425.84 1086.73 487.91 988.38 607.82 1133.19 620.59
00038137 00000081 846.91 217.91 385.89 543.86 976.28 411.21 1155.58 425.73 1085.58 489.14 987.06 608.49 1132.86 620.49
00038138 00000082 845.26 218.10 385.70 542.45 974.84 412.01 1154.94 425.94 1085.66 491.71 987.05 609.79 1133.03 621.21
00038139 00000083 843.77 214.88 385.75 540.85 973.32 412.85 1155.66 428.26 1085.81 493.61 987.55 608.95 1136.59 621.19
00038140 00000084 842.94 213.32 385.62 540.28 973.05 412.49 1155.16 429.35 1086.25 493.42 987.52 607.19 1136.00 620.83
00038141 00000085 838.86 201.55 389.34 549.80 971.80 414.69 1161.12 434.92 1083.34 494.97 985.54 604.40 1140.39 621.38
00038142 00000086 839.14 200.78 388.18 548.39 971.31 414.31 1160.36 434.72 1082.27 494.27 985.21 602.77 1140.02 619.99
00038143 00000087 837.40 202.21 389.39 547.73 970.85 414.16 1159.92 434.41 1082.31 494.71 984.11 602.09 1139.85 619.14
00038144 00000088 837.92 200.52 388.93 549.54 970.38 413.76 1158.46 434.22 1080.63 493.48 983.06 601.21 1138.34 618.39
00038145 00000089 837.37 200.27 389.30 552.32 970.25 413.62 1157.07 434.48 1079.38 493.26 981.64 601.60 1135.67 619.11
00038146 00000090 839.71 214.82 385.65 543.95 970.89 413.15 1149.03 431.71 1082.14 489.74 982.77 604.28 1130.59 619.54
00038147 00000091 837.67 216.49 386.80 546.44 970.05 414.40 1147.28 431.72 1080.90 490.22 982.39 606.38 1128.42 620.53
00038148 00000092 836.78 217.28 387.58 546.56 969.34 414.87 1146.63 432.28 1080.06 490.70 981.11 606.30 1128.20 620.56
00038149 00000093 836.05 217.19 388.35 545.07 969.42 415.17 1146.86 432.30 1080.25 492.05 980.43 606.31 1128.72 620.35
00038150 00000094 835.65 217.97 388.40 543.72 968.86 415.03 1146.70 431.69 1079.17 494.20 978.98 606.41 1128.08 620.08
00038151 00000095 834.55 218.56 389.25 541.99 966.73 416.11 1143.70 430.91 1075.86 495.94 976.83 605.92 1125.85 618.13
00038152 00000096 834.65 218.06 389.26 541.65 965.77 416.19 1143.23 430.67 1074.36 498.26 975.34 607.06 1124.68 618.97
00038153 00000097 834.93 221.21 387.72 539.35 966.73 417.07 1142.24 431.65 1073.58 498.96 974.21 609.40 1120.23 621.56
00038154 00000098 835.41 224.30 386.98 537.32 967.25 416.79 1140.02 429.99 1071.82 500.32 974.97 610.29 1116.09 621.55
00038155 00000099 835.25 224.54 387.35 539.68 965.73 416.63 1138.86 430.57 1069.46 504.18 971.90 609.58 1116.20 621.53
00038156 00000100 834.70 224.89 388.02 540.39 964.97 416.15 1138.79 430.36 1068.80 504.61 971.01 609.60 1116.46 621.65
00038157 00000101 834.55 225.36 388.26 540.80 964.75 415.73 1138.93 430.31 1068.67 505.51 970.32 609.79 1116.70 622.10
00038158 00000102 834.19 226.13 388.90 540.92 964.45 414.87 1138.96 430.18 1068.37 505.54 969.95 609.36 1116.72 622.24
00038159 00000103 834.41 227.28 388.84 541.00 964.06 413.51 1139.99 430.05 1067.86 504.96 968.80 608.96 1117.03 622.77
00038160 00000104 834.68 227.75 388.81 539.90 964.12 413.79 1140.14 430.02 1067.98 504.12 969.01 608.86 1117.21 622.37
00038161 00000105 834.62 226.49 389.29 541.84 964.19 413.40 1140.20 430.00 1068.13 503.97 969.07 608.97 1117.02 622.77
00038162 00000106 834.53 225.91 389.40 542.27 964.36 413.95 1140.13 430.03 1068.52 503.97 969.25 609.40 1117.55 622.82
00038163 00000107 834.09 225.35 389.59 542.88 963.85 413.35 1139.86 429.25 1068.14 502.57 969.73 608.81 1117.21 622.06
00038164 00000108 833.97 224.06 389.50 543.20 963.87 413.26 1139.73 428.41 1068.90 501.71 970.66 608.88 1117.43 621.54
00038165 00000109 834.28 223.14 389.06 543.05 964.53 413.57 1140.31 427.97 1069.98 501.78 971.68 608.65 1118.23 620.75
00038166 00000110 834.65 222.46 388.23 541.53 965.09 413.78 1140.99 427.18 1071.35 501.42 971.91 608.39 1119.58 619.80
00038167 00000111 834.54 220.56 388.08 537.01 964.58 413.43 1140.66 423.76 1071.42 501.20 972.48 607.67 1121.29 616.38
00038168 00000112 834.86 219.45 387.47 535.81 964.27 413.60 1140.75 423.23 1071.42 502.01 972.31 608.02 1120.88 616.13
00038169 00000113 828.95 209.38 392.53 543.45 961.99 410.90 1148.80 429.52 1070.14 498.86 973.09 604.26 1127.79 619.97
00038170 00000114 828.72 209.79 392.93 541.44 961.98 411.08 1149.20 429.08 1070.43 499.16 974.06 603.69 1128.86 618.84
00038171 00000115 829.10 208.35 392.77 540.65 961.85 411.61 1148.63 429.20 1069.77 499.58 975.11 602.73 1128.75 617.57
00038172 00000116 829.29 207.75 392.22 539.99 961.97 411.45 1148.36 428.80 1069.55 499.49 975.41 602.67 1127.89 617.29
00038173 00000117 829.36 207.81 392.04 539.65 961.67 411.71 1148.15 428.56 1069.08 498.99 975.63 602.48 1127.94 616.65
00038174 00000118 829.60 206.03 391.34 541.87 961.88 411.26 1147.52 428.65 1068.91 499.00 975.36 602.14 1127.09 616.84
00038175 00000119 829.61 207.32 390.97 541.54 961.18 409.98 1144.68 426.92 1066.62 497.66 974.33 601.83 1124.26 616.22
00038176 00000120 829.42 207.16 390.65 542.84 961.10 409.90 1143.30 426.49 1065.60 497.97 973.35 602.79 1121.48 616.97
00038177 00000121 828.32 206.88 390.60 547.85 960.98 410.03 1140.48 425.90 1064.21 496.65 972.30 604.91 1117.16 618.59
00038178 00000122 826.93 206.75 390.35 550.75 958.53 411.37 1137.26 424.98 1060.70 497.62 970.39 608.52 1112.55 620.45
00038179 00000123 831.23 215.33 378.36 534.09 944.52 409.67 1125.11 414.84 1050.57 489.13 960.81 607.49 1108.98 611.66
00038180 00000124 825.16 212.65 379.64 535.74 934.20 407.49 1119.02 411.62 1038.11 485.39 950.21 606.85 1100.01 610.20
00038181 00000125 817.36 209.25 384.00 539.54 926.75 402.06 1111.76 407.37 1025.76 481.26 940.02 606.92 1081.16 612.07
00038182 00000126 812.46 210.09 383.81 542.74 924.82 396.53 1103.21 402.89 1018.91 475.05 935.78 604.98 1066.21 611.92
00038183 00000127 806.99 204.64 386.06 550.18 916.15 394.21 1092.72 396.30 1004.24 469.94 926.64 603.43 1055.74 607.27
00038184 00000128 807.90 190.13 382.47 556.66 917.49 387.47 1089.58 396.15 1004.65 475.05 927.25 597.95 1059.69 606.89
00038185 00000129 807.83 188.84 383.93 553.09 917.73 387.33 1090.70 394.44 1007.01 473.98 930.57 594.75 1065.08 602.25
00038186 00000130 810.35 191.12 383.68 547.37 924.39 386.68 1096.72 395.41 1016.00 473.99 937.01 592.65 1069.81 601.56
00038187 00000131 821.50 197.51 381.69 538.35 937.61 390.30 1111.16 398.98 1033.48 476.03 947.61 588.03 1089.90 597.10
00038188 00000132 827.95 199.11 380.39 536.71 946.77 393.55 1120.15 402.24 1046.57 476.24 958.62 585.66 1104.12 594.31
00038189 00000133 828.48 191.88 386.64 538.63 953.33 390.23 1128.10 404.75 1049.71 478.34 967.96 581.20 1108.04 593.82
00038190 DELETE   834.16 193.60 383.22 536.79 961.33 388.32 1136.57 403.40 1061.04 476.09 975.29 579.55 1118.94 592.83
00038191 00000135 838.29 188.02 384.38 551.24 967.70 387.58 1142.42 401.33 1071.76 474.87 984.56 588.18 1123.21 600.48
00038192 00000136 838.32 185.48 383.65 549.79 965.01 390.10 1146.25 401.85 1074.03 473.98 987.36 589.59 1132.18 599.86
00038193 00000137 837.94 186.37 384.08 547.81 961.76 388.78 1143.38 402.37 1067.57 475.08 980.92 585.01 1129.45 596.80
00038194 00000138 835.43 188.32 385.80 544.70 958.30 387.90 1137.83 402.93 1059.05 476.13 974.75 582.03 1121.46 595.13
00038195 00000139 829.43 193.62 386.82 536.68 947.08 388.82 1124.47 402.83 1040.63 477.03 962.74 580.36 1108.63 592.30
00038196 00000140 826.50 195.00 386.22 538.66 941.32 387.94 1118.05 400.93 1033.98 478.23 957.79 582.29 1101.13 593.53
00038197 00000141 825.12 198.81 380.51 538.45 938.58 390.14 1113.48 395.93 1032.78 478.54 950.56 589.10 1095.92 595.51
CROP_BBOX: 528 0 1424 952
