Video ID: 	prd3q83KQ0w
H: 	1080
W: 	1920
FPS: 	59.94005994005994

FRAME INDEX X0 Y0 W H [Landmarks (5 Points)]

00030285 00000000 668.57 122.80 361.50 532.99 899.02 339.62 990.58 337.41 1036.45 433.05 908.48 525.31 979.30 524.65
00030286 DELETE   668.58 122.82 361.48 532.96 899.01 339.61 990.57 337.40 1036.44 433.05 908.48 525.30 979.31 524.66
00030287 00000002 670.91 122.71 362.57 530.83 902.84 342.78 991.25 337.29 1038.82 431.09 912.24 522.59 981.29 519.45
00030288 00000003 670.18 122.92 363.27 530.54 902.84 342.61 991.40 337.14 1039.03 431.26 912.39 522.54 981.53 519.43
00030289 00000004 674.32 117.41 361.11 532.15 904.03 349.44 994.06 341.11 1037.79 427.17 920.45 520.50 991.47 514.74
00030290 00000005 674.14 117.36 361.53 532.10 904.23 349.26 993.26 340.47 1038.53 426.93 920.47 520.47 990.79 514.35
00030291 00000006 677.86 113.64 360.80 535.33 908.25 346.15 991.01 336.73 1041.95 421.93 925.19 516.61 992.39 510.49
00030292 00000007 677.85 113.64 360.80 535.32 908.25 346.15 991.01 336.73 1041.95 421.93 925.19 516.61 992.39 510.49
00030293 00000008 685.63 111.86 360.34 532.59 916.72 337.64 994.84 328.36 1049.73 414.33 933.49 511.09 998.52 505.48
00030294 00000009 684.75 111.89 361.19 531.55 916.49 337.88 994.65 328.11 1049.92 414.41 933.97 511.56 998.54 505.52
00030295 00000010 694.61 106.62 359.32 534.02 924.18 331.28 1002.96 316.55 1060.04 409.94 942.02 512.36 1003.25 502.61
00030296 00000011 694.37 106.61 359.87 534.53 924.23 331.80 1003.03 316.71 1060.65 409.78 942.76 512.64 1003.90 502.54
00030297 00000012 703.24 106.59 357.69 535.63 931.72 324.69 1010.56 314.50 1067.40 407.08 945.86 506.99 1008.68 501.70
00030298 00000013 703.19 106.57 357.69 535.66 931.73 324.72 1010.52 314.48 1067.42 407.07 945.87 507.03 1008.68 501.71
00030299 00000014 711.69 111.06 361.44 534.60 937.32 311.43 1016.79 312.42 1063.10 408.21 946.62 507.80 1011.63 510.16
00030300 00000015 710.57 108.84 361.76 537.00 940.73 312.54 1015.01 312.10 1065.03 407.62 946.50 506.33 1008.16 507.84
00030301 00000016 712.93 110.05 362.75 541.85 950.83 312.54 1018.36 313.02 1072.84 414.68 943.06 510.42 1001.32 513.61
00030302 00000017 712.64 109.99 363.11 541.72 950.64 312.32 1017.68 312.63 1072.58 414.33 943.01 510.33 1000.80 513.38
00030303 00000018 720.90 108.09 357.44 543.96 960.26 313.32 1025.36 318.38 1079.74 420.12 947.24 512.07 1004.05 518.74
00030304 00000019 720.84 108.09 357.50 543.98 960.26 313.33 1025.37 318.37 1079.74 420.14 947.23 512.10 1004.04 518.74
00030305 00000020 726.44 106.24 355.14 545.69 963.46 317.53 1029.65 324.57 1083.65 423.68 949.71 513.73 1007.24 521.60
00030306 00000021 726.27 105.08 354.68 546.00 963.52 318.00 1030.37 325.62 1083.06 423.78 950.18 513.33 1007.99 521.58
00030307 00000022 729.99 103.98 357.43 548.63 970.41 320.53 1034.08 327.47 1091.55 425.86 956.61 514.43 1012.83 521.80
00030308 00000023 730.40 104.04 356.85 548.16 970.35 320.65 1034.62 327.72 1091.16 426.00 956.42 514.12 1013.05 521.56
00030309 00000024 735.50 106.94 354.61 544.06 974.29 323.10 1039.25 328.77 1095.67 423.78 965.26 512.54 1020.52 517.98
00030310 00000025 735.53 106.79 354.49 544.24 974.33 323.17 1039.19 328.73 1095.62 423.78 965.25 512.56 1020.41 517.92
00030311 00000026 738.25 110.38 353.18 538.94 973.81 328.02 1044.73 330.23 1093.05 421.75 981.57 515.39 1038.40 516.50
00030312 00000027 738.12 110.71 353.13 538.49 973.76 327.88 1045.00 330.16 1093.10 421.65 981.74 515.29 1038.71 516.41
00030313 00000028 741.47 111.47 352.18 538.10 973.37 332.88 1043.93 331.61 1093.73 421.74 989.97 519.10 1046.64 517.25
00030314 00000029 741.47 111.47 352.17 538.09 973.37 332.88 1043.93 331.61 1093.73 421.74 989.97 519.10 1046.64 517.25
00030315 00000030 741.83 111.93 350.95 535.46 975.71 338.67 1046.99 333.72 1093.10 425.51 993.44 521.43 1050.72 516.46
00030316 00000031 741.94 111.84 350.73 535.60 975.69 338.85 1046.90 333.62 1092.69 425.49 993.49 521.28 1050.63 516.09
00030317 00000032 740.98 115.03 352.00 530.24 973.77 344.91 1054.18 339.86 1093.26 430.16 988.50 519.50 1053.64 514.46
00030318 00000033 741.03 115.12 351.95 529.94 973.73 345.00 1054.21 339.93 1093.26 430.16 988.56 519.41 1053.74 514.35
00030319 00000034 739.31 115.38 355.61 528.80 969.87 349.92 1057.08 346.94 1094.07 431.48 984.82 520.07 1055.55 516.85
00030320 00000035 739.41 114.89 355.49 529.26 970.02 349.99 1057.32 347.00 1094.08 431.70 984.97 520.30 1055.77 517.04
00030321 00000036 740.08 116.97 356.86 531.24 974.10 346.85 1056.72 344.68 1097.80 435.66 980.64 521.48 1047.08 519.51
00030322 00000037 740.23 117.03 356.75 531.20 974.00 347.02 1056.49 344.39 1097.59 435.80 980.52 521.50 1046.76 519.19
00030323 00000038 743.05 118.25 354.99 536.80 979.17 342.86 1053.85 344.49 1096.87 437.27 975.10 522.26 1035.69 523.73
00030324 00000039 743.06 118.25 354.99 536.78 979.17 342.86 1053.86 344.49 1096.88 437.27 975.10 522.26 1035.69 523.73
00030325 00000040 750.72 116.92 355.08 540.85 992.58 340.91 1055.74 340.51 1102.47 437.49 983.29 525.41 1029.79 528.42
00030326 00000041 751.34 117.17 354.50 540.06 992.76 341.38 1056.25 340.91 1102.20 437.42 983.00 525.09 1029.95 528.10
00030327 00000042 754.63 116.49 356.16 541.39 995.03 339.99 1060.43 339.22 1106.82 438.49 986.62 525.97 1035.71 528.57
00030328 00000043 754.35 116.95 356.52 540.90 995.07 339.79 1060.40 339.43 1106.63 438.59 985.83 525.59 1034.85 528.57
00030329 00000044 758.54 113.48 357.57 545.02 999.92 339.37 1065.47 336.16 1112.53 437.55 992.18 526.39 1041.44 526.96
00030330 00000045 758.36 113.70 357.56 544.80 999.88 339.36 1065.37 336.23 1112.46 437.52 992.11 526.39 1041.39 527.01
00030331 00000046 763.78 112.02 357.22 543.78 1005.39 337.83 1071.72 331.92 1118.43 434.99 997.91 523.83 1049.19 521.98
00030332 00000047 763.19 112.42 358.07 543.19 1005.53 337.68 1072.24 331.97 1118.57 434.93 998.00 523.76 1049.58 522.00
00030333 00000048 768.31 111.32 357.61 540.06 1009.38 334.02 1077.56 328.33 1122.89 431.92 1007.06 523.65 1059.00 520.90
00030334 00000049 768.30 111.29 357.62 540.05 1009.38 334.02 1077.54 328.34 1122.89 431.94 1007.06 523.65 1058.99 520.92
00030335 00000050 759.73 109.72 366.25 541.40 1005.46 344.59 1072.81 332.61 1128.25 428.74 1006.89 517.05 1061.83 509.67
00030336 00000051 760.12 109.36 365.36 541.70 1005.22 344.89 1072.00 333.23 1127.81 428.27 1006.48 516.85 1061.43 509.75
00030337 00000052 770.52 107.52 365.80 540.35 1016.37 332.28 1083.20 324.83 1131.58 428.73 1018.50 523.16 1068.23 518.18
00030338 00000053 770.49 107.58 365.65 540.23 1016.29 332.35 1083.20 324.96 1131.58 428.66 1018.47 523.11 1068.26 518.16
00030339 00000054 779.87 107.62 362.61 539.53 1023.92 328.71 1093.32 325.29 1137.79 429.61 1019.85 520.24 1074.46 518.63
00030340 00000055 779.80 107.41 362.41 539.83 1023.64 328.72 1093.13 325.15 1137.70 429.50 1020.06 520.48 1074.78 518.74
00030341 00000056 786.75 112.21 364.28 538.66 1031.64 326.79 1102.73 327.70 1147.35 431.19 1023.46 519.03 1081.42 521.39
00030342 00000057 786.79 112.24 364.29 538.65 1031.74 326.85 1102.71 327.60 1147.49 431.18 1023.47 519.08 1081.32 521.33
00030343 00000058 792.34 111.73 367.87 549.13 1042.39 326.23 1105.81 325.28 1160.13 434.68 1028.37 523.28 1081.67 524.71
00030344 00000059 791.91 112.04 368.65 550.06 1042.79 325.65 1105.30 324.98 1160.79 434.54 1027.92 523.10 1081.15 524.93
00030345 00000060 798.06 109.41 371.54 549.72 1046.12 331.00 1116.41 330.17 1173.12 436.57 1039.05 524.40 1096.60 525.55
00030346 00000061 798.01 109.33 371.67 549.76 1046.12 331.03 1116.39 330.18 1173.18 436.51 1039.13 524.47 1096.62 525.59
00030347 00000062 800.52 111.14 372.68 546.48 1048.50 340.64 1128.22 339.03 1176.26 437.91 1050.69 526.04 1114.45 525.65
00030348 00000063 800.74 111.54 372.38 546.02 1048.11 340.70 1128.07 339.19 1176.21 438.22 1050.46 526.24 1114.60 525.90
00030349 00000064 805.26 118.95 378.33 546.99 1054.42 351.12 1135.56 341.19 1189.52 446.25 1056.08 536.17 1119.50 530.22
00030350 00000065 805.12 119.02 378.51 546.98 1054.49 351.16 1135.49 341.21 1189.59 446.27 1056.07 536.16 1119.44 530.22
00030351 00000066 820.40 124.28 370.68 548.14 1066.13 353.81 1140.22 341.50 1189.87 452.71 1059.48 543.02 1111.74 538.96
00030352 00000067 820.92 126.06 370.43 546.45 1066.54 353.64 1140.42 341.34 1189.74 452.85 1059.91 542.73 1112.15 538.65
00030353 00000068 824.03 136.90 375.16 547.87 1076.56 367.92 1145.54 349.56 1198.28 467.23 1063.96 557.35 1113.71 549.63
00030354 00000069 824.02 136.89 375.17 547.87 1076.56 367.92 1145.54 349.56 1198.27 467.24 1063.96 557.35 1113.71 549.63
00030355 00000070 823.42 146.56 376.53 548.07 1077.00 373.19 1147.22 356.91 1200.40 476.26 1063.82 565.45 1115.56 559.70
00030356 00000071 823.80 146.08 375.93 548.33 1077.38 373.46 1147.36 357.15 1200.31 476.33 1064.37 565.77 1115.94 559.89
00030357 00000072 825.65 155.24 372.56 545.31 1077.71 377.16 1145.97 365.07 1197.13 482.01 1058.07 567.40 1110.64 565.35
00030358 00000073 825.06 154.74 373.07 545.65 1077.00 377.15 1145.69 364.90 1197.19 481.94 1057.76 567.32 1110.55 565.17
00030359 00000074 828.06 160.52 368.46 541.98 1075.12 381.50 1143.75 369.74 1193.95 485.72 1054.66 569.09 1108.50 567.42
00030360 00000075 827.83 160.74 369.39 541.78 1075.67 381.44 1143.70 369.41 1194.72 485.78 1054.52 569.05 1107.89 567.20
00030361 00000076 823.72 161.41 370.97 538.06 1071.67 383.32 1141.23 370.61 1191.45 485.58 1053.81 568.65 1107.27 566.21
00030362 00000077 823.22 160.94 371.38 538.48 1071.69 383.18 1141.06 370.57 1191.41 485.52 1054.17 568.64 1107.40 566.26
00030363 00000078 818.62 164.44 373.45 527.28 1065.84 384.71 1140.12 368.27 1189.11 483.65 1055.15 567.58 1109.35 562.09
00030364 00000079 818.68 164.44 373.36 527.29 1065.79 384.74 1140.08 368.29 1189.09 483.65 1055.16 567.58 1109.37 562.08
00030365 00000080 813.40 155.92 372.02 531.98 1058.84 384.81 1132.43 366.71 1186.54 479.78 1057.92 566.78 1109.94 559.49
00030366 00000081 813.12 154.88 372.10 532.80 1058.75 384.70 1132.81 366.51 1186.50 479.51 1058.07 566.77 1110.35 559.38
00030367 00000082 809.03 159.27 371.01 523.45 1053.75 380.06 1126.88 366.64 1177.77 475.70 1056.17 562.22 1106.17 557.90
00030368 00000083 809.09 158.85 370.92 523.99 1054.09 380.21 1126.60 366.27 1178.30 475.78 1056.37 562.63 1105.75 557.91
00030369 00000084 805.99 160.76 368.06 518.19 1049.27 377.05 1122.12 365.92 1170.26 472.01 1049.10 555.49 1100.03 552.98
00030370 00000085 806.10 160.81 368.00 517.87 1049.22 377.04 1122.39 366.02 1170.19 472.09 1049.11 555.46 1100.24 553.02
00030371 00000086 798.74 149.66 367.80 536.10 1043.30 372.37 1124.92 355.28 1172.99 472.58 1041.43 560.47 1105.04 550.15
00030372 00000087 798.87 149.90 367.64 536.04 1043.64 372.42 1124.78 355.46 1173.51 472.34 1041.63 560.21 1105.30 550.00
00030373 00000088 792.11 147.36 371.43 538.07 1039.24 369.80 1122.34 351.95 1170.42 470.50 1039.02 560.00 1102.87 549.56
00030374 00000089 792.10 147.37 371.44 538.07 1039.24 369.80 1122.35 351.96 1170.41 470.49 1039.02 559.99 1102.88 549.56
00030375 00000090 787.35 147.01 372.33 537.58 1036.18 368.24 1118.51 348.69 1167.44 471.02 1034.37 561.37 1096.22 549.99
00030376 00000091 786.71 147.20 373.22 537.36 1035.99 368.19 1118.39 348.50 1167.39 470.89 1034.61 561.50 1096.33 549.98
00030377 00000092 784.27 151.92 369.86 536.13 1027.47 365.57 1113.64 348.01 1157.65 472.39 1030.90 564.64 1094.26 554.62
00030378 00000093 784.26 152.17 369.64 535.55 1027.63 365.66 1113.82 348.22 1157.83 472.34 1031.06 564.33 1094.52 554.33
00030379 00000094 777.10 155.13 369.95 537.80 1020.51 367.68 1106.60 351.18 1148.26 474.91 1024.69 568.03 1087.06 559.08
00030380 00000095 776.86 154.83 370.21 537.82 1020.01 367.84 1106.55 351.17 1148.10 475.15 1024.64 568.16 1087.20 559.08
00030381 00000096 765.37 158.49 377.28 533.76 1012.07 373.76 1092.98 353.13 1142.44 476.38 1018.36 570.59 1076.59 558.65
00030382 00000097 765.49 159.40 377.40 532.95 1012.66 374.00 1093.11 353.26 1142.88 476.63 1018.11 570.66 1076.12 558.66
00030383 00000098 755.05 153.69 377.19 533.66 1002.16 373.48 1086.34 351.09 1134.43 474.68 1007.99 569.18 1065.61 556.86
00030384 DELETE   755.05 153.62 377.19 533.73 1002.14 373.48 1086.40 351.07 1134.41 474.68 1007.98 569.19 1065.64 556.86
00030385 00000100 748.55 144.65 367.50 538.36 990.74 375.13 1073.07 350.89 1122.51 471.10 999.29 566.16 1054.00 552.57
00030386 00000101 747.69 146.04 369.31 536.86 991.46 374.82 1073.37 350.58 1122.92 471.69 999.25 566.27 1053.26 552.70
00030387 00000102 739.83 156.56 368.79 526.02 981.53 374.84 1059.60 355.07 1111.78 469.86 989.58 564.28 1039.81 554.86
00030388 00000103 739.99 157.33 368.59 525.33 981.60 374.51 1059.55 355.00 1112.07 469.87 989.85 564.30 1039.98 555.03
00030389 00000104 726.01 146.23 369.01 543.63 972.43 370.83 1053.30 350.58 1106.47 470.91 975.71 565.28 1036.55 552.46
00030390 00000105 726.36 146.68 368.67 543.06 972.22 371.07 1053.45 350.85 1106.19 470.99 975.64 565.31 1036.68 552.49
00030391 00000106 713.89 142.21 369.48 545.95 962.76 368.92 1043.68 345.07 1094.81 471.06 969.47 568.48 1029.00 553.05
00030392 00000107 713.63 141.99 370.02 546.35 962.93 369.08 1043.93 345.01 1095.28 470.95 969.90 568.60 1029.39 553.01
00030393 00000108 706.28 151.61 365.73 532.23 943.76 370.06 1034.33 347.36 1080.57 471.63 960.65 569.49 1026.03 554.73
00030394 DELETE   706.37 151.49 365.71 532.44 943.82 369.96 1034.31 347.27 1080.78 471.64 960.69 569.55 1025.99 554.80
00030395 00000110 690.92 150.24 367.83 526.97 919.15 376.51 1023.77 348.18 1063.03 468.28 947.05 569.63 1021.23 550.07
00030396 00000111 690.67 150.97 368.51 526.15 919.28 376.58 1023.62 348.03 1063.51 468.25 947.35 569.62 1021.41 549.92
00030397 00000112 677.80 144.21 363.36 531.09 900.90 374.93 1006.35 348.15 1047.44 462.69 931.86 564.03 1007.52 546.15
00030398 00000113 677.91 143.33 362.89 531.64 900.60 374.44 1006.40 347.86 1047.40 462.61 931.47 563.74 1007.43 546.04
00030399 00000114 664.39 140.04 358.21 533.87 884.19 371.99 991.20 349.75 1030.53 456.03 917.40 558.07 991.29 544.54
00030400 DELETE   664.40 140.03 358.19 533.87 884.19 371.99 991.20 349.75 1030.53 456.03 917.40 558.07 991.30 544.55
00030401 DELETE   653.47 136.29 363.37 544.04 876.44 370.93 988.60 346.11 1020.86 461.73 904.91 562.40 987.95 544.12
00030402 00000117 652.59 136.89 364.21 543.60 877.17 371.01 987.42 345.89 1021.48 461.51 905.24 562.30 986.86 543.92
00030403 00000118 645.90 138.02 366.28 543.28 865.48 369.12 972.83 342.13 1011.09 458.85 900.18 563.65 979.85 543.85
00030404 DELETE   645.95 138.54 366.00 542.77 865.37 368.65 973.57 342.47 1010.88 459.42 900.20 563.51 980.67 544.33
00030405 DELETE   638.38 137.40 367.48 540.43 848.37 369.14 966.48 344.86 997.11 456.58 889.06 563.06 977.53 545.08
00030406 00000121 638.32 137.50 367.43 540.31 848.44 369.01 966.40 344.76 997.06 456.47 889.04 562.97 977.40 545.01
00030407 00000122 631.25 136.42 368.92 537.62 836.32 370.96 961.43 340.24 988.38 454.70 882.63 562.02 976.09 539.08
00030408 00000123 632.04 136.41 368.67 537.20 836.44 370.95 961.77 339.96 988.28 454.48 882.99 562.01 976.32 538.86
00030409 00000124 626.30 131.22 364.90 537.49 827.73 375.64 956.90 339.08 981.18 452.41 875.80 560.79 971.89 533.38
00030410 00000125 626.42 131.25 364.66 537.31 827.73 375.56 956.99 339.10 981.12 452.51 875.59 560.76 971.68 533.43
00030411 00000126 611.38 131.52 367.39 534.54 823.67 384.51 942.63 347.21 975.06 456.00 857.93 556.64 945.05 528.88
00030412 00000127 621.33 127.96 361.36 536.18 822.08 373.96 954.86 337.27 975.10 454.26 867.34 560.77 964.12 533.34
00030413 00000128 605.19 130.84 369.15 535.88 813.05 381.43 939.07 343.49 968.78 454.63 848.92 556.92 941.61 528.57
00030414 00000129 605.19 130.85 369.15 535.88 813.06 381.43 939.07 343.49 968.79 454.63 848.92 556.92 941.60 528.57
00030415 00000130 601.46 130.62 368.17 540.28 799.40 374.77 934.67 337.50 958.80 454.63 841.88 560.79 941.62 532.18
00030416 00000131 601.98 130.45 367.45 540.24 799.58 375.09 935.26 337.69 959.24 455.00 841.56 560.83 941.64 532.14
00030417 00000132 597.39 128.29 368.31 545.82 790.56 373.78 930.15 336.93 948.35 453.75 836.15 560.90 939.86 532.53
00030418 00000133 597.49 128.00 368.15 546.03 790.57 373.84 930.07 336.96 948.39 453.72 836.23 561.04 939.80 532.65
00030419 00000134 594.30 127.44 368.58 547.91 783.55 374.17 928.77 336.51 938.87 456.25 831.54 562.49 939.31 533.04
00030420 00000135 594.08 128.00 368.74 547.22 783.20 373.60 928.81 336.16 938.88 456.18 831.31 562.23 939.27 532.98
00030421 00000136 593.41 126.76 366.84 550.98 780.62 372.29 928.24 338.29 932.32 456.44 829.00 561.37 938.67 534.57
00030422 00000137 593.35 126.93 366.86 550.64 780.61 372.24 928.06 338.10 932.38 456.44 829.14 561.44 938.53 534.53
00030423 00000138 590.76 129.24 369.34 551.38 779.26 373.98 927.33 337.48 932.02 459.77 827.26 562.94 937.72 534.27
00030424 00000139 590.76 129.28 369.34 551.34 779.25 373.97 927.34 337.48 932.02 459.77 827.23 562.92 937.73 534.26
00030425 00000140 591.51 130.75 368.21 552.36 780.65 377.39 929.37 339.54 934.35 463.88 827.98 565.46 938.01 535.94
00030426 00000141 591.93 131.04 367.92 551.92 780.61 377.59 929.66 339.30 934.45 464.17 827.99 565.51 938.21 535.66
00030427 00000142 603.19 142.81 357.68 541.78 787.79 389.50 934.08 344.58 937.69 476.68 812.82 579.20 934.56 545.93
00030428 00000143 603.30 143.14 358.21 541.27 787.95 388.96 934.27 344.36 937.72 476.15 813.49 578.88 934.97 545.75
00030429 00000144 603.85 140.50 357.44 547.83 788.97 396.24 936.22 352.08 939.32 485.67 809.56 583.95 934.22 551.78
00030430 00000145 604.17 140.96 357.30 547.57 788.89 396.41 936.18 351.98 939.23 485.72 809.52 584.02 934.39 551.63
00030431 00000146 598.14 140.89 362.56 553.55 783.12 399.54 934.15 357.86 940.23 484.29 821.96 577.31 941.26 544.99
00030432 00000147 598.19 141.33 362.54 553.18 782.92 399.38 934.13 357.54 940.15 484.46 822.05 577.55 941.33 545.11
00030433 00000148 605.81 141.74 356.81 548.10 789.74 398.71 939.12 355.92 940.70 490.32 810.01 585.99 936.31 554.89
00030434 00000149 605.83 141.73 356.80 548.12 789.73 398.70 939.13 355.91 940.70 490.32 809.99 585.98 936.31 554.89
00030435 00000150 605.77 145.58 357.90 542.61 789.89 394.00 939.07 350.79 940.32 482.64 810.78 580.72 938.38 549.09
00030436 00000151 606.15 145.70 357.56 542.24 790.10 394.05 939.20 350.93 940.32 482.61 810.64 580.27 938.45 548.75
00030437 00000152 604.24 145.49 359.60 539.15 789.02 388.53 936.81 346.20 939.19 477.15 811.87 576.41 937.21 545.31
00030438 00000153 604.48 145.73 359.31 538.42 789.02 388.70 936.82 345.95 939.10 477.39 811.86 576.33 937.20 544.87
00030439 00000154 604.38 140.11 359.26 543.12 789.76 382.43 937.27 342.93 939.35 471.81 812.53 572.63 936.70 543.86
00030440 00000155 604.43 140.08 359.26 543.19 789.71 382.44 937.20 342.85 939.38 471.84 812.54 572.67 936.73 543.83
00030441 00000156 594.56 136.66 368.34 547.28 781.06 378.14 935.36 341.72 939.46 466.74 822.34 564.34 941.32 536.36
00030442 00000157 594.69 136.92 368.09 547.11 781.12 377.94 935.42 341.69 939.15 466.82 822.27 564.19 941.21 536.35
00030443 00000158 595.93 135.79 367.58 548.54 781.84 378.27 936.06 340.89 941.95 466.31 822.59 564.79 941.67 536.09
00030444 00000159 595.96 135.81 367.52 548.50 781.84 378.26 936.09 340.94 941.94 466.23 822.58 564.74 941.72 536.09
00030445 00000160 596.76 134.40 367.66 550.20 785.49 380.56 937.68 342.51 945.00 468.70 824.04 565.71 941.72 536.52
00030446 00000161 596.78 134.74 367.46 549.62 785.02 380.34 937.15 342.57 944.67 467.84 824.45 565.30 941.65 536.36
00030447 00000162 604.97 142.85 358.91 538.36 796.01 385.24 939.10 348.35 945.77 474.70 831.72 564.75 945.72 537.91
00030448 00000163 604.79 142.41 358.91 538.88 796.05 384.90 938.80 348.36 945.96 474.60 832.09 564.88 945.57 538.23
00030449 00000164 609.05 145.02 358.84 539.78 801.21 388.09 944.75 350.42 951.56 478.85 833.70 568.45 948.55 540.84
00030450 00000165 609.23 145.26 358.60 539.58 801.17 388.20 944.70 350.31 951.52 478.93 833.58 568.48 948.45 540.73
00030451 00000166 612.48 147.77 358.91 540.28 805.77 384.83 947.08 349.59 954.10 476.75 835.18 567.70 947.39 542.47
