Video ID: 	tMOTLX3Ut34
H: 	1080
W: 	1920
FPS: 	25.0

FRAME INDEX X0 Y0 W H [Landmarks (5 Points)]

00001399 00000000 969.59 121.50 518.15 767.14 1013.54 451.33 1220.41 430.38 1040.47 562.53 1053.87 721.57 1210.90 704.38
00001400 00000001 971.94 117.99 508.79 755.77 1015.89 445.46 1220.91 430.45 1043.92 562.93 1053.94 709.25 1209.63 696.77
00001401 DELETE   970.50 118.84 502.95 753.08 1016.72 447.85 1216.45 432.26 1045.24 563.53 1056.37 707.84 1211.54 694.54
00001402 00000003 967.00 125.32 509.08 746.81 1015.63 448.48 1211.42 430.43 1040.35 566.39 1052.58 710.97 1203.80 695.65
00001403 00000004 962.64 122.03 506.09 761.88 1012.35 449.59 1202.70 429.55 1036.52 571.68 1056.51 718.92 1200.21 702.05
00001404 00000005 956.12 120.83 514.09 748.79 1001.88 444.18 1201.24 419.84 1034.86 570.38 1042.42 715.34 1201.88 695.92
00001405 DELETE   952.89 121.70 513.63 751.91 998.58 441.51 1199.48 418.55 1033.51 571.91 1042.51 715.38 1201.60 696.67
00001406 00000007 948.28 121.35 520.35 754.18 994.61 440.52 1196.45 418.01 1029.81 571.29 1038.17 714.04 1202.36 695.65
00001407 00000008 942.46 123.12 521.55 758.00 987.48 444.71 1186.93 424.64 1021.57 571.79 1031.17 712.03 1191.11 695.95
00001408 00000009 936.70 127.88 522.08 752.14 982.38 446.53 1185.71 425.64 1020.49 574.37 1028.17 712.59 1192.60 695.80
00001409 00000010 930.73 124.46 524.77 763.72 979.78 444.11 1185.08 423.08 1019.19 572.97 1023.39 712.32 1193.78 695.32
00001410 00000011 929.16 123.67 522.88 764.15 976.98 441.91 1182.29 417.79 1015.00 568.82 1021.88 714.05 1189.43 694.82
00001411 00000012 924.00 119.59 527.85 770.97 973.15 440.32 1180.55 414.96 1013.88 566.88 1019.20 714.86 1187.64 694.42
00001412 00000013 921.89 121.62 523.51 769.32 970.42 441.14 1177.09 412.51 1010.13 563.77 1017.90 714.87 1190.11 691.51
00001413 00000014 918.51 120.43 531.95 770.65 967.94 437.53 1174.70 410.16 1006.48 563.27 1016.75 714.85 1182.97 692.80
00001414 00000015 917.52 118.28 532.03 771.64 967.99 437.22 1176.40 408.96 1007.84 561.46 1017.25 715.84 1182.94 693.06
00001415 00000016 916.42 114.68 530.43 776.22 970.10 435.30 1176.64 407.17 1010.20 558.53 1018.89 710.37 1188.90 687.34
00001416 00000017 914.62 112.71 530.51 775.16 969.83 432.63 1177.99 403.25 1011.81 555.88 1019.11 710.87 1187.15 687.13
00001417 00000018 913.05 109.05 535.11 778.56 970.11 431.29 1179.33 402.38 1011.75 553.07 1018.27 707.86 1186.26 684.63
00001418 00000019 915.81 107.74 536.63 780.55 970.20 427.57 1181.21 400.21 1009.25 548.20 1013.79 705.05 1185.11 683.21
00001419 00000020 915.71 104.35 535.85 778.91 967.98 423.20 1179.17 395.11 1006.62 544.87 1013.64 702.63 1182.83 680.30
00001420 00000021 919.42 101.48 530.14 777.25 968.82 419.21 1179.69 390.80 1005.68 539.39 1013.09 698.14 1186.13 675.71
00001421 00000022 918.39 96.75 528.54 785.46 969.97 421.94 1180.73 384.01 1011.48 532.57 1013.42 699.49 1186.89 668.37
00001422 00000023 918.60 90.34 534.49 789.29 970.17 421.15 1179.05 381.62 1009.03 526.48 1012.64 697.43 1182.40 665.23
00001423 00000024 918.45 89.51 529.36 781.89 970.10 419.43 1178.31 381.25 1009.70 525.66 1012.37 693.32 1182.41 662.19
00001424 00000025 919.81 88.05 528.51 788.79 970.74 419.51 1178.79 379.67 1009.46 525.56 1012.75 693.75 1186.08 661.04
00001425 00000026 924.72 78.60 531.30 794.65 973.26 415.95 1177.11 375.84 1004.98 523.69 1018.43 694.19 1183.70 661.11
00001426 00000027 927.49 78.25 528.70 793.80 977.94 415.54 1182.12 374.66 1012.75 522.35 1025.39 692.71 1190.44 658.87
00001427 00000028 930.75 76.57 527.98 793.09 980.04 414.91 1183.85 372.75 1013.38 519.41 1026.31 689.94 1192.38 655.06
00001428 00000029 936.11 85.20 525.03 782.27 982.71 414.83 1184.45 372.41 1020.80 520.60 1031.96 690.62 1201.40 656.03
00001429 00000030 929.19 71.80 536.85 795.03 980.40 413.96 1183.99 367.81 1015.70 516.89 1031.73 687.38 1199.85 648.94
00001430 00000031 929.09 68.92 537.95 796.21 982.65 413.94 1185.49 365.70 1020.60 516.35 1037.36 685.18 1205.96 644.64
00001431 00000032 932.79 69.88 534.87 789.83 984.52 414.38 1187.57 364.02 1022.80 513.38 1039.44 682.05 1207.82 639.98
00001432 00000033 936.21 70.98 538.02 785.98 988.16 414.73 1192.65 362.38 1029.21 511.92 1045.51 682.91 1213.09 639.34
00001433 00000034 940.13 73.28 541.10 779.81 993.03 414.32 1196.40 362.57 1032.48 512.86 1051.03 680.34 1217.88 637.38
00001434 00000035 944.83 74.10 537.81 770.75 1000.49 413.79 1201.47 360.74 1040.61 509.09 1058.71 678.50 1219.26 635.07
00001435 00000036 950.10 73.13 537.38 771.15 1005.57 411.92 1206.95 361.35 1044.96 507.49 1062.23 678.24 1220.14 637.30
00001436 00000037 953.53 76.80 539.76 765.91 1009.05 413.11 1212.81 361.86 1050.84 505.63 1065.60 678.87 1228.25 637.21
00001437 00000038 956.50 75.56 531.06 766.11 1014.10 412.16 1217.00 360.62 1057.57 504.92 1071.07 677.08 1234.56 634.91
00001438 00000039 958.40 75.85 530.98 766.12 1016.09 410.91 1220.08 361.08 1060.01 504.05 1070.81 675.91 1234.80 635.14
00001439 00000040 961.92 68.71 530.68 776.14 1017.17 410.04 1221.22 358.95 1062.29 503.93 1073.46 673.75 1241.96 631.94
00001440 00000041 963.57 72.52 527.36 772.97 1018.98 413.33 1223.28 359.60 1065.08 504.70 1074.42 678.29 1240.58 634.18
00001441 00000042 963.73 71.99 527.30 774.35 1018.83 413.58 1223.64 359.90 1065.72 504.74 1074.56 680.64 1238.54 636.62
00001442 00000043 965.43 72.49 529.41 772.16 1019.00 414.17 1224.45 359.15 1066.20 505.28 1076.30 681.19 1241.35 636.23
00001443 00000044 967.06 74.11 525.19 769.34 1021.56 413.21 1225.17 358.07 1068.55 505.67 1080.15 683.50 1240.35 638.24
00001444 00000045 968.88 74.38 528.45 768.64 1023.36 413.80 1226.87 361.01 1070.51 507.53 1080.62 681.07 1243.59 638.15
00001445 00000046 968.24 76.29 527.96 765.55 1023.76 414.63 1226.76 362.70 1071.34 507.35 1080.06 680.84 1240.52 638.76
00001446 00000047 969.26 75.23 523.45 765.99 1024.10 414.46 1225.59 360.21 1070.99 507.41 1081.50 681.76 1240.64 637.47
00001447 00000048 969.13 74.05 525.91 767.89 1025.93 413.49 1225.67 360.52 1071.03 507.71 1082.57 679.98 1241.82 636.68
00001448 00000049 970.29 78.03 525.28 763.61 1027.57 414.71 1226.52 359.90 1072.32 507.51 1085.22 681.89 1244.05 636.99
00001449 00000050 972.54 75.56 526.37 766.06 1028.04 413.06 1224.51 361.09 1070.45 507.80 1084.83 679.31 1242.25 636.91
00001450 00000051 972.23 74.10 527.93 770.18 1027.92 413.70 1224.68 360.09 1070.46 509.14 1087.57 680.61 1249.04 636.43
00001451 00000052 970.14 77.54 524.66 769.16 1025.89 416.40 1226.42 361.15 1073.51 510.96 1087.07 682.77 1250.80 637.42
00001452 00000053 967.16 78.90 526.01 767.04 1021.96 416.81 1224.01 361.96 1069.82 512.71 1082.61 683.59 1247.67 638.35
00001453 00000054 967.14 76.50 527.11 769.64 1021.85 416.56 1223.48 361.62 1069.25 513.26 1082.90 683.30 1249.31 637.88
00001454 00000055 968.04 75.42 528.73 772.89 1020.77 416.83 1222.41 361.08 1068.33 515.47 1082.53 682.09 1253.96 635.61
00001455 00000056 968.48 74.84 527.00 776.51 1021.54 418.21 1222.38 362.93 1067.58 515.35 1081.63 679.12 1258.99 632.46
00001456 00000057 968.11 74.76 528.16 776.35 1021.17 418.39 1221.94 363.53 1066.61 516.25 1081.05 680.20 1257.10 633.97
00001457 00000058 968.71 76.97 526.75 770.25 1023.53 415.88 1222.64 362.99 1067.88 514.48 1082.22 677.65 1253.62 633.38
00001458 00000059 968.52 78.33 531.11 769.80 1022.90 416.06 1222.24 361.87 1066.81 514.13 1082.52 677.54 1254.04 632.17
00001459 00000060 970.18 75.69 528.99 771.99 1025.05 416.98 1225.47 363.69 1069.24 515.16 1083.14 678.10 1259.33 633.44
00001460 00000061 972.08 77.28 528.74 767.21 1026.57 413.85 1227.20 364.43 1069.55 516.57 1083.12 676.30 1256.08 635.24
00001461 00000062 975.20 78.11 526.57 768.71 1028.37 415.27 1227.36 364.78 1069.63 517.42 1085.64 675.59 1262.34 633.14
00001462 00000063 978.00 77.61 524.35 767.68 1030.91 415.52 1229.47 365.51 1071.77 517.51 1086.93 674.50 1261.42 632.65
00001463 00000064 977.93 79.26 524.57 767.36 1030.81 416.41 1229.86 367.85 1071.08 519.35 1085.02 676.08 1259.67 635.48
00001464 00000065 977.28 76.53 525.28 771.78 1029.80 416.80 1228.55 368.43 1070.32 521.18 1084.09 675.97 1260.97 635.17
00001465 00000066 976.45 80.21 524.72 765.76 1029.60 417.34 1229.90 370.08 1071.40 522.23 1084.37 676.71 1259.31 637.10
00001466 00000067 976.42 79.93 524.92 769.11 1029.93 419.55 1230.28 370.82 1072.73 523.56 1085.37 678.71 1259.74 638.05
00001467 00000068 973.63 83.93 530.99 770.93 1026.91 423.44 1229.00 370.96 1071.70 526.08 1085.12 683.57 1262.51 639.53
00001468 00000069 977.33 91.77 519.69 764.46 1029.66 426.75 1224.46 377.07 1070.70 533.22 1098.91 682.65 1260.84 639.87
00001469 00000070 976.01 99.15 520.79 753.20 1023.98 430.59 1225.49 377.70 1068.06 532.40 1082.85 684.71 1257.10 641.50
00001470 00000071 971.69 86.97 525.20 770.16 1025.92 427.12 1225.02 374.63 1070.93 531.70 1086.44 687.32 1259.49 642.90
00001471 00000072 972.66 95.33 522.30 768.57 1024.16 433.39 1218.29 382.53 1064.23 537.11 1094.87 687.28 1259.37 643.31
00001472 00000073 968.70 96.67 518.14 765.24 1020.83 434.83 1216.41 383.58 1063.93 536.83 1092.56 687.66 1257.87 643.44
00001473 00000074 959.10 92.45 539.32 770.91 1016.28 437.39 1215.21 380.25 1061.50 536.08 1082.27 693.77 1257.20 645.27
00001474 00000075 956.16 92.66 534.78 769.84 1010.94 438.71 1211.58 382.63 1055.73 538.48 1078.21 696.36 1254.10 648.26
00001475 00000076 952.57 94.31 534.42 769.58 1008.38 438.00 1207.25 383.29 1050.70 539.18 1073.55 694.88 1247.46 648.21
00001476 00000077 950.55 94.90 540.56 767.82 1003.53 440.10 1202.12 382.41 1045.70 540.35 1071.62 698.77 1242.12 650.11
00001477 00000078 947.59 94.29 543.25 771.44 1002.06 440.14 1198.59 383.35 1042.27 543.11 1070.86 699.34 1240.63 651.30
00001478 00000079 943.83 98.06 540.61 770.66 996.99 446.11 1195.49 383.54 1041.85 546.98 1071.94 708.02 1238.30 655.00
00001479 00000080 943.55 104.19 537.97 770.70 996.59 452.04 1192.29 390.93 1038.54 552.47 1071.76 715.20 1233.30 663.48
00001480 00000081 941.06 106.78 533.28 770.01 994.48 452.43 1187.89 395.91 1034.29 555.38 1066.35 712.89 1227.37 664.70
00001481 00000082 938.73 107.84 526.18 770.46 990.71 453.64 1184.84 401.36 1031.07 560.71 1059.57 710.35 1224.20 665.56
00001482 00000083 934.89 115.87 525.84 765.46 987.35 464.48 1182.16 408.47 1030.89 564.37 1058.97 715.27 1227.16 666.87
00001483 00000084 934.35 115.88 521.11 759.67 983.11 464.53 1180.97 408.96 1030.30 561.81 1050.89 712.47 1219.41 664.87
00001484 00000085 931.41 124.31 520.76 747.69 978.74 456.13 1173.94 408.09 1019.11 558.17 1035.86 700.30 1208.58 659.60
00001485 00000086 924.88 119.78 521.03 753.48 973.48 456.29 1168.13 405.65 1015.76 557.77 1032.58 704.11 1202.86 661.44
00001486 00000087 925.04 118.77 520.11 759.49 972.10 456.75 1168.79 405.82 1015.03 560.38 1032.35 706.71 1205.76 663.47
00001487 00000088 922.18 123.85 521.11 755.91 967.94 460.92 1166.12 407.52 1013.70 562.77 1033.35 710.45 1208.38 664.80
00001488 00000089 920.38 130.73 518.87 753.45 967.48 464.89 1165.75 411.16 1013.93 566.99 1034.41 718.19 1205.80 672.43
00001489 00000090 915.50 130.81 524.31 759.85 962.54 467.23 1161.31 411.65 1009.44 568.97 1032.85 722.58 1207.79 674.96
00001490 00000091 913.57 132.41 523.72 752.71 962.01 467.79 1160.23 412.33 1009.50 568.67 1031.83 720.45 1204.27 673.25
00001491 00000092 916.11 128.29 528.03 756.50 961.46 464.09 1156.08 409.91 1002.53 566.42 1029.71 719.31 1198.60 673.08
00001492 00000093 915.27 129.04 523.43 756.11 960.79 463.32 1155.85 409.33 1001.57 566.85 1028.54 719.99 1200.34 673.91
00001493 00000094 914.63 130.05 519.96 753.12 960.07 463.29 1155.64 410.16 1001.42 568.72 1028.23 720.71 1198.36 675.64
00001494 00000095 908.97 134.26 520.49 752.01 958.05 465.38 1153.37 413.17 1000.98 572.34 1028.31 723.88 1196.53 679.79
00001495 00000096 904.75 135.27 528.29 753.84 956.53 467.02 1150.89 415.81 998.24 574.34 1026.77 725.22 1194.29 681.70
00001496 00000097 901.20 135.03 529.18 756.53 951.76 471.78 1147.69 417.55 997.11 577.72 1024.16 733.22 1188.19 687.71
00001497 00000098 897.36 135.48 530.20 759.08 951.29 473.21 1144.95 417.98 995.79 579.18 1024.10 733.88 1189.40 687.15
00001498 00000099 898.63 137.76 525.48 753.42 952.24 472.11 1146.72 417.41 995.98 576.18 1022.82 734.15 1184.94 688.24
00001499 00000100 900.49 137.23 518.80 752.88 950.94 470.05 1147.10 414.17 995.45 571.97 1021.83 731.14 1185.78 684.42
00001500 00000101 902.50 133.03 523.27 755.59 950.01 469.13 1145.60 413.83 992.29 569.57 1020.18 730.20 1182.44 683.99
00001501 00000102 904.02 126.50 518.44 769.34 952.87 472.24 1142.27 417.77 989.33 573.22 1023.85 728.89 1182.10 681.52
00001502 00000103 900.38 134.98 524.08 755.56 950.91 470.20 1145.19 417.71 992.33 572.49 1019.38 731.08 1182.36 687.02
00001503 00000104 902.43 131.56 516.52 762.33 952.54 476.55 1141.80 425.81 989.53 581.16 1025.56 731.83 1180.00 687.73
00001504 00000105 899.67 134.81 524.90 761.38 949.61 474.66 1146.45 422.32 991.04 580.41 1017.66 737.75 1183.20 693.58
00001505 00000106 899.59 137.16 526.68 759.72 949.06 476.42 1145.76 421.99 990.80 579.56 1018.55 738.21 1185.94 692.02
00001506 00000107 901.33 136.06 518.65 763.12 951.77 478.43 1142.82 427.00 989.99 583.04 1026.78 734.69 1182.65 689.93
00001507 00000108 902.21 134.60 518.50 763.75 952.76 478.51 1142.27 427.25 989.83 582.03 1027.15 733.39 1182.36 688.78
00001508 00000109 903.73 136.48 524.41 761.92 952.71 479.10 1143.56 428.53 988.47 582.90 1026.81 734.23 1183.07 690.16
00001509 00000110 905.87 141.05 522.43 756.66 953.00 478.95 1147.60 425.90 992.56 582.31 1018.99 740.49 1183.91 695.79
00001510 00000111 908.84 141.05 524.67 759.35 955.48 479.30 1151.31 427.87 995.03 585.50 1021.44 739.85 1188.89 696.47
00001511 00000112 910.95 141.63 524.60 759.78 955.99 480.59 1153.02 430.25 995.85 586.15 1020.05 741.09 1188.16 698.82
00001512 00000113 913.45 146.01 525.49 756.48 961.40 482.04 1149.38 436.92 994.09 589.14 1031.91 733.44 1186.73 693.94
00001513 00000114 915.72 138.19 528.01 767.15 958.92 484.62 1154.51 431.66 996.67 587.06 1023.72 744.01 1192.79 699.05
00001514 00000115 916.28 142.39 520.80 763.06 963.58 484.11 1157.95 433.03 1004.36 588.40 1026.96 743.61 1194.25 700.47
00001515 00000116 921.67 140.10 523.50 765.48 966.55 485.46 1158.34 434.45 1003.04 588.30 1030.57 742.65 1196.59 699.14
00001516 00000117 926.61 145.44 523.63 764.58 976.81 482.60 1160.03 440.71 1005.00 591.47 1040.97 734.17 1194.35 697.28
00001517 00000118 926.07 134.93 530.23 771.57 977.81 482.93 1162.47 433.03 1007.09 591.74 1041.96 742.42 1197.62 698.96
00001518 00000119 929.15 138.20 519.39 764.36 976.27 484.80 1166.92 433.05 1011.51 584.29 1037.42 741.63 1197.48 697.94
00001519 00000120 929.53 135.24 526.27 769.25 982.37 480.64 1173.19 429.16 1018.62 584.32 1046.45 741.67 1204.06 697.31
00001520 00000121 933.60 136.61 524.65 767.77 984.86 481.03 1176.64 428.33 1022.57 585.08 1048.79 743.62 1205.88 698.66
00001521 00000122 933.28 137.20 523.72 766.08 984.89 481.22 1179.48 427.84 1027.02 583.78 1050.34 742.22 1210.14 696.65
00001522 00000123 944.07 137.70 517.50 759.68 989.28 481.35 1180.00 429.05 1031.86 586.12 1049.57 739.47 1211.50 698.47
00001523 00000124 946.69 140.19 518.75 753.25 989.97 480.64 1181.48 428.05 1033.41 585.93 1051.50 739.22 1211.96 698.34
00001524 00000125 940.38 134.07 527.67 764.57 990.01 472.35 1186.35 423.33 1030.45 579.81 1052.71 739.58 1209.40 698.19
00001525 00000126 941.20 134.53 531.08 767.28 990.38 472.07 1189.73 422.46 1033.61 582.47 1055.88 743.26 1214.02 701.68
00001526 00000127 951.13 136.61 522.53 761.64 995.41 479.70 1185.78 426.45 1035.59 587.42 1058.89 741.80 1215.86 700.78
00001527 00000128 947.79 137.73 525.33 761.71 993.55 475.97 1185.56 427.61 1030.05 589.47 1070.45 741.71 1214.17 700.42
00001528 00000129 948.72 138.42 520.44 759.29 992.99 479.27 1185.77 431.67 1030.45 590.08 1068.56 740.09 1214.82 699.58
00001529 00000130 948.47 138.84 523.68 759.16 992.99 480.43 1185.40 431.71 1029.89 590.21 1070.55 740.88 1214.90 699.53
00001530 00000131 947.26 139.00 524.81 758.94 992.73 479.48 1187.58 432.33 1030.53 591.45 1069.78 741.10 1215.34 701.23
00001531 00000132 947.57 139.89 522.38 758.60 991.85 481.58 1185.80 433.49 1029.73 592.70 1069.06 743.01 1213.49 702.31
00001532 00000133 954.43 142.97 521.79 754.41 996.65 486.03 1186.77 433.59 1036.04 591.73 1060.33 745.02 1216.11 704.60
00001533 00000134 948.45 144.47 523.84 755.71 993.15 482.86 1185.75 437.52 1028.33 593.54 1069.61 742.35 1213.66 703.87
00001534 00000135 948.29 142.37 525.71 759.84 994.50 483.42 1186.41 438.28 1028.12 593.37 1070.36 742.77 1214.47 704.41
00001535 00000136 949.39 147.57 522.47 750.67 994.33 480.78 1185.21 437.54 1026.74 594.41 1069.37 740.39 1211.41 703.71
00001536 00000137 951.65 148.02 521.26 747.99 993.55 482.58 1184.91 430.86 1035.69 592.99 1058.36 744.88 1214.69 705.11
00001537 00000138 943.87 142.16 528.99 762.23 994.38 476.85 1187.24 427.52 1032.74 590.04 1060.59 746.19 1216.04 704.45
00001538 00000139 944.48 142.32 529.44 759.60 995.22 476.26 1186.85 427.19 1032.84 588.60 1060.87 743.14 1216.56 701.76
00001539 00000140 947.10 140.53 525.24 759.25 993.22 478.67 1182.12 432.27 1026.93 592.67 1068.64 740.23 1211.30 700.86
00001540 00000141 949.54 142.28 525.60 753.26 993.32 480.28 1183.57 433.13 1026.81 592.99 1070.50 740.07 1212.64 700.19
00001541 00000142 952.19 141.94 519.89 754.92 995.24 479.71 1185.44 432.94 1028.67 590.24 1070.81 740.18 1214.28 700.38
00001542 00000143 949.79 143.78 520.61 752.06 992.87 480.19 1184.14 432.74 1027.51 591.68 1069.07 739.94 1212.85 699.71
00001543 00000144 949.62 142.13 518.02 757.43 992.73 482.01 1184.09 433.75 1028.62 591.63 1069.18 741.81 1211.76 701.22
00001544 00000145 949.14 149.20 512.79 744.14 991.61 478.93 1183.74 435.83 1027.12 593.57 1065.03 738.71 1205.80 702.65
00001545 00000146 950.14 151.14 510.93 743.14 994.08 486.89 1181.89 435.34 1035.44 591.54 1055.38 743.36 1208.71 703.40
00001546 00000147 944.76 149.36 507.39 741.07 985.04 483.06 1178.52 437.87 1022.53 592.72 1057.36 740.30 1198.54 702.52
00001547 00000148 945.05 152.20 514.96 738.89 990.47 489.78 1176.31 439.96 1031.30 591.53 1049.78 742.53 1199.24 704.23
00001548 00000149 937.52 147.28 522.72 750.93 986.30 484.34 1176.77 437.81 1019.72 590.67 1047.98 745.95 1195.58 706.79
CROP_BBOX: 545 0 1828 1080
