Video ID: 	Gfh-EA2tKUU
H: 	2160
W: 	3840
FPS: 	25.0

FRAME INDEX X0 Y0 W H [Landmarks (5 Points)]

00010239 00000000 1322.81 377.33 583.62 809.15 1554.78 656.60 1827.18 714.33 1725.90 817.06 1510.90 924.97 1788.92 973.83
00010240 00000001 1312.13 377.11 591.27 813.42 1558.11 652.13 1825.76 711.70 1733.69 805.29 1511.30 919.01 1790.39 970.79
00010241 00000002 1327.46 382.11 576.53 798.87 1563.03 660.43 1831.92 718.79 1739.57 813.54 1522.49 925.71 1798.25 974.54
00010242 DELETE   1330.16 398.26 576.88 781.77 1576.45 662.21 1839.12 722.71 1750.75 817.24 1536.83 929.16 1802.57 978.70
00010243 00000004 1331.99 377.01 586.43 811.29 1587.59 661.39 1853.14 725.89 1763.64 821.75 1548.33 931.22 1810.34 984.28
00010244 00000005 1336.07 368.57 587.87 821.80 1591.76 662.27 1858.16 719.31 1770.12 824.23 1560.70 931.67 1817.29 977.48
00010245 00000006 1336.14 369.90 589.66 813.53 1594.20 659.80 1859.28 715.90 1772.10 822.86 1567.08 929.85 1818.29 974.36
00010246 00000007 1336.81 368.87 587.93 808.06 1588.28 658.10 1855.38 711.49 1764.86 816.58 1565.67 928.22 1816.46 970.53
00010247 00000008 1334.46 367.79 588.39 800.47 1583.56 653.64 1850.76 706.86 1757.52 809.92 1569.07 931.91 1806.83 974.00
00010248 00000009 1334.98 372.70 585.43 789.14 1577.39 650.31 1845.54 704.21 1746.90 805.81 1562.43 929.21 1797.92 971.95
00010249 00000010 1328.98 360.07 591.33 803.80 1572.04 654.01 1838.04 703.76 1739.63 806.91 1556.92 931.41 1791.75 972.71
00010250 00000011 1335.45 371.33 588.05 792.47 1575.46 646.65 1844.31 706.07 1744.90 800.55 1559.82 931.31 1789.92 978.97
00010251 DELETE   1343.68 381.54 588.55 779.39 1587.17 649.87 1854.36 704.32 1756.06 805.55 1573.67 934.50 1804.35 977.61
00010252 DELETE   1348.57 375.56 593.87 795.50 1598.99 654.34 1865.09 703.20 1774.75 807.56 1593.52 939.47 1821.42 976.85
00010253 DELETE   1353.63 383.01 592.83 797.12 1614.05 661.99 1866.61 718.54 1789.06 809.35 1601.05 937.25 1821.53 981.60
00010254 00000015 1360.47 378.08 594.37 797.40 1622.76 662.24 1874.48 724.90 1797.90 805.58 1613.07 933.82 1826.94 983.37
00010255 00000016 1360.97 374.23 596.51 802.72 1621.37 661.66 1877.80 723.36 1796.58 805.15 1611.85 932.71 1832.04 981.61
00010256 00000017 1360.68 367.93 593.95 808.42 1616.77 660.46 1874.66 722.74 1789.30 806.78 1603.57 930.88 1825.43 980.82
00010257 00000018 1360.15 389.91 590.52 782.50 1612.95 657.49 1869.03 718.27 1780.95 809.23 1594.02 937.91 1814.33 985.00
00010258 00000019 1359.81 378.96 587.96 794.48 1600.73 656.78 1867.52 712.29 1771.22 810.28 1576.47 937.26 1817.65 981.57
00010259 00000020 1358.50 383.59 588.62 792.10 1598.82 656.91 1865.83 711.78 1768.51 810.13 1570.35 934.53 1816.92 978.85
00010260 00000021 1359.54 382.25 588.04 793.29 1598.78 656.03 1866.64 710.52 1769.76 808.62 1570.95 933.33 1818.98 977.38
00010261 00000022 1359.37 388.55 587.17 783.40 1599.59 655.81 1866.68 708.99 1772.25 808.03 1571.03 934.10 1821.62 977.05
00010262 00000023 1358.87 374.16 588.39 800.80 1599.30 655.16 1867.11 708.88 1772.24 807.35 1573.18 934.17 1819.21 977.72
00010263 00000024 1356.71 384.75 590.77 790.08 1599.82 654.46 1866.57 708.63 1772.72 807.63 1574.31 932.78 1818.82 976.12
00010264 00000025 1355.03 380.05 590.64 795.72 1598.16 652.93 1866.54 708.34 1772.22 807.17 1572.81 932.90 1818.14 977.20
00010265 00000026 1354.06 369.44 587.63 806.77 1596.17 650.48 1864.45 704.05 1768.98 805.04 1571.78 930.85 1816.86 974.03
00010266 00000027 1351.53 377.12 590.62 799.33 1594.75 651.06 1863.59 704.72 1767.36 804.36 1567.86 928.50 1816.40 971.83
00010267 00000028 1347.48 361.83 588.26 808.10 1596.58 655.77 1863.95 703.31 1774.74 812.21 1566.63 928.33 1822.92 969.64
00010268 00000029 1349.45 374.86 591.34 796.00 1596.84 653.15 1866.86 707.78 1770.39 805.49 1573.00 926.05 1824.62 969.41
00010269 00000030 1347.79 367.09 592.18 805.82 1597.03 652.40 1867.68 707.76 1771.64 805.77 1573.01 924.70 1825.42 968.64
00010270 00000031 1347.02 370.99 594.33 801.72 1598.37 652.85 1867.08 707.99 1772.61 806.60 1576.94 927.40 1824.55 970.88
00010271 00000032 1347.98 369.89 592.71 803.52 1597.86 655.34 1865.35 705.99 1772.53 807.89 1581.62 928.54 1825.15 968.06
00010272 00000033 1347.39 368.83 592.82 804.71 1596.78 656.35 1864.95 707.61 1770.99 808.56 1578.40 928.39 1824.25 968.71
00010273 00000034 1347.41 365.39 591.31 808.70 1595.46 658.06 1864.05 710.39 1769.86 808.12 1575.38 930.06 1821.81 971.77
00010274 00000035 1347.96 373.18 591.10 801.28 1595.78 658.51 1863.24 710.41 1768.88 809.48 1575.92 930.75 1821.50 971.80
00010275 00000036 1349.82 376.77 590.25 800.27 1596.08 660.73 1862.64 710.58 1769.65 811.38 1578.21 932.01 1824.53 971.11
00010276 00000037 1350.98 382.39 590.72 793.44 1599.05 662.87 1865.74 715.63 1771.09 812.33 1576.05 932.61 1826.89 974.20
00010277 00000038 1349.13 384.78 593.31 795.71 1598.30 662.76 1861.99 714.34 1767.87 813.29 1569.97 932.56 1817.97 974.38
00010278 00000039 1351.17 377.51 588.50 796.63 1599.70 668.42 1863.45 715.22 1772.42 819.05 1569.16 933.83 1821.40 974.10
00010279 00000040 1350.38 372.26 588.58 801.86 1598.08 668.27 1862.96 713.08 1773.08 819.40 1569.77 934.57 1821.76 973.42
00010280 00000041 1349.13 371.97 590.26 802.20 1598.23 667.28 1862.90 710.99 1774.13 818.70 1571.66 934.72 1822.19 972.72
00010281 00000042 1349.70 372.17 589.49 802.59 1597.85 667.18 1862.98 710.08 1773.95 818.33 1570.97 934.94 1823.04 972.47
00010282 00000043 1347.77 369.41 590.65 805.72 1597.69 664.13 1863.70 707.52 1775.84 817.94 1570.79 934.80 1824.01 972.67
00010283 00000044 1347.68 368.87 589.90 803.87 1597.96 663.73 1863.39 707.06 1775.69 817.28 1571.73 933.89 1823.88 971.59
00010284 00000045 1347.34 369.23 590.08 802.38 1597.92 663.04 1863.44 706.74 1775.67 817.10 1572.06 933.76 1823.41 971.68
00010285 00000046 1347.53 369.96 589.51 803.46 1598.32 663.41 1863.03 707.36 1776.01 817.65 1571.32 933.62 1822.86 971.79
00010286 00000047 1348.72 368.92 588.82 806.38 1597.61 663.48 1863.53 707.18 1775.52 818.12 1570.49 934.75 1823.06 972.78
00010287 00000048 1350.50 369.75 587.13 803.70 1599.01 665.37 1865.10 709.75 1776.39 819.36 1571.15 934.30 1824.82 972.72
00010288 00000049 1349.47 366.24 588.69 809.25 1599.37 664.55 1866.75 710.56 1777.94 819.94 1571.35 935.27 1825.81 975.03
00010289 00000050 1348.49 367.16 589.51 807.94 1600.88 664.62 1866.49 711.24 1778.37 820.70 1572.65 935.71 1824.72 975.92
00010290 00000051 1348.46 364.26 590.26 811.52 1600.26 664.18 1867.18 711.65 1778.02 821.90 1571.66 936.86 1823.87 977.84
00010291 00000052 1348.83 358.65 591.44 818.60 1600.61 664.17 1866.59 712.04 1776.76 823.37 1570.68 936.77 1821.64 978.29
00010292 00000053 1349.52 356.41 591.76 821.33 1600.24 664.60 1866.47 711.93 1776.46 823.48 1570.45 936.89 1822.00 978.05
00010293 00000054 1349.85 356.87 592.16 820.48 1600.83 665.47 1866.63 711.58 1776.94 823.75 1571.92 937.39 1822.85 977.54
00010294 00000055 1351.94 365.19 590.11 809.35 1601.16 666.79 1866.69 712.58 1777.01 822.62 1573.47 937.28 1824.30 976.93
00010295 00000056 1353.27 366.26 588.99 808.72 1601.70 667.05 1867.29 713.39 1778.99 823.22 1573.18 937.07 1825.37 977.17
00010296 00000057 1354.80 366.19 588.98 809.51 1602.94 668.25 1869.08 715.96 1779.48 824.50 1573.50 937.53 1826.42 978.67
00010297 00000058 1353.32 370.26 594.18 815.81 1602.03 664.12 1868.06 717.13 1776.53 820.48 1575.98 936.44 1825.15 979.62
00010298 00000059 1353.49 370.13 594.32 816.03 1602.07 663.05 1869.18 716.32 1776.47 820.93 1576.87 936.92 1825.08 980.13
00010299 00000060 1352.95 363.67 595.19 824.29 1601.98 663.92 1869.11 716.60 1776.88 822.09 1577.44 936.40 1825.53 979.26
00010300 00000061 1353.57 359.17 593.72 827.43 1601.62 665.66 1870.11 718.28 1776.78 824.17 1576.85 935.02 1827.44 977.86
00010301 00000062 1355.55 359.03 593.05 823.65 1601.89 665.59 1871.25 718.42 1779.04 824.21 1578.21 936.96 1829.76 980.05
00010302 00000063 1358.44 362.14 591.86 819.54 1604.19 667.64 1873.13 721.34 1781.09 825.83 1580.28 936.72 1831.03 980.43
00010303 00000064 1360.52 368.30 590.84 814.59 1608.22 668.06 1873.28 723.53 1782.39 826.64 1584.65 936.66 1829.20 981.37
00010304 00000065 1359.89 359.63 591.64 826.53 1608.01 669.03 1873.66 727.80 1782.78 827.64 1585.40 937.11 1828.52 985.12
00010305 00000066 1358.51 374.02 591.32 807.90 1602.32 671.05 1870.97 724.85 1775.45 825.88 1576.12 939.31 1827.04 983.51
00010306 00000067 1355.49 373.57 589.25 797.93 1599.26 673.52 1868.27 722.81 1773.06 828.43 1570.38 940.76 1822.52 982.91
00010307 00000068 1350.56 370.33 593.97 801.17 1596.36 670.81 1866.40 719.71 1769.25 826.55 1567.90 938.94 1819.20 980.89
00010308 00000069 1350.40 375.39 594.11 797.32 1596.47 671.48 1865.71 719.87 1768.66 826.63 1569.37 941.41 1817.27 982.74
00010309 00000070 1354.76 376.88 591.05 800.36 1598.43 670.76 1867.62 722.30 1772.39 826.64 1570.74 945.24 1815.67 989.54
00010310 00000071 1358.26 362.35 593.28 819.36 1610.40 672.84 1868.78 722.19 1778.98 828.38 1587.64 948.37 1813.00 990.78
00010311 00000072 1361.91 364.39 589.14 814.02 1616.32 671.98 1875.03 722.79 1787.87 827.26 1592.61 947.00 1821.33 990.42
00010312 00000073 1362.46 348.87 595.63 836.74 1615.85 660.26 1878.11 729.64 1788.32 818.27 1599.87 941.17 1818.90 997.35
00010313 00000074 1363.81 373.37 592.65 808.48 1617.19 657.43 1876.76 725.27 1786.05 814.06 1598.75 939.09 1814.56 992.62
00010314 00000075 1361.25 369.73 593.88 808.81 1615.54 655.48 1873.06 722.92 1785.35 811.16 1596.00 935.71 1812.76 989.16
00010315 00000076 1365.45 358.66 590.66 814.82 1615.75 651.29 1877.26 725.79 1788.45 807.01 1595.52 929.28 1816.97 989.47
00010316 00000077 1368.03 366.89 590.60 807.95 1621.77 653.56 1880.12 729.00 1795.62 804.91 1598.29 929.61 1822.24 990.93
00010317 00000078 1371.93 369.85 589.37 807.71 1628.42 654.52 1884.51 729.56 1802.08 803.57 1612.23 936.42 1822.68 996.17
00010318 00000079 1373.95 356.06 588.38 831.27 1631.76 660.01 1890.42 730.16 1808.14 811.24 1616.53 943.73 1834.14 1000.64
00010319 00000080 1374.96 364.21 586.78 820.18 1632.18 661.99 1890.21 728.01 1805.14 815.22 1619.63 944.65 1833.83 997.28
00010320 00000081 1372.67 359.08 587.18 825.58 1626.05 658.82 1886.80 728.10 1800.44 813.59 1612.35 943.11 1828.75 998.53
00010321 00000082 1367.67 359.92 591.85 827.17 1621.04 659.52 1879.85 729.61 1792.50 813.85 1607.27 942.79 1819.25 998.72
00010322 00000083 1363.71 366.62 595.15 817.45 1615.35 662.52 1877.36 725.81 1782.75 819.07 1601.74 946.46 1814.90 996.21
00010323 00000084 1361.17 366.35 595.32 817.53 1607.47 664.42 1874.76 722.24 1776.05 823.05 1593.05 949.42 1813.46 994.94
00010324 00000085 1359.14 375.34 593.80 798.01 1606.45 676.82 1871.92 725.24 1777.22 828.45 1589.20 952.03 1816.23 992.27
00010325 00000086 1358.74 357.20 594.44 826.96 1602.21 670.91 1871.88 724.21 1774.88 828.55 1590.86 955.68 1816.97 998.16
00010326 00000087 1358.51 369.39 591.18 814.51 1603.66 673.68 1868.72 723.34 1775.95 830.74 1594.24 956.52 1816.20 995.85
00010327 00000088 1358.65 364.16 592.15 815.73 1601.81 675.96 1868.34 724.88 1774.10 832.57 1591.69 956.51 1816.46 995.65
00010328 00000089 1356.29 373.86 588.10 808.39 1598.49 677.57 1865.21 725.14 1770.38 833.18 1587.84 959.36 1814.17 997.62
00010329 00000090 1347.00 358.94 601.23 822.24 1598.19 677.42 1870.19 728.15 1770.46 834.21 1587.88 958.19 1815.27 998.02
00010330 00000091 1343.15 366.80 601.33 813.51 1596.39 677.00 1866.61 732.40 1767.95 833.05 1580.43 957.20 1809.35 1001.31
00010331 00000092 1343.94 369.49 596.45 804.62 1596.01 675.09 1865.13 733.73 1767.44 832.07 1577.12 953.12 1807.11 1000.26
00010332 00000093 1342.32 365.37 596.34 808.33 1595.92 673.92 1863.41 736.73 1768.09 829.01 1577.53 950.76 1804.00 1001.83
00010333 00000094 1338.48 352.98 600.17 822.78 1593.28 671.96 1863.73 734.98 1768.87 827.40 1576.58 950.73 1803.85 1002.01
00010334 00000095 1337.28 363.79 597.70 808.39 1591.72 671.79 1862.09 735.18 1768.03 824.23 1574.24 948.62 1803.19 1000.41
00010335 00000096 1333.72 361.56 597.03 808.98 1591.00 671.19 1859.41 734.57 1767.66 822.54 1575.67 945.78 1802.48 997.52
00010336 00000097 1332.67 365.29 596.06 805.87 1588.47 669.81 1855.93 735.51 1763.38 821.50 1570.96 944.67 1798.40 998.30
00010337 00000098 1330.94 364.62 593.98 805.39 1586.55 668.94 1852.49 737.05 1760.30 821.11 1567.44 940.99 1795.14 996.83
00010338 00000099 1332.14 357.83 592.62 811.85 1585.80 669.54 1851.45 738.25 1758.02 822.22 1565.30 939.35 1793.39 996.14
00010339 00000100 1332.72 356.69 595.81 810.38 1588.08 669.73 1856.75 741.37 1763.00 821.21 1569.84 941.91 1795.88 1001.02
00010340 00000101 1336.90 364.12 600.09 807.93 1593.02 670.70 1863.25 741.61 1768.52 821.85 1573.19 944.75 1802.39 1003.08
00010341 00000102 1345.66 366.22 597.13 807.29 1600.77 672.21 1867.10 744.76 1775.51 823.03 1582.21 946.32 1805.76 1005.71
00010342 00000103 1357.83 365.30 589.29 810.94 1608.15 674.84 1868.05 743.78 1778.44 833.08 1591.10 949.77 1807.24 1005.73
00010343 00000104 1362.48 371.93 590.28 807.41 1611.88 676.96 1873.32 748.37 1781.69 833.62 1592.29 948.74 1813.99 1007.11
00010344 00000105 1366.76 377.36 589.97 803.02 1614.66 677.25 1876.47 751.24 1782.30 835.02 1592.42 948.79 1815.37 1009.25
00010345 00000106 1367.67 376.44 591.01 802.49 1615.19 674.35 1879.15 751.69 1780.11 838.44 1585.32 945.07 1813.35 1008.58
00010346 00000107 1370.09 383.96 590.31 799.90 1614.96 670.92 1880.91 752.15 1773.21 839.08 1573.97 941.86 1808.37 1009.23
00010347 00000108 1373.12 382.04 588.90 808.36 1614.19 665.81 1882.17 753.30 1768.84 838.73 1562.75 935.94 1804.45 1009.24
00010348 00000109 1379.36 379.11 585.38 816.81 1618.36 662.07 1886.33 757.99 1773.27 835.60 1562.94 934.24 1806.00 1015.31
00010349 DELETE   1392.20 376.73 577.50 833.11 1631.27 665.13 1889.78 760.13 1786.97 834.56 1572.25 934.21 1814.97 1015.79
00010350 DELETE   1402.68 375.34 568.99 834.59 1643.51 663.68 1896.09 762.37 1804.16 830.75 1587.67 934.89 1824.67 1019.47
00010351 00000112 1400.18 368.69 574.35 843.79 1650.95 663.71 1899.84 764.47 1815.90 830.98 1599.07 936.56 1829.52 1023.00
00010352 00000113 1395.06 363.91 580.97 840.16 1648.32 664.33 1902.14 768.04 1815.02 830.29 1606.09 938.70 1830.37 1026.47
00010353 00000114 1393.87 363.83 580.54 830.43 1645.62 669.65 1901.19 767.67 1812.80 832.32 1605.02 938.02 1831.60 1021.23
00010354 00000115 1388.54 368.61 586.71 836.83 1636.40 670.65 1894.07 763.69 1798.60 833.12 1592.66 941.62 1822.86 1020.89
00010355 00000116 1387.67 381.04 578.08 817.32 1627.20 682.21 1885.62 754.91 1786.28 840.04 1584.88 952.07 1818.23 1014.27
00010356 00000117 1378.31 382.41 583.85 810.15 1616.09 674.77 1881.73 748.87 1780.04 833.51 1573.10 947.78 1811.59 1011.58
00010357 00000118 1369.93 383.88 586.63 793.80 1607.45 663.63 1877.22 728.16 1774.05 826.17 1569.19 945.86 1808.32 1000.60
CROP_BBOX: 1013 51 2240 1400
