Video ID: 	8JBOtuqzJ-g
H: 	1080
W: 	1920
FPS: 	25.0

FRAME INDEX X0 Y0 W H [Landmarks (5 Points)]

00000140 00000000 525.80 128.36 393.95 574.43 652.66 349.32 839.46 362.22 767.36 460.47 654.06 548.03 825.17 558.76
00000141 00000001 528.68 129.77 393.70 574.47 657.12 348.78 843.28 361.61 772.03 462.76 657.51 548.61 829.06 559.37
00000142 00000002 531.24 129.95 394.00 573.51 659.54 349.52 846.47 361.79 775.08 464.19 660.98 549.50 832.19 559.91
00000143 00000003 531.71 125.68 397.48 577.31 663.58 348.99 850.84 363.39 772.15 463.57 664.83 547.37 833.38 559.74
00000144 00000004 534.11 124.27 398.00 579.60 665.03 349.50 853.30 364.84 773.64 462.91 667.20 547.73 836.57 560.63
00000145 00000005 536.23 123.40 398.04 583.25 667.24 349.54 854.90 365.59 776.05 463.33 670.39 548.80 838.49 562.21
00000146 00000006 536.51 122.41 398.98 585.00 668.35 348.74 856.29 365.51 777.49 462.04 671.64 548.94 839.09 562.97
00000147 00000007 537.63 122.17 400.02 584.18 668.94 346.17 858.54 363.44 779.23 460.46 672.47 549.14 840.52 563.51
00000148 00000008 539.30 121.86 400.64 583.52 671.26 344.39 860.25 362.65 780.45 459.24 674.34 548.10 840.66 563.34
00000149 00000009 540.20 119.33 402.05 588.34 673.18 341.68 862.62 361.06 783.73 457.55 678.05 548.96 842.76 565.02
00000150 00000010 544.04 130.89 399.54 581.70 680.12 341.74 862.68 359.81 789.37 454.29 684.81 554.85 830.82 569.24
00000151 00000011 544.63 127.92 402.10 583.27 680.39 338.04 863.99 356.70 788.96 451.11 683.80 549.91 831.48 564.74
00000152 00000012 545.41 124.81 403.90 582.53 680.24 335.03 865.06 352.32 788.48 448.53 684.86 546.80 832.46 560.65
00000153 00000013 543.53 112.94 405.59 595.45 679.27 336.50 865.95 356.84 789.70 450.47 685.75 547.70 844.48 564.46
00000154 00000014 544.22 115.87 405.53 591.99 683.89 344.86 875.01 364.64 797.46 460.85 688.25 552.57 851.83 568.91
00000155 00000015 552.72 126.28 401.93 596.33 695.91 351.52 880.51 373.34 810.17 470.60 698.14 563.98 849.84 580.81
00000156 00000016 558.57 130.92 399.57 600.04 707.60 357.78 884.17 378.00 819.27 475.17 710.38 571.76 853.35 586.93
00000157 00000017 567.01 129.61 397.15 597.79 714.31 359.04 893.55 377.79 829.80 478.05 720.35 572.48 867.99 586.41
00000158 00000018 572.63 126.58 395.35 599.03 719.56 358.07 899.38 376.24 838.23 474.64 725.13 569.75 875.13 583.44
00000159 00000019 575.43 128.18 396.24 598.35 727.06 354.65 905.58 374.31 846.18 472.61 730.15 567.93 879.36 583.15
00000160 00000020 581.46 129.01 395.17 596.11 742.41 351.80 912.40 375.42 858.02 476.35 735.78 565.53 878.83 584.96
00000161 DELETE   589.93 132.73 392.74 589.61 753.38 352.90 924.28 382.73 869.25 478.21 738.43 562.45 887.72 587.93
00000162 00000022 598.47 142.08 397.86 585.50 761.65 359.27 937.45 389.37 878.58 488.40 743.17 566.20 902.29 592.46
00000163 00000023 603.03 139.85 397.73 597.83 775.58 362.59 940.51 397.23 887.04 495.11 747.30 569.73 896.42 598.81
00000164 00000024 604.95 143.65 400.00 597.47 777.39 365.05 943.32 400.82 886.99 502.93 750.30 571.39 900.93 601.43
00000165 00000025 603.26 143.13 402.58 604.01 774.32 368.07 943.61 399.15 886.98 506.63 751.89 578.44 902.53 604.46
00000166 00000026 603.47 140.32 402.11 605.84 773.05 369.35 945.24 397.29 889.27 504.71 759.00 581.53 908.39 604.69
00000167 00000027 602.54 139.51 400.94 603.25 771.94 366.69 946.24 393.21 891.06 499.29 761.19 581.71 909.24 603.60
00000168 00000028 602.62 136.50 400.56 606.03 770.40 363.36 943.74 389.71 888.66 494.80 760.25 579.64 907.76 601.15
00000169 00000029 601.76 131.60 404.88 612.12 764.22 362.84 943.48 387.64 882.97 489.03 756.89 572.73 907.60 594.98
00000170 00000030 601.77 130.22 404.28 607.72 761.97 359.98 941.09 384.04 879.37 485.59 753.45 568.30 906.19 590.04
00000171 00000031 600.38 129.91 404.10 604.56 761.02 356.70 938.17 379.48 878.34 481.10 751.42 563.61 904.89 584.30
00000172 00000032 599.58 127.09 403.22 602.96 757.44 354.61 935.82 376.15 874.00 477.02 748.51 559.73 905.02 579.13
00000173 00000033 597.86 127.15 402.78 599.20 754.77 352.86 933.79 373.59 870.56 475.02 746.45 557.01 904.62 575.71
00000174 00000034 596.50 125.38 402.37 596.70 752.85 352.02 932.96 372.70 868.38 472.27 744.50 554.27 904.77 572.79
00000175 00000035 596.00 124.69 401.43 595.35 751.84 351.39 933.70 372.73 868.54 471.44 741.71 552.85 905.62 571.80
00000176 00000036 595.26 123.22 401.30 597.75 749.98 351.02 932.19 372.15 867.28 471.82 741.41 553.99 905.13 572.81
00000177 00000037 596.79 128.42 396.46 586.29 749.82 352.14 931.53 371.78 870.98 476.97 741.47 560.24 904.95 577.55
00000178 00000038 591.93 128.21 397.59 590.66 746.70 352.68 926.27 371.76 867.93 477.69 737.97 560.79 900.36 577.38
00000179 00000039 587.23 129.13 399.33 591.41 742.61 352.10 920.83 371.01 863.00 479.63 734.11 560.55 894.98 576.80
00000180 00000040 582.80 129.37 400.61 590.33 736.69 353.40 916.43 372.33 857.54 480.15 729.72 561.13 891.39 577.02
00000181 00000041 579.62 128.47 401.37 591.68 730.58 353.24 913.00 371.25 852.17 479.14 726.43 562.30 888.50 577.20
00000182 00000042 574.54 126.80 401.75 592.37 726.55 350.90 908.67 371.30 845.75 476.14 720.69 559.55 881.47 576.44
00000183 00000043 570.74 122.52 402.61 594.40 721.52 349.29 906.45 372.58 838.79 474.93 715.88 557.79 876.11 576.77
00000184 00000044 567.80 121.36 402.88 592.39 718.54 347.77 902.73 371.35 834.62 473.42 712.19 554.84 872.25 574.26
00000185 00000045 564.08 121.15 404.35 595.14 714.63 347.48 900.06 371.72 829.95 472.32 709.10 556.51 868.07 576.15
00000186 00000046 560.34 122.19 406.15 596.84 713.92 347.94 896.95 371.05 828.69 473.88 707.72 558.58 864.13 577.10
00000187 00000047 559.33 122.78 405.13 595.06 711.72 348.19 894.32 370.40 826.22 473.19 707.18 558.27 863.00 575.89
00000188 00000048 557.24 123.52 404.53 594.42 709.45 347.30 892.67 368.71 824.86 471.47 706.68 559.22 861.54 576.17
00000189 00000049 554.85 122.77 406.45 596.14 708.38 346.94 892.97 368.28 824.54 470.68 705.64 558.56 862.31 575.50
00000190 00000050 556.44 120.63 405.15 594.43 707.40 346.24 895.35 367.80 824.39 471.64 707.51 557.64 865.91 574.91
00000191 00000051 557.32 120.05 405.16 595.18 708.81 345.46 896.74 367.11 825.73 470.70 709.52 557.69 866.83 574.95
00000192 00000052 557.44 121.77 406.55 600.94 711.02 344.93 895.37 366.11 827.18 468.73 712.03 560.10 864.26 576.59
00000193 00000053 558.74 121.70 406.55 604.58 713.48 345.16 895.96 366.55 829.65 469.31 711.65 561.01 863.64 577.73
00000194 00000054 561.05 121.09 405.31 599.60 713.42 347.49 898.15 368.72 830.12 471.30 711.96 559.97 867.05 576.81
00000195 00000055 561.76 121.44 405.38 597.61 713.84 348.13 899.70 369.58 831.00 471.51 714.10 559.33 870.40 576.33
00000196 00000056 561.70 121.63 405.90 598.61 713.87 351.45 899.38 374.11 829.47 475.37 712.43 560.29 869.91 578.09
00000197 00000057 563.35 121.55 406.27 601.78 713.45 354.31 900.04 376.90 830.03 478.48 712.41 563.88 871.19 581.49
00000198 00000058 565.37 123.77 405.81 602.81 715.47 357.33 899.83 377.48 832.92 480.15 716.64 566.60 874.34 582.15
00000199 00000059 566.09 125.38 405.06 601.55 714.99 359.48 899.20 379.56 832.01 482.03 715.89 567.25 874.59 582.86
00000200 00000060 565.08 124.21 405.70 601.99 714.18 359.15 899.34 379.84 831.14 482.07 714.80 566.76 874.20 582.85
00000201 00000061 564.19 125.15 405.71 600.26 713.32 358.61 898.50 379.17 829.88 482.26 713.99 566.99 872.65 582.94
00000202 00000062 564.13 125.20 405.71 600.43 713.18 358.71 898.10 379.28 829.62 482.23 714.19 567.16 872.36 583.09
00000203 00000063 564.30 124.78 405.72 600.53 712.80 358.66 898.09 378.98 829.54 482.21 713.82 567.16 872.71 582.92
00000204 00000064 564.45 124.82 405.55 600.60 713.55 358.43 898.67 378.97 830.23 482.41 713.89 566.82 873.02 582.84
00000205 00000065 564.21 125.28 405.45 601.05 713.42 358.51 898.21 379.04 830.35 482.13 714.47 567.51 873.02 583.42
00000206 00000066 563.24 126.40 405.13 599.95 713.05 362.09 896.66 381.82 829.94 482.52 714.69 567.68 873.38 582.82
00000207 00000067 563.52 125.45 404.19 600.81 713.32 363.59 895.98 383.70 829.77 482.42 714.18 567.91 872.62 583.44
00000208 00000068 561.68 127.82 405.02 600.14 712.40 362.34 895.11 381.64 828.97 482.74 713.18 568.58 871.21 583.47
00000209 00000069 560.77 127.92 405.27 601.35 712.11 361.21 894.79 381.23 828.54 482.55 711.87 568.40 870.29 583.89
00000210 00000070 558.94 127.20 405.98 603.08 710.92 361.94 893.99 382.05 828.07 483.60 710.67 569.20 869.14 584.74
00000211 00000071 558.23 127.95 405.83 602.46 709.82 361.72 893.00 382.86 826.39 483.84 707.77 567.77 868.00 584.29
00000212 00000072 557.30 126.86 406.38 603.51 707.79 361.86 891.00 383.12 823.31 483.76 705.94 567.53 866.40 584.13
00000213 00000073 556.86 126.55 406.37 602.97 705.94 361.71 890.14 382.54 821.75 483.66 705.12 567.91 865.95 584.13
00000214 00000074 556.97 126.79 405.96 602.47 705.78 361.46 889.88 382.45 821.07 483.45 704.89 568.04 865.38 584.37
00000215 00000075 557.56 126.48 405.81 602.67 705.89 360.24 890.54 380.94 821.35 483.58 705.03 568.32 865.69 584.42
00000216 00000076 557.68 127.74 405.26 600.66 705.99 359.75 890.59 380.57 821.37 483.24 705.40 568.21 865.52 584.46
00000217 00000077 557.82 128.17 405.59 599.97 706.10 359.49 891.30 380.54 821.88 483.08 705.10 568.01 865.57 584.49
00000218 00000078 558.20 128.83 404.93 598.81 706.44 359.39 891.24 380.49 821.87 482.79 705.84 568.10 865.17 584.61
00000219 00000079 558.21 128.30 404.78 599.26 706.51 359.50 891.06 380.40 821.93 482.47 706.59 568.07 865.14 584.36
00000220 00000080 558.31 129.11 404.50 598.26 707.16 359.38 891.27 380.48 822.47 481.59 706.91 567.41 865.21 583.86
00000221 00000081 558.70 129.28 405.02 598.69 707.34 359.54 891.74 380.54 822.98 482.16 706.98 567.59 865.76 583.96
00000222 00000082 559.18 129.59 405.00 597.95 707.46 359.32 891.68 380.23 822.75 481.51 708.22 568.29 865.65 584.44
00000223 00000083 559.96 129.10 404.13 597.50 707.08 358.54 891.57 379.81 822.09 480.97 708.26 568.79 864.68 585.25
00000224 00000084 560.64 130.33 403.35 596.25 707.16 357.79 891.93 379.43 821.40 479.75 708.05 569.41 863.33 586.21
00000225 00000085 561.91 130.49 401.13 595.44 708.42 356.48 891.09 377.71 821.83 479.41 709.92 570.27 860.36 586.72
00000226 00000086 563.84 128.27 400.06 592.62 708.26 356.15 892.38 376.88 822.69 478.36 711.28 569.20 863.30 585.27
00000227 00000087 563.90 127.46 400.27 591.00 707.43 354.77 892.52 375.07 821.99 476.78 712.96 567.91 864.18 583.37
00000228 00000088 563.27 125.32 399.90 593.27 709.26 353.72 892.26 374.52 823.26 476.99 713.45 567.65 861.76 583.60
00000229 00000089 562.75 123.17 400.05 595.11 710.90 353.47 892.02 373.43 825.45 474.82 715.44 566.41 862.83 581.65
00000230 00000090 562.39 121.08 401.18 597.15 710.67 352.63 891.67 372.99 824.87 473.94 712.76 563.53 862.84 579.40
00000231 00000091 563.49 121.70 400.57 595.36 712.36 348.25 894.56 369.30 827.23 470.03 714.63 562.59 862.62 579.00
00000232 00000092 563.58 121.38 400.66 596.35 714.23 344.92 894.40 366.26 828.71 467.85 714.77 560.08 861.96 576.84
00000233 00000093 563.96 120.65 401.13 595.52 714.76 344.17 896.36 365.47 830.57 466.82 716.27 559.04 864.10 575.80
00000234 00000094 564.57 119.42 401.83 594.28 714.85 343.97 898.29 364.93 830.86 465.88 717.77 556.79 866.38 573.30
00000235 00000095 566.47 119.75 400.44 592.58 714.83 344.36 899.67 364.06 832.15 466.07 718.97 556.16 870.36 571.72
00000236 00000096 568.19 121.02 398.99 589.51 715.83 343.93 900.70 363.54 833.96 465.46 720.18 555.22 872.41 570.82
00000237 00000097 569.08 121.71 397.81 588.25 716.33 345.00 901.14 364.00 835.55 465.30 720.28 555.25 874.03 570.49
00000238 00000098 568.78 124.58 398.00 586.91 717.35 346.17 900.54 365.28 835.87 466.42 720.48 556.74 873.35 572.18
00000239 00000099 570.29 127.09 396.54 585.34 717.40 347.38 900.47 367.34 835.33 466.94 719.97 559.06 872.69 575.22
00000240 00000100 570.76 126.59 396.81 589.78 718.08 349.75 899.28 370.41 834.81 467.33 720.20 560.97 871.64 577.44
00000241 00000101 569.71 128.04 397.71 588.62 718.47 351.14 897.73 371.51 834.31 469.00 720.33 562.19 870.21 578.30
00000242 00000102 569.08 129.67 397.36 589.09 717.32 352.39 896.48 372.21 832.96 471.42 717.88 563.35 869.05 579.00
00000243 00000103 567.13 131.26 396.94 587.10 715.10 353.16 893.45 372.47 829.62 472.89 715.54 563.83 865.92 579.02
00000244 00000104 564.42 133.97 396.38 585.03 713.59 353.63 889.86 373.88 827.23 471.94 712.78 563.23 862.31 579.13
00000245 00000105 561.64 135.58 397.15 584.80 711.60 354.01 888.19 374.62 824.95 470.75 710.77 562.34 860.56 578.49
00000246 00000106 559.91 138.03 396.92 583.79 710.47 354.49 885.71 375.26 823.59 469.78 708.40 561.21 858.36 577.54
00000247 00000107 558.46 140.00 397.64 582.61 709.94 354.63 883.98 375.70 822.57 469.71 706.38 560.12 856.74 576.74
00000248 00000108 557.69 140.60 398.14 582.67 709.02 354.76 883.07 376.27 821.04 469.90 704.48 559.51 855.65 576.46
00000249 00000109 557.38 140.97 398.03 582.24 708.82 354.65 882.00 376.15 820.57 469.65 703.86 559.60 854.54 576.57
00000250 00000110 556.83 142.69 398.35 579.63 707.61 354.72 881.14 376.75 818.21 469.59 702.22 558.22 853.83 575.69
00000251 00000111 556.12 142.81 398.82 580.32 707.44 355.92 880.44 377.29 818.90 470.46 701.55 558.80 854.43 575.80
00000252 00000112 555.67 143.33 398.61 579.96 707.32 356.53 880.30 377.12 819.06 471.31 701.96 559.38 854.70 575.72
00000253 00000113 555.37 142.94 398.74 580.77 706.78 357.09 879.84 377.38 818.69 471.88 700.79 559.53 854.44 575.71
00000254 00000114 554.56 143.85 398.98 579.76 705.96 357.49 879.05 377.85 818.00 472.10 700.31 559.63 854.12 575.81
00000255 00000115 554.11 143.83 398.95 579.63 705.63 357.78 878.77 378.02 817.72 472.60 699.18 559.61 853.65 575.79
00000256 00000116 553.37 144.04 399.12 579.14 704.92 357.27 878.61 377.71 817.24 471.69 698.43 559.60 853.03 575.96
00000257 00000117 553.04 143.35 399.23 579.55 704.88 357.01 878.57 377.19 817.90 471.43 698.57 559.34 853.94 575.52
00000258 00000118 552.55 143.03 399.66 579.20 704.06 356.76 878.56 376.51 817.21 471.49 697.88 559.17 853.67 575.07
00000259 00000119 552.93 142.72 399.11 578.11 703.66 357.17 878.67 377.07 816.51 472.09 697.28 559.05 853.95 575.10
00000260 00000120 552.92 143.06 398.84 577.36 702.99 357.63 878.66 377.41 815.55 472.67 697.20 558.89 854.55 574.84
00000261 00000121 552.95 143.03 398.76 577.64 702.54 358.04 878.23 377.21 814.96 473.30 696.93 559.13 854.46 574.60
00000262 00000122 552.72 142.75 398.96 579.38 701.64 357.88 877.66 377.58 814.25 472.76 695.53 559.10 853.99 574.97
00000263 00000123 552.35 143.23 398.70 577.58 701.36 357.40 877.80 377.89 813.81 472.56 694.52 558.92 852.79 575.52
00000264 00000124 552.94 143.01 398.59 578.60 701.79 357.60 878.09 378.13 813.91 472.79 694.31 558.67 852.95 575.30
00000265 00000125 553.45 142.90 399.10 579.59 702.10 357.70 878.37 378.36 813.73 472.76 694.84 558.56 853.59 575.27
00000266 00000126 553.90 142.56 399.35 580.25 702.93 357.93 879.20 378.54 814.23 473.00 696.64 558.75 854.58 575.36
00000267 00000127 554.98 141.51 398.64 581.62 703.87 358.79 879.89 379.69 815.12 472.91 697.48 559.16 855.02 575.90
00000268 00000128 556.37 141.23 398.21 582.20 704.64 359.38 880.60 379.95 815.80 473.41 698.37 560.11 855.25 576.59
00000269 00000129 557.13 140.84 398.02 582.29 705.49 359.13 881.39 379.77 816.57 473.74 699.55 560.60 855.57 577.02
00000270 00000130 558.23 140.32 397.28 581.35 705.80 359.17 881.89 379.66 816.74 474.42 701.00 560.94 855.87 577.22
00000271 00000131 558.65 139.84 397.07 582.24 706.19 359.37 882.29 379.74 817.26 474.77 701.89 561.63 856.33 577.75
00000272 00000132 560.55 138.18 395.96 582.92 706.49 358.90 883.36 379.43 817.37 475.00 703.85 563.43 856.86 579.57
00000273 00000133 561.98 138.85 396.25 582.57 707.94 359.07 885.45 379.93 818.92 475.46 706.74 564.34 859.12 580.72
00000274 00000134 564.40 135.43 395.58 583.75 708.46 358.76 887.65 379.54 820.46 475.43 708.93 564.87 861.61 581.05
00000275 00000135 566.31 134.21 395.59 584.57 709.09 358.49 889.08 378.84 821.33 475.15 710.58 564.92 863.45 580.63
00000276 00000136 566.90 133.41 395.60 584.39 708.81 358.43 890.56 379.14 821.64 475.51 710.41 564.20 865.42 580.25
00000277 00000137 567.93 132.24 395.67 583.76 708.93 358.45 891.50 378.69 821.81 476.44 710.91 563.63 867.12 579.39
00000278 00000138 567.99 133.25 395.95 581.84 708.72 358.45 891.92 378.82 821.68 476.69 710.35 563.21 867.54 579.17
00000279 00000139 569.34 131.86 396.02 583.35 709.12 358.60 893.01 378.82 822.62 476.78 710.80 563.30 868.75 579.23
00000280 00000140 569.58 132.91 396.52 582.68 710.88 357.71 893.48 378.77 823.77 476.28 710.98 562.87 868.11 579.53
00000281 00000141 570.68 132.79 396.05 583.18 712.42 357.25 894.28 379.07 824.99 476.15 711.46 563.59 866.87 581.06
00000282 00000142 571.00 132.29 396.18 586.42 714.66 356.30 895.04 378.84 827.14 475.68 712.06 563.19 866.92 581.33
00000283 00000143 571.40 131.15 397.50 589.69 715.74 356.77 896.12 379.22 828.28 477.21 713.04 563.60 869.01 581.67
00000284 00000144 574.82 131.78 395.58 589.76 716.27 360.74 898.04 382.49 830.09 480.80 713.18 564.05 872.50 581.66
00000285 DELETE   575.83 141.37 397.39 585.03 719.37 373.88 898.94 394.58 832.59 492.35 717.01 572.00 874.67 588.71
00000286 DELETE   577.54 148.89 400.12 589.55 726.14 378.63 903.34 399.14 838.85 501.92 721.45 578.36 879.11 595.42
00000287 00000147 578.13 151.64 404.40 592.46 729.68 380.91 906.20 400.07 842.91 505.58 724.27 582.30 883.95 598.61
00000288 00000148 580.71 151.40 404.28 592.58 732.89 376.88 909.79 396.85 845.65 504.73 727.88 583.41 885.01 600.20
00000289 00000149 584.98 147.16 401.94 590.82 730.81 374.66 913.48 393.71 845.84 502.51 730.99 584.40 889.03 600.03
00000290 00000150 586.98 144.72 400.26 586.64 732.54 372.68 916.14 391.65 848.78 498.95 735.90 583.72 890.59 599.08
00000291 00000151 588.69 139.91 398.29 589.91 734.73 368.74 916.20 387.76 850.19 493.28 738.37 580.85 889.99 596.21
00000292 00000152 588.15 137.56 399.17 593.22 737.82 363.83 915.21 383.81 851.43 491.41 737.06 576.85 886.36 593.18
00000293 00000153 589.01 138.22 398.44 592.58 738.82 361.94 916.88 382.49 853.83 487.33 737.37 574.89 888.18 591.81
00000294 00000154 590.97 133.96 396.78 591.36 737.13 361.75 918.45 379.14 855.55 483.77 740.02 573.43 895.03 587.67
00000295 00000155 590.79 132.68 396.81 589.62 737.15 359.86 916.87 376.12 855.36 479.91 741.95 571.91 893.85 585.03
00000296 00000156 589.01 131.62 398.68 591.05 740.43 355.75 916.12 373.77 858.30 476.61 742.55 568.45 890.53 582.97
00000297 00000157 588.81 132.24 396.97 589.47 740.73 345.36 917.19 364.82 858.21 469.20 738.73 562.88 887.19 579.10
00000298 00000158 590.14 129.31 392.45 586.98 737.37 341.86 915.51 358.10 858.82 456.92 738.86 556.37 891.22 569.71
00000299 00000159 592.40 122.04 385.89 578.53 735.71 337.07 919.88 349.48 863.98 444.34 747.18 550.46 901.05 560.19
00000300 00000160 593.85 116.49 385.89 576.71 741.10 331.57 923.62 349.20 866.82 437.14 753.27 540.64 909.06 554.99
00000301 00000161 593.62 112.27 385.72 577.36 745.17 326.71 924.08 346.61 871.70 426.93 755.75 534.47 907.88 550.93
00000302 00000162 592.16 111.72 386.01 573.40 745.24 323.15 923.03 344.83 871.07 423.65 753.14 529.23 904.58 547.39
00000303 00000163 591.36 110.15 387.14 573.04 743.27 323.42 923.18 344.67 869.04 424.19 751.20 527.24 905.66 545.10
00000304 00000164 590.89 109.47 387.18 573.52 742.72 322.72 922.20 344.10 868.45 423.74 751.60 527.14 904.85 545.07
00000305 00000165 590.35 109.17 387.50 575.14 741.83 323.03 921.23 344.88 866.91 423.29 749.62 526.58 903.72 544.93
00000306 00000166 589.13 110.45 388.12 576.22 741.19 323.44 919.98 345.16 866.64 422.87 746.71 526.74 902.06 545.18
00000307 00000167 589.94 112.12 387.29 580.28 740.26 323.34 917.91 344.71 864.32 423.02 743.79 528.23 900.48 546.47
00000308 00000168 585.06 112.82 388.95 584.57 734.13 322.02 915.49 338.06 863.74 424.31 739.82 530.31 899.25 543.41
00000309 00000169 588.52 109.56 388.41 578.00 736.78 322.92 921.46 342.67 865.61 423.28 742.70 525.71 907.67 542.61
00000310 00000170 588.36 109.32 388.28 575.10 735.90 323.43 921.62 340.86 865.65 424.79 746.25 527.62 909.34 542.44
