Video ID: 	U4fGs3O0Wto
H: 	1080
W: 	1920
FPS: 	25.0

FRAME INDEX X0 Y0 W H [Landmarks (5 Points)]

00001779 00000000 668.07 97.88 372.51 637.44 889.82 406.14 995.21 347.74 1052.83 478.13 900.04 590.55 998.56 551.32
00001780 DELETE   675.74 92.58 371.37 639.62 897.57 409.66 995.53 346.58 1061.43 476.14 914.08 591.77 1006.29 547.93
00001781 00000002 678.27 89.56 373.73 641.76 905.12 407.16 997.73 347.76 1065.89 477.91 917.51 591.79 1005.17 550.69
00001782 00000003 678.52 88.93 376.72 647.67 909.20 406.91 1002.90 349.32 1068.97 478.95 919.21 594.56 1006.78 554.93
00001783 00000004 680.54 94.80 378.04 642.84 913.26 411.86 1004.42 352.65 1070.95 479.91 926.79 596.92 1010.89 555.92
00001784 00000005 684.61 105.27 377.86 631.34 916.51 417.50 1007.07 354.93 1073.10 481.56 931.58 599.52 1013.54 556.48
00001785 00000006 683.36 104.11 384.20 637.39 922.67 414.36 1011.38 355.76 1077.89 482.62 934.47 600.06 1016.34 560.00
00001786 00000007 677.77 114.52 398.55 645.13 922.75 410.64 1002.97 363.02 1070.87 485.71 924.84 594.04 1003.93 560.87
00001787 00000008 679.00 119.34 399.29 640.22 923.68 412.85 1001.57 363.45 1071.60 485.13 927.69 595.69 1004.50 561.43
00001788 00000009 682.54 124.37 396.18 633.41 925.60 415.58 1003.04 365.16 1071.90 483.86 931.79 596.58 1006.96 561.50
00001789 00000010 683.74 131.83 397.90 627.75 924.58 416.33 1005.10 364.92 1073.82 483.34 930.91 598.06 1010.34 561.99
00001790 00000011 684.15 127.27 399.53 632.69 927.71 412.71 1010.69 362.11 1077.30 482.63 930.28 596.43 1013.28 561.04
00001791 00000012 682.25 117.39 402.75 636.87 927.87 408.95 1012.70 355.56 1076.04 475.91 938.75 591.16 1023.13 552.41
00001792 00000013 678.84 106.41 404.28 641.05 930.51 406.13 1008.29 354.26 1072.78 471.33 949.56 590.41 1021.12 552.30
00001793 00000014 677.19 104.03 404.89 634.66 930.26 403.00 1007.54 349.59 1071.04 469.65 949.11 585.18 1019.55 545.98
00001794 00000015 673.46 97.27 404.65 641.65 926.66 403.91 1006.74 348.17 1072.73 468.75 946.44 583.18 1023.00 541.75
00001795 00000016 671.58 99.20 406.28 647.92 920.33 399.41 1003.54 345.26 1069.78 466.79 942.95 587.68 1021.15 547.20
00001796 00000017 669.17 92.48 405.53 660.66 917.97 399.15 997.30 345.99 1067.41 465.00 945.52 592.03 1017.17 552.34
00001797 00000018 667.66 97.69 403.52 654.16 917.69 402.95 995.37 348.57 1066.81 466.65 947.34 591.94 1015.83 551.26
00001798 00000019 679.85 101.16 383.91 635.23 915.18 405.06 1011.35 345.26 1072.70 475.02 954.81 605.67 1030.78 562.40
00001799 00000020 677.41 96.26 385.82 644.55 915.38 408.92 1009.81 345.04 1074.57 476.47 951.66 608.54 1028.31 562.48
00001800 00000021 667.65 95.10 399.45 665.42 915.51 407.92 993.43 354.32 1064.40 473.49 946.35 600.26 1015.22 560.22
00001801 00000022 666.22 90.83 400.63 667.68 917.82 411.12 994.15 356.08 1065.34 476.14 946.22 601.63 1014.03 560.88
00001802 00000023 666.42 97.23 399.97 664.87 915.50 414.27 993.63 360.68 1064.07 479.74 943.76 605.47 1012.86 566.00
00001803 00000024 669.00 97.48 397.07 667.87 914.63 416.86 994.92 363.28 1064.89 482.71 942.95 607.14 1015.29 567.50
00001804 00000025 672.72 107.28 394.79 653.84 914.16 418.72 995.15 364.14 1064.62 482.39 943.23 606.76 1015.46 566.53
00001805 00000026 673.32 107.95 395.07 654.90 914.71 421.03 997.16 366.31 1065.72 483.05 945.24 608.48 1017.53 567.95
00001806 00000027 675.09 111.67 395.29 652.62 914.73 422.37 996.75 364.73 1067.72 480.97 945.97 608.78 1018.59 565.84
00001807 00000028 672.82 112.09 398.99 655.16 916.81 417.90 994.25 364.91 1065.56 480.54 940.06 606.07 1011.05 567.03
00001808 00000029 669.03 115.62 404.34 649.08 917.89 410.66 995.92 361.33 1064.69 478.73 934.74 601.68 1006.88 565.44
00001809 00000030 668.81 110.47 404.82 653.14 921.41 405.71 999.86 358.46 1068.60 477.96 932.15 597.35 1004.14 563.13
00001810 00000031 683.92 110.63 388.27 641.07 923.08 411.41 1014.82 352.81 1081.26 483.66 932.78 605.21 1016.16 565.52
00001811 00000032 684.73 112.33 389.04 634.55 923.55 407.96 1016.56 350.68 1081.33 481.47 932.69 599.58 1017.33 560.91
00001812 00000033 687.04 108.93 389.52 636.19 924.38 405.57 1019.27 348.16 1082.72 479.79 930.30 595.10 1019.98 556.14
00001813 00000034 680.28 111.76 402.28 642.95 923.36 403.27 1011.07 352.47 1074.42 480.11 923.07 589.22 1011.12 553.57
00001814 00000035 677.94 115.08 404.33 642.36 922.34 399.07 1010.62 352.67 1073.01 479.53 921.33 589.59 1007.72 557.18
00001815 00000036 688.59 108.53 388.39 643.81 927.25 401.08 1020.98 350.59 1084.26 480.83 925.41 598.26 1013.47 565.21
00001816 00000037 686.33 109.94 388.12 639.27 928.71 400.48 1017.70 351.39 1080.98 481.00 927.27 597.30 1009.89 565.53
00001817 00000038 675.02 104.16 402.59 638.53 924.47 400.66 1006.64 349.59 1070.59 471.25 939.80 585.68 1014.36 548.71
00001818 00000039 673.16 101.41 404.72 654.56 921.24 399.33 1005.99 351.49 1068.90 470.56 946.05 594.38 1019.95 558.36
00001819 00000040 672.91 100.91 403.39 654.56 920.93 399.47 1005.72 351.18 1069.25 472.04 945.87 595.86 1018.66 559.66
00001820 00000041 671.33 107.23 404.27 650.60 918.60 397.46 1000.77 354.17 1066.45 473.24 931.64 594.24 1004.04 562.94
00001821 00000042 671.02 105.03 406.00 652.03 920.67 395.34 1004.77 351.77 1070.21 476.02 924.26 592.24 1002.09 561.54
00001822 00000043 672.65 103.15 407.21 652.76 919.37 396.19 1009.63 348.02 1070.53 472.21 933.12 592.21 1016.92 556.73
00001823 00000044 674.53 105.34 404.75 640.05 922.35 396.29 1009.12 345.97 1069.30 467.82 946.03 589.29 1022.47 551.86
00001824 00000045 674.67 104.56 403.69 640.03 921.92 394.49 1009.90 345.87 1069.03 465.48 946.44 588.67 1022.12 552.30
00001825 00000046 675.62 105.64 401.59 639.75 921.37 395.13 1008.72 346.51 1068.96 466.36 945.01 589.20 1019.36 553.13
00001826 00000047 672.19 102.76 405.14 643.76 921.78 395.85 1007.04 347.22 1068.73 465.61 945.82 588.70 1019.20 552.44
00001827 00000048 673.92 105.16 404.43 641.87 920.98 395.55 1008.21 345.91 1069.22 466.78 944.81 589.21 1021.21 552.34
00001828 00000049 676.90 105.33 401.72 641.86 921.62 397.48 1007.96 348.13 1069.16 468.08 944.35 589.79 1020.34 553.42
00001829 00000050 675.60 101.37 403.19 648.17 920.62 399.90 1007.52 348.89 1068.56 470.13 942.38 591.27 1020.32 553.68
00001830 00000051 674.19 99.72 401.78 649.52 921.03 399.89 1005.14 349.26 1068.51 469.56 942.97 591.23 1017.80 554.02
00001831 00000052 671.70 95.44 402.30 656.19 917.97 400.67 1001.67 347.96 1066.72 469.91 937.29 590.53 1014.40 551.79
00001832 00000053 674.27 95.90 387.50 637.56 907.71 401.36 1012.37 340.22 1070.30 474.27 936.84 599.83 1026.13 555.49
00001833 00000054 670.75 94.79 384.34 634.88 903.54 404.13 1004.34 336.58 1068.97 470.37 932.61 595.81 1020.91 547.00
00001834 00000055 667.73 91.49 381.13 633.18 899.56 403.45 999.91 337.36 1062.82 471.66 926.02 592.66 1014.07 545.09
00001835 00000056 667.78 93.85 378.24 631.69 896.25 402.89 999.89 339.14 1061.74 473.51 922.63 593.15 1012.05 547.83
00001836 00000057 656.99 94.49 400.22 645.03 900.84 395.42 1000.19 347.81 1058.19 477.88 919.26 587.47 1011.77 551.67
00001837 00000058 655.90 93.13 400.61 650.22 900.34 396.98 999.81 349.50 1056.87 478.50 918.21 588.48 1012.43 552.66
00001838 00000059 654.93 95.38 401.28 649.73 901.58 398.11 997.81 349.62 1058.11 479.70 916.27 588.53 1009.44 552.07
00001839 00000060 661.00 101.64 393.53 639.85 903.83 398.07 992.58 347.66 1052.27 472.89 918.30 592.40 995.66 556.28
00001840 00000061 658.65 93.88 395.86 651.27 903.59 399.97 999.33 353.74 1058.57 481.09 915.72 587.77 1009.44 553.26
00001841 00000062 672.01 100.74 374.04 635.17 894.25 411.16 997.90 345.54 1059.44 477.25 917.71 595.94 1009.21 550.56
00001842 00000063 671.38 99.98 375.65 636.97 894.40 410.64 996.92 345.19 1058.77 477.95 916.59 595.84 1008.06 550.47
00001843 00000064 672.34 103.37 376.20 637.11 895.70 411.70 997.14 347.24 1059.40 479.98 912.62 596.38 1004.84 552.46
00001844 00000065 674.35 102.20 375.64 640.39 897.64 413.23 996.77 347.45 1061.59 480.38 912.73 597.01 1004.90 552.04
00001845 00000066 675.27 103.90 375.41 642.75 900.47 413.22 996.73 350.30 1061.19 482.35 911.21 598.08 1001.70 555.74
00001846 00000067 677.27 98.34 372.48 648.99 902.87 413.76 996.73 352.22 1061.81 482.88 913.25 600.25 1000.67 558.74
00001847 00000068 680.00 99.52 370.78 651.25 903.60 418.06 997.34 353.79 1063.23 485.43 913.40 602.87 1001.66 559.40
00001848 00000069 678.84 100.36 373.92 657.73 903.18 419.29 998.33 357.17 1062.56 487.25 915.62 608.20 1004.10 566.32
00001849 00000070 677.94 101.27 375.16 662.41 901.15 422.43 996.47 362.41 1060.97 489.05 918.74 615.03 1005.04 574.80
00001850 00000071 674.48 117.73 374.15 652.91 899.85 429.10 991.51 375.98 1057.12 496.47 923.38 624.53 1005.20 589.98
00001851 00000072 672.85 134.24 376.22 636.86 890.65 430.81 992.22 388.15 1049.50 501.90 914.15 624.21 1002.12 598.39
00001852 00000073 656.86 135.70 395.68 641.64 897.07 419.85 1005.03 391.06 1053.65 512.90 907.29 619.67 1004.36 598.51
00001853 00000074 658.39 129.97 394.10 645.26 898.13 418.81 1008.62 391.44 1053.06 514.00 911.00 622.27 1006.58 602.22
00001854 DELETE   658.24 134.31 392.40 634.46 889.86 418.57 999.40 388.19 1041.41 508.12 906.95 623.34 996.84 601.51
00001855 00000076 660.93 126.67 391.08 637.85 896.70 414.85 1004.35 384.65 1044.51 503.98 914.95 617.70 1000.29 595.73
00001856 00000077 661.36 116.45 395.05 646.57 902.33 403.44 1008.78 373.62 1050.30 496.19 918.25 611.19 1003.76 589.23
00001857 00000078 669.97 115.74 385.83 628.99 905.89 388.32 1023.80 357.68 1059.58 489.63 925.34 602.74 1015.79 584.23
00001858 00000079 671.10 114.36 388.50 634.12 906.47 383.10 1025.32 354.41 1062.42 483.31 912.65 594.70 1013.43 578.28
00001859 00000080 669.84 110.67 395.94 635.80 905.53 380.38 1029.13 350.21 1065.84 480.70 906.10 589.12 1017.17 571.36
00001860 00000081 680.33 108.70 392.63 636.70 907.74 379.05 1035.04 349.60 1065.74 477.16 910.60 583.86 1027.43 565.68
00001861 00000082 692.07 115.16 387.22 631.00 912.69 374.08 1042.62 349.18 1071.81 477.63 909.11 579.07 1031.72 565.18
00001862 00000083 693.84 115.68 390.84 635.45 919.01 374.15 1046.13 353.11 1077.46 477.83 913.02 579.17 1034.87 568.25
00001863 00000084 695.40 111.59 393.10 636.91 924.26 373.39 1052.05 352.43 1080.29 479.07 917.05 580.27 1036.21 569.30
00001864 00000085 692.68 114.51 408.57 641.70 935.49 372.09 1053.85 354.23 1078.15 478.00 914.98 573.82 1029.83 563.78
00001865 00000086 699.03 116.27 405.80 645.13 942.60 373.71 1058.35 357.68 1082.81 480.11 916.10 573.23 1032.44 565.39
00001866 00000087 701.99 112.83 404.75 645.41 949.58 373.28 1062.61 357.04 1090.36 480.34 921.65 571.41 1037.24 563.83
00001867 00000088 708.66 111.23 399.92 645.46 954.19 372.72 1065.83 356.24 1096.10 480.19 924.24 569.14 1040.76 561.64
00001868 00000089 710.73 110.14 398.89 645.70 955.89 372.88 1065.50 355.36 1097.79 479.12 926.33 567.56 1042.31 559.50
00001869 00000090 715.61 108.71 394.34 642.79 957.71 370.51 1066.32 353.37 1100.57 478.00 927.29 565.31 1041.25 558.06
00001870 00000091 715.22 109.51 393.96 637.56 957.30 369.81 1067.42 352.78 1100.30 477.23 929.75 564.81 1042.97 557.47
00001871 00000092 712.79 108.20 395.10 638.36 956.72 370.31 1064.51 353.43 1099.00 475.28 930.47 564.92 1041.23 557.35
00001872 00000093 709.04 107.62 398.36 637.77 955.66 369.88 1063.12 352.19 1096.74 474.52 929.93 564.63 1039.42 556.28
00001873 00000094 708.11 109.98 398.18 630.58 953.22 369.27 1063.16 351.06 1095.16 471.99 930.51 564.08 1040.77 555.07
00001874 00000095 703.61 106.02 400.99 632.53 948.81 370.70 1063.28 347.20 1094.02 470.58 937.56 570.67 1045.68 556.51
00001875 00000096 702.81 103.50 400.47 633.75 945.86 371.94 1061.09 347.09 1090.83 469.71 944.06 576.04 1046.99 559.78
00001876 00000097 704.18 104.37 397.84 634.85 942.57 370.78 1058.43 348.13 1086.97 468.15 942.27 576.36 1044.62 561.51
00001877 00000098 701.21 108.54 399.15 634.30 940.23 369.04 1055.27 348.20 1083.40 465.76 940.76 576.99 1041.83 563.49
00001878 00000099 699.22 111.97 400.65 638.10 939.16 367.11 1051.62 350.30 1080.55 470.32 919.83 569.85 1028.46 561.09
00001879 00000100 699.48 112.17 399.19 633.62 940.95 367.46 1049.95 350.66 1080.93 471.30 917.55 567.56 1023.62 559.45
00001880 00000101 701.03 111.13 397.54 631.61 944.83 366.82 1051.09 349.33 1086.65 471.97 921.43 567.16 1022.46 558.98
00001881 00000102 699.96 108.08 397.10 630.26 948.02 373.08 1053.34 352.34 1087.87 472.26 929.78 569.79 1027.52 558.70
00001882 00000103 698.79 108.99 395.77 630.52 944.52 380.36 1047.04 352.83 1085.19 475.25 938.40 579.45 1027.38 562.50
00001883 00000104 695.37 106.43 396.18 628.59 941.06 385.32 1046.15 351.38 1087.07 475.80 945.07 583.89 1031.72 561.22
00001884 00000105 691.96 109.50 399.03 630.60 936.93 387.62 1044.93 350.97 1085.72 477.00 944.83 587.73 1034.61 562.28
00001885 00000106 688.99 115.38 398.74 632.20 932.68 388.15 1035.82 353.03 1080.71 475.35 942.81 590.46 1028.31 565.71
00001886 00000107 686.52 116.11 398.46 638.34 927.68 390.02 1027.89 352.34 1078.25 475.11 937.00 593.57 1023.40 567.08
00001887 00000108 687.01 118.22 398.16 637.27 926.99 384.79 1024.02 346.12 1080.25 473.11 937.09 594.82 1019.00 567.92
00001888 00000109 687.02 121.16 398.54 631.01 927.77 383.90 1023.16 344.64 1083.04 471.93 938.39 593.47 1018.95 566.37
00001889 00000110 689.00 116.55 396.84 627.88 933.06 384.52 1023.95 345.96 1083.84 468.87 946.63 588.74 1021.32 562.11
00001890 00000111 685.81 113.56 401.06 624.24 934.57 379.06 1025.45 343.02 1083.94 464.28 954.37 585.05 1025.29 559.89
00001891 00000112 684.23 105.10 402.36 629.83 936.89 379.61 1023.97 341.98 1085.02 462.42 957.07 581.88 1025.49 555.55
00001892 00000113 685.54 109.27 401.11 621.28 940.79 370.30 1025.48 335.79 1088.68 460.33 956.05 578.27 1020.21 555.21
00001893 00000114 683.66 107.85 405.48 629.79 938.75 367.35 1026.28 330.47 1088.51 458.70 950.19 578.71 1020.74 553.61
00001894 00000115 686.48 113.34 404.28 624.93 939.30 370.07 1025.61 332.89 1087.08 461.46 943.07 576.75 1018.03 551.89
00001895 00000116 692.82 107.71 402.54 630.41 943.06 368.93 1033.17 336.03 1090.89 462.55 941.03 572.55 1021.11 551.44
00001896 00000117 693.84 109.37 403.89 630.72 945.20 372.84 1035.73 339.21 1094.44 465.38 943.14 574.11 1023.95 552.47
00001897 00000118 699.65 112.54 399.92 625.72 950.13 375.31 1039.44 342.34 1097.03 469.25 942.51 573.32 1023.51 552.84
00001898 00000119 701.55 117.19 400.65 624.11 951.34 377.98 1043.52 343.88 1099.95 469.82 950.14 577.46 1033.18 555.38
00001899 00000120 701.94 117.43 400.03 615.56 953.36 385.74 1044.05 346.67 1104.40 471.61 967.46 582.23 1046.74 555.18
00001900 00000121 705.72 114.84 399.23 612.67 957.71 389.55 1051.19 350.52 1110.27 472.06 970.98 580.83 1050.84 554.08
00001901 00000122 711.12 107.62 396.03 623.16 960.53 392.88 1053.73 354.65 1112.36 474.78 976.05 583.04 1057.23 556.48
00001902 00000123 708.35 104.90 399.00 631.28 960.78 394.11 1047.00 352.63 1114.49 472.57 978.26 585.70 1054.11 556.48
00001903 00000124 705.20 111.91 401.66 624.86 962.75 385.83 1046.35 349.07 1113.53 472.57 970.53 582.94 1042.38 558.10
00001904 00000125 701.58 115.28 399.37 624.41 957.63 381.21 1040.16 348.75 1104.09 468.77 954.16 576.26 1030.32 555.85
00001905 00000126 700.18 120.30 400.13 616.96 953.44 377.04 1038.44 343.95 1102.03 467.18 946.26 572.57 1024.21 552.35
00001906 00000127 697.93 117.88 399.39 619.13 949.71 373.31 1033.22 342.35 1094.13 467.02 938.85 572.44 1013.16 554.03
00001907 00000128 698.94 120.33 395.83 617.16 947.10 375.99 1030.25 343.30 1090.72 466.47 936.06 571.35 1013.00 551.61
00001908 00000129 695.58 117.71 398.66 620.54 946.38 375.33 1029.53 342.13 1090.53 468.01 931.72 570.22 1010.74 550.03
00001909 00000130 693.69 121.71 397.62 612.48 944.86 375.65 1025.71 342.46 1088.15 466.64 932.49 570.24 1006.22 550.17
00001910 00000131 700.62 120.92 387.18 606.12 935.78 382.61 1024.34 343.32 1085.56 467.41 931.88 575.46 1017.57 549.92
00001911 00000132 698.91 119.87 385.50 604.22 929.85 384.09 1023.98 342.70 1083.11 466.86 930.27 575.39 1020.49 547.96
00001912 00000133 691.68 118.60 387.25 601.21 926.95 385.69 1019.20 340.84 1078.64 467.79 931.24 577.03 1017.63 546.82
00001913 00000134 687.80 109.38 385.74 614.09 922.33 387.98 1015.77 338.68 1077.06 467.40 926.39 578.78 1016.92 545.20
00001914 00000135 682.63 108.53 389.49 617.42 923.86 388.46 1014.81 339.66 1078.71 470.31 929.65 582.97 1015.85 550.01
00001915 00000136 683.87 128.30 389.88 603.24 924.02 393.52 1016.36 346.82 1079.20 477.33 929.51 588.22 1013.76 558.16
00001916 00000137 671.59 123.37 397.12 629.65 917.65 401.39 997.60 357.64 1069.96 477.10 931.06 593.95 1004.66 562.24
00001917 00000138 664.76 122.06 397.93 632.98 908.19 413.29 999.42 370.88 1063.11 488.15 925.56 603.31 1008.11 572.62
00001918 00000139 672.80 130.89 383.69 621.63 898.31 420.71 1011.58 373.87 1059.59 501.74 927.35 619.58 1022.48 589.01
00001919 00000140 663.13 135.01 394.24 615.69 897.30 417.70 1005.89 377.83 1055.30 500.67 915.52 613.62 1007.70 585.27
00001920 00000141 671.91 130.22 379.17 619.17 893.79 421.51 1011.74 373.79 1056.69 503.76 915.23 616.62 1015.13 586.00
00001921 00000142 672.40 127.76 374.68 622.32 894.21 420.87 1006.89 371.39 1052.73 498.19 913.69 613.08 1009.43 581.75
00001922 00000143 670.35 123.84 375.14 628.66 889.09 418.38 1004.62 365.39 1049.32 494.82 901.28 610.53 1003.95 576.95
00001923 00000144 652.62 120.12 398.30 639.48 887.65 407.93 1001.30 367.91 1045.29 498.68 892.14 601.72 1001.80 572.99
00001924 00000145 644.11 127.96 398.38 624.70 878.86 416.10 1001.86 375.46 1037.03 503.21 883.67 604.25 998.72 575.49
00001925 00000146 637.94 135.34 402.67 622.96 870.18 422.36 997.21 381.75 1027.59 508.50 880.09 613.31 994.19 584.33
00001926 00000147 639.99 143.82 398.68 616.65 863.49 432.66 998.52 387.80 1022.83 519.32 873.33 620.61 993.43 588.30
00001927 00000148 634.87 147.21 401.74 620.38 862.62 431.99 996.53 391.70 1019.38 520.04 869.72 622.98 988.79 593.99
00001928 00000149 635.56 150.34 400.38 617.53 861.42 428.96 993.69 390.92 1015.32 518.00 864.77 618.50 987.71 591.59
00001929 00000150 637.23 145.60 401.36 620.08 861.29 422.36 996.34 387.82 1014.79 514.89 858.42 610.94 987.73 587.30
00001930 00000151 638.02 145.90 401.87 614.25 863.88 415.30 997.23 379.52 1018.03 508.96 856.07 603.91 986.20 579.60
00001931 00000152 637.54 145.30 404.61 613.52 863.40 401.66 998.56 368.29 1021.07 497.74 851.49 593.70 985.85 571.63
00001932 00000153 637.13 119.32 401.76 631.42 857.54 389.07 993.12 353.08 1019.13 481.69 851.71 580.96 987.24 556.54
00001933 00000154 629.23 108.40 405.47 631.16 847.49 369.23 982.80 340.60 1006.49 459.64 848.78 566.93 979.76 547.35
00001934 00000155 624.60 99.29 409.40 635.71 843.59 360.81 982.38 333.36 1004.70 451.58 849.95 562.72 977.90 543.69
00001935 00000156 630.86 101.79 406.33 631.64 846.10 359.47 985.35 332.97 1006.61 452.39 850.76 561.49 980.58 543.61
00001936 00000157 636.08 105.35 411.19 634.14 856.97 364.73 995.26 337.07 1013.87 461.38 855.11 564.74 987.58 546.49
00001937 00000158 645.08 105.25 416.05 633.66 870.49 361.74 1016.98 338.61 1031.12 470.20 865.93 568.79 1000.74 554.20
00001938 00000159 656.33 106.30 411.11 637.65 883.77 364.43 1026.81 345.70 1040.52 477.39 874.07 571.82 1008.11 560.42
00001939 00000160 663.73 108.87 401.24 629.77 883.70 374.35 1033.25 344.74 1045.39 479.48 880.83 579.82 1016.55 561.99
00001940 00000161 673.88 105.81 400.53 633.24 887.37 368.82 1041.10 339.18 1053.79 473.18 882.84 576.68 1025.48 558.36
00001941 00000162 681.84 102.25 405.86 630.69 893.73 362.84 1049.57 332.59 1062.74 468.61 893.35 570.65 1040.21 551.46
00001942 00000163 691.36 99.15 402.44 627.22 900.33 359.65 1053.80 332.61 1064.98 463.47 910.03 568.03 1048.94 550.53
00001943 00000164 696.47 108.67 410.29 623.37 925.30 357.07 1063.90 339.51 1074.01 468.10 916.07 566.47 1037.44 556.51
00001944 DELETE   703.78 106.89 410.32 626.41 941.46 366.67 1078.62 344.34 1095.14 475.76 941.19 577.91 1056.70 563.18
CROP_BBOX: 311 0 1377 982
