Video ID: 	ybYlN9jSagA
H: 	1080
W: 	1920
FPS: 	23.976023976023978

FRAME INDEX X0 Y0 W H [Landmarks (5 Points)]

00004140 00000000 929.70 152.61 489.35 732.12 975.38 452.47 1152.39 431.06 994.39 576.86 1013.39 706.93 1172.35 688.45
00004141 00000001 926.70 157.29 489.56 730.16 971.82 448.42 1143.85 432.59 984.90 581.87 1010.73 707.93 1165.46 693.77
00004142 00000002 919.94 153.17 486.60 739.30 966.11 455.79 1126.18 431.66 966.39 583.53 1005.56 714.06 1151.03 692.32
00004143 00000003 912.03 158.41 477.39 733.09 957.31 462.54 1110.50 430.74 951.57 582.37 999.47 717.92 1138.77 688.90
00004144 00000004 905.17 160.50 475.74 731.85 946.27 462.96 1096.04 428.33 936.84 583.80 993.80 719.65 1129.84 687.37
00004145 00000005 904.37 157.95 477.43 737.95 946.65 462.64 1094.98 427.25 934.99 583.42 993.51 721.48 1130.67 688.36
00004146 00000006 910.23 149.72 477.96 745.22 952.87 463.65 1101.87 430.00 946.88 574.37 996.12 713.50 1139.11 682.75
00004147 00000007 908.73 146.04 487.14 749.16 953.79 461.04 1110.25 427.98 953.82 574.78 996.84 714.44 1144.42 684.12
00004148 00000008 906.83 143.67 480.54 748.57 949.25 460.89 1101.99 428.05 947.53 573.18 993.95 712.59 1136.90 683.07
00004149 00000009 903.52 137.73 472.99 753.27 940.53 449.44 1080.82 425.27 923.09 572.26 981.09 704.86 1114.22 682.97
00004150 DELETE   885.65 136.46 471.85 739.58 930.58 445.12 1068.02 431.21 911.37 567.69 961.07 694.90 1088.69 682.59
00004151 00000011 877.14 139.42 475.50 727.43 921.13 440.28 1071.64 431.86 912.54 567.88 950.12 689.08 1083.94 681.58
00004152 DELETE   884.12 138.31 473.02 717.79 919.86 441.02 1086.40 431.20 929.24 567.06 946.56 688.11 1085.79 680.87
00004153 00000013 894.29 134.49 477.10 729.51 929.45 445.21 1095.79 434.98 934.24 569.24 947.99 695.40 1078.45 688.90
00004154 DELETE   902.64 134.43 472.68 728.96 935.63 445.70 1113.15 432.92 955.93 567.67 954.00 703.87 1076.28 696.44
00004155 00000015 902.95 134.05 468.97 737.32 935.63 447.77 1111.98 434.41 950.29 569.39 946.94 715.22 1065.65 707.77
00004156 DELETE   893.04 131.84 473.87 747.26 929.50 447.62 1096.44 440.22 924.89 573.90 935.29 714.89 1058.53 711.25
00004157 00000017 881.93 140.21 477.33 753.60 927.48 447.00 1087.06 438.70 920.40 578.00 940.97 719.58 1063.16 713.70
00004158 00000018 889.29 150.81 479.21 759.69 931.32 455.03 1081.97 436.16 916.51 580.51 958.23 728.49 1089.20 712.31
00004159 00000019 887.16 146.66 485.88 765.73 930.83 454.88 1087.02 436.34 918.30 576.57 952.90 728.57 1084.99 713.01
00004160 DELETE   877.17 139.77 482.41 763.96 922.41 448.78 1088.75 437.06 916.23 571.77 933.84 725.17 1061.48 716.53
00004161 00000021 859.85 147.83 487.38 753.09 920.20 448.36 1087.29 438.11 909.53 566.18 918.58 725.83 1035.02 718.87
00004162 00000022 856.18 157.20 488.26 746.81 921.80 453.17 1085.14 441.42 904.28 565.88 913.51 730.04 1026.86 721.61
00004163 00000023 854.21 165.83 482.33 729.73 906.17 452.48 1076.44 447.13 891.93 577.55 904.49 725.67 1023.86 723.98
00004164 00000024 844.44 168.61 483.21 728.13 888.37 459.42 1062.62 454.29 882.29 586.69 899.76 727.28 1031.35 725.37
00004165 00000025 840.49 172.61 479.98 734.19 880.12 462.62 1049.70 456.09 874.43 592.48 906.28 726.03 1050.22 721.24
00004166 00000026 828.38 166.17 486.19 751.40 876.16 478.85 1034.93 455.38 863.31 596.03 904.65 735.15 1046.55 712.71
00004167 00000027 819.41 157.80 483.25 755.63 864.97 479.32 1017.92 466.03 851.50 594.11 881.23 731.42 1014.48 720.90
00004168 00000028 799.20 160.12 493.85 751.47 851.36 476.38 1012.54 464.44 835.34 588.82 854.60 736.44 980.77 727.50
00004169 00000029 789.31 159.77 491.57 750.16 840.26 474.07 1002.36 463.17 823.34 592.17 845.60 738.71 970.03 730.68
00004170 00000030 781.74 168.99 483.79 727.05 820.32 462.58 996.23 458.62 815.34 598.52 834.02 731.20 968.03 730.17
00004171 00000031 776.85 169.85 481.00 727.40 814.55 463.86 990.24 458.92 812.40 596.36 830.85 730.15 968.88 728.38
00004172 00000032 775.84 160.79 480.29 736.00 819.84 467.71 985.98 455.23 808.26 592.39 832.05 734.85 960.13 725.50
00004173 00000033 768.73 157.85 480.18 734.74 813.97 462.41 982.66 452.61 805.53 589.20 827.48 731.54 953.63 724.36
00004174 00000034 763.84 165.38 483.49 726.45 801.07 459.26 974.64 451.17 801.97 594.58 827.70 731.27 960.98 726.59
00004175 00000035 761.70 168.27 484.41 724.75 799.29 460.29 968.61 453.56 797.47 593.36 825.90 724.24 964.67 720.02
00004176 00000036 760.97 166.71 483.35 725.83 796.93 461.31 966.18 453.40 796.44 592.34 824.43 720.71 966.01 715.51
00004177 00000037 759.40 152.88 485.55 742.64 800.97 456.23 963.05 445.97 792.42 595.15 828.77 720.33 969.21 709.74
00004178 00000038 761.61 161.46 485.44 735.93 800.42 457.66 964.88 446.94 794.89 590.49 832.48 723.78 969.98 715.80
00004179 00000039 758.90 146.31 486.41 741.56 808.51 450.33 968.87 442.31 794.53 582.79 825.74 719.30 948.57 712.75
00004180 00000040 764.97 130.61 488.20 759.46 807.26 449.15 963.52 443.06 796.33 575.80 815.42 714.15 931.31 710.72
00004181 00000041 763.61 130.80 488.53 756.50 805.76 445.88 965.10 440.28 797.52 573.80 812.46 712.58 929.56 709.87
00004182 00000042 764.97 128.17 487.58 757.09 805.97 444.47 964.67 438.65 795.88 572.71 812.58 711.74 929.17 708.74
00004183 00000043 765.60 128.96 487.62 751.81 807.36 443.93 965.88 435.95 799.88 572.27 819.23 708.06 938.80 703.01
00004184 00000044 763.16 141.78 484.91 735.12 807.05 441.03 969.46 430.64 796.85 580.56 832.49 710.15 963.10 700.88
00004185 00000045 763.09 141.34 488.80 743.73 809.94 440.58 968.00 427.32 800.17 582.88 841.02 712.45 976.64 699.43
00004186 00000046 763.38 141.20 489.64 738.33 808.76 437.81 967.69 427.25 799.09 583.17 840.98 707.76 979.54 696.76
00004187 00000047 763.09 138.03 488.88 733.87 807.97 435.92 970.78 426.51 800.37 576.41 837.87 701.05 978.18 691.59
00004188 00000048 763.43 135.63 489.23 730.86 806.39 434.52 972.20 423.23 801.85 572.07 837.14 698.50 977.43 688.16
00004189 00000049 764.06 134.91 489.16 726.86 806.03 432.84 974.61 420.96 804.15 569.43 838.13 696.89 977.41 686.79
00004190 00000050 763.50 128.40 490.46 734.72 805.59 429.12 975.77 415.90 805.44 567.36 839.92 696.76 978.47 685.72
00004191 00000051 765.35 125.73 489.38 736.89 807.94 428.78 973.80 414.18 805.64 564.85 843.11 694.67 979.82 682.30
00004192 00000052 762.42 124.25 493.17 735.76 804.57 424.91 973.52 411.29 805.86 564.03 842.95 691.41 982.14 679.97
00004193 00000053 764.26 121.85 490.34 735.53 804.02 422.26 974.51 409.80 807.08 562.15 841.87 688.10 984.08 677.70
00004194 00000054 764.56 120.22 489.25 734.33 802.56 418.83 975.38 407.99 806.37 560.71 840.17 685.67 984.34 676.77
00004195 00000055 767.48 118.59 486.10 737.58 806.92 416.87 976.21 405.90 808.16 558.35 843.18 685.10 986.22 675.84
00004196 00000056 767.97 116.05 486.18 741.16 808.51 415.29 977.80 402.40 810.62 556.19 846.67 686.36 989.49 675.64
00004197 00000057 769.47 113.38 487.10 745.54 811.00 414.62 980.79 399.04 814.38 555.86 851.51 689.46 994.66 676.42
00004198 00000058 770.78 110.20 488.01 750.41 811.11 412.46 983.08 396.86 816.53 553.64 852.08 687.48 999.02 674.20
00004199 00000059 773.46 104.78 485.68 755.50 812.50 409.74 986.85 393.62 820.29 550.64 851.66 686.48 1004.53 672.54
00004200 00000060 777.38 94.78 486.59 762.70 813.87 418.48 994.87 397.78 824.80 544.61 858.11 683.73 1006.13 664.83
00004201 00000061 781.77 93.41 483.81 759.49 819.15 414.53 1001.41 394.47 831.15 540.88 860.24 677.41 1011.83 658.92
00004202 00000062 783.47 94.84 489.67 754.43 827.02 415.22 1006.52 388.58 838.87 535.81 860.26 677.04 1016.81 654.25
00004203 00000063 785.13 91.82 491.73 750.54 828.35 412.73 1010.42 386.08 846.13 533.33 861.42 673.83 1017.64 651.67
00004204 00000064 784.56 87.86 493.14 740.42 828.19 409.93 1013.22 386.38 852.09 532.60 859.10 664.10 1013.01 645.75
00004205 00000065 782.46 84.59 488.84 739.63 825.20 410.06 1014.11 384.14 849.62 526.01 850.21 670.06 994.09 650.81
00004206 00000066 778.68 87.22 485.00 738.93 819.44 408.26 1007.31 386.16 832.74 524.10 838.47 672.64 975.62 656.76
00004207 00000067 773.34 104.79 481.50 708.47 807.66 398.28 993.08 389.05 818.75 528.93 822.77 662.44 957.81 658.01
00004208 00000068 764.20 98.40 485.00 712.03 800.76 396.27 980.68 390.22 804.74 527.12 814.72 658.64 947.10 656.22
00004209 00000069 756.44 86.28 478.83 734.89 799.71 403.05 971.93 390.52 788.42 520.57 809.90 664.18 935.60 654.31
00004210 00000070 752.59 96.13 483.63 729.81 796.54 395.77 961.65 395.91 784.15 527.24 808.52 660.25 935.37 661.72
00004211 00000071 755.62 92.39 478.11 733.80 796.83 405.34 966.87 396.15 788.35 528.76 813.25 666.90 938.14 659.27
00004212 00000072 757.84 107.25 479.08 725.73 790.54 405.07 965.78 399.01 793.45 544.42 821.14 670.00 960.88 666.32
00004213 00000073 755.95 104.22 489.48 738.43 789.67 411.82 969.47 395.61 800.25 548.74 831.76 679.86 978.09 667.65
00004214 00000074 756.70 103.67 493.00 744.59 789.90 410.34 970.27 396.91 800.17 547.88 829.86 676.64 985.36 666.07
00004215 00000075 755.13 105.65 489.34 745.52 788.83 411.94 966.26 397.07 794.31 551.64 827.90 683.34 977.35 671.28
00004216 00000076 754.93 108.36 478.20 739.69 786.55 414.89 954.95 405.93 791.46 547.86 814.28 676.23 951.04 669.82
00004217 00000077 738.98 103.62 482.24 741.25 775.30 415.66 947.38 409.45 779.46 551.68 790.20 682.06 920.59 679.17
00004218 00000078 731.92 108.50 485.64 738.88 772.44 417.91 945.41 411.87 776.11 552.55 786.28 686.82 911.90 684.06
00004219 00000079 735.97 108.29 486.77 743.93 776.75 418.29 949.90 413.95 780.95 553.58 788.91 686.93 915.27 685.64
00004220 00000080 740.25 107.26 488.86 743.67 779.17 417.43 951.41 413.48 780.65 551.52 790.18 685.98 917.02 684.98
00004221 00000081 740.93 109.07 488.48 738.16 779.54 416.29 951.79 414.44 782.16 552.16 790.80 681.86 920.10 682.61
00004222 00000082 741.19 108.46 489.46 736.89 780.37 417.28 951.79 415.32 783.55 552.09 791.61 680.94 920.69 681.53
00004223 00000083 745.42 110.58 493.07 737.76 782.75 420.35 954.47 415.82 787.52 555.95 798.45 685.68 926.27 684.12
00004224 00000084 752.47 110.22 494.91 746.79 791.53 421.20 957.29 414.66 791.81 558.96 814.67 688.47 942.68 684.38
00004225 00000085 756.71 111.32 493.26 756.45 796.33 424.47 961.13 415.33 795.85 563.20 827.61 693.16 962.89 685.89
00004226 00000086 759.10 109.06 494.29 761.44 798.30 425.64 961.72 415.46 794.49 564.18 833.69 697.04 969.71 688.39
00004227 00000087 759.43 109.23 495.39 763.12 800.41 425.14 963.89 414.43 797.08 563.72 837.11 696.29 974.42 686.94
00004228 00000088 759.49 106.50 495.96 761.66 800.60 425.20 966.36 413.54 800.98 560.07 836.49 694.19 975.00 684.33
00004229 00000089 759.41 107.55 493.82 753.72 800.54 421.88 966.61 408.83 797.85 562.80 837.23 691.71 978.55 680.28
00004230 00000090 760.41 110.91 494.26 746.36 800.03 421.37 969.68 409.13 799.82 563.27 837.74 689.75 981.99 679.14
00004231 00000091 763.29 112.16 490.10 741.44 802.01 419.47 972.93 407.85 803.70 563.46 840.01 688.26 984.35 678.38
00004232 00000092 763.63 112.84 490.63 742.78 803.53 416.97 974.26 406.21 807.39 562.55 843.01 686.20 988.01 677.02
00004233 00000093 766.06 111.20 490.20 750.26 809.32 415.43 977.13 404.54 812.06 561.55 849.29 687.06 994.86 677.35
00004234 00000094 768.78 108.78 489.18 752.53 812.04 413.52 980.07 402.51 815.04 561.40 853.05 686.73 999.29 676.80
00004235 00000095 773.64 113.26 490.73 750.87 815.65 415.28 985.01 400.90 820.98 563.25 861.48 691.03 1007.96 677.89
00004236 00000096 776.57 117.36 492.88 748.31 819.78 421.82 996.22 405.44 836.90 566.36 866.15 694.45 1018.50 679.59
00004237 00000097 788.09 122.34 492.07 734.98 827.32 440.13 1008.11 421.64 855.40 573.48 871.89 688.21 1034.10 671.94
00004238 00000098 790.46 124.38 491.10 733.66 831.07 442.54 1010.16 425.14 858.18 577.75 877.11 687.00 1037.71 671.67
00004239 00000099 786.62 122.57 492.91 740.39 829.12 430.98 1005.49 417.13 850.94 576.45 873.91 687.80 1030.58 675.37
00004240 00000100 789.94 113.63 485.96 749.40 833.12 424.84 1000.65 411.63 842.10 571.99 873.21 693.74 1016.73 681.90
00004241 00000101 791.93 115.78 481.19 737.18 834.42 420.08 1003.14 410.36 843.80 568.71 871.09 689.43 1008.20 681.00
00004242 00000102 796.43 116.72 484.86 727.11 834.55 419.62 1004.76 407.54 848.10 561.50 872.41 682.99 1009.83 673.54
00004243 00000103 808.75 102.93 489.44 744.66 844.75 422.02 1011.86 407.20 852.10 563.82 884.93 683.42 1023.58 671.13
00004244 00000104 806.85 114.25 483.52 724.65 838.75 413.95 1016.13 403.25 858.25 559.64 875.82 673.85 1022.83 665.83
00004245 00000105 810.34 88.72 481.34 755.46 845.22 414.24 1009.13 405.63 847.37 553.60 868.08 678.04 998.16 672.01
00004246 00000106 795.77 103.86 476.93 723.85 834.27 400.05 1009.20 399.12 838.59 543.30 848.00 669.03 975.84 670.65
00004247 00000107 789.56 86.01 489.54 753.97 837.27 406.21 1003.38 398.98 836.90 538.34 855.13 675.89 977.50 670.80
00004248 00000108 797.17 75.58 492.34 759.58 842.38 407.99 1012.83 396.75 847.32 536.30 859.37 673.07 988.20 665.35
00004249 00000109 816.94 79.30 480.47 756.94 853.34 410.38 1014.38 396.59 852.52 540.33 873.11 670.49 1003.89 660.32
00004250 00000110 814.80 81.04 486.08 746.70 852.81 404.87 1012.68 393.71 848.19 536.21 871.29 664.87 1000.89 656.62
00004251 00000111 806.66 78.78 488.51 744.63 852.05 399.68 1011.46 394.39 841.81 527.32 860.94 658.27 985.47 655.21
00004252 00000112 807.85 75.70 491.00 752.98 858.18 399.90 1012.38 391.82 842.18 521.11 863.77 659.94 982.55 654.66
00004253 00000113 817.07 83.24 479.46 739.77 856.98 405.02 1026.06 388.67 845.92 524.47 872.06 668.85 991.44 655.86
00004254 00000114 825.58 82.51 480.77 740.51 862.48 407.93 1030.31 387.19 853.09 526.31 880.96 670.42 1004.24 653.95
00004255 00000115 830.91 96.87 482.58 733.19 868.47 395.79 1026.68 383.48 859.66 527.26 901.63 664.68 1028.94 655.22
00004256 00000116 835.44 97.31 480.34 737.60 869.29 396.51 1029.51 381.90 859.96 531.13 908.42 666.01 1044.61 654.07
00004257 00000117 838.23 94.68 480.61 738.97 873.73 394.10 1033.91 378.23 866.15 529.38 913.48 663.55 1050.67 650.62
00004258 00000118 843.80 94.61 478.64 735.48 877.78 393.43 1038.77 377.97 870.41 527.87 915.05 661.82 1052.02 649.45
00004259 00000119 848.10 92.94 478.09 737.37 882.59 394.83 1043.04 378.24 875.11 525.74 918.84 660.18 1056.36 646.90
00004260 00000120 849.42 93.89 478.68 732.34 883.66 395.81 1047.51 378.87 879.30 527.30 919.22 660.65 1056.46 647.52
00004261 00000121 851.16 81.64 482.98 745.53 892.16 400.03 1055.25 382.85 887.78 529.94 921.24 660.98 1057.66 646.19
00004262 00000122 851.87 87.58 481.99 738.91 892.32 401.15 1057.04 386.21 889.66 533.36 921.49 661.48 1057.44 648.63
00004263 00000123 853.38 89.81 480.77 737.62 893.31 403.72 1057.71 388.24 891.66 536.90 923.53 664.03 1059.65 650.55
00004264 00000124 855.15 90.78 482.09 744.19 893.58 408.95 1058.15 389.24 892.91 537.76 924.84 670.79 1061.09 653.77
00004265 00000125 855.64 99.83 477.20 730.72 889.81 404.25 1057.43 389.38 889.74 540.43 920.49 671.49 1059.26 660.14
00004266 00000126 855.22 103.82 477.78 728.50 889.47 406.41 1058.48 392.05 890.81 542.55 920.68 673.48 1060.70 662.63
00004267 00000127 855.81 103.61 476.16 730.68 890.69 408.78 1058.81 395.25 893.26 547.37 922.43 676.44 1060.34 666.13
00004268 00000128 856.59 110.56 476.22 728.96 891.15 413.87 1059.68 399.79 893.56 551.55 924.93 680.21 1063.40 669.02
00004269 00000129 856.92 110.24 475.22 735.74 892.81 417.05 1059.31 401.78 894.82 554.60 927.82 684.05 1064.53 671.42
00004270 00000130 857.46 114.87 476.07 733.67 894.84 420.52 1058.95 405.13 896.04 557.63 930.88 685.95 1066.32 672.92
00004271 00000131 860.20 117.46 474.36 732.99 897.72 423.70 1059.50 408.94 898.16 560.90 933.79 687.63 1067.22 674.94
00004272 00000132 866.79 113.83 473.84 742.43 903.89 433.99 1058.86 412.19 895.77 559.01 940.39 693.80 1067.53 674.28
00004273 00000133 863.17 123.71 472.68 728.30 902.44 426.09 1065.43 412.89 903.91 563.45 936.05 690.04 1070.02 678.55
00004274 00000134 870.89 118.41 474.67 743.61 908.17 437.06 1062.56 416.55 899.06 563.09 945.34 697.68 1071.38 679.31
00004275 00000135 871.85 124.09 472.14 738.24 909.86 438.77 1064.24 418.24 903.10 564.56 947.70 698.36 1072.87 680.06
00004276 00000136 873.51 124.42 472.75 740.35 911.95 440.50 1065.76 419.79 903.95 564.83 948.72 699.69 1073.71 681.18
00004277 00000137 868.44 130.99 473.94 736.73 912.98 431.83 1068.43 419.99 910.36 568.03 945.48 694.74 1078.50 683.76
00004278 00000138 868.09 132.45 474.66 738.71 912.61 433.90 1069.78 421.18 911.42 568.95 945.89 697.08 1082.15 685.07
00004279 00000139 868.39 135.29 475.29 737.73 912.02 436.68 1071.20 423.29 912.56 570.66 945.46 699.44 1085.98 686.81
00004280 00000140 869.21 134.65 475.51 741.03 912.70 439.18 1071.08 423.62 912.19 570.15 946.68 701.26 1088.66 686.89
00004281 00000141 869.67 136.53 475.18 743.05 913.25 442.13 1069.21 425.57 912.21 572.17 948.71 702.11 1089.59 687.09
00004282 00000142 868.41 137.49 474.62 744.03 913.51 442.31 1068.38 426.52 911.02 572.36 948.06 702.42 1089.07 688.01
00004283 00000143 869.39 140.09 472.51 740.93 913.46 444.78 1066.61 428.08 909.40 573.42 947.64 703.04 1088.17 687.77
00004284 00000144 871.08 143.30 471.54 738.33 914.66 446.22 1068.10 430.28 912.51 575.30 950.21 701.99 1090.92 687.37
00004285 00000145 874.48 144.11 470.44 742.09 917.29 447.89 1066.49 431.99 910.29 578.08 952.92 704.39 1091.52 689.61
00004286 00000146 873.68 147.39 474.82 741.90 916.84 447.92 1065.17 434.04 908.03 581.34 951.40 706.56 1089.79 693.42
00004287 00000147 870.22 145.57 475.24 744.77 916.73 449.56 1064.96 436.14 907.70 582.16 948.59 709.26 1083.33 696.66
00004288 00000148 869.33 147.51 474.99 742.04 916.08 450.68 1066.27 437.55 908.67 584.06 945.47 712.73 1075.98 700.71
00004289 00000149 868.97 152.36 478.17 739.84 915.85 453.15 1070.31 439.92 910.72 585.80 945.90 713.81 1080.62 701.89
00004290 00000150 871.69 154.69 481.38 741.46 916.29 456.79 1069.29 441.90 910.65 588.99 948.83 716.10 1084.91 702.83
00004291 00000151 871.64 158.93 478.78 737.53 916.10 458.75 1070.66 444.76 911.40 591.43 947.34 717.53 1083.88 704.99
00004292 00000152 868.75 164.16 475.96 732.15 912.80 462.93 1069.61 448.43 909.00 591.71 942.49 719.53 1079.35 706.32
00004293 00000153 867.10 167.40 474.72 730.65 909.91 465.96 1066.40 451.58 903.91 593.80 937.70 722.02 1073.57 708.96
00004294 00000154 864.96 162.46 475.92 727.14 907.55 467.50 1070.31 455.75 903.79 593.66 927.81 723.50 1058.59 714.13
00004295 00000155 865.23 162.85 471.07 715.45 905.11 468.72 1073.94 457.25 902.94 591.97 920.17 725.45 1047.59 717.18
00004296 00000156 862.19 162.47 473.34 718.88 903.21 468.94 1072.95 459.22 903.56 594.44 920.51 721.94 1052.83 715.05
00004297 00000157 862.06 161.95 473.75 735.86 903.85 471.87 1066.06 458.20 900.78 597.96 927.12 727.48 1062.80 715.87
00004298 00000158 861.60 172.76 470.85 733.46 898.92 469.41 1065.09 453.07 899.22 598.39 931.62 735.21 1069.39 722.50
00004299 00000159 859.77 175.31 474.26 727.66 898.24 470.66 1063.70 456.18 897.87 601.07 928.64 735.76 1062.76 724.92
00004300 00000160 861.15 164.89 475.26 738.86 904.24 481.72 1070.68 463.72 901.39 597.11 919.85 745.78 1044.66 732.27
00004301 00000161 857.50 181.17 472.46 711.37 896.89 475.25 1072.54 464.47 900.42 601.07 912.42 739.91 1037.23 733.78
00004302 00000162 849.89 184.39 479.76 709.28 893.19 475.08 1070.56 465.50 896.54 599.81 904.32 739.49 1028.89 734.86
00004303 00000163 847.23 188.67 479.55 698.68 891.13 474.06 1069.51 464.25 897.13 601.29 902.03 738.62 1024.57 733.99
00004304 00000164 847.87 187.23 479.10 695.80 893.46 472.49 1072.30 465.70 899.94 599.59 902.56 734.51 1025.49 732.21
00004305 00000165 854.18 171.46 475.53 714.50 896.62 474.03 1073.62 467.24 899.05 590.90 904.99 733.12 1028.56 728.08
00004306 00000166 861.47 173.44 471.08 716.19 903.49 473.91 1077.92 467.55 907.71 597.68 914.81 730.55 1043.56 727.02
00004307 00000167 864.94 171.81 475.89 733.22 910.81 476.60 1072.71 465.76 907.28 603.59 931.55 732.86 1063.99 723.91
00004308 00000168 871.72 175.38 469.95 735.94 912.63 478.21 1070.58 464.60 908.02 607.89 939.69 738.27 1073.16 726.05
