Video ID: 	5tUGPNkqA8c
H: 	1080
W: 	1920
FPS: 	23.976023976023978

FRAME INDEX X0 Y0 W H [Landmarks (5 Points)]

00005291 00000000 494.58 82.47 491.24 738.17 746.22 346.58 948.25 367.29 920.47 480.04 766.08 620.42 935.12 636.17
00005292 00000001 501.55 82.11 491.19 737.75 750.67 348.18 957.38 371.21 926.63 478.56 772.91 621.30 943.48 638.97
00005293 00000002 501.94 82.45 494.03 732.90 753.47 342.75 958.78 363.95 928.37 474.96 773.45 616.99 943.20 633.53
00005294 00000003 508.51 81.44 492.32 736.65 755.94 340.77 963.44 362.92 931.33 473.70 776.25 619.40 947.81 636.95
00005295 00000004 509.19 79.84 492.12 750.19 759.66 343.22 961.70 368.21 930.10 476.95 771.55 622.57 941.70 642.89
00005296 00000005 517.75 78.89 483.74 728.18 761.68 343.64 965.11 362.09 937.84 467.52 796.24 621.72 956.94 635.67
00005297 00000006 516.48 71.54 485.88 726.81 756.58 344.47 954.45 367.35 939.24 455.76 801.85 607.39 961.42 623.67
00005298 00000007 520.43 66.81 483.32 731.80 765.46 334.37 963.74 355.32 938.89 451.82 795.94 605.76 955.75 622.11
00005299 00000008 511.84 61.32 490.90 728.03 760.39 346.79 963.46 374.39 939.08 458.56 782.85 589.87 958.91 610.19
00005300 00000009 513.96 63.31 489.25 726.08 764.91 334.54 964.34 355.73 941.50 451.67 790.50 594.63 953.69 610.55
00005301 00000010 514.08 61.58 488.76 729.62 764.60 329.74 964.47 351.11 939.84 451.51 791.97 597.85 952.48 614.36
00005302 00000011 508.33 56.28 491.32 739.03 762.58 325.78 961.92 351.43 940.20 444.41 790.19 596.67 949.47 616.77
00005303 DELETE   501.93 58.03 494.11 746.72 756.43 323.07 957.85 349.89 937.18 440.11 783.27 600.04 946.94 621.43
00005304 00000013 495.16 67.25 489.65 762.09 747.83 328.92 947.11 362.62 923.63 446.41 769.08 610.07 938.51 636.85
00005305 00000014 490.35 66.06 490.04 765.37 738.84 325.82 939.78 360.80 914.85 444.57 760.92 610.15 930.60 637.70
00005306 00000015 481.39 64.15 494.36 759.73 730.00 326.51 936.55 362.13 907.61 450.22 749.63 607.32 922.07 634.62
00005307 00000016 472.12 60.83 494.24 733.65 707.08 335.27 910.98 360.18 887.22 442.59 745.02 597.68 914.71 616.10
00005308 00000017 468.02 67.17 492.71 730.70 701.56 337.33 900.90 359.85 877.84 436.48 745.20 599.63 907.93 616.69
00005309 00000018 462.56 63.25 494.95 747.58 698.98 329.62 903.19 359.60 873.51 435.12 732.77 598.01 899.68 619.64
00005310 00000019 462.35 63.41 490.19 748.30 696.68 332.08 900.86 358.30 871.10 437.22 737.36 601.51 901.21 619.79
00005311 00000020 462.09 67.27 489.57 751.45 697.33 339.55 905.90 362.22 875.65 449.94 739.05 613.53 907.89 628.55
00005312 00000021 466.48 69.67 491.63 739.68 696.69 346.74 896.93 360.03 875.88 449.36 746.30 615.01 908.69 624.31
00005313 00000022 467.41 69.39 488.54 744.12 699.01 347.20 897.86 361.38 879.01 451.53 747.09 615.90 909.89 626.03
00005314 00000023 467.81 71.43 488.37 754.36 706.78 340.89 914.78 363.37 889.08 456.46 739.66 616.54 914.37 631.76
00005315 00000024 470.82 79.18 491.62 752.69 713.48 346.71 919.79 366.52 895.47 468.23 737.81 620.20 917.75 633.68
00005316 00000025 470.65 81.75 493.55 754.56 711.16 349.19 919.74 367.60 895.63 469.59 735.10 623.53 918.21 635.99
00005317 00000026 470.40 81.64 492.02 759.32 713.50 351.82 921.12 373.32 898.31 475.71 731.36 628.03 915.77 643.27
00005318 00000027 470.82 88.71 491.70 759.64 714.43 357.20 921.05 383.44 899.06 482.92 733.06 635.58 914.55 654.82
00005319 00000028 468.01 91.56 503.42 771.63 719.04 370.47 921.68 398.83 898.23 509.90 727.15 652.66 904.11 674.42
00005320 00000029 465.47 91.47 506.82 772.95 721.01 372.40 922.86 397.60 899.21 511.50 729.41 653.19 906.22 672.23
00005321 00000030 467.47 92.17 504.40 759.53 723.06 374.53 920.82 396.32 894.43 509.02 742.35 647.94 909.99 663.65
00005322 00000031 468.46 89.36 504.47 757.15 723.92 372.64 923.06 393.73 894.48 506.44 742.43 641.89 912.63 656.88
00005323 00000032 469.75 87.28 499.22 758.07 724.12 367.32 922.28 387.88 895.64 497.88 746.55 640.11 915.03 654.77
00005324 00000033 469.17 85.56 497.28 761.97 718.13 355.69 922.52 378.68 898.44 485.66 729.89 631.18 914.92 648.08
00005325 00000034 468.26 80.48 499.46 761.68 716.35 349.78 925.60 375.19 895.67 482.25 719.35 624.23 912.24 643.25
00005326 00000035 465.46 78.44 500.62 762.76 708.46 345.09 920.31 370.82 888.69 477.91 712.17 618.01 910.13 636.91
00005327 00000036 466.14 81.41 499.74 750.34 707.90 347.80 918.66 371.41 885.71 478.38 716.60 617.29 909.20 634.28
00005328 00000037 476.09 83.68 493.56 723.96 710.26 348.27 921.28 365.98 883.56 463.21 739.34 606.30 919.29 617.73
00005329 00000038 479.68 85.67 490.89 717.64 714.23 345.90 923.31 366.44 883.04 462.00 741.48 602.98 917.15 616.71
00005330 00000039 482.38 82.47 491.27 719.11 718.94 355.37 923.89 376.12 886.38 464.28 745.26 605.20 916.43 619.59
00005331 00000040 481.52 75.75 492.67 728.22 718.21 349.66 928.02 375.55 891.28 457.83 745.05 603.85 920.32 622.28
00005332 00000041 484.53 65.18 488.49 713.49 715.84 338.77 921.34 360.08 890.97 451.47 749.96 595.98 917.96 612.23
00005333 00000042 487.67 57.41 485.65 714.45 717.63 329.98 924.80 349.04 894.26 444.83 751.98 591.50 919.98 605.90
00005334 00000043 488.06 58.40 487.20 716.81 720.92 325.35 933.35 346.80 897.25 447.21 754.50 590.36 920.90 605.17
00005335 00000044 493.73 60.23 482.59 713.16 726.59 329.55 931.63 346.83 899.61 451.49 759.20 593.31 925.58 606.56
00005336 00000045 499.19 74.09 494.25 736.24 740.84 336.83 950.61 357.13 910.90 467.94 769.19 613.48 938.63 628.49
00005337 00000046 498.89 76.40 499.45 760.33 747.22 345.87 953.93 367.94 920.69 478.80 763.07 626.84 938.73 644.44
00005338 00000047 502.42 81.22 500.33 761.23 749.19 349.04 957.36 369.92 924.53 483.48 762.29 630.64 941.35 647.68
00005339 00000048 501.58 80.46 502.71 760.63 749.14 350.78 957.29 369.23 924.51 482.73 768.00 631.79 944.81 646.50
00005340 00000049 498.50 80.13 498.81 764.26 751.63 354.24 954.18 374.19 928.66 481.17 777.58 637.40 947.32 653.07
00005341 00000050 497.28 82.41 498.05 756.78 747.35 355.06 952.94 373.19 926.09 479.56 779.99 635.89 950.05 649.27
00005342 00000051 497.06 79.93 495.17 756.21 746.35 354.22 951.76 372.87 924.39 477.82 780.23 632.96 949.81 646.42
00005343 00000052 495.94 81.70 495.95 751.01 743.14 353.85 949.30 370.36 921.20 477.94 778.45 631.51 948.25 643.12
00005344 00000053 495.18 80.19 492.01 746.13 742.07 351.60 947.91 368.29 919.95 473.61 776.63 626.17 945.77 637.73
00005345 00000054 494.49 82.07 492.49 737.20 737.82 349.44 945.13 365.82 914.43 473.92 772.80 622.64 941.64 633.75
00005346 00000055 493.63 80.62 491.65 733.49 735.49 346.51 943.45 362.60 912.84 469.28 770.67 619.29 940.83 630.16
00005347 00000056 492.38 74.65 487.68 732.44 728.64 336.03 937.50 357.17 903.24 452.70 763.47 607.35 933.19 622.13
00005348 00000057 491.70 72.73 488.60 733.15 728.65 332.92 936.44 354.88 904.29 450.01 763.17 606.18 931.02 621.85
00005349 00000058 489.36 64.98 487.58 736.51 724.71 329.38 933.66 350.11 901.35 446.15 761.86 603.43 928.66 617.90
00005350 00000059 491.43 64.02 486.88 732.29 725.95 325.49 934.45 347.83 902.88 439.47 764.88 596.59 930.28 612.12
00005351 00000060 488.44 59.54 485.30 733.25 724.59 320.97 930.54 341.85 902.24 435.76 762.33 591.78 926.69 606.02
00005352 00000061 488.53 59.64 485.44 729.35 723.58 323.90 929.03 342.20 901.48 437.05 763.36 590.80 926.06 602.95
00005353 00000062 490.42 62.74 483.94 728.10 724.20 324.38 931.45 343.36 901.77 438.40 763.99 592.47 928.79 605.05
00005354 00000063 489.55 68.17 484.91 724.10 722.49 327.85 931.87 349.60 899.82 442.93 760.37 596.71 926.51 611.60
00005355 00000064 489.60 79.47 485.17 725.98 724.59 334.76 932.93 359.96 900.08 455.12 753.82 607.04 925.01 625.31
00005356 00000065 489.97 84.31 486.61 729.25 724.49 338.62 933.80 364.94 898.37 459.64 752.97 611.51 925.53 630.78
00005357 00000066 489.30 81.34 486.03 730.19 724.87 338.97 932.85 364.22 898.39 458.60 756.45 611.76 925.61 630.03
00005358 00000067 494.20 77.15 482.39 728.15 728.77 339.45 935.00 361.15 902.61 453.36 766.55 608.86 931.52 623.97
00005359 00000068 495.27 67.25 490.81 731.62 734.70 330.03 946.09 355.03 909.45 445.81 768.22 601.91 937.20 619.94
00005360 00000069 497.60 59.04 486.99 732.71 738.91 325.03 946.03 349.59 913.91 439.22 776.42 595.57 940.24 613.09
00005361 00000070 502.11 58.44 485.32 730.45 744.80 320.42 949.71 345.69 920.69 437.02 781.46 593.54 942.57 612.33
00005362 00000071 502.98 54.71 490.25 731.00 750.20 321.19 956.16 345.76 925.52 439.16 782.98 591.83 947.33 610.47
00005363 00000072 509.74 70.84 488.59 725.34 752.44 333.24 956.66 355.04 924.71 452.91 784.01 605.27 947.57 621.84
00005364 00000073 513.06 78.13 488.78 729.10 753.43 339.41 960.38 363.46 926.31 462.26 784.48 616.84 947.51 635.73
00005365 00000074 507.69 80.84 488.67 734.06 754.40 345.26 957.79 373.88 927.03 469.92 783.81 622.44 944.42 645.00
00005366 00000075 506.81 85.42 483.93 735.33 750.14 350.79 955.02 377.37 923.71 475.24 780.85 628.63 943.53 649.32
00005367 00000076 503.06 85.24 481.93 740.09 746.78 351.76 950.43 375.88 920.31 479.78 777.86 630.64 940.03 648.87
00005368 00000077 494.30 87.90 483.97 719.09 735.15 349.41 941.19 370.98 906.82 482.14 764.71 619.95 928.72 634.99
00005369 00000078 492.50 85.34 484.72 717.51 731.08 345.85 939.56 365.90 902.83 479.02 761.23 616.29 927.04 629.90
00005370 00000079 491.76 80.34 485.58 722.56 729.14 340.35 938.36 362.27 900.36 474.56 759.04 613.15 925.36 627.97
00005371 DELETE   490.76 80.54 490.70 728.29 731.48 342.41 941.48 365.21 905.27 472.36 759.61 615.27 930.08 631.57
00005372 00000081 485.38 80.62 494.37 755.08 738.76 349.78 938.91 373.91 911.43 486.43 749.02 627.71 920.84 646.52
00005373 00000082 489.56 79.97 493.62 756.70 739.63 351.38 942.51 372.15 914.07 485.98 758.43 632.15 929.08 647.99
00005374 00000083 493.10 75.14 491.25 756.15 744.07 351.82 946.26 369.25 920.69 485.03 772.86 633.96 936.45 646.55
00005375 00000084 493.15 83.11 494.99 746.17 749.19 362.97 947.11 382.25 922.22 493.84 775.07 636.00 934.85 650.25
00005376 00000085 496.59 83.04 493.68 753.66 748.62 363.73 949.83 381.06 922.09 492.97 778.62 641.02 941.60 653.82
00005377 00000086 493.98 81.79 495.29 764.45 746.10 364.37 949.78 379.95 923.35 493.80 779.26 645.76 944.31 657.21
00005378 00000087 486.36 81.96 499.55 767.65 743.64 365.99 943.87 383.35 922.68 493.79 779.36 649.01 939.04 661.52
00005379 00000088 483.32 86.69 499.68 766.45 738.36 368.41 938.27 387.12 917.43 495.12 776.21 652.91 934.32 666.61
00005380 00000089 482.43 87.31 498.41 768.14 735.96 367.20 935.28 386.43 915.51 491.11 773.97 651.17 932.89 665.25
00005381 00000090 481.25 83.88 494.28 772.54 733.62 362.75 932.74 381.37 913.32 486.89 769.96 647.88 931.90 661.36
00005382 00000091 482.93 86.28 489.21 767.54 734.32 360.70 929.44 379.91 911.79 483.66 769.71 644.53 929.08 658.51
00005383 00000092 485.93 85.56 487.54 769.42 734.48 358.64 930.07 375.50 911.88 480.04 770.37 642.95 932.55 655.00
00005384 00000093 495.30 83.47 489.38 745.12 741.90 354.03 940.37 364.93 917.25 478.02 779.20 630.06 942.89 637.10
00005385 00000094 499.47 79.51 490.17 731.02 742.20 347.14 942.36 359.41 913.47 470.67 777.02 615.87 941.03 624.12
00005386 00000095 500.95 73.68 491.33 724.10 739.76 338.39 944.03 348.84 911.19 463.29 778.03 607.87 942.84 614.40
00005387 00000096 499.60 73.53 489.90 721.13 734.81 333.67 944.07 349.99 908.07 457.77 769.82 603.67 939.39 614.80
00005388 00000097 497.34 75.75 489.79 727.69 736.77 332.14 941.54 353.84 906.44 459.48 762.25 605.99 931.17 622.21
00005389 00000098 497.41 75.01 488.09 738.03 738.71 333.16 938.99 354.31 907.12 461.77 765.29 610.08 930.22 625.73
00005390 00000099 493.45 76.40 492.19 732.57 736.69 339.58 941.39 356.03 910.91 468.67 764.60 612.60 933.67 624.31
00005391 00000100 496.31 77.96 484.07 737.37 738.54 349.59 939.19 362.80 913.10 475.07 777.01 624.44 937.17 633.02
00005392 00000101 495.09 76.02 484.09 742.28 740.25 346.92 936.88 362.74 912.22 471.63 774.84 623.19 932.46 634.26
00005393 00000102 492.96 74.45 486.62 740.38 739.48 341.06 938.73 359.94 911.48 467.93 769.72 616.80 930.96 630.24
00005394 00000103 491.88 67.76 488.19 740.29 734.51 332.07 934.82 353.44 903.50 459.70 764.96 608.98 925.98 624.28
00005395 00000104 486.99 65.53 488.90 723.22 722.97 329.37 934.31 349.63 896.57 459.29 755.96 601.36 922.73 615.22
00005396 00000105 482.06 66.73 491.70 721.15 720.80 332.11 931.58 350.67 896.13 463.59 750.61 601.92 919.00 614.34
00005397 00000106 482.36 70.45 490.19 715.65 718.31 342.85 918.69 354.35 891.26 467.56 749.08 605.22 914.17 613.63
00005398 00000107 477.36 80.55 498.27 722.27 720.20 344.67 934.30 361.22 899.81 476.65 744.90 614.35 919.79 624.86
00005399 00000108 476.28 90.97 496.83 731.23 721.79 363.35 927.92 375.56 898.30 491.75 748.30 630.43 922.57 637.89
00005400 00000109 473.97 95.27 495.82 734.25 722.17 370.66 922.25 380.96 894.39 504.58 749.16 638.83 917.45 644.84
00005401 00000110 471.92 99.50 500.50 735.78 719.92 375.77 924.88 385.07 894.89 512.02 744.38 645.08 917.66 650.38
00005402 00000111 469.32 99.62 499.54 743.13 718.12 375.24 921.34 385.38 894.36 511.98 741.37 647.21 915.35 653.14
00005403 00000112 468.01 99.05 499.85 744.30 714.38 376.52 918.11 383.56 888.14 508.53 734.77 641.54 914.58 644.92
00005404 00000113 465.94 103.14 500.15 743.51 713.30 376.18 913.57 384.83 883.89 509.28 732.41 640.62 910.16 645.19
00005405 00000114 465.16 101.94 496.52 747.92 712.72 370.38 909.83 383.67 880.85 505.70 720.20 635.81 901.36 644.60
00005406 00000115 463.14 102.00 499.59 759.16 711.71 370.90 909.92 383.94 881.78 503.57 706.42 633.68 890.84 642.51
00005407 00000116 467.68 106.72 496.75 759.37 714.28 369.53 912.52 383.45 886.40 504.35 702.63 634.63 891.50 644.66
00005408 00000117 475.84 89.13 505.97 755.68 724.50 368.43 929.19 386.56 898.67 498.01 722.53 627.08 912.26 641.06
00005409 00000118 484.77 86.77 505.03 739.58 731.53 372.19 937.29 381.38 902.45 491.23 745.24 620.48 930.49 626.41
00005410 00000119 495.58 83.58 496.28 732.46 737.69 363.27 941.75 371.12 907.83 484.38 766.08 622.27 938.94 626.75
00005411 00000120 500.05 77.14 495.99 735.47 736.33 354.28 946.53 361.68 909.97 479.98 771.08 622.24 945.29 626.45
00005412 00000121 498.56 80.59 490.81 733.98 737.81 354.93 945.42 362.70 917.23 477.29 779.38 625.91 947.40 629.91
00005413 00000122 495.22 79.69 487.48 740.00 736.51 356.17 939.50 366.56 914.48 476.05 776.44 628.24 942.18 634.55
00005414 00000123 490.66 80.96 489.69 756.58 735.90 358.93 936.50 372.73 913.67 481.15 770.88 635.72 938.26 645.03
00005415 00000124 482.00 88.78 491.95 757.39 722.94 362.26 927.13 374.42 905.52 483.89 759.94 642.69 930.02 650.67
00005416 00000125 472.63 97.84 490.85 746.22 712.07 374.23 910.38 386.19 881.80 496.92 750.75 646.64 915.86 653.78
00005417 00000126 472.32 100.47 490.47 738.96 709.53 377.04 909.72 387.22 879.14 497.86 748.28 646.12 914.86 651.83
00005418 00000127 473.01 95.48 487.25 737.31 708.38 375.25 907.88 384.66 876.28 493.69 745.87 641.28 912.28 646.67
00005419 00000128 471.19 91.38 494.03 730.82 708.16 373.44 911.30 381.90 878.24 490.27 744.36 632.78 914.35 636.93
00005420 00000129 480.57 82.29 491.84 722.76 704.16 367.30 906.93 368.55 878.34 468.03 748.19 617.00 918.49 617.04
00005421 00000130 465.03 69.92 501.54 750.27 706.66 338.39 915.39 363.49 882.62 454.73 726.03 606.45 905.63 624.66
00005422 00000131 466.06 67.75 499.41 755.17 706.04 332.94 917.70 360.34 885.81 451.68 720.50 603.13 906.97 623.02
00005423 00000132 466.98 65.09 500.14 755.47 706.19 328.04 920.09 356.30 887.84 447.11 721.63 600.58 908.63 621.09
00005424 00000133 481.04 55.03 493.09 749.64 715.96 327.13 928.47 351.40 896.55 442.97 752.17 599.07 924.67 615.64
00005425 00000134 489.74 61.84 490.36 742.12 725.69 330.64 935.26 349.04 902.87 449.93 765.15 605.13 933.15 617.63
00005426 00000135 495.38 63.97 489.20 748.45 733.18 330.84 939.52 351.05 908.18 450.64 769.43 609.04 935.39 623.57
00005427 00000136 495.37 76.89 497.45 751.33 741.39 337.74 944.88 355.27 913.75 471.69 759.35 617.28 934.75 630.56
00005428 00000137 500.13 85.75 491.09 733.31 743.96 347.08 947.98 363.25 917.50 476.16 772.79 621.67 940.41 633.45
00005429 00000138 503.99 87.41 484.55 731.12 746.77 360.10 947.04 371.78 919.57 488.13 781.23 630.58 942.71 638.58
00005430 00000139 502.40 95.41 487.38 733.64 744.05 370.79 943.96 382.48 915.39 502.24 778.03 641.70 941.67 649.67
00005431 00000140 493.00 94.37 491.02 746.39 743.58 385.36 935.67 398.68 910.10 518.37 773.99 658.37 926.16 668.20
00005432 00000141 484.35 92.83 494.30 749.10 738.36 380.91 930.65 389.49 910.44 513.71 765.85 653.48 921.13 659.33
00005433 00000142 485.15 86.11 493.39 743.97 736.23 375.16 933.85 387.37 909.38 510.17 760.14 643.94 919.91 652.29
00005434 DELETE   486.32 86.27 492.78 738.97 734.22 366.95 936.87 383.77 911.50 496.09 758.36 634.32 926.24 646.23
00005435 00000144 496.84 76.45 492.08 752.48 743.48 349.07 941.53 365.86 913.06 483.15 766.64 626.92 929.67 639.37
00005436 00000145 497.48 79.68 494.75 754.00 746.20 348.77 946.00 367.47 917.25 483.84 765.91 627.27 933.20 641.30
00005437 00000146 499.85 79.78 489.86 754.60 749.03 352.68 946.10 370.62 918.39 487.27 769.23 630.52 934.26 644.14
00005438 00000147 498.31 84.11 489.06 753.41 752.12 359.98 946.36 378.79 923.49 491.46 772.27 635.25 934.51 649.73
00005439 00000148 497.42 91.44 491.20 748.36 749.16 367.24 941.06 382.65 917.13 499.57 773.08 640.47 934.70 652.13
00005440 00000149 494.80 85.07 490.10 759.47 746.17 359.60 940.72 379.29 918.48 491.66 765.06 636.76 930.36 652.25
00005441 00000150 494.24 79.05 489.68 765.83 745.97 352.60 940.93 370.85 919.95 487.47 757.18 630.58 927.28 644.92
00005442 00000151 495.22 75.68 490.61 757.01 744.46 346.86 942.35 365.38 915.40 479.88 761.45 623.04 930.09 636.91
00005443 00000152 506.15 70.17 483.10 724.58 742.94 333.62 945.35 349.70 908.38 462.29 772.72 602.43 938.19 613.46
00005444 00000153 508.55 68.70 482.25 723.40 744.59 333.33 947.85 347.70 911.73 461.38 776.74 602.63 941.42 612.36
00005445 00000154 503.49 69.53 484.60 727.03 743.00 332.08 945.36 350.11 909.46 463.62 774.25 604.78 936.99 617.27
00005446 00000155 497.12 75.96 488.50 725.29 738.27 336.39 940.87 354.02 906.16 470.25 769.69 609.73 931.80 621.95
00005447 00000156 483.30 86.07 488.42 742.20 731.78 364.87 927.23 376.13 903.99 496.51 754.98 633.91 919.79 641.62
00005448 00000157 477.27 87.95 488.79 757.00 726.44 371.91 918.41 388.90 895.32 508.33 746.23 646.20 909.26 658.50
00005449 00000158 470.12 89.56 496.11 769.31 722.91 377.45 915.49 395.88 892.97 517.05 737.42 657.16 900.10 670.92
00005450 00000159 472.50 96.86 491.85 760.35 722.57 393.36 915.56 411.15 890.65 529.45 732.96 665.91 895.56 679.57
00005451 00000160 472.96 104.41 495.66 748.81 718.78 399.35 917.43 408.01 889.05 537.57 731.90 669.65 898.47 676.09
00005452 00000161 472.36 103.03 496.18 752.74 718.41 385.04 916.81 395.89 888.94 525.95 743.14 667.14 905.77 674.64
00005453 00000162 472.99 100.17 498.49 747.53 721.20 380.91 918.98 389.28 893.80 518.93 748.04 657.23 913.28 662.53
00005454 00000163 473.13 94.26 500.22 750.13 721.56 377.11 921.87 384.61 895.68 516.44 745.64 650.33 915.26 654.55
00005455 00000164 475.70 89.63 496.76 745.88 723.80 370.89 924.55 378.52 899.22 510.89 747.06 642.71 916.21 646.80
00005456 00000165 481.63 82.57 495.22 750.40 736.49 356.35 933.78 368.87 912.21 495.90 755.68 633.86 922.16 642.68
00005457 00000166 486.89 83.18 492.15 750.52 742.79 356.29 936.84 368.59 916.86 491.95 768.02 634.89 929.85 643.58
00005458 00000167 489.55 84.84 491.81 750.68 745.84 358.37 938.54 370.92 919.59 493.39 772.08 637.12 932.69 646.25
00005459 00000168 491.34 81.49 494.44 758.75 745.32 360.81 942.66 373.30 921.42 493.32 777.72 641.79 938.35 650.55
00005460 00000169 486.87 84.53 497.10 772.90 750.00 371.62 938.55 390.87 923.44 495.51 779.10 650.77 932.79 665.33
00005461 00000170 487.13 84.99 494.98 772.20 749.30 370.80 937.40 387.31 923.48 492.24 779.04 649.76 933.83 662.03
00005462 00000171 487.19 83.49 496.48 768.60 743.64 364.67 937.23 380.66 920.44 485.19 779.14 646.00 938.58 657.82
