Video ID: 	DrLKV_IoSrY
H: 	1080
W: 	1920
FPS: 	25.0

FRAME INDEX X0 Y0 W H [Landmarks (5 Points)]

00006382 00000000 522.40 239.24 428.46 498.64 673.02 400.85 870.91 382.55 818.52 498.13 724.31 601.17 882.97 586.57
00006383 00000001 515.08 243.77 426.09 494.54 661.86 399.94 858.88 379.63 806.48 497.83 719.45 601.78 876.21 585.45
00006384 00000002 508.67 241.20 418.76 506.09 655.92 402.24 848.69 380.05 798.57 500.24 721.12 610.19 867.31 592.02
00006385 00000003 509.09 244.62 407.73 498.38 657.83 404.61 834.16 377.68 795.28 493.23 712.86 616.77 846.79 591.75
00006386 00000004 503.28 237.45 406.33 500.45 650.65 405.27 827.57 376.69 788.47 494.16 708.32 615.91 840.79 589.96
00006387 00000005 497.79 236.39 407.82 495.39 642.21 404.68 827.79 377.11 784.11 498.14 701.77 614.96 842.53 589.77
00006388 00000006 493.77 236.70 414.01 488.26 637.86 400.85 827.78 374.44 781.26 494.16 694.66 606.43 846.60 582.38
00006389 00000007 494.65 239.48 414.45 480.54 637.23 401.15 827.63 373.33 781.10 493.22 690.28 600.78 849.34 576.29
00006390 00000008 498.47 242.75 415.12 479.17 639.69 402.73 829.76 373.50 783.72 493.12 692.84 601.10 852.09 575.69
00006391 00000009 502.24 239.69 417.83 496.99 646.19 407.53 831.81 370.37 795.49 491.39 698.77 606.11 858.34 574.71
00006392 00000010 505.08 236.91 419.20 504.03 646.73 397.86 838.62 369.35 792.20 486.34 718.06 603.15 870.13 580.03
00006393 00000011 510.13 241.52 416.85 495.48 651.82 400.13 846.88 370.84 800.32 490.31 725.74 606.46 876.55 582.31
00006394 00000012 514.27 239.70 418.06 491.03 659.66 399.55 850.77 368.80 808.81 489.00 733.18 603.01 880.26 577.47
00006395 00000013 514.99 241.74 423.18 485.85 661.33 399.23 852.54 368.64 811.14 486.29 736.34 600.69 883.52 575.08
00006396 00000014 514.20 238.92 420.27 493.59 659.13 399.11 850.87 369.43 807.69 487.89 732.62 602.92 880.91 578.21
00006397 00000015 509.96 232.27 424.18 527.64 652.02 407.34 841.75 379.31 794.62 496.26 717.80 614.04 871.14 591.09
00006398 DELETE   504.35 246.52 422.88 517.56 642.50 424.66 833.65 388.04 789.30 511.66 691.64 627.45 857.59 595.77
00006399 DELETE   495.48 239.39 421.94 519.33 630.35 432.36 819.23 402.02 765.22 519.13 675.26 627.23 838.78 601.13
00006400 DELETE   485.39 248.33 425.47 513.17 612.99 436.02 804.30 406.81 737.98 525.10 659.45 631.37 824.65 606.00
00006401 00000019 478.31 254.93 422.52 513.15 592.53 435.03 784.97 409.59 706.63 526.31 640.40 638.47 801.16 615.82
00006402 DELETE   473.21 256.23 420.35 524.84 576.13 439.46 771.45 419.91 684.95 531.66 619.07 641.42 787.69 624.40
00006403 00000021 472.00 259.00 415.08 530.94 563.14 443.16 763.20 426.51 666.11 538.89 604.99 649.16 776.27 634.56
00006404 00000022 468.06 261.72 416.79 532.38 557.51 450.53 756.97 435.60 656.02 547.07 601.40 656.91 766.87 644.35
00006405 00000023 462.83 267.56 425.67 532.70 553.26 456.06 753.38 439.24 650.80 556.28 601.48 664.45 760.19 650.39
00006406 DELETE   460.36 272.12 428.37 531.85 552.27 462.93 752.89 447.32 647.27 570.21 600.15 675.26 751.93 662.30
00006407 00000025 457.68 280.07 431.91 527.73 550.75 468.36 751.28 457.12 642.28 578.91 598.90 681.92 743.69 672.32
00006408 00000026 461.38 291.20 428.03 517.53 542.59 474.42 744.88 461.27 637.18 592.94 597.66 696.56 737.40 682.98
00006409 00000027 461.54 298.00 424.06 512.81 542.00 479.85 741.01 468.54 633.08 596.14 590.81 698.15 732.47 686.21
00006410 00000028 462.08 299.32 422.05 513.15 542.88 482.10 741.12 470.97 632.88 596.34 588.33 698.51 731.83 686.84
00006411 00000029 462.61 300.29 421.10 515.58 544.59 482.36 742.29 471.30 634.87 596.84 589.28 700.73 733.51 689.07
00006412 00000030 460.97 306.02 421.28 515.81 546.42 481.21 743.86 470.62 636.67 594.84 589.62 698.42 739.10 687.15
00006413 00000031 460.24 305.63 419.70 517.40 547.93 480.69 744.44 471.05 638.60 593.10 588.53 694.60 745.12 684.18
00006414 00000032 460.12 304.40 418.50 517.37 547.86 483.37 744.58 472.88 639.24 593.85 589.36 692.66 750.44 681.54
00006415 00000033 459.10 306.28 418.62 516.29 547.48 486.78 744.11 475.04 639.60 596.10 589.33 691.67 753.29 679.54
00006416 00000034 458.49 305.93 418.23 518.28 546.29 488.37 743.22 476.02 639.12 598.38 589.39 691.82 754.58 679.11
00006417 00000035 458.11 307.12 419.21 517.60 546.81 487.48 743.95 475.09 640.51 598.22 590.41 691.99 753.68 679.12
00006418 00000036 457.98 305.83 421.84 515.12 546.41 485.30 743.84 471.42 639.85 593.90 592.20 690.51 752.48 676.36
00006419 00000037 457.61 305.33 423.46 513.66 545.79 482.14 743.46 466.79 639.26 589.97 593.00 689.34 751.80 673.90
00006420 00000038 457.90 301.41 425.41 515.50 545.60 480.90 743.97 464.62 639.36 588.55 593.86 688.63 750.69 672.46
00006421 00000039 457.99 302.06 424.62 515.74 547.59 480.25 745.56 465.33 641.33 590.00 595.16 688.86 751.12 673.74
00006422 00000040 452.31 293.42 437.10 524.31 550.87 477.48 751.75 465.13 644.91 589.41 599.04 683.68 758.71 671.88
00006423 00000041 453.97 290.01 437.55 523.38 554.82 475.99 754.76 462.45 649.87 586.90 605.20 682.80 756.52 670.66
00006424 00000042 456.53 284.69 438.12 530.97 561.43 474.12 759.91 463.15 656.65 586.89 609.19 684.20 755.78 674.85
00006425 00000043 456.79 289.33 437.23 525.02 566.17 474.37 764.41 462.71 664.75 588.23 616.09 686.30 758.66 676.53
00006426 00000044 467.68 298.65 429.85 513.87 574.46 470.36 773.85 454.49 680.15 589.16 628.09 694.36 760.92 678.30
00006427 00000045 470.75 296.93 427.60 514.41 580.41 469.91 780.94 450.90 690.90 586.52 638.17 695.98 773.45 676.93
00006428 00000046 473.20 290.75 427.68 517.59 585.10 470.62 787.16 448.90 700.99 587.83 642.39 693.39 790.76 671.85
00006429 00000047 471.00 284.12 436.13 526.83 587.31 473.70 791.10 454.49 708.00 583.05 645.40 685.08 803.47 668.22
00006430 00000048 478.86 292.66 427.67 518.07 597.28 469.77 796.95 449.44 717.47 586.97 649.70 689.04 803.75 669.02
00006431 00000049 480.42 293.94 428.68 518.00 601.08 468.22 799.70 446.85 723.76 588.77 654.43 688.94 804.74 668.01
00006432 00000050 480.65 296.99 429.41 512.43 602.67 468.98 800.53 445.89 726.06 588.80 657.94 688.96 807.29 666.44
00006433 00000051 481.19 296.79 428.21 504.74 602.44 468.50 800.94 445.91 725.16 587.77 656.94 686.42 808.64 664.30
00006434 00000052 479.80 293.69 428.60 503.00 599.85 467.40 798.57 443.80 722.38 587.50 658.71 686.74 807.36 663.54
00006435 00000053 477.76 291.02 428.93 502.17 597.90 466.04 795.88 442.67 719.27 585.24 660.01 685.47 804.43 662.26
00006436 00000054 474.91 293.56 429.83 497.20 595.57 463.59 793.67 439.50 717.90 582.14 659.37 683.48 803.73 659.66
00006437 00000055 474.61 293.09 427.31 496.72 595.28 461.83 792.81 437.12 718.36 580.06 660.08 683.45 801.49 659.22
00006438 00000056 468.81 283.99 430.51 515.29 589.46 462.92 790.66 437.83 714.88 574.57 656.69 680.99 802.71 659.85
00006439 00000057 465.08 276.46 428.52 531.32 585.45 462.22 784.17 434.27 709.76 571.10 653.95 683.57 800.07 660.08
00006440 00000058 463.22 281.71 426.93 526.04 583.00 460.22 781.04 433.81 706.12 568.38 648.16 679.94 796.45 658.00
00006441 00000059 461.40 279.85 427.42 527.81 582.18 460.55 781.74 434.44 706.32 565.51 643.05 677.01 798.07 655.49
00006442 00000060 460.42 285.55 428.81 519.43 581.41 462.46 782.10 435.83 707.12 567.60 642.40 676.39 799.78 654.43
00006443 00000061 460.79 282.28 431.21 522.79 582.35 465.54 784.89 437.36 709.18 572.63 646.13 680.31 802.75 656.95
00006444 00000062 463.81 285.86 429.44 513.99 584.79 467.16 787.32 439.95 712.57 578.45 655.18 684.33 801.88 661.71
00006445 00000063 465.76 289.00 429.67 507.39 586.96 469.41 790.06 443.22 715.36 581.83 659.33 684.62 804.86 662.56
00006446 00000064 467.42 290.74 432.13 503.69 589.66 470.61 793.17 443.89 719.47 583.08 662.67 683.71 809.42 661.03
00006447 00000065 476.04 296.87 427.67 495.13 600.47 467.60 798.35 438.56 730.07 583.54 667.87 685.84 814.82 657.73
00006448 00000066 479.78 290.25 430.29 500.64 607.83 466.55 805.05 438.94 738.18 583.47 672.28 682.54 818.67 655.95
00006449 00000067 485.45 287.29 429.03 506.24 613.65 464.66 810.27 438.81 744.18 582.20 675.94 681.56 822.94 656.63
00006450 00000068 491.62 284.48 428.72 518.62 618.18 466.91 814.27 442.90 747.01 583.81 678.57 686.04 825.08 662.58
00006451 00000069 493.16 292.39 427.33 515.13 620.46 468.80 816.29 444.91 750.35 586.56 678.85 688.29 825.71 665.35
00006452 00000070 495.40 295.13 425.77 513.93 622.21 470.31 818.40 447.03 752.09 588.59 679.09 688.61 827.36 666.39
00006453 00000071 494.52 292.17 427.34 517.27 622.63 470.67 819.52 447.26 753.52 589.84 679.46 688.87 828.97 666.45
00006454 00000072 494.37 299.36 426.34 509.37 621.98 470.63 818.63 447.77 752.83 590.09 676.96 687.04 827.39 665.17
00006455 00000073 493.09 294.07 427.28 510.89 620.06 469.73 817.57 448.03 750.00 589.80 674.53 685.74 826.20 664.86
00006456 00000074 490.54 288.20 426.83 514.40 617.77 468.51 814.79 446.96 746.88 588.19 672.93 685.43 823.55 664.46
00006457 00000075 487.05 293.61 425.73 505.37 613.77 467.17 810.10 445.94 740.83 586.82 670.31 686.25 816.81 665.55
00006458 00000076 485.66 293.78 425.55 503.79 612.24 467.43 808.38 445.16 738.93 585.99 669.46 686.00 815.22 664.29
00006459 00000077 488.68 289.92 423.90 505.71 616.49 467.39 811.69 445.76 744.13 585.02 673.66 683.81 819.80 662.61
00006460 00000078 490.80 296.70 424.56 500.58 619.97 470.17 816.59 447.25 751.39 588.44 678.80 685.06 827.81 662.70
00006461 00000079 494.23 295.97 420.42 499.69 626.62 472.40 821.33 449.97 759.94 588.52 684.16 684.53 833.15 662.38
00006462 00000080 494.44 297.21 420.79 499.53 629.20 477.22 823.49 451.99 764.64 593.42 687.25 687.07 837.23 662.83
00006463 00000081 490.21 296.54 422.11 499.46 624.80 478.46 818.55 451.04 761.23 594.26 685.52 688.41 834.92 662.42
00006464 00000082 484.24 292.37 422.15 503.91 615.68 477.48 810.65 448.91 749.66 594.88 677.81 689.79 827.71 662.47
00006465 00000083 475.74 299.21 426.30 495.00 603.92 477.15 801.42 447.18 735.79 593.84 669.30 690.05 819.45 661.48
00006466 00000084 470.13 307.28 426.75 486.46 595.69 474.34 793.57 447.25 722.89 594.52 659.11 688.81 810.25 662.81
00006467 00000085 472.48 304.18 426.99 488.20 595.57 474.09 793.86 448.19 720.33 593.68 658.41 688.89 808.10 663.69
00006468 00000086 476.01 302.90 427.66 489.78 602.71 479.97 798.90 455.43 727.98 596.66 661.58 688.07 814.23 664.08
00006469 00000087 483.55 296.68 428.37 503.24 613.73 485.02 808.30 459.38 741.32 602.50 670.31 693.29 820.05 668.54
00006470 DELETE   495.09 306.55 425.61 504.11 627.79 484.92 821.01 462.61 758.02 600.43 681.72 697.05 827.61 675.89
00006471 DELETE   504.22 300.80 419.58 513.30 636.28 486.29 832.11 465.60 768.19 601.04 684.98 697.62 835.87 678.45
00006472 00000090 509.55 304.08 424.73 509.98 640.50 489.00 836.79 464.73 772.89 601.52 688.34 690.92 847.90 668.30
00006473 00000091 509.43 301.33 423.72 513.92 640.29 489.06 836.25 462.52 774.73 599.10 689.04 690.51 849.77 665.94
00006474 00000092 500.32 297.86 425.27 523.33 634.09 486.13 830.12 461.11 769.49 597.97 682.53 693.06 840.87 670.14
00006475 00000093 491.00 295.89 431.47 528.47 626.62 487.19 822.87 462.30 760.52 603.78 675.69 696.76 833.19 673.81
00006476 00000094 485.19 291.74 427.43 524.68 616.29 486.34 814.85 460.52 748.65 604.56 669.86 698.60 827.30 674.19
00006477 00000095 478.24 302.33 424.71 512.75 608.42 486.96 805.01 457.85 740.83 601.78 669.65 700.90 822.60 673.65
00006478 00000096 477.44 302.54 424.14 515.53 607.60 484.24 802.52 455.11 738.33 601.92 674.57 705.83 815.18 678.31
00006479 00000097 479.07 300.50 425.03 513.23 610.77 482.67 805.27 454.83 743.28 603.33 680.12 706.18 817.96 679.38
00006480 00000098 488.12 296.47 426.35 518.39 619.80 485.56 813.38 458.31 751.84 602.62 684.63 703.52 826.40 677.68
00006481 00000099 499.72 297.86 422.41 514.16 629.91 487.82 823.44 462.45 761.95 600.49 694.44 703.90 836.13 679.48
00006482 00000100 508.38 301.76 419.21 507.82 641.65 489.10 833.27 461.60 774.43 599.76 701.34 700.49 844.77 674.73
00006483 00000101 514.37 296.06 428.79 513.16 645.14 483.25 848.56 464.32 769.31 603.72 708.05 694.29 851.09 678.69
00006484 00000102 518.18 297.54 427.85 510.86 651.75 483.08 852.30 464.42 776.34 603.35 712.18 692.09 854.22 676.76
00006485 00000103 520.97 300.77 427.41 504.46 655.43 481.85 857.30 464.78 782.07 598.92 712.85 687.74 859.02 673.85
00006486 00000104 522.38 302.52 426.54 499.38 659.08 481.38 861.00 465.15 788.55 596.40 716.33 684.19 863.60 670.97
00006487 00000105 521.69 311.23 432.33 489.41 661.03 479.46 863.61 462.11 793.18 593.42 717.02 680.89 865.93 666.68
00006488 00000106 521.30 309.81 430.56 486.72 660.15 477.87 862.95 459.33 793.97 589.45 718.03 677.98 867.22 662.85
00006489 00000107 520.94 313.53 430.79 484.29 661.31 479.12 863.52 459.63 796.97 588.93 719.64 677.78 869.47 661.81
00006490 00000108 518.69 313.22 430.13 483.80 657.83 473.64 859.10 453.59 794.27 585.06 718.01 675.45 866.59 659.00
00006491 00000109 517.07 310.32 426.49 489.64 653.51 471.17 854.41 451.69 786.34 585.29 714.21 677.91 861.80 661.86
00006492 00000110 512.22 313.17 416.39 497.11 651.52 480.69 840.05 456.70 785.36 586.63 697.78 686.51 848.32 663.97
00006493 00000111 500.89 309.21 421.75 506.37 643.78 475.51 831.32 454.46 778.10 584.98 687.88 681.40 841.13 661.85
00006494 00000112 496.96 298.19 422.23 510.30 636.94 471.80 826.32 449.21 772.39 583.50 680.75 674.94 838.77 654.00
00006495 00000113 495.57 294.21 419.73 501.38 635.01 471.21 826.84 448.23 771.65 583.90 682.68 675.14 839.07 653.32
00006496 00000114 494.19 290.09 419.57 503.53 635.22 468.29 826.46 445.57 772.06 579.39 683.10 673.62 838.25 651.84
00006497 00000115 495.89 286.47 419.70 509.49 637.48 467.11 827.90 443.89 774.06 578.76 686.01 674.46 839.53 652.06
00006498 00000116 501.70 295.21 416.97 507.99 641.23 470.27 828.97 447.62 774.91 580.09 690.82 679.42 838.60 657.56
00006499 00000117 503.17 298.36 415.72 502.20 643.11 470.73 830.38 447.72 776.56 580.30 692.80 679.34 839.60 657.15
CROP_BBOX: 232 0 1253 1059
