Video ID: 	YXohQDIdKH4
H: 	1080
W: 	1920
FPS: 	25.0

FRAME INDEX X0 Y0 W H [Landmarks (5 Points)]

00001966 00000000 686.05 114.42 591.26 840.07 965.56 409.12 1202.12 470.48 1140.56 566.02 923.86 685.85 1158.72 733.41
00001967 00000001 676.11 108.03 594.06 847.95 952.88 403.75 1194.02 466.69 1129.15 559.88 910.02 684.13 1149.43 732.86
00001968 DELETE   670.87 103.73 590.32 852.00 942.51 396.35 1189.24 463.16 1117.39 553.84 894.33 682.34 1138.97 734.25
00001969 00000003 652.08 99.89 595.93 831.61 928.18 393.66 1170.90 458.25 1101.85 548.97 879.08 669.28 1118.43 723.11
00001970 00000004 636.74 91.67 598.00 832.26 916.35 391.13 1155.78 446.23 1099.02 538.95 873.26 666.23 1110.77 711.90
00001971 00000005 617.31 93.57 606.52 830.94 905.61 387.96 1144.94 443.59 1090.50 536.82 862.16 663.75 1101.70 709.12
00001972 00000006 609.10 101.08 602.93 820.37 892.53 384.48 1133.91 443.83 1076.30 534.90 851.20 661.08 1092.34 707.53
00001973 DELETE   597.61 98.14 601.84 823.30 877.07 383.50 1122.62 438.96 1062.81 534.82 836.70 663.48 1081.70 707.14
00001974 DELETE   573.23 105.44 607.16 812.73 853.67 389.93 1098.66 446.06 1034.59 537.43 809.23 660.97 1052.71 707.82
00001975 DELETE   553.82 99.94 608.99 826.16 837.75 389.25 1082.65 438.70 1024.69 541.99 793.75 666.54 1039.70 706.98
00001976 00000010 550.66 104.80 603.76 829.19 825.32 393.25 1071.82 443.60 1011.02 543.87 785.51 670.33 1035.37 710.45
00001977 00000011 545.82 111.24 611.21 836.79 813.73 402.26 1068.13 451.63 998.72 549.61 774.61 679.21 1035.14 718.20
00001978 00000012 544.41 115.65 609.65 843.64 804.44 409.67 1058.59 454.99 983.30 551.36 765.09 678.83 1031.75 714.11
00001979 00000013 540.09 113.71 611.37 854.87 799.27 410.94 1055.42 456.98 977.60 553.04 760.89 682.37 1029.26 718.01
00001980 00000014 539.31 111.24 612.60 862.69 795.74 410.44 1055.28 455.38 974.24 554.27 756.87 683.79 1029.41 718.43
00001981 00000015 543.41 114.31 611.76 865.41 800.79 406.40 1055.36 454.89 972.85 558.91 757.66 683.35 1024.44 720.46
00001982 00000016 547.47 113.11 608.67 867.03 800.67 405.30 1056.44 452.56 973.25 558.43 760.87 684.77 1027.51 720.64
00001983 00000017 551.28 109.11 605.68 866.39 800.34 403.39 1057.67 449.40 973.77 557.27 762.88 684.04 1030.60 719.15
00001984 00000018 553.35 102.51 603.84 866.83 798.81 399.83 1057.92 444.00 974.28 551.75 767.02 681.88 1035.49 715.44
00001985 00000019 552.83 96.14 606.78 862.03 798.22 392.44 1059.15 437.42 972.27 547.14 765.57 674.53 1034.48 709.42
00001986 00000020 555.28 96.99 604.12 845.95 798.73 391.97 1059.09 434.13 973.66 548.07 767.68 669.47 1035.03 702.11
00001987 00000021 560.70 96.04 597.06 850.15 797.42 393.48 1058.34 434.23 971.89 549.22 767.29 671.32 1036.25 702.69
00001988 00000022 560.09 103.10 595.25 850.70 794.43 401.55 1053.26 435.87 970.23 552.27 774.79 681.28 1038.84 706.47
00001989 00000023 563.91 115.69 587.77 839.72 795.86 408.22 1049.54 441.58 967.65 555.40 778.53 686.27 1034.01 710.64
00001990 00000024 563.37 115.83 585.57 850.59 792.28 413.93 1044.10 443.91 962.44 560.19 776.97 692.60 1029.96 714.05
00001991 00000025 556.94 125.06 581.71 842.35 786.53 414.57 1037.97 445.84 956.15 562.01 768.91 695.74 1020.57 718.33
00001992 00000026 549.55 131.86 584.05 840.12 780.24 415.06 1032.20 445.30 949.00 561.77 759.76 699.03 1011.88 720.68
00001993 00000027 544.33 127.39 585.85 843.90 776.14 411.65 1027.88 442.86 943.71 557.24 751.58 692.35 1010.03 715.11
00001994 00000028 542.42 116.86 585.25 848.58 773.96 408.62 1022.77 440.00 938.75 554.07 747.64 687.30 1005.45 710.56
00001995 00000029 540.80 113.83 582.86 852.09 771.90 409.12 1019.20 438.39 936.07 551.36 746.27 686.14 1003.74 707.79
00001996 00000030 540.23 113.78 582.14 850.89 769.25 408.51 1017.78 438.18 932.90 549.50 743.84 686.32 1001.17 708.37
00001997 00000031 541.13 114.52 580.60 848.43 768.50 406.10 1015.82 436.04 930.34 545.19 741.91 683.07 999.71 705.50
00001998 00000032 538.68 119.53 579.89 836.64 763.60 409.37 1012.43 438.39 926.65 536.88 740.52 680.54 998.67 701.66
00001999 00000033 539.61 122.34 579.66 828.36 759.36 409.64 1009.20 435.74 922.50 530.93 742.42 680.34 997.69 699.04
00002000 00000034 536.08 118.44 572.84 839.45 758.60 404.46 1004.75 434.68 920.52 528.44 732.77 684.31 983.21 707.30
00002001 00000035 527.56 111.69 586.59 823.59 745.60 399.96 998.30 425.40 907.05 525.79 721.11 680.09 975.28 701.52
00002002 00000036 525.43 113.43 584.52 803.77 739.59 404.49 1003.67 438.36 913.93 509.25 724.80 666.96 978.22 693.61
00002003 00000037 528.41 102.67 583.08 792.58 727.03 393.43 998.16 422.98 896.38 510.00 717.52 654.83 982.35 677.68
00002004 DELETE   526.73 105.82 582.87 779.75 716.57 385.04 992.56 416.25 881.48 503.24 707.76 649.02 975.78 673.07
00002005 00000039 526.50 105.47 577.71 786.81 715.02 383.16 987.67 410.09 879.36 493.83 710.44 649.33 969.82 669.29
00002006 00000040 523.45 103.98 578.05 783.17 711.67 375.70 984.22 405.68 873.47 490.11 703.07 644.31 962.87 667.11
00002007 00000041 519.15 99.06 575.21 783.42 702.58 368.79 976.06 403.65 863.46 487.41 696.07 641.80 961.92 668.35
00002008 00000042 517.17 101.85 576.28 788.03 701.76 368.31 976.74 403.50 862.77 488.63 693.66 645.24 960.07 672.24
00002009 00000043 516.83 95.33 569.78 778.80 710.21 378.98 965.88 405.85 853.89 490.97 693.22 637.95 933.12 657.75
00002010 00000044 511.84 96.09 568.96 790.66 698.40 392.01 958.39 411.74 849.35 485.35 682.43 636.34 942.21 649.24
00002011 DELETE   508.42 96.57 565.57 772.03 691.85 392.76 948.84 413.16 836.81 483.22 681.06 636.76 921.65 650.29
00002012 DELETE   506.16 98.88 581.92 781.61 681.56 385.25 939.47 396.05 819.04 493.44 682.06 637.16 925.14 643.60
00002013 DELETE   499.69 97.18 580.73 787.86 666.89 379.16 920.02 382.16 800.20 491.30 673.40 636.63 915.19 636.51
00002014 00000048 490.56 95.91 545.55 783.38 654.16 374.42 902.80 376.01 796.16 490.96 669.01 639.84 899.19 638.28
00002015 00000049 480.82 96.16 541.62 800.77 641.78 378.66 896.72 376.95 791.08 490.69 662.17 654.80 896.25 650.23
00002016 00000050 478.72 142.39 550.73 792.06 637.29 391.82 898.22 393.16 783.75 502.43 647.75 663.92 897.63 662.10
00002017 00000051 481.24 133.81 554.83 794.34 643.06 406.42 901.02 403.24 791.47 527.13 658.68 675.98 907.37 669.51
00002018 00000052 488.42 124.17 547.31 788.27 654.66 412.54 899.39 403.38 799.14 527.98 665.02 676.64 910.88 667.44
00002019 00000053 494.69 131.74 542.40 772.24 658.05 411.90 902.66 404.17 798.09 532.86 664.58 671.87 907.11 663.65
00002020 00000054 498.11 119.01 539.44 780.87 655.36 401.65 902.71 395.22 798.36 521.50 668.94 662.09 908.11 653.75
00002021 00000055 499.89 123.96 537.47 767.19 653.28 392.17 905.59 391.83 793.64 507.78 663.89 653.38 908.57 649.72
00002022 00000056 498.44 118.98 548.01 776.53 655.38 384.92 904.82 383.76 796.12 507.20 653.61 651.22 915.62 648.45
00002023 00000057 504.54 119.75 548.35 775.46 659.04 385.02 911.76 384.59 801.79 508.90 656.40 650.99 922.98 648.54
00002024 00000058 510.88 124.45 537.85 767.85 667.25 391.95 924.11 391.92 814.60 508.79 665.80 650.10 929.76 647.05
00002025 00000059 515.29 132.01 538.17 765.65 675.06 398.82 928.46 398.33 824.58 518.72 671.52 655.90 934.88 652.93
00002026 00000060 518.86 127.05 539.36 768.20 683.93 410.25 932.47 413.45 829.95 523.40 678.37 655.08 935.62 654.91
00002027 00000061 529.06 132.01 529.82 757.19 689.12 401.72 940.88 404.88 837.81 514.22 686.46 651.71 943.86 651.50
00002028 00000062 536.35 141.13 528.85 748.37 694.38 397.91 946.88 401.99 847.81 507.70 696.99 646.79 953.35 647.25
00002029 00000063 544.34 130.21 528.08 746.54 707.36 389.71 961.32 398.57 863.71 496.28 705.22 639.01 958.84 643.44
00002030 00000064 548.24 123.49 529.82 746.00 718.38 385.28 972.19 397.71 877.21 492.41 710.88 630.39 965.15 638.33
00002031 DELETE   558.47 131.13 526.69 741.62 728.09 390.06 982.20 397.53 888.00 496.22 721.46 634.57 976.83 639.30
00002032 00000066 568.03 132.30 533.27 747.75 743.46 388.83 983.70 401.41 886.10 509.93 725.57 641.67 981.23 650.27
00002033 00000067 580.48 140.14 522.64 746.59 755.81 397.02 989.05 407.43 900.13 511.51 739.31 639.22 987.42 646.82
00002034 00000068 586.07 148.48 520.99 733.21 765.62 400.14 998.64 413.19 910.43 516.79 754.53 642.03 995.63 650.53
00002035 00000069 595.80 150.94 520.65 722.40 767.44 403.25 1002.26 418.26 907.39 525.80 762.16 648.85 1000.06 658.88
00002036 00000070 604.51 167.48 513.40 705.53 769.81 404.40 1006.85 417.82 912.64 523.56 767.49 648.84 1006.58 657.38
00002037 00000071 607.55 162.51 509.88 705.63 772.71 400.27 1007.48 414.51 913.58 519.36 770.15 643.11 1009.55 652.71
00002038 00000072 609.58 156.23 504.59 711.28 773.25 397.24 1010.01 414.48 916.40 505.68 764.50 631.41 1006.19 643.23
00002039 00000073 611.57 147.97 514.32 704.52 771.64 389.10 1012.26 405.10 913.92 497.55 774.83 632.95 1015.24 643.41
00002040 00000074 615.46 145.33 508.88 696.76 774.77 381.92 1015.10 401.16 918.01 489.45 778.15 625.02 1015.96 638.29
00002041 00000075 615.74 145.59 506.17 699.29 775.59 381.38 1014.41 401.01 918.85 487.90 778.08 627.63 1012.74 641.58
00002042 00000076 620.46 149.27 507.17 723.85 782.78 377.63 1019.10 397.58 924.31 483.34 772.74 631.46 1005.65 646.43
00002043 00000077 619.35 155.38 503.44 745.31 785.34 374.47 1020.95 395.82 931.45 484.64 769.27 637.94 1009.95 654.66
00002044 00000078 616.10 155.13 500.44 770.61 784.14 377.20 1013.52 395.84 932.37 486.24 763.43 646.24 1004.73 660.97
00002045 00000079 613.15 157.61 501.03 773.10 782.75 379.40 1010.00 400.31 931.93 489.71 761.96 649.95 998.10 666.56
00002046 00000080 612.81 157.54 507.74 773.57 779.84 381.01 1013.50 402.01 928.76 492.09 759.08 653.10 1002.69 669.89
00002047 00000081 617.84 154.09 506.07 740.92 783.07 387.01 1016.66 409.14 925.04 494.69 768.29 645.59 1003.32 662.99
00002048 00000082 619.10 158.06 501.88 717.08 786.33 390.56 1021.94 416.68 927.23 498.58 775.24 641.62 1003.60 661.39
00002049 00000083 618.02 153.24 498.68 704.58 784.62 388.49 1022.64 416.37 922.98 496.92 774.25 631.11 1003.99 651.75
00002050 00000084 616.69 152.56 503.62 690.49 781.90 386.36 1016.77 409.34 919.23 495.00 782.63 629.99 1007.20 646.86
00002051 00000085 616.23 147.25 502.43 681.52 781.71 382.81 1013.23 406.84 916.93 490.30 783.23 621.24 1002.23 638.73
00002052 00000086 615.65 146.93 498.37 679.29 781.96 387.89 1011.01 410.00 917.85 485.49 783.73 621.07 1001.10 637.06
00002053 00000087 614.99 141.65 497.50 683.36 777.71 391.94 1010.10 414.45 915.57 482.09 778.64 620.53 1000.30 636.78
00002054 00000088 616.38 137.63 495.83 691.49 776.25 394.32 1009.66 415.20 914.92 479.70 780.08 624.74 1000.75 640.07
00002055 00000089 616.32 138.90 496.08 692.37 776.97 398.17 1008.89 418.12 914.67 480.41 780.38 625.82 999.90 640.66
00002056 00000090 613.18 142.58 502.50 687.76 777.45 400.29 1010.90 423.75 913.14 481.56 776.89 621.69 999.09 639.02
00002057 00000091 614.50 141.61 499.31 682.86 779.07 401.26 1009.45 424.87 912.50 480.70 780.04 620.35 995.33 637.93
00002058 00000092 616.19 144.63 496.23 671.17 780.14 399.95 1008.31 421.87 912.22 480.09 781.80 617.29 993.53 633.49
00002059 00000093 615.58 147.15 498.14 665.78 780.12 399.31 1007.67 421.77 911.01 479.04 782.35 617.67 991.10 634.24
00002060 00000094 614.63 148.01 497.03 668.71 779.16 400.94 1004.64 422.14 910.07 480.19 782.86 621.91 988.36 637.56
00002061 00000095 610.85 149.87 500.27 685.23 779.89 406.91 1000.84 424.38 909.87 486.29 783.08 629.17 988.09 641.81
00002062 00000096 615.37 163.64 491.18 683.51 784.32 415.93 1002.52 438.89 911.98 498.36 778.39 634.10 979.76 651.87
00002063 DELETE   614.92 176.21 491.38 681.55 787.63 420.71 1003.04 441.11 914.99 514.57 784.13 646.39 981.67 661.37
00002064 DELETE   612.93 179.16 491.41 689.31 788.75 429.12 1003.75 449.99 918.13 527.68 787.40 660.41 981.45 675.50
00002065 00000099 606.17 191.48 497.63 703.53 788.38 438.71 1000.67 456.25 921.17 541.98 784.04 673.73 986.78 686.53
00002066 00000100 606.93 194.43 497.25 712.50 787.12 450.97 1004.38 469.62 923.47 555.59 779.45 685.56 990.39 699.47
00002067 00000101 605.13 199.65 503.29 711.49 785.98 456.63 1007.19 473.78 923.52 559.52 780.54 690.26 994.85 702.50
00002068 00000102 604.26 196.03 504.94 725.09 784.50 452.90 1005.68 469.96 925.05 559.95 775.08 695.00 994.72 707.32
00002069 00000103 609.59 205.74 496.56 726.36 786.41 445.76 1007.49 465.28 925.71 556.42 772.37 689.04 990.37 703.33
00002070 00000104 608.06 201.07 497.63 751.01 784.10 440.88 1005.69 460.78 926.78 549.45 767.78 691.64 992.71 706.20
00002071 00000105 604.78 189.27 501.28 765.98 781.96 435.39 1004.16 454.97 925.29 541.90 766.98 691.21 991.91 705.55
00002072 00000106 602.10 190.04 504.38 738.32 782.12 439.14 1002.75 454.85 936.02 535.11 778.06 688.53 1000.95 700.77
00002073 00000107 601.60 188.81 502.55 703.80 786.38 439.21 1012.17 459.65 936.71 530.50 786.73 671.95 1007.18 686.79
00002074 00000108 603.71 180.92 499.54 708.03 796.14 435.61 1014.61 457.65 940.99 534.59 796.52 667.95 1005.04 683.66
00002075 00000109 603.77 178.78 500.73 717.01 800.87 434.92 1016.71 456.43 947.33 537.46 801.24 670.18 1008.93 685.49
00002076 00000110 601.54 181.94 503.34 719.88 801.07 435.64 1016.23 457.67 951.76 539.46 797.89 675.78 1007.04 692.26
00002077 00000111 600.50 184.08 504.05 721.36 799.76 438.09 1016.32 459.72 951.66 541.57 793.19 676.00 1008.60 692.28
00002078 00000112 599.67 183.77 503.30 720.12 799.84 436.84 1016.03 459.21 952.35 541.49 792.28 675.49 1007.19 692.43
00002079 00000113 600.20 186.08 502.11 722.77 800.70 436.50 1013.82 457.44 952.98 541.83 790.70 677.45 1004.84 693.92
00002080 00000114 596.82 187.86 505.18 730.92 800.80 437.35 1011.15 458.04 954.98 544.99 786.84 680.73 1003.46 697.30
00002081 00000115 595.79 186.98 505.67 722.70 798.57 442.19 1013.88 463.03 954.34 549.77 789.42 683.19 1005.85 699.41
00002082 00000116 595.91 192.72 499.85 713.58 798.46 450.54 1014.41 472.18 953.25 557.70 793.07 690.30 1002.37 706.85
00002083 00000117 596.04 201.10 497.64 714.42 802.89 457.99 1009.92 477.43 957.75 564.58 801.35 700.84 1000.30 716.12
00002084 00000118 593.43 206.57 504.16 719.70 802.59 461.93 1012.83 481.98 960.24 566.90 801.56 708.91 1001.06 724.89
00002085 00000119 594.47 203.98 500.58 704.15 802.49 460.62 1010.10 481.48 954.20 567.68 799.88 700.72 994.11 717.50
00002086 00000120 606.43 191.95 487.86 699.51 801.34 458.22 1021.56 468.26 963.62 560.50 813.70 696.31 1015.53 703.33
00002087 00000121 612.43 191.21 489.08 702.93 806.90 452.14 1027.82 463.86 966.65 553.48 821.19 693.73 1022.68 702.15
00002088 DELETE   615.90 186.79 492.45 693.47 811.48 460.67 1034.70 467.89 975.82 558.03 823.26 693.87 1027.60 699.34
00002089 00000123 615.69 188.63 497.94 708.65 815.66 460.54 1036.25 466.99 982.01 558.28 828.56 698.83 1032.47 703.47
00002090 00000124 606.97 202.93 518.83 724.67 818.46 453.79 1030.25 475.93 980.21 548.64 828.44 705.49 1022.56 722.36
00002091 00000125 603.05 200.23 518.08 740.44 817.88 455.30 1028.79 476.48 984.02 562.83 807.62 705.70 1021.23 722.67
00002092 00000126 610.22 190.54 504.92 722.83 819.17 457.10 1030.02 471.97 976.13 563.10 825.52 701.37 1017.96 712.42
00002093 00000127 613.92 194.47 496.33 690.71 818.94 457.05 1034.71 469.38 977.09 558.06 836.18 694.21 1024.16 703.60
00002094 00000128 614.61 195.20 500.76 682.91 820.34 454.71 1035.98 465.42 978.26 556.03 841.93 690.84 1026.91 698.76
CROP_BBOX: 296 0 1565 1080
