Video ID: 	KjRv3_dyzlw
H: 	2160
W: 	3840
FPS: 	23.976023976023978

FRAME INDEX X0 Y0 W H [Landmarks (5 Points)]

00023236 00000000 1561.05 347.42 651.60 1003.00 1878.59 811.63 2117.85 828.96 2054.21 992.40 1854.21 1118.94 2057.60 1139.45
00023237 00000001 1565.54 360.14 667.16 1016.31 1889.92 838.06 2131.16 852.26 2065.23 1034.67 1859.54 1155.99 2049.40 1172.28
00023238 00000002 1571.84 376.71 674.76 1034.57 1876.12 877.49 2144.27 900.37 2040.21 1074.23 1852.21 1180.61 2058.28 1202.91
00023239 00000003 1583.96 410.79 679.15 1020.05 1881.75 897.76 2146.55 916.65 2041.05 1100.66 1857.68 1198.95 2058.58 1218.48
00023240 00000004 1588.26 424.46 683.70 1016.13 1885.15 912.54 2152.54 931.81 2044.42 1115.23 1862.53 1212.74 2063.18 1232.09
00023241 00000005 1595.17 441.47 681.53 996.26 1893.79 929.75 2156.03 942.76 2048.96 1124.83 1874.67 1221.91 2066.88 1235.79
00023242 00000006 1597.25 435.44 681.85 998.02 1895.87 929.64 2160.27 945.88 2050.69 1121.71 1877.96 1220.89 2072.78 1236.96
00023243 00000007 1606.47 444.81 682.32 972.29 1913.24 905.15 2168.00 924.76 2075.48 1105.02 1871.99 1212.21 2065.07 1232.81
00023244 00000008 1609.36 447.04 684.33 959.99 1921.42 885.80 2171.27 906.07 2085.59 1078.15 1879.24 1199.51 2068.14 1221.09
00023245 00000009 1608.06 392.54 681.03 1008.00 1920.34 857.28 2186.79 880.84 2082.81 1053.44 1890.39 1165.71 2098.10 1188.69
00023246 00000010 1634.37 326.57 650.64 1073.31 1949.75 824.03 2193.38 858.70 2134.07 1028.15 1899.94 1136.49 2097.72 1172.00
00023247 00000011 1643.74 314.84 637.91 1045.65 1951.03 807.16 2199.06 845.14 2137.42 1002.83 1914.45 1111.56 2113.90 1149.20
00023248 00000012 1638.77 286.50 634.50 1043.06 1947.16 790.61 2196.99 822.99 2138.66 980.58 1922.56 1098.35 2121.60 1129.38
00023249 00000013 1616.36 307.56 646.60 990.93 1943.02 759.95 2191.09 790.71 2129.45 949.44 1935.54 1080.05 2121.61 1106.62
00023250 DELETE   1609.90 278.89 644.00 1011.73 1935.88 747.30 2175.10 768.84 2116.89 934.99 1918.22 1073.94 2104.83 1093.57
00023251 00000015 1597.57 269.38 639.57 1013.47 1921.26 738.48 2164.44 761.08 2111.32 925.89 1904.24 1070.80 2096.02 1091.57
00023252 DELETE   1590.01 267.76 628.23 1010.19 1906.94 729.79 2149.53 756.78 2098.74 915.14 1895.29 1062.50 2084.70 1085.72
00023253 DELETE   1574.54 265.71 624.58 1011.62 1891.52 734.08 2124.65 751.60 2082.75 904.11 1882.57 1056.21 2069.10 1074.81
00023254 00000018 1556.29 238.28 635.25 1039.84 1881.87 737.42 2109.92 747.32 2071.78 911.56 1872.06 1061.53 2051.71 1074.43
00023255 00000019 1560.48 251.04 632.80 1029.41 1877.39 743.76 2109.75 754.67 2065.07 921.74 1866.83 1067.53 2050.62 1081.10
00023256 00000020 1560.30 266.03 640.21 1028.75 1885.38 757.40 2116.89 772.60 2065.06 942.68 1873.94 1082.73 2055.38 1099.13
00023257 00000021 1578.83 294.48 636.00 1016.01 1890.96 763.23 2131.53 784.47 2072.43 954.20 1877.47 1096.25 2068.47 1116.79
00023258 DELETE   1588.63 300.52 642.76 1030.91 1907.66 781.96 2140.83 799.56 2088.05 969.72 1892.11 1112.45 2077.21 1131.13
00023259 DELETE   1590.06 280.89 651.62 1066.82 1901.78 798.96 2148.75 834.81 2100.30 988.76 1887.71 1119.73 2075.25 1155.30
00023260 00000024 1606.61 298.68 654.33 1071.50 1919.06 807.31 2160.56 846.58 2106.91 1005.24 1879.45 1128.97 2064.50 1168.49
00023261 00000025 1622.00 316.29 652.05 1063.20 1928.33 814.82 2166.38 859.52 2103.49 1016.04 1880.65 1135.00 2058.67 1178.74
00023262 00000026 1625.35 321.13 655.36 1073.09 1934.97 825.76 2172.53 871.10 2104.59 1028.33 1881.15 1145.44 2058.59 1189.67
00023263 00000027 1627.25 313.59 659.41 1089.05 1941.93 825.73 2179.68 876.64 2106.34 1035.77 1881.98 1146.84 2061.44 1195.51
00023264 00000028 1632.33 305.87 660.10 1092.90 1947.93 824.38 2183.83 882.05 2108.11 1033.98 1882.09 1142.34 2060.61 1196.21
00023265 00000029 1639.37 307.95 656.99 1080.95 1947.05 818.54 2189.20 875.90 2111.97 1026.05 1883.74 1135.50 2068.72 1188.95
00023266 00000030 1638.14 297.95 661.34 1085.21 1945.78 815.63 2192.02 867.91 2112.45 1019.20 1885.29 1130.13 2073.22 1179.81
00023267 00000031 1636.87 291.59 662.48 1088.06 1943.69 808.68 2190.17 862.67 2109.58 1009.41 1888.22 1125.38 2074.02 1176.32
00023268 00000032 1634.19 293.06 662.97 1085.42 1943.22 801.85 2188.11 858.49 2109.31 1000.64 1890.32 1120.66 2073.63 1173.77
00023269 00000033 1632.14 290.54 662.94 1083.67 1941.26 797.69 2180.98 857.31 2104.06 993.91 1894.89 1116.27 2072.33 1171.54
00023270 00000034 1630.00 293.98 662.04 1074.68 1940.79 795.95 2177.89 853.77 2104.25 988.21 1899.61 1111.81 2075.38 1165.47
00023271 00000035 1628.16 284.29 659.74 1076.21 1938.90 790.11 2175.84 849.31 2104.48 982.82 1902.76 1105.61 2077.67 1160.16
00023272 00000036 1623.25 276.64 661.47 1081.64 1938.96 785.74 2173.56 841.34 2104.39 977.37 1904.17 1103.13 2077.42 1154.47
00023273 00000037 1620.57 267.96 658.73 1084.05 1935.77 781.95 2170.65 838.09 2103.88 974.66 1903.41 1099.00 2075.71 1150.85
00023274 00000038 1618.71 266.85 660.47 1084.51 1930.79 779.38 2169.55 832.73 2102.62 970.97 1900.21 1099.02 2076.48 1148.27
00023275 00000039 1614.76 268.24 661.69 1082.26 1925.03 774.66 2167.76 829.73 2100.29 966.71 1895.61 1097.58 2076.24 1148.22
00023276 00000040 1614.44 266.63 660.39 1078.57 1926.18 771.50 2165.77 826.16 2100.13 962.05 1897.53 1094.88 2074.02 1144.80
00023277 00000041 1612.02 268.70 659.65 1074.98 1920.15 769.49 2162.44 824.14 2097.24 958.65 1894.51 1092.68 2073.96 1142.60
00023278 00000042 1609.61 268.92 659.29 1075.31 1916.22 770.28 2161.07 823.96 2095.91 957.01 1892.17 1093.77 2074.29 1142.82
00023279 00000043 1606.98 272.27 658.32 1075.00 1919.23 768.28 2158.47 821.22 2095.45 957.76 1890.72 1093.18 2070.58 1141.98
00023280 00000044 1602.49 267.04 660.28 1081.25 1912.18 763.37 2158.85 815.71 2094.12 953.01 1887.72 1092.05 2074.35 1140.35
00023281 00000045 1598.10 255.74 662.42 1090.85 1906.75 764.22 2157.38 811.84 2092.13 953.12 1887.50 1091.20 2077.38 1135.65
00023282 00000046 1595.03 258.15 664.38 1085.56 1902.75 761.39 2155.88 810.55 2089.57 950.70 1884.28 1089.39 2079.27 1134.82
00023283 00000047 1593.79 254.79 661.85 1081.25 1900.69 756.64 2153.88 806.93 2089.06 946.16 1885.56 1086.29 2080.60 1132.36
00023284 00000048 1594.22 255.02 660.06 1074.01 1903.42 754.66 2153.13 804.48 2088.60 938.99 1891.54 1084.05 2080.00 1129.21
00023285 00000049 1595.39 258.56 657.11 1064.78 1903.43 751.03 2152.82 803.51 2088.99 936.80 1892.40 1081.86 2081.45 1128.79
00023286 00000050 1596.05 260.63 655.40 1069.64 1902.15 748.76 2151.57 800.56 2089.11 939.46 1888.88 1084.12 2081.15 1130.81
00023287 00000051 1594.77 265.73 657.27 1063.93 1906.71 750.81 2151.19 799.55 2086.77 939.98 1884.83 1076.22 2075.05 1121.11
00023288 00000052 1587.15 272.62 666.77 1058.98 1902.34 761.19 2155.90 802.40 2073.59 943.81 1879.56 1081.23 2076.28 1117.30
00023289 00000053 1584.48 267.16 670.43 1058.15 1901.22 756.15 2157.11 797.13 2074.75 938.30 1877.97 1075.75 2076.34 1111.65
00023290 00000054 1587.05 270.28 666.77 1049.53 1900.38 749.35 2158.20 794.09 2073.09 931.80 1873.91 1065.17 2075.41 1104.63
00023291 00000055 1587.23 264.12 665.75 1048.97 1900.36 745.57 2159.72 790.64 2074.30 927.20 1877.47 1063.13 2077.01 1102.51
00023292 00000056 1591.37 265.45 659.28 1042.70 1901.92 745.53 2160.52 789.66 2077.19 925.33 1882.95 1063.23 2079.11 1101.82
00023293 00000057 1589.66 263.89 660.95 1039.49 1899.67 746.78 2161.74 789.16 2078.56 922.82 1884.34 1062.32 2081.98 1099.43
00023294 00000058 1591.87 264.93 658.10 1029.25 1898.67 747.57 2165.59 786.96 2081.82 922.50 1888.91 1063.16 2087.46 1097.76
00023295 00000059 1603.87 258.06 647.85 1020.59 1908.18 734.44 2159.70 765.42 2086.28 920.14 1901.41 1065.28 2088.63 1090.83
00023296 00000060 1602.95 252.40 645.33 1022.15 1906.67 731.30 2158.11 760.50 2088.15 914.19 1907.79 1066.16 2093.42 1089.64
00023297 00000061 1602.11 257.72 647.78 1012.42 1909.12 727.94 2156.86 755.48 2087.27 910.09 1911.35 1064.51 2090.13 1086.29
00023298 00000062 1600.75 257.14 647.04 1012.87 1907.81 727.50 2154.03 753.98 2087.64 907.60 1909.82 1062.68 2088.83 1083.86
00023299 00000063 1602.08 254.21 645.27 1017.25 1908.28 727.79 2153.56 754.17 2086.36 907.59 1908.54 1061.73 2086.81 1083.10
00023300 00000064 1601.10 252.14 646.14 1020.10 1905.72 729.67 2153.07 756.44 2083.27 910.22 1904.41 1062.37 2085.62 1084.30
00023301 00000065 1600.90 254.42 646.49 1016.38 1905.37 730.71 2154.23 757.81 2083.99 908.93 1902.58 1060.99 2087.50 1083.40
00023302 00000066 1601.62 254.84 646.69 1012.93 1904.03 730.11 2156.86 757.50 2086.12 909.32 1902.94 1062.73 2091.62 1085.32
00023303 00000067 1602.41 254.87 645.17 1012.33 1902.69 727.56 2156.05 755.53 2084.90 907.16 1902.59 1061.87 2092.22 1084.80
00023304 00000068 1601.94 255.49 644.83 1010.85 1902.56 723.93 2155.63 751.97 2084.85 903.15 1905.12 1059.42 2093.72 1081.98
00023305 00000069 1603.27 253.53 644.26 1013.04 1905.40 724.34 2155.51 751.95 2087.16 901.36 1909.13 1057.17 2095.11 1079.47
00023306 00000070 1602.72 247.47 644.45 1024.25 1907.59 723.19 2153.47 750.91 2086.85 899.99 1915.51 1063.48 2091.49 1084.74
00023307 00000071 1593.19 250.18 649.68 1033.41 1897.93 739.58 2155.80 774.65 2083.39 900.55 1906.74 1063.81 2086.82 1093.81
00023308 00000072 1591.20 254.32 648.32 1033.70 1901.10 734.82 2155.62 773.98 2085.41 895.61 1905.68 1061.83 2083.44 1095.12
00023309 00000073 1587.83 248.42 651.31 1041.92 1897.89 731.26 2154.52 769.55 2083.25 888.48 1903.27 1059.68 2084.05 1092.11
00023310 00000074 1584.05 241.77 655.07 1046.10 1898.06 727.64 2152.56 765.82 2081.64 887.08 1905.93 1059.02 2083.51 1090.73
00023311 00000075 1582.01 242.98 652.86 1041.44 1899.12 725.76 2152.17 764.67 2083.99 882.60 1907.01 1055.41 2083.17 1087.52
00023312 00000076 1585.25 242.28 647.18 1037.35 1899.25 724.77 2150.96 765.81 2082.61 878.20 1907.67 1050.18 2081.74 1084.38
00023313 00000077 1583.90 239.85 647.99 1034.29 1897.33 722.18 2149.76 761.55 2082.29 873.86 1907.94 1046.66 2081.97 1079.51
00023314 00000078 1585.88 230.77 647.48 1030.88 1906.64 710.41 2146.46 733.89 2088.21 875.63 1920.00 1055.26 2084.71 1072.22
00023315 00000079 1584.80 222.05 647.78 1030.77 1903.20 710.00 2146.21 731.76 2085.84 874.40 1916.67 1049.07 2087.87 1065.46
00023316 00000080 1585.78 222.72 646.29 1029.70 1900.18 709.65 2145.99 730.57 2084.29 872.53 1914.61 1046.44 2091.23 1062.36
00023317 00000081 1585.69 222.75 646.77 1029.42 1899.69 709.57 2145.80 731.68 2082.14 873.08 1912.61 1044.57 2090.31 1061.04
00023318 00000082 1585.60 227.48 646.11 1021.13 1899.18 709.08 2146.20 731.39 2082.44 873.86 1912.50 1043.24 2091.95 1060.00
00023319 00000083 1586.59 228.26 645.11 1019.29 1898.21 708.39 2146.80 730.82 2082.00 874.04 1911.60 1042.12 2093.16 1059.10
00023320 00000084 1585.97 228.37 645.38 1016.78 1896.10 709.06 2147.11 731.52 2080.87 875.29 1911.14 1047.03 2092.22 1063.68
00023321 00000085 1586.88 225.04 644.44 1016.82 1894.95 707.64 2145.28 731.71 2078.63 873.73 1908.48 1046.50 2086.45 1064.42
00023322 00000086 1587.52 222.80 642.65 1021.97 1896.75 706.85 2143.50 730.75 2076.86 873.98 1909.86 1046.91 2080.44 1064.82
00023323 00000087 1589.92 225.76 639.64 1030.00 1898.74 706.05 2142.63 730.93 2077.07 876.71 1906.77 1047.36 2077.16 1066.79
00023324 00000088 1600.77 235.11 631.85 1027.02 1898.06 693.93 2141.13 728.70 2074.89 874.56 1904.01 1044.43 2079.51 1070.98
00023325 00000089 1599.71 237.49 633.05 1026.75 1898.84 693.52 2140.45 729.27 2074.24 875.14 1902.68 1044.67 2077.07 1071.97
00023326 00000090 1598.94 232.78 633.15 1033.84 1899.47 693.62 2139.77 729.05 2074.17 876.21 1901.90 1045.08 2075.80 1072.26
00023327 00000091 1586.30 238.03 639.05 1034.61 1888.77 708.09 2140.85 755.83 2065.78 872.75 1889.35 1039.39 2066.22 1079.84
00023328 00000092 1584.78 238.48 640.75 1035.82 1888.19 706.99 2139.19 752.91 2065.37 871.00 1887.23 1037.64 2064.30 1076.98
00023329 00000093 1585.68 238.23 639.60 1039.49 1889.99 705.72 2141.36 751.93 2066.48 871.83 1884.21 1035.55 2064.61 1075.63
00023330 00000094 1587.14 239.76 638.68 1039.82 1888.88 704.52 2143.26 752.80 2066.74 870.14 1882.79 1034.38 2067.14 1076.46
00023331 00000095 1586.83 237.55 640.70 1039.24 1889.31 705.51 2144.00 753.59 2067.67 872.92 1883.31 1033.28 2068.31 1075.47
00023332 00000096 1591.17 226.70 636.83 1045.99 1897.60 699.50 2138.95 729.40 2075.38 874.86 1892.24 1036.55 2074.13 1062.02
00023333 00000097 1586.08 239.80 641.34 1040.55 1890.54 704.99 2144.94 754.10 2066.53 875.50 1881.20 1028.30 2070.52 1071.78
00023334 00000098 1584.67 238.64 644.49 1040.33 1889.18 705.05 2143.95 753.22 2065.05 876.57 1879.10 1024.52 2071.13 1067.46
00023335 00000099 1590.51 227.99 635.99 1039.85 1896.24 699.89 2137.53 728.65 2075.68 873.08 1886.27 1024.08 2079.08 1050.76
00023336 00000100 1588.43 228.69 637.01 1031.79 1894.07 699.55 2137.75 727.91 2075.80 872.27 1885.90 1023.03 2082.95 1049.25
00023337 00000101 1587.94 231.84 635.83 1021.53 1891.39 699.01 2138.28 727.72 2074.16 870.94 1884.53 1021.32 2085.34 1047.53
00023338 00000102 1586.80 228.81 634.44 1025.51 1889.84 701.13 2136.66 728.29 2073.34 871.66 1884.31 1022.65 2085.73 1048.06
00023339 00000103 1587.78 228.76 633.07 1025.73 1889.35 701.95 2137.38 727.90 2073.06 871.39 1886.53 1025.40 2086.75 1049.62
00023340 00000104 1587.02 223.67 634.34 1030.58 1889.40 701.91 2137.90 728.90 2073.05 871.98 1888.76 1029.61 2084.57 1053.68
00023341 00000105 1582.66 224.60 639.34 1039.10 1889.79 702.69 2137.10 727.48 2072.88 872.78 1891.24 1031.58 2084.76 1053.80
00023342 00000106 1582.80 229.94 636.70 1042.61 1890.83 701.62 2135.66 726.36 2073.21 872.45 1887.59 1029.72 2084.78 1053.19
00023343 00000107 1582.04 227.31 634.41 1043.77 1890.19 700.79 2134.51 726.51 2073.26 871.73 1886.31 1031.05 2081.52 1055.15
00023344 00000108 1582.93 225.73 632.69 1045.64 1888.67 700.76 2133.54 727.26 2072.04 872.28 1885.42 1032.76 2079.96 1057.60
00023345 00000109 1580.49 228.90 635.85 1039.04 1887.17 702.64 2130.94 727.91 2069.34 871.73 1883.12 1029.85 2078.31 1053.75
00023346 00000110 1580.37 233.65 635.68 1032.18 1887.72 702.91 2129.30 727.48 2067.83 869.66 1882.46 1025.54 2077.24 1049.03
00023347 00000111 1578.88 232.34 636.70 1033.88 1887.44 703.50 2129.14 727.79 2067.34 869.94 1881.01 1024.45 2077.73 1047.98
00023348 00000112 1577.06 230.75 636.01 1032.22 1887.77 703.60 2127.64 728.67 2067.11 870.79 1881.27 1023.88 2075.17 1047.67
00023349 00000113 1574.30 230.05 637.57 1030.00 1885.79 702.13 2126.78 727.37 2065.42 869.67 1881.99 1025.14 2073.63 1048.73
00023350 00000114 1578.27 239.83 636.92 1019.14 1881.61 694.21 2126.43 724.19 2065.93 866.59 1878.04 1025.38 2077.23 1052.62
00023351 00000115 1571.29 235.98 640.25 1010.37 1881.22 701.51 2126.06 724.87 2061.66 866.51 1882.15 1024.73 2072.86 1045.78
00023352 00000116 1571.96 225.60 639.66 1009.01 1879.11 700.26 2126.83 724.92 2060.84 865.15 1881.71 1022.68 2074.36 1043.83
00023353 00000117 1573.72 234.68 635.28 1000.25 1878.18 696.94 2124.90 721.01 2059.10 862.93 1882.74 1019.60 2074.63 1040.51
00023354 00000118 1579.33 231.49 632.49 1009.42 1877.19 681.14 2122.37 711.87 2058.59 850.44 1884.93 1015.44 2075.70 1041.08
00023355 00000119 1569.87 221.46 631.70 1033.95 1877.29 674.30 2117.97 708.95 2060.42 833.90 1870.85 1004.13 2064.97 1036.12
00023356 00000120 1573.58 221.15 622.66 1042.66 1877.98 659.54 2117.37 702.04 2067.13 825.44 1858.63 992.29 2063.31 1031.75
00023357 00000121 1571.05 231.43 625.35 1027.78 1881.64 651.73 2112.45 691.53 2067.01 807.84 1854.90 977.44 2060.84 1015.41
00023358 00000122 1569.47 245.75 630.01 1016.39 1875.09 633.22 2120.43 677.37 2063.79 805.47 1857.33 968.64 2054.62 1009.23
00023359 00000123 1564.32 230.03 640.49 1010.98 1873.48 617.67 2129.84 659.23 2070.20 796.54 1864.18 957.81 2062.91 994.46
00023360 00000124 1568.72 210.69 633.45 1001.39 1885.91 613.08 2125.04 647.46 2080.05 790.78 1883.47 959.78 2077.30 988.55
00023361 00000125 1576.03 199.68 631.95 1001.18 1894.62 612.02 2132.93 637.98 2087.06 783.44 1910.14 962.51 2087.48 982.16
00023362 00000126 1581.91 200.61 636.65 1001.51 1903.31 611.60 2142.62 642.08 2096.47 785.61 1916.00 964.25 2093.06 986.72
00023363 00000127 1589.16 189.82 637.91 1025.62 1916.44 621.46 2149.38 655.73 2108.50 798.22 1919.90 973.83 2093.00 999.97
00023364 00000128 1598.49 184.90 639.00 1044.75 1927.15 639.08 2162.22 673.87 2120.94 823.43 1922.55 987.59 2102.69 1014.74
00023365 00000129 1610.36 198.11 637.76 1045.90 1935.56 655.02 2172.26 688.93 2127.26 840.51 1930.20 1002.55 2110.90 1029.07
00023366 00000130 1620.18 207.48 638.63 1037.77 1942.26 672.93 2180.17 704.49 2131.76 856.57 1939.55 1015.52 2118.56 1039.83
00023367 00000131 1628.93 228.98 638.33 1014.33 1947.32 671.59 2200.30 712.22 2145.20 873.92 1936.31 1019.61 2127.68 1051.63
00023368 00000132 1631.87 242.49 636.02 1004.19 1949.71 675.43 2202.15 714.27 2147.29 880.76 1935.43 1022.54 2129.64 1053.78
00023369 00000133 1630.51 241.80 639.66 1012.24 1950.47 677.32 2204.09 717.92 2147.71 883.75 1933.96 1026.15 2129.88 1058.76
00023370 00000134 1628.95 246.48 641.17 1013.74 1950.54 678.76 2201.97 719.91 2146.77 887.97 1928.65 1026.73 2125.17 1060.32
00023371 00000135 1627.47 244.26 640.58 1016.32 1955.73 683.68 2189.40 718.96 2147.10 896.24 1924.88 1034.44 2119.10 1064.82
00023372 00000136 1626.99 253.50 641.06 1007.72 1950.80 690.92 2186.00 727.36 2139.69 900.29 1914.69 1030.24 2115.75 1062.91
00023373 00000137 1613.91 249.41 657.31 1015.73 1941.86 705.51 2182.39 731.99 2124.80 900.11 1914.36 1027.38 2110.51 1050.22
00023374 00000138 1614.33 248.56 653.13 1015.92 1937.17 702.19 2180.43 732.28 2121.61 899.10 1909.37 1023.88 2110.68 1049.31
00023375 00000139 1610.94 253.06 652.13 1010.44 1933.23 700.75 2178.86 730.34 2119.16 897.83 1906.99 1022.91 2112.48 1048.06
00023376 00000140 1609.56 248.03 648.97 1015.90 1929.11 700.08 2175.62 728.60 2115.85 896.46 1903.33 1022.57 2110.48 1047.26
00023377 00000141 1607.89 244.09 648.80 1018.09 1927.47 698.14 2172.43 725.94 2112.95 896.23 1900.76 1019.79 2106.59 1044.01
00023378 00000142 1607.34 245.60 646.45 1025.02 1927.77 695.91 2169.73 725.21 2110.57 895.16 1903.55 1023.08 2103.25 1048.11
00023379 00000143 1606.95 244.68 645.33 1035.22 1928.23 695.69 2167.74 725.81 2111.00 897.40 1900.23 1025.39 2098.53 1051.50
00023380 00000144 1604.44 236.43 649.85 1046.42 1929.01 697.55 2166.53 727.30 2109.45 898.95 1902.72 1031.19 2093.64 1056.59
00023381 00000145 1605.21 234.07 650.61 1046.27 1930.87 697.21 2167.21 726.43 2107.96 901.86 1912.74 1041.91 2088.89 1065.20
00023382 00000146 1606.43 234.23 650.96 1042.46 1934.75 696.52 2169.17 725.77 2108.75 903.42 1920.46 1047.24 2088.78 1069.20
00023383 00000147 1608.91 237.99 648.74 1036.06 1933.23 695.49 2169.83 724.63 2108.32 900.36 1922.44 1047.82 2090.97 1069.39
00023384 00000148 1609.08 236.64 647.64 1035.92 1934.49 695.14 2169.79 724.03 2109.37 900.27 1925.07 1049.43 2089.68 1070.44
00023385 00000149 1606.76 232.10 650.72 1045.62 1934.29 696.94 2168.76 726.73 2108.88 902.86 1925.02 1052.71 2087.99 1074.25
00023386 00000150 1605.95 230.14 650.92 1044.60 1930.75 698.66 2168.00 730.36 2107.04 904.01 1917.48 1051.78 2086.75 1075.60
00023387 00000151 1605.69 234.34 648.80 1034.97 1927.71 699.26 2167.18 730.47 2104.60 904.36 1914.04 1048.86 2086.95 1072.67
00023388 00000152 1602.34 232.46 651.10 1040.15 1927.61 699.29 2167.49 730.98 2106.94 903.70 1915.22 1050.75 2089.40 1074.70
00023389 00000153 1599.94 237.49 653.40 1031.92 1927.99 700.43 2165.82 729.14 2105.94 904.96 1914.85 1049.62 2084.87 1071.40
00023390 00000154 1604.94 242.47 651.74 1020.77 1924.86 692.56 2167.23 729.60 2106.91 901.11 1912.00 1046.92 2090.22 1073.90
00023391 00000155 1604.09 246.43 650.22 1010.33 1920.77 689.53 2167.29 726.92 2106.60 899.36 1904.76 1041.53 2091.44 1069.93
00023392 00000156 1595.98 243.83 652.98 1011.06 1917.53 697.52 2163.06 726.52 2101.75 898.72 1909.44 1042.01 2089.75 1064.46
00023393 00000157 1603.54 251.52 648.97 1002.84 1917.34 687.72 2165.69 725.90 2103.51 894.07 1905.39 1038.22 2092.35 1066.98
00023394 00000158 1603.86 248.18 648.15 1006.49 1917.30 686.99 2165.50 724.75 2103.84 893.33 1905.73 1036.80 2093.46 1065.36
