Video ID: 	my5BoIp4zBc
H: 	1080
W: 	1920
FPS: 	29.97002997002997

FRAME INDEX X0 Y0 W H [Landmarks (5 Points)]

00003080 00000000 962.68 241.79 454.14 661.86 1100.47 527.28 1311.54 523.43 1220.88 672.85 1132.15 765.78 1286.09 763.42
00003081 00000001 963.27 237.93 455.06 669.52 1102.43 529.57 1314.66 525.06 1224.53 674.09 1134.95 767.12 1291.63 763.91
00003082 00000002 962.42 237.16 455.52 670.54 1102.72 530.36 1314.90 526.03 1225.03 675.28 1134.76 767.11 1291.37 764.13
00003083 DELETE   960.42 239.94 456.80 666.61 1100.96 536.53 1314.44 532.86 1222.28 678.34 1130.72 768.45 1287.36 766.18
00003084 00000004 960.91 250.60 454.94 658.77 1100.23 542.57 1310.77 538.99 1217.08 687.95 1126.50 770.97 1281.66 769.22
00003085 DELETE   962.89 251.11 453.48 658.79 1100.52 542.82 1309.84 540.34 1215.73 689.13 1125.83 771.30 1280.48 770.36
00003086 00000006 960.37 250.44 454.60 657.99 1098.75 542.63 1307.32 540.56 1212.55 689.56 1122.50 769.24 1276.84 768.74
00003087 00000007 959.66 249.38 455.80 659.53 1097.14 542.15 1307.72 540.28 1211.90 688.73 1122.00 769.90 1277.26 769.60
00003088 00000008 958.96 250.33 454.81 661.53 1095.24 543.16 1305.52 542.26 1208.22 691.50 1115.64 769.76 1272.10 770.33
00003089 00000009 957.76 249.14 455.10 665.06 1093.62 544.51 1304.48 544.89 1205.30 692.45 1111.81 770.63 1268.62 772.34
00003090 00000010 956.89 244.07 455.92 670.35 1092.89 543.89 1305.69 545.71 1204.49 692.14 1108.28 768.70 1269.28 771.43
00003091 00000011 954.83 254.45 456.60 651.13 1092.41 543.47 1303.71 545.07 1201.75 691.93 1104.54 760.79 1267.51 763.68
00003092 00000012 954.46 253.00 457.65 652.70 1092.14 543.30 1303.80 545.54 1201.16 691.61 1104.59 760.78 1267.44 764.19
00003093 00000013 954.30 246.79 458.77 659.54 1090.47 541.95 1304.15 544.72 1201.51 690.38 1101.77 756.73 1271.60 760.30
00003094 00000014 955.28 246.50 458.41 659.86 1091.63 541.26 1304.86 545.51 1201.94 690.78 1103.08 758.25 1270.70 762.96
00003095 00000015 955.30 243.28 458.75 664.50 1093.78 541.16 1304.85 544.73 1203.82 689.01 1105.48 756.52 1273.22 760.42
00003096 00000016 955.27 244.72 460.85 662.46 1096.99 538.79 1308.17 542.63 1208.29 688.93 1109.11 756.28 1275.13 760.24
00003097 00000017 956.77 248.13 459.43 657.82 1098.28 539.70 1307.83 543.07 1208.38 689.25 1109.57 756.14 1273.61 759.77
00003098 00000018 959.95 240.60 458.61 661.08 1099.46 525.48 1311.79 533.97 1208.97 677.21 1113.71 755.38 1273.16 763.11
00003099 DELETE   963.45 236.85 458.63 668.80 1107.37 513.27 1312.96 524.25 1213.28 668.92 1117.76 750.00 1274.52 759.10
00003100 00000020 964.38 230.22 460.03 671.93 1113.89 498.76 1320.16 512.12 1222.34 664.21 1119.23 743.05 1278.64 754.26
00003101 00000021 967.27 230.22 463.45 671.95 1119.15 490.30 1326.15 502.95 1230.49 655.83 1126.60 739.26 1286.96 749.44
00003102 00000022 967.37 227.66 463.05 674.54 1119.93 490.47 1326.58 503.35 1230.98 655.83 1126.66 739.11 1287.08 749.39
00003103 00000023 967.82 216.10 464.55 687.52 1125.04 482.99 1331.63 497.74 1237.95 648.02 1130.42 736.02 1290.02 747.67
00003104 00000024 970.31 223.90 460.61 667.38 1124.39 478.50 1331.38 491.33 1239.92 645.05 1134.21 731.57 1291.23 741.78
00003105 00000025 970.67 217.78 461.68 668.47 1127.70 470.95 1330.11 484.93 1241.38 635.38 1136.29 724.78 1289.35 735.81
00003106 00000026 970.04 212.55 462.02 674.58 1128.63 461.65 1329.43 476.31 1241.73 625.74 1138.00 720.12 1289.06 731.66
00003107 00000027 970.75 214.11 461.30 671.84 1128.66 461.68 1329.57 476.08 1241.76 625.77 1138.69 720.63 1288.96 732.03
00003108 00000028 968.88 204.89 463.73 680.00 1128.67 455.05 1330.74 467.97 1243.10 621.61 1137.51 715.77 1290.50 725.97
00003109 00000029 969.49 202.66 463.69 677.33 1127.24 451.81 1329.98 464.73 1241.04 617.70 1134.49 712.14 1288.18 722.56
00003110 00000030 966.91 200.18 464.73 678.53 1125.96 449.23 1329.49 461.21 1241.27 614.95 1134.43 710.15 1287.70 719.69
00003111 00000031 968.15 202.06 463.03 676.56 1126.87 449.26 1329.38 460.88 1241.59 615.59 1136.50 711.68 1287.53 720.83
00003112 00000032 968.19 203.05 463.30 675.68 1127.47 449.52 1329.64 461.18 1242.15 616.29 1137.13 712.08 1287.67 721.28
00003113 00000033 968.47 204.45 463.90 676.76 1127.59 449.69 1329.16 462.68 1241.24 616.17 1135.82 712.57 1286.32 722.84
00003114 00000034 968.04 204.69 463.95 675.21 1127.30 449.57 1329.77 461.91 1241.91 616.09 1136.54 712.67 1286.97 722.38
00003115 00000035 969.27 202.50 464.08 675.87 1127.59 447.37 1330.75 458.54 1243.13 613.59 1138.25 709.98 1290.22 718.58
00003116 00000036 971.28 199.12 462.50 674.35 1128.58 446.98 1332.15 456.01 1244.77 611.41 1142.59 708.50 1293.69 715.16
00003117 00000037 971.35 201.19 462.50 672.41 1128.50 448.05 1331.88 456.20 1245.58 612.75 1143.01 708.90 1294.28 714.85
00003118 00000038 972.75 200.82 460.73 671.92 1129.83 446.75 1333.94 455.18 1246.90 610.62 1146.84 707.84 1298.35 713.77
00003119 00000039 973.45 201.33 460.28 668.82 1130.50 448.45 1334.60 455.24 1247.77 612.30 1149.03 707.80 1300.60 712.39
00003120 00000040 975.82 198.99 461.94 670.90 1130.87 449.48 1336.27 456.05 1248.45 612.14 1149.75 708.58 1303.16 712.78
00003121 00000041 977.84 199.36 464.89 670.25 1133.49 450.71 1338.50 456.08 1250.41 613.73 1153.40 709.89 1305.30 712.83
00003122 00000042 978.90 196.03 463.21 672.65 1133.79 450.64 1338.34 456.46 1250.83 613.98 1153.77 710.07 1305.17 713.33
00003123 00000043 979.65 197.04 462.83 671.72 1134.28 451.32 1338.63 456.74 1250.54 614.81 1154.52 710.06 1306.42 712.87
00003124 00000044 979.76 195.73 462.33 671.66 1133.53 451.29 1337.99 456.56 1250.77 614.44 1154.82 710.34 1305.88 713.01
00003125 00000045 979.53 192.49 461.48 675.68 1134.50 450.69 1338.21 456.91 1251.91 612.56 1155.48 710.02 1306.38 713.41
00003126 00000046 979.48 196.99 462.51 672.16 1134.45 451.07 1339.09 456.91 1251.60 614.26 1154.87 710.13 1307.40 713.32
00003127 00000047 979.28 198.22 461.87 671.01 1134.46 451.32 1338.79 456.64 1252.25 613.78 1155.55 710.39 1307.43 713.21
00003128 00000048 979.17 198.74 461.40 671.61 1135.49 451.86 1340.26 459.00 1252.40 616.90 1153.34 710.65 1307.29 715.18
00003129 00000049 977.94 197.86 463.40 673.94 1136.24 453.36 1339.75 461.82 1251.99 618.15 1153.14 713.04 1304.09 718.65
00003130 00000050 977.31 203.00 462.38 670.66 1135.93 454.38 1338.60 462.37 1251.64 619.79 1153.73 715.33 1303.20 720.53
00003131 00000051 976.10 203.58 462.17 671.35 1134.35 454.69 1337.26 462.17 1250.36 619.60 1151.75 714.78 1302.73 719.66
00003132 00000052 976.18 204.05 463.01 670.54 1134.11 454.65 1337.59 462.34 1249.70 620.24 1150.68 714.24 1302.49 719.37
00003133 00000053 975.13 206.10 459.85 669.07 1132.35 454.50 1334.03 461.42 1248.68 620.48 1151.29 715.39 1300.02 720.06
00003134 00000054 974.50 206.12 458.89 669.23 1131.70 454.32 1333.25 461.35 1247.99 620.10 1151.01 715.65 1299.02 720.36
00003135 00000055 974.85 206.36 457.56 669.63 1131.16 456.33 1331.97 463.62 1247.34 621.73 1150.31 716.73 1298.27 721.73
00003136 00000056 975.74 211.30 456.88 665.54 1130.50 458.57 1332.06 464.59 1246.62 623.67 1150.49 718.35 1299.63 722.29
00003137 00000057 975.40 210.82 457.70 666.65 1130.37 458.41 1332.29 464.61 1246.54 623.70 1150.40 718.48 1299.56 722.55
00003138 00000058 975.89 210.67 458.06 666.98 1131.53 458.97 1331.98 465.17 1246.99 623.65 1151.48 718.65 1299.04 722.75
00003139 00000059 976.36 209.54 456.24 665.06 1131.21 459.46 1331.63 465.64 1246.09 623.71 1151.33 718.34 1298.74 722.45
00003140 00000060 975.54 209.60 458.27 665.34 1130.05 456.24 1331.81 462.81 1245.20 622.74 1149.64 716.16 1298.36 720.52
00003141 00000061 975.34 203.28 457.95 669.31 1131.19 454.61 1332.14 462.22 1245.76 621.79 1149.37 713.60 1298.43 718.92
00003142 00000062 974.90 202.35 458.16 670.50 1130.64 454.19 1331.48 461.67 1245.55 620.61 1149.52 714.10 1297.85 719.19
00003143 00000063 974.85 201.32 458.94 668.64 1130.52 453.04 1331.45 460.10 1246.19 618.70 1149.86 713.59 1297.35 718.29
00003144 00000064 973.52 201.67 459.42 668.85 1130.09 450.56 1331.45 457.74 1246.90 614.77 1149.46 711.75 1296.92 716.67
00003145 00000065 973.56 202.13 458.91 665.85 1132.46 448.23 1332.81 456.45 1248.66 612.37 1150.57 707.73 1298.15 713.62
00003146 00000066 974.22 196.45 458.31 668.69 1134.93 447.87 1333.67 456.63 1250.56 610.40 1152.44 705.76 1298.88 711.96
00003147 00000067 974.60 197.29 458.47 667.91 1134.92 447.21 1334.17 455.67 1250.59 610.73 1152.57 706.09 1299.19 712.09
00003148 00000068 973.11 196.93 458.34 670.97 1135.55 447.41 1333.66 455.76 1251.90 609.39 1152.69 705.05 1300.03 710.87
00003149 00000069 972.22 197.42 457.77 671.49 1134.20 445.73 1332.91 453.66 1252.05 607.62 1152.44 704.12 1300.27 709.51
00003150 00000070 970.95 198.16 456.95 671.33 1130.70 447.68 1330.47 453.13 1250.31 608.52 1150.04 704.73 1299.90 708.30
00003151 00000071 968.54 201.76 457.56 669.35 1129.16 450.17 1328.31 450.94 1250.16 611.74 1150.51 707.25 1301.63 707.05
00003152 00000072 968.26 200.49 458.07 670.39 1128.64 450.38 1328.53 451.14 1249.53 612.24 1149.90 707.44 1301.32 707.28
00003153 00000073 965.93 202.01 457.57 670.92 1125.88 451.84 1325.33 453.04 1247.29 612.80 1145.67 707.71 1299.56 708.03
00003154 00000074 964.49 204.22 457.86 668.80 1123.27 453.19 1322.71 454.62 1244.61 614.22 1143.58 708.82 1296.78 709.41
00003155 00000075 964.02 205.62 458.75 667.29 1122.32 454.09 1323.83 456.94 1242.78 615.58 1138.60 706.01 1297.00 707.99
00003156 00000076 963.45 203.95 459.53 669.73 1122.54 456.11 1323.44 458.58 1243.35 617.97 1138.33 706.15 1297.29 707.92
00003157 00000077 963.74 204.70 458.81 668.21 1123.57 455.51 1323.36 458.47 1243.57 618.18 1139.00 705.73 1296.74 707.83
00003158 00000078 964.86 208.77 457.34 663.73 1123.29 460.10 1324.11 460.94 1243.32 622.11 1140.02 708.05 1300.68 708.47
00003159 00000079 965.60 216.41 455.64 657.20 1123.00 462.58 1322.50 461.98 1241.96 623.99 1144.15 713.97 1299.58 712.82
00003160 00000080 968.08 212.98 454.02 661.86 1123.79 462.60 1321.55 462.88 1241.79 623.33 1146.95 718.59 1295.52 718.06
00003161 00000081 968.87 213.73 452.89 661.14 1125.08 463.99 1322.32 465.45 1242.35 624.95 1147.77 719.30 1295.51 719.63
00003162 00000082 969.07 210.62 452.77 664.54 1125.49 464.77 1322.45 466.47 1242.91 625.37 1147.47 719.39 1295.86 720.02
00003163 00000083 970.34 214.64 453.80 662.14 1126.77 464.04 1324.88 467.02 1243.40 625.85 1148.48 720.62 1296.82 722.16
00003164 00000084 972.74 212.80 453.36 663.17 1128.21 465.59 1326.19 469.97 1243.06 626.55 1148.91 720.14 1297.66 722.87
00003165 00000085 974.88 218.87 454.78 659.90 1130.15 466.97 1327.79 472.75 1243.25 627.93 1150.57 721.14 1298.95 724.66
00003166 00000086 976.53 217.59 456.38 663.17 1133.45 466.59 1332.71 474.08 1246.68 628.48 1151.79 721.82 1301.60 726.79
00003167 00000087 976.39 217.98 456.22 663.32 1133.89 467.01 1332.41 474.43 1246.62 628.53 1151.90 722.10 1301.46 726.96
00003168 00000088 978.08 222.86 459.43 659.92 1136.11 467.73 1335.81 476.32 1249.07 630.07 1152.91 723.29 1303.02 729.02
00003169 00000089 980.43 223.31 458.92 658.57 1141.69 468.08 1338.60 477.98 1251.90 631.30 1157.56 724.05 1303.17 730.68
00003170 00000090 982.50 223.99 462.95 654.59 1144.71 468.49 1347.43 485.64 1255.72 630.00 1150.92 713.07 1300.16 728.85
00003171 00000091 984.31 224.27 463.20 656.63 1146.36 469.37 1349.31 487.19 1256.50 634.05 1150.16 714.18 1300.94 730.60
00003172 00000092 984.36 222.38 463.17 659.41 1147.38 469.36 1349.63 487.69 1257.72 634.98 1150.27 714.27 1300.58 731.13
00003173 00000093 984.99 224.19 462.82 657.65 1147.80 469.75 1349.99 487.58 1258.11 634.37 1150.72 714.68 1301.15 731.15
00003174 00000094 985.95 226.34 462.04 655.94 1149.37 469.50 1351.56 488.05 1259.13 636.16 1150.39 714.32 1301.39 731.46
00003175 00000095 986.00 227.60 461.98 655.61 1150.15 468.99 1352.91 487.38 1260.93 636.15 1151.49 714.69 1303.05 731.62
00003176 00000096 987.47 224.42 461.54 657.63 1152.43 468.32 1354.50 487.84 1262.49 636.02 1152.55 713.92 1303.98 731.57
00003177 00000097 987.54 223.83 461.53 657.83 1152.29 467.82 1354.80 487.29 1262.72 635.71 1153.09 714.60 1303.61 732.18
00003178 00000098 988.00 224.47 460.87 657.20 1154.10 467.43 1355.09 488.02 1263.98 634.69 1153.47 713.46 1303.53 731.88
00003179 00000099 989.23 228.70 459.98 650.53 1155.77 467.88 1356.37 487.97 1264.89 635.23 1155.38 713.23 1304.44 731.27
00003180 00000100 987.63 227.08 462.29 654.66 1157.22 467.57 1357.28 488.72 1266.54 634.19 1156.36 714.08 1305.10 732.93
00003181 00000101 988.23 226.73 462.20 655.17 1157.20 467.70 1357.57 489.04 1266.41 635.52 1156.05 714.62 1305.27 733.66
00003182 00000102 987.96 226.25 462.85 656.39 1157.58 467.93 1358.09 489.57 1266.83 636.69 1155.77 714.84 1305.31 734.19
00003183 00000103 987.77 226.90 463.06 655.96 1156.79 467.70 1358.13 489.03 1266.63 635.62 1155.62 714.81 1306.28 733.81
00003184 00000104 988.29 227.70 462.05 655.26 1157.54 468.07 1358.12 489.36 1267.02 635.93 1156.14 714.89 1305.78 733.87
00003185 00000105 988.34 228.27 461.92 654.64 1158.55 467.55 1358.67 489.03 1267.71 636.05 1156.67 715.00 1305.72 734.16
00003186 00000106 988.79 227.76 461.73 655.21 1159.32 467.54 1359.15 489.19 1268.26 635.81 1156.81 714.49 1306.00 733.74
00003187 00000107 988.58 227.46 461.81 655.64 1159.68 467.35 1358.59 489.21 1268.04 635.62 1156.89 714.25 1305.54 733.66
00003188 00000108 989.04 226.44 461.25 656.86 1160.07 467.12 1358.63 488.73 1268.59 636.64 1156.93 714.79 1305.60 734.02
00003189 00000109 989.67 228.32 460.53 655.22 1161.39 467.23 1359.56 489.09 1269.64 636.90 1157.68 714.74 1306.63 734.14
00003190 00000110 990.31 228.13 459.42 655.59 1160.98 468.54 1360.07 489.38 1270.36 637.54 1158.94 716.75 1307.78 735.29
00003191 00000111 989.84 229.03 459.93 655.55 1160.41 470.09 1359.87 489.62 1270.87 638.20 1159.61 718.05 1308.18 735.53
00003192 00000112 989.94 227.72 459.90 657.05 1160.52 470.07 1359.83 489.72 1270.94 638.30 1159.32 718.31 1307.81 735.90
00003193 00000113 989.80 227.81 460.11 657.61 1160.57 470.32 1360.28 490.41 1270.87 638.67 1158.61 718.27 1307.70 736.28
00003194 00000114 989.26 226.88 460.88 659.39 1159.41 470.53 1359.81 490.76 1269.53 638.38 1157.21 718.36 1307.00 736.58
00003195 00000115 988.60 226.52 462.45 659.81 1159.42 471.03 1359.68 491.59 1269.16 639.12 1156.71 718.45 1306.09 736.99
00003196 00000116 987.72 225.96 462.65 661.69 1158.37 471.98 1359.16 491.63 1268.73 639.21 1156.46 719.17 1305.73 736.95
00003197 00000117 988.16 228.88 461.85 657.66 1158.22 472.09 1359.65 491.39 1268.93 638.45 1156.91 719.29 1305.77 736.83
00003198 00000118 986.45 226.20 463.53 660.63 1156.13 472.07 1358.19 490.62 1267.73 638.52 1155.86 719.87 1304.42 736.90
00003199 00000119 985.25 227.70 463.79 658.93 1154.64 472.92 1357.62 490.54 1266.81 639.86 1154.48 719.74 1304.35 736.11
00003200 00000120 985.55 226.36 462.92 658.71 1151.89 472.49 1356.61 488.95 1265.27 637.67 1153.15 720.29 1303.58 735.70
00003201 00000121 982.97 227.15 464.25 658.92 1149.11 472.40 1354.23 489.10 1263.07 637.36 1151.32 720.04 1301.38 735.78
00003202 00000122 983.35 225.96 464.05 660.09 1148.71 472.86 1354.10 489.63 1262.52 637.90 1150.56 719.83 1301.32 735.69
00003203 00000123 982.69 224.61 463.23 661.20 1147.38 472.94 1352.04 490.26 1260.22 637.81 1148.68 719.32 1298.81 735.67
00003204 00000124 982.45 223.80 462.50 661.11 1147.38 472.70 1350.39 490.46 1259.52 636.86 1148.15 717.75 1297.66 734.48
00003205 00000125 982.02 226.33 461.97 657.52 1146.70 472.54 1349.43 490.27 1258.22 635.70 1147.81 717.08 1296.95 733.79
00003206 00000126 981.42 226.88 461.37 656.13 1145.49 472.37 1348.86 489.31 1258.01 635.20 1147.43 716.99 1297.37 733.04
00003207 00000127 981.68 226.33 459.97 656.69 1145.29 472.01 1347.45 489.22 1257.02 633.78 1147.78 716.12 1296.56 732.39
00003208 00000128 981.72 227.36 459.71 655.83 1145.14 471.81 1347.28 489.00 1256.67 633.16 1147.91 715.92 1296.42 732.18
00003209 00000129 981.42 228.91 460.22 654.35 1145.42 471.72 1347.70 489.08 1256.89 633.34 1147.87 716.04 1296.32 732.46
00003210 00000130 981.75 229.26 460.14 653.81 1145.13 472.44 1348.30 489.43 1256.96 634.20 1147.94 717.07 1296.99 733.22
00003211 00000131 982.11 227.19 460.33 657.30 1146.19 472.92 1348.96 489.68 1258.20 635.63 1147.95 717.52 1297.64 733.43
00003212 00000132 982.28 227.98 460.25 655.63 1146.13 472.92 1348.84 489.62 1258.02 635.26 1148.12 717.23 1297.68 733.08
00003213 00000133 982.89 227.38 460.26 656.46 1145.92 472.87 1349.14 488.95 1258.34 635.41 1148.77 718.04 1298.19 733.38
00003214 00000134 983.10 227.56 460.20 656.01 1146.46 472.68 1349.32 488.59 1258.61 635.52 1149.21 717.99 1297.97 733.22
00003215 00000135 983.30 225.90 461.13 657.91 1146.45 472.55 1349.64 488.87 1258.74 634.88 1149.39 717.66 1298.91 733.13
00003216 00000136 983.23 226.27 460.65 657.37 1146.84 472.10 1350.02 488.25 1259.47 634.61 1149.97 717.96 1299.07 733.33
00003217 00000137 983.19 227.24 461.19 655.68 1146.88 471.82 1350.16 488.42 1259.15 634.06 1149.94 717.43 1298.80 733.16
00003218 00000138 983.79 227.10 461.18 655.05 1146.80 471.97 1349.75 488.48 1258.43 634.92 1149.72 717.45 1298.69 733.16
00003219 00000139 983.45 226.18 461.61 655.54 1146.73 471.95 1349.58 488.25 1258.53 634.72 1149.93 717.33 1298.45 732.88
00003220 00000140 983.45 227.30 461.89 654.12 1147.14 472.05 1350.07 488.63 1258.78 635.54 1150.10 717.53 1298.30 733.31
00003221 00000141 984.56 227.35 461.47 652.90 1148.04 471.45 1350.59 487.68 1258.83 634.41 1150.91 716.86 1298.74 732.27
00003222 00000142 984.66 227.66 461.78 652.82 1148.46 471.26 1351.14 487.27 1259.64 635.45 1151.39 717.16 1299.13 732.42
00003223 00000143 985.65 227.71 463.00 653.08 1149.81 471.26 1352.16 489.75 1259.04 635.43 1150.67 716.79 1299.68 733.95
00003224 00000144 986.68 226.51 461.81 653.53 1153.66 475.64 1353.19 495.28 1260.72 635.54 1152.17 716.33 1300.31 734.41
00003225 00000145 988.47 226.89 461.55 654.11 1155.45 481.22 1357.37 499.51 1264.13 637.30 1153.50 721.15 1302.96 738.25
00003226 00000146 989.22 225.47 461.98 656.79 1159.22 483.95 1360.19 502.48 1269.15 639.23 1156.42 722.20 1306.05 739.46
00003227 00000147 989.75 229.00 461.71 652.42 1160.21 483.70 1361.25 503.14 1269.45 638.29 1157.16 721.91 1305.86 739.95
00003228 00000148 991.62 229.04 460.13 654.71 1161.93 485.81 1363.17 504.11 1272.44 642.03 1158.29 723.28 1309.97 740.39
00003229 00000149 993.03 228.32 459.34 655.10 1164.92 485.72 1364.55 503.08 1276.11 644.98 1162.71 724.37 1313.09 740.66
00003230 00000150 994.24 230.40 458.75 654.46 1167.75 487.06 1366.55 503.57 1279.09 645.80 1165.58 725.04 1315.55 740.75
00003231 00000151 996.06 231.71 457.27 653.67 1171.31 488.81 1370.18 503.56 1284.71 644.42 1170.87 728.55 1319.79 742.74
00003232 00000152 995.65 234.29 457.97 651.26 1171.95 488.97 1370.82 504.24 1285.26 644.71 1170.52 727.96 1319.26 742.66
00003233 00000153 998.06 234.70 457.27 650.44 1175.18 490.50 1373.14 505.27 1288.16 647.89 1173.55 729.22 1321.19 743.52
00003234 00000154 998.81 235.49 456.87 649.24 1175.93 491.13 1374.39 505.13 1289.65 646.83 1175.28 730.29 1323.24 743.84
00003235 00000155 999.50 237.01 456.71 648.17 1176.17 491.69 1374.77 504.74 1290.07 647.51 1176.40 731.06 1324.56 743.80
00003236 00000156 997.65 237.10 458.28 652.76 1176.59 491.83 1374.29 505.40 1290.40 648.48 1175.60 731.23 1323.53 744.44
00003237 00000157 998.41 234.13 458.34 655.74 1176.70 491.99 1374.57 505.71 1290.20 649.01 1174.91 731.14 1323.31 744.40
00003238 00000158 997.86 233.78 458.63 662.06 1177.28 492.39 1373.33 506.02 1289.38 648.32 1175.55 733.13 1322.47 746.22
00003239 00000159 995.55 234.73 458.96 666.86 1174.14 489.46 1369.88 504.12 1286.99 648.44 1173.10 732.97 1319.25 747.16
00003240 00000160 995.96 236.77 456.40 656.74 1167.74 485.84 1367.26 499.74 1282.33 647.79 1169.75 732.11 1315.45 745.79
00003241 00000161 992.78 232.73 460.30 658.94 1162.92 481.77 1365.93 496.57 1277.52 647.68 1165.01 729.84 1312.28 744.30
00003242 00000162 991.82 230.98 461.15 660.66 1163.27 481.62 1366.11 496.65 1278.00 647.76 1165.35 729.54 1312.16 744.12
00003243 00000163 990.77 232.22 460.34 658.78 1158.59 476.53 1364.12 491.78 1273.51 645.52 1163.35 728.26 1311.04 742.79
