Video ID: 	xdbwNMYKhw0
H: 	2160
W: 	3840
FPS: 	23.976023976023978

FRAME INDEX X0 Y0 W H [Landmarks (5 Points)]

00041417 00000000 1119.11 183.87 596.63 818.98 1258.34 492.22 1528.45 527.20 1331.07 612.01 1227.23 778.77 1454.02 811.65
00041418 00000001 1122.36 197.62 600.56 814.65 1264.21 503.64 1535.68 537.48 1343.84 627.27 1237.54 787.60 1455.44 821.57
00041419 00000002 1124.90 204.94 600.61 811.38 1265.09 509.62 1537.75 544.54 1346.45 632.88 1239.98 793.44 1457.78 828.36
00041420 00000003 1128.99 211.34 599.33 802.70 1269.33 511.34 1542.05 546.58 1351.39 634.81 1243.46 793.41 1461.87 828.62
00041421 00000004 1131.91 205.54 600.45 800.33 1272.37 507.53 1546.42 542.40 1355.99 630.73 1246.38 789.12 1465.21 824.20
00041422 00000005 1136.12 192.93 587.85 792.98 1276.96 499.69 1543.79 536.51 1346.47 615.04 1243.49 773.66 1454.02 808.59
00041423 00000006 1135.15 183.98 592.29 786.10 1275.82 492.72 1541.18 526.68 1345.88 608.66 1239.74 765.48 1461.61 797.50
00041424 00000007 1134.48 182.39 592.80 783.77 1275.44 491.89 1542.11 525.81 1346.43 608.09 1238.86 764.74 1463.34 796.85
00041425 00000008 1134.92 189.55 588.51 786.33 1275.81 499.85 1540.84 534.27 1346.97 615.79 1241.04 770.58 1462.69 803.09
00041426 00000009 1129.27 211.02 600.59 786.09 1275.54 507.85 1549.66 546.18 1361.52 633.72 1245.86 784.15 1473.35 821.95
00041427 00000010 1125.08 220.60 598.10 787.93 1273.78 521.79 1547.45 560.67 1361.11 644.62 1243.69 796.35 1473.33 834.46
00041428 00000011 1122.09 232.63 596.42 781.72 1274.20 528.75 1543.71 573.11 1357.38 657.50 1239.58 801.46 1468.03 843.45
00041429 00000012 1120.42 225.53 598.08 785.61 1272.75 525.68 1543.57 568.04 1357.75 650.55 1239.09 798.33 1466.48 839.14
00041430 00000013 1119.08 216.92 602.56 784.52 1268.39 515.87 1541.31 554.33 1354.30 639.45 1237.31 788.58 1465.94 826.53
00041431 00000014 1122.56 200.05 592.87 787.05 1266.56 505.36 1536.06 543.75 1344.55 624.27 1236.45 776.25 1457.20 811.82
00041432 00000015 1117.85 202.31 603.28 785.32 1269.40 510.10 1542.77 543.89 1359.94 624.50 1240.42 775.73 1467.64 810.13
00041433 00000016 1113.46 221.47 605.44 766.14 1262.44 520.51 1535.16 553.63 1354.00 627.92 1235.18 784.11 1464.69 818.14
00041434 DELETE   1110.91 226.17 605.50 774.52 1261.86 531.48 1536.47 566.69 1353.39 639.91 1233.38 796.01 1464.23 831.80
00041435 DELETE   1124.86 226.06 580.94 786.14 1261.37 538.69 1538.16 574.66 1347.98 653.36 1233.67 806.54 1459.30 839.86
00041436 00000019 1115.47 248.98 593.55 781.21 1264.38 543.63 1534.06 586.20 1350.57 678.75 1230.38 820.26 1464.99 860.07
00041437 00000020 1118.78 262.55 589.19 777.51 1265.76 550.13 1533.27 594.19 1348.93 692.71 1231.89 829.22 1464.52 869.69
00041438 00000021 1114.48 263.43 600.02 786.19 1265.09 556.20 1535.82 598.67 1352.37 699.63 1230.96 834.57 1460.39 874.69
00041439 00000022 1115.57 262.91 599.35 784.81 1266.00 555.75 1537.75 598.54 1353.46 698.12 1231.17 834.03 1463.42 874.39
00041440 00000023 1122.00 264.79 587.77 774.18 1269.00 549.26 1535.96 591.62 1353.84 691.42 1236.90 830.30 1468.69 869.28
00041441 00000024 1122.23 261.53 589.78 772.53 1273.48 545.42 1538.41 587.22 1359.50 683.42 1241.10 824.18 1470.54 862.76
00041442 00000025 1123.27 253.86 591.83 774.88 1275.44 541.20 1540.97 584.58 1361.50 678.69 1242.29 820.28 1471.10 860.19
00041443 00000026 1124.95 252.27 591.30 773.73 1276.71 538.67 1542.87 582.18 1362.61 677.01 1245.01 818.00 1472.22 858.09
00041444 00000027 1124.88 251.82 591.25 774.17 1277.49 538.90 1543.66 582.44 1363.88 677.32 1245.74 818.18 1472.64 858.31
00041445 00000028 1124.89 252.66 590.79 775.95 1277.43 540.79 1542.68 583.56 1364.18 678.37 1246.43 821.21 1471.59 860.61
00041446 00000029 1124.84 256.81 589.40 777.40 1276.85 542.73 1540.99 585.37 1364.34 682.57 1246.03 824.12 1470.53 863.16
00041447 00000030 1126.66 265.46 586.09 774.98 1275.13 546.92 1540.38 588.19 1362.38 688.39 1246.50 829.62 1470.56 867.51
00041448 00000031 1127.35 266.00 584.89 777.46 1274.20 549.83 1540.32 591.71 1360.38 691.86 1245.67 834.16 1468.62 872.61
00041449 00000032 1127.18 266.08 585.69 780.00 1272.52 550.58 1540.08 593.04 1359.00 694.59 1244.99 836.87 1467.48 875.80
00041450 00000033 1134.30 254.00 577.43 788.24 1273.35 548.23 1535.93 589.67 1349.80 694.82 1244.90 832.40 1461.06 869.41
00041451 00000034 1128.55 265.97 585.88 777.69 1275.99 550.11 1541.48 591.92 1362.34 692.03 1248.10 835.67 1467.34 874.00
00041452 00000035 1128.17 264.54 586.72 776.39 1277.74 547.68 1542.85 589.62 1365.38 687.99 1249.40 832.14 1468.44 870.53
00041453 00000036 1127.72 260.21 589.29 775.82 1279.30 543.57 1544.07 586.00 1366.66 683.58 1250.12 827.82 1470.08 866.58
00041454 00000037 1129.34 248.50 590.82 778.23 1281.23 539.55 1547.12 582.07 1368.01 677.26 1252.80 823.25 1471.73 862.34
00041455 00000038 1130.44 239.88 590.35 779.82 1282.86 535.79 1550.00 579.16 1369.48 671.91 1253.24 818.88 1474.58 858.83
00041456 00000039 1134.74 231.30 583.67 781.55 1282.75 534.32 1553.09 578.27 1360.08 666.14 1251.17 809.81 1465.09 849.60
00041457 00000040 1131.19 231.77 592.58 783.11 1285.69 528.82 1553.47 573.39 1374.36 662.21 1256.26 810.60 1472.81 851.87
00041458 00000041 1132.11 229.57 592.30 786.31 1285.57 526.60 1554.42 570.98 1375.28 659.32 1256.99 809.76 1473.41 850.92
00041459 00000042 1134.18 227.07 590.97 792.98 1287.06 524.44 1555.51 568.95 1378.01 657.07 1259.36 810.17 1471.62 851.42
00041460 00000043 1135.31 226.92 588.27 801.71 1287.98 524.91 1555.42 568.39 1378.66 657.55 1261.27 816.08 1470.54 856.16
00041461 00000044 1036.72 199.89 732.34 1113.82 1246.84 642.11 1603.03 623.97 1460.62 808.73 1304.74 1052.95 1582.56 1042.14
00041462 00000045 1038.55 197.77 729.69 1115.47 1250.83 642.85 1606.26 624.09 1467.83 810.62 1310.15 1054.39 1586.64 1043.16
00041463 00000046 1040.39 198.29 729.81 1112.22 1254.28 643.59 1610.45 624.79 1475.46 811.53 1315.67 1055.94 1592.34 1044.53
00041464 00000047 1041.21 197.14 730.90 1110.06 1258.46 643.63 1612.67 625.10 1481.34 811.21 1320.96 1057.81 1592.11 1046.74
00041465 00000048 1040.55 195.05 731.64 1116.48 1258.42 642.43 1611.89 624.55 1480.38 810.00 1318.40 1057.27 1590.62 1046.92
00041466 00000049 1036.16 196.95 733.58 1120.78 1256.25 635.31 1604.39 618.71 1472.61 805.88 1312.32 1054.13 1579.82 1044.62
00041467 00000050 1037.47 195.58 731.27 1129.77 1251.47 629.79 1601.45 614.90 1461.08 795.99 1299.50 1048.07 1573.40 1040.38
00041468 00000051 1034.57 200.19 729.25 1126.84 1245.64 654.67 1587.70 640.79 1444.77 788.52 1288.57 1041.07 1570.97 1036.84
00041469 00000052 1032.72 205.68 730.37 1112.37 1244.48 662.48 1584.70 652.84 1443.09 791.73 1286.82 1033.06 1574.23 1031.64
00041470 00000053 1035.80 205.71 732.20 1094.04 1253.33 653.53 1598.14 645.68 1459.92 790.54 1293.63 1025.20 1582.15 1024.06
00041471 00000054 1042.27 198.42 730.78 1089.04 1264.71 641.67 1613.63 634.12 1481.33 799.63 1307.06 1028.90 1591.30 1026.71
00041472 00000055 1048.32 196.25 729.92 1095.77 1273.21 644.98 1624.83 635.74 1495.13 807.81 1317.69 1038.45 1601.54 1034.77
00041473 00000056 1053.89 201.77 732.14 1105.88 1285.97 647.21 1636.39 638.26 1512.06 818.02 1325.33 1044.45 1612.47 1041.72
00041474 00000057 1066.62 208.86 729.64 1099.19 1297.94 652.27 1649.93 645.01 1525.06 825.19 1333.27 1050.32 1623.05 1050.09
00041475 00000058 1070.48 207.60 735.18 1094.82 1308.11 659.31 1660.15 653.60 1536.92 827.92 1345.81 1047.50 1637.14 1046.89
00041476 00000059 1073.11 210.83 734.73 1086.48 1314.26 659.85 1664.49 654.80 1543.21 829.55 1357.15 1047.35 1640.30 1046.61
00041477 00000060 1074.80 213.77 734.56 1085.70 1317.15 661.77 1666.56 658.43 1544.84 831.21 1359.23 1048.25 1640.88 1048.74
00041478 00000061 1073.66 217.24 737.56 1079.41 1317.04 664.35 1670.81 663.58 1545.82 830.54 1354.47 1042.66 1646.31 1045.03
00041479 00000062 1077.86 215.59 737.46 1083.40 1318.17 665.26 1673.06 664.35 1547.02 831.46 1355.64 1042.68 1650.92 1044.84
00041480 00000063 1076.23 215.48 742.23 1098.40 1317.31 666.22 1670.18 664.15 1545.80 834.70 1364.37 1062.62 1642.70 1064.09
00041481 00000064 1077.48 221.68 737.96 1116.97 1317.72 668.43 1667.85 664.90 1546.88 836.58 1366.11 1075.58 1641.30 1076.52
00041482 00000065 1084.09 228.90 730.31 1119.04 1319.41 671.27 1665.55 667.34 1543.84 832.05 1370.26 1082.79 1639.63 1083.37
00041483 00000066 1081.77 221.04 733.22 1115.19 1321.86 666.13 1665.18 663.56 1548.23 828.23 1373.45 1073.09 1640.50 1074.56
00041484 00000067 1080.71 214.29 737.25 1115.58 1321.83 664.07 1669.49 662.20 1548.84 826.94 1361.60 1059.48 1645.22 1061.75
00041485 00000068 1080.57 217.10 736.97 1123.96 1321.82 664.00 1669.72 663.66 1546.15 827.04 1344.88 1052.75 1644.40 1057.70
00041486 00000069 1079.42 222.63 737.00 1121.15 1323.37 664.44 1668.77 666.80 1547.96 827.91 1337.68 1047.93 1643.22 1055.48
00041487 00000070 1076.67 223.15 739.87 1121.26 1323.51 664.18 1670.31 668.61 1549.64 827.58 1332.71 1042.56 1646.18 1051.70
00041488 00000071 1080.03 224.48 736.10 1121.20 1327.30 667.85 1670.95 674.72 1550.18 828.98 1333.42 1040.06 1647.55 1051.07
00041489 00000072 1084.28 235.39 731.93 1113.07 1333.90 681.95 1679.27 697.35 1545.39 832.87 1333.87 1039.89 1652.25 1056.86
00041490 00000073 1088.25 238.51 732.08 1099.61 1339.07 690.60 1688.82 708.74 1552.86 838.25 1341.70 1039.78 1659.59 1058.59
00041491 00000074 1086.59 245.27 742.61 1078.46 1343.54 695.99 1700.22 708.00 1568.27 847.79 1360.79 1046.55 1674.34 1059.70
00041492 00000075 1095.50 252.71 740.38 1066.65 1352.69 690.76 1712.26 695.92 1588.67 859.55 1376.39 1050.82 1686.46 1058.54
00041493 00000076 1090.09 232.68 747.28 1092.09 1352.98 677.29 1716.32 681.60 1589.81 856.89 1381.97 1053.82 1680.72 1061.98
00041494 00000077 1091.15 233.16 746.79 1093.00 1354.09 676.11 1718.02 682.63 1590.07 857.99 1381.21 1054.46 1679.37 1064.41
00041495 00000078 1094.59 230.88 746.10 1100.42 1354.73 672.07 1718.15 681.80 1589.26 859.05 1378.27 1055.18 1677.73 1066.86
00041496 00000079 1094.04 226.87 748.80 1109.03 1356.32 671.14 1721.48 682.52 1592.30 861.28 1378.21 1059.02 1678.10 1071.53
00041497 00000080 1093.96 228.35 751.31 1112.34 1361.21 670.58 1725.99 681.24 1602.12 864.99 1386.86 1065.53 1683.05 1076.65
00041498 00000081 1096.70 229.31 750.13 1117.03 1366.59 670.02 1729.31 681.55 1612.03 870.24 1391.30 1071.38 1683.71 1083.12
00041499 00000082 1098.95 228.58 750.21 1117.34 1369.04 672.68 1731.18 684.93 1612.94 873.89 1393.18 1073.98 1683.44 1086.42
00041500 00000083 1096.46 229.77 751.58 1111.43 1368.27 674.06 1729.67 685.79 1609.63 873.98 1393.09 1072.44 1681.77 1084.56
00041501 00000084 1095.98 231.86 750.56 1102.65 1363.71 675.03 1727.03 685.94 1601.62 871.17 1390.79 1068.97 1681.30 1080.60
00041502 00000085 1094.23 233.58 749.17 1095.45 1359.61 672.22 1726.14 685.14 1594.88 862.31 1385.07 1061.99 1677.47 1076.34
00041503 00000086 1091.19 231.51 749.92 1099.69 1356.42 669.06 1724.13 684.05 1590.99 861.23 1377.19 1059.98 1673.12 1076.45
00041504 00000087 1089.52 231.75 751.23 1100.59 1354.18 668.63 1721.98 684.32 1587.69 862.26 1374.94 1061.46 1669.53 1078.13
00041505 00000088 1092.22 229.48 748.86 1098.84 1358.40 668.51 1722.83 681.23 1592.43 859.58 1381.75 1058.60 1673.35 1073.16
00041506 00000089 1095.61 231.84 746.25 1094.32 1363.92 669.51 1725.10 679.87 1599.89 860.82 1389.58 1058.09 1679.03 1070.17
00041507 00000090 1098.58 230.95 746.51 1098.09 1369.56 670.61 1729.04 681.57 1607.70 862.52 1394.11 1061.22 1681.75 1073.45
00041508 00000091 1095.66 230.71 751.89 1106.34 1371.67 669.39 1730.04 680.41 1614.39 866.93 1396.70 1067.11 1682.04 1079.08
00041509 00000092 1096.75 228.85 749.16 1110.68 1372.23 667.52 1730.18 680.58 1614.57 866.30 1397.26 1071.02 1676.34 1085.12
00041510 00000093 1099.56 227.00 745.94 1112.52 1371.18 666.44 1730.19 681.31 1611.29 864.39 1397.59 1072.12 1674.01 1087.86
00041511 00000094 1100.49 227.39 745.34 1112.33 1372.05 666.45 1730.45 683.37 1610.07 863.73 1397.56 1071.79 1672.19 1089.35
00041512 00000095 1100.45 226.95 745.95 1114.06 1372.49 666.56 1730.05 682.18 1612.63 865.59 1399.21 1074.32 1672.24 1090.84
00041513 00000096 1102.70 224.92 747.79 1114.17 1375.53 671.78 1732.83 685.44 1613.34 865.87 1402.95 1075.07 1675.24 1090.04
00041514 00000097 1104.50 226.53 748.42 1109.03 1380.55 673.75 1737.22 686.21 1616.90 863.23 1409.61 1074.44 1680.14 1088.55
00041515 00000098 1106.64 220.14 747.34 1115.86 1383.45 674.91 1738.99 686.11 1621.01 861.60 1413.23 1075.49 1683.29 1088.46
00041516 00000099 1106.34 221.30 747.87 1113.64 1383.05 674.95 1739.14 686.52 1620.37 860.88 1413.22 1075.75 1683.40 1088.93
00041517 00000100 1103.72 224.44 749.66 1111.50 1379.59 672.56 1735.07 685.41 1615.48 862.17 1410.47 1076.09 1678.14 1090.45
00041518 00000101 1106.31 226.13 744.06 1111.35 1375.73 671.59 1731.63 686.14 1612.78 858.63 1406.89 1075.07 1675.79 1090.82
00041519 00000102 1102.66 225.20 744.84 1111.78 1374.20 670.92 1729.42 685.10 1609.41 856.07 1406.39 1074.27 1671.22 1089.72
00041520 00000103 1103.71 221.78 743.07 1116.30 1374.26 670.12 1728.28 684.58 1609.41 853.30 1407.47 1074.62 1670.34 1090.26
00041521 00000104 1106.71 221.10 740.27 1117.75 1377.48 669.57 1727.86 682.03 1613.35 854.23 1412.99 1076.88 1673.01 1090.90
00041522 00000105 1105.18 218.98 742.47 1121.18 1379.64 670.87 1728.17 680.34 1618.01 852.86 1418.56 1078.87 1676.64 1090.33
00041523 00000106 1107.53 217.92 741.69 1118.93 1382.78 677.94 1730.71 684.41 1620.17 851.91 1425.55 1080.90 1680.51 1089.71
00041524 00000107 1114.55 215.81 737.20 1122.57 1391.81 681.47 1731.86 685.18 1625.94 857.62 1431.61 1083.62 1677.41 1090.65
00041525 00000108 1115.85 217.83 742.09 1121.59 1393.91 688.40 1736.21 690.40 1628.52 864.52 1435.62 1085.90 1685.64 1091.05
00041526 00000109 1119.13 216.95 740.99 1130.13 1393.25 689.28 1736.55 692.72 1626.36 864.82 1433.26 1088.82 1685.16 1094.94
00041527 00000110 1121.24 220.13 739.07 1131.51 1390.94 687.56 1734.18 693.94 1620.67 864.32 1426.18 1090.15 1680.24 1098.98
00041528 00000111 1117.94 222.61 741.36 1117.22 1386.01 687.57 1736.62 696.99 1615.80 871.62 1416.52 1080.98 1682.44 1092.24
00041529 00000112 1111.36 229.45 741.90 1104.39 1379.64 696.55 1732.47 716.33 1603.16 865.44 1405.39 1072.06 1676.15 1091.27
00041530 00000113 1111.03 238.98 735.75 1094.40 1376.51 709.22 1727.55 732.14 1595.22 861.68 1397.38 1067.81 1673.12 1090.95
00041531 00000114 1103.98 234.94 744.46 1098.66 1370.90 702.94 1729.00 719.91 1594.91 865.85 1397.25 1070.91 1677.49 1087.82
00041532 00000115 1111.40 228.72 743.57 1107.74 1376.52 685.40 1730.37 692.36 1607.83 879.41 1406.72 1077.03 1681.85 1086.28
00041533 00000116 1111.50 230.47 746.73 1116.15 1379.59 679.64 1730.20 685.64 1613.39 881.52 1411.94 1080.67 1684.27 1088.57
00041534 00000117 1106.51 231.67 750.05 1118.04 1376.11 676.50 1729.30 685.23 1612.00 883.90 1407.52 1082.29 1682.43 1092.36
00041535 00000118 1107.85 233.00 744.26 1110.26 1372.70 675.18 1725.20 686.73 1605.71 883.67 1400.84 1074.73 1677.87 1087.42
00041536 00000119 1099.47 237.97 747.83 1105.43 1361.56 672.20 1720.13 688.06 1596.69 877.34 1388.67 1072.04 1674.14 1087.90
00041537 00000120 1091.99 238.73 751.18 1114.32 1353.31 669.69 1713.36 691.15 1587.04 875.08 1379.43 1074.64 1666.77 1094.49
00041538 00000121 1086.21 245.75 754.15 1114.67 1346.19 668.36 1710.45 692.38 1578.93 881.52 1363.94 1077.70 1659.71 1099.91
00041539 00000122 1085.15 247.18 754.51 1116.72 1343.24 668.87 1707.34 691.42 1574.86 883.02 1361.14 1078.09 1657.49 1099.30
00041540 00000123 1086.93 243.98 752.18 1117.29 1344.42 668.97 1708.28 691.01 1575.21 881.76 1363.91 1077.66 1658.08 1098.49
00041541 00000124 1089.90 241.75 748.41 1115.88 1347.20 669.30 1711.00 690.61 1579.60 878.53 1371.85 1080.16 1659.65 1100.48
00041542 00000125 1089.41 236.59 748.11 1109.85 1351.95 670.60 1713.16 688.85 1586.44 875.10 1383.29 1080.41 1660.64 1098.71
00041543 00000126 1091.20 235.15 745.94 1099.89 1352.65 673.39 1711.96 686.40 1583.55 875.27 1386.34 1076.22 1660.66 1090.32
00041544 00000127 1090.23 236.47 748.51 1100.93 1352.32 672.70 1711.10 688.19 1580.09 871.96 1385.51 1073.23 1660.17 1089.11
CROP_BBOX: 619 0 2273 1600
