Video ID: 	F-mv2rgFyb0
H: 	1080
W: 	1920
FPS: 	25.0

FRAME INDEX X0 Y0 W H [Landmarks (5 Points)]

00007257 00000000 874.42 165.13 363.51 536.06 964.40 383.05 1116.77 378.28 1042.04 462.41 991.86 564.68 1108.38 562.02
00007258 00000001 885.08 166.62 362.13 533.80 973.30 381.57 1126.28 378.47 1049.01 462.06 997.28 563.45 1116.83 561.96
00007259 DELETE   888.52 171.29 363.52 532.66 980.45 382.78 1131.19 381.31 1055.43 464.50 1001.49 563.75 1123.12 563.58
00007260 00000003 889.91 168.94 369.55 538.24 988.56 384.37 1138.77 388.34 1064.28 471.06 1005.06 564.59 1128.51 568.59
00007261 00000004 894.37 167.15 371.78 539.20 995.22 385.37 1148.96 390.44 1074.08 473.57 1010.02 565.77 1139.10 570.31
00007262 00000005 905.00 167.92 368.06 538.70 1003.61 385.68 1160.34 392.43 1082.13 474.60 1016.43 567.87 1147.71 573.71
00007263 00000006 912.39 172.74 366.68 534.12 1010.45 384.96 1169.57 391.77 1088.00 475.30 1023.27 570.92 1153.97 577.04
00007264 00000007 912.18 170.69 368.41 542.65 1016.80 384.38 1174.62 399.67 1097.71 475.17 1030.20 570.12 1152.66 584.09
00007265 00000008 916.34 172.48 366.56 541.57 1021.02 385.20 1178.83 401.45 1100.43 476.80 1033.39 570.79 1154.86 585.75
00007266 00000009 919.01 172.80 366.92 542.65 1024.04 384.95 1181.67 402.59 1102.41 477.10 1034.19 570.03 1156.78 586.11
00007267 00000010 921.82 172.90 366.71 540.50 1026.77 383.11 1184.07 400.81 1104.00 473.81 1036.24 565.83 1158.67 581.87
00007268 00000011 924.27 173.48 366.20 537.16 1029.59 382.11 1186.96 399.28 1106.62 471.78 1039.17 564.05 1160.14 579.75
00007269 00000012 924.14 171.85 367.25 534.61 1031.08 380.29 1187.33 397.11 1109.19 467.70 1043.01 561.20 1159.89 576.39
00007270 00000013 925.46 170.86 368.13 529.08 1033.85 378.57 1188.50 394.69 1112.27 464.06 1045.14 556.89 1160.59 571.49
00007271 00000014 926.92 171.28 366.62 526.87 1035.06 378.14 1189.44 392.98 1114.11 462.35 1047.11 556.03 1161.93 569.70
00007272 00000015 927.97 170.87 366.05 529.40 1036.21 377.85 1190.83 393.10 1114.85 463.93 1046.84 557.45 1161.88 571.71
00007273 00000016 927.68 170.50 365.96 530.16 1036.37 378.16 1191.34 393.39 1115.79 464.45 1046.62 558.11 1162.41 572.37
00007274 00000017 928.60 170.97 365.38 525.74 1036.64 379.43 1191.01 393.83 1115.87 463.24 1047.41 556.36 1163.61 569.86
00007275 00000018 930.23 170.24 365.02 521.10 1036.87 380.06 1191.09 393.74 1115.52 464.65 1046.86 553.80 1165.28 566.71
00007276 00000019 929.91 170.30 365.17 521.61 1036.74 379.96 1190.88 393.85 1115.26 464.20 1046.62 554.25 1164.50 567.38
00007277 00000020 929.67 170.67 364.98 523.40 1036.10 379.46 1190.50 393.89 1114.77 464.39 1046.23 555.65 1163.26 569.25
00007278 00000021 929.14 171.62 365.14 523.54 1034.88 380.02 1189.23 393.71 1113.38 463.91 1045.68 557.27 1161.66 570.19
00007279 00000022 928.74 171.60 365.92 521.65 1033.61 381.71 1188.62 394.60 1112.34 465.79 1045.27 558.47 1162.44 570.51
00007280 00000023 929.71 171.26 366.21 521.74 1034.21 381.63 1190.34 394.61 1112.73 467.24 1044.69 557.92 1164.76 570.19
00007281 00000024 931.13 171.39 365.57 519.18 1034.76 382.45 1191.54 394.39 1114.27 467.15 1044.79 557.88 1166.33 569.34
00007282 00000025 931.61 171.40 365.43 521.18 1035.71 381.72 1193.01 394.08 1115.43 467.93 1046.05 558.05 1167.60 569.94
00007283 00000026 931.77 171.04 365.55 524.24 1035.99 381.62 1192.57 395.56 1114.70 470.30 1046.69 559.07 1167.59 572.21
00007284 00000027 932.04 171.80 365.15 524.32 1036.66 382.24 1193.10 396.39 1114.63 472.72 1046.62 559.78 1167.77 573.07
00007285 00000028 932.93 172.32 363.97 526.20 1037.63 381.03 1193.65 395.91 1114.74 472.31 1047.21 560.24 1167.14 574.24
00007286 00000029 932.54 172.00 365.36 530.56 1038.36 379.41 1194.57 394.94 1115.60 470.63 1047.45 561.14 1166.19 575.68
00007287 00000030 933.19 170.81 364.53 532.54 1039.20 378.34 1195.10 394.12 1116.41 468.84 1047.42 559.82 1166.55 574.70
00007288 00000031 932.70 169.74 365.29 531.71 1037.97 376.76 1193.75 392.00 1115.51 465.09 1047.40 558.54 1164.91 573.00
00007289 00000032 930.55 169.87 365.90 529.77 1034.61 378.21 1190.56 392.72 1112.67 464.77 1045.16 558.68 1163.92 572.44
00007290 00000033 928.35 172.27 365.15 526.98 1030.80 382.60 1186.18 395.96 1108.73 469.46 1042.67 561.46 1161.73 574.08
00007291 00000034 925.32 174.55 365.24 527.74 1026.32 388.11 1181.37 401.31 1103.10 477.45 1038.58 567.03 1159.20 579.56
00007292 00000035 920.40 173.88 365.94 530.64 1020.29 388.90 1176.62 402.71 1097.19 476.71 1034.66 567.75 1155.49 580.54
00007293 00000036 916.67 169.69 367.62 534.08 1017.65 385.42 1171.05 398.71 1094.96 471.00 1033.32 565.13 1149.95 577.55
00007294 00000037 914.52 166.44 369.03 538.62 1014.53 376.71 1167.74 387.94 1091.29 454.96 1031.41 557.92 1145.49 568.63
00007295 00000038 914.66 163.20 364.61 547.29 1011.17 370.48 1168.47 378.22 1088.97 445.38 1030.41 559.95 1144.41 567.55
00007296 00000039 911.93 159.21 363.82 552.62 1008.62 368.44 1165.75 373.85 1088.83 441.39 1030.35 560.38 1143.38 566.04
00007297 00000040 910.65 157.72 365.89 549.33 1006.81 365.46 1162.90 369.02 1086.80 437.69 1030.27 554.69 1143.21 558.94
00007298 00000041 913.99 155.41 361.59 536.29 1014.34 371.38 1161.97 367.62 1081.38 438.54 1035.43 550.65 1151.91 547.63
00007299 00000042 913.91 153.84 362.34 526.01 1015.29 374.41 1160.48 371.18 1080.21 440.10 1034.02 544.46 1149.26 542.25
00007300 00000043 913.59 155.71 364.07 524.15 1015.31 378.76 1158.52 376.11 1080.59 447.34 1034.39 542.78 1152.53 540.73
00007301 00000044 915.39 156.16 363.55 522.85 1014.82 379.67 1157.68 376.20 1080.20 449.45 1035.04 542.08 1154.00 539.19
00007302 00000045 916.64 156.74 363.30 523.07 1015.11 380.14 1158.57 376.59 1081.22 450.12 1035.40 542.67 1155.07 539.69
00007303 00000046 912.23 154.55 365.55 527.50 1010.55 375.64 1163.44 383.36 1083.29 453.73 1028.08 545.07 1151.20 552.11
00007304 00000047 912.85 166.59 366.77 522.79 1007.06 379.31 1159.07 385.14 1085.24 456.43 1026.98 548.35 1147.03 554.67
00007305 00000048 912.02 166.23 366.49 531.10 1006.53 378.68 1158.26 385.32 1084.30 453.20 1029.05 552.97 1144.18 560.04
00007306 00000049 911.05 166.01 366.34 533.38 1006.90 379.45 1158.12 385.50 1085.46 452.91 1030.25 555.80 1142.78 562.35
00007307 00000050 915.65 160.73 360.79 528.81 1012.96 384.22 1159.37 383.56 1082.17 455.58 1033.78 556.02 1149.53 556.16
00007308 00000051 915.71 161.61 360.68 526.97 1012.16 384.76 1158.78 383.50 1082.44 457.26 1034.75 556.85 1150.57 556.47
00007309 00000052 910.60 166.22 365.81 531.08 1006.43 383.48 1155.55 387.90 1085.38 455.62 1031.62 557.15 1143.63 562.32
00007310 00000053 915.21 162.25 361.92 529.53 1010.32 387.99 1158.46 385.32 1081.68 459.90 1034.53 560.00 1152.63 558.46
00007311 00000054 910.32 167.78 366.97 526.55 1005.72 381.35 1156.19 385.36 1085.17 461.67 1029.32 556.66 1147.14 561.37
00007312 00000055 908.95 170.01 367.94 524.73 1002.85 379.69 1153.91 383.08 1082.04 463.13 1027.46 557.76 1144.10 561.96
00007313 00000056 909.26 167.66 367.81 519.72 996.82 378.95 1155.74 376.13 1076.54 466.12 1023.74 563.76 1151.20 561.82
00007314 00000057 910.20 162.42 366.31 529.57 994.68 374.18 1152.74 370.09 1071.93 459.55 1022.53 563.32 1149.14 560.05
00007315 00000058 911.62 160.23 364.32 533.61 994.63 365.59 1151.16 361.13 1067.53 450.82 1019.21 560.26 1138.52 557.37
00007316 00000059 907.25 158.51 365.89 527.01 990.34 360.38 1150.24 354.60 1063.80 442.53 1013.29 555.74 1131.70 552.27
00007317 00000060 906.30 154.36 361.85 527.75 997.54 364.97 1142.40 357.48 1055.64 431.78 1017.10 547.96 1125.59 542.70
00007318 00000061 906.38 150.85 362.20 523.45 996.57 363.10 1141.18 355.07 1054.09 429.53 1016.69 542.69 1123.71 537.17
00007319 00000062 907.63 152.72 359.70 517.04 995.45 363.62 1138.94 357.96 1050.35 432.32 1013.07 537.91 1122.67 534.36
00007320 00000063 906.96 153.24 358.58 517.32 993.62 363.53 1136.03 360.45 1046.51 434.34 1008.06 534.19 1120.69 532.57
00007321 00000064 906.88 152.77 357.43 518.11 990.94 363.48 1133.24 361.03 1043.78 436.37 1005.87 533.61 1119.71 532.33
00007322 00000065 907.85 156.14 360.09 510.95 977.99 356.31 1135.89 354.60 1041.10 442.81 996.54 538.33 1121.59 538.57
00007323 00000066 906.74 156.87 362.20 514.33 977.30 359.33 1136.80 358.25 1041.99 446.90 995.85 542.87 1120.87 543.33
00007324 00000067 906.71 158.16 362.78 517.15 977.42 364.03 1136.73 364.31 1041.54 453.06 995.03 546.63 1121.10 548.03
00007325 00000068 907.15 158.89 361.94 519.68 978.02 365.42 1137.76 366.36 1042.39 455.68 995.31 549.41 1121.19 551.40
00007326 00000069 907.97 159.68 362.27 521.57 979.05 367.03 1138.93 367.75 1043.76 456.55 997.06 551.83 1123.45 553.39
00007327 00000070 908.08 163.39 363.85 521.72 983.20 368.25 1143.01 368.70 1049.79 456.78 1000.66 553.21 1127.73 554.43
00007328 00000071 913.26 166.82 363.60 521.56 994.34 376.03 1150.40 376.94 1062.27 460.82 1011.31 554.94 1141.30 556.26
00007329 00000072 913.78 169.96 366.42 531.65 1005.35 380.71 1156.34 389.78 1077.71 459.96 1024.82 553.57 1145.64 562.62
00007330 DELETE   922.10 172.07 367.39 537.65 1019.65 382.57 1173.41 392.71 1094.86 469.67 1036.92 560.42 1163.71 570.09
00007331 00000074 932.07 172.69 363.45 548.10 1028.66 387.63 1183.76 392.45 1107.05 473.16 1046.84 573.86 1176.81 579.65
00007332 00000075 936.14 167.73 364.65 566.34 1034.84 387.10 1192.11 389.80 1115.95 473.31 1053.44 578.93 1187.70 582.22
00007333 00000076 940.06 168.57 363.07 557.82 1041.21 386.54 1195.75 391.52 1120.86 472.52 1059.10 572.74 1187.83 578.03
00007334 00000077 945.04 168.54 360.38 544.81 1043.37 384.05 1196.49 387.67 1121.97 470.32 1064.85 566.49 1186.25 570.14
00007335 00000078 948.05 168.26 356.96 535.84 1045.39 381.20 1195.71 385.75 1122.26 467.52 1066.12 561.70 1182.35 566.36
00007336 00000079 947.82 169.43 357.01 527.72 1044.48 380.43 1195.90 384.08 1122.22 466.71 1066.23 560.34 1180.54 564.30
00007337 00000080 951.91 167.46 353.86 519.67 1043.68 381.85 1193.33 384.09 1120.30 466.22 1069.38 559.44 1181.62 562.54
00007338 00000081 948.48 167.63 356.56 516.43 1041.81 378.60 1192.43 382.03 1118.75 461.18 1064.72 553.81 1177.84 558.28
00007339 00000082 946.56 164.58 355.79 517.83 1039.68 373.27 1189.80 375.76 1116.60 455.11 1060.82 549.83 1171.99 553.67
00007340 00000083 940.12 154.44 353.93 523.81 1035.60 371.91 1183.73 378.68 1105.45 450.30 1051.68 543.22 1167.78 550.69
00007341 00000084 935.39 148.96 356.43 524.29 1027.90 368.47 1176.58 374.44 1096.03 443.37 1043.87 537.90 1160.93 544.59
00007342 00000085 926.82 149.14 361.60 522.97 1021.42 369.95 1168.76 375.60 1089.87 446.18 1040.72 539.68 1155.51 545.69
00007343 00000086 923.93 158.81 359.56 515.78 1015.66 382.43 1158.88 376.51 1080.42 448.86 1037.68 547.13 1150.49 542.62
00007344 00000087 912.37 163.70 360.22 516.38 996.26 384.15 1150.56 376.03 1060.36 458.09 1021.56 554.56 1139.51 548.95
00007345 00000088 912.23 168.38 358.60 508.34 985.72 381.96 1141.46 378.87 1053.20 461.27 1005.42 554.99 1132.70 553.73
00007346 00000089 905.63 168.42 358.67 512.89 978.21 385.83 1129.51 384.50 1042.61 467.01 998.60 557.49 1123.38 557.85
00007347 00000090 902.74 169.01 360.63 515.35 973.88 390.17 1123.28 386.58 1037.36 470.98 996.62 560.95 1120.68 559.23
00007348 00000091 898.77 170.29 364.52 522.43 970.05 395.00 1120.35 387.88 1033.62 475.79 995.67 567.59 1121.76 562.81
00007349 00000092 896.00 171.61 365.96 528.17 966.35 392.25 1115.10 381.24 1028.71 475.42 994.22 570.62 1117.94 562.76
00007350 00000093 894.54 163.54 366.47 539.44 960.82 384.67 1110.43 370.68 1021.71 466.76 989.12 569.30 1112.47 559.17
00007351 00000094 896.00 158.36 366.29 546.99 960.16 375.61 1113.97 358.75 1020.81 456.10 988.18 565.61 1115.80 553.16
00007352 00000095 895.72 160.17 364.54 535.06 960.63 373.28 1114.70 359.28 1019.39 449.90 983.40 557.49 1112.21 547.72
00007353 00000096 895.44 161.50 360.65 520.26 957.17 377.27 1108.94 364.89 1015.41 455.55 979.55 553.78 1107.78 545.63
00007354 00000097 894.73 161.81 356.63 514.62 954.58 377.32 1104.53 367.43 1011.82 457.88 975.57 548.25 1105.33 542.22
00007355 00000098 893.12 160.76 356.24 512.80 953.46 376.01 1103.06 366.66 1010.09 455.52 973.35 543.93 1104.02 538.35
00007356 00000099 892.92 160.68 357.31 514.88 953.14 375.97 1103.15 366.73 1009.20 455.20 972.74 545.73 1102.92 540.30
00007357 00000100 894.50 159.79 357.14 521.00 954.58 376.26 1104.09 366.59 1010.88 456.45 975.44 550.91 1102.88 545.30
00007358 00000101 894.69 160.97 358.32 519.76 956.09 377.45 1106.22 367.97 1013.12 457.86 977.52 553.99 1103.85 548.30
00007359 00000102 895.10 160.81 360.66 520.27 957.48 377.60 1108.98 368.02 1015.87 459.66 979.19 555.68 1105.88 549.73
00007360 00000103 895.87 160.95 361.75 520.66 959.95 379.23 1113.44 369.85 1020.63 462.08 982.13 558.16 1109.25 552.24
00007361 00000104 900.78 161.34 362.04 523.95 968.46 378.60 1123.63 371.76 1032.20 463.88 990.86 560.57 1116.38 556.44
00007362 00000105 902.42 160.47 367.36 534.74 977.62 378.26 1135.72 372.06 1047.46 460.99 1001.22 563.09 1127.73 558.81
00007363 00000106 904.82 166.34 370.72 539.53 989.58 378.93 1145.23 370.92 1063.97 461.57 1017.53 568.29 1143.72 561.84
00007364 00000107 910.58 168.54 365.86 528.54 995.97 385.56 1151.42 376.01 1072.99 460.10 1024.76 565.08 1153.41 557.93
00007365 00000108 910.78 170.22 366.63 528.21 1005.81 387.68 1156.18 387.21 1083.13 456.49 1032.68 555.63 1151.53 557.02
00007366 00000109 913.83 171.28 365.72 527.63 1010.47 387.09 1162.10 388.39 1089.60 457.45 1038.43 556.09 1158.15 558.51
00007367 00000110 914.56 169.26 364.52 538.32 1012.23 386.21 1163.77 390.49 1091.99 460.69 1041.75 562.89 1157.60 567.54
00007368 00000111 914.04 169.78 364.39 543.71 1010.97 387.01 1163.21 391.81 1090.94 464.32 1040.29 569.55 1155.57 574.83
00007369 00000112 913.07 169.31 365.18 545.04 1009.02 387.41 1161.03 392.97 1087.54 465.90 1037.00 570.87 1150.86 576.90
00007370 00000113 912.07 168.86 364.79 546.11 1005.89 386.92 1157.37 392.42 1082.97 464.67 1032.62 571.29 1145.58 577.36
00007371 00000114 912.36 168.43 364.37 547.23 1005.87 386.31 1157.68 392.35 1082.65 465.38 1031.95 572.68 1144.31 579.26
00007372 00000115 915.28 168.44 363.55 546.79 1007.75 386.00 1159.45 392.55 1083.19 467.13 1032.94 573.34 1144.17 580.44
00007373 00000116 917.02 168.68 363.75 544.75 1010.00 385.93 1162.26 394.00 1086.03 469.68 1034.95 573.57 1145.61 581.81
00007374 00000117 917.92 169.63 365.46 542.50 1012.27 386.39 1164.96 395.34 1088.62 473.19 1036.18 573.10 1148.12 582.03
00007375 00000118 917.50 171.31 367.53 539.60 1012.12 386.78 1164.95 395.86 1088.90 473.49 1036.74 572.52 1149.65 581.40
00007376 00000119 917.48 170.00 367.78 539.58 1012.01 386.63 1164.17 396.64 1088.34 472.30 1035.95 570.34 1149.27 579.96
00007377 00000120 916.82 169.83 367.23 538.57 1010.75 386.20 1162.95 395.83 1086.59 468.19 1033.53 567.44 1148.34 576.82
00007378 00000121 915.70 168.30 364.37 533.02 1008.77 388.35 1157.83 398.48 1082.23 467.02 1029.61 564.96 1143.45 574.55
00007379 00000122 913.53 171.22 362.83 525.63 1005.81 390.21 1152.97 397.61 1079.02 467.60 1026.44 564.79 1138.42 572.11
00007380 00000123 915.07 166.72 362.59 523.82 1005.57 395.53 1154.20 394.55 1071.57 466.88 1024.29 564.70 1139.77 565.69
00007381 00000124 907.98 165.82 366.87 529.01 997.85 396.21 1147.36 391.13 1058.79 468.33 1025.82 570.84 1133.71 567.04
00007382 00000125 909.12 166.30 366.27 527.73 991.26 389.77 1149.83 390.67 1065.03 473.92 1014.91 570.29 1141.77 571.21
00007383 00000126 904.92 166.99 368.36 532.88 989.06 392.47 1143.36 392.69 1061.21 479.48 1012.37 572.13 1136.66 572.47
00007384 00000127 901.85 170.89 369.73 531.88 984.70 395.39 1139.03 394.10 1055.43 480.33 1008.04 573.98 1134.11 573.49
00007385 00000128 900.62 172.26 369.67 533.89 983.69 396.26 1136.94 395.04 1053.88 481.78 1005.37 573.62 1133.62 573.45
00007386 00000129 899.94 171.43 369.43 536.55 983.28 396.68 1135.53 394.62 1053.62 482.56 1004.95 573.35 1133.60 572.49
00007387 00000130 898.79 170.98 368.98 535.45 981.29 397.96 1133.33 394.64 1051.30 482.09 1004.30 574.16 1131.89 572.24
00007388 00000131 898.26 171.07 368.64 533.11 979.72 398.77 1131.51 394.67 1049.51 482.84 1003.88 573.68 1131.38 571.12
00007389 00000132 897.55 172.53 369.15 531.03 978.64 399.80 1130.55 395.92 1047.90 484.06 1002.76 573.97 1130.91 571.62
00007390 00000133 896.20 175.11 371.17 532.10 978.57 402.36 1131.08 398.25 1047.77 487.50 1002.91 577.49 1131.69 575.10
00007391 00000134 896.31 177.80 370.23 532.29 979.66 405.42 1132.00 400.53 1049.26 491.93 1003.72 579.81 1133.55 576.97
00007392 00000135 895.00 180.46 371.05 531.16 979.95 409.04 1131.60 402.91 1050.48 496.44 1005.13 583.10 1133.11 579.47
00007393 00000136 895.48 181.89 370.10 529.30 979.36 412.50 1130.02 406.14 1049.21 500.74 1006.37 586.24 1131.80 582.25
00007394 00000137 894.01 184.49 370.20 527.60 979.05 415.13 1129.41 409.49 1048.63 504.12 1005.49 588.37 1129.92 584.98
00007395 00000138 893.82 185.26 370.06 526.89 978.49 416.45 1128.31 411.74 1046.70 506.21 1005.00 589.57 1128.01 586.80
00007396 00000139 892.66 184.68 371.08 528.16 977.68 417.54 1127.49 413.52 1045.51 508.86 1004.86 591.06 1127.22 588.76
00007397 00000140 893.44 184.51 369.39 526.88 977.42 417.67 1127.66 414.36 1044.97 510.16 1004.83 591.85 1126.46 590.13
00007398 00000141 893.73 186.07 369.83 524.77 977.37 418.06 1127.61 414.63 1045.17 511.34 1005.30 592.28 1126.50 590.54
00007399 00000142 893.94 185.99 370.54 524.10 978.08 418.73 1128.24 415.66 1045.73 511.94 1005.93 592.10 1127.07 590.63
00007400 00000143 894.70 186.14 370.57 523.88 978.67 419.13 1128.46 415.58 1046.89 512.55 1007.10 592.33 1127.70 590.48
00007401 00000144 894.44 186.27 371.08 522.84 979.74 418.24 1129.46 415.44 1048.66 513.38 1007.18 591.67 1127.21 590.52
00007402 00000145 895.76 187.65 370.55 522.30 981.11 418.64 1130.26 415.96 1050.01 514.77 1007.36 592.50 1126.49 591.61
00007403 00000146 896.71 186.99 369.01 523.78 981.72 418.47 1130.17 416.50 1049.96 515.53 1007.19 593.17 1125.00 592.89
00007404 00000147 896.80 186.60 370.03 523.84 981.74 419.17 1130.02 417.25 1049.77 515.76 1007.23 593.00 1125.71 592.66
00007405 00000148 896.45 187.03 369.49 524.30 981.57 419.00 1129.58 416.22 1049.44 515.59 1006.90 592.50 1126.39 591.43
00007406 00000149 896.64 186.04 369.55 529.38 982.52 418.04 1131.09 414.84 1051.19 512.30 1008.04 593.12 1128.64 591.81
00007407 DELETE   895.74 183.58 369.84 545.66 984.65 410.89 1134.74 406.40 1053.64 501.47 1008.70 593.13 1134.64 590.83
00007408 00000151 898.58 175.98 371.04 556.22 985.51 397.82 1137.45 395.62 1052.94 485.10 1003.92 581.31 1139.66 580.60
00007409 00000152 899.54 167.66 368.49 544.03 981.56 391.09 1132.60 385.40 1052.33 470.21 1003.19 566.61 1138.33 562.72
00007410 00000153 900.90 164.53 365.45 525.96 977.54 386.86 1132.06 382.39 1046.80 459.67 997.88 556.36 1131.94 553.66
00007411 00000154 900.25 163.38 362.34 516.51 974.31 383.69 1126.64 381.19 1040.15 459.26 993.05 550.96 1123.40 550.12
00007412 00000155 896.93 164.21 363.12 514.62 970.17 383.70 1120.92 380.81 1034.55 462.62 989.97 551.75 1116.72 550.63
00007413 00000156 895.33 168.00 363.86 516.22 966.06 389.10 1116.10 384.47 1027.21 466.60 984.87 557.29 1111.53 554.95
00007414 00000157 893.95 170.82 364.51 516.94 964.35 391.92 1113.62 388.63 1023.13 472.36 982.75 560.96 1108.95 559.78
00007415 00000158 894.30 170.31 363.12 522.86 965.00 395.65 1112.85 394.79 1021.75 478.90 983.45 565.01 1109.31 565.42
00007416 00000159 892.30 175.22 364.69 521.86 965.39 399.32 1113.00 398.94 1022.26 482.95 983.19 567.69 1108.35 568.62
00007417 00000160 891.79 178.90 365.07 521.62 964.45 402.74 1112.73 400.99 1021.58 487.14 983.25 571.72 1109.15 571.63
00007418 00000161 890.13 179.12 364.82 523.53 962.65 405.22 1112.07 403.58 1020.85 491.02 982.85 575.56 1108.88 575.40
00007419 00000162 888.55 180.57 363.56 523.97 961.76 407.17 1110.30 407.32 1019.65 494.84 982.06 578.08 1106.44 579.38
00007420 00000163 886.22 182.85 363.71 524.99 961.02 410.79 1109.36 411.34 1020.80 499.38 983.46 583.37 1104.92 584.99
00007421 00000164 884.69 183.39 363.52 524.24 960.68 411.16 1109.56 411.27 1022.31 499.07 984.43 584.32 1105.52 585.63
