Video ID: 	VyblsYOQRv0
H: 	1080
W: 	1920
FPS: 	23.976078254886875

FRAME INDEX X0 Y0 W H [Landmarks (5 Points)]

00000720 00000000 902.30 113.41 412.95 602.74 1015.62 386.40 1201.47 402.20 1104.63 494.76 1018.14 576.09 1167.38 590.30
00000721 00000001 901.65 111.89 412.19 602.21 1013.46 384.90 1200.58 399.38 1103.68 491.29 1017.91 572.76 1170.44 585.64
00000722 00000002 901.69 109.90 412.49 603.59 1012.64 384.81 1199.88 398.88 1102.93 489.90 1017.13 570.21 1172.58 582.45
00000723 00000003 901.94 109.84 410.81 599.17 1011.90 384.17 1199.27 398.85 1101.73 488.05 1016.41 567.99 1171.56 580.66
00000724 00000004 901.99 108.50 407.66 590.08 1013.13 380.47 1200.23 394.78 1104.01 482.63 1020.19 564.03 1172.23 576.18
00000725 00000005 900.38 104.02 406.98 590.02 1011.74 374.03 1199.46 387.42 1104.82 477.07 1020.32 560.05 1172.40 571.18
00000726 DELETE   897.95 95.07 406.86 591.23 1010.92 361.10 1196.44 376.34 1100.90 461.36 1020.26 550.07 1168.38 562.33
00000727 DELETE   890.55 90.97 409.22 580.83 1003.39 354.18 1188.51 361.31 1091.59 458.73 1017.78 544.28 1169.24 550.27
00000728 DELETE   886.83 81.78 411.57 578.56 1003.30 332.32 1189.15 343.14 1097.03 443.36 1017.99 531.14 1167.00 539.56
00000729 00000009 886.56 78.45 413.24 573.97 1003.49 318.22 1189.84 333.21 1097.37 428.23 1014.74 520.38 1164.03 532.10
00000730 00000010 887.50 75.20 410.92 575.14 1003.51 308.20 1189.71 327.83 1093.59 421.65 1007.77 514.91 1157.20 530.96
00000731 00000011 887.56 74.29 407.49 579.98 1007.47 306.61 1184.34 326.16 1095.72 415.22 996.63 513.70 1140.87 529.90
00000732 00000012 886.51 74.21 410.85 575.81 1007.41 308.66 1181.83 329.81 1092.96 416.78 995.40 516.58 1130.64 534.04
00000733 00000013 887.20 71.61 414.73 576.24 1006.26 305.47 1186.73 338.46 1082.69 420.42 993.78 508.12 1124.73 537.16
00000734 00000014 887.49 75.03 414.14 576.47 1004.48 308.90 1185.48 342.47 1080.53 424.68 990.69 510.87 1123.50 540.32
00000735 00000015 889.01 80.04 415.85 578.65 1005.50 314.14 1185.40 347.88 1080.12 432.05 990.90 516.52 1123.61 546.26
00000736 00000016 888.17 86.00 415.54 578.72 1011.15 319.88 1188.33 348.52 1092.39 439.25 991.94 530.71 1132.02 554.48
00000737 00000017 891.39 89.61 415.41 588.54 1015.55 329.22 1195.16 362.57 1095.85 448.07 999.89 538.10 1134.63 566.15
00000738 00000018 892.95 99.37 418.84 586.56 1019.13 342.18 1200.35 377.11 1099.71 465.13 1006.77 548.46 1143.76 578.25
00000739 00000019 897.05 108.66 420.02 585.97 1022.99 353.72 1205.06 388.45 1103.82 481.47 1009.48 555.65 1148.29 585.81
00000740 00000020 899.60 113.46 419.75 584.78 1026.73 360.75 1209.85 395.66 1109.69 491.85 1014.96 563.51 1154.17 593.82
00000741 00000021 900.87 113.82 420.50 586.23 1031.86 364.78 1214.80 399.65 1116.09 495.08 1019.26 564.86 1160.11 594.97
00000742 00000022 900.65 115.14 420.48 585.05 1034.64 366.64 1217.60 400.89 1119.78 495.38 1021.54 564.41 1164.16 593.87
00000743 00000023 901.62 113.67 419.96 588.61 1036.65 366.08 1219.29 400.95 1122.63 494.91 1023.01 562.33 1167.97 592.17
00000744 00000024 901.64 111.49 420.48 592.77 1037.08 364.08 1219.55 399.56 1123.61 493.17 1022.37 559.78 1168.88 590.07
00000745 00000025 900.82 110.08 421.52 594.72 1035.85 363.04 1218.26 397.94 1122.23 491.01 1020.66 557.49 1169.18 587.18
00000746 00000026 900.49 108.99 422.12 597.09 1035.49 360.47 1217.83 395.33 1122.69 488.00 1020.56 555.24 1171.11 584.73
00000747 00000027 899.96 107.76 422.37 602.48 1035.41 357.35 1217.42 393.20 1123.39 486.39 1019.02 552.75 1171.98 583.06
00000748 00000028 900.98 105.58 420.17 609.61 1034.02 354.95 1215.93 390.91 1122.30 484.27 1016.62 550.63 1174.47 580.88
00000749 00000029 902.53 102.06 415.42 613.80 1032.56 354.09 1213.83 388.19 1118.97 474.61 1015.88 547.44 1175.11 575.75
00000750 00000030 900.63 97.20 416.60 615.66 1030.10 344.99 1207.34 376.99 1116.39 464.26 1014.95 540.28 1173.71 566.46
00000751 DELETE   898.21 91.38 417.14 615.41 1025.70 333.26 1200.25 360.97 1110.36 452.63 1011.99 531.30 1171.26 553.64
00000752 00000032 895.71 92.15 413.20 609.86 1014.76 322.90 1191.72 344.32 1100.27 441.97 1005.94 525.26 1165.39 543.10
00000753 00000033 892.11 87.26 413.14 613.60 1006.80 312.74 1186.11 329.31 1094.56 430.85 1001.06 522.06 1162.53 536.12
00000754 00000034 887.14 74.22 414.59 623.27 1005.09 307.84 1183.65 324.11 1095.45 419.51 999.58 522.40 1160.94 535.52
00000755 00000035 885.68 74.62 420.19 619.13 994.81 304.73 1178.38 313.85 1081.45 418.55 995.34 516.64 1154.88 524.52
00000756 00000036 883.18 70.69 424.21 621.62 990.69 303.28 1176.20 313.94 1075.25 419.06 991.69 514.27 1153.22 523.21
00000757 00000037 884.71 71.83 422.50 620.37 989.26 302.97 1173.52 311.78 1071.49 416.91 991.89 515.46 1150.20 522.98
00000758 00000038 884.74 73.67 416.63 607.23 993.58 305.15 1171.71 317.90 1075.53 413.31 994.63 516.15 1145.52 527.17
00000759 00000039 886.03 75.74 418.23 588.68 994.43 307.46 1172.61 320.10 1075.97 414.88 998.80 510.85 1142.30 522.13
00000760 00000040 888.09 74.47 415.75 585.98 993.64 308.21 1174.62 322.10 1075.76 417.87 997.67 508.85 1147.78 521.07
00000761 00000041 888.15 73.70 417.79 596.63 994.58 308.31 1176.19 323.39 1076.41 420.34 1000.07 513.70 1149.13 526.66
00000762 00000042 890.20 72.05 419.04 609.58 995.30 311.10 1178.90 324.95 1074.67 424.53 998.25 520.28 1155.28 531.34
00000763 00000043 892.48 70.75 419.73 621.39 994.75 314.62 1180.52 325.38 1074.39 432.01 1000.27 528.51 1161.47 536.51
00000764 00000044 894.95 75.78 418.47 618.62 996.77 318.98 1181.46 331.43 1074.68 438.95 1002.78 532.34 1164.33 541.50
00000765 00000045 896.00 80.32 419.47 612.32 997.74 324.22 1182.42 336.98 1076.15 443.42 1004.88 533.68 1165.58 543.11
00000766 00000046 894.99 81.86 421.10 604.44 996.65 326.74 1184.87 339.53 1077.49 445.72 1002.35 534.46 1166.34 543.87
00000767 00000047 895.29 82.66 421.76 602.32 996.64 326.91 1185.46 340.29 1077.74 446.41 1001.92 534.57 1165.14 544.58
00000768 00000048 894.16 83.27 422.30 600.32 995.06 326.70 1184.97 339.24 1076.99 444.44 1001.56 535.12 1165.18 544.41
00000769 00000049 892.16 82.27 422.62 598.99 992.71 325.60 1183.87 336.90 1076.29 443.05 1000.88 535.07 1162.40 543.55
00000770 00000050 890.50 83.63 421.85 594.38 989.83 325.56 1180.95 335.37 1073.81 442.09 999.90 537.29 1156.60 544.79
00000771 00000051 888.62 83.04 421.45 592.00 988.17 327.25 1178.21 334.93 1073.39 442.53 1000.90 540.73 1153.04 546.68
00000772 00000052 887.46 83.19 420.95 590.92 986.56 328.74 1176.07 335.75 1072.72 444.98 1003.38 542.80 1149.07 548.68
00000773 00000053 886.86 82.68 421.71 591.74 986.06 329.82 1177.04 338.84 1072.86 450.52 1001.40 541.77 1146.70 549.61
00000774 00000054 887.17 82.05 421.29 594.66 987.77 331.81 1177.87 342.38 1074.63 454.47 1003.63 545.27 1146.14 554.43
00000775 00000055 888.63 84.59 421.29 597.75 989.16 334.56 1177.62 344.63 1075.39 459.64 1007.11 551.60 1146.47 560.52
00000776 00000056 890.70 86.01 420.73 605.57 990.69 337.56 1179.77 348.31 1076.55 462.21 1007.85 555.16 1152.69 564.50
00000777 00000057 893.26 87.55 417.94 618.64 992.92 337.42 1178.34 349.60 1073.27 460.05 1005.55 555.52 1154.47 566.18
00000778 00000058 894.27 87.50 416.25 625.23 994.49 336.54 1178.52 349.34 1073.10 459.94 1004.17 554.50 1157.53 565.56
00000779 00000059 893.13 86.30 417.22 624.72 995.68 337.15 1178.93 350.31 1076.08 458.85 1004.55 551.76 1158.15 562.88
00000780 00000060 892.18 88.24 417.60 619.28 993.18 340.58 1184.54 352.22 1077.92 456.45 1001.79 549.40 1162.25 558.70
00000781 DELETE   890.57 85.88 418.34 615.34 994.89 339.75 1186.33 351.68 1081.11 453.07 1002.02 543.87 1163.57 553.12
00000782 00000062 887.85 83.49 420.22 600.36 993.93 331.79 1185.87 343.41 1081.32 448.86 1002.73 537.18 1165.21 545.82
00000783 00000063 885.53 79.44 423.45 592.04 993.56 327.49 1178.82 344.16 1071.63 439.93 999.05 521.09 1150.03 535.84
00000784 00000064 883.26 75.86 420.90 588.36 989.48 320.82 1175.88 339.04 1066.02 430.77 991.26 513.75 1144.72 530.05
00000785 00000065 880.04 70.30 418.67 587.09 982.04 313.75 1169.95 332.29 1060.21 426.49 985.01 511.92 1148.27 526.14
00000786 00000066 877.36 69.95 415.80 583.76 977.09 309.86 1163.78 328.29 1052.21 419.66 978.33 508.88 1140.96 522.61
00000787 00000067 875.63 70.43 414.62 585.09 972.92 308.33 1157.43 327.04 1044.32 420.15 973.98 510.65 1131.66 524.66
00000788 00000068 875.13 71.49 415.09 590.56 972.01 309.65 1155.59 326.56 1042.76 423.07 973.84 515.10 1127.36 527.87
00000789 00000069 874.50 72.43 416.78 595.00 973.57 312.07 1154.98 327.14 1045.15 426.25 978.36 518.98 1126.33 530.30
00000790 00000070 874.60 74.14 419.06 594.12 977.04 314.63 1156.97 329.41 1050.16 428.52 983.92 521.56 1127.70 532.59
00000791 00000071 875.87 73.76 415.85 587.46 978.93 318.46 1158.43 332.62 1056.62 431.12 988.61 522.42 1133.80 532.83
00000792 00000072 876.52 73.83 415.77 582.77 980.27 319.27 1161.05 333.88 1059.44 431.92 990.28 521.08 1136.07 531.81
00000793 00000073 877.68 74.16 418.39 585.52 980.51 321.44 1162.79 332.74 1060.08 431.87 993.81 523.72 1140.82 532.00
00000794 00000074 878.06 76.09 417.35 585.99 978.19 323.91 1163.18 331.88 1059.43 431.83 993.95 525.39 1146.30 531.39
00000795 00000075 877.97 77.28 418.51 592.99 979.77 324.57 1163.70 332.39 1060.66 434.39 994.45 526.52 1148.65 532.50
00000796 00000076 879.59 72.70 419.66 619.17 981.76 322.79 1165.84 329.40 1067.90 439.26 994.14 536.89 1148.33 541.89
00000797 00000077 882.74 76.20 418.54 624.42 984.67 325.24 1166.64 334.05 1067.65 443.95 995.38 540.03 1149.06 546.90
00000798 00000078 883.78 83.14 417.91 622.40 984.39 328.39 1168.31 340.92 1064.77 450.51 992.53 544.81 1146.49 555.25
00000799 00000079 883.46 85.59 418.73 613.70 983.17 332.37 1170.31 346.94 1064.40 455.37 990.99 544.01 1143.41 556.36
00000800 00000080 882.83 86.76 419.92 599.34 981.05 333.32 1173.58 348.21 1064.28 456.36 989.75 542.17 1143.09 554.54
00000801 00000081 882.74 86.27 420.06 592.74 982.16 331.23 1173.07 346.72 1064.13 452.75 990.09 538.02 1139.19 550.93
00000802 00000082 880.33 82.76 422.64 584.87 981.78 333.19 1168.87 347.13 1058.65 451.52 993.58 532.84 1144.72 543.41
00000803 DELETE   881.75 81.25 419.88 585.24 982.18 332.97 1170.54 345.75 1059.41 446.26 990.75 528.41 1148.36 538.78
00000804 00000084 882.22 81.52 419.30 583.80 984.43 328.85 1168.98 343.45 1055.98 432.72 989.66 522.93 1142.67 534.83
00000805 DELETE   884.57 74.20 418.56 586.29 985.11 310.16 1174.88 329.74 1055.63 420.74 982.54 511.45 1143.40 527.34
00000806 00000086 886.48 66.77 421.80 583.45 990.09 299.64 1174.96 325.63 1056.10 409.10 978.09 494.94 1129.78 517.69
00000807 00000087 887.38 65.53 422.55 574.00 988.97 288.03 1174.79 314.69 1052.97 398.47 975.27 484.79 1130.66 507.69
00000808 00000088 887.44 67.19 424.19 564.63 987.53 282.61 1175.43 309.82 1049.55 390.90 973.55 479.89 1131.11 502.93
00000809 00000089 889.76 67.35 424.21 567.46 990.10 284.04 1176.36 313.17 1048.64 392.70 973.36 481.01 1128.45 505.77
00000810 00000090 898.87 71.74 416.73 586.33 996.79 292.00 1175.91 318.99 1058.81 403.88 979.66 493.92 1126.58 517.41
00000811 00000091 904.94 75.56 416.56 599.37 1004.48 296.32 1185.58 324.68 1067.06 410.05 987.57 504.73 1142.08 528.55
00000812 00000092 909.00 78.67 420.87 604.09 1011.41 302.69 1193.35 331.52 1073.23 416.84 995.71 512.52 1153.66 535.94
00000813 00000093 910.38 82.10 424.74 596.74 1018.25 305.93 1198.52 335.65 1083.88 419.93 1003.33 514.46 1159.23 538.36
00000814 00000094 913.63 82.86 422.90 592.48 1022.20 308.48 1200.27 338.32 1088.75 420.14 1008.84 513.86 1162.81 537.67
00000815 00000095 914.90 83.49 423.41 590.29 1023.88 309.76 1201.66 339.21 1092.44 421.43 1012.27 514.65 1163.89 538.19
00000816 00000096 915.67 84.05 423.28 594.23 1026.50 311.36 1203.23 339.30 1096.32 423.02 1016.56 516.68 1166.67 538.86
00000817 00000097 916.30 83.96 423.63 601.35 1027.76 313.00 1206.30 338.08 1099.89 424.54 1019.02 521.30 1173.41 540.73
00000818 00000098 917.59 81.59 424.58 611.66 1029.51 312.34 1210.15 337.91 1102.22 427.07 1017.76 522.31 1179.47 541.81
00000819 00000099 918.96 80.09 426.07 615.65 1032.79 311.64 1212.88 337.63 1105.82 426.61 1020.57 522.01 1183.03 541.84
00000820 00000100 921.47 80.64 424.21 614.25 1034.19 310.67 1215.55 335.25 1107.67 424.76 1023.13 522.23 1186.00 541.08
00000821 00000101 922.22 80.93 422.93 611.38 1036.04 310.06 1216.14 334.71 1109.08 422.92 1025.27 522.31 1183.31 541.51
00000822 00000102 922.73 78.94 422.24 611.28 1037.30 308.84 1215.02 333.49 1109.88 421.89 1027.20 522.28 1177.16 541.81
00000823 00000103 921.23 78.80 422.58 600.26 1034.45 309.20 1213.42 332.27 1110.22 419.22 1030.13 520.93 1175.65 538.93
00000824 00000104 921.96 77.21 420.89 585.11 1033.81 308.96 1215.17 333.77 1111.17 421.08 1031.38 518.09 1177.96 537.31
00000825 00000105 920.85 79.47 419.82 580.71 1032.92 313.11 1213.86 336.40 1110.92 423.60 1030.83 517.50 1177.61 535.49
00000826 00000106 917.77 80.27 419.20 594.06 1033.76 323.37 1212.90 348.51 1110.62 427.36 1028.54 523.12 1177.07 542.60
00000827 DELETE   918.99 85.84 419.49 600.86 1034.03 333.31 1216.35 357.70 1110.28 444.54 1028.04 537.62 1178.05 556.66
00000828 DELETE   920.88 92.14 418.92 603.12 1035.31 343.99 1218.12 371.62 1110.21 458.18 1033.97 546.18 1179.43 568.41
00000829 00000109 921.52 97.12 418.79 599.23 1037.82 353.79 1219.98 380.64 1112.90 469.06 1036.07 551.24 1181.72 573.13
00000830 DELETE   922.96 99.75 415.48 595.94 1038.64 356.52 1219.77 382.03 1113.72 470.11 1037.48 552.48 1183.33 573.30
00000831 00000111 922.23 100.21 416.06 593.56 1038.51 357.05 1218.96 381.16 1114.81 469.36 1039.44 552.76 1183.77 572.40
00000832 DELETE   921.75 100.81 415.76 589.43 1038.58 357.47 1220.48 380.77 1117.52 469.83 1040.71 552.85 1185.83 571.77
00000833 00000113 921.11 101.49 414.96 589.52 1038.11 360.29 1221.36 383.23 1118.34 473.42 1039.89 554.16 1187.25 572.66
00000834 00000114 919.29 102.74 415.04 591.93 1037.87 364.10 1222.55 386.10 1119.62 478.03 1039.06 557.39 1189.02 575.07
00000835 00000115 918.21 105.36 415.14 593.15 1038.23 366.92 1222.84 389.06 1119.96 481.43 1038.40 559.69 1189.73 577.62
00000836 DELETE   916.68 106.83 416.19 593.18 1037.59 369.25 1222.68 392.27 1119.68 484.95 1035.92 560.93 1188.24 579.75
00000837 DELETE   915.56 106.63 417.16 592.83 1036.12 366.85 1221.60 390.73 1117.96 482.81 1034.18 558.58 1187.09 578.11
00000838 00000118 916.79 104.49 414.87 594.05 1030.28 364.70 1217.63 385.61 1111.99 475.14 1030.85 553.90 1187.70 570.60
00000839 00000119 917.77 99.01 411.66 604.90 1029.90 354.07 1214.78 376.74 1110.63 465.97 1029.84 549.87 1185.41 568.10
00000840 DELETE   914.24 92.13 417.37 610.33 1025.65 338.76 1210.57 365.64 1103.00 458.93 1020.37 543.26 1174.23 564.77
00000841 00000121 910.90 87.96 416.74 600.49 1023.33 331.06 1203.80 359.67 1099.40 450.25 1014.86 537.96 1159.80 561.09
00000842 00000122 910.59 85.55 416.47 594.31 1023.41 323.99 1201.84 356.34 1095.54 445.48 1011.51 530.47 1152.23 556.85
00000843 00000123 912.83 83.98 419.77 594.74 1026.99 322.94 1203.08 354.33 1097.91 445.41 1016.87 530.20 1151.67 555.84
00000844 00000124 916.25 84.99 420.59 595.55 1033.07 325.16 1207.83 352.42 1106.54 447.65 1025.09 536.57 1156.56 558.85
00000845 00000125 919.67 85.53 418.89 598.80 1039.29 325.62 1210.30 353.91 1111.90 447.65 1029.20 536.32 1160.40 559.47
00000846 00000126 919.46 85.81 419.43 602.72 1040.75 325.41 1212.71 353.69 1114.30 447.49 1030.52 534.90 1164.52 557.94
00000847 00000127 920.43 84.82 419.54 605.73 1042.48 324.52 1214.69 353.10 1116.46 447.71 1030.60 534.07 1167.95 557.17
00000848 00000128 921.70 86.45 417.80 600.67 1042.48 325.75 1216.16 353.52 1117.22 447.13 1030.72 533.31 1173.78 555.63
00000849 00000129 920.91 88.92 417.34 590.05 1041.53 327.13 1215.96 353.38 1118.00 446.57 1031.28 532.73 1177.72 553.68
00000850 00000130 919.90 88.92 417.86 587.27 1040.30 327.35 1216.87 352.45 1118.15 446.25 1030.09 531.89 1181.08 551.67
00000851 00000131 918.97 89.83 418.03 584.43 1038.88 328.03 1217.30 352.48 1118.34 447.79 1029.55 531.83 1183.63 551.00
00000852 00000132 918.49 89.08 418.35 585.47 1037.97 329.10 1217.01 353.61 1118.04 449.01 1029.27 532.63 1183.69 551.72
00000853 00000133 917.81 88.93 418.05 586.62 1037.04 329.78 1215.46 354.15 1117.10 449.40 1029.51 534.43 1181.53 553.42
00000854 00000134 916.63 87.38 418.92 591.01 1034.75 331.00 1213.13 354.71 1116.15 449.63 1031.62 537.65 1177.09 556.22
00000855 00000135 915.42 86.99 418.35 589.90 1033.05 331.83 1211.04 356.04 1114.88 452.50 1033.13 539.07 1172.42 558.38
00000856 00000136 915.02 88.08 416.91 586.36 1033.28 332.74 1209.16 355.16 1115.83 451.75 1036.44 539.77 1171.70 557.72
00000857 00000137 914.28 88.41 418.11 586.61 1031.55 332.36 1210.29 353.35 1115.74 450.73 1032.54 540.09 1176.16 556.48
00000858 00000138 913.30 88.84 418.46 587.20 1030.10 331.65 1210.18 352.79 1114.51 449.18 1030.23 537.53 1178.66 553.75
00000859 00000139 912.99 88.82 417.53 587.47 1029.01 330.60 1209.55 351.87 1113.46 448.71 1027.51 534.21 1180.49 550.42
00000860 00000140 912.51 90.42 418.08 591.19 1028.94 328.86 1209.51 350.03 1113.47 447.27 1026.39 531.69 1181.53 547.93
00000861 00000141 911.87 87.72 418.61 596.50 1027.50 326.98 1207.96 348.00 1111.78 444.76 1023.43 529.12 1181.51 545.15
00000862 00000142 911.37 84.46 416.62 598.70 1024.45 322.61 1205.38 344.47 1107.95 439.97 1019.09 526.28 1178.84 543.07
00000863 00000143 907.46 84.72 417.63 592.35 1022.48 317.47 1201.89 340.68 1105.31 432.48 1016.26 519.06 1175.14 537.02
00000864 00000144 906.16 81.35 414.57 592.72 1021.21 311.92 1196.38 337.17 1101.43 424.37 1012.84 513.45 1168.09 533.52
00000865 00000145 904.86 78.11 410.69 591.48 1016.99 306.63 1193.48 331.39 1098.05 416.17 1006.84 506.91 1162.99 527.06
00000866 00000146 901.99 75.79 409.26 588.02 1015.24 302.20 1191.11 327.81 1097.61 409.01 1004.20 501.93 1160.63 523.19
00000867 00000147 901.40 72.91 408.54 583.23 1012.29 298.69 1189.27 326.66 1092.62 407.53 1000.34 497.50 1157.04 520.85
00000868 00000148 901.79 73.30 409.94 586.78 1013.46 297.38 1191.28 327.09 1092.42 407.30 999.66 497.47 1157.60 522.23
00000869 00000149 902.79 75.08 411.76 595.20 1015.67 299.89 1195.15 328.34 1095.74 410.87 1000.06 503.00 1163.24 526.27
00000870 00000150 904.50 75.16 414.70 609.79 1017.59 304.74 1197.13 332.90 1095.33 419.57 1002.10 512.74 1167.14 535.11
00000871 00000151 906.69 78.04 417.15 618.95 1021.12 309.85 1198.22 337.78 1094.69 428.21 1005.15 519.87 1168.54 541.75
00000872 00000152 908.91 80.92 419.98 623.71 1023.83 318.27 1199.17 346.83 1095.19 438.29 1007.83 525.30 1168.65 547.75
00000873 00000153 910.25 84.59 420.52 621.54 1025.13 324.15 1205.03 355.78 1096.11 449.88 1008.95 532.07 1169.54 557.22
00000874 00000154 911.32 90.92 421.97 610.76 1025.61 331.56 1206.96 364.22 1098.79 457.98 1012.56 539.31 1164.35 565.80
00000875 00000155 911.07 96.48 424.11 601.02 1025.54 337.75 1207.92 370.51 1098.96 463.02 1014.49 542.94 1162.75 569.50
00000876 00000156 911.32 97.39 426.29 599.07 1026.42 341.36 1211.30 374.25 1101.76 466.27 1017.31 545.25 1167.02 571.84
00000877 00000157 910.05 99.37 428.82 597.39 1026.43 343.95 1213.98 376.28 1103.97 468.42 1019.27 546.79 1172.39 572.80
00000878 00000158 909.46 99.98 427.80 600.12 1026.10 345.37 1215.08 376.84 1105.50 470.66 1020.15 549.44 1174.77 574.83
00000879 00000159 909.47 101.80 427.02 602.09 1026.85 347.30 1214.64 377.41 1106.11 473.58 1020.93 553.33 1172.70 577.93
00000880 00000160 909.04 103.14 425.27 603.90 1025.68 349.05 1213.84 377.97 1105.80 473.44 1019.36 553.02 1175.08 576.61
00000881 00000161 909.29 103.67 423.26 603.20 1024.62 349.11 1212.09 378.51 1104.13 471.94 1017.66 552.19 1173.42 576.19
00000882 00000162 908.91 102.62 420.80 604.34 1023.15 347.99 1209.89 376.79 1103.78 469.47 1016.59 550.94 1172.68 574.50
00000883 00000163 907.82 102.57 418.20 603.15 1022.13 345.79 1206.53 375.69 1101.09 467.58 1015.07 548.18 1169.17 572.71
00000884 00000164 907.67 97.95 416.14 607.13 1021.36 342.15 1203.29 372.80 1099.10 464.38 1013.03 545.18 1166.12 570.30
00000885 00000165 906.81 91.98 415.42 612.00 1021.20 334.14 1201.13 364.20 1096.36 456.83 1010.19 540.03 1162.09 564.62
