Video ID: 	gSCkfMR0GEk
H: 	1080
W: 	1920
FPS: 	23.976023976023978

FRAME INDEX X0 Y0 W H [Landmarks (5 Points)]

00001680 00000000 1036.83 91.16 459.41 614.40 1101.35 317.71 1270.32 343.10 1096.60 417.37 1063.25 545.66 1175.79 568.87
00001681 DELETE   1038.66 87.57 464.51 622.89 1108.43 312.51 1278.53 344.55 1098.02 413.49 1066.50 540.52 1185.34 568.92
00001682 00000002 1043.07 92.10 456.87 624.54 1116.44 310.88 1284.01 345.23 1104.36 411.27 1070.51 537.72 1193.80 567.86
00001683 00000003 1047.63 92.43 458.64 637.12 1127.71 306.16 1287.56 345.97 1107.76 408.71 1077.63 537.82 1196.57 572.71
00001684 00000004 1049.73 93.04 462.46 630.21 1132.67 304.07 1291.93 347.25 1110.60 409.01 1078.27 532.70 1197.84 569.63
00001685 00000005 1050.23 93.30 458.54 617.46 1134.48 303.58 1294.92 351.23 1115.69 408.38 1076.08 525.57 1196.83 565.55
00001686 00000006 1049.57 77.46 452.57 620.31 1130.12 297.48 1297.52 349.19 1123.67 400.73 1083.98 515.22 1201.34 560.05
00001687 00000007 1054.57 81.14 455.00 616.62 1134.25 293.68 1302.45 347.10 1123.87 394.02 1086.54 510.94 1205.68 556.93
00001688 00000008 1061.73 81.58 452.23 628.16 1139.18 294.54 1307.49 343.96 1125.21 390.02 1092.10 517.17 1212.68 559.80
00001689 00000009 1063.98 81.87 455.87 635.02 1139.78 295.56 1309.94 342.80 1124.60 390.47 1092.80 521.42 1217.47 562.08
00001690 00000010 1063.00 82.11 451.01 623.94 1137.90 297.36 1307.70 344.35 1127.35 390.37 1092.90 517.38 1213.73 558.09
00001691 00000011 1061.01 81.60 451.48 618.75 1135.03 297.58 1305.22 344.67 1126.22 389.56 1090.85 514.65 1212.69 555.45
00001692 00000012 1060.98 77.70 454.94 616.08 1133.82 296.70 1302.69 343.68 1125.93 387.68 1091.20 510.83 1212.14 551.43
00001693 00000013 1061.09 77.05 456.15 615.79 1134.21 295.51 1302.19 341.38 1125.48 386.60 1092.16 509.71 1212.43 549.40
00001694 00000014 1063.78 77.86 458.01 623.12 1136.23 293.95 1303.79 339.20 1123.48 385.67 1095.39 511.49 1219.09 550.31
00001695 00000015 1066.04 75.46 456.18 632.85 1137.59 291.98 1304.95 335.04 1122.44 385.42 1098.32 514.99 1222.95 551.88
00001696 00000016 1066.43 80.00 451.76 628.38 1136.87 292.45 1304.69 335.03 1121.52 385.35 1097.55 516.16 1223.33 552.40
00001697 00000017 1064.27 76.15 451.51 625.63 1133.94 294.25 1301.49 332.39 1121.71 381.39 1096.77 515.79 1219.40 548.74
00001698 00000018 1061.60 75.18 450.63 614.56 1131.06 294.32 1297.11 332.35 1122.28 377.72 1092.18 510.09 1206.98 543.28
00001699 00000019 1060.42 75.99 448.97 606.10 1132.20 293.46 1294.31 330.37 1121.89 373.03 1091.69 506.11 1200.75 538.60
00001700 00000020 1060.05 77.11 446.54 599.73 1132.89 290.90 1294.69 327.49 1123.36 370.38 1091.06 501.72 1200.99 534.12
00001701 00000021 1060.39 77.31 444.93 597.11 1134.16 287.26 1296.83 324.95 1126.60 367.50 1091.66 498.82 1203.00 532.15
00001702 00000022 1064.70 73.02 450.55 610.66 1136.23 282.23 1300.00 315.24 1121.36 364.88 1082.15 507.22 1199.64 536.97
00001703 00000023 1064.66 71.93 444.96 610.42 1139.24 282.53 1300.90 317.20 1131.34 359.86 1098.03 499.02 1207.87 530.18
00001704 00000024 1062.63 70.07 446.28 616.45 1142.49 279.56 1304.78 315.62 1134.28 357.05 1098.85 498.23 1208.67 530.88
00001705 00000025 1064.03 72.06 444.55 599.73 1142.37 281.76 1300.55 316.66 1134.71 356.12 1096.15 492.35 1199.24 523.74
00001706 00000026 1069.77 75.59 439.90 584.80 1147.81 275.40 1296.39 309.57 1122.08 354.38 1084.37 486.80 1186.96 516.36
00001707 00000027 1067.36 75.27 436.52 578.32 1146.44 276.26 1289.97 308.39 1121.20 348.68 1082.56 481.75 1180.50 509.66
00001708 00000028 1062.97 70.76 439.03 580.14 1141.46 275.03 1286.35 304.04 1118.51 344.46 1080.22 478.10 1180.00 503.23
00001709 00000029 1060.34 67.76 431.75 583.53 1139.50 272.32 1279.89 298.09 1116.08 338.47 1077.60 475.05 1178.29 497.54
00001710 00000030 1061.62 64.28 423.28 585.36 1133.23 271.78 1272.62 290.72 1114.14 333.50 1078.60 477.97 1175.69 494.25
00001711 00000031 1061.94 64.06 429.35 609.33 1139.83 270.47 1275.48 279.73 1118.28 325.80 1082.92 488.94 1173.79 497.86
00001712 00000032 1052.23 61.93 440.24 624.80 1141.35 262.27 1282.70 265.55 1112.88 310.32 1076.87 491.75 1184.59 497.19
00001713 00000033 1049.25 60.21 438.31 627.81 1134.98 262.76 1283.98 256.76 1109.11 300.08 1075.83 496.35 1192.53 493.97
00001714 00000034 1045.33 61.46 440.07 624.76 1135.54 255.72 1283.04 249.48 1105.46 284.91 1070.89 489.62 1191.98 485.75
00001715 00000035 1042.96 62.50 445.69 617.71 1136.59 247.49 1280.10 244.88 1102.15 277.52 1069.52 479.54 1190.26 477.84
00001716 00000036 1039.09 63.60 442.60 612.64 1138.23 244.09 1278.42 242.98 1100.70 275.32 1067.89 473.78 1192.86 473.22
00001717 00000037 1044.46 59.84 440.82 594.84 1138.72 248.54 1275.63 244.18 1097.66 282.70 1071.85 465.73 1187.31 461.78
00001718 00000038 1031.88 63.90 438.02 559.11 1111.85 262.71 1273.26 254.92 1097.62 298.15 1062.39 465.14 1188.10 459.22
00001719 00000039 1032.94 58.23 436.69 548.06 1109.05 260.26 1260.97 256.72 1091.47 300.05 1061.53 452.14 1180.49 449.27
00001720 00000040 1024.96 61.05 440.22 538.98 1109.49 260.96 1252.79 258.50 1085.38 303.48 1054.65 449.99 1165.29 448.03
00001721 00000041 1018.93 61.83 435.58 536.67 1107.14 263.29 1241.95 264.62 1075.71 304.77 1048.93 445.52 1154.21 446.30
00001722 00000042 1013.67 58.36 446.77 562.29 1101.28 270.28 1236.30 267.36 1065.58 305.51 1041.48 457.41 1147.66 454.79
00001723 00000043 1009.07 59.49 441.48 570.79 1094.38 275.09 1229.18 273.02 1059.67 309.24 1033.41 464.96 1139.38 463.10
00001724 DELETE   1010.57 57.59 436.17 574.67 1084.02 279.65 1223.68 278.29 1057.42 324.56 1029.30 473.69 1138.16 472.96
00001725 DELETE   1022.51 61.58 414.19 572.99 1061.34 283.68 1211.10 284.46 1052.87 342.49 1027.61 484.44 1131.84 485.85
00001726 DELETE   1014.33 60.75 428.15 601.84 1056.68 295.54 1207.95 297.36 1049.31 358.73 1030.23 501.42 1134.75 503.71
00001727 00000047 1017.45 65.13 429.80 608.73 1059.31 309.41 1206.63 304.22 1048.23 376.47 1046.23 518.05 1148.75 516.23
00001728 00000048 1018.61 67.25 431.32 618.93 1059.76 317.38 1208.11 309.96 1047.57 386.59 1051.38 529.53 1155.22 525.18
00001729 00000049 1020.05 75.49 423.00 620.69 1062.62 310.49 1212.49 316.62 1040.87 391.78 1045.24 535.38 1156.91 542.58
00001730 00000050 1019.31 79.50 418.51 617.14 1059.57 313.01 1209.38 318.95 1040.94 395.97 1041.96 538.28 1154.16 545.23
00001731 00000051 1019.40 81.79 418.73 615.64 1059.49 315.00 1208.75 321.48 1040.58 398.49 1042.91 539.65 1155.35 546.79
00001732 00000052 1024.77 76.09 415.80 618.83 1055.15 324.87 1201.30 321.46 1045.74 404.51 1050.22 543.06 1151.38 541.60
00001733 00000053 1026.84 78.89 415.12 620.61 1055.53 326.50 1202.46 324.12 1046.87 409.06 1050.43 545.52 1153.53 544.90
00001734 00000054 1024.45 81.95 415.38 617.37 1054.49 327.28 1202.70 328.10 1048.45 413.22 1048.53 544.53 1155.44 546.65
00001735 00000055 1026.83 82.82 415.63 618.53 1053.99 328.38 1203.35 330.42 1048.88 416.86 1049.80 545.75 1159.59 548.68
00001736 00000056 1027.10 82.01 420.55 618.78 1056.09 328.98 1205.14 331.98 1049.35 418.61 1053.45 544.36 1167.26 547.58
00001737 00000057 1027.99 85.61 420.04 614.25 1056.88 332.02 1205.28 334.98 1050.28 419.82 1054.73 544.74 1169.77 547.71
00001738 00000058 1023.25 86.93 433.20 614.29 1053.05 336.78 1205.63 324.52 1048.27 427.74 1061.39 555.06 1177.83 546.81
00001739 00000059 1023.91 84.89 429.21 617.31 1053.44 335.70 1205.78 323.50 1048.49 428.24 1062.11 553.69 1178.61 545.39
00001740 00000060 1023.60 81.69 430.85 630.19 1055.38 334.18 1206.37 323.41 1047.35 430.07 1067.32 557.99 1184.59 550.60
00001741 00000061 1022.81 84.42 431.92 635.80 1056.29 335.83 1207.71 325.21 1048.72 429.54 1068.50 561.14 1184.33 553.90
00001742 00000062 1020.91 86.73 434.21 634.18 1054.07 336.54 1207.69 325.68 1048.25 428.65 1065.88 561.51 1183.66 554.18
00001743 00000063 1017.03 89.82 430.38 622.94 1059.68 334.96 1212.92 332.82 1051.52 426.75 1056.92 553.42 1182.73 553.75
00001744 00000064 1014.42 92.64 439.83 630.64 1058.13 328.84 1217.04 329.78 1043.79 423.93 1058.10 560.62 1186.16 560.92
00001745 00000065 1014.61 94.71 437.29 625.63 1058.01 327.30 1215.86 330.14 1043.50 425.24 1056.70 558.20 1184.29 560.18
00001746 00000066 1015.32 94.90 437.09 623.32 1057.53 326.95 1215.03 330.55 1040.81 426.40 1053.83 557.08 1183.00 559.59
00001747 00000067 1015.31 93.82 436.53 624.38 1057.96 326.09 1213.42 330.69 1038.76 425.16 1051.77 557.64 1177.88 561.24
00001748 00000068 1014.50 93.47 436.55 630.58 1060.57 326.49 1211.19 330.02 1035.89 420.51 1051.47 562.18 1167.96 565.38
00001749 00000069 1022.26 84.62 423.14 635.64 1055.80 330.05 1199.12 333.30 1040.38 417.65 1047.06 555.45 1149.68 559.13
00001750 00000070 1024.19 86.41 424.12 629.36 1059.25 329.17 1199.83 331.73 1043.05 413.57 1047.35 555.21 1142.94 558.19
00001751 00000071 1025.20 83.32 423.19 627.28 1060.16 326.52 1199.90 328.96 1045.29 410.27 1046.83 553.65 1138.77 556.78
00001752 00000072 1025.93 86.46 418.79 618.23 1061.32 325.79 1201.25 328.10 1047.60 407.19 1045.20 549.54 1137.08 552.73
00001753 00000073 1027.66 85.84 415.80 611.74 1064.54 322.50 1202.19 326.12 1050.97 403.42 1048.67 544.02 1138.18 548.08
00001754 00000074 1027.71 81.33 420.46 610.42 1063.79 319.92 1204.08 322.41 1051.94 398.85 1047.65 541.78 1136.97 545.01
00001755 00000075 1026.00 77.63 424.06 614.29 1061.17 317.59 1207.05 320.53 1050.07 399.15 1046.31 536.79 1148.54 540.76
00001756 00000076 1029.50 74.67 416.85 619.23 1065.66 315.83 1208.98 316.82 1053.07 396.53 1054.63 536.50 1155.57 538.55
00001757 00000077 1029.15 74.33 422.58 617.41 1063.64 316.76 1208.57 316.72 1051.37 396.51 1054.72 535.38 1159.89 536.55
00001758 00000078 1031.10 80.62 415.48 615.55 1062.98 321.33 1208.56 322.47 1053.22 405.42 1058.00 541.01 1162.76 542.72
00001759 00000079 1027.72 88.09 419.62 619.09 1059.03 328.48 1206.80 334.50 1052.21 421.59 1056.04 546.40 1169.98 551.99
00001760 00000080 1021.51 98.03 432.29 612.20 1065.20 342.17 1209.56 343.74 1048.11 438.96 1064.75 562.12 1175.75 565.32
00001761 00000081 1019.15 97.76 437.70 618.61 1063.62 343.44 1210.38 349.74 1045.97 442.76 1058.62 567.41 1169.40 574.41
00001762 00000082 1014.93 99.18 444.95 609.64 1061.57 342.61 1208.49 347.38 1042.41 437.96 1047.96 560.57 1158.62 566.37
00001763 00000083 1013.83 99.86 448.62 607.60 1062.15 340.47 1210.36 340.27 1043.61 430.58 1044.62 557.86 1153.28 560.00
00001764 00000084 1027.22 83.86 429.13 620.06 1058.05 326.46 1208.43 334.64 1051.12 416.57 1046.35 547.63 1148.74 555.70
00001765 00000085 1028.46 81.45 427.81 622.62 1059.37 324.42 1211.19 333.25 1053.04 413.17 1044.99 547.89 1145.20 556.78
00001766 00000086 1015.87 86.22 443.58 623.47 1071.26 331.64 1215.65 331.56 1047.45 419.95 1042.34 558.70 1139.88 560.73
00001767 00000087 1016.12 90.32 446.16 643.76 1073.28 335.71 1218.27 332.12 1045.73 419.04 1053.31 570.79 1153.19 569.84
00001768 00000088 1013.94 92.22 449.89 656.81 1069.60 341.63 1222.40 338.48 1047.34 427.22 1058.85 580.03 1172.26 579.03
00001769 00000089 1013.40 89.78 441.73 645.60 1062.17 342.53 1226.58 347.90 1053.43 437.45 1057.84 570.59 1185.32 576.93
00001770 00000090 1012.42 86.14 445.39 643.68 1052.19 350.93 1224.89 350.58 1059.29 447.56 1055.68 574.34 1184.24 576.86
00001771 00000091 1011.83 91.09 443.67 633.52 1049.51 354.13 1221.06 356.70 1059.63 454.01 1053.79 576.04 1180.43 580.85
00001772 00000092 1010.42 101.00 438.63 634.34 1049.77 358.80 1216.55 364.40 1059.39 457.83 1052.03 580.98 1173.35 588.47
00001773 00000093 1007.95 103.88 441.27 640.05 1047.00 362.89 1213.33 370.71 1057.78 461.67 1047.48 588.00 1169.52 597.47
00001774 00000094 1009.56 104.69 446.69 651.59 1048.04 364.12 1212.08 374.62 1050.80 462.53 1050.48 594.69 1170.66 605.60
00001775 00000095 1009.24 107.73 444.52 654.77 1049.25 360.85 1211.27 373.16 1048.59 460.08 1051.31 593.94 1172.69 606.07
00001776 00000096 1011.49 109.18 442.83 652.22 1052.47 356.63 1214.38 370.31 1047.47 455.91 1053.42 590.81 1176.70 603.65
00001777 00000097 1009.56 94.74 446.47 660.05 1052.34 353.02 1215.62 360.93 1046.64 450.98 1051.48 588.11 1175.26 597.03
00001778 00000098 1016.12 94.08 440.63 651.24 1058.44 347.12 1218.15 353.57 1048.34 443.70 1058.36 579.67 1183.02 586.88
00001779 00000099 1018.69 93.14 440.15 641.55 1060.72 341.53 1226.49 344.93 1058.07 435.62 1060.05 571.72 1185.41 576.88
00001780 00000100 1019.36 88.40 437.15 634.57 1068.34 338.14 1233.15 342.66 1062.89 427.95 1059.62 564.67 1185.97 570.47
00001781 00000101 1021.79 86.53 438.71 630.29 1068.89 333.83 1235.03 339.82 1063.06 424.44 1056.89 561.00 1183.62 567.91
00001782 00000102 1026.25 82.60 444.01 640.57 1067.95 329.47 1234.93 335.20 1062.76 428.57 1065.50 560.33 1188.61 567.30
00001783 00000103 1022.88 88.38 438.36 623.96 1071.89 334.07 1235.74 341.06 1063.11 423.15 1056.59 557.98 1180.07 565.83
00001784 00000104 1021.76 90.72 439.33 619.52 1073.40 335.93 1234.53 342.02 1063.26 423.03 1056.03 557.68 1173.73 564.77
00001785 00000105 1021.57 89.71 438.18 620.55 1073.52 336.52 1233.70 343.01 1062.85 423.68 1055.16 558.06 1171.86 565.47
00001786 00000106 1019.55 89.09 437.61 621.56 1072.24 334.95 1234.42 342.27 1064.22 424.31 1055.27 555.27 1176.26 563.40
00001787 00000107 1023.73 85.25 445.87 634.34 1069.76 332.01 1234.71 336.05 1064.67 425.10 1062.70 555.21 1181.37 560.86
00001788 00000108 1021.37 86.88 439.32 619.09 1072.13 330.27 1238.12 339.48 1065.44 421.30 1054.65 551.21 1179.23 560.87
00001789 00000109 1022.44 85.68 438.66 619.39 1073.08 328.55 1238.78 337.40 1066.12 420.32 1056.45 549.89 1180.44 559.43
00001790 00000110 1021.76 85.28 438.65 620.51 1069.29 327.81 1239.21 337.11 1066.38 420.03 1054.99 550.99 1184.99 561.02
00001791 00000111 1022.16 85.50 439.54 633.81 1069.71 329.77 1237.75 336.64 1064.14 421.48 1057.98 557.45 1188.14 565.34
00001792 00000112 1021.55 87.98 438.70 645.69 1070.20 332.65 1233.51 338.69 1057.59 423.30 1059.69 566.36 1184.72 573.38
00001793 00000113 1018.60 91.58 437.09 631.57 1072.99 337.59 1223.29 341.70 1053.84 428.27 1055.52 566.99 1163.89 572.36
00001794 00000114 1019.08 90.50 444.60 622.20 1060.25 338.97 1211.66 334.72 1051.47 427.03 1049.44 561.22 1153.76 560.40
00001795 00000115 1015.46 86.17 449.13 617.20 1055.77 332.04 1210.12 331.06 1046.05 420.73 1038.96 553.08 1151.32 554.29
00001796 00000116 1024.19 83.20 428.74 617.04 1056.92 325.02 1212.20 334.39 1049.40 413.36 1039.93 544.46 1147.94 554.09
00001797 00000117 1023.44 76.69 430.46 625.50 1055.79 325.41 1210.91 332.41 1048.30 412.02 1039.62 546.76 1144.33 554.68
00001798 00000118 1024.20 78.85 427.33 631.71 1056.43 325.56 1212.02 334.04 1048.00 414.26 1039.25 550.35 1145.03 559.46
00001799 00000119 1013.31 90.93 436.47 628.91 1071.68 333.70 1212.34 335.77 1042.65 424.35 1041.45 563.17 1139.02 566.51
00001800 00000120 1013.59 90.05 442.92 643.47 1071.49 333.21 1212.89 334.51 1039.16 424.23 1045.46 571.39 1145.24 574.14
00001801 00000121 1014.30 90.98 440.68 647.86 1068.70 332.01 1211.01 332.86 1035.61 421.54 1049.36 571.28 1155.65 573.69
00001802 00000122 1023.43 76.47 431.35 671.47 1064.13 328.31 1207.17 329.42 1040.56 416.05 1055.37 567.98 1159.28 569.69
00001803 00000123 1025.11 77.74 428.30 662.78 1064.60 325.43 1206.49 324.58 1044.25 412.81 1060.40 564.78 1163.48 564.58
00001804 00000124 1026.36 73.81 427.48 659.74 1064.56 321.73 1209.08 321.16 1045.49 408.46 1060.74 559.58 1165.71 559.37
00001805 00000125 1025.25 72.96 429.35 641.72 1063.72 318.54 1210.90 317.28 1048.16 402.91 1062.04 546.49 1172.26 545.44
00001806 00000126 1018.62 74.06 429.13 627.03 1061.44 305.09 1216.27 311.10 1040.66 392.03 1046.51 534.84 1167.47 540.78
00001807 00000127 1018.07 74.62 425.43 613.76 1062.91 302.98 1215.41 308.52 1041.22 382.25 1042.98 527.61 1157.04 534.44
00001808 00000128 1012.56 70.00 427.27 604.65 1056.43 308.76 1207.69 303.52 1048.66 375.52 1043.17 516.32 1150.59 514.55
00001809 00000129 1013.87 68.77 425.52 605.35 1055.74 307.36 1206.13 300.95 1046.27 376.34 1042.37 517.92 1148.15 515.25
00001810 00000130 1011.65 71.62 426.70 605.86 1054.43 309.91 1202.65 301.57 1044.01 376.47 1040.63 521.74 1141.89 517.53
00001811 00000131 1014.98 73.60 422.74 620.71 1056.02 307.97 1208.49 307.85 1034.40 385.12 1035.01 538.46 1144.06 540.52
00001812 00000132 1018.11 73.96 417.75 627.20 1057.76 309.68 1205.15 312.54 1034.15 393.95 1044.02 541.72 1153.43 545.72
00001813 00000133 1017.99 78.18 412.93 624.51 1053.93 313.23 1203.28 315.23 1032.62 397.02 1040.01 545.54 1149.79 548.81
00001814 00000134 1013.26 78.33 414.91 622.30 1050.51 314.54 1199.90 316.63 1030.24 397.60 1035.93 545.84 1141.71 549.24
00001815 00000135 1011.49 77.35 416.65 621.34 1048.59 312.11 1198.20 312.87 1028.24 394.65 1033.10 544.06 1138.77 546.39
00001816 00000136 1012.46 77.02 417.14 622.00 1048.94 308.61 1198.73 311.31 1027.97 393.89 1034.77 541.38 1143.89 545.15
00001817 00000137 1013.86 77.31 417.63 622.52 1050.57 308.40 1201.56 309.66 1029.73 392.12 1037.80 540.31 1150.83 542.91
00001818 00000138 1013.34 78.15 417.38 616.32 1050.74 308.40 1203.96 308.58 1031.44 391.19 1036.57 536.65 1153.13 538.33
00001819 00000139 1016.41 75.14 418.86 610.77 1053.26 307.67 1205.69 310.04 1032.54 391.83 1040.94 533.36 1157.07 536.66
00001820 00000140 1018.12 73.30 419.41 613.20 1055.56 307.40 1207.84 310.85 1034.53 392.54 1043.10 533.02 1161.88 536.86
00001821 00000141 1019.19 73.29 423.44 613.44 1056.04 309.22 1210.03 312.88 1034.92 394.79 1043.96 533.63 1165.21 537.15
00001822 00000142 1022.48 76.04 423.20 623.15 1057.73 311.34 1211.44 312.33 1037.34 395.84 1047.25 540.29 1169.67 541.48
00001823 00000143 1027.66 72.00 424.58 638.14 1063.69 318.23 1209.96 314.16 1049.75 402.35 1065.64 543.60 1179.38 540.45
00001824 00000144 1030.15 71.45 425.06 636.00 1066.64 317.74 1214.09 315.24 1051.64 401.41 1067.36 542.18 1180.36 540.17
00001825 00000145 1030.17 70.32 423.69 625.67 1066.11 316.46 1216.89 315.72 1054.68 399.02 1064.33 536.00 1176.44 535.87
00001826 00000146 1022.97 78.08 426.35 604.97 1065.14 318.64 1211.97 319.86 1052.68 391.46 1046.94 526.67 1165.51 530.22
00001827 00000147 1027.91 67.82 425.97 615.93 1062.87 315.43 1216.07 314.48 1055.12 395.10 1059.23 530.59 1172.26 530.66
00001828 00000148 1027.92 68.90 424.83 618.93 1063.58 315.11 1214.03 312.74 1053.14 393.96 1057.77 532.33 1166.98 531.40
00001829 00000149 1027.16 67.93 428.28 625.03 1061.19 316.23 1211.96 311.93 1050.31 394.84 1057.28 538.09 1166.00 535.22
00001830 00000150 1023.34 75.89 418.63 630.76 1065.41 306.25 1210.33 310.86 1041.11 393.74 1056.39 537.44 1172.88 542.06
00001831 00000151 1023.77 76.34 418.88 632.60 1063.19 307.97 1208.61 310.85 1038.60 395.45 1056.29 540.06 1175.63 542.63
00001832 00000152 1023.16 76.68 420.25 635.09 1062.41 310.84 1208.28 311.44 1037.79 397.47 1057.25 544.62 1178.06 544.89
00001833 00000153 1021.96 76.21 419.80 635.88 1061.57 310.59 1209.65 312.23 1039.68 398.93 1056.70 545.12 1180.05 546.27
00001834 00000154 1022.11 76.37 422.24 636.24 1062.60 311.27 1210.08 312.78 1039.90 399.13 1057.42 544.20 1180.29 545.22
00001835 00000155 1022.62 78.48 420.78 631.11 1063.67 311.26 1210.58 314.10 1041.36 398.51 1056.69 542.14 1177.01 544.62
00001836 00000156 1022.27 81.38 419.85 624.62 1063.51 311.52 1209.78 315.68 1042.35 398.79 1055.66 540.18 1174.53 544.04
00001837 00000157 1026.84 71.73 422.41 625.34 1061.00 317.61 1209.24 316.94 1050.44 402.54 1060.84 536.55 1172.61 536.56
00001838 00000158 1022.37 76.92 423.12 619.33 1062.03 309.63 1213.28 314.61 1042.42 395.47 1050.72 535.40 1170.62 540.18
00001839 00000159 1021.89 76.87 423.56 613.58 1061.85 307.13 1214.71 311.93 1042.00 390.54 1048.12 532.32 1167.91 537.28
00001840 00000160 1023.44 69.35 427.63 610.73 1056.03 314.89 1210.39 309.11 1049.59 388.42 1051.75 528.98 1165.46 525.46
00001841 00000161 1021.85 70.52 424.75 609.68 1056.04 315.48 1208.62 308.28 1048.69 387.02 1050.52 528.87 1161.40 524.49
00001842 00000162 1021.92 71.98 422.86 609.23 1056.09 316.35 1207.93 308.96 1048.86 387.93 1050.01 529.80 1160.49 525.31
00001843 00000163 1022.77 71.03 421.75 611.15 1054.03 316.85 1207.31 309.69 1048.37 391.08 1051.62 531.14 1162.29 526.71
