Video ID: 	61RcOEs4znI
H: 	1080
W: 	1920
FPS: 	25.0

FRAME INDEX X0 Y0 W H [Landmarks (5 Points)]

00003305 00000000 845.95 160.57 467.25 625.52 1023.89 370.14 1240.08 370.14 1174.44 514.76 1045.09 615.47 1223.70 615.02
00003306 00000001 847.91 164.35 463.52 617.76 1016.87 366.67 1239.42 368.00 1166.06 510.83 1044.41 614.94 1222.20 615.24
00003307 00000002 848.28 166.72 463.89 613.50 1015.62 365.16 1239.99 366.14 1165.32 508.90 1044.43 613.21 1223.43 613.03
00003308 00000003 850.36 165.57 462.39 612.70 1016.15 362.99 1239.59 363.11 1166.13 506.78 1046.51 611.47 1224.87 610.40
00003309 00000004 851.03 165.03 462.04 614.38 1016.44 363.22 1239.85 362.97 1165.91 507.58 1047.38 611.83 1226.40 610.35
00003310 00000005 850.62 172.86 463.40 607.57 1013.65 364.46 1239.86 363.84 1164.75 508.93 1043.55 612.83 1226.61 611.45
00003311 00000006 850.46 168.29 462.40 609.52 1012.07 365.31 1239.94 364.59 1162.12 506.97 1043.39 612.34 1226.15 610.69
00003312 00000007 850.18 167.78 462.24 607.97 1008.74 365.47 1238.35 365.99 1157.08 506.20 1041.43 611.65 1225.07 610.77
00003313 00000008 840.04 167.21 476.13 611.33 999.32 367.99 1231.47 356.50 1152.51 512.95 1028.70 613.48 1216.79 602.38
00003314 00000009 837.20 164.79 465.44 616.30 987.02 371.58 1219.18 352.16 1148.69 510.51 1027.04 619.52 1221.84 602.46
00003315 00000010 830.23 173.84 470.14 604.32 984.24 369.04 1211.67 349.72 1140.26 508.66 1020.25 614.59 1206.40 596.70
00003316 00000011 825.87 153.64 464.99 628.76 972.10 374.77 1200.16 349.18 1132.25 509.97 1017.67 622.33 1207.57 599.77
00003317 DELETE   819.39 171.66 466.80 605.65 967.19 371.22 1197.00 347.35 1125.22 512.11 1017.12 621.01 1196.60 598.27
00003318 00000013 814.57 184.56 461.72 592.12 962.55 382.83 1185.45 351.17 1118.57 512.58 1017.55 625.58 1194.24 596.13
00003319 DELETE   811.02 173.35 462.84 604.61 953.87 393.28 1177.24 355.10 1114.84 512.97 1005.53 627.74 1196.23 595.78
00003320 DELETE   807.86 168.62 463.03 606.45 944.95 392.10 1171.64 349.44 1107.87 504.28 1002.13 627.44 1196.23 591.22
00003321 00000016 801.97 174.34 470.63 597.99 931.58 388.89 1163.05 342.47 1092.29 500.10 1001.16 628.43 1196.13 587.94
00003322 DELETE   793.64 174.89 476.06 598.47 919.47 387.86 1152.81 338.06 1080.72 495.03 999.85 629.61 1193.55 585.35
00003323 00000018 793.56 166.25 470.11 607.20 914.29 389.04 1147.43 337.59 1075.58 492.98 993.89 630.16 1188.96 584.59
00003324 DELETE   789.67 162.55 469.84 606.50 906.29 387.19 1143.53 334.60 1067.49 490.73 989.11 628.96 1185.84 582.19
00003325 DELETE   786.47 152.74 466.92 612.17 900.58 392.22 1132.05 335.97 1059.05 490.75 983.90 621.64 1176.56 574.08
00003326 DELETE   783.77 155.56 466.88 606.52 893.94 388.87 1126.05 333.18 1048.93 491.16 977.79 618.90 1170.54 571.76
00003327 00000022 778.87 157.02 469.04 604.36 888.07 385.96 1119.87 332.43 1039.40 490.74 973.22 616.91 1163.22 571.63
00003328 00000023 764.10 165.12 477.50 598.90 883.36 382.80 1116.03 329.67 1040.79 494.58 967.96 626.11 1156.49 577.51
00003329 00000024 759.56 160.56 478.36 606.06 878.96 381.28 1111.39 329.06 1035.89 495.91 963.40 626.76 1150.78 578.33
00003330 00000025 757.15 161.60 477.04 602.85 877.60 382.05 1108.07 331.31 1032.36 496.07 960.11 624.59 1146.99 577.63
00003331 00000026 754.32 166.93 476.77 595.20 873.12 380.46 1105.55 331.22 1029.72 493.95 956.64 624.01 1145.58 578.40
00003332 00000027 754.10 170.34 475.59 590.49 871.53 380.45 1102.83 330.83 1026.47 490.16 953.03 622.44 1142.84 576.57
00003333 00000028 754.03 169.95 474.58 588.19 870.37 379.36 1100.66 329.61 1024.91 486.39 952.56 621.04 1141.22 575.07
00003334 00000029 751.88 170.90 474.36 583.11 869.47 377.46 1098.10 326.88 1024.18 483.03 953.47 619.06 1140.28 572.44
00003335 00000030 751.75 167.88 473.22 585.85 868.85 375.83 1096.86 326.21 1022.55 479.77 951.98 617.88 1139.04 571.93
00003336 00000031 751.07 165.01 473.60 588.86 868.32 374.16 1095.87 325.35 1022.11 478.34 951.32 616.81 1137.49 571.57
00003337 00000032 751.45 165.58 473.23 587.21 868.53 374.55 1096.00 325.73 1021.55 478.50 951.23 616.27 1137.10 571.20
00003338 00000033 752.29 164.25 473.20 587.65 869.66 374.29 1095.82 325.81 1021.64 477.74 952.69 615.44 1136.77 570.68
00003339 00000034 752.75 164.34 472.66 586.65 870.14 373.59 1096.64 325.54 1021.90 477.80 954.24 614.92 1137.75 570.35
00003340 00000035 755.07 163.87 472.49 586.53 871.40 373.48 1097.37 324.33 1023.08 477.90 956.60 615.12 1138.91 569.49
00003341 00000036 756.48 163.03 472.61 585.14 873.38 373.18 1098.31 324.76 1024.14 477.07 958.42 613.19 1139.15 568.08
00003342 00000037 759.10 159.92 472.09 587.03 875.87 372.93 1099.73 324.73 1025.26 477.55 959.63 611.56 1140.31 566.59
00003343 00000038 762.26 158.71 471.53 585.19 879.80 372.79 1103.02 324.57 1028.21 477.61 962.11 609.31 1141.98 564.66
00003344 00000039 767.62 158.99 468.15 583.45 883.78 373.21 1105.50 325.54 1030.69 476.33 963.86 607.74 1144.18 563.73
00003345 00000040 774.38 160.25 459.56 578.09 888.21 373.37 1111.51 324.40 1036.25 477.50 967.39 608.59 1148.90 563.78
00003346 00000041 778.86 163.36 458.11 571.52 892.89 370.96 1115.71 321.72 1040.53 474.42 970.39 605.47 1150.79 560.61
00003347 00000042 785.54 155.24 464.60 576.15 889.84 368.34 1124.28 324.49 1032.35 469.39 967.71 595.87 1158.68 558.60
00003348 00000043 789.28 155.25 459.70 572.46 892.76 366.28 1126.15 323.44 1035.83 466.33 969.78 593.43 1160.47 556.88
00003349 00000044 792.50 152.99 463.17 573.40 897.23 366.43 1129.97 323.64 1039.22 464.67 970.72 590.26 1163.70 553.72
00003350 00000045 799.27 155.44 456.57 565.54 904.95 370.02 1134.01 330.11 1043.64 462.94 971.67 585.93 1164.52 552.18
00003351 00000046 801.01 154.77 458.89 566.00 906.50 366.97 1135.14 327.97 1044.16 460.07 971.30 582.92 1164.50 549.92
00003352 00000047 801.40 160.15 459.88 560.33 904.39 364.63 1135.05 323.51 1045.25 456.52 973.18 582.10 1167.27 546.94
00003353 00000048 799.98 158.47 462.76 559.26 904.35 361.40 1136.63 322.29 1045.96 454.04 974.03 580.22 1168.09 546.30
00003354 00000049 800.76 154.10 461.46 561.45 905.64 360.19 1137.49 320.93 1046.86 453.60 975.08 579.26 1168.44 545.34
00003355 00000050 801.12 156.57 461.18 558.34 905.31 359.54 1138.10 321.10 1046.42 453.07 975.07 579.08 1168.49 545.69
00003356 00000051 801.22 156.99 461.33 557.72 905.25 359.06 1138.33 321.22 1045.82 452.44 973.99 578.06 1168.04 545.18
00003357 00000052 802.02 154.64 459.79 558.17 904.20 358.76 1138.90 320.26 1044.90 451.56 973.83 578.17 1169.69 544.55
00003358 00000053 801.24 155.22 456.69 553.57 904.66 355.51 1137.52 318.45 1044.73 449.23 975.59 575.49 1167.05 543.10
00003359 00000054 799.79 147.15 456.70 561.41 904.92 351.39 1135.50 314.00 1044.65 444.98 977.06 573.57 1165.24 541.09
00003360 00000055 800.98 145.60 455.25 559.31 903.14 348.20 1136.67 310.28 1043.00 439.11 976.33 570.61 1167.89 537.33
00003361 00000056 800.20 140.61 455.46 561.84 902.51 345.57 1137.81 306.93 1041.57 434.87 975.13 568.07 1169.04 534.00
00003362 00000057 800.11 141.51 455.81 559.66 902.53 344.24 1137.98 304.34 1043.05 432.71 974.73 566.44 1169.77 531.45
00003363 00000058 799.42 139.92 454.75 561.11 902.50 342.72 1137.71 302.98 1043.39 431.78 974.34 565.47 1169.00 530.69
00003364 00000059 799.02 140.57 456.09 558.10 900.53 341.68 1137.90 301.74 1041.11 431.32 972.07 564.77 1168.94 529.67
00003365 00000060 797.68 136.47 459.27 562.51 899.50 340.62 1136.82 300.21 1038.87 430.32 970.13 564.21 1167.89 528.58
00003366 00000061 796.84 136.90 458.56 561.56 897.67 340.98 1135.03 300.51 1036.02 430.90 968.73 565.15 1165.24 529.49
00003367 00000062 796.83 137.34 458.61 562.40 897.16 340.80 1134.80 300.50 1035.04 432.05 967.92 565.61 1164.68 529.98
00003368 00000063 796.30 137.06 459.88 563.78 897.08 341.06 1134.54 300.19 1035.44 432.20 968.70 566.17 1164.56 530.11
00003369 00000064 796.53 136.67 459.79 565.66 897.84 341.16 1134.24 300.54 1036.19 432.41 969.96 566.37 1164.44 530.63
00003370 00000065 797.16 136.33 459.77 566.13 899.39 341.67 1134.87 300.93 1038.01 431.62 971.23 566.09 1166.29 530.26
00003371 00000066 797.82 139.03 460.68 563.96 899.26 342.02 1135.81 300.76 1039.04 431.91 972.34 567.34 1167.79 531.06
00003372 00000067 797.73 138.31 460.24 564.52 899.22 342.08 1136.42 301.14 1038.54 431.96 971.91 567.48 1167.76 531.43
00003373 00000068 797.51 139.92 460.03 563.69 899.60 341.98 1135.93 301.90 1039.36 432.82 972.77 568.03 1167.13 532.80
00003374 00000069 797.51 141.99 460.57 562.73 899.79 342.34 1135.26 303.51 1039.02 434.66 972.66 568.44 1166.11 534.32
00003375 00000070 797.29 145.32 458.59 560.59 899.89 343.68 1134.72 305.30 1040.26 436.49 973.09 569.43 1165.73 535.82
00003376 00000071 797.21 142.79 458.61 564.06 901.07 344.78 1134.61 307.02 1041.00 437.11 974.50 570.26 1165.03 537.25
00003377 00000072 797.36 143.66 457.37 563.53 900.77 345.61 1134.48 307.74 1040.88 438.78 974.67 571.65 1164.60 538.51
00003378 00000073 797.32 143.26 457.36 564.45 900.77 345.40 1134.72 307.66 1041.28 439.17 974.56 571.78 1164.81 538.70
00003379 00000074 796.30 142.35 457.95 565.17 900.99 345.59 1134.47 307.69 1041.54 438.95 975.42 572.06 1164.29 538.90
00003380 00000075 796.41 142.23 458.52 564.62 900.47 344.69 1134.87 306.80 1041.16 437.51 974.25 571.23 1164.46 538.14
00003381 00000076 795.76 140.84 458.71 563.98 899.91 342.17 1135.16 304.18 1040.06 434.79 972.73 569.40 1163.46 536.19
00003382 00000077 794.73 140.88 458.48 564.88 899.47 342.18 1134.70 303.93 1040.42 433.48 973.30 569.79 1162.83 536.45
00003383 00000078 793.17 139.82 458.61 568.23 899.26 341.73 1132.89 305.03 1040.02 436.33 972.91 570.73 1159.09 539.02
00003384 00000079 792.05 143.84 460.01 570.09 898.01 343.68 1131.25 306.80 1041.71 440.45 975.25 574.67 1160.07 542.73
00003385 00000080 789.18 143.73 463.88 573.96 896.23 345.56 1131.04 309.44 1038.49 446.38 972.40 578.32 1157.51 546.94
00003386 00000081 784.62 147.20 469.36 578.15 892.93 348.77 1127.87 311.32 1035.25 449.74 970.41 583.99 1154.19 552.05
00003387 00000082 778.17 159.05 466.97 570.02 894.19 348.91 1116.28 306.37 1035.95 452.14 969.18 593.90 1137.92 554.93
00003388 00000083 777.47 158.64 464.89 573.29 889.49 351.97 1111.73 309.28 1029.67 454.95 966.47 597.36 1136.18 558.07
00003389 00000084 772.34 156.53 465.63 575.49 886.54 352.72 1107.48 310.55 1027.05 457.71 965.12 597.68 1133.00 558.59
00003390 00000085 770.17 155.47 465.99 578.55 884.38 353.60 1106.21 310.62 1025.83 459.44 965.25 600.25 1133.52 560.19
00003391 00000086 770.14 159.13 468.16 577.94 883.04 355.36 1105.40 311.45 1025.35 459.79 966.71 603.66 1134.63 562.56
00003392 00000087 770.25 161.83 468.97 577.73 882.68 357.91 1104.51 313.16 1025.94 462.84 968.16 605.94 1135.98 564.00
00003393 00000088 772.80 161.79 467.74 580.14 884.59 359.67 1106.50 314.41 1027.63 463.56 968.98 606.62 1138.89 564.42
00003394 00000089 773.77 165.54 467.58 578.99 886.63 361.60 1108.43 316.49 1030.80 466.82 969.93 607.33 1140.25 565.41
00003395 00000090 775.72 163.47 463.54 581.86 888.67 362.99 1110.81 317.83 1033.61 468.16 969.98 608.50 1142.09 566.70
00003396 00000091 775.72 164.10 463.61 583.91 889.05 363.11 1111.35 318.13 1035.02 469.94 970.09 610.04 1141.51 568.51
00003397 00000092 776.25 165.28 463.41 583.76 889.70 364.72 1111.52 319.80 1035.68 471.19 970.19 610.56 1142.67 569.15
00003398 00000093 776.86 164.89 462.56 585.95 890.58 366.03 1112.07 321.08 1036.30 471.66 970.31 610.95 1142.90 569.59
00003399 00000094 777.89 164.24 461.97 586.11 891.49 366.14 1113.24 320.89 1037.12 471.62 971.11 611.60 1143.50 570.08
00003400 00000095 777.80 164.56 463.39 587.31 891.37 365.48 1112.86 321.17 1036.38 471.59 970.34 611.25 1141.95 570.46
00003401 00000096 779.04 164.74 463.07 586.14 892.67 365.81 1112.79 322.45 1035.75 470.69 970.63 610.62 1140.59 570.75
00003402 00000097 779.30 164.74 462.32 586.55 892.59 365.36 1112.12 322.66 1035.19 469.90 970.38 610.43 1139.47 571.09
00003403 00000098 779.56 164.60 461.03 587.34 892.71 364.20 1111.92 322.79 1034.17 469.97 969.68 611.07 1136.84 572.90
00003404 00000099 780.63 164.08 460.16 587.79 894.41 363.93 1112.70 323.75 1034.98 469.91 970.06 611.06 1135.19 574.04
00003405 00000100 781.07 166.34 460.18 585.46 895.37 365.71 1113.57 326.69 1034.74 470.38 969.75 611.52 1134.73 575.53
00003406 00000101 782.58 167.10 457.81 585.12 897.42 368.74 1115.47 331.30 1036.19 474.01 969.89 612.37 1135.58 577.68
00003407 00000102 789.29 174.96 460.85 577.06 900.09 369.48 1123.89 327.38 1032.97 476.62 968.85 616.42 1135.63 578.40
00003408 00000103 794.66 171.40 452.77 583.56 900.58 370.69 1126.56 339.09 1032.75 474.47 972.30 612.73 1144.08 584.18
00003409 00000104 796.43 172.36 448.66 584.38 903.04 375.28 1128.73 344.81 1035.22 477.72 971.58 614.66 1145.04 587.61
00003410 00000105 798.79 174.83 450.90 586.57 904.88 379.20 1131.64 348.48 1037.74 478.75 971.21 616.27 1149.05 589.27
00003411 00000106 800.68 173.84 452.14 591.50 906.55 381.39 1132.44 349.12 1040.18 479.98 973.54 618.59 1152.12 590.27
00003412 00000107 801.99 175.31 455.49 592.11 905.52 386.22 1133.93 350.96 1040.52 484.11 973.90 621.98 1156.07 591.10
00003413 00000108 801.33 176.75 461.69 594.75 906.24 389.37 1134.73 353.58 1040.70 490.07 974.26 624.40 1157.04 593.06
00003414 00000109 801.25 180.26 462.38 592.67 906.28 391.96 1135.61 356.42 1041.45 493.24 973.54 626.46 1157.31 595.48
00003415 00000110 800.89 181.49 465.66 591.84 906.77 395.63 1135.16 359.65 1040.72 496.64 973.56 627.01 1157.69 595.68
00003416 00000111 800.80 183.21 467.15 592.75 906.08 398.13 1134.74 361.63 1040.37 501.25 973.49 628.99 1159.11 597.22
00003417 00000112 800.52 188.26 468.46 591.79 905.17 398.74 1135.16 363.56 1039.74 505.80 972.59 631.23 1158.60 600.62
00003418 00000113 801.59 188.90 468.77 591.77 905.60 401.53 1134.59 367.18 1038.19 509.64 970.69 631.48 1157.93 601.72
00003419 00000114 801.05 194.63 471.74 586.59 904.78 402.72 1134.87 369.86 1036.50 512.66 968.88 632.21 1156.79 604.01
00003420 00000115 798.67 198.29 473.51 584.71 903.21 404.78 1133.60 372.26 1034.68 516.69 967.03 634.94 1154.78 607.18
00003421 00000116 797.03 198.35 472.01 589.43 901.15 406.78 1131.87 374.72 1032.56 521.17 963.34 637.46 1152.76 610.21
00003422 00000117 792.65 201.64 469.33 591.16 897.31 410.49 1127.98 379.13 1027.95 524.81 956.59 640.24 1148.39 613.75
00003423 00000118 786.97 202.55 475.53 591.61 893.27 415.02 1121.97 380.46 1022.46 526.75 954.63 642.93 1144.83 613.91
00003424 00000119 783.13 210.98 478.16 588.23 886.89 413.35 1116.87 378.04 1018.52 531.04 949.93 645.95 1141.19 616.20
00003425 00000120 778.98 199.01 478.45 604.30 880.76 416.83 1109.88 378.31 1012.93 534.07 943.17 649.99 1139.73 617.68
00003426 DELETE   774.81 199.66 477.25 606.83 876.95 418.46 1104.07 378.97 1010.54 537.28 939.42 651.66 1136.72 618.47
00003427 00000122 770.81 204.61 478.08 604.71 874.03 420.09 1099.63 381.04 1006.12 538.76 936.16 651.96 1132.65 618.67
00003428 00000123 758.51 216.03 487.58 596.10 869.84 421.42 1088.97 380.55 1002.48 538.43 936.03 654.88 1120.06 617.07
00003429 00000124 754.31 215.45 488.84 598.04 868.21 422.62 1087.16 381.25 1001.19 539.69 933.87 655.17 1118.82 617.06
00003430 00000125 752.57 218.23 487.91 594.70 866.68 422.86 1086.02 382.12 1000.18 541.28 932.59 655.45 1116.80 617.97
00003431 00000126 750.78 224.52 486.39 588.67 864.87 423.71 1084.09 383.09 998.61 542.37 930.02 654.92 1115.44 617.60
00003432 00000127 749.65 227.03 484.99 586.68 862.54 424.71 1081.89 384.71 995.52 542.89 927.26 654.96 1113.57 618.03
00003433 00000128 747.19 226.61 484.73 585.78 860.60 423.45 1080.11 384.50 992.04 541.23 923.86 652.97 1110.94 616.87
00003434 00000129 746.44 230.46 481.17 581.58 859.06 422.92 1077.31 382.12 991.79 539.16 923.72 653.13 1109.98 615.48
00003435 00000130 744.37 232.96 480.28 577.18 857.04 422.57 1075.27 381.82 989.90 537.42 921.30 652.07 1107.64 614.48
00003436 00000131 744.04 229.82 478.45 577.92 855.63 423.24 1073.34 380.88 988.73 537.53 919.27 651.66 1106.80 612.84
00003437 00000132 744.09 230.69 482.71 577.33 853.26 423.18 1072.47 379.87 986.16 536.38 917.12 651.85 1107.92 612.28
00003438 00000133 744.50 225.91 478.39 580.82 852.36 423.52 1071.99 380.08 984.93 537.35 915.55 652.33 1107.11 612.83
00003439 00000134 744.37 220.68 477.56 587.53 852.14 424.19 1072.02 381.30 984.76 539.12 915.66 653.76 1106.44 614.68
00003440 00000135 744.26 218.30 475.73 590.66 851.66 424.71 1070.85 381.62 984.39 542.33 916.73 655.60 1106.45 616.27
00003441 00000136 744.91 218.04 474.58 591.96 851.79 425.43 1070.17 382.11 984.73 543.35 917.96 657.96 1105.08 618.59
00003442 00000137 744.41 219.37 474.01 589.72 851.86 425.23 1070.57 382.06 985.34 543.23 920.29 659.92 1104.90 620.53
00003443 00000138 746.43 219.41 472.09 587.81 852.76 423.52 1071.72 381.27 984.70 541.57 922.34 659.49 1104.73 620.70
00003444 00000139 745.12 215.75 473.98 590.61 855.41 424.02 1072.30 382.62 986.87 539.36 923.47 657.59 1104.50 619.86
00003445 00000140 743.05 216.19 474.63 586.86 853.62 419.57 1072.25 376.55 987.83 536.71 925.72 657.51 1104.64 617.80
00003446 00000141 742.37 222.04 473.38 578.66 853.36 416.97 1072.62 371.87 991.51 533.40 928.24 656.69 1105.69 615.01
00003447 00000142 743.50 220.21 472.21 575.79 852.80 415.50 1073.50 368.82 991.50 531.34 929.63 655.58 1107.16 612.56
00003448 00000143 743.89 221.12 469.60 575.07 853.58 414.88 1073.59 367.31 992.10 531.19 931.44 654.24 1108.87 610.34
00003449 00000144 743.07 220.21 469.81 574.56 855.25 413.45 1075.26 365.59 995.56 530.44 933.24 653.70 1110.01 609.39
00003450 00000145 743.20 222.38 470.30 572.34 857.03 412.16 1076.55 364.53 997.44 530.30 935.92 653.18 1109.92 609.14
00003451 00000146 743.53 222.42 469.53 571.30 857.97 410.89 1076.84 363.59 998.23 528.82 937.47 652.66 1109.27 608.86
00003452 00000147 743.57 216.56 471.79 576.32 858.54 409.85 1078.52 362.91 998.17 527.90 937.77 652.47 1110.08 609.07
00003453 00000148 743.41 215.95 474.77 575.95 859.30 408.41 1080.59 362.51 998.26 527.35 937.67 651.20 1110.43 608.71
00003454 00000149 743.69 214.05 477.17 577.98 859.57 408.30 1082.04 361.80 998.70 527.00 937.69 650.98 1112.20 607.99
00003455 00000150 743.31 211.68 479.15 579.99 860.41 408.23 1083.24 361.12 1000.23 526.39 938.63 650.62 1113.98 607.09
00003456 00000151 744.71 210.78 477.72 584.95 861.75 406.50 1085.22 361.61 1000.74 525.51 938.55 650.78 1113.71 609.24
00003457 00000152 743.82 209.48 478.57 587.93 861.57 406.01 1085.01 360.89 1001.27 525.11 938.73 651.33 1113.43 609.62
00003458 00000153 743.80 208.72 479.28 590.25 861.68 405.39 1085.08 360.33 1001.30 525.16 938.63 651.38 1113.52 609.80
00003459 00000154 744.44 207.63 479.95 591.30 861.37 405.26 1084.60 359.70 1000.73 524.15 938.67 650.60 1113.65 608.65
00003460 00000155 745.68 207.87 477.40 593.18 861.43 404.75 1083.83 359.40 1000.51 523.83 937.92 650.33 1112.33 608.77
00003461 00000156 745.74 206.89 476.77 596.93 860.55 404.75 1083.68 359.78 999.32 523.38 936.39 650.80 1112.05 609.48
00003462 00000157 745.11 206.79 476.87 599.44 860.56 405.09 1082.48 359.75 999.51 522.57 935.62 650.90 1110.70 609.38
00003463 00000158 744.45 212.94 474.71 594.45 859.12 404.74 1081.23 359.58 999.18 523.03 935.62 652.89 1108.95 611.51
00003464 00000159 744.96 210.03 472.82 585.90 858.38 407.46 1079.94 360.22 998.58 524.86 937.18 653.03 1110.97 609.61
00003465 00000160 747.97 195.63 471.87 590.32 854.32 407.66 1078.50 360.72 994.88 524.90 931.74 643.18 1116.02 602.35
00003466 00000161 747.25 195.68 475.01 584.86 857.04 403.23 1079.90 359.85 996.01 520.24 932.16 636.70 1115.01 598.59
00003467 00000162 746.32 195.35 476.62 583.15 857.62 398.39 1082.45 356.02 997.18 512.59 933.28 633.51 1117.65 595.86
00003468 00000163 746.43 185.78 475.45 590.20 858.87 393.19 1085.85 349.74 1001.91 506.31 936.65 633.24 1120.31 594.26
00003469 00000164 745.33 184.11 481.46 588.70 866.71 393.64 1090.68 346.50 1009.96 505.35 941.69 634.04 1120.88 590.20
00003470 00000165 750.11 181.71 476.27 591.35 871.60 391.70 1093.26 344.07 1015.60 500.98 946.69 633.19 1122.88 589.05
00003471 00000166 754.95 177.57 473.12 594.84 877.53 390.96 1096.01 343.54 1021.77 497.39 950.26 630.34 1123.78 586.40
