Video ID: 	nqGJkOyVCTk
H: 	1080
W: 	1920
FPS: 	25.0

FRAME INDEX X0 Y0 W H [Landmarks (5 Points)]

00002433 00000000 588.48 179.05 431.00 600.41 763.89 434.49 950.74 411.44 913.62 535.35 812.57 649.66 960.18 631.05
00002434 00000001 585.40 178.79 427.62 602.32 760.99 434.74 942.35 408.67 908.19 540.96 813.08 654.45 950.59 633.71
00002435 00000002 586.28 181.36 426.07 605.46 763.48 437.00 944.44 413.17 910.05 544.14 816.77 659.41 951.97 640.47
00002436 00000003 589.49 183.56 427.16 609.92 767.88 440.81 951.88 418.01 917.23 548.88 820.90 666.61 955.53 648.67
00002437 00000004 596.67 188.60 423.53 607.78 776.53 443.49 959.25 421.76 925.46 551.88 828.28 669.54 961.21 652.45
00002438 DELETE   605.88 186.90 423.98 606.07 788.59 436.61 973.18 421.83 939.88 549.67 838.93 668.94 972.12 653.35
00002439 00000006 611.32 187.30 424.45 605.45 799.20 439.50 985.33 418.27 955.18 550.86 849.20 674.27 984.06 653.51
00002440 00000007 615.85 185.36 423.80 604.67 804.08 438.75 988.72 416.19 960.17 548.78 855.59 673.96 988.12 652.51
00002441 00000008 619.19 186.10 422.87 603.48 802.72 437.51 989.84 416.04 958.11 547.88 855.80 674.20 989.55 653.58
00002442 00000009 624.91 186.24 420.37 603.75 805.00 436.47 994.51 414.80 963.28 546.07 862.64 674.47 996.92 653.99
00002443 00000010 633.87 187.00 418.51 603.47 813.68 437.35 1002.95 415.97 972.53 546.89 869.21 675.44 1004.47 656.46
00002444 00000011 641.48 189.68 419.51 600.76 817.60 442.54 1008.75 422.22 975.13 551.40 869.85 677.44 1007.38 659.74
00002445 00000012 635.82 185.67 433.33 624.44 813.08 457.20 997.42 433.92 964.50 550.31 869.66 675.04 1008.14 657.37
00002446 00000013 637.01 182.45 432.26 631.32 805.76 455.23 989.05 432.20 953.19 547.55 859.89 671.41 1001.94 654.00
00002447 DELETE   637.93 177.38 435.19 631.35 803.59 446.81 988.63 424.66 952.01 539.31 853.53 662.13 1006.16 644.93
00002448 DELETE   653.35 169.68 429.51 634.93 810.16 439.51 997.49 412.88 961.41 535.04 858.14 658.10 1014.97 636.89
00002449 00000016 656.37 168.15 435.50 629.21 819.65 433.01 1008.69 406.32 971.89 535.02 872.20 656.16 1025.48 634.64
00002450 DELETE   668.03 174.97 429.14 618.17 834.19 437.25 1021.17 405.90 986.71 539.52 886.73 657.45 1036.92 631.66
00002451 DELETE   679.09 171.61 429.84 612.97 848.01 428.73 1039.46 404.09 1002.60 534.88 902.29 657.02 1049.50 633.16
00002452 00000019 688.24 171.50 429.54 614.12 856.44 428.09 1049.41 399.23 1009.97 534.31 909.98 657.40 1058.95 629.78
00002453 00000020 695.24 173.82 426.95 610.24 868.27 430.37 1056.41 398.84 1023.32 534.02 922.47 658.60 1067.48 629.26
00002454 00000021 699.47 175.20 427.66 617.27 871.75 435.40 1059.23 401.95 1028.67 540.03 926.12 662.59 1071.79 632.15
00002455 00000022 707.70 174.38 421.03 610.82 876.73 442.67 1067.52 408.92 1036.61 548.95 926.59 663.49 1077.74 634.01
00002456 00000023 718.24 177.30 422.75 608.55 881.46 449.38 1072.30 417.36 1034.43 546.40 935.54 656.38 1094.34 630.17
00002457 00000024 723.49 179.14 426.51 609.11 884.35 450.12 1075.38 415.38 1037.20 547.70 941.78 659.45 1099.01 631.06
00002458 00000025 726.32 179.52 427.63 614.06 883.83 453.31 1074.20 417.51 1035.03 549.64 942.00 663.57 1096.93 634.73
00002459 00000026 729.34 180.81 431.19 609.36 887.36 455.03 1081.10 418.39 1039.02 552.23 943.47 663.76 1101.49 634.10
00002460 00000027 734.59 181.90 432.96 610.92 898.00 454.88 1090.97 418.07 1051.95 554.05 956.34 668.46 1108.71 638.38
00002461 00000028 741.37 183.11 431.38 613.92 910.04 455.88 1099.98 422.07 1061.82 556.23 968.68 672.70 1113.62 644.78
00002462 00000029 748.07 182.74 431.09 611.71 919.77 448.71 1109.61 417.17 1075.01 552.81 979.64 674.54 1120.01 644.85
00002463 00000030 752.77 183.87 429.09 612.22 928.59 450.27 1116.19 417.40 1085.29 558.02 983.94 675.72 1124.40 645.37
00002464 00000031 755.53 185.14 429.23 613.25 933.00 450.33 1121.15 415.30 1092.04 560.45 986.50 677.57 1128.18 645.71
00002465 00000032 755.26 184.45 431.51 615.10 935.64 448.36 1123.52 417.47 1094.14 560.74 985.66 676.20 1127.65 647.91
00002466 00000033 757.15 181.44 432.10 618.68 940.25 445.43 1128.40 416.25 1099.51 558.74 987.41 674.94 1129.63 648.28
00002467 00000034 757.24 180.20 434.03 618.72 942.73 443.01 1131.91 414.83 1102.41 556.87 988.80 673.58 1131.49 647.77
00002468 00000035 757.37 177.85 433.82 620.29 943.15 442.16 1131.79 413.25 1102.92 555.51 990.97 672.72 1132.97 646.09
00002469 00000036 756.52 178.79 433.00 617.66 943.10 441.32 1132.43 412.43 1103.19 555.15 990.26 671.67 1132.23 645.02
00002470 00000037 755.66 180.28 431.76 612.94 942.83 440.76 1131.94 412.90 1102.57 555.15 989.79 671.00 1130.73 645.22
00002471 00000038 754.86 180.87 430.47 610.51 941.79 440.99 1130.79 413.05 1101.62 556.25 987.74 670.07 1128.34 644.41
00002472 00000039 754.62 182.33 429.11 607.23 941.03 441.18 1129.48 415.18 1098.79 557.36 986.47 669.58 1125.68 645.47
00002473 00000040 753.29 182.29 428.52 608.20 938.20 441.64 1127.70 417.00 1095.26 557.84 984.05 670.49 1123.25 647.44
00002474 00000041 752.92 182.52 425.44 607.57 935.61 441.34 1125.30 419.94 1090.52 556.78 982.07 671.13 1119.84 650.62
00002475 00000042 751.59 184.19 425.26 605.26 933.27 440.44 1122.63 420.02 1086.16 555.43 982.48 671.01 1117.32 651.10
00002476 00000043 751.11 183.73 424.60 607.32 929.38 441.52 1118.32 422.62 1080.96 554.34 979.99 672.35 1115.20 653.39
00002477 DELETE   748.37 188.87 428.03 602.60 932.98 446.36 1123.45 428.98 1086.05 554.79 979.57 674.17 1116.09 656.68
00002478 00000045 750.02 183.68 429.22 605.74 937.90 438.06 1129.52 421.33 1094.24 549.69 982.06 669.00 1120.49 652.17
00002479 00000046 752.52 179.71 428.71 603.82 941.62 429.97 1133.04 413.09 1098.76 545.13 984.00 664.12 1123.55 647.73
00002480 00000047 752.98 179.79 426.70 600.03 942.80 430.46 1130.18 411.47 1100.01 543.79 986.89 663.56 1122.73 645.58
00002481 00000048 751.07 176.89 427.76 600.12 943.20 428.41 1129.36 412.27 1099.32 541.87 988.57 661.60 1121.58 645.64
00002482 00000049 753.13 176.80 425.22 601.29 944.83 426.58 1129.07 411.44 1101.45 539.56 990.39 660.73 1121.77 645.80
00002483 00000050 754.10 174.65 425.72 606.89 947.44 424.15 1130.97 409.23 1103.69 538.95 991.01 660.06 1122.92 645.57
00002484 00000051 756.05 174.78 424.56 608.81 949.74 424.30 1132.97 409.83 1105.45 539.16 990.96 659.74 1123.61 645.81
00002485 00000052 756.89 176.25 423.24 605.87 951.11 424.05 1132.80 409.64 1106.07 539.45 990.20 658.96 1123.46 645.52
00002486 00000053 755.39 174.41 425.46 610.02 950.37 422.94 1133.49 408.42 1105.46 538.33 988.81 659.00 1122.66 645.32
00002487 00000054 753.78 174.93 425.84 609.96 949.20 423.84 1132.71 409.48 1104.81 539.66 986.04 658.69 1119.76 645.26
00002488 00000055 749.56 176.20 427.61 609.20 946.12 425.55 1130.26 411.24 1102.46 542.84 982.77 660.76 1116.10 647.25
00002489 00000056 745.81 178.12 428.70 607.98 943.09 428.48 1126.58 412.36 1100.56 545.12 979.73 662.02 1111.66 647.14
00002490 00000057 744.08 181.03 423.62 604.25 937.32 437.58 1117.93 414.23 1088.92 547.04 976.85 661.73 1110.27 643.71
00002491 00000058 743.05 181.37 423.24 601.10 935.78 437.19 1116.61 415.07 1087.42 545.41 976.53 660.41 1109.25 643.39
00002492 00000059 742.51 181.86 429.81 596.16 945.68 429.60 1125.91 418.01 1100.16 543.01 981.27 657.56 1111.87 646.46
00002493 00000060 742.79 190.18 428.22 588.10 958.14 438.64 1132.09 431.06 1113.78 548.21 987.53 658.50 1117.00 651.29
00002494 DELETE   746.44 191.74 425.14 586.47 967.42 442.53 1137.63 439.49 1123.35 548.08 994.80 658.70 1120.55 655.28
00002495 DELETE   745.82 192.11 425.16 586.44 969.32 442.63 1136.64 441.51 1122.30 548.66 995.04 659.12 1118.64 657.33
00002496 00000063 742.32 194.25 426.65 585.84 965.01 438.74 1132.87 437.71 1119.25 548.27 991.29 660.33 1113.44 658.63
00002497 00000064 730.51 187.30 436.53 602.02 954.90 440.07 1127.13 433.90 1116.53 545.53 983.97 652.95 1116.78 650.00
00002498 00000065 729.83 188.29 435.36 601.67 955.29 438.52 1126.61 436.11 1114.50 547.17 981.62 652.77 1112.57 652.94
00002499 00000066 728.56 188.62 435.90 601.54 956.00 438.17 1125.63 435.17 1115.29 547.08 981.76 653.17 1110.74 653.03
00002500 00000067 726.28 189.34 437.37 600.66 954.57 437.94 1123.75 435.99 1113.10 547.30 980.44 652.95 1108.52 653.66
00002501 00000068 722.03 188.70 440.18 599.71 952.43 436.15 1121.25 436.90 1111.10 546.08 977.43 651.54 1104.63 654.45
00002502 00000069 720.22 188.14 440.20 599.43 950.89 434.37 1119.76 436.19 1108.63 544.94 976.23 650.42 1102.23 654.09
00002503 00000070 720.40 189.17 437.64 599.20 949.91 432.90 1118.24 435.40 1106.91 545.56 974.15 651.11 1099.70 655.40
00002504 00000071 718.68 188.87 436.12 599.39 946.63 431.98 1116.51 434.50 1103.64 544.89 972.11 650.87 1097.08 655.21
00002505 00000072 717.61 188.63 433.83 594.09 943.80 427.89 1116.40 434.09 1100.89 541.38 973.77 647.65 1099.44 654.30
00002506 00000073 719.42 189.03 425.09 587.06 943.80 427.07 1106.63 425.94 1092.85 536.32 974.90 647.87 1090.74 648.67
00002507 00000074 716.75 189.43 425.45 586.87 942.11 423.62 1105.98 425.25 1091.46 534.42 971.61 645.17 1089.28 648.10
00002508 00000075 712.57 188.74 428.47 591.40 942.84 421.35 1104.85 426.11 1091.94 534.06 968.53 645.20 1085.04 650.94
00002509 00000076 712.70 187.79 426.51 596.43 945.14 420.07 1103.71 427.26 1093.62 532.99 968.73 645.73 1083.33 653.40
00002510 00000077 710.26 189.17 432.25 601.31 949.60 416.49 1108.21 432.19 1105.12 536.44 963.98 643.46 1084.18 658.31
00002511 00000078 711.52 193.94 430.15 609.97 951.47 415.31 1108.54 432.37 1110.11 542.14 952.28 648.70 1077.29 665.78
00002512 00000079 706.28 193.12 430.16 600.89 947.38 416.19 1106.01 435.33 1102.26 540.35 955.93 643.89 1077.43 662.20
00002513 00000080 704.81 189.88 427.04 602.51 943.44 417.90 1102.24 428.84 1092.90 538.77 960.43 647.64 1075.08 658.47
00002514 00000081 715.05 192.13 408.82 589.16 949.74 417.35 1108.37 437.24 1097.51 545.84 958.65 650.27 1070.37 666.05
00002515 00000082 715.38 194.05 403.81 585.40 948.49 417.74 1106.11 440.20 1092.50 547.60 954.97 650.72 1063.94 668.91
00002516 00000083 713.65 196.72 403.12 583.13 945.75 420.26 1105.40 442.64 1088.98 550.60 953.14 652.69 1063.69 670.38
00002517 00000084 709.37 202.39 402.23 580.59 943.61 424.83 1101.35 448.91 1086.20 553.25 948.63 655.34 1055.65 674.56
00002518 00000085 704.74 205.12 406.91 579.69 939.06 424.11 1097.57 451.40 1079.81 554.81 939.41 655.55 1047.41 677.51
00002519 00000086 697.65 199.71 411.37 584.95 932.46 417.35 1091.70 448.24 1073.80 549.28 931.21 650.91 1042.08 675.84
00002520 00000087 696.43 193.62 413.46 584.73 929.71 410.47 1092.93 440.84 1073.03 542.85 930.02 644.79 1046.28 669.39
00002521 00000088 701.28 197.32 410.76 577.20 932.48 412.04 1097.39 441.64 1074.54 543.00 932.04 641.64 1051.83 665.86
00002522 00000089 706.11 200.48 407.99 578.52 937.83 417.82 1103.30 449.44 1077.97 550.97 933.46 647.91 1051.92 673.65
00002523 00000090 707.87 206.81 408.24 574.18 942.67 422.12 1108.89 452.19 1084.56 556.62 938.22 652.65 1055.85 677.04
00002524 00000091 710.77 208.08 407.34 574.25 947.95 419.70 1108.95 451.17 1087.69 555.57 944.04 652.68 1057.44 678.12
00002525 00000092 712.85 207.42 404.58 574.95 950.07 417.72 1104.93 448.75 1088.81 553.21 944.75 650.92 1054.46 676.35
00002526 00000093 713.05 205.59 404.97 574.62 949.52 416.06 1104.24 446.32 1089.37 550.73 943.78 648.09 1054.28 673.12
00002527 00000094 710.13 206.07 408.15 576.14 946.84 417.80 1107.13 448.03 1087.05 551.49 938.60 646.14 1055.87 671.22
00002528 00000095 708.70 207.73 409.32 575.06 944.90 421.52 1107.91 449.68 1084.78 553.88 935.59 647.34 1054.47 670.89
00002529 00000096 709.62 208.18 410.05 573.33 945.08 423.77 1110.14 450.91 1086.27 556.05 936.69 648.57 1056.07 671.39
00002530 00000097 702.36 200.63 427.14 592.75 942.59 425.40 1102.35 446.55 1084.06 553.07 946.85 646.41 1061.09 665.83
00002531 00000098 710.40 203.29 424.04 582.22 949.83 426.68 1107.04 451.31 1090.90 556.96 949.98 644.15 1065.19 666.76
00002532 00000099 714.52 206.50 427.60 579.66 960.82 430.06 1112.73 452.92 1100.08 559.31 964.43 650.61 1070.20 671.59
00002533 00000100 716.75 212.31 427.75 582.82 967.41 433.49 1114.44 456.34 1106.36 562.65 970.73 657.28 1071.91 678.55
00002534 00000101 717.22 212.41 428.56 595.77 971.18 433.57 1113.61 460.13 1106.88 564.49 962.41 658.65 1064.66 683.50
00002535 00000102 720.33 217.06 426.73 599.94 977.25 435.80 1110.12 466.91 1112.07 564.69 960.88 654.00 1060.01 680.34
00002536 00000103 723.50 215.47 426.31 584.15 974.22 432.58 1118.66 456.89 1111.87 562.31 967.36 653.95 1073.28 676.92
00002537 00000104 722.25 212.29 428.43 579.72 971.25 431.46 1120.41 454.17 1112.36 559.07 970.07 651.00 1079.62 672.43
00002538 00000105 718.76 209.86 430.85 583.26 964.76 429.90 1118.43 453.81 1106.44 558.39 965.93 650.88 1078.38 672.82
00002539 00000106 716.44 207.17 428.99 588.08 961.39 427.80 1116.20 454.84 1100.67 558.52 964.93 652.36 1075.44 676.46
00002540 00000107 718.37 209.59 429.33 585.27 966.22 427.89 1116.80 455.25 1104.08 558.48 970.23 652.70 1076.48 676.96
00002541 00000108 724.22 216.91 428.85 578.98 974.71 433.27 1119.69 458.58 1111.13 560.02 975.23 653.51 1078.75 676.45
00002542 00000109 729.41 221.43 424.69 576.69 979.19 435.64 1121.07 461.17 1112.95 562.44 976.76 654.36 1077.82 677.79
00002543 00000110 737.33 223.50 418.50 584.12 986.38 437.52 1122.84 471.63 1116.50 563.33 979.17 656.21 1076.39 683.62
00002544 00000111 739.31 227.76 420.26 580.26 986.90 439.86 1128.01 470.17 1120.80 565.11 975.85 654.20 1079.91 679.29
00002545 00000112 741.39 229.77 419.94 577.26 988.92 441.73 1130.53 471.16 1123.09 565.88 977.22 654.64 1082.86 679.24
00002546 00000113 740.30 222.23 421.65 585.78 987.38 436.63 1128.52 465.13 1121.05 569.82 969.88 654.83 1076.72 682.11
00002547 00000114 745.35 229.55 416.01 574.22 995.35 445.07 1132.80 473.73 1128.55 568.65 980.56 655.61 1081.57 679.70
00002548 00000115 746.35 221.75 417.67 582.22 995.19 436.15 1134.86 463.39 1127.99 568.72 982.61 655.48 1084.65 681.61
00002549 00000116 752.31 225.88 415.09 572.02 1000.88 442.91 1141.02 471.78 1134.20 567.19 987.50 656.12 1089.80 680.16
00002550 00000117 746.41 223.65 419.59 578.67 997.71 435.39 1136.75 462.36 1131.85 566.72 988.13 655.58 1088.95 681.19
00002551 00000118 746.51 222.17 419.98 577.68 998.51 434.90 1136.41 462.08 1131.96 566.15 989.26 654.02 1089.05 679.73
00002552 00000119 751.65 223.15 416.18 570.76 1002.60 441.55 1142.48 470.13 1135.61 564.52 990.78 654.25 1092.52 677.92
00002553 00000120 750.45 223.51 417.43 570.74 1001.96 441.73 1142.97 469.37 1136.44 565.42 989.71 655.24 1092.40 678.25
00002554 00000121 749.88 224.68 417.58 569.34 1000.88 441.61 1143.66 470.14 1135.41 565.50 987.96 654.69 1092.29 678.37
00002555 00000122 747.83 227.34 420.77 569.25 1002.36 443.49 1140.26 470.55 1134.86 569.51 982.49 651.40 1087.49 674.92
00002556 00000123 746.75 220.54 423.64 581.60 996.08 436.47 1135.15 463.25 1129.41 569.19 970.62 647.64 1078.75 674.68
00002557 00000124 747.87 221.00 422.12 581.47 998.09 435.78 1135.72 463.00 1131.97 569.64 970.42 646.58 1078.82 674.14
00002558 00000125 744.99 227.04 423.18 572.58 1001.58 445.65 1136.77 471.01 1135.03 572.41 975.43 647.56 1083.02 670.75
00002559 00000126 740.99 227.07 425.23 573.14 998.40 443.96 1136.42 468.09 1133.42 571.04 978.38 652.43 1085.20 673.81
00002560 00000127 737.27 223.53 428.22 577.52 998.25 442.87 1136.96 467.95 1131.61 571.82 980.17 653.81 1085.50 675.50
00002561 00000128 736.18 220.65 429.36 582.33 999.57 441.66 1136.78 468.32 1132.25 570.78 980.50 654.17 1084.23 677.02
00002562 00000129 735.42 219.74 431.06 585.01 1000.36 441.41 1138.58 468.40 1134.05 572.72 978.42 654.80 1084.48 678.23
00002563 00000130 734.00 218.71 433.98 587.71 998.26 442.98 1138.58 471.04 1132.32 575.55 971.42 652.93 1082.30 677.93
00002564 00000131 730.06 219.95 436.30 589.31 995.88 444.79 1133.79 472.83 1129.26 577.47 965.99 650.47 1077.44 675.82
00002565 00000132 731.22 208.57 431.88 601.77 987.68 438.38 1128.13 466.12 1122.69 575.94 955.03 650.39 1069.55 678.93
00002566 00000133 727.62 207.04 432.26 608.85 979.17 448.99 1123.37 477.28 1112.79 580.30 942.28 652.67 1063.36 681.33
00002567 DELETE   711.99 204.52 436.46 624.11 968.70 453.25 1110.32 478.95 1103.02 584.16 936.40 662.18 1054.57 685.12
00002568 DELETE   697.88 205.03 444.27 623.02 939.82 443.73 1096.31 466.12 1071.77 578.43 918.92 663.80 1046.69 683.33
00002569 00000136 701.27 201.87 431.65 617.63 925.73 443.05 1099.37 458.70 1068.04 570.07 911.25 666.16 1054.24 679.94
00002570 00000137 699.66 197.66 429.41 614.44 923.88 437.54 1093.87 448.86 1068.86 560.53 919.91 664.52 1056.15 674.07
00002571 00000138 695.66 185.45 437.14 631.41 919.99 433.21 1089.48 442.49 1067.46 557.20 927.60 659.23 1059.63 669.40
00002572 00000139 695.31 184.16 436.44 626.97 924.78 433.91 1092.89 439.41 1074.80 556.69 931.53 659.19 1060.90 666.44
00002573 00000140 706.31 191.17 420.74 607.62 936.22 434.43 1104.08 442.91 1086.65 562.20 935.40 662.56 1065.47 670.19
00002574 00000141 691.40 194.70 441.50 616.68 942.45 432.53 1097.95 447.17 1088.64 562.72 938.08 659.05 1056.39 671.80
00002575 DELETE   695.93 198.59 444.88 619.77 956.24 437.37 1103.15 453.88 1102.05 570.01 938.22 661.47 1052.75 676.78
00002576 00000143 700.50 198.98 441.30 627.05 963.04 438.18 1100.82 455.72 1109.45 573.78 935.72 663.75 1047.04 680.93
00002577 00000144 706.16 201.22 438.38 627.93 965.70 441.95 1103.58 458.62 1115.15 575.60 936.31 664.95 1049.14 681.84
00002578 00000145 709.68 197.28 438.49 637.31 963.52 435.08 1111.03 448.56 1117.30 574.32 927.85 662.88 1057.32 680.21
00002579 00000146 709.91 205.61 438.31 622.72 970.55 436.15 1106.31 456.35 1117.85 568.86 940.10 656.86 1052.91 676.24
00002580 00000147 712.22 196.81 438.11 629.89 968.69 427.74 1112.33 444.75 1120.04 566.42 935.43 655.73 1060.44 675.48
00002581 00000148 710.65 195.82 439.85 620.73 967.69 429.78 1113.13 444.68 1120.06 564.96 940.35 653.82 1064.43 671.66
00002582 00000149 710.23 195.93 439.51 611.93 966.69 434.80 1114.68 443.31 1121.51 565.04 947.37 655.29 1069.36 667.99
00002583 00000150 707.06 195.20 442.23 609.99 964.56 437.73 1114.82 443.26 1119.78 566.05 953.59 659.07 1071.91 668.98
00002584 DELETE   703.93 192.20 445.84 613.47 962.37 439.86 1114.90 443.01 1118.72 569.61 954.51 664.16 1071.67 671.82
00002585 00000152 704.06 195.43 446.73 611.80 961.11 442.51 1116.32 447.70 1115.60 573.02 954.53 667.53 1071.68 676.47
00002586 00000153 703.94 196.67 449.87 615.43 965.64 442.23 1116.56 450.80 1117.80 577.66 951.83 668.47 1067.01 680.50
00002587 00000154 705.51 200.86 449.89 612.48 966.91 444.38 1115.91 453.45 1116.62 581.29 951.45 670.20 1064.67 682.71
CROP_BBOX: 352 0 1430 1063
