Video ID: 	Sz5wAJ5fBEA
H: 	1080
W: 	1920
FPS: 	25.0

FRAME INDEX X0 Y0 W H [Landmarks (5 Points)]

00002666 00000000 795.13 227.89 391.69 525.22 874.04 439.11 1047.65 431.20 955.36 552.72 908.62 642.59 1042.84 635.38
00002667 00000001 788.46 228.57 397.85 524.59 866.53 439.27 1041.74 431.06 946.92 553.97 902.84 642.54 1037.31 635.26
00002668 00000002 782.30 229.85 401.54 519.56 860.82 438.76 1034.82 431.60 939.96 551.73 897.69 639.51 1032.34 632.98
00002669 00000003 781.39 230.77 402.34 517.50 858.40 438.56 1031.54 431.92 936.38 550.42 894.13 636.25 1031.25 630.20
00002670 00000004 782.52 231.17 402.24 517.14 859.67 439.10 1031.87 432.58 937.06 549.20 894.87 634.74 1032.27 628.79
00002671 00000005 784.68 232.51 401.23 516.26 860.49 439.49 1034.08 433.14 937.40 549.71 894.20 635.04 1033.72 629.30
00002672 00000006 787.28 231.36 399.44 521.62 861.08 440.67 1033.93 434.54 936.21 550.65 894.58 636.53 1033.61 631.16
00002673 00000007 790.07 233.00 398.61 525.57 861.31 441.23 1030.87 435.10 932.27 551.12 895.97 639.20 1030.13 633.95
00002674 00000008 792.28 234.39 397.71 534.30 862.71 440.36 1028.75 433.87 929.84 551.20 897.93 644.08 1025.26 639.07
00002675 00000009 796.90 231.15 394.45 542.16 864.03 439.32 1026.99 432.78 926.35 547.52 897.64 647.00 1019.11 642.35
00002676 00000010 798.43 230.20 395.09 542.79 863.91 438.94 1026.55 433.05 923.23 547.25 896.00 646.14 1017.58 642.18
00002677 00000011 797.40 221.17 404.75 552.03 859.09 433.84 1029.08 432.54 917.64 546.25 892.38 644.37 1012.98 642.11
00002678 DELETE   800.23 225.61 402.48 535.83 854.18 430.95 1024.75 429.69 911.22 542.48 885.09 644.17 1001.61 641.86
00002679 00000013 806.79 222.38 393.39 535.85 852.42 417.12 1013.68 422.52 896.30 536.52 879.18 638.58 989.00 641.72
00002680 00000014 810.87 220.93 386.85 535.86 853.69 410.96 1007.64 419.66 885.39 527.43 872.57 636.00 974.98 642.39
00002681 00000015 812.25 220.03 382.56 540.02 851.82 407.11 1001.44 418.24 875.84 523.05 867.69 632.93 965.76 641.47
00002682 00000016 814.50 220.93 378.71 540.61 851.36 405.42 998.92 418.29 870.82 521.09 865.17 631.91 962.56 641.91
00002683 00000017 814.13 222.96 377.85 540.30 850.32 405.44 997.20 417.88 869.84 523.03 867.17 634.05 964.48 643.49
00002684 00000018 809.37 225.19 386.04 540.80 845.67 408.21 994.81 418.96 868.67 527.01 866.54 636.83 966.16 644.73
00002685 00000019 807.27 223.56 385.43 541.78 841.47 413.13 992.24 422.63 866.08 530.36 861.57 640.02 961.69 647.44
00002686 00000020 806.11 229.84 387.13 538.07 842.06 416.75 996.49 427.53 869.82 531.96 862.01 639.97 965.24 648.17
00002687 00000021 801.99 229.23 394.45 544.02 846.08 422.27 1000.89 427.32 878.34 533.09 870.00 643.36 974.08 646.81
00002688 DELETE   799.67 223.78 397.54 558.02 847.84 424.71 1004.29 425.16 885.95 536.47 879.65 644.32 990.38 643.33
00002689 00000023 800.57 219.32 401.06 562.44 848.16 425.96 1005.27 421.54 889.71 538.39 887.06 645.19 1001.39 640.07
00002690 00000024 801.49 218.99 403.63 559.36 849.97 428.66 1009.01 423.18 894.81 542.52 891.28 645.11 1007.94 639.13
00002691 00000025 803.47 222.49 405.96 560.37 850.99 434.69 1011.94 425.09 898.41 545.74 895.90 651.07 1011.28 641.67
00002692 00000026 808.52 228.43 405.29 554.88 854.68 440.24 1010.59 431.73 898.39 554.05 900.83 654.72 1013.95 645.65
00002693 00000027 810.80 230.44 405.44 560.52 857.78 442.67 1012.65 434.20 901.20 558.31 908.07 655.83 1025.33 646.78
00002694 00000028 812.82 231.76 407.81 564.42 863.80 443.03 1019.65 435.06 907.45 559.90 910.54 653.36 1034.93 645.19
00002695 DELETE   818.50 235.74 410.49 560.60 871.79 439.90 1032.59 433.73 918.16 559.08 916.46 652.54 1044.52 646.23
00002696 00000030 831.62 232.64 406.75 560.95 882.85 439.13 1042.32 435.18 927.89 560.88 925.71 650.91 1049.35 646.79
00002697 00000031 842.94 234.97 404.65 552.97 895.64 437.37 1055.14 438.14 944.24 564.34 936.26 648.66 1057.86 648.38
00002698 DELETE   843.07 237.94 405.50 548.08 909.73 440.96 1073.03 438.15 966.93 554.05 942.46 650.97 1071.91 648.80
00002699 DELETE   845.90 227.64 416.01 554.60 915.03 444.04 1079.24 433.47 972.27 562.35 958.43 656.69 1086.42 647.79
00002700 00000034 850.90 229.86 404.66 540.46 919.49 442.50 1084.92 436.53 983.31 549.95 953.90 644.94 1085.51 640.67
00002701 00000035 850.56 222.71 406.74 544.45 920.49 436.10 1086.67 430.98 987.25 544.87 957.42 640.11 1087.28 636.31
00002702 00000036 855.31 216.08 404.98 541.88 923.35 433.59 1089.29 429.41 988.32 542.63 957.73 632.48 1090.22 629.57
00002703 00000037 857.95 217.28 413.48 528.30 924.07 428.65 1091.81 422.53 992.03 544.51 964.72 627.63 1098.56 620.81
00002704 00000038 861.28 217.73 411.67 525.36 924.80 427.77 1093.69 420.78 992.96 543.27 965.45 628.74 1099.33 621.33
00002705 00000039 861.79 219.86 411.30 524.01 925.68 427.77 1095.16 419.56 994.83 541.82 967.62 629.38 1100.88 621.01
00002706 00000040 859.59 221.26 412.77 522.94 924.64 428.18 1095.17 419.20 994.68 541.69 967.48 629.36 1103.04 620.25
00002707 00000041 857.06 219.35 414.47 525.56 924.06 428.43 1095.31 419.76 995.03 541.64 966.14 627.63 1103.79 618.65
00002708 00000042 858.37 219.74 412.95 524.21 924.70 427.88 1095.91 419.92 994.91 541.44 965.45 626.02 1104.37 617.63
00002709 00000043 858.07 219.56 413.60 524.54 924.54 427.31 1096.52 420.74 994.52 542.04 962.96 624.61 1104.31 617.32
00002710 00000044 856.19 217.84 414.24 526.41 923.72 427.60 1095.50 421.71 993.95 542.54 961.64 623.75 1103.14 616.97
00002711 00000045 854.95 217.16 414.26 529.58 922.94 427.53 1095.15 423.34 993.43 544.97 959.12 623.61 1101.40 618.34
00002712 00000046 852.49 221.28 413.87 524.52 921.35 427.51 1093.66 424.08 993.65 547.56 958.17 624.46 1099.70 619.63
00002713 00000047 851.80 224.69 413.67 521.67 920.52 428.56 1093.21 425.53 993.60 549.25 956.81 626.84 1098.03 622.16
00002714 00000048 851.90 224.64 412.68 522.89 920.38 429.85 1093.44 427.07 993.93 550.96 956.52 629.24 1096.58 624.83
00002715 00000049 851.07 224.86 411.26 525.56 919.83 431.91 1092.70 429.46 993.31 553.20 956.36 631.66 1095.14 627.50
00002716 00000050 848.57 226.19 409.27 522.96 918.17 432.84 1091.17 430.91 992.67 555.53 954.37 632.44 1093.24 628.81
00002717 00000051 846.62 228.29 406.56 521.76 916.01 433.99 1089.09 431.52 991.08 556.55 952.85 634.78 1089.94 630.85
00002718 00000052 844.68 229.75 403.61 521.64 915.27 431.69 1087.13 431.21 988.82 554.78 951.58 633.66 1085.46 631.23
00002719 00000053 841.73 226.34 405.09 524.51 912.29 430.27 1085.87 430.45 985.54 551.15 947.82 633.92 1082.14 632.10
00002720 00000054 840.30 223.84 404.00 526.51 910.52 429.71 1084.61 431.45 982.50 550.21 942.72 632.84 1076.54 632.71
00002721 00000055 840.27 225.65 403.14 523.61 910.12 429.24 1084.31 432.82 981.10 550.68 940.30 632.42 1073.95 633.96
00002722 00000056 840.86 225.92 401.57 524.78 911.04 429.27 1086.01 434.55 982.26 552.25 939.17 632.81 1073.06 635.83
00002723 00000057 840.78 227.52 402.12 524.28 912.46 429.35 1087.03 436.13 983.30 555.13 939.92 633.11 1073.58 637.27
00002724 00000058 841.38 227.52 401.25 523.50 913.73 428.31 1088.17 437.01 984.66 554.63 939.14 632.12 1072.00 638.00
00002725 00000059 842.09 226.61 399.66 523.74 913.79 427.17 1089.32 438.41 983.87 554.34 936.40 630.91 1069.81 638.99
00002726 00000060 843.10 225.11 398.16 525.85 914.51 425.87 1090.24 438.73 984.50 554.36 934.39 629.74 1068.08 639.35
00002727 00000061 843.82 224.73 398.09 526.95 916.17 423.51 1091.00 438.64 984.97 553.30 934.18 628.12 1067.26 639.62
00002728 00000062 844.00 222.81 398.42 529.33 916.93 421.34 1092.83 439.02 985.63 552.50 932.44 626.42 1066.46 640.05
00002729 00000063 844.67 223.33 398.17 529.15 918.58 418.97 1092.79 439.37 984.55 551.10 931.50 625.73 1064.07 641.60
00002730 00000064 844.11 224.04 399.81 528.74 918.63 416.32 1093.52 440.05 984.00 549.78 928.65 623.98 1062.07 642.59
00002731 00000065 844.61 224.57 398.16 528.91 918.98 415.39 1092.50 441.63 982.35 548.59 926.83 622.74 1059.80 643.53
00002732 00000066 843.24 227.11 398.80 526.94 919.92 415.86 1095.20 444.27 983.51 549.57 926.07 622.88 1059.10 645.42
00002733 00000067 845.37 228.86 397.98 526.07 922.22 415.19 1097.55 446.30 985.35 550.59 926.55 621.70 1059.79 646.39
00002734 00000068 846.54 233.00 397.10 521.29 923.08 416.43 1098.96 447.60 986.24 551.43 926.48 622.26 1060.61 646.87
00002735 00000069 844.55 233.24 398.39 520.48 922.67 416.92 1099.41 448.44 986.36 551.67 926.44 622.08 1060.21 646.96
00002736 00000070 846.14 232.85 397.33 521.23 924.10 418.13 1100.07 449.22 986.99 551.99 927.88 623.15 1060.98 647.64
00002737 00000071 846.40 232.65 396.89 521.58 924.23 419.95 1100.38 449.80 987.37 552.83 928.68 624.39 1061.40 647.95
00002738 00000072 847.03 231.87 396.02 522.32 925.34 420.63 1101.16 450.33 988.65 553.55 929.78 624.31 1062.31 647.75
00002739 00000073 849.49 235.76 396.69 519.26 928.63 421.93 1103.56 451.47 990.91 553.81 932.17 624.95 1063.68 648.14
00002740 00000074 852.24 237.11 397.53 518.85 932.49 421.82 1106.68 452.23 993.93 553.75 934.48 624.55 1065.94 648.36
00002741 00000075 852.82 236.62 399.27 520.69 934.32 422.39 1109.64 452.78 996.57 553.64 935.36 625.23 1068.37 649.08
00002742 00000076 855.66 232.14 396.71 522.76 939.94 428.72 1110.52 454.67 994.45 549.61 929.70 627.61 1064.51 648.44
00002743 00000077 858.24 232.51 395.68 522.72 942.18 429.79 1112.38 454.11 997.68 550.00 933.13 628.79 1067.08 648.36
00002744 00000078 860.38 228.95 393.67 525.74 943.44 429.97 1112.87 453.66 998.83 550.37 936.01 629.40 1069.16 648.53
00002745 00000079 862.01 230.38 393.61 524.07 944.38 429.90 1114.14 452.45 999.58 550.05 937.95 630.09 1070.17 648.37
00002746 00000080 862.94 230.22 393.17 523.99 945.41 430.01 1115.29 452.14 1000.88 550.48 939.48 630.38 1071.19 648.41
00002747 00000081 865.24 227.13 391.72 526.49 946.62 429.13 1116.46 452.52 1000.97 550.78 940.07 629.88 1071.18 649.05
00002748 00000082 866.20 226.51 392.34 525.28 947.83 428.47 1117.87 452.35 1002.21 550.83 940.74 628.62 1072.17 648.20
00002749 00000083 865.10 226.18 393.93 525.49 949.97 427.05 1120.17 451.59 1005.15 549.94 942.53 627.18 1072.99 647.24
00002750 00000084 865.65 223.36 394.06 528.45 950.70 426.63 1120.57 450.85 1006.53 549.41 943.96 627.40 1072.80 647.24
00002751 00000085 865.80 223.55 393.22 529.35 951.46 426.72 1121.39 451.50 1007.23 549.97 944.63 627.70 1073.51 647.98
00002752 00000086 865.05 226.17 394.65 528.06 952.25 427.92 1122.17 453.40 1008.14 551.67 944.32 628.55 1071.84 649.35
00002753 00000087 866.00 226.03 393.65 530.23 952.45 428.83 1122.78 454.76 1008.40 552.29 944.78 629.47 1072.55 650.74
00002754 00000088 866.03 230.26 393.29 526.81 952.54 430.18 1122.95 456.38 1008.02 552.76 944.64 630.23 1072.35 651.74
00002755 00000089 866.48 231.29 394.54 527.63 952.61 431.05 1123.86 458.13 1007.89 554.14 944.63 631.60 1072.82 653.80
00002756 00000090 865.92 233.59 395.71 525.12 952.72 431.36 1123.83 458.22 1008.14 554.06 944.99 631.57 1072.69 653.55
00002757 00000091 864.41 234.93 397.34 524.23 952.69 431.89 1123.96 458.39 1008.33 553.60 944.38 632.03 1072.52 653.66
00002758 00000092 863.20 233.94 398.13 525.94 952.28 431.85 1123.72 458.47 1008.41 554.37 944.68 632.89 1072.13 654.57
00002759 00000093 862.34 237.50 398.81 522.46 952.64 431.95 1124.17 458.35 1009.31 555.19 944.38 633.39 1072.28 654.87
00002760 00000094 861.26 238.81 399.62 524.20 952.88 432.54 1125.45 459.18 1010.09 554.69 943.82 633.63 1073.18 655.39
00002761 00000095 861.04 240.29 399.26 522.71 953.31 432.30 1126.22 459.30 1011.09 556.00 943.06 634.12 1072.94 656.12
00002762 00000096 861.00 240.30 399.05 523.61 953.83 432.32 1126.46 459.33 1011.61 556.23 942.77 634.26 1072.47 656.39
00002763 00000097 860.45 242.05 398.66 523.38 954.57 432.92 1127.09 459.42 1013.38 556.44 943.14 635.16 1073.11 657.02
00002764 00000098 860.69 244.19 398.68 521.03 954.61 433.14 1127.40 460.19 1012.11 556.15 941.96 634.90 1072.68 657.21
00002765 00000099 860.48 243.85 398.85 522.06 954.55 433.60 1127.98 460.37 1013.26 556.99 941.70 636.41 1072.93 658.48
00002766 00000100 860.84 243.70 398.02 522.04 954.60 434.08 1127.66 460.57 1013.40 557.48 941.91 636.40 1073.06 658.37
00002767 00000101 859.98 244.84 398.31 521.46 954.68 434.10 1127.66 460.51 1013.85 557.47 941.40 636.85 1072.18 658.76
00002768 00000102 859.89 244.78 397.72 521.27 954.67 434.41 1127.53 460.38 1014.22 557.28 941.57 636.77 1072.28 658.36
00002769 00000103 859.63 243.91 396.75 521.86 954.14 434.49 1126.99 460.76 1013.50 558.04 941.14 636.69 1072.22 658.55
00002770 00000104 858.64 245.41 397.37 521.25 953.89 434.97 1127.03 460.63 1013.75 558.23 940.86 637.47 1071.89 658.87
00002771 00000105 858.83 245.08 397.21 521.17 953.87 434.86 1127.07 460.81 1013.44 558.57 940.34 637.44 1071.97 659.07
00002772 00000106 858.82 246.11 397.04 519.30 954.05 435.10 1127.27 460.28 1014.77 558.42 941.60 637.41 1072.62 658.40
00002773 00000107 858.73 245.43 397.05 519.36 954.17 434.85 1127.24 460.21 1015.13 557.98 941.73 637.24 1072.03 658.32
00002774 00000108 858.49 245.13 397.88 520.03 954.32 434.77 1127.57 459.73 1015.24 557.82 942.14 637.38 1072.64 658.11
00002775 00000109 858.16 245.05 397.69 520.82 954.88 435.10 1128.09 459.53 1016.84 558.11 943.27 638.60 1073.40 658.92
00002776 00000110 858.62 244.24 397.77 521.99 955.07 434.92 1128.23 458.98 1017.37 558.17 944.25 638.98 1074.06 659.02
00002777 00000111 860.11 243.95 397.14 522.10 955.76 434.51 1129.40 458.04 1018.35 557.46 945.43 639.40 1075.17 659.02
00002778 00000112 862.82 242.96 396.85 521.64 956.91 434.37 1130.10 459.42 1018.57 558.51 946.86 639.41 1076.13 660.01
00002779 00000113 863.68 244.14 397.92 520.16 959.55 434.17 1132.40 460.07 1021.30 559.11 949.48 639.10 1077.95 660.31
00002780 00000114 864.45 245.52 398.65 516.75 961.38 433.99 1134.81 460.58 1022.82 559.26 951.39 638.47 1080.62 660.20
00002781 00000115 865.59 244.67 399.40 517.52 962.77 433.62 1136.19 460.14 1024.39 559.75 953.87 638.56 1082.54 660.24
00002782 00000116 865.79 243.46 400.10 519.46 964.54 432.63 1138.37 460.73 1026.01 561.26 955.53 638.23 1083.45 661.20
00002783 00000117 868.22 238.58 398.67 524.44 965.55 432.34 1139.89 462.31 1027.34 562.13 956.57 638.14 1084.49 662.50
00002784 00000118 868.75 237.29 398.38 526.24 966.10 432.06 1141.08 462.93 1028.40 562.41 957.04 639.00 1084.75 664.08
00002785 00000119 869.82 240.36 397.55 521.63 967.37 431.62 1142.28 462.42 1029.45 562.84 958.55 639.24 1085.76 664.24
00002786 00000120 870.73 239.24 397.68 522.69 969.09 432.12 1143.58 462.92 1031.61 562.77 960.28 638.45 1087.49 663.54
00002787 00000121 873.23 239.37 396.58 521.65 970.61 433.06 1144.96 463.57 1033.61 562.63 962.63 639.12 1089.47 663.96
00002788 00000122 875.30 239.39 396.59 522.57 973.78 434.46 1148.35 465.98 1036.81 563.68 965.03 639.66 1092.77 665.29
00002789 00000123 879.40 241.87 398.84 522.08 980.47 434.96 1156.81 472.27 1045.92 568.44 966.31 628.79 1097.74 659.63
CROP_BBOX: 528 0 1545 1008
