Video ID: 	EVijpXHIx9o
H: 	1080
W: 	1920
FPS: 	25.0

FRAME INDEX X0 Y0 W H [Landmarks (5 Points)]

00009826 00000000 757.76 304.67 419.71 560.41 937.67 544.61 1144.81 553.21 1092.50 677.70 973.96 794.45 1106.95 801.28
00009827 00000001 742.72 297.44 432.66 581.85 929.92 544.65 1136.53 552.86 1078.71 678.94 963.65 797.15 1094.82 803.67
00009828 DELETE   712.76 292.28 460.67 598.88 900.69 534.82 1121.40 550.60 1047.28 671.57 922.77 791.63 1064.91 804.97
00009829 00000003 721.61 286.99 449.09 594.83 893.82 528.43 1117.43 551.57 1035.40 662.88 903.11 785.11 1052.23 804.65
00009830 DELETE   734.43 286.68 436.07 593.15 900.70 532.26 1120.51 560.36 1040.66 664.98 904.45 783.04 1054.70 807.24
00009831 00000005 734.97 286.18 434.34 608.61 902.87 530.69 1121.69 556.08 1044.97 672.38 912.85 786.01 1059.36 808.35
00009832 00000006 712.79 282.63 453.38 617.60 899.89 527.68 1121.98 556.41 1043.55 675.30 904.85 786.76 1055.53 811.77
00009833 00000007 707.03 284.59 455.99 616.05 897.26 524.12 1118.41 557.02 1039.36 675.84 895.75 783.80 1047.93 812.14
00009834 00000008 713.42 285.97 451.01 613.57 897.78 524.48 1118.69 555.79 1040.69 675.69 900.81 786.27 1050.61 813.06
00009835 00000009 724.32 288.38 444.55 607.92 900.63 529.32 1122.35 555.36 1043.37 678.87 911.50 793.76 1057.58 815.78
00009836 00000010 723.65 287.97 444.78 613.29 899.72 530.05 1120.17 557.34 1042.67 678.94 910.53 791.96 1056.88 815.12
00009837 00000011 713.66 287.61 456.02 615.87 898.57 529.92 1119.40 559.08 1042.39 683.22 908.09 793.67 1052.73 818.27
00009838 00000012 715.47 290.47 454.71 620.80 900.56 532.04 1117.21 563.60 1042.22 687.30 905.05 793.42 1049.19 820.28
00009839 00000013 714.09 293.08 457.28 619.12 904.37 532.52 1118.21 563.95 1046.05 689.04 907.32 793.08 1049.99 819.91
00009840 00000014 712.54 297.72 458.96 613.11 903.82 534.04 1117.89 564.81 1046.55 689.82 908.17 794.34 1051.24 820.47
00009841 00000015 713.40 298.64 457.63 611.86 903.72 535.07 1118.58 565.94 1047.56 690.06 909.87 795.38 1053.23 821.36
00009842 00000016 704.32 297.07 467.02 616.65 906.49 535.78 1118.31 567.07 1050.51 690.50 909.47 794.77 1053.00 821.03
00009843 00000017 706.22 297.37 467.04 619.14 911.93 536.60 1121.61 568.28 1056.83 692.62 914.29 796.00 1056.66 822.70
00009844 00000018 711.72 298.67 464.15 617.85 919.91 536.83 1123.62 571.22 1060.73 694.38 918.14 794.78 1055.17 823.89
00009845 00000019 723.23 297.47 457.24 622.34 926.05 538.48 1128.11 575.45 1064.94 696.81 920.18 794.38 1058.42 826.10
00009846 00000020 710.44 298.25 467.49 619.61 925.56 536.36 1131.14 573.60 1076.29 698.22 923.60 803.45 1068.27 834.47
00009847 00000021 717.97 311.99 465.92 594.93 915.80 548.34 1125.99 576.68 1058.82 701.52 923.70 810.77 1056.15 832.90
00009848 00000022 733.48 326.84 456.13 560.05 928.77 557.46 1138.55 573.74 1070.52 708.19 948.48 813.73 1080.02 826.99
00009849 00000023 741.44 326.90 451.13 560.28 934.92 559.07 1141.52 571.91 1077.40 710.77 958.21 814.18 1086.45 824.71
00009850 00000024 740.97 332.00 452.43 548.64 933.95 562.33 1143.16 573.07 1074.72 713.47 957.44 816.07 1086.98 824.53
00009851 00000025 733.73 329.24 458.39 563.69 922.83 559.74 1133.23 573.53 1068.07 712.72 940.43 815.97 1067.62 827.26
00009852 00000026 734.88 329.00 458.65 561.48 923.66 560.23 1133.63 574.11 1069.03 712.86 939.94 816.14 1066.74 827.59
00009853 00000027 732.23 329.80 462.00 554.34 926.98 561.04 1135.67 572.51 1077.09 711.82 946.17 818.47 1072.84 827.58
00009854 00000028 738.48 332.81 454.96 548.46 934.02 565.49 1143.57 577.04 1076.37 716.40 958.42 820.25 1086.79 829.21
00009855 00000029 729.10 331.85 465.66 565.38 923.05 561.40 1136.37 575.28 1072.66 717.83 941.05 820.44 1070.82 831.50
00009856 00000030 728.84 333.00 464.36 568.25 923.89 562.63 1135.75 577.90 1073.20 719.49 942.34 819.33 1070.80 831.21
00009857 00000031 725.92 338.50 467.07 563.77 926.55 565.59 1138.09 580.44 1078.24 722.55 944.68 821.63 1073.42 832.86
00009858 00000032 722.39 341.85 470.47 566.36 929.76 568.76 1137.46 580.38 1083.64 725.20 949.56 824.60 1075.73 833.23
00009859 00000033 718.35 343.16 473.88 564.44 929.30 571.47 1137.52 582.41 1085.26 725.97 950.05 825.76 1077.16 833.73
00009860 00000034 720.27 343.40 472.22 565.15 929.30 570.93 1137.71 583.14 1084.14 725.76 949.91 826.10 1077.03 835.07
00009861 00000035 717.62 340.72 475.61 569.47 930.63 568.32 1138.08 580.57 1086.00 725.23 947.83 824.37 1075.48 833.71
00009862 00000036 718.62 331.82 477.02 575.96 931.76 565.95 1141.04 583.35 1084.65 719.93 947.63 822.53 1077.26 835.75
00009863 00000037 693.68 167.77 464.81 625.08 883.62 390.52 1096.97 429.19 1023.78 512.65 883.75 635.15 1045.26 666.39
00009864 00000038 692.24 171.59 465.44 627.99 885.65 395.53 1096.25 442.54 1009.02 523.43 877.64 631.31 1039.77 670.10
00009865 00000039 694.23 179.77 462.55 627.46 884.27 403.81 1097.07 452.37 1005.82 531.37 871.31 639.70 1035.92 680.16
00009866 00000040 692.89 189.54 463.29 628.57 883.48 408.34 1092.12 448.39 1014.54 537.90 874.33 658.14 1030.75 690.59
00009867 00000041 696.62 196.05 459.08 624.32 888.79 407.49 1091.85 446.96 1015.70 539.53 876.00 659.87 1027.29 692.19
00009868 00000042 698.13 194.38 459.87 623.70 889.88 409.09 1095.11 445.74 1018.04 546.44 884.38 664.53 1030.72 694.51
00009869 00000043 697.40 192.70 460.75 627.98 890.46 410.50 1097.27 451.38 1011.05 548.80 875.46 654.48 1032.40 689.26
00009870 00000044 698.75 194.17 461.57 628.58 894.50 409.80 1098.83 451.11 1013.67 548.61 879.69 655.73 1033.13 690.77
00009871 00000045 699.68 193.62 462.92 629.68 897.98 409.64 1102.17 453.62 1017.61 549.40 882.39 656.40 1033.79 693.61
00009872 00000046 704.66 191.79 460.24 630.78 902.93 410.07 1106.64 454.63 1022.51 551.97 885.81 657.50 1036.34 695.54
00009873 00000047 706.92 192.24 460.05 629.83 906.89 410.25 1110.18 456.49 1026.75 553.16 889.30 658.25 1038.84 697.77
00009874 00000048 708.85 194.24 460.74 631.23 913.88 409.80 1111.72 457.05 1032.22 555.71 892.46 657.03 1039.18 697.59
00009875 00000049 710.36 193.37 462.12 634.36 919.86 408.21 1113.57 458.90 1037.31 557.19 891.68 654.41 1038.60 698.04
00009876 00000050 711.50 191.84 463.24 638.72 924.10 408.07 1114.72 460.62 1040.03 558.18 890.11 652.96 1037.85 698.53
00009877 00000051 707.16 191.19 470.92 638.52 930.53 400.78 1114.60 463.27 1040.07 557.80 893.08 649.11 1040.02 700.91
00009878 00000052 715.11 192.47 461.87 636.40 927.92 409.05 1117.75 460.09 1041.72 557.84 896.94 652.59 1041.95 696.97
00009879 00000053 711.20 191.96 466.92 630.36 934.16 404.73 1119.56 465.40 1045.15 558.05 900.53 646.66 1046.22 696.90
00009880 00000054 711.48 190.61 467.70 632.49 935.05 404.51 1120.56 465.16 1045.91 557.87 902.17 647.75 1046.89 697.85
00009881 00000055 716.96 190.72 461.60 632.33 930.88 416.36 1121.75 467.88 1046.85 560.25 900.14 652.34 1046.13 697.18
00009882 00000056 714.64 189.16 466.27 635.69 936.93 409.06 1121.67 472.48 1047.19 560.18 900.30 648.17 1046.53 700.47
00009883 00000057 715.19 191.10 464.26 633.19 937.65 408.87 1123.50 470.47 1049.02 560.31 902.71 648.76 1048.43 699.90
00009884 00000058 718.63 189.17 463.70 636.14 940.95 406.91 1127.10 468.36 1051.38 559.43 905.68 648.99 1050.24 700.03
00009885 00000059 720.19 189.96 464.06 637.06 943.62 403.59 1128.41 464.82 1053.09 558.22 908.28 647.88 1051.87 698.87
00009886 00000060 720.75 188.11 463.94 639.00 945.61 402.39 1127.65 464.28 1053.24 557.87 909.25 646.95 1050.94 698.52
00009887 00000061 721.90 188.15 462.40 638.92 945.82 401.28 1127.63 463.94 1052.70 556.73 908.44 646.13 1050.40 698.44
00009888 00000062 720.81 189.36 463.90 636.96 943.90 401.22 1126.68 461.99 1052.69 556.30 906.81 645.44 1051.85 696.19
00009889 00000063 719.98 188.91 464.38 637.08 942.67 399.96 1125.46 462.35 1052.51 555.64 902.28 642.43 1051.32 694.61
00009890 00000064 716.80 187.93 466.65 637.05 941.11 398.40 1124.25 462.49 1052.34 553.68 899.80 639.58 1050.73 693.05
00009891 00000065 717.94 192.61 456.24 632.62 938.56 401.32 1123.75 458.77 1053.39 551.49 897.48 644.27 1043.68 691.08
00009892 00000066 713.98 189.23 468.49 635.30 938.74 398.13 1123.23 462.90 1052.21 551.81 897.18 635.79 1051.50 689.81
00009893 00000067 715.17 191.23 458.21 632.62 937.99 399.83 1124.22 458.23 1053.58 550.21 896.66 641.41 1043.91 688.93
00009894 00000068 715.30 184.61 462.05 638.10 934.38 402.70 1121.74 457.34 1050.33 553.13 894.17 640.61 1045.93 687.81
00009895 00000069 714.73 189.24 458.74 634.23 937.72 399.90 1124.40 460.03 1053.53 548.69 895.49 639.52 1042.93 688.47
00009896 00000070 714.02 189.65 459.23 634.54 937.57 399.85 1123.46 459.12 1053.21 548.76 895.03 640.45 1042.36 688.64
00009897 00000071 713.40 189.38 459.78 634.60 937.23 399.91 1123.48 459.60 1052.84 548.50 895.03 640.28 1042.27 688.78
00009898 00000072 712.61 189.31 460.00 634.50 937.37 399.73 1123.61 460.28 1053.50 547.99 894.57 639.77 1042.25 689.00
00009899 00000073 711.41 188.78 459.94 634.58 937.92 400.72 1123.70 462.27 1054.35 549.32 895.10 639.33 1042.12 689.16
00009900 00000074 712.16 181.65 463.91 639.18 931.78 410.99 1120.17 467.74 1047.81 552.24 890.38 639.24 1042.74 688.31
00009901 00000075 710.49 181.30 465.00 636.59 932.04 410.25 1120.77 467.40 1048.37 551.91 891.34 638.58 1042.65 687.86
00009902 00000076 708.64 183.33 464.47 633.74 933.45 407.39 1121.96 464.02 1051.46 551.92 894.40 639.12 1044.97 687.70
00009903 00000077 707.30 183.50 466.91 629.83 933.47 404.54 1122.11 460.38 1051.05 550.56 896.37 637.74 1045.08 685.51
00009904 00000078 706.93 181.75 467.66 630.10 933.73 402.48 1121.13 458.74 1050.37 549.27 896.53 636.27 1044.16 684.35
00009905 00000079 707.85 181.08 466.39 626.08 933.20 401.48 1121.41 458.43 1049.01 547.47 897.24 634.14 1043.47 682.78
00009906 00000080 707.21 180.41 466.28 625.08 931.94 400.62 1121.58 457.50 1048.61 545.69 897.94 632.60 1045.43 681.18
00009907 00000081 708.27 178.97 465.67 623.79 931.81 400.59 1121.46 456.73 1048.15 545.37 898.06 631.66 1045.23 679.60
00009908 00000082 706.10 178.56 467.83 624.82 929.49 399.08 1120.85 456.06 1046.52 543.74 896.31 630.40 1045.37 678.90
00009909 00000083 704.70 179.02 467.57 624.70 927.77 397.27 1120.25 453.88 1046.25 543.55 895.08 630.18 1046.05 678.36
00009910 00000084 703.20 176.77 467.40 625.67 924.88 395.59 1117.76 451.56 1043.12 542.16 892.72 629.37 1044.45 676.82
00009911 00000085 701.66 175.90 468.33 627.08 921.82 394.08 1117.23 450.73 1040.48 542.21 889.36 629.53 1043.03 677.37
00009912 00000086 699.57 175.24 469.67 627.92 919.71 392.80 1115.19 449.42 1038.47 540.16 887.61 628.30 1041.74 676.04
00009913 00000087 698.27 172.97 470.58 632.44 919.64 390.91 1113.76 447.05 1038.43 540.80 884.91 627.95 1039.88 675.32
00009914 00000088 698.62 170.53 469.73 634.29 919.36 390.04 1112.76 446.30 1037.25 540.42 884.07 626.96 1038.79 674.39
00009915 00000089 697.62 168.83 469.86 635.22 919.41 388.29 1111.94 445.01 1037.34 539.36 882.93 625.09 1037.83 672.93
00009916 00000090 696.40 166.47 470.14 636.87 919.27 387.96 1111.09 442.77 1037.71 538.02 884.46 624.90 1037.82 671.13
00009917 00000091 698.25 166.39 468.53 634.63 919.66 391.57 1110.97 447.96 1036.05 534.82 884.66 623.18 1036.96 670.87
00009918 00000092 697.04 164.39 470.02 636.34 919.24 391.27 1109.33 447.56 1034.93 534.38 883.59 622.22 1035.84 669.74
00009919 00000093 696.69 163.39 468.93 637.66 918.85 388.98 1108.75 445.90 1034.54 533.27 882.29 620.92 1035.04 668.84
00009920 00000094 695.13 167.87 467.26 636.33 914.32 389.95 1105.65 444.76 1031.21 534.74 879.54 624.11 1033.93 670.40
00009921 00000095 693.41 165.73 467.76 637.31 911.30 387.04 1104.67 442.75 1028.25 531.52 875.89 620.36 1033.00 667.20
00009922 00000096 694.64 158.57 468.48 640.97 916.86 381.61 1106.78 440.57 1032.38 529.60 879.99 616.32 1034.69 665.67
00009923 00000097 693.18 158.83 468.04 640.63 914.80 380.09 1105.34 439.38 1030.66 527.61 878.53 614.90 1034.73 664.35
00009924 00000098 688.25 160.92 469.50 640.70 909.78 380.27 1099.50 440.56 1023.10 527.55 870.14 614.65 1026.50 665.01
00009925 00000099 692.14 159.12 466.79 644.43 909.26 382.07 1100.84 440.40 1022.19 528.77 871.96 618.50 1026.89 667.18
00009926 00000100 696.60 167.29 463.95 630.48 913.06 388.32 1107.53 440.02 1030.14 534.70 886.52 625.78 1037.91 668.93
00009927 00000101 695.64 172.40 463.64 626.85 907.11 393.21 1105.47 442.33 1024.44 538.18 883.04 630.89 1036.36 671.95
00009928 00000102 696.87 178.46 463.97 630.09 906.47 397.87 1106.41 447.37 1022.81 541.39 881.02 637.42 1035.76 679.09
00009929 00000103 698.16 178.99 464.78 631.92 901.71 399.13 1104.84 447.95 1028.48 534.57 881.66 642.73 1034.89 683.59
00009930 00000104 696.66 182.72 464.47 636.46 904.70 398.02 1104.67 452.42 1020.04 541.23 873.88 639.32 1031.60 685.17
00009931 00000105 696.57 182.15 462.61 633.29 899.52 401.19 1102.50 450.56 1026.59 537.15 880.43 649.84 1030.51 690.84
00009932 00000106 677.96 186.47 472.84 629.57 894.15 402.94 1093.54 455.04 1011.32 548.26 868.93 645.29 1021.26 688.58
00009933 DELETE   667.52 190.29 472.30 630.95 883.18 412.94 1077.87 466.27 998.03 557.10 854.45 649.20 1004.84 693.59
00009934 00000108 659.77 192.01 469.93 631.66 877.92 412.12 1065.47 467.02 990.07 557.70 847.56 651.41 991.84 697.35
00009935 00000109 657.79 189.90 470.60 634.37 876.87 411.11 1063.72 465.48 990.17 557.84 844.92 650.50 992.43 696.16
00009936 00000110 659.05 189.98 470.34 634.82 878.78 411.33 1065.06 466.15 991.96 558.28 846.25 649.63 993.87 695.78
00009937 00000111 664.46 194.06 469.67 631.53 879.89 415.29 1070.05 468.53 994.25 561.83 849.51 653.47 998.11 698.38
00009938 00000112 676.27 197.61 458.61 626.56 886.73 417.12 1074.88 458.61 1006.83 555.98 873.55 665.16 1011.14 698.72
00009939 00000113 686.03 194.65 455.17 623.86 893.53 418.64 1086.39 459.53 1019.74 552.59 884.53 665.53 1024.86 698.56
00009940 00000114 672.75 195.25 457.49 626.97 884.81 415.62 1072.46 456.39 1004.57 552.34 871.25 661.33 1009.09 694.14
00009941 00000115 676.78 196.76 456.95 628.11 887.58 416.61 1076.11 458.20 1008.77 549.98 875.15 661.89 1015.08 695.44
00009942 00000116 681.96 195.84 455.15 628.94 891.96 415.62 1080.52 457.76 1014.45 547.23 875.25 660.78 1017.82 695.09
00009943 00000117 685.77 192.46 457.06 632.65 894.41 413.05 1086.21 456.39 1018.40 546.81 872.37 657.96 1019.73 693.59
00009944 00000118 679.48 195.69 457.99 630.11 890.59 417.22 1081.26 461.79 1011.92 552.28 869.35 661.60 1014.51 698.12
00009945 00000119 676.39 199.12 458.43 626.47 888.91 416.50 1079.24 460.90 1010.83 553.26 867.44 661.81 1013.34 698.20
00009946 00000120 675.31 199.40 459.66 626.81 888.39 416.37 1079.14 460.04 1010.83 552.81 867.22 661.75 1013.68 697.55
00009947 00000121 674.60 199.85 461.58 629.30 887.77 418.90 1078.61 463.69 1011.10 557.95 866.17 664.70 1012.91 701.43
00009948 00000122 670.19 205.64 465.95 626.55 884.69 426.85 1076.16 470.22 1008.68 565.21 864.51 669.79 1011.17 705.54
00009949 00000123 670.82 216.72 465.46 626.02 885.11 437.81 1076.93 483.88 1009.19 573.29 865.02 679.27 1010.14 717.98
00009950 00000124 675.27 229.53 465.23 623.52 892.40 457.99 1079.80 505.38 1010.70 597.35 872.91 695.27 1012.04 735.68
00009951 DELETE   668.46 262.92 471.12 615.68 884.11 482.58 1083.32 532.75 1004.91 624.03 864.37 720.85 1012.44 762.24
00009952 00000126 675.10 296.74 466.93 568.55 879.17 522.84 1090.94 569.17 1011.95 660.84 875.51 763.24 1019.54 799.43
00009953 00000127 666.82 330.26 470.59 566.02 870.65 545.66 1077.33 585.23 999.17 679.92 864.55 778.80 1008.01 810.89
00009954 00000128 676.23 309.82 459.53 563.91 882.52 541.17 1084.14 580.26 1011.67 676.50 883.05 781.24 1017.38 812.55
00009955 00000129 677.84 312.80 466.65 566.41 877.88 531.44 1082.95 569.55 1005.33 666.84 873.88 769.43 1015.06 800.98
00009956 00000130 681.84 308.93 463.84 574.52 876.30 530.21 1081.70 566.07 1003.34 662.95 876.75 765.02 1017.69 794.90
00009957 DELETE   679.13 307.80 465.89 578.93 871.86 523.62 1078.50 560.01 999.08 654.61 873.45 757.98 1018.87 788.48
00009958 00000132 681.67 292.91 462.49 587.71 872.60 513.04 1083.75 554.06 1003.76 639.29 871.19 754.68 1018.70 787.55
00009959 00000133 678.99 286.61 458.58 587.73 874.04 495.32 1079.70 536.12 1000.43 626.49 867.92 741.25 1011.56 773.48
00009960 00000134 670.06 277.74 464.66 597.90 859.45 477.32 1073.01 522.17 990.48 602.03 850.35 728.66 1007.05 764.40
00009961 00000135 664.93 261.53 466.88 610.01 853.80 472.02 1065.87 512.21 976.88 604.75 840.98 713.38 1004.93 749.10
00009962 00000136 657.40 256.94 465.56 613.19 847.96 468.89 1058.02 509.43 968.76 599.92 833.65 709.58 996.09 745.24
00009963 00000137 655.24 251.84 464.89 610.45 840.40 468.23 1053.42 506.84 960.32 595.18 831.52 706.30 994.10 740.09
00009964 00000138 651.62 246.94 467.02 605.21 833.34 464.08 1052.70 502.13 956.68 588.37 828.95 701.10 996.13 733.60
00009965 00000139 650.65 246.21 466.97 601.01 828.15 458.53 1049.55 497.78 952.52 581.36 825.71 695.96 996.71 729.36
00009966 00000140 648.42 244.15 471.32 601.67 822.35 455.61 1046.57 495.69 948.14 573.17 821.25 692.21 994.93 726.14
00009967 00000141 646.07 246.17 471.24 601.78 819.61 453.02 1043.91 494.98 945.18 568.92 816.85 689.59 991.96 724.97
00009968 00000142 643.61 244.46 471.74 605.51 817.32 450.13 1040.76 493.99 941.17 565.10 810.61 685.65 987.31 722.43
00009969 00000143 642.09 245.18 473.01 604.12 816.33 446.36 1040.38 492.41 939.76 562.64 807.27 682.92 985.43 721.49
00009970 00000144 642.10 243.59 473.83 608.02 816.02 443.87 1040.89 491.28 939.63 562.33 805.00 681.61 986.38 721.26
00009971 00000145 642.86 243.01 474.68 609.09 816.67 443.16 1041.27 490.50 938.90 563.61 803.71 682.07 985.13 721.79
00009972 00000146 643.58 244.18 474.30 603.82 817.05 444.18 1040.79 491.16 939.04 563.04 805.44 682.76 984.03 722.15
00009973 00000147 644.37 244.31 474.04 593.72 817.21 446.82 1042.06 492.79 939.35 561.90 809.12 682.32 986.24 720.59
00009974 00000148 645.77 244.09 473.35 591.62 817.96 448.03 1043.59 492.87 941.30 562.61 811.60 685.25 988.40 722.59
00009975 00000149 646.64 243.23 474.65 597.25 819.19 449.64 1044.24 494.42 941.92 563.92 813.41 686.45 988.72 724.06
00009976 00000150 647.54 243.67 474.37 600.34 822.52 449.37 1043.65 493.46 942.75 565.65 815.86 688.65 986.26 725.73
00009977 00000151 646.67 244.33 471.04 593.89 821.88 454.82 1041.82 497.03 944.36 567.66 816.57 691.39 985.45 726.95
00009978 00000152 645.84 243.96 470.13 591.92 822.79 456.67 1040.91 501.23 944.12 567.30 815.60 688.26 983.66 725.61
00009979 00000153 646.56 244.44 469.07 590.21 822.53 455.17 1041.51 498.69 944.30 566.83 815.46 688.32 985.16 724.79
00009980 00000154 646.23 246.38 470.84 596.67 825.16 454.67 1042.09 497.11 942.45 573.87 815.32 691.40 983.45 727.06
00009981 00000155 647.02 244.50 471.60 609.07 828.02 455.93 1043.67 499.36 942.15 582.48 812.74 694.53 980.67 731.24
00009982 00000156 647.83 243.74 471.30 617.03 826.71 457.93 1044.84 503.04 942.26 588.47 809.28 698.74 980.65 737.23
00009983 00000157 646.15 251.33 470.71 610.26 824.49 462.93 1045.57 505.02 940.99 594.96 808.21 704.47 981.17 740.66
00009984 00000158 646.74 255.18 468.38 606.27 821.74 466.58 1045.24 506.87 939.26 600.36 806.27 707.32 981.18 742.27
00009985 00000159 646.03 257.97 468.63 604.38 821.54 467.72 1044.55 508.17 939.02 601.88 805.70 707.64 980.58 742.84
00009986 00000160 646.15 257.64 468.59 604.60 820.97 467.76 1044.68 507.89 938.93 601.83 805.49 707.76 980.92 742.66
00009987 00000161 645.46 254.82 469.23 606.63 821.49 464.95 1044.15 506.28 938.53 599.25 804.89 705.57 979.96 741.37
00009988 00000162 645.92 252.86 470.61 609.56 823.95 462.61 1045.47 505.48 939.96 598.54 805.68 704.31 980.40 741.31
00009989 00000163 645.88 252.93 471.93 609.24 824.46 462.37 1046.01 505.28 940.25 597.52 805.89 703.67 980.80 740.63
00009990 00000164 646.35 253.72 471.11 606.58 825.05 463.14 1045.89 505.84 940.43 598.46 807.39 703.41 980.79 740.22
00009991 00000165 644.92 257.01 470.11 607.33 822.90 465.91 1044.14 506.97 939.89 602.39 805.44 706.22 980.37 741.84
00009992 00000166 644.80 261.26 467.42 610.35 821.04 470.24 1043.02 510.29 939.48 608.49 805.47 711.85 981.19 746.81
