Video ID: 	7rqUM71UJtk
H: 	1080
W: 	1920
FPS: 	25.0

FRAME INDEX X0 Y0 W H [Landmarks (5 Points)]

00012696 00000000 817.23 217.16 401.82 561.69 874.23 420.73 1048.66 424.07 921.91 539.18 898.10 621.79 1046.45 624.04
00012697 00000001 814.50 215.07 397.18 560.89 869.44 429.47 1034.31 426.05 917.29 537.66 894.52 624.19 1041.86 620.00
00012698 00000002 810.43 215.35 396.68 564.71 865.02 430.60 1027.34 426.93 912.24 539.67 891.97 626.38 1038.07 622.12
00012699 00000003 803.78 220.05 397.91 561.97 860.22 431.02 1020.76 427.58 907.51 539.21 890.40 629.87 1032.10 625.95
00012700 00000004 799.61 223.79 398.90 558.33 854.84 431.77 1016.51 429.56 902.97 540.79 884.85 630.35 1026.77 627.81
00012701 00000005 795.73 224.24 400.14 556.00 850.03 431.20 1011.66 429.57 899.03 539.93 882.80 630.00 1021.57 628.13
00012702 00000006 793.14 224.92 400.93 553.23 847.33 431.08 1007.86 428.57 895.55 536.90 881.68 628.72 1019.39 626.01
00012703 00000007 790.07 224.53 403.69 553.10 844.11 430.47 1004.40 427.06 892.53 537.63 881.61 629.64 1017.64 625.94
00012704 00000008 788.88 223.66 404.17 552.25 843.27 429.87 1002.80 426.45 892.22 537.25 882.51 627.76 1017.78 623.92
00012705 00000009 788.14 223.10 403.86 552.05 843.04 429.60 1002.43 427.31 892.78 538.98 882.17 627.66 1016.59 624.79
00012706 00000010 788.92 224.19 403.82 552.58 843.72 430.95 1003.08 429.39 892.25 541.93 882.18 628.49 1017.35 626.22
00012707 00000011 791.90 227.95 402.60 553.09 845.20 432.72 1003.62 430.76 890.90 544.10 883.09 631.55 1019.15 629.06
00012708 00000012 795.64 229.66 399.76 554.64 848.66 435.22 1004.75 433.50 891.92 546.33 884.29 633.24 1020.69 631.14
00012709 00000013 796.75 227.98 400.03 554.67 850.76 436.02 1008.19 434.15 895.43 545.37 883.95 634.55 1019.82 632.60
00012710 00000014 797.28 228.22 401.33 554.52 851.59 436.96 1009.73 434.08 896.86 545.38 885.06 634.95 1021.54 632.23
00012711 00000015 798.08 229.11 401.37 557.97 851.98 437.76 1010.55 433.40 897.03 547.78 885.92 637.83 1025.88 633.61
00012712 00000016 799.73 230.84 399.95 557.21 853.51 438.04 1011.52 432.37 898.88 546.78 889.32 637.33 1029.86 631.67
00012713 00000017 801.29 225.78 399.05 558.78 855.50 436.84 1014.84 430.89 902.80 544.18 890.12 633.69 1032.53 627.64
00012714 00000018 803.77 223.69 397.05 560.77 857.52 435.62 1016.87 429.13 904.48 542.56 890.75 630.77 1036.11 624.06
00012715 DELETE   807.02 227.33 394.07 559.56 860.72 433.92 1017.41 428.45 905.47 541.13 892.80 627.94 1040.16 622.08
00012716 00000020 810.29 227.82 392.07 561.06 863.14 432.22 1018.43 426.71 907.73 540.86 896.53 627.87 1042.02 622.08
00012717 DELETE   810.58 226.99 392.46 562.27 863.17 432.92 1017.87 427.58 906.89 541.46 896.02 627.51 1042.13 621.83
00012718 00000022 808.84 228.79 393.51 559.47 861.44 434.80 1017.22 429.78 904.49 541.99 892.88 628.52 1039.73 623.11
00012719 00000023 806.32 230.06 394.51 556.58 858.13 438.71 1013.18 433.52 899.40 543.56 888.37 629.27 1035.48 623.75
00012720 00000024 803.19 230.65 393.71 554.18 854.01 439.08 1007.26 435.90 893.78 545.46 884.64 629.14 1030.00 625.35
00012721 00000025 799.70 227.21 394.72 555.87 848.30 436.34 1001.12 434.61 886.37 547.79 881.84 632.25 1020.26 630.07
00012722 00000026 792.80 224.11 399.71 555.47 841.07 434.14 996.26 434.55 877.70 549.78 877.50 634.45 1012.12 633.90
00012723 00000027 787.61 223.20 400.40 556.27 837.06 419.53 996.72 432.54 865.96 554.42 871.40 627.72 1001.12 637.67
00012724 00000028 785.35 222.56 396.38 557.53 832.07 420.89 986.92 433.14 856.27 553.40 867.46 628.00 993.48 637.25
00012725 00000029 778.73 225.50 397.63 555.77 826.26 422.70 978.60 436.03 849.69 555.16 858.76 626.75 985.36 637.02
00012726 00000030 773.06 224.51 396.69 558.32 817.38 423.50 969.47 438.24 836.14 555.61 846.57 628.06 978.23 639.43
00012727 00000031 770.32 226.77 394.79 555.58 813.37 427.68 957.06 441.49 828.59 557.79 848.99 630.92 973.07 640.76
00012728 00000032 757.48 229.81 399.73 554.84 808.00 432.16 953.91 441.63 828.26 562.88 849.08 640.95 969.10 647.66
00012729 00000033 750.48 233.45 397.02 553.76 802.41 441.53 943.52 450.17 822.93 565.22 850.20 644.78 959.17 650.63
00012730 00000034 745.54 239.15 398.74 550.65 796.09 448.88 939.58 452.56 818.33 566.91 843.90 652.57 950.81 654.96
00012731 00000035 742.87 246.47 397.98 541.36 789.98 445.89 938.49 452.73 813.84 570.32 835.22 652.98 944.57 658.64
00012732 00000036 743.32 247.36 393.12 539.62 786.09 446.53 934.00 451.16 809.62 574.06 834.25 655.98 942.46 660.18
00012733 00000037 742.14 249.57 391.88 536.85 783.34 446.50 933.77 452.33 809.80 577.60 831.20 656.27 940.46 661.58
00012734 00000038 740.11 249.20 393.07 538.97 782.44 444.63 933.27 453.16 808.17 579.38 830.17 657.24 937.67 664.55
00012735 00000039 739.74 248.46 393.54 540.58 782.27 444.93 934.09 453.43 808.62 579.59 829.82 658.66 937.55 666.03
00012736 00000040 739.15 248.57 394.98 542.13 781.71 444.94 935.20 452.54 808.56 579.67 829.74 659.72 940.02 666.20
00012737 00000041 743.43 251.23 387.96 535.26 786.66 445.38 934.95 455.46 810.52 581.60 833.23 659.60 932.84 668.99
00012738 00000042 740.14 249.34 398.42 551.09 788.59 447.84 938.12 455.20 811.98 581.93 839.32 665.11 944.99 670.20
00012739 00000043 740.32 252.78 403.62 553.50 794.94 450.00 939.77 456.68 818.37 582.23 846.25 666.59 949.63 670.41
00012740 00000044 743.56 255.20 404.13 552.88 800.06 450.75 943.55 457.60 824.95 586.02 853.82 667.11 956.28 670.55
00012741 00000045 746.03 251.97 407.75 558.34 810.66 448.38 954.61 456.40 837.97 586.00 861.04 668.42 964.83 673.09
00012742 00000046 751.31 252.34 407.87 556.39 819.13 449.30 964.02 456.59 847.68 586.32 870.63 667.94 976.23 671.99
00012743 00000047 755.46 255.30 410.94 552.77 824.63 453.29 974.40 457.19 860.24 587.50 874.46 669.45 984.36 670.99
00012744 00000048 761.81 258.51 408.76 551.36 830.59 459.43 976.95 461.28 868.28 593.13 881.69 669.73 991.27 669.12
00012745 00000049 763.60 262.43 411.06 545.86 831.94 462.09 981.95 462.33 875.24 595.88 883.24 669.81 996.27 668.16
00012746 00000050 766.22 269.95 410.01 533.09 826.14 458.52 974.67 460.66 869.18 596.90 881.80 669.98 996.72 669.98
00012747 00000051 767.95 266.06 408.60 535.72 827.10 454.68 975.00 455.81 869.96 592.01 882.82 668.85 996.94 668.09
00012748 00000052 770.97 262.52 406.52 538.94 829.59 451.68 977.85 453.61 870.86 589.07 884.00 666.43 998.79 666.44
00012749 00000053 774.59 258.57 405.03 544.91 833.35 451.15 979.71 453.78 873.11 587.98 887.17 665.37 1002.14 665.91
00012750 00000054 776.32 259.32 406.39 545.57 835.02 450.74 982.31 454.11 873.66 588.57 886.58 665.12 1004.61 666.14
00012751 DELETE   777.83 258.32 406.77 546.83 836.59 450.96 983.60 454.26 874.78 588.26 887.03 665.42 1005.36 666.41
00012752 00000056 779.31 258.17 405.76 547.12 837.25 450.89 984.31 453.41 874.73 586.53 887.70 665.22 1007.46 665.67
00012753 00000057 781.26 255.95 404.72 549.55 839.22 449.01 986.07 452.08 875.42 583.63 888.54 663.66 1009.15 664.72
00012754 00000058 783.28 254.32 403.25 549.56 840.98 446.59 987.68 450.53 876.24 580.43 889.61 660.57 1010.73 662.47
00012755 00000059 784.18 252.74 403.71 548.87 842.01 444.55 990.47 448.25 878.86 575.69 889.40 659.26 1009.04 661.32
00012756 00000060 786.39 251.55 402.68 547.91 842.81 443.10 991.53 446.66 878.29 571.96 888.61 655.54 1010.90 657.69
00012757 00000061 788.37 248.27 404.69 551.66 844.56 443.08 993.60 445.52 879.50 568.57 889.41 652.23 1016.15 653.27
00012758 00000062 791.02 245.94 404.14 554.50 845.84 444.48 996.82 444.82 881.37 565.05 888.79 651.28 1019.15 650.58
00012759 00000063 792.38 243.35 406.80 555.69 846.18 446.29 999.13 443.85 883.61 564.48 889.28 652.45 1020.91 649.51
00012760 00000064 795.17 243.32 406.89 556.56 847.99 446.03 1001.60 442.75 885.09 564.32 890.67 653.10 1022.77 649.50
00012761 00000065 797.92 242.47 405.93 556.36 851.47 445.89 1003.97 442.42 888.07 562.78 893.32 652.14 1024.41 648.52
00012762 00000066 800.52 240.56 403.12 555.76 853.21 445.59 1004.63 441.95 889.48 561.12 894.65 650.33 1025.76 646.58
00012763 00000067 803.32 239.44 400.17 556.66 853.81 445.04 1003.56 441.44 888.07 560.55 894.69 649.70 1026.59 645.93
00012764 00000068 804.67 234.00 398.49 557.44 853.33 444.79 1003.43 441.72 887.73 558.72 891.62 648.00 1024.05 644.91
00012765 00000069 803.16 233.38 400.24 556.21 851.69 442.12 1004.62 440.70 887.10 555.31 886.13 644.45 1021.44 642.86
00012766 00000070 803.12 231.71 399.67 559.14 850.39 440.67 1002.00 439.52 883.91 555.57 885.10 645.35 1018.51 644.07
00012767 00000071 802.79 230.18 397.45 559.11 848.44 437.05 999.49 437.93 878.84 553.20 881.95 643.64 1010.71 644.48
00012768 00000072 799.33 226.84 398.10 557.92 845.25 433.30 998.12 435.21 877.23 550.06 878.49 641.21 1005.15 642.94
00012769 00000073 792.79 223.42 398.53 558.94 838.76 418.36 1003.22 429.84 872.13 556.65 874.72 635.12 1000.79 644.01
00012770 00000074 789.21 223.04 399.97 557.88 835.30 415.36 1001.01 427.34 867.52 553.42 871.20 633.73 998.11 643.12
00012771 00000075 787.83 220.49 398.38 558.41 833.94 413.92 997.87 422.92 866.00 547.47 870.85 633.46 994.06 640.63
00012772 00000076 783.24 217.42 399.85 562.29 830.94 413.34 994.85 419.56 863.20 544.44 867.02 634.13 991.50 639.33
00012773 00000077 778.04 213.04 401.91 567.30 827.13 414.05 990.67 419.10 858.91 541.40 860.98 633.02 984.34 637.46
00012774 00000078 778.35 208.80 401.98 567.99 826.29 412.71 992.30 415.77 860.28 535.53 856.36 629.49 982.47 632.71
00012775 00000079 779.35 205.89 400.27 569.40 827.76 412.27 993.61 412.45 861.73 529.12 858.62 629.14 983.18 630.10
00012776 00000080 781.68 204.31 397.56 569.84 828.49 410.07 994.17 410.11 862.37 528.37 860.82 629.10 985.16 629.78
00012777 00000081 781.87 204.71 398.66 564.67 830.16 407.12 995.96 406.79 865.00 523.08 861.90 626.20 985.74 626.59
00012778 00000082 784.07 204.04 397.91 561.52 832.62 406.27 998.92 406.85 868.08 521.89 863.65 623.97 989.56 625.14
00012779 DELETE   782.83 198.28 401.86 563.67 834.11 408.56 1002.68 413.44 872.31 521.57 867.96 618.33 994.19 622.57
00012780 00000084 787.73 199.10 398.27 563.01 838.30 412.50 1003.41 416.15 875.88 523.24 872.50 620.07 997.14 623.21
00012781 DELETE   796.24 196.45 394.66 564.20 843.18 410.07 1011.67 412.85 881.10 522.24 877.48 620.08 1004.38 622.30
00012782 00000086 797.66 204.92 398.52 553.27 844.60 412.80 1006.10 411.94 882.16 518.93 876.35 613.18 1004.81 612.42
00012783 DELETE   798.14 205.23 398.71 552.03 845.88 413.46 1007.71 413.09 883.81 518.94 876.72 614.82 1005.70 614.66
00012784 00000088 805.40 207.91 395.10 556.82 851.86 414.80 1011.44 414.34 886.65 520.65 882.44 616.98 1009.92 616.76
00012785 00000089 803.16 209.34 395.98 557.30 849.39 414.54 1009.31 415.14 883.73 522.12 880.21 618.01 1009.32 618.57
00012786 00000090 805.18 205.97 395.22 560.95 852.63 416.00 1014.24 415.17 889.02 522.89 880.53 619.99 1010.88 619.59
00012787 00000091 808.43 204.69 395.35 562.35 855.56 417.73 1017.43 415.58 890.52 522.05 880.92 620.35 1015.23 618.67
00012788 00000092 807.69 204.49 394.59 563.03 854.91 417.11 1016.19 415.22 888.98 521.16 880.24 619.33 1014.45 617.93
00012789 00000093 808.81 207.47 391.72 562.56 853.92 417.12 1013.49 416.16 886.36 523.08 880.55 620.61 1013.06 620.08
00012790 00000094 807.57 211.90 390.98 557.57 851.50 416.10 1009.39 416.63 883.31 523.61 880.24 618.69 1009.51 619.43
00012791 00000095 805.98 209.30 392.20 558.69 850.18 415.58 1007.35 416.46 879.86 522.46 878.80 616.39 1008.66 617.36
00012792 00000096 802.66 208.93 395.02 556.91 847.12 413.73 1004.53 415.11 878.11 521.11 876.69 614.53 1004.40 615.93
00012793 00000097 797.66 204.27 394.52 564.53 842.99 406.94 1009.51 412.80 875.32 526.12 872.69 622.28 998.20 627.34
00012794 00000098 793.00 209.19 395.42 561.85 837.81 407.01 1004.08 412.08 870.96 526.74 867.02 624.19 992.80 628.77
00012795 00000099 790.85 208.03 393.72 562.81 836.25 407.48 1000.54 412.05 869.28 528.08 865.92 624.53 990.44 628.83
00012796 00000100 789.55 207.14 393.20 564.24 834.99 407.45 997.62 412.08 866.39 528.90 864.90 625.06 988.09 629.38
00012797 00000101 787.39 208.36 394.26 563.34 832.78 408.52 995.02 411.73 863.48 528.73 861.83 626.54 984.79 629.76
00012798 00000102 787.75 209.27 394.02 562.59 832.90 408.71 995.35 412.49 863.31 529.68 862.21 626.60 985.92 630.24
00012799 00000103 785.21 207.55 395.60 562.63 831.05 407.53 993.61 410.64 861.98 527.89 861.43 625.16 984.89 628.29
00012800 00000104 784.83 207.94 396.99 562.70 830.18 408.72 992.41 411.28 861.08 528.72 860.29 625.71 984.27 628.42
00012801 00000105 784.63 207.80 396.79 561.65 829.90 408.88 991.80 412.31 860.91 528.59 860.18 624.32 983.41 627.68
00012802 00000106 785.75 205.69 395.73 562.84 831.69 408.73 993.35 412.46 862.69 527.23 861.60 622.56 984.72 626.25
00012803 00000107 784.85 206.99 396.34 560.42 830.62 408.40 992.92 412.70 862.22 526.93 859.44 622.04 982.57 626.20
00012804 00000108 783.77 207.39 396.46 562.36 828.47 410.22 992.35 414.82 860.21 528.93 854.33 623.65 980.15 628.15
00012805 00000109 781.64 206.31 397.41 563.92 826.71 409.91 991.23 415.21 857.94 530.55 850.55 623.89 978.01 629.04
00012806 00000110 781.70 207.06 397.61 562.45 827.11 410.41 991.42 415.44 858.37 530.49 851.11 624.19 978.23 629.15
00012807 00000111 784.12 208.12 397.08 560.48 828.27 410.45 993.63 415.48 860.97 530.66 854.33 624.48 980.53 629.36
00012808 00000112 785.01 209.40 396.69 558.00 829.18 409.97 994.89 415.24 862.31 530.75 856.08 624.92 981.76 629.99
00012809 00000113 786.18 209.71 396.30 558.42 830.64 410.26 995.81 415.88 863.13 532.38 858.78 625.83 984.74 631.09
00012810 00000114 788.30 211.18 394.60 560.33 833.44 410.66 996.90 416.46 864.11 533.61 861.56 626.90 986.67 632.29
00012811 00000115 789.58 210.84 394.33 559.17 834.21 410.62 998.85 417.08 865.57 534.63 863.02 627.10 989.02 632.91
00012812 00000116 789.35 210.59 395.15 560.08 834.42 410.40 998.63 417.21 865.00 534.53 862.81 626.10 989.18 632.18
00012813 00000117 789.29 211.28 396.09 560.61 835.01 409.98 999.62 417.53 865.39 535.38 863.11 625.62 991.42 632.22
00012814 00000118 789.31 211.14 395.59 559.75 834.58 410.04 999.43 417.52 865.41 535.45 863.38 625.42 991.00 631.97
00012815 00000119 790.64 211.56 395.27 559.73 836.01 409.71 1000.35 417.72 866.71 535.16 865.93 623.23 994.24 630.13
00012816 00000120 792.22 212.18 396.40 561.56 837.70 408.81 1003.05 416.96 868.23 534.19 867.13 623.78 996.23 630.75
00012817 00000121 791.98 213.87 397.06 565.26 839.83 408.90 1002.17 415.78 868.65 534.45 870.90 623.41 1000.50 628.97
00012818 00000122 792.27 210.48 397.12 568.34 839.37 409.27 1002.68 414.67 868.78 532.94 871.33 624.02 1001.27 628.42
00012819 00000123 791.59 207.99 395.23 567.07 837.62 409.27 1003.01 415.12 869.00 532.36 867.57 625.08 995.86 630.39
00012820 00000124 787.27 208.29 395.52 564.03 833.80 410.16 998.13 415.50 865.99 532.18 859.46 624.83 987.18 629.99
00012821 00000125 784.14 206.73 394.22 565.35 828.66 411.69 993.05 415.92 860.30 532.01 851.69 626.62 978.36 631.10
00012822 00000126 780.84 207.23 396.15 565.79 825.38 413.25 990.21 417.02 857.81 534.31 849.64 629.21 975.34 633.33
00012823 00000127 778.87 206.63 396.49 566.15 823.60 412.96 986.75 416.51 854.44 534.10 850.03 629.72 973.03 633.56
00012824 00000128 779.46 207.45 396.88 570.52 824.29 413.91 986.27 416.58 853.24 534.28 852.34 632.22 973.40 635.22
00012825 00000129 778.10 208.48 397.60 571.38 822.57 414.38 982.46 416.92 849.59 532.93 850.38 633.78 970.06 636.53
00012826 00000130 778.97 207.34 397.37 570.86 821.81 416.25 981.57 419.50 850.15 535.08 851.50 632.81 971.80 636.10
00012827 00000131 772.94 209.40 404.19 565.60 816.94 421.19 978.31 425.32 848.58 534.78 847.09 628.67 971.94 632.32
00012828 00000132 773.32 208.81 405.51 561.57 819.34 418.29 983.33 424.34 854.22 534.53 849.39 624.56 975.82 629.95
00012829 00000133 776.75 207.22 401.81 562.48 823.16 415.03 987.12 419.46 858.79 536.53 853.32 624.51 980.73 628.73
00012830 00000134 777.69 207.70 401.44 558.95 825.44 412.33 991.12 414.55 863.21 534.36 858.41 623.10 986.21 625.63
00012831 00000135 781.42 209.18 400.56 557.18 829.95 412.71 993.90 415.57 868.24 535.79 865.81 623.88 990.66 626.78
00012832 00000136 783.52 210.04 399.55 556.96 832.02 412.39 997.59 416.47 869.95 536.13 868.23 623.94 994.69 627.73
00012833 00000137 784.09 210.36 399.57 557.69 832.99 412.59 998.70 416.05 871.41 535.57 869.93 624.56 995.96 627.78
00012834 00000138 787.89 211.11 399.20 556.48 836.49 412.19 1004.39 416.77 875.55 533.91 872.45 623.99 999.02 628.02
00012835 00000139 791.54 207.31 399.34 557.19 838.26 410.03 1009.35 413.73 878.70 532.25 874.54 622.52 1002.66 625.78
00012836 00000140 792.61 205.54 397.81 557.72 838.57 409.11 1008.90 412.33 878.43 530.74 874.55 622.01 1002.40 624.78
00012837 00000141 792.90 205.72 398.08 559.05 837.59 409.60 1007.97 412.38 877.09 530.82 872.95 623.58 1000.70 626.13
00012838 00000142 791.25 204.19 396.65 560.45 837.56 410.26 1005.08 412.55 876.12 529.62 872.43 623.40 997.87 625.65
00012839 00000143 789.67 202.46 398.71 561.86 836.76 409.96 1004.61 410.82 875.59 526.87 873.84 622.24 998.46 623.27
00012840 00000144 788.40 202.48 399.61 560.65 835.91 410.82 1002.97 410.76 874.66 526.88 874.21 622.03 998.46 622.28
00012841 00000145 784.71 202.92 399.17 561.55 829.73 411.22 990.72 408.49 862.54 525.71 868.63 622.96 991.21 621.01
00012842 00000146 774.87 199.54 400.49 563.13 820.50 411.98 978.74 409.91 850.01 526.22 854.91 619.42 977.55 618.02
00012843 00000147 768.63 199.98 402.98 563.80 815.20 412.08 968.31 414.25 837.14 525.92 846.29 616.68 968.06 618.36
00012844 00000148 765.96 201.07 403.39 563.35 813.26 410.70 962.97 415.02 831.42 524.69 843.13 615.31 964.10 618.55
00012845 00000149 764.05 203.45 405.66 562.15 811.92 413.42 962.51 417.78 831.07 526.96 842.24 616.49 965.10 619.80
00012846 00000150 766.31 204.84 406.38 561.38 812.43 417.37 966.62 418.54 837.51 531.83 848.22 621.16 971.36 622.02
00012847 00000151 765.94 205.63 406.39 562.54 813.71 419.89 968.29 418.01 843.03 535.63 855.89 624.23 978.53 622.68
00012848 00000152 768.66 209.33 407.24 561.61 816.34 420.62 971.65 417.54 848.44 538.37 861.04 626.46 985.14 623.97
00012849 00000153 768.10 209.40 407.51 563.10 816.01 422.03 968.77 420.73 846.28 542.40 861.66 626.96 984.76 625.77
00012850 00000154 764.69 212.65 408.16 560.36 811.32 421.41 962.16 424.31 838.07 545.96 856.06 626.63 977.76 628.41
00012851 00000155 760.98 215.84 407.66 556.60 807.34 419.88 955.16 426.37 829.52 544.90 850.63 626.62 969.73 630.86
00012852 00000156 760.20 215.16 404.84 558.15 802.42 422.51 947.28 429.24 818.81 546.02 844.11 628.23 962.26 632.24
00012853 00000157 759.15 217.07 403.86 556.95 799.50 422.89 943.08 429.24 813.47 546.26 841.27 628.18 959.51 631.64
00012854 00000158 759.42 217.10 405.97 556.91 802.73 423.67 947.16 430.42 820.23 547.48 844.90 628.37 963.31 632.37
00012855 00000159 759.72 217.27 408.40 559.44 804.74 426.20 951.76 431.23 828.80 552.92 851.67 631.41 971.91 634.22
00012856 00000160 764.92 216.70 406.21 562.13 808.45 428.79 956.72 428.71 834.95 555.08 859.68 633.48 982.66 632.26
00012857 00000161 766.96 213.78 406.91 566.81 812.29 428.92 964.21 427.72 843.93 555.08 865.88 632.88 990.70 631.12
00012858 00000162 767.53 212.08 407.36 567.95 812.87 429.50 964.71 427.47 844.63 554.17 866.55 633.61 990.88 631.28
00012859 00000163 767.59 214.80 405.92 564.39 811.77 428.62 961.71 429.71 841.03 555.32 862.58 632.97 986.27 632.98
00012860 00000164 764.78 215.36 405.72 562.00 808.80 425.56 955.73 430.90 833.70 554.50 856.58 632.04 976.37 635.31
00012861 00000165 759.00 216.94 407.60 562.04 803.58 424.63 951.71 431.86 826.79 554.52 850.50 634.48 969.38 639.04
00012862 00000166 756.80 219.96 408.43 559.66 801.50 425.46 950.32 432.76 826.78 556.64 849.14 637.11 965.90 641.70
00012863 00000167 759.21 219.88 406.81 562.48 802.98 427.89 950.35 433.28 827.82 557.84 852.62 639.20 969.10 642.16
00012864 00000168 765.42 219.43 403.21 565.64 808.29 428.27 952.94 432.41 830.28 558.78 858.96 637.99 976.62 640.08
00012865 00000169 760.59 223.49 403.55 566.41 806.15 433.45 950.18 434.49 831.51 560.20 860.69 645.61 973.39 644.84
