Video ID: 	Ur3J1-95F-8
H: 	1080
W: 	1920
FPS: 	25.0

FRAME INDEX X0 Y0 W H [Landmarks (5 Points)]

00013376 00000000 1163.61 140.85 372.48 542.55 1280.61 346.47 1454.85 371.93 1367.06 452.86 1277.28 543.80 1413.30 567.57
00013377 00000001 1165.80 136.64 372.55 542.04 1285.12 340.73 1459.28 363.06 1373.92 445.96 1283.29 536.32 1420.12 557.30
00013378 00000002 1162.68 132.38 370.31 542.01 1281.43 336.40 1454.37 357.05 1373.79 436.92 1283.47 531.97 1420.19 551.39
00013379 00000003 1160.60 127.99 369.05 548.57 1281.19 332.92 1453.30 354.01 1375.90 429.96 1283.20 531.61 1418.39 551.23
00013380 00000004 1157.71 120.91 371.11 551.11 1281.22 331.27 1452.34 351.04 1378.58 424.15 1286.30 529.27 1420.47 547.57
00013381 00000005 1153.84 118.70 369.74 545.33 1279.18 330.22 1451.18 346.30 1379.45 418.53 1289.60 524.97 1423.93 539.89
00013382 DELETE   1148.33 117.44 370.35 540.93 1272.09 325.86 1445.49 341.27 1370.16 413.61 1283.62 517.34 1422.51 531.03
00013383 DELETE   1139.32 114.71 373.03 541.36 1263.26 319.11 1438.15 339.37 1359.61 406.36 1273.14 510.22 1415.31 527.01
00013384 00000008 1132.48 113.24 373.32 543.75 1256.10 315.17 1429.28 336.39 1353.10 405.02 1265.45 508.61 1407.02 526.47
00013385 00000009 1129.91 112.06 373.44 549.65 1255.13 317.73 1420.29 338.69 1346.84 405.82 1264.28 512.97 1392.95 530.82
00013386 00000010 1128.65 112.10 373.70 548.67 1254.63 318.59 1420.08 338.30 1347.73 406.15 1265.66 514.36 1393.56 531.16
00013387 00000011 1127.83 113.81 374.00 540.28 1254.13 320.35 1420.92 339.00 1348.89 404.80 1267.33 513.40 1397.03 529.10
00013388 00000012 1127.06 114.46 373.41 537.31 1251.93 320.58 1420.23 339.37 1346.94 402.69 1265.31 510.25 1398.75 526.07
00013389 00000013 1127.22 115.88 372.00 533.19 1251.14 319.54 1419.33 338.33 1345.69 402.71 1264.40 508.27 1398.09 524.17
00013390 00000014 1126.89 115.52 371.20 531.81 1249.16 319.33 1418.77 337.82 1343.98 403.64 1261.46 508.15 1397.62 523.85
00013391 00000015 1126.74 115.39 369.45 528.25 1247.88 319.11 1417.79 337.53 1342.74 404.35 1258.90 507.65 1396.21 523.30
00013392 00000016 1126.89 115.77 367.87 524.95 1247.14 318.75 1417.11 336.68 1341.81 404.42 1257.49 508.11 1393.99 523.33
00013393 00000017 1126.80 115.17 367.93 526.99 1246.59 318.77 1417.13 337.09 1341.43 403.45 1256.45 507.46 1394.36 523.06
00013394 00000018 1126.39 115.55 370.26 529.05 1245.94 319.47 1418.39 337.83 1341.39 404.01 1256.44 508.44 1396.46 523.99
00013395 00000019 1127.23 115.81 370.49 530.38 1247.77 319.90 1420.57 337.68 1343.63 406.05 1259.76 511.21 1398.53 526.25
00013396 00000020 1129.57 117.61 369.07 530.02 1248.30 323.03 1421.47 338.71 1343.99 409.09 1261.75 515.11 1399.31 528.58
00013397 00000021 1129.63 120.06 368.72 528.46 1248.56 325.66 1421.93 340.70 1344.40 409.83 1263.50 518.90 1397.96 531.77
00013398 00000022 1129.68 122.36 368.30 527.00 1248.49 326.11 1422.13 340.31 1344.70 410.73 1264.37 521.96 1397.26 534.08
00013399 00000023 1127.86 123.16 369.28 526.08 1247.99 326.26 1420.86 340.40 1344.11 410.66 1263.99 522.07 1395.78 534.12
00013400 00000024 1127.50 123.72 369.59 525.69 1247.69 326.42 1420.48 340.76 1343.77 411.23 1263.52 521.46 1396.05 533.68
00013401 00000025 1127.25 124.59 369.47 525.12 1248.05 327.33 1421.14 341.66 1344.35 412.06 1263.98 521.64 1396.52 533.86
00013402 00000026 1126.34 124.74 370.73 531.51 1246.98 327.37 1419.63 341.98 1341.75 412.94 1260.90 524.20 1393.50 536.79
00013403 00000027 1123.34 127.26 373.00 538.62 1243.91 326.14 1415.82 341.40 1337.57 416.03 1256.72 528.65 1388.75 541.81
00013404 00000028 1122.81 131.98 370.60 538.44 1239.01 325.86 1412.02 339.46 1333.48 418.74 1253.48 534.07 1386.24 545.93
00013405 00000029 1121.57 131.00 371.11 535.04 1237.29 327.97 1412.11 341.32 1331.21 420.18 1251.74 532.34 1386.78 543.99
00013406 00000030 1122.52 133.09 370.47 531.46 1232.72 335.01 1411.28 341.98 1325.13 423.48 1248.51 532.35 1389.94 539.81
00013407 00000031 1122.75 132.30 368.26 529.65 1232.27 337.75 1408.42 345.08 1323.67 424.26 1246.60 529.73 1388.44 537.67
00013408 00000032 1122.52 131.46 367.81 530.28 1230.60 335.12 1409.24 341.91 1322.68 423.03 1246.26 530.05 1388.89 537.55
00013409 00000033 1122.34 129.82 367.46 527.42 1229.61 335.23 1411.68 342.73 1322.01 422.62 1245.39 530.30 1390.04 538.18
00013410 00000034 1120.97 130.06 367.44 525.07 1229.30 333.65 1411.20 342.09 1321.77 421.94 1245.10 528.91 1388.37 537.50
00013411 00000035 1120.51 131.26 366.17 524.48 1229.15 333.82 1408.96 341.84 1321.24 420.87 1245.80 529.46 1386.18 537.74
00013412 00000036 1119.84 129.93 366.45 526.27 1228.22 332.91 1408.27 341.05 1320.22 421.28 1245.78 530.17 1385.73 538.44
00013413 00000037 1119.84 130.70 366.64 528.51 1227.45 333.49 1407.70 341.63 1318.94 422.22 1244.65 531.35 1385.05 539.74
00013414 00000038 1121.62 134.29 366.34 536.44 1228.23 334.00 1407.24 339.76 1319.69 422.67 1245.67 538.10 1383.63 544.61
00013415 00000039 1121.85 135.86 366.49 535.48 1228.89 334.67 1407.24 340.03 1320.62 423.87 1246.31 538.41 1384.78 544.48
00013416 00000040 1121.76 134.74 368.28 532.38 1229.75 334.91 1410.22 340.62 1322.08 424.76 1247.30 535.72 1388.96 541.88
00013417 00000041 1121.80 135.27 368.29 531.47 1229.52 334.62 1410.44 341.17 1321.40 424.85 1246.53 535.80 1388.16 542.72
00013418 00000042 1122.61 136.51 367.71 535.35 1229.34 334.61 1409.38 341.05 1321.41 424.50 1245.66 535.86 1388.39 542.65
00013419 00000043 1122.69 137.24 367.94 534.96 1229.89 335.82 1408.74 341.18 1322.80 425.25 1246.86 536.22 1389.01 542.18
00013420 00000044 1122.38 135.67 369.21 532.69 1231.17 335.53 1410.62 340.78 1325.43 425.21 1247.82 533.07 1392.34 538.88
00013421 00000045 1122.81 135.38 368.89 530.64 1233.32 335.40 1412.90 340.38 1329.21 424.73 1249.11 529.74 1395.75 535.29
00013422 00000046 1122.62 135.46 368.62 526.86 1235.08 335.29 1413.71 338.98 1331.56 423.44 1252.01 529.22 1396.44 533.75
00013423 00000047 1121.62 133.81 369.22 524.74 1236.78 334.26 1415.31 338.93 1335.09 423.64 1254.63 529.26 1396.99 534.62
00013424 00000048 1121.72 133.20 369.13 524.22 1237.54 334.39 1415.75 338.21 1336.67 423.42 1256.67 529.89 1398.05 534.49
00013425 00000049 1122.09 131.78 369.23 523.96 1238.23 333.91 1415.74 337.15 1337.28 423.09 1257.85 529.63 1397.68 533.64
00013426 00000050 1122.70 130.88 369.63 523.92 1239.02 333.03 1416.55 336.41 1337.56 422.03 1257.56 528.94 1397.32 533.14
00013427 00000051 1123.34 130.29 369.04 522.91 1239.91 332.55 1416.94 335.53 1338.78 421.45 1258.89 528.14 1397.89 531.96
00013428 00000052 1122.26 126.10 369.91 524.38 1244.31 328.30 1420.81 335.57 1346.37 418.02 1264.71 525.27 1401.92 531.66
00013429 00000053 1123.93 126.04 370.02 525.40 1246.10 328.75 1421.39 335.63 1348.18 416.59 1266.82 524.09 1403.78 530.26
00013430 00000054 1124.62 126.31 370.02 525.96 1246.86 327.97 1421.92 334.24 1349.40 416.09 1268.42 524.36 1404.80 530.05
00013431 00000055 1125.90 126.07 370.99 529.53 1249.64 329.11 1422.50 335.61 1349.54 417.18 1270.78 525.09 1402.92 530.88
00013432 00000056 1125.21 126.21 375.49 534.47 1253.20 329.71 1424.68 335.34 1354.72 420.98 1276.69 529.79 1404.85 534.58
00013433 00000057 1127.71 126.19 376.03 535.93 1256.76 332.29 1431.03 338.02 1361.55 421.99 1282.18 533.80 1410.00 538.60
00013434 00000058 1134.24 129.42 371.22 525.94 1261.05 337.19 1438.33 341.81 1367.77 422.52 1289.32 533.40 1419.88 537.26
00013435 00000059 1138.78 128.81 366.96 519.32 1265.76 336.30 1441.35 340.40 1373.02 417.89 1294.95 529.23 1423.60 532.64
00013436 00000060 1140.22 127.07 367.04 520.34 1267.10 332.52 1442.54 337.78 1374.23 414.28 1295.97 526.81 1424.78 531.18
00013437 00000061 1141.22 125.30 368.45 523.43 1267.67 332.23 1443.37 338.26 1374.81 413.32 1295.42 526.52 1425.48 531.73
00013438 00000062 1141.78 125.04 369.04 527.19 1269.85 333.31 1443.19 339.18 1375.31 414.88 1294.03 527.06 1422.00 532.35
00013439 00000063 1141.13 124.11 368.84 529.04 1270.14 337.22 1441.19 343.56 1373.88 416.67 1293.87 528.01 1421.41 533.76
00013440 00000064 1141.86 123.70 370.26 535.91 1270.84 339.03 1441.33 346.21 1373.98 418.91 1291.84 530.53 1421.15 537.33
00013441 00000065 1142.51 124.35 369.36 545.63 1270.79 335.49 1439.82 342.42 1375.82 418.53 1289.04 534.79 1417.59 541.80
00013442 00000066 1142.92 123.28 370.15 544.63 1269.93 333.15 1441.85 341.56 1375.40 417.45 1290.04 533.69 1420.33 541.65
00013443 00000067 1144.52 122.88 369.66 537.57 1270.03 333.02 1443.67 340.30 1374.83 416.41 1292.52 531.33 1423.20 538.34
00013444 00000068 1145.07 122.78 367.76 531.40 1269.86 330.74 1442.72 338.49 1374.25 415.11 1293.30 525.74 1424.46 532.87
00013445 00000069 1143.78 123.83 369.00 524.80 1267.73 329.94 1441.06 337.64 1371.49 413.01 1291.97 523.19 1423.07 530.15
00013446 00000070 1142.69 124.62 366.93 518.59 1266.18 329.84 1437.97 337.29 1368.92 411.91 1291.00 520.43 1420.75 526.96
00013447 00000071 1140.54 124.63 369.16 517.61 1264.15 329.24 1437.79 336.15 1367.72 411.11 1289.03 518.98 1421.31 525.06
00013448 00000072 1138.48 122.98 369.86 520.81 1263.25 329.04 1437.30 337.01 1366.99 410.45 1287.04 519.30 1419.42 526.22
00013449 00000073 1135.14 121.19 369.87 537.91 1264.58 329.79 1435.16 339.36 1367.99 413.91 1283.23 525.06 1414.86 533.45
00013450 00000074 1132.37 122.08 371.13 541.69 1260.51 336.08 1432.07 345.72 1364.20 415.53 1279.98 529.21 1413.20 537.51
00013451 00000075 1133.67 122.65 369.79 537.53 1260.47 334.28 1431.43 341.01 1364.77 416.63 1281.95 527.16 1415.28 533.28
00013452 00000076 1133.78 122.52 370.64 531.46 1258.67 333.20 1432.72 340.11 1363.33 415.29 1282.14 522.87 1418.91 528.91
00013453 00000077 1132.40 123.36 370.04 526.35 1256.40 332.53 1428.81 337.50 1361.14 415.63 1281.34 520.36 1418.20 525.02
00013454 00000078 1130.48 122.13 368.50 523.11 1254.46 330.57 1427.04 335.04 1360.73 413.88 1280.10 517.12 1418.21 521.36
00013455 00000079 1128.89 122.46 368.69 522.31 1252.83 328.95 1425.80 334.18 1358.67 413.51 1276.64 514.95 1417.41 519.82
00013456 00000080 1127.72 124.03 368.52 522.88 1252.05 329.73 1423.45 334.73 1357.60 414.20 1275.46 514.93 1417.07 519.69
00013457 00000081 1126.58 128.67 369.98 519.40 1251.37 333.02 1424.89 336.17 1358.75 416.26 1276.11 516.97 1418.85 520.14
00013458 00000082 1125.78 129.35 371.98 524.60 1250.08 334.58 1424.49 338.73 1356.69 419.82 1274.54 520.31 1417.66 524.31
00013459 00000083 1123.04 130.36 375.69 535.17 1248.90 332.97 1425.37 340.11 1355.89 423.66 1271.03 524.81 1417.91 531.03
00013460 00000084 1121.35 133.33 376.98 534.86 1247.43 333.42 1425.23 340.16 1355.64 425.62 1269.33 527.71 1417.95 533.53
00013461 00000085 1122.63 132.23 375.75 532.07 1247.31 334.57 1425.28 340.50 1355.04 425.21 1270.26 525.06 1418.94 530.37
00013462 00000086 1123.85 131.38 373.02 522.54 1248.15 335.40 1424.59 338.99 1356.07 422.04 1272.05 522.06 1417.90 525.61
00013463 00000087 1125.65 128.57 370.22 520.16 1249.86 335.44 1425.82 338.66 1358.28 420.62 1274.16 519.27 1419.68 522.60
00013464 00000088 1125.47 128.18 370.73 521.43 1249.47 335.54 1426.28 339.00 1357.74 420.55 1273.93 518.58 1420.59 522.10
00013465 00000089 1124.82 128.85 371.15 521.14 1248.32 335.72 1424.78 339.21 1356.28 420.87 1273.92 519.83 1419.69 523.37
00013466 00000090 1125.18 128.08 369.15 529.12 1248.50 337.40 1423.23 342.62 1354.67 424.40 1273.03 524.21 1416.52 529.09
00013467 00000091 1123.19 130.11 371.68 536.88 1247.60 341.07 1416.88 343.54 1350.64 428.00 1273.06 529.68 1409.28 532.23
00013468 00000092 1122.12 132.92 374.27 533.87 1242.36 341.87 1417.91 342.50 1346.57 428.18 1270.55 531.90 1412.05 532.72
00013469 00000093 1121.09 136.53 372.18 530.62 1237.37 343.33 1413.04 339.89 1342.94 427.31 1264.02 532.71 1409.55 530.16
00013470 00000094 1121.00 134.78 370.15 527.95 1233.99 341.43 1410.92 337.69 1338.44 426.83 1261.00 530.84 1406.71 528.16
00013471 00000095 1120.01 131.97 369.08 528.65 1231.50 339.47 1410.40 336.52 1335.09 424.83 1258.57 529.76 1405.40 527.85
00013472 00000096 1119.61 131.55 368.31 531.21 1230.10 337.56 1408.57 336.01 1331.99 423.94 1256.98 529.86 1403.56 529.09
00013473 00000097 1117.20 129.11 369.21 536.92 1226.75 337.23 1404.92 335.50 1327.57 422.88 1254.85 532.37 1400.32 531.61
00013474 00000098 1116.08 124.64 368.14 544.29 1224.43 336.30 1403.86 335.96 1324.67 423.01 1251.11 534.04 1397.15 534.82
00013475 00000099 1114.79 124.48 366.23 544.68 1222.82 335.22 1400.87 335.12 1322.93 422.73 1249.77 532.87 1395.66 533.87
00013476 00000100 1113.68 120.57 365.80 547.03 1220.85 334.72 1397.23 333.09 1320.11 421.92 1247.23 531.78 1392.01 531.64
00013477 00000101 1112.10 120.69 364.03 546.15 1217.99 334.40 1392.37 330.29 1317.90 420.15 1244.81 530.97 1388.97 528.91
00013478 00000102 1109.34 120.81 365.40 542.40 1215.46 335.35 1389.55 330.97 1316.59 420.30 1243.69 530.32 1387.32 527.96
00013479 00000103 1106.36 119.71 365.97 540.55 1212.88 338.96 1388.02 336.45 1314.26 422.40 1241.16 530.42 1385.30 529.36
00013480 00000104 1103.91 123.69 363.12 537.86 1211.99 345.74 1382.70 344.26 1311.79 427.84 1237.65 530.73 1380.17 530.59
CROP_BBOX: 650 0 1686 955
