Video ID: 	04NM8FbghFY
H: 	1080
W: 	1920
FPS: 	25.0

FRAME INDEX X0 Y0 W H [Landmarks (5 Points)]

00006144 00000000 368.46 78.04 413.30 556.96 501.75 286.71 687.40 280.06 622.10 323.76 538.95 481.79 697.39 474.17
00006145 DELETE   372.09 85.62 412.94 556.81 504.95 288.68 689.40 281.64 625.38 329.30 542.13 486.79 698.09 479.01
00006146 00000002 380.10 87.80 417.50 561.44 512.96 291.89 697.39 290.52 624.96 339.52 542.56 490.20 693.36 488.96
00006147 00000003 385.85 89.19 415.44 569.62 512.94 295.37 700.23 291.85 625.43 347.12 544.59 501.58 694.70 498.94
00006148 00000004 385.50 89.59 419.89 580.56 513.65 298.00 700.40 292.96 625.04 357.02 547.82 507.77 697.68 503.84
00006149 00000005 386.31 92.21 422.30 583.67 514.70 300.51 702.24 293.81 626.18 363.31 550.65 511.35 700.29 505.86
00006150 00000006 387.15 91.66 426.07 592.90 516.77 305.97 704.16 297.61 632.34 372.63 556.41 519.61 708.96 512.24
00006151 00000007 391.19 94.90 421.53 600.90 522.85 311.25 709.77 308.22 636.60 388.00 558.18 528.71 707.77 526.12
00006152 00000008 392.84 96.53 422.55 617.31 526.93 322.12 714.53 320.14 642.62 400.31 561.12 544.03 714.76 542.01
00006153 00000009 396.10 117.31 425.96 615.02 532.97 335.52 721.37 326.51 648.32 412.36 571.61 560.16 716.01 550.83
00006154 00000010 396.24 126.15 428.36 616.82 529.92 342.32 720.57 334.55 645.63 426.56 571.41 571.60 714.69 563.04
00006155 00000011 394.83 127.50 431.15 629.79 531.31 351.59 723.53 342.60 649.58 441.50 571.15 584.59 718.62 574.93
00006156 00000012 395.17 131.69 432.01 634.66 531.26 360.84 725.06 352.96 650.33 453.91 568.03 591.56 721.83 582.70
00006157 00000013 393.46 136.39 430.91 640.59 533.54 368.71 724.42 363.43 652.50 464.68 568.72 600.27 721.00 594.02
00006158 00000014 393.56 139.68 431.96 650.20 533.55 374.83 726.33 370.49 653.40 478.52 568.62 611.97 723.85 606.56
00006159 00000015 391.17 140.45 436.48 659.59 536.24 381.33 726.70 379.04 656.41 489.64 567.99 618.76 725.31 615.21
00006160 00000016 391.03 144.44 440.65 664.49 536.28 387.61 729.18 386.20 655.20 499.97 563.99 625.17 727.57 622.73
00006161 00000017 390.68 151.64 442.87 666.29 535.90 394.83 729.19 391.55 654.64 508.16 565.17 632.60 731.82 628.62
00006162 00000018 388.84 155.97 443.96 665.52 535.73 402.97 728.86 399.45 656.07 519.05 566.89 639.90 732.09 635.98
00006163 00000019 389.13 165.13 445.61 667.73 534.85 410.70 734.60 400.81 659.83 525.03 573.38 649.72 731.24 638.30
00006164 00000020 387.71 170.80 446.45 665.21 533.26 416.69 733.15 407.64 657.95 529.48 571.19 653.90 730.24 643.30
00006165 00000021 389.77 173.18 442.70 665.93 534.58 422.13 730.53 413.81 657.37 534.30 570.22 657.72 727.44 647.79
00006166 00000022 390.73 176.22 441.69 664.35 535.24 424.72 730.20 417.34 657.69 538.21 569.08 658.63 726.89 649.62
00006167 00000023 391.68 178.63 441.38 660.39 535.91 425.05 731.01 417.95 658.49 541.20 569.25 658.50 727.38 649.74
00006168 00000024 391.33 179.01 442.45 662.46 537.07 425.40 731.11 419.19 658.63 542.84 568.66 658.74 727.49 650.68
00006169 00000025 391.00 180.36 440.84 667.65 540.01 425.55 730.70 420.14 660.04 543.60 569.68 661.49 726.34 653.97
00006170 00000026 392.92 179.70 437.24 669.42 541.78 425.36 731.77 418.41 660.82 543.64 575.17 668.18 722.38 659.16
00006171 00000027 396.46 179.33 433.89 664.98 538.95 425.72 732.74 416.13 659.71 543.77 579.35 672.79 722.73 661.92
00006172 00000028 395.79 179.53 435.15 664.08 538.41 425.53 732.44 415.52 659.54 543.56 579.57 672.60 723.60 661.40
00006173 00000029 394.82 179.15 435.39 665.28 538.73 425.24 731.84 414.74 659.78 542.24 580.00 672.52 723.14 660.93
00006174 00000030 393.79 179.89 434.65 667.85 539.80 424.26 730.40 415.40 659.53 541.24 579.08 671.53 721.08 661.19
00006175 00000031 392.48 178.08 435.65 668.46 537.55 424.96 728.48 415.03 658.28 540.01 577.47 670.37 721.12 659.21
00006176 00000032 392.21 176.71 435.55 665.22 535.26 424.93 727.57 415.93 656.47 541.05 574.59 667.94 719.98 657.59
00006177 00000033 390.84 179.52 437.86 657.80 534.52 425.53 726.54 416.32 655.76 541.11 574.02 663.98 721.88 653.46
00006178 00000034 389.21 176.61 438.48 657.63 533.06 425.40 726.26 416.97 656.12 541.93 572.70 661.84 722.23 652.05
00006179 00000035 388.00 175.80 438.06 658.20 531.72 424.71 726.89 418.32 654.60 542.24 571.30 661.63 721.17 653.77
00006180 00000036 388.69 177.92 436.72 658.32 530.26 424.23 724.41 418.70 651.96 542.15 567.42 661.86 717.97 654.70
00006181 00000037 388.31 179.43 434.44 663.00 530.78 424.59 720.50 418.35 648.59 542.98 567.01 665.79 708.68 658.01
00006182 00000038 387.09 181.56 433.71 663.64 530.51 425.60 719.17 419.18 647.47 544.63 568.35 668.37 707.53 660.30
00006183 00000039 386.86 184.65 433.73 662.39 529.90 425.01 718.08 418.84 645.98 545.50 566.89 668.98 706.97 661.07
00006184 00000040 386.62 185.14 433.54 662.68 529.45 424.95 717.49 420.55 645.17 546.46 564.52 668.19 706.21 661.69
00006185 00000041 387.05 186.14 433.76 659.22 527.87 425.18 718.05 420.24 645.00 546.90 563.91 667.08 708.45 660.25
00006186 00000042 386.15 182.71 434.34 655.76 524.56 425.06 718.51 420.34 644.16 547.21 561.60 664.64 709.29 658.35
00006187 00000043 385.07 179.22 434.68 659.80 522.44 425.47 718.57 420.84 643.01 547.29 560.25 664.91 710.93 658.86
00006188 00000044 384.75 182.26 434.60 656.54 521.29 425.31 716.63 421.09 641.18 548.15 558.13 664.72 707.30 659.02
00006189 00000045 381.75 186.76 435.65 659.81 524.53 424.77 713.02 421.76 639.46 548.25 557.87 666.35 700.66 661.45
00006190 00000046 379.86 188.25 436.22 663.63 524.78 425.35 712.01 422.40 638.84 550.47 554.77 667.81 699.61 662.92
00006191 00000047 380.14 188.19 435.51 661.31 523.57 426.29 711.53 423.34 638.54 550.82 553.22 666.72 700.02 661.88
00006192 00000048 381.43 187.90 433.54 653.54 520.41 426.73 711.48 423.58 637.89 550.45 552.97 664.49 700.80 659.81
00006193 00000049 381.33 185.81 433.69 653.35 518.15 426.71 711.51 423.07 636.92 549.49 552.66 663.33 702.31 658.24
00006194 00000050 379.47 186.48 435.64 656.43 519.55 426.45 710.08 423.44 635.98 549.31 551.11 662.99 699.64 658.33
00006195 00000051 380.19 187.56 434.38 651.84 518.67 425.93 709.55 422.76 635.43 548.98 551.02 661.86 698.46 657.14
00006196 00000052 378.60 188.38 436.51 650.01 518.40 425.51 708.67 423.34 634.91 547.06 548.63 658.33 699.53 654.44
00006197 00000053 377.86 187.15 437.03 652.12 517.45 424.70 709.02 423.40 634.59 546.45 545.70 656.74 701.14 653.50
00006198 00000054 377.08 187.56 437.52 650.60 516.35 425.18 707.41 423.79 632.89 545.87 545.21 656.30 699.74 653.09
00006199 00000055 376.14 186.00 437.39 653.60 516.05 425.14 705.83 423.01 631.99 546.96 546.27 657.70 697.62 653.83
00006200 00000056 377.18 186.48 435.39 653.07 515.43 425.66 705.60 421.21 631.39 548.41 550.57 662.89 695.79 657.12
00006201 00000057 378.68 185.30 433.86 654.85 514.65 426.65 706.91 421.24 631.99 550.07 552.09 666.63 697.98 660.18
00006202 00000058 379.78 187.85 433.25 653.33 514.77 426.94 708.25 421.50 633.00 551.54 551.69 667.82 699.16 661.30
00006203 00000059 380.24 186.84 432.36 654.28 516.51 426.90 708.53 422.43 633.22 550.04 552.41 667.32 697.24 661.64
00006204 00000060 381.39 187.73 431.01 651.83 517.47 426.25 708.62 422.98 633.10 549.93 550.82 665.38 694.86 660.82
00006205 00000061 382.11 186.51 431.09 653.96 518.53 425.20 709.65 421.66 634.10 549.76 552.06 665.20 695.80 660.27
00006206 00000062 381.92 186.51 432.57 655.55 520.13 425.67 710.34 421.05 636.01 549.77 555.08 666.97 695.98 661.02
00006207 00000063 382.30 184.86 431.96 659.42 523.13 425.93 712.33 421.24 639.71 550.17 559.00 668.51 699.48 662.40
00006208 00000064 382.72 185.65 431.94 660.81 523.41 425.39 713.28 420.35 640.09 549.46 559.34 669.95 700.95 663.54
00006209 00000065 382.97 186.16 431.87 661.64 524.86 424.48 714.14 420.40 640.54 549.16 557.84 669.59 700.34 663.96
00006210 00000066 383.26 188.88 431.78 663.13 525.76 425.30 714.02 422.87 639.30 551.90 552.62 668.90 700.48 664.53
00006211 00000067 383.13 194.19 432.43 659.12 525.41 427.94 714.00 425.51 639.41 554.83 549.33 669.19 702.80 664.86
00006212 00000068 382.04 193.93 433.98 659.86 525.42 430.15 714.35 427.89 640.87 556.69 549.37 669.92 704.63 665.69
00006213 00000069 382.36 194.55 433.42 658.86 525.21 430.92 713.63 427.43 640.65 556.99 550.12 669.43 706.12 664.12
00006214 00000070 381.98 194.15 434.04 655.92 524.24 430.93 712.71 427.29 640.03 555.19 550.86 666.98 705.70 661.53
00006215 00000071 380.38 193.47 436.65 654.71 522.34 430.49 710.62 426.56 637.83 553.78 550.18 663.91 705.92 658.09
00006216 00000072 380.30 190.39 436.72 657.00 520.75 430.27 709.89 426.29 636.76 553.37 548.17 661.82 706.05 655.92
00006217 00000073 380.46 190.97 436.48 655.69 519.63 431.23 709.09 426.76 636.28 553.95 547.18 661.21 706.66 654.97
00006218 00000074 379.54 190.37 437.87 656.69 518.61 432.78 708.64 428.19 636.25 554.96 546.21 661.04 707.24 654.73
00006219 00000075 379.06 189.89 438.40 656.86 518.20 433.67 708.73 429.37 636.27 555.71 545.40 661.09 707.50 655.04
00006220 00000076 378.60 190.70 439.20 656.53 518.19 434.05 708.36 429.83 636.13 556.43 544.71 660.95 706.82 654.99
00006221 00000077 378.63 191.12 439.06 655.64 518.11 434.16 708.87 430.72 636.30 556.87 544.25 660.64 706.59 655.35
00006222 00000078 378.52 190.47 439.33 656.11 517.70 434.35 708.94 430.82 636.14 556.99 544.15 660.64 706.70 655.24
00006223 00000079 378.38 191.60 439.81 655.24 517.78 434.55 708.71 430.62 636.04 556.98 544.35 660.74 707.04 655.02
00006224 00000080 379.12 190.83 439.39 657.06 518.37 435.28 708.74 431.19 636.46 557.60 544.32 660.55 707.95 654.68
00006225 00000081 379.82 190.92 438.59 657.27 518.85 435.33 709.44 431.23 636.91 558.04 544.65 660.93 708.24 655.05
00006226 00000082 379.64 190.51 439.10 659.96 519.78 435.63 710.60 431.95 638.10 558.29 544.85 661.95 708.49 656.34
00006227 00000083 381.97 190.49 436.72 661.71 522.64 436.16 711.98 431.96 639.83 559.08 547.86 664.61 708.75 658.73
00006228 00000084 385.30 190.61 433.62 663.90 526.37 436.73 714.39 433.64 642.47 559.04 550.81 666.87 710.12 661.93
00006229 00000085 385.61 191.77 433.76 665.88 528.52 436.21 714.86 432.06 644.06 558.87 557.77 672.66 709.66 666.80
00006230 00000086 387.60 192.86 431.79 665.57 529.97 435.64 716.04 430.23 645.26 559.05 561.34 675.70 709.40 668.70
00006231 00000087 388.51 192.68 430.63 665.64 529.78 435.93 717.34 429.00 646.56 559.77 564.75 679.17 709.64 670.83
00006232 00000088 389.27 191.34 430.83 664.31 529.54 436.19 717.75 428.94 647.07 559.56 565.76 679.60 709.23 671.02
00006233 00000089 389.66 191.32 430.97 664.17 529.74 436.01 718.84 428.38 648.19 559.66 566.56 680.46 709.79 671.62
00006234 00000090 389.73 191.14 431.74 664.38 531.34 435.62 719.13 428.72 648.97 559.25 566.37 678.96 709.98 670.73
00006235 00000091 388.99 191.52 432.53 665.30 532.06 435.46 719.92 429.72 649.21 559.32 564.61 677.58 710.38 670.26
00006236 00000092 388.52 191.15 433.91 666.76 533.20 434.29 719.82 430.29 649.22 559.20 563.02 675.04 710.67 669.09
00006237 00000093 388.99 190.94 433.88 667.91 534.07 434.12 720.66 431.31 649.39 559.65 561.01 673.77 711.53 668.83
00006238 00000094 388.10 191.48 434.74 667.87 533.75 434.44 720.73 431.43 650.28 559.61 560.38 673.95 713.05 668.78
00006239 00000095 387.81 191.34 435.07 669.03 533.58 434.01 720.91 431.31 650.80 559.18 558.08 673.00 714.33 668.03
00006240 00000096 386.34 191.28 436.22 667.01 532.86 434.64 720.99 431.97 650.95 558.30 557.74 671.08 715.62 666.17
00006241 00000097 387.51 191.06 435.95 663.49 531.09 435.44 721.17 432.13 649.78 558.70 557.63 669.91 716.22 664.42
00006242 00000098 386.49 190.12 436.79 660.78 528.98 438.77 720.11 434.85 649.50 559.10 556.42 667.41 717.44 661.43
00006243 00000099 387.96 189.69 432.55 663.91 530.83 443.46 713.86 437.64 646.40 559.80 556.48 670.42 713.18 663.48
00006244 00000100 385.77 188.69 431.84 672.64 529.88 441.43 711.65 435.49 642.89 558.76 556.72 674.94 709.69 667.83
00006245 00000101 383.72 184.90 430.61 682.11 528.14 435.18 712.49 429.90 641.20 555.78 555.45 677.31 707.80 670.57
00006246 00000102 381.39 185.70 430.79 691.51 531.60 431.51 715.52 424.39 648.22 555.69 564.27 684.19 712.76 675.42
00006247 00000103 382.63 186.53 429.41 691.94 532.99 434.95 716.68 425.57 652.44 559.21 572.89 691.99 713.96 681.60
00006248 00000104 377.05 188.03 437.30 693.30 531.57 442.20 717.35 430.00 655.31 568.49 576.89 700.31 716.51 687.93
00006249 00000105 378.42 197.18 435.91 681.69 529.57 446.75 716.33 434.20 653.24 578.23 575.78 704.71 714.21 692.32
00006250 00000106 378.97 197.21 435.58 665.78 525.28 445.64 715.15 432.21 650.29 574.46 573.17 696.85 714.18 683.78
00006251 00000107 380.98 189.91 433.99 664.20 523.73 442.45 715.30 429.06 649.94 564.36 571.91 687.83 716.48 674.37
00006252 00000108 383.22 188.77 432.95 661.56 527.72 437.26 717.53 427.08 651.50 558.86 570.88 680.25 715.38 669.29
00006253 00000109 384.22 188.86 433.89 661.61 531.24 434.80 720.03 427.79 653.29 558.02 570.47 677.46 715.77 669.08
00006254 00000110 386.68 190.48 432.54 660.12 530.78 435.60 720.24 427.88 652.43 558.29 570.73 677.99 716.03 669.05
00006255 00000111 387.27 192.06 432.77 659.40 531.84 436.54 721.96 430.07 653.03 559.97 570.59 678.19 716.91 670.19
00006256 00000112 388.07 191.32 432.68 662.08 532.74 435.98 722.97 429.83 654.36 559.30 571.67 679.18 718.64 671.35
00006257 00000113 388.71 192.97 432.28 660.48 533.18 435.80 722.76 429.44 654.09 559.16 571.61 678.61 718.34 670.61
00006258 00000114 388.34 193.34 432.22 662.26 534.43 436.08 721.14 431.06 652.79 560.70 568.60 677.04 715.77 670.19
00006259 00000115 385.85 190.41 434.70 671.21 534.95 437.51 720.87 433.60 652.95 563.99 564.91 678.88 714.39 673.00
00006260 00000116 385.11 189.36 435.99 680.71 535.31 441.11 721.47 436.95 654.84 567.59 565.55 685.09 718.79 679.00
00006261 00000117 386.23 193.36 435.79 677.10 536.13 440.82 722.70 435.78 656.07 568.49 566.69 686.12 720.64 679.26
00006262 00000118 386.07 195.16 435.87 674.06 537.22 437.52 723.72 431.61 657.50 565.73 567.89 682.71 720.82 674.88
00006263 00000119 388.56 199.47 433.57 669.40 540.37 432.01 726.66 426.53 660.54 557.83 568.92 679.03 723.83 671.44
00006264 00000120 389.96 200.15 435.62 661.65 546.68 427.87 730.47 424.07 666.10 551.25 572.30 671.84 726.26 665.74
00006265 00000121 392.76 200.42 435.37 655.80 548.14 426.72 734.44 421.78 668.88 546.07 576.47 669.47 731.23 662.42
00006266 00000122 393.72 200.93 435.00 658.49 550.93 425.83 736.60 420.21 671.69 545.83 579.60 671.20 733.78 663.50
00006267 00000123 394.61 200.69 434.28 657.62 552.34 425.85 737.79 419.48 673.25 544.02 580.55 670.71 735.90 662.53
00006268 00000124 394.31 193.68 435.99 659.21 553.19 422.94 739.10 416.70 673.53 538.53 579.75 665.06 737.82 656.99
00006269 00000125 392.83 190.75 439.38 658.89 551.29 419.72 738.38 412.32 671.04 535.25 577.73 659.62 739.57 650.59
00006270 00000126 391.42 191.19 442.23 649.69 550.04 421.09 737.64 409.67 671.71 534.63 581.26 656.39 741.91 644.13
00006271 00000127 390.85 197.42 440.61 640.05 548.21 424.75 734.37 414.35 670.42 539.44 580.81 658.13 737.18 647.00
00006272 00000128 392.37 201.19 436.49 637.59 545.82 424.55 731.57 415.43 665.72 541.42 579.16 661.52 730.02 651.30
00006273 00000129 391.99 197.12 434.05 646.09 546.33 422.32 730.95 412.85 665.56 539.60 580.90 664.78 727.45 654.10
00006274 00000130 391.74 188.43 436.40 648.22 543.72 419.70 732.82 406.74 665.01 534.07 584.18 663.99 731.94 650.31
00006275 00000131 391.79 182.51 436.27 646.05 542.49 418.20 735.14 405.61 666.62 533.53 583.42 659.84 731.77 646.89
00006276 00000132 392.26 185.27 435.09 641.64 541.11 418.12 734.04 406.49 665.44 535.94 580.68 659.04 730.35 647.02
00006277 00000133 390.65 187.25 437.46 650.82 540.88 419.11 731.85 408.39 662.38 536.88 578.48 662.77 729.46 650.94
00006278 00000134 388.64 188.93 437.41 655.64 544.18 415.91 729.58 408.53 661.18 534.39 579.16 661.93 723.95 652.48
00006279 00000135 388.99 184.01 438.76 656.52 543.74 414.56 733.48 405.04 664.01 532.37 580.85 660.83 728.67 649.79
00006280 00000136 392.79 182.15 435.89 643.07 542.91 414.36 738.82 402.01 668.63 532.08 584.86 659.07 732.45 646.42
00006281 00000137 394.52 182.51 436.20 641.79 544.75 413.43 740.64 399.98 670.54 532.83 587.87 660.11 734.71 646.45
00006282 00000138 396.60 182.39 434.32 644.18 546.71 413.80 742.15 399.69 671.80 533.02 591.31 663.72 735.67 649.22
00006283 00000139 397.22 178.80 434.89 649.28 547.59 412.17 743.43 396.32 674.05 530.04 592.85 662.68 738.20 646.47
00006284 00000140 398.63 176.27 435.39 655.74 547.06 408.83 745.37 392.44 673.92 527.17 591.76 661.78 740.20 644.87
00006285 00000141 398.19 175.86 437.34 661.95 549.07 405.85 746.90 392.10 674.00 525.63 590.20 659.70 740.06 644.61
00006286 00000142 398.38 176.34 438.48 662.49 551.57 405.60 747.41 393.82 675.42 525.42 588.93 657.12 740.79 643.78
00006287 00000143 398.98 176.36 438.36 665.02 552.99 406.29 747.61 393.90 676.52 525.96 590.14 658.13 741.84 644.26
00006288 00000144 400.31 176.10 437.17 664.89 554.32 406.23 748.82 393.80 677.92 525.07 590.54 657.52 742.48 643.69
00006289 00000145 400.42 173.21 438.60 666.22 556.77 403.68 750.90 392.24 681.09 522.95 593.04 655.29 743.97 642.23
00006290 00000146 401.16 173.49 438.75 663.96 558.61 400.64 752.15 390.90 682.66 521.32 594.37 653.46 743.34 641.88
00006291 00000147 401.77 170.62 437.88 666.72 559.29 399.44 752.20 390.73 682.69 519.93 594.21 652.36 742.05 641.60
00006292 00000148 401.06 170.98 438.82 666.00 558.71 399.12 752.52 390.22 682.28 519.91 594.22 652.25 742.13 641.31
00006293 00000149 400.81 169.69 439.21 667.06 558.96 398.98 751.93 390.67 681.98 518.61 593.76 651.18 741.44 640.71
00006294 00000150 400.95 167.86 437.96 667.40 558.39 396.90 751.87 388.03 681.37 517.36 594.30 649.89 741.36 638.98
00006295 00000151 400.43 167.68 438.19 664.89 554.84 394.66 750.72 384.53 678.00 515.21 593.56 648.94 740.45 636.94
00006296 00000152 401.05 166.71 438.26 662.41 553.68 394.67 751.01 382.91 676.96 515.01 594.18 648.80 740.81 635.46
00006297 00000153 400.56 162.73 436.59 662.07 550.33 395.51 750.39 382.85 674.73 515.66 592.98 649.93 737.56 636.01
00006298 00000154 398.00 155.75 433.73 648.04 545.79 392.40 741.71 387.92 667.63 519.03 583.99 641.08 734.83 635.30
00006299 00000155 397.14 156.99 434.01 640.58 540.94 397.11 738.28 394.89 660.95 517.49 575.49 636.60 730.77 633.09
00006300 DELETE   394.50 153.87 432.58 637.27 534.14 394.27 728.28 396.79 651.42 510.44 563.17 628.34 715.43 629.33
00006301 DELETE   390.31 151.75 437.56 649.86 530.65 382.23 727.51 390.78 644.04 505.22 553.55 630.19 700.10 636.68
00006302 00000158 391.67 152.05 437.10 667.10 537.51 368.47 728.99 382.44 642.50 495.10 552.12 632.71 686.75 643.48
00006303 00000159 395.44 149.38 439.24 667.84 544.59 360.76 735.78 381.75 642.06 487.41 547.38 622.20 684.31 638.48
00006304 00000160 400.67 153.21 447.89 671.55 553.12 360.71 745.45 385.75 641.57 486.76 546.86 616.68 680.35 636.75
00006305 00000161 409.68 159.38 450.18 657.26 562.64 367.01 754.30 401.93 644.66 493.27 548.49 611.59 685.55 639.45
00006306 00000162 420.56 164.13 444.66 646.40 565.83 376.31 759.52 412.60 650.57 510.22 551.46 617.29 694.66 646.02
00006307 00000163 428.12 172.21 439.57 644.73 572.92 382.12 761.89 418.99 652.43 513.28 554.10 621.28 697.13 650.53
00006308 00000164 434.19 173.71 438.41 647.13 581.49 379.87 767.34 416.58 657.56 509.11 560.00 621.34 700.97 650.75
00006309 00000165 436.57 179.54 442.36 647.40 582.66 378.74 770.35 412.48 660.95 500.74 561.42 610.89 705.28 639.86
00006310 00000166 440.11 173.16 445.42 653.47 589.32 372.40 779.34 409.26 670.26 498.23 567.74 608.13 711.83 639.49
00006311 00000167 447.76 172.16 443.16 662.08 594.09 368.76 790.00 407.52 679.07 497.80 569.99 614.06 716.29 646.93
00006312 00000168 452.12 174.70 443.78 654.51 600.11 370.08 797.69 410.71 686.16 500.71 577.91 616.08 720.13 650.20
00006313 00000169 457.26 172.52 442.42 647.91 607.37 370.17 804.31 413.33 693.51 503.29 584.72 614.88 723.51 651.30
00006314 00000170 459.15 162.95 444.90 640.43 614.76 371.60 804.77 416.09 698.96 507.25 588.37 612.95 726.64 650.60
