Video ID: 	bCwwPZRe_V4
H: 	1080
W: 	1920
FPS: 	25.0

FRAME INDEX X0 Y0 W H [Landmarks (5 Points)]

00018299 00000000 790.15 271.01 390.01 553.42 852.96 477.35 1031.60 509.18 908.50 653.74 879.93 692.42 1021.54 717.40
00018300 DELETE   789.85 273.11 392.38 551.89 846.48 477.13 1030.61 503.52 910.84 662.50 872.64 687.64 1022.82 708.01
00018301 00000002 781.50 263.63 392.24 550.73 841.01 467.10 1029.64 501.60 907.39 664.43 868.10 680.69 1025.06 709.00
00018302 DELETE   775.67 261.96 392.32 547.51 835.71 460.65 1020.90 493.27 897.33 656.13 862.49 672.55 1018.39 699.54
00018303 00000004 772.36 255.26 394.68 549.31 834.26 455.80 1015.78 482.39 893.48 644.98 863.90 667.29 1013.78 689.28
00018304 00000005 771.82 245.64 392.36 552.90 837.18 451.13 1003.25 477.34 883.44 624.98 873.70 667.99 1006.01 687.90
00018305 00000006 773.01 239.97 399.74 558.22 837.35 448.07 1013.82 465.80 891.99 623.22 871.62 665.76 1004.60 680.21
00018306 00000007 769.32 230.54 402.39 567.15 837.60 442.14 1014.75 459.97 891.43 615.31 870.90 658.71 1004.81 673.34
00018307 00000008 768.86 225.78 402.39 571.14 835.97 437.12 1013.34 451.24 889.45 605.78 871.25 655.44 1004.16 667.11
00018308 00000009 768.20 221.27 395.07 572.62 832.17 427.45 1012.66 443.86 890.21 607.65 864.95 646.62 1012.25 660.38
00018309 00000010 767.94 219.01 396.11 570.84 835.61 424.15 1011.18 438.42 896.24 596.89 871.95 648.51 1007.65 659.26
00018310 00000011 767.83 212.24 396.68 569.04 831.57 421.06 1015.83 437.43 896.82 604.55 865.51 638.01 1015.06 652.19
00018311 00000012 765.99 208.00 395.26 569.05 829.61 418.30 1011.38 432.77 896.11 602.36 863.10 636.24 1010.47 648.76
00018312 00000013 763.16 203.71 392.72 570.84 825.26 415.56 1002.90 428.45 886.54 593.12 857.78 635.52 1001.76 646.32
00018313 00000014 756.76 200.09 394.15 575.79 818.63 412.48 989.87 426.85 873.90 588.72 851.66 632.83 989.73 644.52
00018314 00000015 750.65 199.44 396.46 579.42 808.74 409.96 980.95 423.84 860.87 581.05 840.47 632.02 978.81 643.30
00018315 00000016 745.29 202.88 397.37 576.92 799.85 410.96 975.78 422.41 853.93 581.39 833.17 634.71 975.67 643.87
00018316 00000017 740.73 207.97 398.62 572.28 794.64 412.70 970.31 422.88 849.42 583.86 831.96 637.08 971.68 644.98
00018317 00000018 732.05 202.55 404.86 583.19 787.98 414.12 963.69 428.09 846.16 585.62 833.49 646.97 966.09 658.34
00018318 00000019 730.72 209.57 391.05 572.12 782.09 418.34 953.99 431.76 831.33 591.24 824.42 639.56 962.10 649.68
00018319 00000020 723.65 209.59 394.03 572.52 775.15 422.48 946.23 434.87 827.07 596.67 820.78 640.35 956.41 649.85
00018320 00000021 715.70 210.90 400.30 571.93 766.37 421.48 939.70 434.98 819.03 599.79 814.85 641.48 950.68 651.99
00018321 00000022 709.93 211.22 404.87 571.09 760.86 420.78 934.14 435.63 811.92 602.46 811.40 642.83 946.68 654.49
00018322 00000023 706.50 209.00 406.54 573.83 759.45 421.77 932.27 435.40 809.97 604.44 811.20 643.54 946.26 654.20
00018323 00000024 705.57 210.67 407.27 573.51 760.29 422.49 934.27 434.98 813.33 604.40 812.86 644.31 948.10 654.12
00018324 00000025 707.64 213.22 407.27 571.44 762.15 423.45 936.95 435.71 816.01 604.02 814.43 644.33 950.34 653.86
00018325 00000026 709.96 213.30 404.77 569.45 763.94 423.46 938.77 436.89 818.22 603.82 814.19 642.38 951.58 652.97
00018326 00000027 711.51 213.96 405.06 566.00 767.75 428.76 934.58 436.72 821.98 591.27 815.42 647.73 947.23 652.50
00018327 00000028 713.17 216.86 404.24 565.44 768.69 429.22 934.29 438.95 820.14 592.85 814.53 648.78 945.85 655.13
00018328 00000029 715.88 219.23 402.42 563.75 769.47 430.86 933.68 441.57 818.49 596.32 815.67 651.60 946.28 658.75
00018329 00000030 717.33 222.22 403.08 560.89 770.72 431.00 934.36 443.79 817.84 597.57 815.76 651.49 946.28 660.32
00018330 00000031 723.93 223.25 399.48 560.98 775.79 432.78 934.52 445.06 819.78 596.87 820.37 651.60 948.98 660.05
00018331 00000032 722.45 220.21 402.66 575.46 780.31 425.41 952.50 444.68 833.93 604.53 828.37 649.72 957.74 664.04
00018332 00000033 726.98 217.63 404.89 579.44 786.92 422.68 959.24 443.11 841.31 598.49 832.05 650.39 959.76 665.88
00018333 00000034 729.13 215.97 406.76 579.93 793.81 421.54 968.81 441.40 851.46 594.50 833.04 650.25 963.99 665.67
00018334 00000035 732.17 208.97 406.34 586.22 797.19 418.84 975.70 439.96 855.92 593.04 831.46 649.27 964.41 666.21
00018335 00000036 746.93 210.37 394.65 577.57 804.95 420.29 981.38 438.06 857.66 592.03 828.05 637.79 968.62 652.03
00018336 00000037 748.80 202.84 394.80 577.82 804.97 414.47 984.96 432.47 856.52 583.33 826.59 633.52 972.99 648.18
00018337 00000038 748.01 197.53 397.21 580.87 804.63 410.15 983.72 428.76 854.36 578.06 826.83 631.74 970.23 647.15
00018338 00000039 745.83 191.18 397.90 585.77 802.82 405.47 979.56 421.56 849.49 564.82 826.54 629.63 963.99 642.99
00018339 00000040 740.70 184.59 402.42 587.43 798.43 400.57 971.46 412.48 841.80 554.27 827.94 624.72 958.88 634.32
00018340 DELETE   738.88 173.21 399.47 584.17 792.85 393.60 961.49 399.92 833.26 537.93 824.48 614.78 948.96 619.53
00018341 00000042 733.06 168.25 391.09 578.41 782.15 384.88 937.99 387.45 817.92 525.81 815.16 608.67 946.54 609.40
00018342 00000043 726.44 156.58 393.45 587.99 775.08 378.52 933.02 382.45 808.25 518.21 804.04 603.95 935.36 606.41
00018343 00000044 717.85 145.45 394.29 595.33 767.70 371.88 938.74 372.31 809.65 513.52 799.94 601.09 927.37 602.39
00018344 00000045 713.23 142.93 394.11 595.81 764.68 369.03 935.89 370.08 806.93 508.94 796.40 599.12 922.93 600.77
00018345 00000046 711.69 143.63 395.90 594.47 764.39 368.29 936.30 368.72 808.26 507.70 796.74 598.56 923.79 599.70
00018346 00000047 712.27 140.66 395.06 592.81 766.47 367.67 939.26 368.10 813.80 505.41 796.02 594.71 925.85 596.14
00018347 00000048 718.96 144.30 388.38 583.82 767.99 361.15 935.98 366.36 811.99 500.36 794.53 588.44 919.93 593.07
00018348 00000049 722.13 139.08 384.36 584.07 769.81 356.11 938.33 361.75 815.85 495.67 793.96 583.93 919.64 589.20
00018349 00000050 723.62 141.16 383.59 581.06 771.16 353.66 940.91 360.91 816.76 493.35 792.77 582.44 918.64 589.10
00018350 00000051 727.27 140.52 382.48 582.38 774.95 354.73 942.15 361.52 818.24 492.10 798.12 584.42 918.78 590.49
00018351 00000052 731.01 141.20 381.37 583.73 777.66 355.00 942.95 361.98 819.12 491.26 800.13 584.51 919.28 590.63
00018352 00000053 733.49 136.93 378.84 584.38 778.09 352.49 944.50 362.39 819.81 490.26 796.76 579.36 919.63 588.11
00018353 00000054 734.35 135.11 380.19 578.93 779.24 353.95 942.47 364.10 814.18 486.38 793.76 579.27 923.34 589.12
00018354 00000055 736.66 130.38 378.65 581.61 781.56 353.10 944.20 364.76 815.48 485.08 794.11 576.86 923.56 588.14
00018355 00000056 741.62 129.92 371.46 586.04 786.42 347.99 949.04 362.89 822.03 484.54 794.84 572.56 917.57 585.62
00018356 00000057 743.12 133.58 370.69 583.54 788.55 347.71 951.22 365.09 821.96 484.65 793.84 572.36 917.31 587.20
00018357 00000058 743.73 134.79 370.38 584.62 790.26 347.72 951.89 367.11 821.96 484.08 792.90 572.18 915.05 588.67
00018358 00000059 743.89 132.15 369.79 590.23 790.92 346.12 951.97 367.04 820.84 483.60 792.08 571.52 913.83 589.41
00018359 00000060 744.12 130.00 370.13 591.79 791.55 345.54 952.06 367.09 820.13 483.29 792.89 569.88 915.32 588.28
00018360 00000061 743.55 130.38 374.59 594.80 791.46 347.68 953.32 367.91 819.93 483.86 795.53 571.08 920.39 588.29
00018361 00000062 739.59 129.93 388.56 600.48 786.33 346.86 959.18 367.71 818.64 494.88 801.90 585.64 926.64 603.86
00018362 00000063 744.41 139.10 381.41 591.90 795.70 360.35 956.13 368.72 828.54 495.49 807.98 587.66 937.59 595.24
00018363 00000064 742.84 143.05 388.77 593.86 794.77 358.54 964.60 378.10 831.18 504.29 810.89 592.13 937.51 608.63
00018364 00000065 744.20 144.77 391.07 589.75 796.07 358.08 965.91 379.93 830.45 505.01 810.41 590.25 938.99 608.91
00018365 00000066 745.25 144.91 391.12 587.25 795.98 355.65 965.93 379.26 829.86 503.95 809.28 586.61 939.69 606.91
00018366 00000067 744.58 143.41 390.99 588.57 795.39 354.30 964.42 378.28 828.72 502.77 808.85 585.16 939.12 605.58
00018367 00000068 744.80 144.45 390.21 590.28 795.22 356.17 963.52 378.05 827.80 503.43 811.04 589.10 938.02 607.54
00018368 00000069 744.97 143.09 387.61 594.77 793.38 357.60 960.61 378.63 824.42 505.73 811.78 592.07 937.02 609.33
00018369 00000070 743.96 143.10 387.67 597.63 793.04 360.30 960.78 378.45 826.32 505.83 811.86 594.53 937.00 609.26
00018370 00000071 741.92 143.72 390.00 601.91 793.39 364.28 961.77 378.96 829.73 508.26 813.81 598.39 940.49 609.95
00018371 00000072 741.63 145.40 390.16 602.96 792.97 368.36 962.05 380.80 830.70 511.67 814.10 601.99 942.15 611.74
00018372 00000073 741.59 148.84 385.33 599.96 796.56 374.45 955.15 379.25 830.42 510.56 813.96 602.35 945.95 606.16
00018373 00000074 737.75 151.46 386.36 601.61 792.88 376.15 949.80 383.11 825.41 515.05 809.41 603.25 943.04 608.58
00018374 00000075 734.30 159.81 387.09 595.28 787.82 378.95 945.88 389.50 817.98 519.84 804.34 605.64 937.08 613.63
00018375 00000076 734.43 161.84 384.00 595.35 786.80 381.71 942.73 394.65 814.69 524.05 802.81 608.07 933.07 618.23
00018376 00000077 734.50 161.23 384.92 600.59 788.41 386.26 944.18 398.26 817.38 527.20 804.12 611.90 935.59 621.08
00018377 00000078 738.88 168.01 388.73 594.82 794.51 390.76 953.03 402.92 827.12 529.72 809.31 612.75 944.42 622.09
00018378 00000079 743.99 178.18 395.98 594.62 803.31 397.20 979.20 414.07 842.82 538.50 814.70 618.86 950.22 633.01
00018379 00000080 748.50 185.93 394.93 587.85 811.58 403.45 989.26 423.16 855.63 551.80 821.72 622.83 962.64 639.38
00018380 00000081 756.77 194.20 392.92 583.41 817.77 409.69 1000.22 430.25 865.50 565.58 829.39 629.92 974.76 647.19
00018381 DELETE   764.24 200.87 388.48 578.54 824.53 415.09 1005.10 442.53 867.97 566.88 832.37 631.50 978.22 653.64
00018382 00000083 764.06 214.76 389.51 571.47 827.82 421.39 1002.98 453.68 865.48 576.23 833.84 634.75 975.28 661.04
00018383 00000084 757.37 230.11 390.12 560.84 821.74 427.30 995.65 469.55 856.15 593.26 826.84 643.43 966.06 679.00
00018384 00000085 756.63 231.37 389.05 564.78 816.58 432.17 991.10 478.40 847.37 600.53 820.11 649.69 962.22 687.95
00018385 00000086 757.05 238.64 384.48 558.12 813.08 434.14 987.63 482.01 841.59 602.46 816.03 651.44 958.93 690.99
00018386 00000087 759.08 243.20 384.76 553.26 816.17 433.91 989.35 483.46 844.40 603.51 818.12 649.88 960.02 690.69
00018387 DELETE   762.00 235.40 387.78 561.44 824.19 433.76 999.22 482.78 854.78 604.73 824.61 650.47 966.80 690.88
00018388 00000089 767.76 234.61 393.02 560.40 833.91 434.99 1008.26 476.33 867.98 600.89 835.46 651.70 973.46 686.43
00018389 00000090 772.70 232.51 393.69 560.95 841.62 432.48 1018.64 468.24 884.10 596.14 842.82 646.33 986.42 676.65
00018390 00000091 774.90 232.53 394.12 555.88 845.27 431.21 1022.47 461.44 892.28 594.82 849.43 644.07 991.84 669.94
00018391 DELETE   776.35 218.51 386.97 563.98 832.97 421.00 1016.60 451.28 883.44 594.74 837.29 635.72 994.93 660.96
00018392 DELETE   771.74 209.63 386.39 567.86 823.75 411.11 1000.11 439.64 862.53 581.93 829.43 631.77 978.42 655.31
00018393 DELETE   760.15 202.57 388.62 576.01 812.03 401.39 986.15 433.49 843.55 570.47 815.96 625.28 962.66 650.92
00018394 00000095 754.33 198.10 388.51 578.10 807.12 392.67 972.47 426.46 827.22 556.24 812.42 621.17 943.00 648.40
00018395 00000096 754.08 187.76 390.22 588.44 806.39 388.84 967.98 422.09 823.00 549.09 812.53 617.49 938.87 644.63
00018396 00000097 754.07 185.36 391.68 587.78 807.96 386.00 973.47 418.63 827.32 546.83 812.58 613.42 944.20 640.22
00018397 00000098 758.30 183.18 391.97 587.76 811.65 387.27 978.34 417.05 835.82 549.20 819.00 611.85 955.07 636.30
00018398 00000099 760.61 181.57 390.06 588.08 817.31 389.60 984.35 415.44 845.49 548.12 826.07 612.35 962.57 633.76
00018399 00000100 760.12 178.82 388.08 587.80 815.53 388.15 982.57 412.65 843.26 544.05 824.29 610.49 959.86 630.75
00018400 00000101 754.01 176.92 391.30 586.52 809.49 385.00 974.61 410.81 832.70 535.83 815.30 606.34 946.49 627.55
00018401 00000102 751.10 171.59 388.16 585.84 803.93 384.17 965.90 408.83 822.40 533.11 809.30 602.34 938.40 622.42
00018402 00000103 749.36 170.38 385.22 585.12 800.69 381.00 960.29 407.37 815.07 530.63 804.36 598.65 932.55 620.05
00018403 00000104 750.64 164.64 380.48 585.61 792.79 378.01 958.22 403.26 817.31 535.70 806.20 602.10 938.02 622.39
00018404 00000105 748.58 169.88 383.40 583.45 791.92 379.86 958.18 405.67 817.60 539.77 807.05 603.96 941.32 624.46
00018405 00000106 746.45 172.29 383.09 582.77 791.16 381.24 957.14 408.14 816.75 541.66 805.73 604.83 940.63 626.29
00018406 00000107 745.11 173.89 380.02 582.17 789.55 383.07 954.36 411.47 814.71 546.09 804.65 606.40 938.98 629.12
00018407 00000108 743.05 174.69 377.12 581.55 786.09 383.51 951.82 414.57 810.69 548.50 801.07 606.25 938.11 631.19
00018408 00000109 740.15 174.44 376.04 582.95 782.69 382.93 948.01 415.94 805.53 551.07 798.56 605.76 936.57 632.48
00018409 00000110 737.30 176.02 377.62 582.42 780.56 384.20 946.57 416.54 803.40 552.57 797.17 605.65 936.74 631.95
00018410 00000111 736.10 176.99 377.16 583.44 780.01 385.18 945.87 418.66 801.90 555.72 797.08 605.20 938.71 632.30
00018411 00000112 735.27 177.12 377.70 584.74 779.73 386.55 946.31 421.26 802.33 557.42 795.51 606.71 937.75 634.90
00018412 00000113 735.05 180.33 377.68 582.57 778.98 386.42 945.33 422.28 800.88 558.52 794.16 607.66 936.96 636.76
00018413 00000114 734.85 182.39 378.16 581.58 778.75 387.20 945.71 422.69 801.47 560.18 794.92 609.05 937.93 637.78
00018414 00000115 735.28 181.89 377.88 583.19 778.59 387.33 945.52 422.26 800.97 560.47 795.98 609.86 938.71 638.08
00018415 00000116 735.70 182.73 378.40 582.62 779.02 387.62 945.31 422.26 801.33 560.90 797.44 609.70 940.44 637.45
00018416 00000117 735.91 182.88 379.01 582.81 779.91 387.18 945.68 422.04 801.78 560.29 798.42 608.85 941.84 636.64
00018417 00000118 736.69 182.05 380.80 584.29 780.95 387.90 946.53 421.78 802.70 559.15 799.98 609.26 942.96 636.13
00018418 00000119 738.13 179.56 383.03 587.50 782.52 388.80 948.37 421.84 804.25 557.20 801.27 611.17 942.68 637.36
00018419 00000120 739.68 179.51 382.70 588.41 784.51 390.43 950.33 421.84 806.75 556.27 802.79 612.62 944.26 637.41
00018420 00000121 742.99 179.76 382.54 589.36 788.02 390.79 951.76 422.09 809.15 554.74 805.26 613.41 944.34 638.06
00018421 00000122 744.81 183.66 384.74 585.69 790.66 390.95 954.81 421.31 812.60 553.24 807.30 614.24 945.77 638.01
00018422 00000123 747.63 193.63 390.12 579.44 800.78 394.56 963.08 425.65 821.12 552.58 804.32 610.30 942.03 635.68
00018423 00000124 749.34 194.72 392.71 576.67 802.70 396.62 967.57 427.52 825.54 554.87 807.17 611.26 945.37 636.68
00018424 00000125 752.35 192.71 390.61 576.45 807.68 403.03 974.58 436.24 833.60 556.28 809.01 609.32 952.02 636.42
00018425 DELETE   755.27 195.64 388.62 572.76 811.29 402.99 978.93 437.37 839.66 557.38 814.22 608.26 959.78 635.99
00018426 00000127 758.52 196.12 388.50 572.20 815.92 405.89 982.92 438.90 845.85 558.92 820.06 609.89 965.74 636.64
00018427 00000128 763.38 193.32 388.26 573.78 820.09 405.52 986.64 436.66 850.77 560.46 826.38 611.35 970.12 636.95
00018428 00000129 766.29 190.91 389.04 578.01 823.53 402.35 993.80 430.34 858.56 559.22 831.24 614.29 975.31 637.75
00018429 00000130 767.30 191.02 388.91 575.73 825.60 400.26 998.18 425.18 865.04 558.69 835.74 615.16 979.39 636.38
00018430 00000131 766.47 188.39 389.45 576.37 825.95 400.05 1000.43 422.30 868.45 554.86 838.01 614.26 981.67 633.38
00018431 00000132 764.96 185.91 391.21 576.95 825.96 399.88 1001.30 419.64 870.56 553.29 840.86 613.33 984.72 630.42
00018432 00000133 762.52 185.40 395.36 578.02 825.50 400.78 1000.53 417.00 873.62 554.06 844.74 614.51 986.52 628.80
00018433 00000134 760.34 186.82 398.29 575.65 825.13 402.53 1001.13 415.67 878.31 557.04 849.07 615.12 991.39 626.85
00018434 00000135 757.95 187.89 402.26 574.34 826.03 403.65 1003.32 413.41 884.89 557.25 853.08 614.98 997.02 624.01
00018435 00000136 756.05 187.14 404.70 573.83 825.41 404.40 1003.87 410.14 888.93 555.14 857.96 615.45 999.31 621.19
00018436 00000137 754.24 182.29 406.73 579.29 823.81 404.74 1000.14 407.77 887.69 553.49 858.08 616.06 997.94 619.39
00018437 00000138 750.20 188.12 407.01 575.32 818.11 405.66 991.83 408.69 879.65 553.79 851.29 615.74 990.60 618.86
00018438 00000139 747.29 185.87 402.94 579.82 811.90 408.05 983.94 410.71 868.29 549.89 845.24 617.81 983.57 620.12
00018439 00000140 743.19 185.56 403.56 583.31 805.65 408.28 980.03 412.11 858.46 550.66 838.24 619.94 978.18 623.04
00018440 00000141 741.12 187.32 403.90 584.44 803.12 409.24 979.71 413.00 856.20 552.54 834.95 621.85 976.49 624.89
00018441 00000142 742.17 191.20 402.73 579.91 805.98 410.98 981.52 415.73 860.60 555.16 837.51 621.88 979.71 625.77
00018442 00000143 743.80 196.69 402.71 575.45 809.21 411.35 984.92 417.67 865.96 560.40 840.63 622.50 984.30 627.83
00018443 00000144 745.32 199.00 401.28 574.66 809.77 412.11 987.16 419.38 867.20 564.03 840.47 624.31 985.81 630.43
00018444 00000145 746.54 200.33 397.85 575.87 809.31 413.37 987.10 422.80 866.08 567.87 837.82 625.38 984.51 633.12
00018445 00000146 746.18 201.24 397.02 579.79 805.91 416.30 984.22 426.67 860.43 571.70 833.68 628.80 982.28 637.09
00018446 00000147 745.37 204.72 395.68 582.34 803.21 421.74 981.11 432.62 855.92 571.01 829.59 629.63 980.54 638.33
00018447 00000148 743.38 198.14 396.46 590.11 802.13 424.00 974.56 436.28 848.16 566.50 828.73 628.66 975.19 638.08
00018448 00000149 740.88 196.46 396.93 583.06 796.86 418.26 969.86 429.64 843.02 562.92 826.51 627.90 968.07 636.66
00018449 00000150 738.38 191.42 393.69 582.37 791.65 411.01 960.60 419.34 836.28 560.87 830.38 627.21 969.66 632.59
00018450 00000151 735.42 187.27 395.57 585.62 790.79 408.07 953.95 409.01 836.64 552.67 835.60 626.27 967.22 625.45
00018451 00000152 733.46 184.53 396.01 588.76 789.28 404.72 953.06 402.01 837.67 546.91 836.21 623.20 967.17 619.45
00018452 00000153 726.57 180.99 400.44 589.67 784.67 403.09 941.36 399.02 827.87 542.25 830.08 622.25 965.41 616.43
00018453 00000154 721.26 177.09 403.05 589.76 780.13 400.83 936.81 398.23 825.06 540.48 824.37 620.02 959.76 615.38
00018454 00000155 714.17 176.87 405.25 585.94 771.14 399.88 927.41 398.05 814.81 539.07 816.16 618.10 952.88 614.03
00018455 00000156 709.28 174.02 401.55 582.01 761.27 394.22 928.60 391.87 809.06 542.51 809.44 612.29 942.23 609.91
00018456 00000157 704.74 174.36 404.03 580.35 757.22 394.82 921.66 390.89 801.46 542.72 805.14 610.55 936.78 607.06
00018457 00000158 700.82 175.27 408.45 575.73 754.89 396.82 917.42 391.43 799.84 543.84 803.41 610.44 933.36 605.90
00018458 00000159 695.81 174.78 411.15 576.15 750.41 398.74 912.91 392.98 795.43 546.28 801.39 611.75 931.99 606.72
00018459 00000160 694.00 178.45 408.93 572.35 748.63 400.57 908.08 395.85 793.01 548.66 798.84 609.71 928.83 605.34
00018460 00000161 691.65 180.00 407.45 569.09 746.25 399.58 903.59 396.74 789.80 547.67 795.10 607.13 923.41 604.24
00018461 00000162 689.91 175.52 406.45 570.86 742.81 398.49 902.13 394.34 787.46 546.08 789.91 607.87 919.19 603.87
00018462 00000163 688.32 173.83 405.38 572.61 740.65 400.57 898.77 393.82 785.25 544.12 788.58 607.95 917.84 601.73
00018463 00000164 687.43 174.56 404.87 570.48 739.18 400.78 895.94 395.20 782.39 545.31 786.12 606.96 916.51 601.69
00018464 00000165 686.17 175.89 405.41 568.17 737.47 400.29 894.92 395.78 780.15 545.80 784.06 605.89 914.84 601.43
00018465 00000166 685.01 175.23 407.26 570.04 736.53 400.39 893.19 395.48 778.37 544.65 783.33 606.06 912.77 601.30
00018466 00000167 684.95 175.89 407.33 569.95 736.16 401.23 892.47 395.47 777.99 544.19 783.56 606.65 912.41 601.20
00018467 00000168 684.58 176.07 407.38 570.58 735.93 400.67 891.89 395.12 777.53 543.98 783.60 607.30 911.12 602.04
00018468 00000169 684.17 174.33 408.26 575.60 735.83 400.25 891.56 395.63 776.78 544.30 782.76 608.00 910.72 603.53
00018469 00000170 684.75 175.07 406.37 581.94 734.92 402.75 894.05 399.14 777.40 548.56 782.35 610.67 915.33 606.80
