Video ID: 	HpYK7DDO6NA
H: 	1080
W: 	1920
FPS: 	25.0

FRAME INDEX X0 Y0 W H [Landmarks (5 Points)]

00004576 00000000 769.78 217.93 464.94 643.70 807.80 467.00 977.17 459.51 829.62 573.38 827.85 705.59 949.90 700.74
00004577 00000001 766.37 223.51 467.07 636.34 806.16 464.66 991.98 454.15 830.01 576.51 832.38 713.14 963.11 705.83
00004578 00000002 769.62 217.61 471.72 649.53 811.16 464.87 985.55 456.63 836.86 570.59 832.07 704.97 963.06 698.83
00004579 00000003 769.71 219.10 473.95 647.61 813.17 463.26 986.21 457.39 834.45 570.50 832.44 701.22 965.21 696.62
00004580 00000004 769.88 214.94 472.24 653.20 813.33 463.49 986.54 456.33 833.07 568.79 831.98 703.05 964.13 697.63
00004581 00000005 767.65 209.41 471.82 657.95 810.06 461.09 986.23 455.87 831.60 568.85 827.62 701.26 963.98 697.65
00004582 00000006 765.86 207.38 472.70 658.96 807.50 462.82 984.12 455.96 830.86 570.18 826.22 703.82 961.12 699.20
00004583 00000007 763.98 215.24 469.95 649.99 805.94 463.87 982.52 457.38 831.20 577.11 827.58 705.81 959.59 701.57
00004584 00000008 760.74 209.43 474.17 664.89 801.42 474.84 977.41 461.82 828.19 583.23 826.03 717.08 955.66 707.82
00004585 DELETE   753.60 215.18 479.13 668.03 796.91 478.65 973.24 463.77 826.36 589.86 824.77 725.63 952.81 714.58
00004586 DELETE   745.22 226.17 484.60 661.31 791.50 483.80 968.79 471.60 822.46 598.33 825.02 729.78 953.18 720.48
00004587 DELETE   740.35 243.38 490.82 650.03 786.74 488.80 966.81 478.00 816.88 606.18 822.82 735.28 952.54 727.05
00004588 00000012 736.35 234.55 489.33 661.88 782.49 491.78 963.47 481.73 813.11 610.73 816.53 738.56 950.17 731.08
00004589 00000013 730.93 241.87 486.80 651.05 779.27 495.99 965.62 480.25 815.73 609.23 812.18 739.02 951.97 727.56
00004590 00000014 731.84 232.27 485.88 662.63 775.77 484.31 958.70 476.90 807.94 608.30 810.23 733.84 945.31 728.66
00004591 00000015 730.00 231.86 487.12 660.28 774.16 482.01 958.60 475.44 807.49 606.32 809.04 730.40 943.77 725.80
00004592 00000016 727.96 228.08 489.93 663.48 773.30 480.97 959.46 473.01 808.64 604.79 808.06 730.18 943.57 724.43
00004593 00000017 727.79 226.72 492.72 664.63 773.55 479.61 960.16 471.02 807.98 601.98 808.82 729.05 943.55 722.72
00004594 00000018 727.90 226.13 492.34 667.57 772.31 478.94 961.87 470.01 809.21 601.97 807.74 730.38 946.10 723.75
00004595 00000019 730.14 225.58 491.48 667.24 773.10 479.71 961.27 469.79 807.76 600.92 807.77 730.63 945.80 723.24
00004596 00000020 731.52 227.19 492.27 665.89 773.90 479.31 961.87 469.85 807.74 601.17 808.46 729.84 947.75 722.73
00004597 00000021 732.98 227.05 493.37 666.16 774.25 477.12 962.06 466.84 808.41 600.73 809.62 729.82 949.86 722.03
00004598 00000022 734.89 226.22 491.62 667.47 776.08 478.67 962.28 467.13 809.76 599.24 811.27 730.12 950.76 721.29
00004599 00000023 737.54 229.33 492.80 664.80 779.03 478.86 964.08 467.74 809.73 598.18 813.42 729.52 952.31 720.90
00004600 00000024 739.33 230.36 491.42 661.12 780.96 481.31 964.34 469.58 810.53 597.26 814.41 728.71 952.53 719.60
00004601 00000025 741.05 227.69 488.45 660.32 782.35 483.64 962.68 472.07 809.99 597.31 814.88 727.08 952.20 718.19
00004602 00000026 738.71 230.87 491.42 657.52 780.67 484.38 963.39 470.75 811.10 599.73 817.07 729.79 953.96 719.08
00004603 00000027 740.58 234.10 490.83 654.64 781.93 486.67 963.21 473.35 810.15 600.63 817.54 729.95 954.43 719.52
00004604 00000028 738.06 240.07 484.21 645.81 777.58 486.28 966.01 466.63 807.43 604.87 819.22 735.55 956.63 719.26
00004605 00000029 742.97 245.74 481.90 647.29 783.26 496.75 968.07 478.08 816.93 602.38 816.33 735.25 957.07 721.25
00004606 00000030 741.54 241.77 484.94 649.96 780.72 489.22 966.38 468.46 808.98 608.44 824.15 741.22 958.30 724.26
00004607 00000031 740.72 243.55 490.04 651.70 786.12 499.34 971.46 479.42 821.76 607.66 822.71 740.48 963.10 725.56
00004608 00000032 739.17 246.57 491.53 651.79 787.95 501.36 970.29 481.22 822.26 607.97 825.52 742.64 961.71 727.51
00004609 00000033 742.35 244.63 488.98 655.05 789.82 502.01 971.63 482.33 824.26 608.59 827.06 744.04 963.03 729.27
00004610 00000034 747.20 239.95 490.30 663.00 792.10 499.53 965.01 479.18 817.35 607.90 833.17 746.56 956.71 730.09
00004611 00000035 747.82 246.37 482.45 648.92 787.73 499.88 968.59 473.98 813.76 611.89 835.41 749.64 961.51 728.18
00004612 00000036 748.22 245.04 482.96 649.34 787.51 501.10 969.89 473.98 815.05 612.74 835.55 751.19 963.76 728.69
00004613 00000037 746.86 246.37 483.71 647.37 787.64 501.96 970.29 474.20 816.31 612.68 836.40 751.70 964.13 728.65
00004614 00000038 746.44 245.18 485.52 646.11 787.20 501.55 970.30 473.38 816.72 612.45 835.38 749.73 964.35 726.34
00004615 00000039 751.46 237.63 491.42 656.89 795.63 504.02 965.66 480.88 820.02 607.47 837.28 743.67 959.96 724.43
00004616 00000040 753.81 236.93 490.45 652.72 797.21 504.81 964.73 480.46 819.95 606.16 838.57 739.38 961.97 719.09
00004617 00000041 757.45 235.22 490.88 654.79 800.48 504.11 967.62 478.86 821.97 602.61 840.11 736.01 965.96 714.85
00004618 00000042 759.17 231.43 489.55 659.33 802.10 503.41 970.86 478.10 825.21 601.32 840.52 735.86 968.47 714.73
00004619 00000043 756.57 230.93 493.10 661.21 799.73 500.71 973.76 474.83 827.00 603.11 840.28 737.95 970.34 716.44
00004620 00000044 751.80 231.32 496.31 655.93 796.14 496.54 973.89 474.67 827.02 604.84 836.49 734.35 968.23 716.35
00004621 00000045 752.20 225.46 494.65 661.38 796.34 494.56 973.81 473.99 826.34 601.43 833.62 729.84 969.59 712.85
00004622 00000046 753.90 217.61 491.10 669.80 799.67 490.06 975.06 470.15 826.99 595.69 832.98 726.29 969.86 710.01
00004623 00000047 753.12 217.44 488.67 667.61 797.52 487.15 972.54 468.26 824.33 594.58 831.03 722.36 969.95 706.83
00004624 00000048 751.48 227.36 489.56 657.94 793.63 484.93 965.89 467.92 818.81 596.17 830.44 724.17 964.96 710.17
00004625 00000049 746.87 233.02 485.48 651.21 788.49 487.32 959.03 470.69 811.66 598.12 827.12 724.09 961.43 710.41
00004626 00000050 742.05 237.78 482.44 646.07 781.45 488.28 957.25 472.31 808.57 601.40 821.55 727.90 954.26 715.19
00004627 00000051 735.59 242.82 480.56 639.45 774.33 490.91 952.16 474.98 807.87 607.18 818.76 733.16 949.87 720.54
00004628 00000052 730.03 237.40 485.20 647.69 773.77 491.55 953.43 477.51 808.23 610.17 815.25 736.19 944.89 725.25
00004629 00000053 728.34 234.02 488.42 652.47 772.76 494.66 954.31 480.25 807.17 612.05 813.65 739.02 943.36 727.92
00004630 00000054 727.41 235.14 489.66 651.55 771.71 494.47 953.26 480.81 805.19 612.63 811.48 739.85 941.80 729.41
00004631 00000055 727.97 235.12 488.32 651.67 771.13 491.07 951.38 479.71 802.91 611.60 809.95 737.98 940.30 729.35
00004632 00000056 729.20 238.02 488.85 648.97 770.44 490.81 952.38 477.76 802.92 609.90 809.97 738.14 941.35 728.13
00004633 00000057 731.51 246.62 485.85 636.95 774.37 499.06 961.59 476.47 810.81 606.96 812.43 737.76 953.04 720.91
00004634 00000058 740.10 234.60 491.88 651.54 782.18 487.90 960.82 474.02 808.02 602.45 818.52 730.76 951.06 720.12
00004635 DELETE   741.61 242.95 487.46 636.47 783.19 492.13 969.43 467.41 816.43 599.50 820.25 736.14 963.80 718.60
00004636 00000060 747.20 217.25 494.12 670.28 793.53 487.08 974.03 465.59 825.89 592.59 828.86 731.36 961.85 714.46
00004637 00000061 749.44 228.15 490.39 649.04 794.38 489.33 982.78 465.72 827.80 593.36 827.19 733.36 972.98 716.79
00004638 00000062 753.28 224.13 490.52 651.56 799.23 485.77 987.65 463.98 830.78 589.90 831.05 730.16 978.33 714.80
00004639 00000063 757.04 228.20 490.36 648.47 804.13 485.03 992.76 463.82 836.57 588.95 835.36 729.16 983.98 714.14
00004640 00000064 759.42 223.43 491.49 653.61 807.15 483.65 996.26 461.28 840.88 586.98 839.33 727.79 988.74 711.71
00004641 00000065 761.63 226.08 491.97 653.64 809.71 483.58 998.94 461.19 843.64 586.46 842.64 728.70 991.60 712.39
00004642 00000066 765.64 225.17 490.23 655.65 813.14 483.37 1004.33 460.09 848.20 586.01 845.92 729.46 997.17 712.38
00004643 00000067 767.52 229.32 491.74 652.30 815.52 484.84 1006.63 460.78 850.71 585.00 848.46 729.56 1000.05 711.87
00004644 00000068 768.70 227.48 492.50 652.94 817.33 483.39 1010.12 459.21 854.73 584.28 850.77 728.17 1002.29 710.49
00004645 00000069 773.26 218.21 491.73 662.75 821.87 478.90 1011.76 456.36 860.41 590.49 862.82 727.79 1004.06 709.67
00004646 00000070 777.16 225.77 488.69 650.90 823.54 481.62 1016.58 459.53 861.50 586.54 855.14 723.25 1009.62 706.93
00004647 00000071 781.82 219.67 489.03 653.64 827.02 477.35 1017.21 460.10 866.28 592.45 864.91 720.11 1009.88 706.34
00004648 00000072 785.52 219.12 490.37 649.31 830.27 476.95 1020.06 459.99 869.10 593.34 867.14 715.56 1015.77 702.09
00004649 00000073 790.26 220.40 490.56 646.62 834.83 474.08 1021.38 459.38 869.35 592.14 869.99 712.17 1017.67 700.61
00004650 00000074 792.44 223.02 489.96 642.49 836.78 471.51 1023.52 456.66 873.96 590.49 873.46 711.16 1018.51 699.53
00004651 00000075 793.72 217.47 489.81 648.95 839.34 470.68 1025.76 453.35 877.80 587.00 876.52 712.10 1019.76 698.50
00004652 00000076 797.56 217.47 487.42 650.59 842.98 468.57 1026.72 452.52 878.84 583.36 878.77 711.87 1016.52 699.33
00004653 00000077 800.67 208.99 487.26 660.19 845.53 466.11 1027.61 449.56 879.73 581.47 880.34 712.35 1015.65 699.54
00004654 00000078 804.09 208.04 487.65 662.28 848.96 464.39 1029.02 448.78 879.19 579.57 881.82 711.07 1014.87 698.97
00004655 00000079 806.25 210.14 485.98 661.06 849.85 465.97 1029.27 451.96 877.75 581.35 881.89 712.39 1012.82 701.55
00004656 00000080 808.22 211.84 485.13 662.85 849.61 469.08 1027.95 454.43 876.21 583.97 881.50 715.86 1010.76 704.89
00004657 00000081 808.28 217.33 484.71 658.37 848.74 471.01 1027.83 455.38 875.88 585.12 882.01 718.43 1010.24 706.57
00004658 00000082 809.68 218.28 484.41 659.00 849.66 470.78 1027.80 455.75 875.31 585.04 882.72 718.27 1010.08 706.93
00004659 00000083 808.49 215.02 484.59 663.40 849.93 467.04 1028.28 453.95 874.86 583.07 881.29 716.11 1011.17 706.34
00004660 00000084 807.14 213.33 483.17 666.20 849.40 464.61 1026.29 452.00 875.05 580.79 881.41 715.06 1010.96 705.51
00004661 00000085 801.82 206.13 486.29 670.79 846.32 460.88 1023.18 446.47 872.18 577.35 880.11 712.32 1012.52 700.99
00004662 00000086 794.01 204.90 491.07 669.24 842.61 459.43 1020.14 441.99 868.64 573.19 879.21 709.61 1011.89 695.65
00004663 00000087 790.57 202.80 489.98 668.04 837.38 459.40 1018.03 441.20 865.57 572.87 874.68 708.46 1010.45 693.74
00004664 00000088 785.03 200.90 490.86 668.36 832.07 459.71 1015.18 439.38 862.94 574.14 870.74 709.54 1009.42 692.91
00004665 00000089 785.37 204.57 489.26 665.87 829.86 460.65 1010.29 439.97 859.15 576.32 870.76 710.74 1007.52 693.52
00004666 00000090 783.89 208.33 487.99 665.92 826.47 463.63 1005.64 441.10 856.03 578.30 869.61 715.80 1004.28 697.01
00004667 00000091 781.66 210.99 487.42 662.92 823.93 466.73 1005.37 442.21 856.74 580.80 870.25 719.16 1003.94 698.89
00004668 00000092 780.13 209.53 489.12 659.75 821.07 469.80 1005.20 444.35 855.09 582.47 866.45 717.23 1007.51 696.09
00004669 00000093 777.41 208.37 490.27 655.47 818.47 468.37 1004.82 446.63 853.61 583.50 860.63 710.81 1008.94 692.94
00004670 00000094 775.09 209.76 490.42 650.00 816.69 468.06 1005.62 447.53 852.69 582.64 856.46 707.46 1007.52 690.76
00004671 00000095 773.43 208.96 489.63 649.70 815.33 468.48 1005.95 447.54 852.20 582.05 853.87 707.42 1006.81 690.38
00004672 00000096 771.77 210.72 489.08 649.94 814.80 468.45 1005.81 448.39 850.09 580.57 852.01 708.14 1003.16 691.98
00004673 00000097 769.64 214.61 491.20 649.76 813.62 470.04 1005.81 448.97 848.98 579.90 851.46 710.79 1001.33 693.88
00004674 00000098 768.73 212.74 487.50 654.74 813.75 471.90 1003.47 448.94 848.03 578.96 852.57 713.57 997.63 695.28
00004675 00000099 767.60 215.20 488.64 655.21 814.40 477.10 1002.03 452.64 845.44 576.67 844.41 716.22 993.92 698.54
00004676 00000100 766.51 214.66 489.43 656.27 812.58 478.14 1000.56 453.39 845.00 577.81 844.72 722.49 989.13 704.83
00004677 00000101 766.16 213.44 488.16 659.11 812.33 477.45 999.73 455.63 843.19 579.14 843.01 721.49 988.14 706.13
00004678 00000102 767.89 216.83 486.66 659.62 812.70 479.67 999.33 457.16 842.27 581.44 843.04 726.69 987.97 710.67
00004679 00000103 768.30 219.00 487.25 661.89 815.55 478.78 1000.24 457.35 844.28 582.85 846.38 726.58 991.10 711.11
00004680 00000104 767.42 221.86 488.63 660.36 814.77 478.98 999.41 456.71 843.87 583.88 848.49 728.18 992.76 711.96
00004681 00000105 768.30 219.71 489.25 666.24 815.07 479.65 999.55 457.31 843.58 585.78 850.04 731.58 994.01 715.31
00004682 00000106 767.56 223.60 490.39 664.79 814.49 481.75 999.75 457.61 844.47 586.91 851.31 733.58 995.81 715.71
00004683 00000107 765.99 218.26 491.82 671.18 813.03 483.83 998.20 456.87 845.17 588.10 852.93 736.06 997.44 715.94
00004684 00000108 764.40 219.89 487.74 669.61 813.67 479.13 995.23 452.11 848.89 590.68 862.75 736.37 995.09 713.71
00004685 00000109 764.09 220.21 486.41 662.76 813.08 478.85 996.66 453.93 849.33 591.65 859.17 730.78 994.23 710.42
00004686 00000110 763.01 222.00 487.38 652.55 807.78 481.01 996.66 452.99 846.95 592.05 856.33 726.67 999.40 703.81
00004687 00000111 761.47 222.38 492.17 648.46 807.07 489.64 995.48 456.39 845.33 585.54 850.14 727.12 998.20 702.07
00004688 00000112 759.86 223.36 489.18 652.12 807.89 481.58 997.12 451.83 849.37 589.92 855.92 727.96 997.60 703.81
00004689 00000113 761.16 223.72 484.70 653.78 808.66 481.35 992.28 451.73 845.74 591.76 855.74 729.90 994.50 705.78
00004690 00000114 768.07 210.33 480.45 674.09 815.17 485.28 982.96 458.45 842.48 588.12 853.67 722.23 990.38 699.57
00004691 00000115 768.83 207.79 478.97 676.04 814.31 488.03 980.95 461.31 841.30 590.16 852.84 723.61 987.73 701.09
00004692 00000116 769.40 210.60 479.63 673.43 813.99 489.04 979.64 462.56 838.96 589.83 853.05 722.94 986.44 700.58
00004693 00000117 769.99 209.31 478.80 673.85 814.25 487.80 980.48 462.48 840.53 589.14 852.73 721.39 986.25 700.09
00004694 00000118 771.94 210.83 477.95 671.90 815.65 486.25 982.00 462.12 842.72 587.32 853.06 721.97 981.30 701.84
00004695 00000119 766.09 225.61 484.70 652.69 812.81 489.72 990.62 462.21 842.09 589.76 852.36 728.95 988.59 708.35
00004696 00000120 771.53 232.68 485.43 646.80 817.07 491.67 994.22 462.59 845.03 588.59 856.79 729.46 989.23 707.70
00004697 00000121 775.71 236.26 483.52 643.41 820.07 489.46 997.57 462.95 847.38 590.26 858.76 728.00 991.41 708.14
00004698 00000122 780.43 233.93 479.94 644.06 823.00 489.05 1002.49 464.46 851.64 592.04 859.52 726.72 996.49 708.20
00004699 00000123 787.38 229.06 477.69 648.48 823.87 483.85 1000.13 464.11 852.62 597.93 869.73 725.77 997.59 709.85
00004700 00000124 790.08 230.17 478.41 646.86 825.50 483.84 1002.18 465.36 855.39 599.24 871.20 724.25 1000.95 709.31
00004701 00000125 791.14 232.93 477.31 644.19 825.62 484.50 1003.28 465.43 856.64 598.19 870.47 725.03 1000.58 709.67
00004702 00000126 792.23 231.92 478.81 647.72 826.15 484.21 1003.77 465.34 855.68 598.17 870.21 726.42 1001.05 711.29
00004703 00000127 791.47 230.28 479.80 649.57 827.30 483.80 1004.93 465.15 857.02 597.12 870.85 725.17 1001.72 710.17
00004704 00000128 790.86 228.49 480.46 648.45 827.02 484.31 1005.27 465.09 857.53 597.74 871.17 724.61 1002.51 709.13
00004705 00000129 788.08 229.47 481.00 645.03 824.60 484.04 1005.02 464.98 857.61 598.04 868.78 724.12 1000.54 708.85
00004706 00000130 780.85 229.02 479.58 640.65 819.23 482.39 1003.91 461.21 855.60 593.88 864.01 723.73 996.91 706.80
00004707 00000131 775.06 228.53 477.26 634.30 816.54 477.49 1001.10 458.35 852.24 589.89 859.81 716.51 992.90 701.20
00004708 00000132 767.36 221.11 480.05 640.17 812.09 477.45 999.05 454.74 850.21 587.41 855.77 717.43 990.25 699.52
00004709 00000133 763.95 220.68 481.95 648.08 809.93 479.80 995.24 454.95 847.28 587.30 854.13 723.07 986.37 703.63
00004710 DELETE   763.36 224.73 479.57 654.83 809.75 483.21 991.43 456.41 844.45 590.33 855.71 730.33 985.86 708.59
00004711 00000135 763.92 227.03 478.12 657.83 808.38 486.40 988.61 458.83 840.71 593.64 855.02 733.73 989.00 710.87
00004712 00000136 766.78 219.40 480.22 670.26 812.12 489.98 978.63 462.36 837.56 588.92 851.62 727.25 982.49 704.01
00004713 00000137 761.52 216.80 483.42 670.15 808.40 491.57 975.84 466.12 833.68 589.39 845.50 724.95 973.71 703.89
00004714 00000138 758.40 217.18 485.57 667.34 805.54 490.04 975.16 467.14 831.10 590.14 842.10 724.55 967.46 705.82
00004715 00000139 750.23 234.32 485.10 641.56 793.75 492.34 973.74 464.11 823.56 589.94 830.59 731.09 965.54 710.67
00004716 00000140 753.01 222.34 486.43 663.14 799.58 487.70 965.41 464.63 821.74 586.62 837.55 727.52 955.22 709.06
00004717 00000141 748.10 217.68 489.58 664.38 796.02 488.56 962.94 463.45 818.72 589.22 834.86 727.75 956.46 707.58
00004718 00000142 746.05 218.93 488.95 665.90 790.10 490.93 960.46 464.84 814.91 593.92 831.81 730.21 956.93 709.03
00004719 00000143 739.07 224.71 492.01 659.86 785.16 493.79 959.35 468.34 815.12 597.81 831.05 731.89 957.40 711.22
00004720 00000144 739.38 233.03 497.06 654.00 788.19 495.01 959.61 470.73 815.40 601.68 835.62 731.96 962.70 711.79
00004721 00000145 736.53 230.54 497.18 652.36 786.51 495.64 960.47 471.23 817.48 603.42 834.53 733.88 962.66 713.89
00004722 00000146 737.30 231.75 494.89 650.66 783.90 492.48 957.56 469.24 813.68 603.32 831.94 732.39 960.92 713.38
00004723 00000147 735.84 220.73 494.73 664.73 781.36 492.27 954.32 467.59 811.07 602.65 829.10 735.10 957.64 715.01
00004724 00000148 734.37 215.14 493.08 672.95 780.23 490.06 951.35 466.38 808.23 601.98 827.42 731.94 958.07 712.58
00004725 00000149 732.91 214.87 495.38 670.12 777.44 489.21 951.60 463.19 806.13 600.56 825.43 730.11 958.78 708.69
00004726 00000150 730.07 207.87 494.67 674.01 775.78 485.04 951.55 461.75 804.24 597.37 819.50 726.03 952.21 707.35
00004727 00000151 728.18 206.81 494.56 672.36 774.32 483.50 949.64 460.85 802.24 596.56 817.98 725.12 946.45 707.07
00004728 00000152 728.58 206.48 493.66 673.12 774.09 483.92 948.98 460.36 802.46 594.80 817.16 725.88 945.80 707.13
00004729 00000153 729.69 208.39 495.20 675.42 773.98 483.00 948.64 458.55 799.93 593.33 817.13 728.66 946.47 709.26
00004730 00000154 730.39 210.89 494.89 675.05 773.56 482.20 946.82 457.79 797.73 592.20 816.89 729.43 944.95 710.06
00004731 00000155 730.34 209.10 493.22 676.06 773.17 481.45 947.06 457.04 797.15 591.55 815.54 729.03 944.58 709.69
00004732 00000156 728.81 208.32 493.18 676.63 772.39 480.90 946.87 457.08 797.91 591.50 815.06 728.82 943.30 709.96
00004733 00000157 727.89 209.47 493.25 675.24 770.95 479.76 946.47 458.20 797.06 593.10 813.30 727.15 943.78 710.05
00004734 00000158 726.87 210.62 493.68 671.03 769.42 479.66 946.61 459.26 797.43 594.91 811.65 725.72 943.37 709.61
00004735 00000159 725.92 215.81 493.45 666.05 769.30 481.17 946.53 461.11 797.17 595.81 812.16 726.44 943.80 710.52
00004736 00000160 725.09 218.12 492.21 664.32 768.15 486.82 947.39 464.44 798.74 597.57 811.59 727.81 944.71 710.03
00004737 00000161 724.97 215.79 493.08 666.22 770.15 485.57 948.99 464.61 800.15 597.44 812.76 724.72 946.72 708.15
00004738 00000162 727.14 216.48 493.67 671.35 773.13 486.48 949.97 463.74 801.81 597.61 817.26 729.98 949.56 711.85
00004739 00000163 729.57 216.54 493.06 669.92 774.71 486.02 949.66 462.93 803.76 599.20 820.61 730.05 952.55 711.48
00004740 DELETE   730.58 215.54 495.29 665.83 774.91 483.23 949.96 461.14 803.92 596.52 818.86 724.93 951.09 707.31
00004741 DELETE   731.89 209.14 497.99 658.57 776.22 481.75 954.97 454.71 808.50 587.87 818.13 719.27 951.77 697.74
00004742 00000166 738.51 199.73 493.84 659.57 781.39 474.87 956.69 446.91 810.54 578.62 821.11 711.86 955.55 689.53
00004743 00000167 741.41 197.73 491.85 658.73 785.07 467.26 958.56 442.61 812.87 575.12 825.34 706.93 958.40 687.02
00004744 00000168 742.54 200.63 490.40 652.20 789.15 460.67 964.53 437.12 818.03 569.14 829.54 704.02 960.96 685.00
00004745 00000169 742.50 200.65 490.30 648.54 789.54 460.38 969.57 435.29 823.13 565.35 829.78 704.12 962.55 683.95
