Video ID: 	X0sFParLJhM
H: 	1080
W: 	1920
FPS: 	25.0

FRAME INDEX X0 Y0 W H [Landmarks (5 Points)]

00001492 00000000 258.01 98.59 267.62 345.15
00001493 00000001 256.52 98.07 266.74 343.85
00001494 00000002 255.03 97.54 265.86 342.56
00001495 00000003 253.20 98.06 264.98 342.20
00001496 00000004 251.37 98.57 264.11 341.85
00001497 DELETE   249.54 99.08 263.23 341.49
00001498 DELETE   247.70 99.60 262.35 341.13
00001499 00000007 245.87 100.11 261.48 340.77
00001500 00000008 243.93 101.02 261.61 341.08
00001501 00000009 241.98 101.93 261.74 341.39
00001502 00000010 240.03 102.84 261.87 341.70
00001503 00000011 238.08 103.75 262.01 342.01
00001504 00000012 236.13 104.67 262.14 342.32
00001505 00000013 236.08 103.96 262.21 342.25
00001506 DELETE   236.03 103.25 262.29 342.18
00001507 DELETE   235.98 102.55 262.36 342.11
00001508 00000016 235.93 101.84 262.44 342.04
00001509 00000017 235.88 101.14 262.51 341.97
00001510 00000018 235.29 101.19 262.31 341.73
00001511 00000019 234.69 101.24 262.11 341.50
00001512 00000020 234.10 101.29 261.90 341.26
00001513 00000021 233.51 101.34 261.70 341.03
00001514 00000022 232.91 101.39 261.49 340.79
00001515 DELETE   234.14 101.08 261.45 340.43
00001516 DELETE   235.37 100.78 261.40 340.08
00001517 DELETE   236.60 100.48 261.35 339.72
00001518 00000026 237.83 100.17 261.31 339.36
00001519 00000027 239.06 99.87 261.26 339.01
00001520 00000028 239.37 98.63 261.12 339.30
00001521 00000029 239.68 97.40 260.97 339.60
00001522 00000030 239.98 96.17 260.82 339.89
00001523 00000031 240.29 94.93 260.67 340.19
00001524 00000032 240.60 93.70 260.53 340.49
00001525 00000033 240.85 92.93 260.54 341.02
00001526 00000034 241.11 92.15 260.56 341.55
00001527 DELETE   241.36 91.38 260.57 342.09
00001528 00000036 241.62 90.61 260.59 342.62
00001529 DELETE   241.88 89.84 260.60 343.16
00001530 00000038 477.90 163.54 385.24 538.03 653.51 418.67 769.55 371.37 812.55 459.12 755.89 594.06 853.62 555.44
00001531 00000039 475.58 157.12 382.98 542.37 650.12 412.59 765.92 368.17 805.27 455.86 750.46 592.09 846.80 555.71
00001532 00000040 475.47 150.90 382.55 542.15 651.50 408.18 766.28 363.24 804.58 453.05 751.95 589.86 845.56 553.14
00001533 00000041 475.97 148.34 384.85 541.38 650.49 408.39 766.87 356.55 804.63 450.83 755.14 588.84 849.94 546.35
00001534 00000042 474.19 142.24 387.74 548.23 649.89 409.76 768.64 355.13 805.12 449.95 756.25 588.84 852.88 543.84
00001535 00000043 472.61 135.78 382.14 553.85 647.81 412.52 765.16 355.39 800.47 450.14 750.01 585.55 846.54 538.33
00001536 00000044 466.89 132.94 386.72 564.78 646.46 413.53 764.06 355.43 801.29 449.86 749.35 586.19 845.69 538.36
00001537 00000045 469.52 139.04 386.44 561.13 647.25 414.26 764.53 358.18 799.77 452.45 751.72 589.14 847.04 543.15
00001538 00000046 468.43 139.36 382.38 566.69 642.51 416.89 763.68 360.39 794.85 458.98 743.48 593.98 842.22 547.28
00001539 00000047 471.98 141.98 379.49 562.07 637.43 421.15 764.95 361.01 788.70 464.14 733.97 594.06 837.53 544.07
00001540 00000048 467.80 140.72 382.39 566.04 630.91 421.80 765.78 360.26 784.88 465.15 724.32 593.83 836.06 543.12
00001541 00000049 463.68 141.25 388.73 573.12 624.73 419.61 763.49 358.16 778.29 463.10 721.19 596.94 836.08 546.84
00001542 00000050 459.67 144.24 396.50 565.60 622.43 417.80 761.66 356.18 775.42 457.40 724.62 595.39 837.04 545.18
00001543 00000051 454.98 140.81 403.40 561.82 622.07 415.79 764.01 352.01 777.73 454.00 726.37 591.46 839.69 538.74
00001544 00000052 452.95 141.20 407.07 558.89 619.98 416.79 763.67 350.09 777.82 453.09 725.78 590.25 841.29 534.64
00001545 00000053 452.28 138.43 407.93 560.78 618.92 414.16 763.63 348.61 776.24 450.64 719.69 589.15 836.59 534.58
00001546 00000054 451.55 138.94 410.77 556.63 618.08 414.94 761.39 349.65 773.38 449.21 716.73 587.25 833.46 532.92
00001547 00000055 449.60 140.45 410.92 550.88 611.00 414.23 763.20 352.57 767.35 451.17 710.33 582.41 835.31 532.18
00001548 00000056 447.96 141.37 412.16 547.45 608.00 413.83 761.10 350.93 764.67 450.98 709.05 579.67 835.76 528.33
00001549 00000057 445.79 140.05 413.47 545.67 606.48 412.10 757.99 349.51 763.59 446.37 708.84 576.78 834.97 525.99
00001550 00000058 442.45 133.86 415.24 548.03 604.09 409.19 754.58 346.51 761.05 444.06 707.61 572.84 833.64 521.77
00001551 00000059 441.41 132.89 411.13 554.55 601.49 406.40 751.76 343.52 759.16 442.95 703.24 575.20 830.35 523.97
00001552 00000060 442.68 132.35 409.63 555.91 602.56 404.22 751.00 343.26 759.51 441.01 699.74 572.91 828.49 523.29
00001553 00000061 446.66 131.20 408.90 558.96 607.08 405.91 753.93 346.37 759.51 440.98 699.24 573.01 826.50 524.70
00001554 00000062 449.65 137.25 408.20 546.06 612.93 406.70 760.36 350.82 764.39 438.23 704.62 571.70 828.80 526.33
00001555 00000063 450.39 140.00 409.92 535.76 619.44 408.00 767.05 354.39 772.33 435.55 712.39 570.74 832.80 527.54
00001556 00000064 453.64 137.43 409.38 531.85 622.93 403.86 768.54 347.66 776.87 431.54 721.20 564.17 837.08 518.21
00001557 00000065 457.88 130.52 405.10 544.66 628.12 396.90 768.40 341.46 782.84 433.59 728.71 566.98 839.60 522.34
00001558 00000066 473.01 129.81 400.07 555.73 645.14 390.44 780.59 334.65 797.88 432.78 744.29 577.20 852.08 530.44
00001559 00000067 467.78 127.21 414.36 543.96 646.84 390.06 781.23 336.23 805.63 427.32 754.63 562.05 861.46 517.91
00001560 00000068 481.81 123.70 405.64 548.78 656.89 383.08 801.04 335.27 819.38 422.13 760.54 565.60 875.67 526.63
00001561 00000069 488.93 132.66 404.65 541.97 661.50 379.97 804.79 333.97 823.59 419.13 764.87 561.69 881.81 524.12
00001562 00000070 493.28 132.89 399.79 544.11 663.58 378.94 804.52 330.65 824.94 418.35 767.10 562.32 881.37 523.24
00001563 00000071 498.83 136.64 398.46 538.25 668.72 376.09 803.73 329.11 827.54 414.79 771.74 557.74 882.06 519.80
00001564 00000072 503.86 136.83 401.96 532.72 672.80 375.35 803.22 328.03 831.04 412.10 780.86 552.98 889.23 514.77
00001565 00000073 508.10 133.26 406.00 534.78 677.10 374.78 805.27 326.98 837.34 412.68 791.85 552.77 899.54 514.01
00001566 00000074 514.99 128.47 401.96 544.43 684.91 372.19 809.31 327.29 847.49 412.65 800.87 553.50 904.90 518.00
00001567 00000075 519.37 122.83 402.54 553.72 689.87 372.41 814.74 326.84 851.93 413.44 804.43 556.45 908.92 520.65
00001568 00000076 526.87 121.57 394.21 554.30 696.09 372.96 819.05 326.02 858.09 414.49 806.58 556.12 910.26 518.86
00001569 00000077 533.28 124.87 389.80 548.14 704.52 374.45 824.00 329.30 861.81 418.08 814.38 557.70 910.94 521.72
00001570 00000078 531.97 127.77 394.36 538.77 705.58 380.65 824.68 332.29 865.20 421.49 818.65 555.97 914.50 517.45
00001571 00000079 532.79 135.79 389.69 526.11 713.00 382.31 823.97 335.67 867.68 424.77 821.29 554.09 909.69 517.45
00001572 DELETE   541.06 128.27 386.43 551.56 721.83 394.02 833.60 339.77 875.19 439.06 824.42 576.65 914.25 532.02
00001573 DELETE   264.87 54.88 279.05 354.74
00001574 DELETE   267.17 55.07 278.76 354.31
00001575 00000083 267.67 55.11 278.52 353.63
00001576 00000084 526.81 136.28 388.72 541.08 701.79 386.29 820.51 333.83 857.10 426.20 799.65 559.71 899.30 517.72
00001577 00000085 527.28 131.67 390.83 531.82 701.85 384.59 822.41 331.44 858.75 419.17 807.01 552.06 905.76 509.14
00001578 00000086 269.17 55.24 277.79 351.61
00001579 00000087 269.67 55.28 277.54 350.93
00001580 00000088 271.25 56.03 277.01 349.59
00001581 00000089 272.82 56.77 276.47 348.25
00001582 00000090 274.40 57.52 275.93 346.91
00001583 00000091 275.97 58.27 275.40 345.57
00001584 00000092 277.55 59.02 274.86 344.23
00001585 00000093 279.69 59.74 274.55 344.35
00001586 00000094 281.83 60.46 274.24 344.48
00001587 00000095 283.97 61.18 273.94 344.61
00001588 00000096 286.11 61.91 273.63 344.73
00001589 00000097 288.25 62.63 273.32 344.86
00001590 00000098 289.25 63.81 273.05 345.06
00001591 00000099 290.25 65.00 272.79 345.25
00001592 00000100 291.24 66.19 272.53 345.45
00001593 00000101 292.24 67.37 272.27 345.64
00001594 00000102 293.24 68.56 272.01 345.84
00001595 DELETE   290.77 67.67 272.26 345.81
00001596 00000104 549.77 136.35 391.27 546.95 715.87 398.25 845.83 335.57 864.86 435.96 816.76 575.67 918.45 523.47
00001597 DELETE   543.89 133.87 390.11 548.77 705.77 392.77 836.40 335.56 851.79 433.52 804.74 572.05 905.53 524.45
00001598 DELETE   526.06 133.65 402.83 534.93 691.82 394.69 825.54 331.59 844.23 426.43 794.37 555.71 905.56 504.29
00001599 00000107 519.47 130.15 406.44 533.05 686.06 393.79 822.81 330.77 839.35 425.78 789.80 550.90 903.79 499.37
00001600 00000108 516.49 127.68 405.07 536.87 681.07 391.09 820.73 329.44 835.45 426.55 783.82 551.74 900.82 501.15
00001601 00000109 514.00 126.47 403.32 545.17 677.73 390.43 818.23 331.30 832.01 429.04 779.16 556.68 897.66 508.29
00001602 00000110 513.33 130.09 399.76 545.37 675.61 391.59 815.27 333.80 828.56 430.51 776.43 558.25 895.10 511.38
00001603 00000111 513.32 131.78 394.95 546.98 675.74 392.53 815.29 338.65 826.43 432.44 774.25 561.19 892.10 517.92
00001604 00000112 513.41 133.09 395.06 547.43 676.00 392.07 818.01 338.36 829.93 435.87 774.37 565.53 893.27 522.03
00001605 00000113 511.68 133.65 395.68 548.34 676.14 392.51 817.19 339.49 829.93 436.27 774.12 565.91 892.13 522.95
00001606 00000114 510.68 136.92 391.03 549.54 674.77 390.73 816.14 340.29 828.24 436.97 769.12 566.30 888.53 525.39
00001607 00000115 509.74 136.61 385.17 554.97 669.86 388.00 813.00 338.05 822.62 435.74 760.20 568.09 883.12 527.68
00001608 00000116 504.84 129.92 389.67 557.85 667.08 391.50 814.01 330.24 826.17 439.04 738.32 574.33 864.61 524.43
00001609 00000117 500.52 133.93 392.42 554.27 662.98 393.31 808.99 333.83 821.10 436.32 735.01 572.32 861.90 523.30
00001610 00000118 259.50 61.13 272.86 346.00
00001611 00000119 257.44 61.12 272.53 345.89
00001612 00000120 255.38 61.12 272.20 345.78
00001613 00000121 253.33 61.12 271.87 345.68
00001614 00000122 251.27 61.11 271.54 345.57
00001615 00000123 249.76 62.74 271.09 345.89
00001616 00000124 248.25 64.37 270.64 346.20
00001617 00000125 246.74 66.00 270.19 346.51
00001618 00000126 245.23 67.63 269.74 346.83
00001619 00000127 243.72 69.25 269.29 347.14
00001620 00000128 242.19 71.25 269.42 347.71
00001621 00000129 240.66 73.25 269.56 348.27
00001622 00000130 239.13 75.25 269.69 348.84
00001623 00000131 237.60 77.25 269.83 349.40
00001624 00000132 236.07 79.26 269.96 349.96
00001625 00000133 450.82 183.60 402.88 553.58 602.29 438.37 749.86 377.94 755.50 481.46 688.97 612.00 826.16 561.58
00001626 00000134 443.40 178.56 405.58 556.77 596.87 438.48 746.05 378.85 750.09 482.16 684.32 613.19 819.92 563.88
00001627 00000135 438.21 173.80 406.50 569.63 591.93 438.13 743.79 381.16 747.13 484.71 678.86 616.15 817.93 568.85
00001628 00000136 434.69 173.29 403.89 580.76 584.02 437.31 738.19 381.30 739.34 489.09 666.26 620.23 811.08 573.28
00001629 00000137 427.38 175.73 408.73 586.31 575.21 439.44 732.57 380.27 731.50 492.18 657.97 624.51 810.09 574.60
00001630 00000138 418.05 173.00 410.65 577.07 570.35 441.01 726.64 378.06 726.17 491.81 656.76 622.79 804.30 569.63
00001631 00000139 403.47 173.07 425.35 563.43 564.09 452.45 723.14 373.11 721.46 490.86 652.66 624.15 791.22 557.19
00001632 00000140 399.03 168.33 431.88 564.69 561.14 453.53 723.79 375.26 719.56 489.09 656.02 621.11 794.03 554.86
00001633 00000141 416.12 173.39 420.43 569.61 574.07 453.50 727.77 385.57 729.90 489.23 676.66 626.21 811.53 570.66
00001634 00000142 422.40 182.65 424.79 567.82 582.40 459.20 734.01 392.51 737.64 492.12 683.94 629.06 816.60 574.86
00001635 DELETE   431.94 183.64 422.47 562.64 593.32 460.24 744.03 395.50 747.00 493.52 690.35 628.13 820.00 575.82
00001636 00000144 438.22 187.11 420.35 557.99 599.56 460.17 746.81 396.14 751.94 493.26 696.15 626.90 823.68 574.67
00001637 00000145 440.01 182.45 417.83 555.12 604.57 453.86 752.24 391.88 758.32 492.69 702.36 622.57 827.88 571.88
00001638 00000146 443.67 175.19 415.92 560.06 605.86 450.72 755.97 386.89 761.00 490.61 710.65 623.79 834.08 571.31
00001639 00000147 445.57 167.89 417.59 572.19 606.32 449.49 757.32 381.49 763.01 486.23 712.12 623.00 839.08 566.87
00001640 00000148 445.93 166.74 416.21 569.98 606.58 448.86 755.80 378.85 763.64 480.35 713.04 619.11 840.30 561.25
00001641 00000149 445.03 164.23 416.46 571.34 607.18 450.27 757.12 378.25 766.72 479.80 713.81 618.67 841.62 559.25
00001642 00000150 445.76 169.42 419.31 564.87 608.67 453.23 757.50 380.54 769.07 480.61 719.08 619.45 843.95 559.57
00001643 00000151 446.58 177.45 417.10 563.31 613.61 459.56 759.14 388.94 771.79 489.88 720.88 627.97 841.89 569.97
00001644 00000152 448.92 186.70 417.35 556.83 616.59 462.76 762.05 396.41 773.31 495.12 720.47 631.69 839.60 577.23
00001645 00000153 451.76 192.49 415.44 550.30 620.06 465.31 765.03 402.64 775.83 499.38 721.97 633.10 839.38 581.94
00001646 00000154 458.13 195.63 412.33 550.23 623.12 465.80 768.27 401.99 777.94 501.36 721.27 634.68 841.50 582.35
00001647 00000155 459.28 198.81 409.67 547.94 625.78 466.97 770.91 406.34 779.68 506.55 722.62 637.62 840.37 588.18
00001648 00000156 469.61 196.84 404.45 563.25 632.87 471.75 773.55 408.98 780.81 513.01 722.06 649.10 836.58 596.32
00001649 00000157 472.76 197.87 401.93 565.97 632.26 474.63 775.03 411.30 781.36 513.84 722.34 652.68 840.13 599.17
00001650 00000158 471.99 200.14 403.17 563.26 633.40 475.89 775.30 412.32 782.82 514.16 724.47 653.28 841.13 599.65
00001651 00000159 473.25 198.97 403.03 563.08 634.08 477.37 776.41 412.03 784.20 515.11 725.78 654.23 842.15 599.15
00001652 00000160 476.46 203.40 399.42 556.66 636.19 479.24 776.90 413.79 785.55 516.69 730.19 655.69 843.80 600.46
00001653 00000161 476.76 204.60 397.13 558.97 636.49 480.55 777.85 416.48 786.70 520.03 726.97 657.55 842.85 603.23
00001654 00000162 476.90 204.73 396.39 568.33 639.03 482.73 779.73 414.71 791.72 522.70 728.92 660.84 846.88 603.40
00001655 00000163 476.13 206.16 396.91 569.88 640.21 484.09 778.80 417.09 792.13 524.00 730.97 662.26 847.10 605.78
00001656 00000164 228.97 90.26 282.83 366.00
00001657 00000165 229.30 91.83 282.60 366.39
00001658 00000166 470.84 203.93 393.35 579.36 634.15 487.00 772.67 421.61 785.68 526.06 724.22 663.72 840.87 609.74
00001659 00000167 229.95 94.97 282.14 367.18
00001660 00000168 228.61 95.07 282.44 366.97
00001661 00000169 227.28 95.17 282.73 366.77
00001662 00000170 225.94 95.26 283.03 366.56
00001663 00000171 440.40 205.02 408.53 573.21 611.94 484.23 750.81 420.29 768.87 519.44 711.93 658.03 828.60 605.70
00001664 00000172 428.16 203.30 414.74 570.59 607.13 478.08 750.15 423.75 767.47 513.11 709.93 655.72 826.52 612.19
00001665 00000173 428.29 208.16 409.31 563.58 603.51 468.21 741.54 417.77 761.30 503.32 705.01 650.09 817.80 610.34
00001666 00000174 219.78 93.82 283.59 366.51
00001667 00000175 218.03 92.99 283.57 366.69
00001668 00000176 421.10 204.95 405.95 557.06 597.60 444.43 737.50 404.06 762.56 491.58 699.70 633.73 815.93 601.82
00001669 00000177 214.54 91.35 283.54 367.06
00001670 00000178 212.31 91.61 283.33 366.91
00001671 00000179 210.09 91.86 283.11 366.77
00001672 00000180 207.86 92.12 282.90 366.62
00001673 00000181 205.63 92.38 282.68 366.48
00001674 00000182 203.40 92.63 282.47 366.33
00001675 00000183 201.81 92.40 282.34 366.12
00001676 00000184 200.22 92.17 282.21 365.91
00001677 00000185 198.63 91.93 282.08 365.69
00001678 00000186 407.76 192.30 399.21 566.03 587.23 441.10 731.44 399.64 744.47 495.60 669.65 639.59 783.58 604.62
00001679 00000187 413.89 193.68 398.85 563.03 595.46 442.24 735.01 400.85 754.99 492.59 684.75 639.54 794.15 605.31
00001680 00000188 417.64 190.89 400.68 565.52 602.70 442.17 747.24 399.40 763.84 497.49 687.38 641.89 799.91 606.14
00001681 00000189 421.30 187.64 399.13 567.99 609.65 440.38 757.69 400.01 773.84 499.62 687.35 641.88 804.41 608.21
00001682 00000190 422.10 180.55 397.83 573.21 610.78 439.86 761.97 399.53 777.31 503.15 683.93 641.70 804.03 608.46
00001683 00000191 422.46 178.78 403.09 582.09 610.57 440.12 761.03 392.44 778.73 499.75 680.31 641.81 804.88 603.18
00001684 00000192 434.73 190.31 397.64 560.57 612.07 431.25 756.63 393.72 780.55 486.16 706.26 622.80 826.92 592.16
00001685 00000193 437.62 188.86 401.05 553.37 615.15 429.81 756.11 392.69 783.73 483.45 722.83 618.52 836.81 588.94
00001686 00000194 440.31 186.34 402.01 557.74 616.96 425.09 752.77 390.64 784.64 479.71 731.03 617.63 840.37 591.17
00001687 00000195 440.92 186.16 400.62 559.13 620.83 423.20 754.26 392.98 786.80 482.28 733.66 618.03 839.94 595.42
00001688 00000196 444.61 188.11 397.79 560.75 626.72 423.70 755.32 395.60 789.12 483.45 735.13 620.10 839.06 599.31
00001689 00000197 446.13 189.69 395.40 562.41 631.43 426.21 757.63 401.96 789.98 486.61 734.71 622.42 837.45 604.80
00001690 00000198 447.97 191.14 393.48 552.81 633.09 427.59 760.41 402.16 794.54 487.66 736.83 617.55 839.68 598.85
00001691 00000199 451.08 191.64 392.85 547.37 634.44 430.88 763.07 404.05 793.10 490.16 737.53 616.91 839.28 596.83
00001692 00000200 452.63 189.56 394.75 552.23 634.82 430.60 764.92 403.13 794.78 487.54 736.38 617.20 842.02 596.69
00001693 00000201 452.97 198.96 401.94 543.12 634.01 442.07 770.66 411.00 793.61 484.40 730.98 618.63 842.87 594.46
00001694 00000202 457.26 198.98 403.61 544.94 636.37 442.65 772.93 403.20 795.95 481.70 729.62 617.85 846.08 586.15
00001695 00000203 462.64 190.49 401.53 558.76 643.50 439.52 778.07 394.01 797.53 486.63 737.70 628.74 843.85 590.83
00001696 00000204 455.50 189.88 412.49 547.28 632.71 429.77 766.65 390.66 796.26 479.46 744.14 615.19 856.48 584.33
00001697 00000205 455.51 186.00 414.31 547.48 632.79 425.23 767.21 384.79 798.39 474.71 747.34 611.19 860.56 579.03
00001698 00000206 453.22 183.72 418.92 548.38 631.92 424.16 765.69 382.81 798.08 474.49 748.45 610.93 860.63 578.08
00001699 00000207 453.62 182.38 414.02 551.28 628.73 424.74 766.81 382.37 793.19 476.41 740.34 612.90 855.61 578.94
00001700 00000208 453.29 180.63 411.00 556.11 625.18 424.56 764.27 382.55 789.23 477.05 736.24 613.84 853.07 580.24
00001701 00000209 450.25 181.87 411.95 554.31 620.61 425.45 760.94 381.86 784.89 474.34 732.40 611.99 851.22 577.28
00001702 00000210 446.62 180.19 414.68 554.46 618.65 426.58 758.79 380.84 783.80 472.59 731.51 610.73 849.61 574.39
00001703 00000211 445.40 182.23 416.25 556.04 619.89 429.27 756.63 382.44 786.17 475.16 735.48 614.20 850.56 577.36
00001704 00000212 447.50 186.57 417.68 562.80 620.82 432.26 756.61 388.98 784.95 479.93 737.23 623.45 850.86 589.63
00001705 00000213 453.12 186.27 414.40 587.44 632.61 433.32 765.03 388.28 789.21 487.61 743.96 645.95 845.31 609.94
00001706 00000214 458.57 193.18 407.37 573.80 635.74 434.67 772.41 390.40 793.96 490.05 743.58 646.08 846.40 610.16
00001707 00000215 464.67 191.87 408.72 563.89 643.92 443.35 782.93 390.78 803.59 498.27 748.00 646.68 852.86 602.79
00001708 00000216 467.22 197.11 418.78 558.27 649.22 445.34 795.39 395.52 819.06 496.35 761.31 643.41 872.62 602.94
00001709 00000217 476.82 202.14 411.72 558.72 653.66 454.24 799.30 404.11 821.12 505.23 765.74 651.09 876.43 610.76
00001710 00000218 478.49 196.48 408.10 568.40 653.23 465.85 795.84 401.65 814.20 514.40 752.89 661.16 865.31 606.61
00001711 00000219 475.79 198.31 411.91 576.01 645.20 468.62 793.11 401.17 807.31 513.92 745.18 662.81 863.87 605.38
00001712 00000220 467.99 193.54 410.67 569.26 641.50 467.29 783.66 401.10 799.22 510.68 737.36 652.01 850.19 596.47
00001713 DELETE   456.79 195.46 418.58 553.00 627.90 460.15 774.92 392.53 792.32 502.25 724.66 635.17 845.84 579.90
00001714 00000222 452.84 187.34 426.77 552.32 624.96 456.57 775.47 386.25 789.74 493.17 726.34 628.45 851.38 570.52
00001715 00000223 450.03 169.43 429.24 575.01 621.26 452.39 775.04 374.02 789.70 488.46 724.59 629.79 852.66 564.79
00001716 00000224 450.64 168.01 429.73 576.16 621.10 452.86 774.36 374.14 788.81 489.34 722.69 629.25 851.65 564.09
00001717 00000225 452.12 166.43 429.40 584.98 620.14 452.83 776.39 371.40 791.40 493.77 716.99 634.24 850.65 566.86
00001718 00000226 459.32 169.14 423.76 582.04 626.19 455.00 780.70 371.45 795.57 502.01 714.73 636.10 849.48 567.15
