Video ID: 	xbazXzrvT0A
H: 	2160
W: 	3840
FPS: 	25.0

FRAME INDEX X0 Y0 W H [Landmarks (5 Points)]

00008585 00000000 1634.06 267.35 694.38 1051.61 1800.71 686.00 2128.28 665.00 1981.72 885.03 1875.61 1079.58 2125.00 1066.00
00008586 00000001 1620.28 267.15 700.89 1054.24 1795.11 689.26 2114.63 665.65 1974.64 877.33 1872.18 1080.75 2110.30 1064.84
00008587 DELETE   1618.91 263.97 695.40 1042.06 1790.44 667.52 2110.69 634.83 1974.40 843.37 1873.87 1068.70 2107.00 1045.14
00008588 DELETE   1620.36 249.55 696.91 1026.68 1789.17 637.96 2113.34 608.02 1966.17 808.73 1865.32 1030.26 2109.32 1008.18
00008589 00000004 1611.92 238.35 695.07 1027.50 1780.31 619.80 2107.83 592.91 1954.46 779.52 1851.54 1008.87 2100.26 989.67
00008590 00000005 1608.36 238.96 694.49 1032.52 1780.81 634.33 2098.01 607.48 1951.00 782.48 1845.04 1005.86 2104.05 986.97
00008591 00000006 1608.36 238.09 689.71 1038.95 1787.04 661.09 2095.05 647.11 1950.61 800.24 1840.35 1003.37 2104.87 995.12
00008592 00000007 1608.23 244.57 692.59 1035.82 1786.90 670.83 2096.11 660.35 1947.67 817.23 1837.91 1008.04 2107.78 1002.24
00008593 00000008 1607.84 251.62 692.15 1029.28 1780.68 663.33 2099.35 650.45 1943.22 822.40 1830.84 1012.83 2107.99 1005.22
00008594 00000009 1605.56 246.34 693.99 1034.92 1771.35 653.01 2095.94 637.50 1935.85 809.82 1824.96 1013.57 2103.15 1003.70
00008595 00000010 1602.39 240.32 693.23 1040.98 1766.62 640.17 2090.39 625.92 1929.37 794.76 1818.95 1008.95 2092.25 1000.38
00008596 00000011 1601.72 236.31 692.90 1044.05 1761.98 630.35 2090.35 615.33 1924.17 779.85 1817.58 1003.27 2093.62 994.22
00008597 00000012 1601.60 235.52 692.61 1038.18 1762.60 623.93 2092.31 610.02 1924.80 776.24 1815.86 997.26 2091.72 989.28
00008598 00000013 1602.84 234.24 694.90 1033.00 1767.81 621.75 2096.29 609.43 1931.99 776.91 1819.09 995.45 2091.18 988.63
00008599 00000014 1606.65 237.52 697.61 1027.23 1773.77 622.90 2103.31 611.95 1937.48 779.95 1822.78 995.67 2096.03 989.87
00008600 00000015 1608.91 241.69 700.40 1021.78 1780.17 627.62 2107.87 615.75 1945.55 784.26 1829.03 997.25 2100.85 990.95
00008601 00000016 1614.89 241.34 699.08 1025.12 1785.88 631.84 2112.45 617.35 1953.15 789.04 1835.79 1001.05 2107.51 992.79
00008602 00000017 1625.42 245.28 692.96 1019.49 1793.43 634.19 2120.86 618.18 1959.98 790.32 1841.64 1004.36 2113.42 994.86
00008603 00000018 1630.04 243.83 691.46 1020.75 1799.31 632.36 2126.67 616.61 1965.77 790.48 1846.62 1005.70 2117.87 996.25
00008604 00000019 1634.21 241.17 691.29 1021.23 1804.77 631.06 2132.78 615.31 1973.79 790.79 1851.78 1005.11 2122.71 995.55
00008605 00000020 1636.99 240.28 690.98 1019.40 1808.52 627.07 2136.30 613.31 1977.49 789.47 1854.43 1002.55 2124.04 994.43
00008606 00000021 1640.16 241.73 689.69 1014.59 1811.96 626.91 2141.37 613.44 1980.76 788.59 1858.67 1004.29 2125.94 996.27
00008607 00000022 1644.77 239.19 689.97 1017.16 1817.03 627.45 2145.07 616.26 1985.17 790.06 1862.58 1002.95 2131.32 996.76
00008608 00000023 1646.99 237.20 688.90 1018.43 1824.77 624.36 2153.58 617.94 1994.64 790.75 1868.63 1002.84 2135.36 1000.31
00008609 00000024 1645.36 236.70 692.61 1021.09 1826.66 625.11 2156.74 619.98 1997.51 790.51 1870.42 1001.99 2139.75 1000.34
00008610 00000025 1645.68 236.42 692.79 1022.91 1827.81 624.97 2157.75 620.55 2000.29 791.54 1870.79 1000.81 2142.41 999.63
00008611 00000026 1644.84 237.59 694.87 1023.22 1828.53 625.12 2158.10 620.13 2001.02 792.55 1871.14 1000.41 2142.59 998.87
00008612 00000027 1643.96 238.58 694.52 1022.57 1828.05 624.54 2157.47 619.89 2001.25 793.61 1871.49 999.53 2143.25 998.10
00008613 00000028 1643.71 239.35 693.83 1020.21 1826.97 624.80 2156.77 619.61 2001.58 794.62 1871.70 999.88 2143.26 997.88
00008614 00000029 1643.46 238.61 693.84 1019.59 1826.77 625.15 2156.53 620.06 2000.81 797.14 1871.55 1000.64 2142.17 998.78
00008615 00000030 1643.47 238.95 694.44 1019.28 1827.18 626.12 2157.39 621.56 2001.69 796.96 1871.98 1001.29 2143.08 999.84
00008616 00000031 1644.78 240.98 692.02 1015.14 1827.70 626.89 2157.04 622.46 2001.25 796.92 1872.24 1001.07 2142.03 999.83
00008617 00000032 1644.33 239.87 692.47 1016.95 1827.78 627.33 2157.04 622.69 2001.91 797.50 1873.62 1002.51 2142.66 1000.94
00008618 00000033 1642.51 239.54 698.33 1024.45 1827.97 626.28 2156.43 620.14 2005.19 798.97 1874.14 1004.25 2142.62 1001.53
00008619 00000034 1642.23 238.92 699.76 1025.97 1829.04 626.91 2156.75 621.30 2006.56 799.66 1876.33 1006.09 2141.92 1003.66
00008620 00000035 1641.94 239.14 701.10 1027.81 1829.47 627.11 2158.09 620.63 2007.23 798.26 1875.65 1006.29 2143.17 1003.22
00008621 00000036 1643.58 236.77 698.44 1026.98 1831.31 626.54 2161.89 618.69 2011.31 795.43 1880.20 1004.26 2150.29 999.46
00008622 00000037 1642.99 235.16 702.23 1031.52 1834.88 635.63 2159.81 620.92 2021.44 794.47 1889.42 1007.80 2157.25 997.38
00008623 00000038 1643.60 229.89 703.01 1031.77 1839.81 623.46 2161.64 606.04 2029.77 778.83 1899.47 1002.03 2159.19 989.29
00008624 00000039 1646.61 218.45 699.92 1032.24 1840.59 600.19 2165.33 573.02 2036.73 744.34 1906.47 994.66 2161.24 974.27
00008625 00000040 1650.76 218.72 694.36 1014.50 1843.93 578.37 2164.07 544.54 2041.64 711.69 1906.71 971.65 2160.79 946.76
00008626 00000041 1653.27 220.89 682.97 1007.86 1842.66 571.40 2163.28 542.06 2032.59 677.47 1894.91 949.17 2163.33 928.94
00008627 00000042 1647.96 219.60 686.51 1004.55 1838.91 556.45 2160.91 527.52 2026.58 665.60 1884.51 933.11 2159.31 913.62
00008628 00000043 1643.58 211.69 687.10 1006.78 1832.88 547.73 2162.30 517.75 2025.53 656.21 1879.82 922.60 2166.13 901.89
00008629 00000044 1638.04 209.61 693.47 996.54 1833.05 541.74 2163.03 517.81 2029.19 658.08 1884.30 919.46 2159.92 903.02
00008630 00000045 1635.91 210.72 694.41 989.31 1832.48 544.90 2159.64 518.95 2028.91 668.86 1894.48 927.18 2152.37 908.94
00008631 00000046 1634.93 216.15 695.20 987.09 1833.36 543.54 2156.18 521.67 2031.03 668.92 1900.58 932.49 2146.49 917.59
00008632 00000047 1628.87 216.73 694.17 987.19 1830.56 544.87 2154.69 529.13 2026.84 664.72 1896.47 930.00 2144.15 919.86
00008633 00000048 1621.51 201.13 680.77 997.94 1815.95 547.79 2148.81 522.58 2014.56 666.60 1887.85 930.71 2146.85 907.03
00008634 00000049 1609.44 195.34 685.92 997.65 1807.60 555.70 2134.64 526.87 2002.93 658.67 1867.72 924.60 2133.34 899.03
00008635 00000050 1615.95 215.41 684.36 993.12 1800.30 542.76 2124.54 523.73 1979.34 654.49 1842.34 910.43 2110.02 901.70
00008636 00000051 1602.52 221.62 691.13 995.64 1778.00 549.09 2100.23 525.93 1950.06 676.52 1816.86 912.74 2092.22 900.71
00008637 DELETE   1587.74 199.01 697.43 1003.50 1757.72 568.47 2090.88 548.44 1925.08 712.18 1791.71 927.72 2102.66 909.79
00008638 DELETE   1588.14 211.26 686.51 1010.62 1743.52 595.22 2073.70 578.48 1905.51 762.49 1773.98 954.82 2077.45 944.17
00008639 DELETE   1583.89 225.60 684.31 1039.67 1726.18 621.66 2054.56 616.23 1874.10 820.25 1755.29 1001.19 2061.40 997.29
00008640 00000055 1574.63 244.01 704.91 1045.54 1731.34 645.30 2065.83 648.41 1877.22 834.38 1765.27 1016.37 2060.56 1021.32
00008641 00000056 1588.12 247.97 696.89 1045.30 1737.98 658.85 2074.36 650.88 1888.06 838.54 1780.33 1024.85 2077.26 1020.92
00008642 00000057 1598.79 249.79 693.16 1036.63 1750.61 652.21 2088.47 642.74 1902.05 832.07 1793.43 1016.03 2092.85 1011.07
00008643 00000058 1606.69 240.67 693.93 1036.97 1762.35 642.95 2096.51 636.55 1914.98 812.24 1797.68 998.90 2099.73 996.53
00008644 00000059 1610.80 231.47 691.57 1036.51 1765.21 630.00 2100.96 623.66 1917.75 803.11 1802.26 997.25 2095.07 995.81
00008645 00000060 1608.92 226.02 696.77 1037.19 1768.32 622.31 2101.22 614.56 1926.15 798.90 1815.25 1000.50 2083.88 997.58
00008646 00000061 1616.16 225.61 693.25 1039.79 1776.78 616.24 2107.70 608.42 1934.31 795.21 1825.12 1001.95 2082.76 999.30
00008647 00000062 1620.55 224.70 693.66 1040.68 1783.26 613.70 2112.52 606.48 1939.20 790.86 1830.32 1001.16 2084.99 998.90
00008648 00000063 1627.40 229.90 689.99 1033.33 1789.29 618.88 2114.51 612.76 1940.36 792.76 1831.69 999.72 2089.64 998.86
00008649 00000064 1632.39 234.35 684.16 1026.76 1791.34 623.89 2115.47 618.09 1939.81 797.39 1828.40 999.53 2094.04 999.46
00008650 00000065 1631.82 236.08 682.54 1023.97 1788.97 623.57 2115.38 617.78 1937.72 796.12 1824.26 999.29 2094.75 999.36
00008651 00000066 1625.79 232.34 686.73 1028.04 1785.30 622.18 2112.59 616.54 1936.91 791.27 1820.82 994.08 2096.59 993.71
00008652 00000067 1621.50 227.92 687.20 1027.07 1782.15 616.23 2110.15 608.94 1935.50 780.84 1820.24 988.49 2093.69 986.34
00008653 00000068 1619.40 227.59 684.59 1022.76 1776.84 615.33 2104.63 606.15 1929.77 775.92 1815.54 984.34 2089.83 980.99
00008654 00000069 1617.62 225.89 684.52 1023.47 1775.06 615.19 2103.54 606.18 1927.56 773.59 1813.75 983.30 2087.89 980.63
00008655 00000070 1616.09 227.96 685.95 1021.82 1773.89 615.53 2102.01 606.28 1926.84 773.00 1812.99 983.38 2087.19 980.54
00008656 00000071 1615.92 228.32 685.30 1019.83 1773.88 615.86 2102.01 606.09 1928.04 772.80 1813.28 982.66 2088.61 979.51
00008657 00000072 1618.89 229.12 681.13 1015.30 1776.21 613.28 2103.34 604.17 1929.79 771.56 1812.84 978.11 2089.25 975.99
00008658 00000073 1614.51 223.68 678.93 1000.77 1780.58 603.82 2101.64 587.21 1935.26 771.11 1812.81 982.53 2100.66 970.35
00008659 00000074 1620.89 219.11 666.24 1001.61 1790.74 599.47 2111.04 589.39 1940.76 768.58 1810.84 976.15 2104.38 967.50
00008660 00000075 1621.54 217.13 670.67 996.94 1793.16 591.79 2115.75 582.74 1944.90 760.57 1812.22 971.13 2109.70 962.86
00008661 00000076 1620.73 216.80 677.29 994.87 1796.48 583.13 2120.92 575.02 1950.00 751.63 1819.75 966.94 2112.17 958.73
00008662 00000077 1622.96 216.83 683.65 1003.40 1795.03 576.41 2117.87 565.66 1951.13 738.11 1822.37 964.10 2112.77 955.84
00008663 00000078 1625.38 208.56 684.38 1007.97 1796.49 567.28 2128.35 554.60 1964.84 725.73 1831.19 959.85 2126.49 947.47
00008664 00000079 1629.56 208.27 681.44 1008.94 1801.46 564.54 2132.18 551.45 1971.38 714.00 1838.00 953.63 2132.86 940.76
00008665 00000080 1631.89 209.74 681.19 1006.50 1805.04 560.37 2135.33 546.71 1977.00 707.22 1845.60 948.46 2134.58 935.57
00008666 00000081 1633.60 211.03 681.17 1007.73 1808.64 559.35 2138.89 544.88 1982.17 701.33 1851.52 947.18 2139.20 933.58
00008667 00000082 1635.60 213.49 680.56 1008.26 1810.67 558.94 2140.81 544.06 1986.38 698.45 1854.51 948.45 2143.60 934.54
00008668 00000083 1637.08 211.09 680.19 1010.53 1812.33 561.40 2143.28 547.16 1988.79 696.63 1857.04 948.74 2145.96 935.35
00008669 00000084 1637.11 212.67 678.19 1002.20 1814.27 565.32 2139.55 550.37 1987.17 694.68 1862.08 946.39 2142.45 932.12
00008670 00000085 1637.20 209.46 682.12 991.86 1813.94 559.82 2141.47 541.81 1989.04 689.97 1863.80 938.92 2145.01 921.53
00008671 00000086 1638.29 202.74 686.31 985.77 1814.54 547.29 2148.55 528.95 1992.47 674.73 1864.50 926.99 2147.76 908.88
00008672 00000087 1641.68 193.22 685.60 982.54 1816.88 540.56 2152.23 522.93 1992.42 663.81 1857.75 919.43 2148.75 901.25
00008673 00000088 1643.77 205.47 684.67 955.55 1814.30 540.90 2156.06 525.07 1993.05 668.80 1859.65 912.08 2140.05 901.54
00008674 00000089 1646.12 193.91 690.39 986.85 1820.40 543.40 2153.42 527.60 1990.75 683.42 1860.88 921.48 2149.30 905.72
00008675 00000090 1644.41 194.95 692.60 996.99 1819.40 558.62 2146.19 545.63 1980.84 702.73 1855.15 936.56 2146.28 923.72
00008676 00000091 1656.82 206.49 681.11 1007.60 1823.10 575.13 2153.32 564.13 1979.80 722.69 1850.77 949.03 2132.28 946.86
00008677 00000092 1654.51 208.19 685.97 1003.46 1816.69 583.21 2143.31 573.27 1969.15 740.21 1843.77 956.22 2111.00 955.09
00008678 00000093 1645.94 211.75 685.12 999.95 1808.97 586.70 2129.15 581.29 1959.28 748.96 1838.21 957.97 2090.75 960.31
00008679 00000094 1639.64 217.92 677.41 987.23 1806.45 588.18 2115.52 583.43 1949.22 737.12 1831.14 945.85 2072.50 949.04
00008680 00000095 1622.72 213.82 679.38 990.04 1793.07 569.60 2105.04 558.81 1945.74 713.23 1826.28 937.60 2055.65 934.90
00008681 00000096 1607.67 211.93 684.99 1000.16 1777.34 558.40 2089.55 538.25 1933.75 690.26 1817.95 941.22 2040.10 930.22
00008682 00000097 1598.28 203.62 690.47 1008.71 1766.73 556.10 2081.04 534.11 1923.91 686.93 1812.71 943.37 2034.49 930.13
00008683 00000098 1598.20 212.83 684.78 1006.33 1757.23 567.46 2074.76 553.00 1912.90 708.65 1801.61 951.02 2030.77 942.91
00008684 DELETE   1594.30 219.09 687.33 1023.77 1750.16 598.43 2071.39 591.55 1903.80 757.17 1793.67 977.35 2041.77 976.00
00008685 DELETE   1586.31 231.87 693.95 1030.98 1747.49 629.09 2072.67 630.71 1899.29 806.42 1785.42 1003.53 2051.49 1008.71
00008686 00000101 1578.37 237.64 697.06 1034.81 1739.33 641.77 2067.68 645.04 1887.81 823.67 1778.66 1015.78 2047.58 1021.86
00008687 00000102 1572.41 235.48 699.55 1029.94 1732.08 636.08 2062.97 638.44 1884.30 821.72 1775.33 1012.69 2045.04 1017.39
00008688 00000103 1572.36 227.82 696.50 1025.78 1733.53 624.91 2061.67 628.01 1892.09 805.12 1774.57 1001.63 2047.08 1006.88
00008689 00000104 1571.82 224.41 697.25 1019.49 1733.98 618.86 2059.10 619.75 1890.66 793.11 1775.20 990.40 2047.89 993.55
00008690 00000105 1577.50 214.08 689.37 1011.72 1735.92 618.47 2054.78 599.26 1892.09 792.21 1777.98 1004.82 2052.78 990.77
00008691 00000106 1571.83 228.55 698.72 1020.52 1741.63 623.66 2065.51 629.03 1902.69 808.23 1780.53 999.83 2048.40 1006.61
CROP_BBOX: 1117 0 3058 1815
