Video ID: 	8OEwlfwfcfc
H: 	1080
W: 	1920
FPS: 	25.0

FRAME INDEX X0 Y0 W H [Landmarks (5 Points)]

00016942 00000000 1016.38 208.19 416.65 549.25 1070.71 429.64 1232.22 437.29 1105.34 549.87 1084.91 655.86 1203.38 662.68
00016943 DELETE   1020.24 198.43 412.78 567.71 1074.20 420.18 1236.44 430.55 1105.23 538.93 1086.67 637.44 1210.75 646.01
00016944 DELETE   1019.83 189.25 407.58 564.18 1067.06 407.01 1231.84 421.05 1096.01 534.27 1077.81 632.64 1206.76 644.74
00016945 DELETE   1022.97 178.68 403.31 569.25 1066.04 395.98 1220.51 409.32 1085.22 521.77 1075.62 622.45 1188.58 634.41
00016946 00000004 1027.59 164.06 393.95 603.11 1061.79 386.16 1213.91 402.77 1075.30 512.37 1062.07 617.13 1176.42 632.57
00016947 DELETE   1023.19 158.37 397.78 611.62 1058.16 380.70 1206.24 398.89 1064.56 501.87 1051.55 612.74 1164.17 629.97
00016948 00000006 1019.85 155.19 396.88 610.16 1058.35 376.07 1202.80 396.84 1060.89 495.29 1048.69 604.56 1159.47 623.96
00016949 00000007 1018.78 150.77 393.19 611.20 1058.93 372.26 1201.12 394.37 1059.26 492.45 1048.96 600.65 1157.43 621.08
00016950 00000008 1021.06 148.03 392.04 611.51 1059.90 371.22 1201.98 393.13 1061.17 493.00 1050.19 600.52 1157.92 620.85
00016951 00000009 1023.02 145.44 391.59 611.97 1062.93 372.69 1205.92 393.59 1066.90 491.83 1052.40 601.28 1160.22 620.91
00016952 00000010 1025.55 146.59 394.72 608.18 1065.07 373.14 1209.83 392.00 1071.25 490.40 1056.48 601.09 1163.02 618.93
00016953 00000011 1023.61 147.93 393.36 606.72 1064.40 370.08 1205.42 389.36 1067.69 486.04 1055.49 596.99 1161.40 615.03
00016954 00000012 1023.82 145.26 389.29 602.58 1065.28 365.82 1201.72 384.92 1062.74 482.41 1056.46 592.52 1158.93 610.10
00016955 00000013 1026.76 142.93 386.48 595.33 1066.77 361.49 1199.23 380.16 1061.73 477.62 1058.55 589.61 1157.25 606.75
00016956 00000014 1025.06 142.51 383.99 593.03 1063.91 358.47 1199.11 378.26 1062.09 476.61 1056.46 585.97 1157.86 604.19
00016957 00000015 1025.42 147.57 381.81 579.27 1060.04 356.12 1193.30 374.19 1062.11 475.86 1052.78 585.03 1153.97 601.70
00016958 00000016 1027.55 147.42 383.79 575.96 1062.72 359.80 1195.55 375.87 1065.13 474.37 1055.94 586.67 1156.38 601.37
00016959 00000017 1026.61 145.53 382.50 572.80 1060.82 360.19 1196.72 373.03 1068.36 474.52 1055.38 587.26 1159.17 599.31
00016960 00000018 1024.58 139.77 382.62 582.08 1057.83 360.20 1197.04 372.75 1065.66 475.52 1056.40 587.50 1160.92 599.51
00016961 00000019 1020.73 138.62 385.03 583.44 1054.40 360.30 1195.74 372.22 1064.73 478.26 1054.73 587.08 1165.91 598.61
00016962 00000020 1019.27 139.14 390.12 610.04 1056.76 364.07 1192.65 373.27 1055.29 476.87 1060.52 592.42 1169.08 601.12
00016963 00000021 1012.56 143.53 391.17 591.54 1048.44 362.56 1184.15 373.25 1047.91 474.67 1047.46 584.80 1155.23 595.22
00016964 00000022 1011.21 144.57 389.57 601.01 1045.78 365.38 1182.03 377.57 1043.68 474.73 1044.28 589.35 1149.74 600.49
00016965 00000023 1008.29 145.71 389.84 601.04 1044.32 363.09 1179.50 376.89 1040.64 472.71 1041.82 587.24 1145.02 599.69
00016966 00000024 1007.41 140.36 386.03 608.26 1040.02 358.54 1179.55 383.40 1037.71 471.79 1033.85 581.38 1137.43 602.49
00016967 00000025 1008.44 138.04 390.07 599.75 1046.55 354.90 1186.38 370.90 1046.69 466.41 1040.84 580.33 1146.16 594.99
00016968 00000026 1012.42 136.90 389.15 598.67 1050.71 354.59 1190.67 371.37 1050.03 467.26 1043.80 580.62 1150.68 595.97
00016969 00000027 1015.60 141.13 388.77 599.26 1057.14 356.89 1189.75 373.30 1051.09 469.52 1048.79 582.51 1152.18 597.29
00016970 00000028 1017.62 146.89 389.19 588.32 1057.02 360.34 1189.97 375.01 1052.28 469.61 1048.35 583.06 1153.91 596.34
00016971 00000029 1018.08 147.87 389.47 583.82 1056.74 362.30 1192.95 378.25 1052.65 469.06 1046.52 580.25 1155.45 594.03
00016972 00000030 1022.91 148.72 391.16 588.59 1062.44 367.04 1191.32 377.74 1050.92 473.49 1056.10 586.35 1156.36 595.41
00016973 00000031 1020.94 148.83 393.72 596.40 1060.17 365.92 1193.82 378.12 1053.50 475.80 1053.93 590.15 1159.23 600.60
00016974 00000032 1020.17 143.78 391.59 589.95 1058.57 362.02 1197.51 378.57 1056.14 480.17 1059.08 584.98 1168.48 599.56
00016975 00000033 1019.39 144.32 388.64 585.63 1058.37 358.93 1193.75 377.15 1055.52 477.53 1054.07 584.83 1159.80 601.25
00016976 00000034 1018.88 142.46 385.60 587.97 1052.94 358.40 1193.89 376.21 1055.50 480.37 1052.81 589.29 1159.28 605.36
00016977 00000035 1017.33 146.56 382.07 569.63 1046.39 359.47 1190.36 377.34 1054.65 484.22 1044.94 590.42 1154.41 606.27
00016978 00000036 1013.28 146.76 382.29 574.22 1044.99 361.44 1187.95 378.73 1054.00 485.01 1042.18 591.99 1148.48 608.05
00016979 00000037 1011.96 148.62 384.30 573.28 1044.64 361.97 1186.49 379.16 1053.32 484.86 1042.19 590.92 1146.48 607.08
00016980 00000038 1011.32 146.17 383.92 579.83 1045.74 360.18 1186.11 378.73 1053.17 484.78 1041.85 588.29 1146.49 605.63
00016981 00000039 1011.09 142.96 386.83 590.99 1048.28 358.79 1187.07 378.03 1050.76 478.41 1041.79 584.25 1145.53 602.15
00016982 00000040 1013.62 142.64 386.11 590.00 1049.07 356.34 1186.20 373.62 1051.65 476.61 1044.33 584.84 1147.10 600.96
00016983 00000041 1015.54 140.09 387.82 599.53 1053.32 358.51 1189.80 374.01 1055.33 475.56 1049.88 587.11 1151.68 601.66
00016984 00000042 1016.18 139.52 387.45 601.77 1053.32 360.33 1190.23 374.92 1055.30 476.24 1051.24 588.66 1152.75 602.39
00016985 00000043 1015.22 140.75 388.21 601.52 1053.76 359.26 1188.69 375.35 1053.36 474.28 1049.38 586.49 1149.76 601.51
00016986 00000044 1013.28 139.37 387.58 599.53 1051.28 356.45 1185.49 373.35 1051.21 474.08 1046.75 584.25 1146.36 599.94
00016987 00000045 1014.13 141.51 380.45 602.99 1046.23 352.65 1184.30 378.52 1047.50 474.04 1038.21 582.70 1138.52 604.76
00016988 00000046 1015.46 136.77 381.14 604.39 1045.71 350.18 1184.00 374.68 1047.91 470.95 1037.53 580.83 1138.23 601.94
00016989 00000047 1016.45 136.04 380.69 598.53 1044.64 347.01 1182.95 369.73 1047.92 469.30 1037.65 578.50 1137.58 598.22
00016990 00000048 1014.97 134.35 381.75 595.09 1043.26 344.61 1181.36 365.31 1046.34 465.48 1036.99 575.62 1136.94 593.81
00016991 00000049 1014.72 133.03 378.76 587.76 1038.39 346.00 1175.08 365.98 1044.48 467.31 1035.48 577.37 1131.89 594.81
00016992 00000050 1011.96 135.16 380.51 589.81 1037.13 346.52 1173.82 368.83 1042.66 472.85 1034.55 580.15 1131.04 599.25
00016993 00000051 1006.87 136.87 391.92 597.68 1040.94 355.47 1171.62 365.45 1040.74 476.74 1043.23 592.65 1136.29 602.17
00016994 00000052 1004.65 143.34 391.24 586.16 1039.06 363.65 1175.13 373.45 1042.27 480.76 1043.23 587.81 1143.35 597.44
00016995 00000053 1003.06 149.02 394.19 586.58 1037.28 367.12 1176.15 378.81 1041.50 485.79 1039.30 591.24 1145.32 602.53
00016996 00000054 1007.17 150.03 389.42 572.57 1037.08 364.93 1176.65 381.31 1042.66 490.93 1039.25 591.59 1147.71 606.11
00016997 00000055 1009.20 151.93 392.59 591.95 1041.79 366.54 1183.19 380.54 1048.47 494.69 1051.36 597.25 1165.89 609.41
00016998 00000056 1012.70 156.84 387.83 581.60 1045.20 366.93 1186.19 380.51 1054.62 497.47 1055.08 597.31 1168.88 608.99
00016999 00000057 1016.39 157.75 387.86 579.27 1050.79 373.80 1185.65 384.38 1055.92 496.00 1062.04 596.29 1174.25 605.15
00017000 00000058 1020.22 161.24 393.54 582.18 1058.91 372.04 1189.29 383.68 1060.67 494.60 1069.14 594.62 1184.51 603.73
00017001 00000059 1022.22 159.94 390.24 576.09 1057.24 365.03 1193.33 380.82 1064.25 495.63 1064.24 592.18 1184.87 605.12
00017002 00000060 1022.54 147.95 390.82 595.86 1058.45 365.74 1197.66 384.22 1061.80 490.32 1057.15 592.27 1171.31 608.81
00017003 00000061 1021.23 144.83 389.06 597.04 1058.00 364.81 1197.37 383.06 1061.59 486.69 1054.02 590.53 1164.78 607.40
00017004 00000062 1020.93 143.12 389.23 602.08 1058.18 365.14 1195.23 381.51 1059.81 483.32 1054.24 592.55 1160.60 607.95
00017005 00000063 1020.68 144.18 386.74 602.56 1059.52 365.02 1195.09 381.33 1061.53 482.11 1055.90 591.58 1159.35 606.83
00017006 00000064 1019.00 141.87 386.99 607.05 1058.15 365.16 1194.76 382.19 1060.71 483.87 1055.36 593.39 1158.78 609.14
00017007 00000065 1016.51 144.59 388.54 604.39 1053.72 366.12 1193.49 383.57 1058.80 486.33 1052.81 593.65 1158.83 609.73
00017008 00000066 1014.71 148.33 389.13 602.88 1051.48 366.36 1190.80 385.86 1055.83 490.57 1050.72 594.00 1158.64 611.68
00017009 00000067 1013.18 152.84 387.93 597.75 1049.28 365.75 1188.66 385.44 1053.84 491.02 1049.29 594.11 1156.77 611.78
00017010 00000068 1011.04 155.35 387.54 596.05 1047.16 365.62 1185.53 384.34 1052.04 492.73 1048.98 594.35 1157.11 611.18
00017011 00000069 1010.45 151.31 389.29 596.53 1045.91 367.25 1183.51 382.43 1050.54 489.90 1050.82 593.90 1159.24 607.73
00017012 00000070 1008.79 147.79 390.95 604.03 1044.06 367.19 1181.85 381.69 1046.54 487.89 1049.74 593.87 1161.08 606.96
00017013 00000071 1004.95 145.53 390.98 604.05 1040.52 366.80 1176.69 380.47 1041.60 484.60 1046.99 591.26 1158.52 603.48
00017014 00000072 1000.37 146.01 391.96 602.49 1035.49 368.53 1170.76 381.61 1033.73 487.64 1043.57 592.80 1156.03 604.29
00017015 00000073 997.79 151.47 390.92 597.00 1032.87 369.37 1164.66 383.87 1028.36 492.36 1042.31 594.39 1149.68 606.85
00017016 00000074 999.36 155.67 387.61 591.95 1032.43 370.27 1159.29 384.76 1024.31 498.99 1043.91 596.83 1146.35 609.09
00017017 00000075 999.00 158.15 389.42 593.17 1029.47 376.96 1156.40 391.13 1020.30 504.77 1042.77 601.14 1145.22 613.04
00017018 00000076 997.25 162.84 389.01 587.56 1027.42 378.76 1153.13 394.67 1018.86 509.90 1041.67 603.77 1143.40 616.90
00017019 00000077 995.03 171.50 391.10 581.40 1026.07 380.69 1148.15 398.97 1014.66 514.31 1041.51 607.63 1139.24 622.45
00017020 00000078 991.70 174.26 390.53 584.48 1025.70 387.43 1146.38 406.02 1015.31 518.66 1042.14 611.63 1138.13 626.41
00017021 00000079 990.01 179.08 391.36 582.78 1023.19 390.32 1148.22 412.62 1016.59 523.90 1041.16 614.37 1141.03 632.04
00017022 00000080 991.64 188.69 391.29 573.17 1020.14 393.59 1146.78 416.80 1015.54 531.83 1038.10 624.13 1137.09 642.52
00017023 00000081 987.81 186.04 395.24 582.67 1016.46 397.15 1157.72 420.04 1008.93 545.64 1043.61 634.89 1150.63 653.17
00017024 00000082 988.06 194.88 395.65 568.72 1014.01 401.74 1159.30 425.92 1011.36 552.87 1043.06 637.27 1151.66 656.46
00017025 00000083 985.97 197.80 395.98 564.57 1012.98 404.71 1158.40 427.68 1014.05 559.88 1048.28 640.19 1156.91 658.36
00017026 00000084 986.28 204.35 394.20 559.03 1013.32 418.64 1158.01 441.95 1013.58 563.72 1049.60 642.28 1160.09 659.84
00017027 00000085 988.62 211.80 392.75 547.69 1014.35 427.62 1160.65 448.22 1018.48 571.12 1051.92 644.57 1166.13 659.65
00017028 00000086 985.26 220.08 395.80 544.69 1010.98 432.69 1166.10 448.92 1022.68 573.98 1040.69 656.54 1170.65 669.97
00017029 00000087 985.34 220.07 397.53 556.82 1015.06 434.71 1170.23 451.04 1030.46 580.47 1047.62 658.62 1176.40 672.38
00017030 00000088 988.25 221.40 397.38 557.62 1019.35 435.35 1176.54 453.26 1035.12 583.63 1051.13 660.93 1182.02 675.57
00017031 00000089 994.56 226.56 391.00 550.75 1028.12 437.46 1174.07 453.36 1046.91 582.35 1053.02 652.90 1188.97 664.73
00017032 00000090 995.28 224.99 392.97 553.55 1029.20 437.39 1176.30 451.87 1049.71 583.11 1055.26 657.28 1191.13 668.15
00017033 00000091 997.17 224.47 393.89 547.26 1030.35 436.86 1179.20 450.44 1054.42 580.92 1054.66 659.51 1191.54 669.76
00017034 00000092 994.26 219.23 398.05 544.27 1023.48 438.03 1184.32 456.80 1042.59 581.07 1056.37 660.88 1171.01 675.47
00017035 00000093 994.24 214.50 394.74 540.87 1024.31 430.83 1182.51 452.24 1040.14 571.49 1052.46 656.65 1160.65 674.63
00017036 DELETE   995.68 198.85 390.84 549.69 1028.15 415.01 1175.67 438.79 1035.52 552.42 1048.56 643.82 1145.47 664.95
00017037 DELETE   997.92 193.75 389.43 574.29 1026.43 401.57 1165.88 422.25 1035.64 531.59 1035.98 636.26 1131.46 653.82
00017038 DELETE   1002.00 168.87 386.20 589.32 1036.30 381.96 1169.29 405.89 1034.58 512.46 1035.00 614.44 1126.63 635.16
00017039 00000097 1003.73 159.92 386.34 597.81 1040.22 373.94 1171.19 399.96 1032.75 498.43 1031.17 602.40 1123.90 625.13
00017040 00000098 1001.23 154.17 391.40 600.88 1042.09 366.45 1172.26 394.34 1034.34 489.80 1029.13 595.24 1121.57 619.67
00017041 00000099 1004.44 155.98 389.13 608.51 1043.94 366.98 1175.80 397.50 1034.30 493.14 1030.71 600.64 1126.05 627.21
00017042 00000100 1009.42 152.25 381.41 604.66 1042.49 373.40 1172.99 401.95 1033.76 504.64 1032.57 605.50 1126.88 630.43
00017043 00000101 1007.77 162.54 382.70 602.85 1042.37 378.22 1167.19 406.04 1030.86 508.94 1034.25 613.40 1120.23 637.28
00017044 DELETE   1000.92 181.80 374.81 533.93 1035.49 384.52 1160.38 413.49 1030.60 512.42 1023.02 607.85 1107.56 632.50
00017045 00000103 991.08 171.51 390.78 583.07 1027.26 387.64 1170.75 412.75 1013.34 520.75 1025.09 630.89 1123.67 654.19
00017046 00000104 993.60 182.52 386.24 577.80 1028.27 388.59 1149.11 418.37 1012.65 522.48 1026.30 624.64 1116.08 648.25
00017047 00000105 991.41 185.49 390.78 599.58 1025.70 391.54 1153.74 421.33 1010.84 525.97 1028.45 627.14 1129.32 651.06
00017048 00000106 993.75 184.72 390.95 609.16 1026.47 390.94 1160.61 416.49 1019.76 523.53 1035.96 625.76 1147.06 646.77
00017049 00000107 996.46 186.70 389.95 603.66 1029.82 392.12 1162.88 415.06 1023.22 521.10 1041.62 622.68 1153.80 641.29
00017050 00000108 999.66 187.57 387.27 602.73 1034.07 389.03 1166.11 411.37 1025.63 518.02 1046.88 619.03 1160.91 636.74
00017051 00000109 999.11 183.08 388.50 593.39 1032.17 389.46 1165.35 412.67 1025.72 518.65 1039.10 619.74 1144.28 638.75
00017052 00000110 996.83 181.65 389.76 588.38 1032.62 389.32 1164.46 413.22 1024.45 517.26 1034.93 616.64 1138.11 636.52
00017053 00000111 997.38 181.48 391.99 584.72 1032.88 389.08 1164.01 412.84 1025.39 518.57 1036.93 615.41 1140.18 635.34
00017054 00000112 996.12 182.28 393.59 585.80 1033.21 389.77 1164.54 413.74 1028.86 520.59 1036.41 616.36 1136.60 636.74
00017055 00000113 1000.99 195.75 392.33 579.70 1032.70 394.90 1163.48 412.61 1029.01 524.69 1043.79 620.87 1146.29 635.35
00017056 00000114 1003.73 195.62 394.90 587.99 1036.11 402.70 1169.55 419.35 1034.20 526.94 1045.19 626.59 1148.99 640.35
00017057 00000115 1007.27 199.29 399.97 560.05 1043.18 402.60 1179.36 421.76 1044.49 529.13 1055.43 611.27 1172.21 626.42
00017058 00000116 1010.15 190.70 403.03 581.26 1043.13 403.42 1188.69 421.82 1053.12 532.99 1056.75 619.01 1180.50 634.34
CROP_BBOX: 709 0 1735 982
