Video ID: 	T5U6rKGyDsw
H: 	1080
W: 	1920
FPS: 	23.976023976023978

FRAME INDEX X0 Y0 W H [Landmarks (5 Points)]

00004676 00000000 1085.16 196.49 335.95 505.63 1143.28 390.70 1288.98 386.03 1190.16 475.36 1160.33 557.05 1297.08 552.91
00004677 00000001 1085.44 197.73 335.95 502.60 1143.00 391.87 1289.18 386.97 1190.22 475.78 1160.41 557.28 1296.66 553.11
00004678 00000002 1085.41 198.58 335.36 500.89 1142.82 392.05 1288.97 387.58 1189.62 476.17 1160.16 557.07 1295.24 553.31
00004679 00000003 1085.10 199.66 335.16 498.48 1142.60 392.94 1287.99 388.81 1189.39 477.46 1160.07 557.32 1293.90 553.85
00004680 00000004 1084.89 200.36 335.09 498.52 1142.60 393.31 1287.42 389.32 1188.82 478.62 1160.14 557.89 1293.19 554.55
00004681 00000005 1084.43 199.94 335.86 501.81 1142.40 394.14 1286.59 390.60 1188.46 479.62 1159.16 559.34 1292.08 556.37
00004682 00000006 1083.87 198.88 337.30 504.76 1142.44 394.86 1286.13 392.19 1187.74 481.04 1158.63 561.33 1290.12 559.24
00004683 00000007 1083.73 199.84 337.58 504.58 1142.25 395.11 1286.12 392.61 1187.64 481.93 1158.84 562.98 1289.29 561.06
00004684 00000008 1083.51 199.81 338.24 503.82 1141.91 395.53 1286.36 393.11 1187.90 482.29 1158.65 564.70 1287.56 563.02
00004685 00000009 1083.25 200.28 337.01 499.74 1141.35 395.80 1285.70 393.57 1187.84 483.69 1159.55 566.22 1284.38 564.92
00004686 00000010 1083.21 200.39 336.29 498.36 1141.38 396.33 1284.91 394.09 1187.74 484.09 1159.70 565.45 1283.44 564.20
00004687 00000011 1083.18 201.08 336.84 496.69 1141.63 396.46 1284.75 394.41 1187.78 484.17 1159.50 564.17 1284.30 562.89
00004688 00000012 1083.08 201.04 337.33 497.20 1141.29 397.10 1285.34 395.02 1188.16 485.41 1159.54 565.10 1285.28 563.72
00004689 00000013 1082.71 201.07 339.36 500.51 1141.12 398.71 1286.89 395.67 1189.55 487.29 1160.50 567.83 1288.57 565.59
00004690 00000014 1083.06 202.75 338.09 505.07 1142.35 399.33 1287.10 395.41 1190.50 486.28 1161.67 570.26 1288.10 567.73
00004691 00000015 1086.25 197.05 346.65 522.70 1147.61 399.39 1291.57 391.22 1184.50 483.71 1167.11 579.27 1295.58 571.56
00004692 00000016 1084.73 196.12 344.55 521.97 1144.73 400.57 1288.64 391.24 1182.06 485.11 1165.91 580.02 1295.38 571.17
00004693 00000017 1075.32 205.50 342.92 507.11 1134.29 404.93 1278.46 396.54 1183.55 489.84 1156.36 571.90 1287.29 565.33
00004694 00000018 1071.13 202.55 339.70 509.09 1128.63 405.42 1271.23 398.01 1175.34 490.52 1149.25 572.40 1278.15 566.70
00004695 00000019 1067.08 205.74 336.51 502.54 1121.11 408.22 1263.81 400.02 1165.70 492.52 1143.69 576.47 1267.03 570.88
00004696 00000020 1057.01 205.38 347.48 497.72 1110.42 412.62 1247.30 404.60 1155.69 500.50 1138.64 580.44 1259.73 575.20
00004697 DELETE   1045.79 207.86 350.09 495.92 1104.35 416.82 1240.17 407.15 1150.23 502.08 1131.67 581.32 1252.95 574.35
00004698 00000022 1035.38 209.36 354.43 496.68 1095.84 418.53 1230.86 405.52 1141.61 503.14 1125.47 584.38 1246.93 574.47
00004699 00000023 1032.42 209.19 349.29 501.42 1086.50 417.38 1219.38 406.29 1126.47 504.82 1120.17 587.63 1239.24 578.77
00004700 00000024 1029.69 214.88 343.58 498.47 1079.59 420.73 1209.03 409.76 1115.65 510.70 1114.90 591.01 1232.28 582.33
00004701 00000025 1023.64 215.64 346.15 501.24 1072.79 425.64 1200.55 412.74 1108.74 511.90 1113.37 595.02 1227.82 584.37
00004702 00000026 1021.24 215.36 344.03 503.89 1068.99 430.58 1196.60 415.68 1105.25 513.51 1111.92 597.97 1226.00 585.47
00004703 00000027 1021.14 215.96 342.48 502.28 1068.68 431.06 1196.60 417.49 1105.42 514.92 1111.95 597.85 1225.47 586.37
00004704 00000028 1020.88 219.31 343.46 496.95 1069.98 431.31 1197.18 418.29 1107.41 516.52 1111.94 599.08 1223.18 588.16
00004705 00000029 1023.24 220.80 344.93 494.35 1073.72 429.01 1201.83 417.16 1111.88 516.51 1112.14 598.49 1223.56 588.84
00004706 00000030 1027.30 220.58 346.58 492.96 1080.02 425.86 1212.77 414.37 1121.04 513.10 1114.53 595.24 1229.50 586.48
00004707 00000031 1033.50 213.96 345.85 497.56 1088.40 423.29 1223.84 413.79 1132.62 511.81 1121.93 593.83 1238.12 586.63
00004708 DELETE   1040.34 215.65 349.27 496.57 1098.63 425.30 1235.77 413.81 1147.59 510.03 1131.44 593.23 1249.18 585.06
00004709 00000033 1050.78 211.30 347.81 505.77 1109.38 421.68 1244.45 412.78 1157.88 509.68 1142.09 594.23 1256.27 588.60
00004710 00000034 1059.89 212.80 344.09 508.49 1117.30 420.81 1253.60 411.12 1165.95 507.36 1150.81 594.27 1265.70 588.14
00004711 00000035 1069.85 213.83 339.56 509.17 1126.75 408.95 1264.66 408.25 1158.32 498.78 1145.38 588.42 1264.94 587.46
00004712 00000036 1067.92 210.42 337.28 503.96 1124.40 406.98 1269.24 401.70 1169.61 502.64 1147.51 585.46 1266.75 581.97
00004713 00000037 1069.83 207.93 336.52 503.69 1125.57 403.43 1269.83 399.73 1169.29 499.36 1147.59 582.58 1266.44 580.26
00004714 00000038 1071.26 204.52 336.01 508.46 1125.65 400.49 1268.24 398.68 1164.99 496.73 1145.21 580.57 1264.90 579.66
00004715 00000039 1071.72 204.62 334.53 507.03 1124.06 397.38 1264.76 397.98 1157.94 495.41 1139.76 576.79 1261.24 577.48
00004716 00000040 1070.43 203.56 333.39 506.77 1120.51 396.19 1260.15 396.73 1150.84 493.95 1136.60 575.32 1256.06 575.93
00004717 00000041 1068.43 204.69 333.34 503.20 1116.90 396.39 1254.99 396.80 1145.45 493.76 1132.93 574.37 1250.42 574.93
00004718 00000042 1066.63 204.83 333.98 501.63 1115.09 396.58 1252.22 396.54 1143.33 493.07 1132.04 573.39 1248.75 573.58
00004719 00000043 1065.32 204.59 336.14 501.35 1113.58 397.11 1250.74 396.49 1142.19 492.99 1131.22 573.22 1248.00 573.05
00004720 00000044 1065.03 204.66 336.22 501.49 1113.26 397.49 1250.76 395.91 1143.09 492.56 1131.37 573.37 1248.69 572.52
00004721 00000045 1064.02 204.90 337.45 501.05 1113.40 397.28 1252.97 395.07 1144.91 492.72 1132.85 574.20 1250.41 572.79
00004722 00000046 1064.81 204.17 338.13 502.35 1115.19 396.97 1255.63 394.27 1147.01 492.09 1135.09 573.95 1253.12 572.16
00004723 00000047 1065.34 205.48 339.24 499.15 1117.34 396.87 1259.50 394.05 1153.54 489.50 1135.40 571.54 1258.14 569.09
00004724 00000048 1067.23 204.28 337.52 502.46 1120.75 395.92 1264.45 393.58 1159.90 488.66 1138.25 569.99 1264.97 567.85
00004725 00000049 1069.57 203.56 337.85 502.02 1124.01 396.36 1267.56 392.51 1165.72 487.92 1142.87 568.82 1270.05 565.46
00004726 00000050 1069.92 202.01 338.68 500.85 1125.46 397.36 1270.25 391.53 1170.82 488.36 1146.84 569.37 1274.16 564.56
00004727 00000051 1070.53 203.12 339.00 498.42 1126.17 397.64 1271.20 390.54 1173.02 487.16 1149.10 568.77 1276.07 563.05
00004728 00000052 1072.61 201.86 336.18 499.21 1127.36 395.85 1272.00 387.47 1173.13 486.05 1150.24 568.21 1279.51 561.78
00004729 00000053 1069.29 203.43 340.71 505.65 1124.98 396.89 1268.91 390.04 1169.80 488.27 1146.64 568.26 1278.00 562.17
00004730 00000054 1067.33 204.15 340.74 505.04 1122.99 396.59 1266.70 389.86 1166.91 488.19 1144.58 568.36 1274.95 562.47
00004731 00000055 1067.60 201.51 336.31 503.56 1120.95 393.59 1265.61 386.40 1162.90 485.46 1142.40 568.85 1272.24 562.91
00004732 00000056 1065.19 203.12 336.90 496.28 1116.98 395.61 1262.06 388.88 1159.71 484.86 1138.46 567.82 1266.01 562.26
00004733 00000057 1065.31 201.64 334.75 493.80 1116.96 393.59 1260.82 386.97 1157.23 483.76 1138.19 566.80 1261.62 561.88
00004734 00000058 1064.43 201.59 335.71 495.01 1115.93 394.18 1260.06 387.20 1156.26 484.45 1137.51 567.41 1260.74 562.28
00004735 00000059 1064.58 201.71 336.59 495.61 1116.59 394.68 1261.07 387.24 1157.60 484.36 1139.05 568.38 1262.12 562.87
00004736 00000060 1065.02 200.63 336.31 498.15 1118.53 395.28 1263.53 386.78 1161.73 484.11 1142.52 570.61 1265.09 564.37
00004737 00000061 1066.03 198.68 335.46 499.52 1120.50 394.19 1266.08 386.01 1165.25 484.23 1144.25 570.17 1267.96 564.05
00004738 00000062 1066.98 197.79 335.62 502.00 1122.44 393.18 1266.35 384.18 1166.72 483.59 1146.25 569.28 1270.81 562.42
00004739 00000063 1067.53 198.99 335.55 502.48 1122.96 393.20 1266.14 383.60 1166.70 483.33 1146.81 569.46 1271.70 562.18
00004740 00000064 1066.78 199.26 336.21 502.25 1122.13 393.64 1266.06 383.76 1166.62 484.28 1146.38 569.28 1272.92 561.54
00004741 00000065 1065.69 199.80 334.92 499.34 1120.40 394.60 1265.07 384.46 1165.22 484.45 1145.04 569.74 1271.22 561.93
00004742 00000066 1064.74 198.49 335.80 502.72 1118.22 395.45 1263.17 385.58 1162.29 484.95 1142.89 571.92 1266.94 564.42
00004743 00000067 1062.33 198.93 336.97 499.84 1115.09 399.43 1259.37 391.28 1157.44 483.99 1136.70 569.38 1262.46 563.23
00004744 00000068 1059.35 196.84 348.49 501.35 1110.10 403.57 1250.43 391.65 1152.16 484.56 1135.50 572.16 1260.85 564.23
00004745 00000069 1058.03 195.01 347.92 502.10 1106.91 400.91 1244.15 387.21 1147.92 485.16 1134.09 572.95 1256.40 563.54
00004746 00000070 1057.39 196.32 347.82 502.46 1106.19 398.75 1240.49 384.95 1145.20 484.92 1131.76 571.37 1253.97 561.77
00004747 00000071 1058.75 196.50 346.36 502.86 1106.22 397.86 1239.97 383.17 1144.14 483.33 1131.74 570.72 1254.76 560.33
00004748 00000072 1058.60 197.85 335.36 501.88 1108.57 392.12 1247.01 381.78 1143.74 481.05 1132.27 566.25 1255.27 558.51
00004749 00000073 1060.17 197.36 335.49 500.75 1109.77 391.25 1248.20 380.86 1144.58 479.78 1133.45 564.53 1256.63 556.80
00004750 00000074 1060.88 195.68 334.19 499.78 1111.02 389.63 1250.01 379.96 1146.75 478.32 1134.37 562.62 1257.37 555.34
00004751 00000075 1061.89 196.15 333.88 497.56 1112.00 388.56 1251.24 379.55 1147.70 477.10 1134.88 561.58 1257.53 554.82
00004752 00000076 1062.48 195.47 333.21 497.21 1112.79 388.05 1252.52 378.90 1149.37 475.92 1135.45 560.71 1259.05 553.80
00004753 00000077 1062.79 194.25 332.68 496.71 1113.63 386.90 1253.98 377.70 1151.04 474.71 1136.23 559.50 1260.63 552.48
00004754 00000078 1063.25 193.72 331.27 494.60 1114.51 385.79 1255.67 377.06 1153.34 473.22 1136.63 558.53 1261.00 551.87
00004755 00000079 1063.71 193.75 331.73 493.75 1115.21 385.35 1256.91 376.87 1154.23 472.47 1136.51 557.59 1262.29 551.20
00004756 00000080 1064.15 193.17 330.46 493.01 1115.64 384.60 1258.35 376.21 1156.37 470.88 1136.19 556.79 1262.66 550.57
00004757 00000081 1065.27 193.08 327.57 489.67 1116.47 383.99 1258.91 374.90 1158.91 469.59 1136.98 555.11 1263.10 548.44
00004758 00000082 1065.41 191.70 328.78 490.19 1117.20 382.72 1260.24 374.57 1159.99 468.08 1136.09 553.91 1263.46 548.09
00004759 00000083 1066.07 191.66 328.48 490.64 1118.15 382.08 1261.43 373.50 1161.51 467.59 1137.31 554.04 1265.48 547.90
00004760 00000084 1067.08 191.24 329.76 497.00 1119.07 381.65 1262.49 373.21 1160.99 467.62 1137.95 555.27 1268.17 549.27
00004761 00000085 1067.48 191.52 328.87 499.46 1119.38 381.99 1263.19 372.59 1161.58 467.80 1138.43 556.36 1271.93 549.36
00004762 00000086 1067.56 190.53 329.62 501.96 1119.68 381.46 1263.60 371.66 1162.32 467.24 1138.44 556.34 1273.88 548.94
00004763 00000087 1068.40 190.80 330.29 503.45 1120.43 381.04 1264.10 370.30 1162.00 466.02 1138.91 556.04 1276.12 547.57
00004764 00000088 1068.90 189.59 328.17 504.07 1121.25 381.13 1264.06 369.62 1162.87 465.36 1139.92 555.46 1277.25 546.26
00004765 00000089 1069.12 190.40 329.16 503.67 1121.19 381.36 1264.67 369.46 1163.21 465.65 1140.33 555.11 1278.67 545.44
00004766 00000090 1069.56 190.00 330.50 504.31 1121.82 382.40 1264.50 369.34 1163.19 466.03 1142.12 554.88 1280.54 544.05
00004767 00000091 1070.68 189.85 330.14 508.51 1122.67 384.73 1264.36 370.79 1162.47 467.30 1142.94 556.39 1281.77 544.39
00004768 00000092 1070.88 189.96 329.87 509.12 1122.64 385.52 1264.43 371.97 1162.64 468.19 1142.70 557.12 1281.31 545.44
00004769 00000093 1070.59 189.38 330.53 510.46 1122.10 386.85 1263.85 372.64 1162.04 469.11 1142.97 558.04 1281.26 545.77
00004770 00000094 1070.01 188.41 330.54 512.61 1121.25 387.82 1263.61 373.16 1161.89 469.33 1142.47 558.92 1281.20 546.26
00004771 00000095 1069.33 190.20 329.70 509.41 1120.73 388.37 1263.44 373.97 1162.33 469.49 1141.66 558.78 1280.56 546.44
00004772 00000096 1069.06 191.46 331.26 504.70 1120.43 391.35 1263.07 376.52 1162.61 470.65 1142.58 559.23 1278.27 547.15
00004773 00000097 1068.39 192.03 330.74 504.24 1120.30 392.10 1263.09 378.23 1162.91 471.48 1142.59 560.13 1276.62 549.06
00004774 00000098 1067.43 192.99 331.58 501.10 1120.00 391.96 1263.14 379.40 1164.00 472.80 1142.52 560.40 1273.61 550.96
00004775 00000099 1067.39 192.68 332.51 502.06 1120.81 392.12 1262.88 381.06 1163.51 473.98 1142.59 559.69 1272.72 551.58
00004776 00000100 1067.81 193.83 333.77 501.78 1121.62 392.40 1263.07 382.43 1163.75 474.57 1142.96 559.64 1271.71 552.46
00004777 00000101 1067.46 193.95 333.99 503.66 1121.55 393.00 1263.19 383.56 1163.80 475.12 1143.62 562.02 1269.62 555.35
00004778 00000102 1067.23 194.43 333.84 503.34 1121.95 392.92 1263.85 384.46 1164.39 475.68 1143.51 562.62 1268.45 556.77
00004779 00000103 1067.38 194.55 334.15 505.10 1122.36 393.69 1264.23 385.52 1165.00 476.76 1143.62 563.86 1268.60 558.22
00004780 00000104 1067.03 194.29 334.29 504.43 1121.79 394.69 1264.40 386.23 1165.02 477.64 1144.13 566.34 1266.87 560.62
00004781 00000105 1064.50 196.77 336.28 496.70 1120.01 396.65 1262.45 388.74 1163.72 477.36 1141.36 563.54 1264.02 558.04
00004782 00000106 1064.36 197.03 336.03 494.57 1119.86 397.53 1262.33 389.23 1163.94 477.58 1141.60 563.32 1264.64 557.44
00004783 00000107 1064.01 197.28 336.17 494.42 1120.01 397.70 1262.40 389.78 1164.17 477.44 1141.29 562.79 1264.20 557.29
00004784 00000108 1063.86 197.19 336.25 494.96 1120.38 398.11 1262.88 390.31 1164.77 477.91 1141.86 563.18 1264.69 557.80
00004785 00000109 1063.69 197.45 336.55 493.55 1119.70 398.72 1263.14 390.73 1164.83 478.17 1141.11 563.69 1264.82 558.15
00004786 00000110 1063.26 198.32 337.47 492.98 1118.76 399.58 1262.32 391.18 1164.06 479.16 1140.77 564.30 1264.69 558.35
00004787 00000111 1063.12 197.47 337.25 493.11 1119.00 400.62 1262.26 392.24 1164.29 479.64 1140.82 565.23 1264.11 559.37
00004788 00000112 1062.72 197.79 337.93 492.60 1118.55 400.87 1261.97 392.62 1163.82 480.59 1140.79 565.34 1263.88 559.58
00004789 00000113 1063.14 199.26 337.82 494.41 1118.45 401.36 1262.56 392.59 1163.99 481.09 1140.71 567.38 1264.62 561.21
00004790 00000114 1063.05 198.81 337.94 496.62 1117.87 402.23 1263.29 392.52 1164.21 481.57 1140.97 570.04 1265.79 563.11
00004791 00000115 1066.02 198.25 335.17 503.98 1121.07 400.13 1264.52 390.89 1166.16 481.55 1145.28 571.09 1266.76 564.98
00004792 00000116 1065.83 199.39 336.27 506.68 1120.83 400.32 1265.47 391.02 1166.33 483.03 1143.94 570.55 1271.95 563.81
00004793 00000117 1065.47 202.40 348.61 505.50 1119.49 408.18 1261.56 394.15 1168.25 486.69 1147.28 574.79 1277.81 564.98
00004794 00000118 1066.00 201.40 348.82 507.74 1119.70 408.40 1261.68 394.02 1168.87 486.71 1148.33 575.01 1279.50 564.80
00004795 00000119 1066.27 201.60 348.32 508.20 1120.03 408.49 1261.90 394.16 1169.46 487.00 1148.61 574.65 1280.54 564.37
00004796 00000120 1066.75 201.91 349.14 507.35 1120.68 408.52 1262.73 394.85 1170.16 487.64 1148.97 573.91 1281.18 564.22
00004797 00000121 1066.90 201.42 349.38 508.80 1120.97 408.79 1263.16 395.11 1170.40 487.68 1149.50 574.21 1282.04 564.52
00004798 00000122 1067.49 201.73 349.75 508.31 1121.45 408.80 1264.10 395.32 1170.80 488.19 1149.90 574.12 1282.76 564.61
00004799 00000123 1067.86 201.96 348.82 508.71 1122.05 408.69 1264.56 395.51 1171.44 488.25 1149.88 573.83 1283.15 564.61
00004800 00000124 1067.42 202.28 349.36 508.12 1122.25 408.75 1264.53 395.49 1171.67 488.36 1150.10 573.68 1282.95 564.41
00004801 00000125 1067.77 201.17 349.33 508.67 1122.68 408.68 1265.23 396.20 1171.71 488.86 1149.76 572.92 1282.43 564.26
00004802 00000126 1067.67 200.69 348.77 508.05 1122.96 408.84 1265.29 396.64 1171.84 488.74 1150.24 572.94 1281.87 564.39
00004803 00000127 1067.70 200.56 348.11 508.67 1123.56 408.19 1265.08 396.50 1172.24 488.69 1150.34 572.47 1281.49 564.32
00004804 00000128 1067.68 201.11 348.22 506.23 1123.18 408.42 1264.34 397.23 1171.63 488.80 1149.89 571.92 1280.18 564.20
00004805 00000129 1066.97 199.85 339.97 505.89 1123.41 401.52 1266.21 393.82 1167.96 485.40 1144.19 566.64 1274.98 560.50
00004806 00000130 1066.89 199.94 340.08 504.16 1123.17 401.43 1266.17 393.87 1167.83 485.04 1143.72 566.24 1274.31 560.24
00004807 00000131 1066.93 200.42 339.32 504.13 1123.34 401.85 1266.05 394.11 1168.28 485.48 1144.23 566.53 1274.51 560.40
00004808 00000132 1067.75 200.87 347.58 506.26 1124.18 407.43 1263.93 396.89 1172.05 488.49 1149.99 570.81 1279.45 563.63
00004809 00000133 1067.92 200.10 347.83 507.34 1124.59 407.60 1263.38 397.25 1171.72 488.89 1150.65 570.83 1279.17 563.75
00004810 00000134 1067.04 202.97 348.28 505.35 1125.67 410.31 1264.02 398.62 1172.92 488.22 1150.82 570.81 1279.54 562.80
00004811 00000135 1066.76 202.73 348.50 506.33 1125.60 409.27 1264.64 397.90 1172.84 487.46 1150.52 570.71 1279.92 562.97
00004812 00000136 1067.20 201.27 347.89 506.76 1124.43 408.07 1263.90 397.03 1172.10 487.99 1150.13 570.90 1279.35 563.30
00004813 00000137 1067.98 200.90 347.65 506.82 1124.08 406.94 1263.28 396.70 1171.69 488.82 1150.28 570.83 1278.95 563.85
00004814 00000138 1067.91 200.60 347.71 506.12 1123.93 406.55 1263.34 397.02 1171.44 489.11 1150.12 570.52 1278.94 564.12
00004815 00000139 1067.20 200.08 340.78 505.22 1123.93 400.30 1266.79 393.03 1168.11 485.69 1145.20 566.52 1274.77 560.68
00004816 00000140 1066.88 200.28 340.51 502.77 1123.71 400.42 1266.82 393.25 1168.61 485.15 1144.89 565.90 1274.11 560.20
00004817 00000141 1066.64 199.60 339.76 501.37 1123.25 400.05 1267.14 393.05 1168.52 483.88 1143.93 566.87 1271.27 561.60
00004818 00000142 1066.59 198.85 339.76 500.95 1123.12 399.78 1267.64 392.86 1168.94 483.48 1143.81 567.53 1270.27 562.44
00004819 00000143 1066.48 198.75 339.32 502.51 1123.34 398.94 1267.83 392.67 1169.15 483.99 1143.47 567.06 1270.62 562.41
00004820 00000144 1066.74 199.60 340.01 502.81 1123.40 398.71 1267.68 392.47 1168.77 484.50 1143.62 567.52 1270.69 562.84
00004821 00000145 1066.59 198.83 340.03 503.57 1123.37 398.51 1267.78 392.38 1169.05 484.68 1143.67 567.52 1271.03 562.92
00004822 00000146 1066.69 198.93 339.19 502.04 1123.35 398.34 1267.78 392.22 1169.12 484.37 1143.74 567.66 1270.01 563.16
00004823 00000147 1067.65 198.69 337.87 499.37 1123.22 398.17 1268.32 392.02 1169.45 483.75 1144.42 568.75 1268.19 564.40
00004824 00000148 1067.99 198.68 336.81 498.44 1123.68 397.62 1267.81 392.01 1168.88 483.36 1144.32 568.08 1266.17 564.20
00004825 00000149 1067.98 198.34 337.22 499.40 1123.83 397.36 1267.60 391.87 1168.65 483.47 1144.44 568.49 1265.22 564.75
00004826 00000150 1067.88 197.80 337.02 499.25 1123.88 396.93 1267.54 391.92 1168.64 483.16 1143.93 567.53 1264.70 564.16
00004827 00000151 1068.09 198.52 337.08 499.03 1124.30 395.85 1267.61 391.18 1168.40 482.85 1143.53 566.21 1264.91 563.05
00004828 00000152 1068.81 198.94 335.96 499.09 1124.72 395.52 1267.32 390.98 1167.65 482.46 1143.37 565.76 1264.78 562.67
00004829 00000153 1069.07 198.30 336.30 501.14 1124.30 395.65 1268.16 390.36 1168.18 482.67 1144.13 567.94 1266.00 564.25
00004830 00000154 1071.92 195.77 335.73 510.45 1126.21 394.57 1268.63 387.46 1168.49 481.69 1148.85 573.08 1267.52 568.70
00004831 00000155 1072.80 196.54 334.84 511.21 1126.89 393.38 1269.41 386.91 1167.77 481.69 1147.75 570.22 1272.32 565.88
00004832 00000156 1073.79 195.79 332.47 509.21 1127.03 392.54 1269.40 385.56 1168.16 480.10 1147.27 568.59 1272.86 563.92
00004833 00000157 1073.22 194.20 332.28 506.61 1126.93 391.66 1268.98 384.69 1168.74 478.53 1146.58 566.49 1271.57 561.98
00004834 00000158 1073.45 193.78 332.95 503.81 1126.92 390.86 1269.19 384.22 1168.60 476.88 1145.60 563.93 1270.30 559.79
00004835 00000159 1073.78 193.42 332.78 502.92 1127.91 390.58 1269.85 384.51 1169.17 476.27 1146.06 562.89 1270.25 559.22
00004836 00000160 1074.69 194.09 333.59 501.20 1128.53 390.49 1270.17 384.09 1169.89 476.18 1147.16 562.78 1271.00 558.90
00004837 00000161 1075.78 193.98 333.41 502.41 1129.14 390.74 1270.60 383.91 1170.37 476.46 1147.83 563.63 1271.68 559.48
CROP_BBOX: 852 7 1601 829
