Video ID: 	mh8EhstLyt0
H: 	1080
W: 	1920
FPS: 	29.97002997002997

FRAME INDEX X0 Y0 W H [Landmarks (5 Points)]

00010588 00000000 663.50 124.36 376.51 572.36 804.40 389.65 963.54 357.64 935.90 466.84 841.78 570.64 984.07 544.57
00010589 00000001 660.96 125.24 377.45 569.93 799.65 387.08 961.20 356.61 930.94 464.64 837.92 567.82 981.98 542.72
00010590 00000002 659.63 126.91 375.46 566.88 796.42 384.83 958.00 355.62 926.80 464.31 835.51 565.91 978.86 541.70
00010591 00000003 657.67 127.84 375.41 564.58 794.83 384.58 956.43 354.72 924.57 464.21 834.14 565.38 976.75 540.82
00010592 00000004 657.50 127.94 375.13 564.42 793.50 386.45 955.52 354.75 922.75 465.87 833.90 566.52 976.81 540.37
00010593 00000005 657.91 128.14 375.39 566.49 793.34 388.34 954.75 355.45 923.05 467.69 834.71 568.89 976.84 541.67
00010594 00000006 657.41 128.84 376.78 570.47 795.00 390.04 954.37 356.53 923.52 470.10 836.48 571.30 977.22 543.20
00010595 00000007 657.93 130.60 376.68 575.59 796.58 391.85 954.20 359.94 924.91 472.78 835.65 572.25 978.69 545.47
00010596 00000008 658.50 131.15 377.27 577.96 798.11 394.27 955.21 361.87 927.33 475.42 835.83 573.90 980.05 546.78
00010597 00000009 658.98 132.52 376.96 578.55 799.93 395.78 956.28 363.72 929.16 475.64 837.10 575.09 980.95 548.29
00010598 00000010 659.72 131.32 376.71 582.55 801.62 396.89 957.42 365.15 931.33 476.89 838.79 576.96 982.08 550.51
00010599 00000011 660.73 131.44 376.56 581.99 802.56 398.54 958.78 366.57 932.67 478.34 840.39 577.98 983.46 551.39
00010600 00000012 660.59 132.85 377.43 580.59 803.60 401.90 961.30 369.46 934.19 482.45 838.52 579.30 984.42 552.66
00010601 00000013 657.75 134.40 380.44 582.03 806.92 407.01 964.53 376.39 936.07 486.54 837.72 582.65 982.19 557.68
00010602 DELETE   659.47 134.00 378.74 583.34 807.63 409.97 965.92 379.60 937.29 489.33 837.00 584.48 982.97 559.93
00010603 00000015 659.69 134.45 378.25 584.74 807.50 409.20 965.30 378.08 937.99 490.18 837.46 585.18 983.15 560.11
00010604 00000016 660.67 134.21 377.89 584.28 806.12 408.87 966.05 377.88 937.55 489.77 837.72 585.20 985.55 560.12
00010605 00000017 660.59 135.15 378.67 582.58 805.37 408.34 965.72 376.58 937.84 487.36 838.69 583.69 987.97 557.84
00010606 00000018 662.37 134.80 376.54 579.40 804.55 406.68 965.06 372.80 937.15 486.29 839.32 582.92 988.19 555.21
00010607 00000019 663.29 133.21 376.26 578.93 805.00 406.11 964.42 370.25 937.94 481.62 844.30 583.79 989.54 554.20
00010608 00000020 663.21 132.80 375.58 583.79 806.10 405.43 963.08 371.06 939.16 480.37 845.65 584.85 989.03 556.53
00010609 00000021 662.88 134.82 376.64 583.74 805.99 406.74 964.49 372.86 938.47 485.16 847.09 589.61 989.08 561.62
00010610 00000022 664.73 141.80 373.11 582.53 807.32 410.60 966.37 376.65 939.18 493.85 849.58 597.92 988.67 570.19
00010611 00000023 664.73 152.55 373.16 578.61 808.30 420.92 966.33 386.62 937.49 506.46 849.89 606.02 988.34 578.17
00010612 00000024 662.73 157.04 377.83 582.75 807.64 427.10 965.71 395.25 934.50 517.97 849.29 613.97 986.23 588.16
00010613 00000025 665.31 158.02 376.74 582.51 809.55 431.15 968.25 401.14 934.54 525.16 850.58 616.48 987.31 592.16
00010614 00000026 665.50 159.77 379.00 585.01 810.91 431.81 970.05 402.45 935.56 526.27 851.05 617.09 989.72 593.33
00010615 00000027 665.24 159.41 382.04 583.56 812.18 430.61 972.97 401.83 938.70 524.95 852.88 616.28 992.27 593.07
00010616 00000028 666.19 160.44 382.12 583.10 812.98 432.07 975.38 402.31 941.13 527.39 851.81 616.61 994.16 592.86
00010617 00000029 670.01 165.00 381.37 583.85 817.49 437.00 979.40 406.31 946.76 532.02 853.21 620.05 998.01 595.67
00010618 00000030 671.64 173.14 382.74 580.49 817.55 433.41 973.84 406.20 943.90 537.02 865.13 616.58 1008.89 593.52
00010619 00000031 674.74 179.79 379.63 583.50 820.86 440.56 974.82 413.21 945.85 545.23 864.28 620.31 1007.93 597.22
00010620 00000032 675.68 183.22 379.42 581.79 821.91 446.54 977.16 417.89 947.77 548.24 865.33 622.47 1009.70 598.30
00010621 00000033 678.40 182.38 377.85 582.47 823.09 450.90 978.74 420.20 948.14 551.14 870.29 626.75 1011.42 600.72
00010622 00000034 680.29 183.40 376.66 582.59 823.42 453.80 978.27 422.35 948.59 552.62 872.41 628.73 1013.21 601.79
00010623 00000035 681.17 184.02 375.59 583.69 824.34 457.44 979.09 424.95 950.30 555.39 875.48 631.87 1014.14 604.03
00010624 00000036 681.76 183.85 375.12 587.32 824.45 458.78 980.70 426.85 950.74 557.08 874.94 633.78 1014.97 606.33
00010625 00000037 682.02 185.86 375.42 586.38 823.64 460.85 981.37 428.67 950.54 558.55 875.58 636.03 1014.84 608.44
00010626 00000038 681.46 187.48 376.45 583.83 823.94 461.03 982.45 429.66 950.54 559.19 874.77 636.02 1014.16 609.17
00010627 00000039 681.45 187.53 376.68 583.94 823.73 461.37 982.77 429.88 951.07 560.00 874.75 636.42 1014.45 609.44
00010628 00000040 681.62 187.90 376.36 583.13 823.95 461.19 982.74 429.70 951.09 560.32 874.92 636.41 1013.88 609.51
00010629 00000041 681.37 187.34 377.04 584.32 824.09 461.80 983.16 429.70 951.91 560.78 875.13 636.91 1014.73 609.45
00010630 00000042 681.86 187.45 376.94 583.64 824.50 462.26 983.10 429.88 951.82 561.08 876.00 637.28 1014.34 609.61
00010631 00000043 682.12 186.37 376.92 584.48 824.61 462.41 983.13 430.20 951.85 561.06 876.12 637.34 1014.36 609.75
00010632 00000044 681.88 187.37 376.87 584.10 824.05 462.00 982.08 429.97 950.95 561.44 875.82 637.20 1013.70 609.86
00010633 00000045 680.72 188.90 377.33 579.45 823.03 461.08 981.01 430.18 948.96 561.79 872.28 634.16 1011.66 607.88
00010634 00000046 680.47 188.78 377.24 577.96 822.89 461.56 982.19 430.38 949.69 561.89 871.92 634.06 1012.15 607.50
00010635 00000047 680.19 188.52 377.05 577.38 822.68 461.30 982.36 430.73 949.20 561.98 871.75 634.84 1010.76 608.90
00010636 00000048 679.60 188.20 377.04 579.44 822.48 461.39 980.87 430.54 948.62 562.88 870.65 633.77 1009.90 607.63
00010637 00000049 678.08 187.94 378.05 580.89 822.27 460.32 979.69 429.20 948.40 561.93 871.79 633.72 1009.46 607.43
00010638 00000050 677.62 187.15 378.29 583.73 821.55 459.33 978.61 429.08 947.44 561.90 869.01 632.61 1009.13 607.02
00010639 00000051 677.90 186.75 377.25 584.65 819.67 458.13 975.93 426.87 945.39 561.49 867.06 630.68 1009.49 604.29
00010640 00000052 676.54 184.95 378.09 590.04 817.09 457.21 974.67 425.64 944.03 562.75 863.49 630.83 1009.40 604.21
00010641 00000053 675.51 185.00 377.70 587.35 816.16 456.17 973.73 424.94 942.79 559.66 862.61 629.81 1007.78 603.59
00010642 00000054 674.51 183.37 377.52 587.75 814.85 454.52 971.64 424.44 939.92 559.14 861.43 627.96 1005.85 602.68
00010643 00000055 673.32 183.27 377.57 585.53 812.80 453.34 970.71 423.76 938.12 557.48 858.90 626.91 1003.93 602.17
00010644 00000056 667.83 182.79 378.13 591.10 813.39 466.34 969.86 426.20 940.79 561.46 843.97 643.52 990.29 610.81
00010645 00000057 667.41 181.52 377.19 590.76 811.50 463.77 968.03 424.89 937.49 559.80 843.47 642.36 989.27 610.49
00010646 00000058 665.44 178.49 376.24 591.39 810.30 461.64 965.73 422.79 935.43 555.39 843.63 641.57 986.60 609.67
00010647 00000059 663.68 174.73 374.96 592.19 808.20 465.00 965.42 423.71 933.35 555.02 840.39 641.61 984.59 607.85
00010648 00000060 661.47 169.29 375.93 589.42 805.40 457.92 966.07 418.50 931.06 545.16 841.59 638.47 983.20 606.40
00010649 DELETE   660.34 163.66 374.01 585.14 800.60 447.00 961.42 410.07 926.34 536.17 841.35 628.75 982.60 598.63
00010650 DELETE   657.55 153.53 373.88 586.14 800.80 434.71 958.30 399.20 924.71 527.51 847.79 621.40 980.14 591.71
00010651 00000063 654.58 152.24 376.05 578.49 799.29 428.31 954.28 386.66 926.45 516.99 850.68 611.90 982.70 577.05
00010652 00000064 654.89 147.86 377.14 577.55 801.45 422.55 952.94 381.07 928.83 505.06 850.86 602.00 983.38 567.51
00010653 00000065 654.31 143.86 377.88 578.65 802.24 420.33 952.31 374.30 933.33 493.01 852.24 597.22 984.91 559.17
00010654 00000066 654.20 143.59 378.82 583.06 803.64 419.83 952.75 373.52 934.44 492.89 852.53 597.59 986.05 559.34
00010655 00000067 653.18 149.78 380.37 578.89 804.43 423.60 956.14 378.43 936.83 502.11 849.39 600.91 986.93 563.98
00010656 00000068 652.10 152.37 382.37 579.99 804.66 427.30 958.85 383.96 936.98 513.34 845.69 605.43 986.92 570.38
00010657 00000069 654.45 156.38 379.07 580.30 804.07 433.58 958.87 390.06 936.25 523.77 844.74 613.04 985.05 578.16
00010658 00000070 656.45 159.81 378.16 578.67 804.63 439.41 960.04 397.99 933.87 529.68 846.48 618.81 984.29 585.70
00010659 00000071 656.07 164.48 380.47 579.42 801.43 445.34 961.62 401.73 933.87 534.35 846.09 626.52 987.20 591.66
00010660 00000072 654.73 171.60 381.62 582.86 798.57 450.65 956.75 402.73 930.70 539.65 848.55 637.38 984.16 598.37
00010661 00000073 655.36 174.60 380.59 584.64 799.47 456.38 957.01 405.63 932.29 543.80 848.47 642.80 984.21 601.38
00010662 00000074 654.54 177.43 379.39 582.40 798.42 460.69 956.07 408.92 931.32 548.51 847.40 644.92 984.04 602.63
00010663 00000075 655.49 180.89 378.41 580.00 799.12 463.90 955.10 414.76 928.97 549.32 849.27 645.85 983.97 605.14
00010664 00000076 655.32 183.63 379.14 581.44 800.04 469.24 955.82 419.51 930.38 554.69 849.54 650.14 984.84 608.62
00010665 00000077 659.02 188.91 374.79 581.14 800.97 477.73 958.14 426.57 932.18 562.45 848.36 654.20 986.93 611.38
00010666 00000078 661.30 194.48 372.90 583.31 804.12 483.90 961.47 431.62 936.73 572.29 846.74 657.62 989.23 614.14
00010667 00000079 661.12 199.32 372.74 583.71 802.62 485.66 960.99 435.02 933.81 577.34 842.90 658.85 987.78 616.64
00010668 00000080 660.82 201.78 372.37 585.01 802.24 486.46 961.99 435.50 934.80 581.13 839.08 659.54 987.71 617.49
00010669 00000081 658.53 196.29 383.12 583.21 800.85 477.08 962.86 431.52 936.13 579.05 833.76 651.85 984.99 615.14
00010670 00000082 660.32 201.84 372.58 582.66 802.02 485.42 961.09 436.45 933.37 580.43 837.60 657.32 985.86 616.83
00010671 00000083 660.28 200.81 372.66 581.71 802.14 484.28 960.81 437.45 931.49 579.40 836.24 655.42 984.20 616.67
00010672 00000084 660.13 199.78 372.56 582.82 801.82 484.26 960.39 436.48 931.82 578.71 836.44 655.11 984.90 615.53
00010673 00000085 658.39 193.42 381.90 586.06 801.15 473.36 963.68 431.02 937.15 576.79 830.58 648.10 983.65 614.11
00010674 00000086 658.46 193.32 381.84 588.18 801.72 473.98 963.28 431.36 936.55 577.86 831.90 649.40 983.74 615.07
00010675 00000087 662.31 199.44 370.45 588.74 802.08 484.01 962.26 435.30 933.86 580.31 835.64 656.63 987.63 616.47
00010676 00000088 662.82 198.99 370.53 589.59 803.20 484.01 963.33 435.08 935.29 580.63 835.82 656.66 988.33 616.43
00010677 00000089 663.25 200.15 371.05 587.98 805.61 484.19 965.07 436.10 936.66 581.93 836.54 656.29 987.91 617.03
00010678 00000090 664.94 200.22 369.01 587.21 806.87 488.84 965.93 440.63 935.35 582.42 835.98 657.94 986.01 618.76
00010679 00000091 666.06 200.03 367.91 587.55 811.55 490.22 967.64 442.44 939.25 582.55 836.95 658.34 984.13 619.88
00010680 00000092 665.84 197.86 368.46 586.87 810.76 488.46 968.20 442.38 938.59 580.47 842.26 659.29 986.79 621.47
00010681 00000093 664.07 196.45 371.16 590.84 811.28 484.64 967.34 439.05 940.17 576.51 844.40 659.84 985.83 622.32
00010682 00000094 665.20 193.90 372.06 593.58 813.30 480.76 968.61 438.01 940.69 574.49 850.32 660.79 988.01 625.20
00010683 00000095 667.05 191.27 373.79 588.76 817.38 478.90 972.44 434.26 945.72 572.97 862.33 663.18 992.73 625.66
00010684 00000096 670.23 189.82 374.53 594.39 821.34 479.77 978.67 432.84 952.57 573.96 869.26 669.58 998.29 630.15
00010685 00000097 672.34 193.02 377.31 594.29 824.82 482.23 983.54 433.35 958.52 574.86 873.70 676.04 1001.35 635.19
00010686 00000098 685.47 198.36 371.88 588.80 831.70 480.61 989.81 441.24 961.27 580.18 887.26 661.94 1017.28 629.63
00010687 00000099 690.96 205.51 374.36 589.81 841.45 490.56 997.89 449.59 967.33 594.09 895.01 674.60 1023.09 641.09
00010688 00000100 689.75 221.06 377.57 585.65 845.76 496.71 1001.44 458.30 974.88 604.57 899.47 694.86 1017.72 662.08
00010689 00000101 697.06 235.35 377.48 586.07 855.18 515.40 1008.33 476.65 980.86 622.25 897.33 701.36 1024.75 668.09
00010690 00000102 701.18 244.17 380.95 588.96 862.92 527.62 1012.28 488.14 983.90 635.27 900.16 710.60 1026.43 677.14
00010691 00000103 704.16 248.08 380.49 590.57 864.56 536.24 1015.23 497.06 985.57 642.79 897.88 713.55 1030.59 680.54
00010692 00000104 702.08 248.85 381.10 587.67 863.08 530.66 1011.90 493.59 982.78 638.01 893.07 706.87 1027.61 675.72
00010693 00000105 695.95 240.07 384.13 587.53 856.83 518.98 1007.99 481.08 979.22 629.75 889.15 696.44 1028.49 664.43
00010694 00000106 690.67 228.32 382.32 590.80 849.17 508.04 1002.04 471.87 974.55 619.24 881.45 686.65 1023.25 656.55
00010695 00000107 689.44 213.66 382.34 595.63 839.49 495.11 1001.21 461.84 965.34 605.00 873.59 671.32 1020.77 643.29
00010696 00000108 686.62 204.60 379.56 592.24 835.07 486.54 997.65 452.56 961.93 591.91 870.54 660.72 1016.55 632.75
00010697 00000109 682.07 200.40 379.53 590.39 829.38 480.30 994.99 447.69 960.71 584.32 866.10 655.13 1012.71 628.58
00010698 00000110 679.82 199.71 377.06 590.31 826.43 480.24 991.06 447.68 957.11 584.25 864.49 654.30 1010.48 627.99
00010699 00000111 677.99 198.87 374.14 593.79 824.20 481.55 986.17 449.19 952.77 587.87 864.39 656.17 1006.47 630.50
00010700 00000112 670.77 205.02 380.48 582.97 823.14 486.90 985.29 451.51 953.72 597.11 847.26 668.18 994.78 640.56
00010701 00000113 667.51 201.03 383.51 589.43 819.11 485.33 983.16 448.90 951.78 598.29 841.61 664.70 994.79 636.17
00010702 00000114 663.02 198.08 385.77 587.33 812.78 479.95 979.04 442.98 948.04 591.92 834.65 657.78 990.34 628.83
00010703 00000115 667.72 199.79 371.25 587.36 811.07 484.73 971.52 439.92 942.03 586.19 836.98 656.52 989.60 620.60
00010704 00000116 664.10 197.21 372.58 587.12 810.52 480.45 969.04 434.76 942.91 581.99 833.79 649.70 988.30 613.16
00010705 00000117 662.35 190.21 372.42 586.52 809.36 475.95 965.45 432.75 938.04 575.20 836.44 648.02 984.08 613.00
00010706 00000118 662.12 190.19 372.61 581.52 807.96 474.11 964.01 430.92 935.91 571.76 836.34 644.64 983.62 609.60
00010707 00000119 662.84 188.63 372.50 582.28 807.76 472.77 963.31 430.03 934.35 570.64 837.11 644.32 983.49 609.49
00010708 00000120 662.46 188.37 372.82 582.01 807.34 472.62 962.94 429.40 934.41 570.37 836.75 643.81 983.51 608.67
00010709 00000121 663.03 189.53 371.28 581.49 806.99 471.99 961.69 428.98 933.38 569.58 835.50 642.67 982.42 607.79
00010710 00000122 661.56 186.90 371.04 581.86 804.77 471.49 959.88 428.49 929.96 568.20 835.04 642.18 981.02 607.08
00010711 00000123 661.07 189.80 368.16 581.13 803.73 474.68 957.52 433.41 925.33 571.15 830.16 642.13 977.08 608.40
00010712 00000124 656.56 187.86 368.32 577.70 798.98 477.07 950.34 437.32 915.52 570.01 824.32 640.14 967.56 607.91
00010713 00000125 648.75 186.99 369.94 577.08 788.98 476.51 944.91 440.50 903.63 571.57 816.62 639.23 960.56 609.45
00010714 DELETE   640.98 181.14 373.42 580.95 775.21 472.96 936.24 442.47 887.60 571.40 809.74 640.59 952.02 614.38
00010715 DELETE   634.62 176.21 377.80 590.15 765.88 470.23 926.71 444.65 875.45 577.19 800.82 640.32 943.05 617.63
00010716 DELETE   630.31 181.64 377.37 589.69 756.88 468.56 915.23 445.57 862.81 577.06 791.62 634.11 939.44 613.68
00010717 00000129 625.70 184.18 380.52 585.33 744.24 466.22 907.99 446.53 847.96 577.07 780.54 631.11 933.48 613.27
00010718 00000130 623.15 182.68 380.60 584.65 736.70 467.03 901.82 448.52 838.84 580.27 773.19 630.38 928.99 613.61
00010719 00000131 622.91 183.45 378.11 583.01 731.85 468.13 897.38 450.61 832.53 578.09 768.70 632.20 921.98 616.25
00010720 00000132 619.23 183.28 379.39 585.63 726.64 468.88 891.69 451.14 827.15 577.73 763.10 631.09 917.63 615.09
00010721 00000133 616.60 181.67 380.15 588.41 723.20 468.80 887.17 450.82 823.93 578.65 761.19 631.14 914.35 615.21
00010722 00000134 614.32 182.85 379.94 588.67 719.41 469.20 883.50 451.73 819.96 579.22 757.18 630.88 910.85 615.60
00010723 00000135 612.45 182.98 379.35 589.22 717.87 470.10 880.60 452.70 818.39 578.12 757.06 630.20 908.85 615.01
00010724 00000136 608.30 192.86 373.72 588.23 713.55 477.02 870.39 448.48 809.37 587.07 746.66 642.17 894.89 618.68
00010725 00000137 603.56 189.75 375.90 590.80 709.31 478.97 868.09 449.50 805.89 588.33 743.27 642.84 893.83 618.34
00010726 00000138 600.88 185.73 377.54 593.91 705.03 477.53 866.37 448.14 802.42 587.84 742.29 644.51 892.02 619.67
00010727 00000139 594.19 186.96 381.86 585.42 698.53 477.49 864.22 448.94 796.74 588.89 743.25 651.73 884.44 627.52
00010728 00000140 590.44 183.32 384.55 585.68 695.21 477.00 861.94 447.32 794.16 586.69 748.31 657.26 883.39 631.58
00010729 00000141 586.81 182.73 386.41 583.35 692.23 475.78 860.68 445.76 792.70 585.13 749.74 658.67 882.60 632.79
00010730 00000142 585.30 183.39 386.89 584.81 690.29 476.45 859.21 444.99 791.40 582.88 748.69 660.12 881.97 633.17
00010731 00000143 583.81 183.39 387.25 586.31 689.14 477.54 857.52 445.47 790.82 582.71 750.41 661.31 881.97 633.86
00010732 00000144 582.68 183.27 387.87 588.30 687.25 479.39 854.88 445.71 789.49 582.45 748.91 660.13 882.30 631.30
00010733 00000145 581.88 183.43 387.90 591.25 685.19 480.10 852.89 445.54 788.69 581.40 747.83 659.37 884.09 629.58
00010734 00000146 581.72 186.61 386.36 593.24 683.55 480.03 852.50 446.01 786.51 582.52 743.02 658.72 884.21 629.25
00010735 00000147 580.99 190.40 385.93 591.03 683.53 482.20 851.36 447.63 786.44 583.94 742.40 659.78 883.91 629.93
00010736 00000148 580.03 189.13 385.67 594.86 681.86 483.04 849.89 448.52 784.87 583.93 739.26 660.17 883.28 630.25
00010737 00000149 577.37 189.25 387.40 597.57 681.20 485.61 848.87 449.74 785.46 584.72 738.98 661.74 883.24 630.71
00010738 00000150 577.44 189.02 386.31 598.53 680.34 486.73 847.43 450.98 784.74 587.21 741.02 664.45 883.12 633.54
00010739 00000151 577.10 193.28 384.58 591.38 678.43 488.35 846.01 454.08 782.85 590.97 742.61 668.75 879.08 639.59
00010740 00000152 576.27 196.87 382.94 585.64 678.69 488.96 845.41 457.14 782.17 592.84 744.55 673.74 873.89 647.14
00010741 00000153 575.67 199.15 381.77 581.98 678.37 489.61 844.37 458.78 780.91 592.89 743.81 673.54 872.19 647.83
00010742 00000154 574.64 196.01 382.69 584.44 676.91 489.72 843.03 459.12 779.10 593.05 743.77 672.27 872.58 646.43
00010743 00000155 572.77 196.92 384.27 584.95 678.13 492.09 841.55 461.66 779.62 593.45 741.56 669.32 872.35 643.21
00010744 00000156 572.08 199.13 384.07 583.84 675.84 494.71 842.66 460.44 779.33 592.10 737.40 666.22 875.78 637.07
00010745 00000157 569.47 200.66 385.10 583.94 674.00 494.80 842.05 461.24 778.27 592.99 731.36 664.01 874.08 635.30
00010746 00000158 569.22 203.72 384.88 582.63 673.56 497.83 840.92 463.65 778.50 595.34 730.51 666.05 874.56 636.69
00010747 00000159 567.75 203.05 385.69 583.76 671.36 499.31 838.58 463.83 777.07 595.33 728.98 665.54 875.49 634.75
00010748 00000160 567.75 202.27 384.91 583.95 670.66 500.16 836.66 464.91 775.66 595.23 730.84 666.24 874.99 635.65
00010749 00000161 564.29 200.96 387.25 584.47 669.02 500.37 836.22 464.32 775.70 594.91 731.15 665.70 876.18 634.16
00010750 00000162 563.48 199.90 387.42 585.89 669.24 498.64 834.79 463.64 775.06 593.52 731.19 665.25 874.00 634.69
00010751 00000163 564.84 199.27 385.56 581.78 668.89 496.53 835.40 465.06 773.58 591.61 733.40 667.82 870.86 640.30
00010752 00000164 565.15 198.56 384.65 581.89 669.77 494.78 835.66 465.92 773.25 590.32 732.25 668.15 866.84 643.09
00010753 00000165 566.34 197.84 383.50 584.77 670.34 494.95 835.88 464.32 775.02 590.40 732.56 668.09 869.19 641.53
00010754 00000166 567.23 195.73 383.41 591.78 673.20 494.32 837.77 461.05 779.32 589.69 732.76 667.54 872.54 639.01
00010755 00000167 569.14 192.85 383.61 598.96 678.08 493.24 840.82 458.59 784.97 590.68 736.02 668.93 874.87 639.32
00010756 00000168 571.84 193.36 383.17 600.03 682.86 492.09 847.13 457.30 791.62 589.32 735.70 667.22 878.15 637.45
00010757 00000169 575.66 195.94 380.63 598.36 689.77 490.35 853.58 457.14 799.52 585.92 737.74 665.39 879.97 637.25
00010758 00000170 582.15 196.84 377.67 599.98 695.73 488.07 857.74 454.43 804.45 588.08 741.00 666.27 881.00 638.13
