Video ID: 	A0rXQuow4CE
H: 	1080
W: 	1920
FPS: 	25.0

FRAME INDEX X0 Y0 W H [Landmarks (5 Points)]

00001376 00000000 573.81 112.31 433.75 572.60 662.63 297.63 882.94 302.70 723.88 351.40 643.52 516.31 841.04 521.96
00001377 00000001 573.80 119.01 429.83 563.13 661.58 303.34 878.62 303.90 719.85 349.33 641.68 517.24 837.65 519.69
00001378 DELETE   569.11 120.60 432.03 556.56 661.19 297.45 879.12 305.05 716.26 350.39 636.97 513.56 829.49 521.21
00001379 00000003 569.00 118.13 431.02 556.29 660.85 293.06 874.44 302.35 713.38 349.86 633.82 510.35 822.49 519.60
00001380 00000004 569.35 118.23 430.85 550.73 661.87 292.95 875.74 302.96 713.41 347.76 632.97 508.96 820.60 518.90
00001381 00000005 569.11 118.34 432.84 552.31 661.37 292.58 875.21 303.35 711.43 347.50 631.18 508.20 820.27 518.76
00001382 00000006 569.80 117.54 433.69 553.86 663.00 292.25 877.29 304.00 713.01 346.94 632.15 508.35 820.56 519.71
00001383 00000007 570.53 121.49 434.12 548.67 666.62 295.75 879.68 306.41 712.08 348.48 633.84 507.83 821.77 518.14
00001384 00000008 571.55 119.61 434.64 553.04 668.10 295.61 882.94 306.08 714.03 346.75 634.17 510.04 822.06 520.36
00001385 00000009 575.20 115.43 434.32 556.77 672.56 292.17 887.43 303.55 715.98 342.51 635.04 509.50 820.95 521.20
00001386 00000010 577.70 110.86 446.62 567.23 673.01 290.67 894.58 302.53 723.75 339.90 638.06 512.77 829.41 523.30
00001387 00000011 589.85 114.79 444.62 571.56 684.57 296.91 890.60 301.29 728.37 344.25 643.69 512.26 823.16 516.25
00001388 00000012 594.59 115.19 444.12 571.86 690.50 292.91 896.81 305.29 736.60 344.96 650.43 511.75 832.37 522.54
00001389 DELETE   600.70 110.98 447.51 576.87 696.82 291.57 908.12 306.42 743.77 343.50 652.18 512.44 838.97 525.56
00001390 00000014 603.60 100.14 454.44 585.14 702.70 290.27 918.00 308.21 750.35 343.65 658.18 512.23 847.72 528.10
00001391 00000015 608.53 102.56 458.20 582.69 708.64 290.40 928.23 310.47 756.85 343.99 662.36 516.46 857.38 533.65
00001392 00000016 612.90 99.82 460.67 589.14 714.09 288.62 936.92 309.75 765.37 344.53 669.31 515.68 864.45 533.55
00001393 00000017 625.95 108.80 449.09 575.44 722.70 280.39 942.79 300.87 763.28 345.41 678.68 511.26 872.09 529.90
00001394 00000018 628.90 105.95 449.96 578.05 727.43 277.82 948.00 301.07 767.10 346.09 680.49 509.35 872.88 530.66
00001395 00000019 634.02 104.30 450.53 577.93 732.68 277.44 952.77 303.23 771.31 346.92 684.25 508.86 873.54 532.49
00001396 00000020 633.29 105.61 453.19 579.42 733.73 275.90 957.31 302.02 775.65 345.52 684.77 508.45 878.84 532.37
00001397 00000021 633.62 100.59 460.69 589.58 736.14 273.88 963.40 301.85 777.67 345.83 685.46 509.06 884.12 534.37
00001398 00000022 635.26 98.69 464.63 591.98 737.45 273.54 968.14 302.44 780.69 345.46 686.96 510.03 885.61 536.25
00001399 00000023 637.34 94.91 468.57 599.48 740.62 272.45 974.42 303.02 785.57 346.45 688.99 511.34 889.63 538.84
00001400 00000024 641.35 92.07 465.57 598.72 743.47 272.63 977.39 301.50 791.55 346.21 694.90 512.00 893.70 537.99
00001401 00000025 643.85 91.95 474.81 607.10 755.44 279.53 971.49 304.02 805.97 343.66 705.32 513.01 892.98 534.10
00001402 00000026 647.61 92.30 475.28 611.22 757.59 279.00 975.23 302.50 807.33 345.96 708.52 514.38 894.71 534.63
00001403 00000027 649.44 90.45 476.28 613.80 758.90 278.96 978.61 302.38 809.86 345.65 709.52 515.73 898.64 536.14
00001404 00000028 651.37 88.91 478.96 613.14 759.19 279.14 980.23 304.02 807.84 346.48 707.98 514.55 898.82 536.08
00001405 00000029 653.15 87.32 479.55 613.27 760.87 279.01 982.86 308.10 810.10 348.82 709.19 514.60 900.19 539.42
00001406 00000030 658.46 94.42 469.11 603.42 763.81 273.20 989.91 300.19 810.12 345.49 716.39 510.57 912.81 534.24
00001407 00000031 664.31 91.26 465.56 606.76 765.98 273.30 993.66 301.75 813.13 347.73 720.53 512.32 916.75 537.16
00001408 00000032 666.52 92.11 467.54 606.29 770.16 273.84 998.13 305.52 819.67 349.75 724.09 514.74 917.95 542.07
00001409 00000033 668.66 92.19 468.36 605.19 772.54 273.45 1002.42 305.48 823.12 350.70 726.67 514.57 921.89 542.33
00001410 00000034 672.61 94.29 467.96 604.48 773.37 272.03 1006.11 304.41 826.21 350.33 728.39 515.16 926.42 543.41
00001411 00000035 675.41 95.53 465.50 602.82 776.39 273.21 1008.13 306.99 830.57 354.74 732.25 516.11 930.01 545.29
00001412 00000036 680.72 95.61 461.69 606.03 778.50 275.20 1007.89 307.73 832.87 358.25 736.56 519.56 930.48 547.67
00001413 00000037 683.75 100.64 460.58 603.97 779.42 279.07 1009.45 309.92 835.39 361.34 739.41 522.14 934.48 548.68
00001414 00000038 687.90 102.06 457.41 600.83 780.80 282.95 1012.45 314.49 839.91 364.07 742.58 523.98 937.62 550.69
00001415 00000039 687.20 109.07 459.31 595.81 782.62 286.04 1014.15 318.09 841.63 369.41 744.73 527.60 938.25 554.63
00001416 00000040 691.77 114.75 456.76 592.95 784.12 288.41 1016.16 318.50 844.19 374.16 747.52 531.65 941.11 557.39
00001417 00000041 692.16 121.28 457.94 590.70 786.83 291.89 1016.07 324.39 844.50 382.97 748.01 533.24 939.95 560.68
00001418 00000042 692.61 119.26 458.50 596.80 786.04 295.53 1014.97 327.72 842.42 386.80 746.67 537.39 938.39 564.56
00001419 00000043 691.21 122.35 458.16 595.45 787.04 299.37 1014.83 331.18 843.18 390.12 746.86 541.06 938.00 567.84
00001420 00000044 691.82 122.90 457.28 595.18 787.36 299.69 1014.27 331.08 842.35 390.71 746.87 540.83 938.36 567.22
00001421 00000045 691.84 123.10 456.76 593.79 788.20 300.17 1013.74 331.88 842.40 391.53 747.57 540.27 937.11 566.95
00001422 00000046 691.89 124.54 456.20 590.88 789.02 299.61 1013.74 332.32 841.93 391.51 747.26 538.37 935.92 565.88
00001423 00000047 691.09 125.36 455.74 589.73 787.95 299.55 1013.11 331.93 842.02 390.73 746.79 538.54 935.85 565.78
00001424 00000048 691.18 126.02 456.07 588.79 786.61 298.97 1012.92 331.16 841.08 389.91 745.99 537.64 937.45 564.55
00001425 00000049 690.93 125.98 455.54 588.05 784.58 296.95 1011.12 328.95 839.08 389.74 745.13 536.04 936.34 562.92
00001426 00000050 691.13 126.69 454.26 584.29 783.91 295.32 1011.78 327.14 840.74 386.98 745.13 535.50 936.61 562.20
00001427 00000051 690.01 125.42 450.26 582.20 782.47 291.99 1008.58 324.20 839.73 386.21 744.93 532.62 934.07 559.90
00001428 00000052 691.19 124.49 449.07 580.53 782.17 290.53 1008.16 322.93 840.22 385.33 744.89 531.47 933.00 558.94
00001429 00000053 690.95 122.94 448.25 583.01 781.63 289.59 1007.18 322.14 840.88 384.27 745.40 530.94 933.93 558.52
00001430 00000054 692.19 122.58 447.30 583.12 781.13 290.20 1007.32 322.18 841.31 383.96 745.93 530.58 936.15 557.64
00001431 00000055 690.15 121.52 449.19 585.62 780.53 290.66 1006.83 322.43 841.80 383.93 745.83 531.23 937.97 558.09
00001432 00000056 690.58 121.67 449.28 586.39 780.41 291.54 1006.19 323.29 842.35 384.48 745.83 530.54 938.12 557.30
00001433 00000057 690.56 122.60 446.49 584.23 781.40 291.35 1006.41 324.30 845.77 385.16 746.46 529.04 939.34 556.65
00001434 00000058 691.40 121.83 447.96 583.34 781.63 290.79 1006.09 323.81 847.65 385.66 747.92 527.38 940.51 554.77
00001435 00000059 691.52 122.26 448.07 583.95 783.04 289.57 1005.84 324.06 848.49 388.06 747.26 527.42 937.05 556.20
00001436 00000060 691.17 120.11 449.09 584.18 782.92 288.23 1004.56 322.15 847.45 385.73 747.70 526.31 935.27 554.73
00001437 00000061 691.31 118.81 449.12 584.71 782.89 289.02 1004.28 322.47 848.58 384.67 747.77 526.10 935.67 554.19
00001438 00000062 689.49 120.30 449.11 582.34 782.74 289.24 1004.52 323.85 848.76 386.62 746.70 526.19 933.72 555.17
00001439 00000063 689.75 120.96 448.67 581.21 782.72 288.55 1004.30 323.01 848.60 388.21 746.52 526.35 933.22 555.16
00001440 00000064 689.94 119.39 448.37 582.81 781.73 288.95 1003.59 322.97 846.94 388.44 746.20 526.59 933.94 555.10
00001441 00000065 688.76 117.54 448.53 585.42 779.07 289.08 1001.95 322.65 844.90 386.37 744.81 527.97 933.90 556.15
00001442 00000066 686.75 115.92 449.81 587.00 777.53 288.89 999.52 321.64 842.79 384.96 743.82 527.74 932.64 555.28
00001443 00000067 685.93 117.02 448.46 584.38 776.30 288.92 997.60 321.59 841.30 384.11 742.83 526.83 931.04 554.37
00001444 00000068 685.74 113.36 446.59 586.09 776.23 287.63 996.44 322.13 842.72 383.25 741.54 525.10 929.71 554.12
00001445 00000069 685.35 114.06 444.30 585.95 775.74 288.29 995.41 322.79 841.90 382.90 740.64 525.05 928.47 554.16
00001446 00000070 683.66 116.16 446.61 584.86 774.55 289.75 994.71 324.94 837.97 387.62 738.87 526.48 926.32 556.04
00001447 00000071 680.79 122.30 449.21 586.75 771.82 294.71 993.39 329.41 831.75 396.81 733.76 532.46 923.80 561.37
00001448 00000072 677.56 121.33 451.18 586.62 768.57 295.68 989.11 328.03 827.46 397.16 731.80 533.30 919.72 560.23
00001449 00000073 677.43 118.69 445.51 584.42 767.20 292.88 985.40 323.79 828.13 390.91 730.87 529.03 916.04 555.12
00001450 00000074 676.01 116.63 444.23 584.36 765.91 291.86 983.13 320.75 825.94 383.72 729.24 527.42 914.95 551.94
00001451 00000075 668.31 107.18 455.30 595.30 765.32 297.61 981.99 333.56 827.46 380.29 720.60 533.26 910.95 563.59
00001452 00000076 671.86 118.50 446.29 584.83 764.54 292.99 981.92 322.77 825.99 389.46 730.03 529.74 915.61 554.65
00001453 00000077 669.09 118.97 446.57 587.45 761.28 294.67 978.77 323.59 822.31 391.11 726.71 530.64 913.03 555.04
00001454 00000078 666.31 119.77 446.07 586.89 757.72 295.26 975.99 322.84 820.55 386.72 724.08 531.01 910.31 554.32
00001455 00000079 665.25 116.75 446.70 589.77 755.72 292.85 974.09 321.02 817.69 385.15 721.42 529.60 908.14 553.56
00001456 00000080 658.17 110.79 452.82 600.83 754.25 298.65 968.74 331.74 819.25 379.94 716.04 535.21 904.66 563.42
00001457 00000081 658.26 109.81 452.96 602.40 754.07 298.73 968.79 330.86 820.19 378.76 716.50 535.42 904.38 562.89
00001458 00000082 657.65 109.90 454.01 604.10 755.63 298.18 970.27 331.43 822.27 379.54 717.22 535.50 904.51 563.74
00001459 00000083 663.24 119.04 446.21 588.81 757.15 293.00 974.81 321.41 822.69 384.52 724.02 530.40 909.87 554.39
00001460 00000084 662.96 121.40 445.51 591.12 757.01 293.64 974.74 322.52 821.89 386.40 722.91 531.37 910.50 555.79
00001461 00000085 661.97 118.89 446.31 597.44 757.39 293.31 974.91 323.09 821.06 386.83 721.83 531.68 910.63 556.90
00001462 00000086 662.79 119.79 445.57 594.36 757.34 293.85 974.35 323.16 821.93 387.43 722.85 531.33 911.42 556.12
00001463 00000087 663.63 120.36 444.62 590.90 757.88 294.61 975.80 323.86 823.38 388.54 722.99 532.49 911.45 557.12
00001464 00000088 665.37 121.27 443.00 589.27 758.54 294.04 976.16 323.45 824.52 388.72 724.24 531.83 912.62 556.55
00001465 00000089 665.23 121.40 442.47 584.44 758.93 293.88 976.21 323.27 826.34 388.47 724.82 530.65 912.04 555.27
00001466 00000090 664.79 121.59 442.91 584.11 758.88 294.51 976.43 323.24 826.22 387.72 724.99 531.29 912.11 555.37
00001467 00000091 658.13 113.52 448.60 593.94 757.52 299.13 971.42 336.01 826.49 382.93 716.21 536.60 908.68 567.73
00001468 00000092 664.22 121.23 443.72 585.70 757.03 296.21 974.58 324.13 823.95 387.19 724.25 531.75 912.02 555.21
00001469 00000093 663.78 120.26 441.76 585.14 756.46 296.56 973.20 323.94 823.96 385.93 723.19 531.67 909.68 554.57
00001470 00000094 664.08 118.93 442.50 586.31 756.77 297.03 973.83 323.39 824.18 385.90 724.11 531.05 911.81 553.20
00001471 00000095 665.52 119.02 440.87 587.56 758.49 296.01 975.87 323.11 825.98 385.60 724.52 531.01 912.65 553.82
00001472 00000096 666.10 117.93 441.82 590.28 758.78 296.72 976.16 322.84 824.26 385.55 725.31 531.68 913.55 553.77
00001473 00000097 665.69 119.62 442.03 590.37 759.68 297.30 976.79 323.11 824.58 387.18 725.81 532.41 913.90 554.25
00001474 00000098 665.60 120.97 442.60 590.30 760.01 297.34 977.55 323.27 825.38 389.08 726.29 533.53 914.54 555.49
00001475 00000099 665.48 120.27 442.19 591.13 759.40 297.51 977.18 323.10 824.92 389.11 726.37 533.70 914.49 555.38
00001476 00000100 663.72 119.58 442.45 591.83 758.90 298.74 976.40 323.83 824.15 390.14 726.54 534.00 914.16 555.23
00001477 00000101 663.41 119.70 441.05 591.29 758.29 298.01 974.51 323.20 823.09 389.76 726.33 532.74 913.32 554.06
00001478 00000102 663.23 121.65 439.43 587.43 756.69 297.84 973.78 322.71 823.77 387.99 726.22 532.94 913.87 553.81
00001479 00000103 663.58 118.10 438.23 591.10 756.68 298.57 973.74 323.43 824.48 387.82 726.61 533.36 914.01 554.34
00001480 00000104 657.83 114.07 442.59 600.40 757.29 300.22 969.95 333.18 827.79 383.62 720.27 538.14 908.87 566.32
00001481 00000105 658.13 111.20 443.18 598.90 747.85 307.92 977.49 336.60 817.02 391.57 718.94 541.51 913.31 567.81
00001482 00000106 654.61 109.58 445.48 601.74 745.15 308.04 975.70 338.10 814.40 391.33 714.89 542.45 911.24 569.88
00001483 00000107 653.27 112.60 446.39 602.85 744.25 308.67 975.03 338.43 813.88 391.46 714.16 542.49 911.70 569.61
00001484 00000108 652.33 113.44 444.69 597.49 742.84 306.93 973.09 338.10 811.23 391.51 711.51 541.17 907.53 569.32
00001485 00000109 650.08 112.43 442.46 593.54 740.00 305.86 970.16 337.77 809.77 391.43 708.14 541.53 904.27 569.98
00001486 00000110 648.05 112.50 442.57 597.27 738.07 306.38 968.04 335.30 810.81 389.08 709.70 541.75 906.31 568.15
00001487 00000111 645.96 110.84 441.89 594.51 735.88 304.39 967.19 333.34 809.05 385.57 705.41 541.27 905.12 567.64
00001488 00000112 645.61 111.71 440.11 593.76 736.23 303.21 964.39 332.55 809.01 386.02 706.13 540.66 900.93 567.25
00001489 00000113 643.22 110.00 440.21 598.20 734.65 302.00 958.40 328.99 805.83 385.28 708.31 537.93 893.49 562.59
00001490 00000114 643.65 114.99 437.40 597.21 735.03 302.61 952.30 328.59 803.09 386.96 711.13 538.39 889.22 561.80
00001491 00000115 645.66 116.72 432.37 589.69 732.61 304.59 948.16 329.22 798.12 390.13 710.46 541.11 885.55 563.66
00001492 00000116 646.10 118.48 427.11 585.63 731.83 306.02 944.26 329.76 797.79 393.72 713.11 541.25 884.02 562.85
00001493 00000117 645.13 116.03 422.20 585.25 729.34 306.32 942.54 332.31 798.68 398.14 711.85 541.23 884.02 564.56
00001494 00000118 643.03 120.98 420.14 582.03 726.87 307.46 939.42 332.11 797.21 399.55 712.05 542.94 883.47 564.81
00001495 00000119 642.79 124.08 418.30 579.97 724.44 311.02 933.80 331.91 793.05 400.13 713.51 545.43 879.14 564.16
00001496 00000120 642.77 125.24 411.18 579.76 718.90 316.77 926.76 335.77 786.46 405.30 710.50 547.82 877.41 564.87
CROP_BBOX: 285 0 1310 927
