Video ID: 	euanLFRR1rI
H: 	1080
W: 	1920
FPS: 	29.97002997002997

FRAME INDEX X0 Y0 W H [Landmarks (5 Points)]

00001132 00000000 1003.95 185.99 337.11 499.62 1067.94 390.01 1229.25 385.75 1133.22 460.49 1083.07 562.69 1225.95 560.12
00001133 00000001 1003.80 189.28 335.51 500.18 1069.24 391.40 1229.86 387.29 1136.63 462.28 1081.78 562.15 1228.85 559.67
00001134 00000002 1004.42 190.94 334.97 500.67 1070.39 392.24 1230.70 387.11 1139.69 463.63 1082.75 559.86 1234.48 555.97
00001135 00000003 1005.44 195.68 335.17 500.66 1072.72 394.79 1232.58 388.56 1143.89 463.55 1084.12 559.94 1239.19 554.81
00001136 DELETE   1006.87 198.99 335.73 498.90 1077.55 402.04 1236.11 395.19 1146.66 464.81 1084.76 560.02 1242.07 554.21
00001137 DELETE   1008.74 203.90 333.80 491.88 1078.54 409.24 1235.70 400.07 1147.03 468.35 1086.70 563.02 1243.23 555.21
00001138 DELETE   1010.90 206.06 333.95 488.08 1083.82 414.14 1236.89 399.24 1150.12 467.52 1089.82 568.84 1244.04 556.84
00001139 00000007 1013.37 206.35 331.83 488.42 1084.63 412.26 1236.45 398.32 1149.73 467.80 1095.37 573.05 1237.47 562.93
00001140 00000008 1012.08 199.95 335.11 496.03 1082.96 409.51 1236.41 397.21 1150.12 469.31 1100.55 576.60 1230.54 568.37
00001141 DELETE   1011.94 196.51 334.11 497.30 1082.78 405.84 1238.08 397.11 1150.47 470.37 1100.45 577.53 1227.97 572.37
00001142 00000010 1012.66 197.56 333.06 497.95 1083.04 402.67 1237.09 395.51 1150.49 470.98 1102.49 576.79 1226.41 572.84
00001143 00000011 1011.26 195.21 335.40 502.04 1082.71 399.35 1237.07 392.63 1151.08 468.69 1103.64 576.14 1226.06 572.58
00001144 00000012 1011.52 195.10 336.32 505.58 1083.02 397.00 1237.49 390.23 1150.23 466.10 1103.25 576.09 1226.06 572.45
00001145 00000013 1013.30 196.38 333.88 503.71 1083.99 396.41 1238.72 389.65 1149.85 466.70 1101.35 574.18 1229.63 570.59
00001146 00000014 1012.82 195.43 334.34 501.30 1083.52 396.84 1239.03 390.54 1148.76 467.20 1098.65 572.45 1231.02 569.03
00001147 00000015 1012.45 195.92 333.33 500.01 1082.51 397.52 1238.17 392.54 1147.78 469.19 1095.61 571.85 1230.91 569.46
00001148 00000016 1011.15 197.64 334.98 500.64 1080.30 399.50 1237.46 394.86 1147.00 471.83 1092.82 573.64 1231.14 571.53
00001149 00000017 1009.94 205.98 332.96 494.39 1077.84 404.15 1234.86 400.05 1145.27 476.76 1090.73 576.40 1229.41 574.78
00001150 00000018 1007.00 205.56 330.37 494.55 1073.60 412.54 1228.26 408.19 1138.40 484.54 1085.78 578.38 1225.01 576.58
00001151 00000019 1002.40 214.50 331.47 487.68 1064.94 415.93 1220.01 409.13 1128.24 490.71 1081.33 583.63 1217.21 579.78
00001152 00000020 996.24 218.35 334.73 486.32 1060.19 421.95 1214.10 413.11 1122.70 496.44 1081.53 589.03 1212.99 583.70
00001153 00000021 995.54 216.64 334.43 487.80 1060.66 424.55 1213.07 414.54 1123.05 497.79 1084.11 590.75 1212.82 584.40
00001154 00000022 996.56 215.41 333.82 490.48 1063.23 425.60 1215.99 415.89 1126.66 497.09 1085.00 590.11 1216.57 583.95
00001155 00000023 1002.75 216.86 326.52 487.76 1066.10 425.32 1220.49 416.42 1129.99 491.26 1084.65 588.28 1218.21 582.56
00001156 00000024 1005.48 216.82 323.85 486.31 1068.77 426.79 1223.74 415.81 1133.61 486.91 1084.36 585.31 1223.93 577.46
00001157 DELETE   1006.71 209.19 325.00 489.42 1071.14 421.55 1225.27 411.61 1135.31 484.34 1085.03 580.81 1224.88 573.95
00001158 DELETE   1006.63 202.50 328.71 493.78 1074.26 414.24 1227.86 407.70 1138.21 483.24 1086.71 576.89 1225.18 573.28
00001159 00000027 1006.62 203.03 330.79 492.32 1075.09 411.04 1228.68 405.37 1142.09 483.14 1090.48 576.54 1225.45 573.55
00001160 00000028 1007.39 204.98 333.29 492.05 1076.09 407.12 1230.18 400.55 1143.84 480.72 1096.57 578.31 1225.37 574.51
00001161 00000029 1007.74 202.64 332.54 494.93 1075.07 402.91 1233.53 396.51 1146.60 479.04 1098.67 581.28 1226.14 577.52
00001162 00000030 1010.01 208.80 332.28 493.14 1075.71 400.81 1235.79 393.83 1147.63 479.15 1100.06 582.86 1228.21 578.54
00001163 00000031 1011.87 203.25 331.04 501.02 1077.78 401.12 1238.03 394.43 1149.96 480.00 1102.38 584.18 1231.25 579.94
00001164 00000032 1013.58 201.34 329.89 500.53 1079.81 405.85 1239.01 398.23 1151.72 484.43 1103.38 584.46 1235.17 579.60
00001165 00000033 1014.30 203.75 329.21 498.30 1080.40 410.68 1240.92 402.35 1154.48 488.72 1103.79 587.66 1238.66 582.41
00001166 00000034 1015.40 218.41 329.52 489.12 1080.52 415.55 1241.62 407.07 1155.18 494.70 1104.89 591.73 1239.23 586.52
00001167 00000035 1015.86 221.94 327.25 493.35 1078.63 419.03 1240.83 409.01 1154.60 499.31 1104.48 595.94 1241.22 589.28
00001168 00000036 1014.93 216.53 327.76 499.04 1075.37 421.94 1236.99 412.24 1150.52 501.93 1101.68 597.10 1237.02 590.71
00001169 00000037 1012.00 213.42 326.82 501.22 1071.74 423.29 1233.28 413.46 1145.84 503.11 1096.98 596.67 1234.66 590.35
00001170 00000038 1006.77 218.84 328.83 496.95 1066.43 419.34 1228.11 411.20 1136.90 501.76 1088.97 593.66 1230.20 588.17
00001171 00000039 999.73 225.59 333.84 485.09 1061.30 414.58 1221.72 407.50 1128.71 497.64 1081.77 589.11 1222.20 584.35
00001172 00000040 994.83 212.31 334.40 495.31 1054.44 411.10 1214.87 404.47 1118.93 493.14 1073.70 585.36 1213.85 580.92
00001173 00000041 991.82 210.20 334.52 493.56 1050.38 410.21 1211.04 403.32 1112.87 490.01 1069.81 582.05 1210.25 577.61
00001174 00000042 992.05 201.39 332.24 501.13 1049.35 409.10 1210.30 400.69 1112.58 487.09 1070.42 580.96 1210.70 575.29
00001175 00000043 993.85 199.46 332.51 499.17 1051.59 408.45 1211.20 400.31 1113.80 486.13 1072.49 579.84 1211.29 574.36
00001176 00000044 997.09 199.90 331.63 494.04 1054.62 404.65 1214.83 396.80 1117.90 484.99 1076.31 580.36 1214.82 574.92
00001177 00000045 1000.69 202.22 332.61 491.37 1058.27 403.44 1217.22 394.62 1121.56 482.54 1080.93 580.19 1216.87 574.17
00001178 00000046 1003.74 210.37 329.53 481.69 1061.01 402.74 1218.53 393.79 1124.90 481.34 1084.99 581.07 1215.27 575.00
00001179 00000047 1004.07 205.07 329.92 487.56 1063.08 402.85 1219.93 393.69 1128.88 481.46 1088.65 581.40 1216.31 575.15
00001180 00000048 1003.57 204.02 333.19 492.88 1062.03 404.12 1219.75 393.58 1128.94 482.19 1090.96 584.82 1216.58 577.48
00001181 00000049 1000.10 199.27 333.51 503.95 1058.68 404.35 1216.23 393.50 1124.49 481.88 1087.98 586.82 1213.49 579.36
00001182 00000050 995.60 200.91 335.98 507.16 1053.13 403.93 1212.86 391.41 1116.89 481.78 1082.27 587.51 1213.18 578.52
00001183 00000051 988.55 204.79 337.90 505.74 1046.51 405.39 1208.12 390.69 1111.05 479.76 1073.24 583.48 1212.52 572.29
00001184 00000052 986.37 206.17 333.10 507.04 1041.07 405.39 1204.53 386.97 1105.26 478.40 1067.39 583.76 1212.32 568.88
00001185 00000053 984.89 219.70 329.89 488.76 1038.81 405.62 1199.78 385.78 1102.36 478.54 1063.61 583.25 1209.04 567.37
00001186 00000054 980.90 220.77 330.45 484.91 1035.14 405.25 1196.95 386.81 1098.94 478.78 1058.51 582.48 1205.53 567.88
00001187 00000055 977.84 220.74 329.87 479.55 1032.42 405.80 1193.45 388.60 1097.04 479.80 1055.61 582.03 1201.03 569.01
00001188 00000056 976.20 219.69 333.03 480.21 1031.26 405.59 1191.73 389.90 1094.50 479.99 1053.76 580.73 1196.95 569.19
00001189 00000057 975.37 222.99 332.86 476.13 1030.26 406.23 1191.81 390.40 1095.79 481.56 1053.48 581.72 1197.53 570.17
00001190 00000058 975.75 218.40 332.02 480.05 1031.37 406.66 1191.83 391.17 1097.07 482.91 1055.21 582.06 1196.97 571.14
00001191 00000059 975.89 217.57 332.44 482.84 1032.51 407.01 1193.37 391.59 1099.40 483.80 1056.31 583.68 1197.49 572.90
00001192 00000060 976.99 216.33 330.23 486.82 1034.02 407.22 1193.74 391.58 1101.45 484.40 1060.41 587.77 1196.13 577.12
00001193 00000061 978.01 219.02 331.00 495.17 1034.95 408.74 1197.65 390.64 1103.63 484.62 1060.75 591.03 1201.93 578.00
00001194 00000062 978.89 219.25 330.74 497.95 1035.12 408.82 1198.58 388.56 1103.25 482.01 1058.97 590.15 1205.91 574.46
00001195 00000063 978.12 222.46 331.69 491.48 1034.81 408.11 1198.34 387.77 1102.45 480.19 1056.22 585.32 1207.69 568.93
00001196 00000064 976.62 223.25 332.29 481.27 1032.82 406.90 1197.15 387.10 1102.05 478.57 1053.80 582.43 1206.09 566.67
00001197 00000065 976.60 221.73 331.50 475.58 1032.00 406.09 1195.34 387.27 1100.80 477.18 1052.94 581.29 1203.85 566.63
00001198 00000066 976.16 220.23 330.68 476.37 1030.71 406.07 1193.60 387.80 1097.80 476.98 1051.15 582.46 1200.69 568.51
00001199 00000067 974.30 214.43 331.10 484.88 1029.24 406.77 1190.96 390.01 1093.41 477.82 1047.07 582.57 1197.90 569.57
00001200 00000068 974.22 215.70 328.38 485.82 1027.15 406.55 1186.45 392.74 1085.95 479.04 1043.89 583.19 1189.76 572.86
00001201 00000069 971.65 214.24 327.26 487.98 1023.58 404.88 1180.88 395.37 1076.39 478.68 1038.28 581.69 1176.83 575.15
00001202 00000070 966.83 207.67 328.72 493.77 1018.27 406.26 1174.33 396.44 1069.83 479.38 1034.35 582.68 1165.58 576.31
00001203 00000071 964.02 211.94 329.52 487.00 1015.68 403.59 1171.63 394.06 1068.33 478.57 1035.49 582.15 1159.26 576.54
00001204 00000072 961.25 207.81 333.56 492.97 1015.11 402.38 1170.64 391.10 1068.22 474.72 1037.37 582.69 1157.77 575.88
00001205 00000073 961.59 209.71 333.77 491.84 1015.47 401.77 1171.91 387.77 1069.40 470.26 1040.33 583.71 1159.66 574.36
00001206 00000074 963.85 212.86 332.19 491.48 1019.66 396.93 1176.70 384.57 1071.67 467.05 1042.70 582.56 1163.92 574.20
00001207 00000075 967.60 214.65 333.79 486.57 1023.02 395.22 1182.79 382.29 1078.18 466.49 1045.84 580.97 1172.62 571.89
00001208 00000076 970.79 216.46 333.52 478.34 1027.00 397.24 1187.33 382.32 1087.58 468.58 1046.60 577.30 1186.55 566.27
00001209 00000077 975.09 218.87 330.49 472.12 1032.18 401.35 1193.86 382.82 1098.81 468.83 1052.07 577.73 1197.30 563.97
00001210 00000078 977.73 215.34 331.73 476.50 1035.76 402.71 1197.34 382.54 1106.10 471.18 1058.53 578.07 1203.51 563.35
00001211 00000079 979.28 218.32 333.51 478.48 1038.18 404.00 1201.03 383.16 1110.36 473.48 1062.45 580.35 1208.10 565.11
00001212 00000080 980.47 220.33 334.75 487.11 1039.49 405.42 1202.59 383.72 1110.33 475.25 1064.74 584.26 1210.97 567.61
00001213 00000081 981.28 219.69 333.60 493.83 1039.36 404.83 1202.53 381.85 1109.62 474.84 1065.32 588.16 1211.10 570.39
00001214 00000082 977.49 217.69 334.01 484.57 1036.43 403.72 1198.99 382.27 1109.06 474.65 1064.95 585.66 1204.45 569.93
00001215 00000083 976.20 210.61 334.67 485.34 1034.26 402.71 1196.05 380.78 1105.79 472.99 1061.74 581.37 1202.88 565.00
00001216 00000084 974.43 208.09 335.02 485.79 1031.65 401.60 1193.79 381.16 1102.10 472.79 1056.70 578.90 1199.96 563.48
00001217 00000085 972.32 208.92 334.59 481.12 1029.14 400.11 1190.48 381.58 1097.84 474.35 1054.25 578.35 1196.04 564.50
00001218 00000086 969.27 210.89 336.00 480.69 1025.50 400.20 1186.37 382.69 1091.68 475.60 1051.00 578.68 1191.96 565.56
00001219 00000087 964.90 207.72 336.57 484.89 1021.12 400.46 1181.21 384.08 1085.86 475.64 1047.14 578.82 1184.55 566.81
00001220 00000088 961.19 209.25 339.99 487.64 1017.20 398.91 1177.91 383.87 1078.68 476.42 1042.89 578.60 1180.25 567.55
00001221 00000089 959.67 212.40 338.73 480.68 1013.21 401.09 1173.35 384.18 1075.15 476.86 1039.91 577.96 1177.99 565.34
00001222 00000090 957.66 208.64 337.83 486.19 1011.20 403.54 1169.76 385.64 1072.50 476.89 1037.50 577.01 1175.35 563.42
00001223 00000091 956.28 208.59 336.46 486.55 1009.53 403.08 1168.26 385.76 1071.21 478.65 1036.39 577.66 1173.56 564.50
00001224 00000092 955.31 206.56 335.69 493.29 1008.81 404.93 1166.23 386.11 1070.21 478.62 1038.88 581.13 1170.36 566.88
00001225 00000093 954.91 202.69 336.15 501.05 1011.95 406.67 1164.55 386.51 1068.52 478.73 1040.99 587.34 1167.88 572.32
00001226 00000094 954.67 204.31 335.70 501.53 1011.95 406.56 1163.72 387.48 1067.93 479.63 1041.00 589.38 1165.87 575.40
00001227 00000095 954.41 202.97 333.52 505.34 1012.48 407.45 1164.37 388.68 1068.37 481.85 1041.16 592.23 1168.80 578.21
00001228 00000096 954.28 202.28 331.86 507.48 1013.30 410.46 1167.30 390.20 1070.44 483.61 1040.13 594.53 1178.03 578.48
00001229 00000097 952.71 211.34 332.65 494.72 1008.25 411.78 1167.23 392.66 1073.76 488.58 1039.60 589.14 1177.14 574.50
00001230 00000098 952.35 216.44 332.06 486.03 1007.17 414.34 1166.23 395.36 1075.00 490.12 1037.39 587.61 1178.72 572.89
00001231 00000099 951.86 219.41 332.40 484.56 1007.76 415.37 1166.00 397.85 1075.75 492.57 1037.24 587.43 1176.87 574.23
00001232 00000100 954.21 217.54 331.16 486.59 1009.26 417.10 1166.56 399.53 1077.52 494.91 1040.36 590.69 1175.85 577.72
00001233 00000101 956.26 220.17 331.24 486.72 1010.85 419.56 1169.89 400.89 1080.31 497.87 1043.46 594.35 1178.64 580.88
00001234 00000102 954.99 211.77 336.96 497.13 1016.52 422.97 1174.15 403.73 1082.16 497.98 1041.48 601.27 1184.00 585.77
00001235 00000103 959.27 210.14 336.21 502.46 1024.24 430.01 1177.60 411.10 1085.51 499.45 1047.05 602.61 1184.29 588.03
00001236 DELETE   965.00 222.96 331.37 486.01 1021.93 437.36 1176.90 416.07 1085.16 500.53 1051.96 598.19 1184.26 582.61
00001237 DELETE   966.23 219.26 331.66 487.44 1025.21 438.52 1182.13 416.29 1089.15 498.23 1052.29 596.59 1191.42 579.74
00001238 00000106 969.00 214.12 330.35 491.72 1028.45 436.77 1185.84 415.21 1092.23 494.09 1051.30 593.72 1195.54 576.99
00001239 00000107 971.01 213.93 329.95 491.97 1031.28 431.89 1190.58 412.20 1095.92 489.71 1049.36 589.04 1199.48 573.51
00001240 DELETE   975.08 216.73 326.99 491.73 1034.29 429.15 1194.19 408.22 1099.19 485.67 1051.35 587.73 1204.39 570.85
00001241 DELETE   978.07 213.13 329.88 502.20 1035.44 426.95 1195.18 406.20 1100.32 486.30 1051.71 585.18 1206.03 568.18
00001242 00000110 980.29 215.72 328.09 499.82 1040.23 423.13 1200.33 402.08 1104.89 480.75 1053.76 584.16 1211.89 566.41
00001243 DELETE   982.20 216.03 328.12 500.20 1042.81 422.87 1203.11 401.59 1108.66 479.06 1055.09 582.92 1215.70 564.57
00001244 DELETE   982.21 209.50 329.68 504.98 1045.54 423.21 1205.35 400.45 1113.19 477.22 1057.03 581.02 1219.74 561.32
00001245 00000113 984.33 209.11 330.96 503.30 1047.28 422.09 1207.24 397.60 1116.10 474.17 1057.92 579.77 1223.86 558.33
00001246 DELETE   984.83 204.66 339.92 504.63 1054.96 414.18 1212.46 395.67 1118.97 476.58 1062.15 575.78 1233.31 557.52
00001247 DELETE   992.48 203.56 329.01 506.08 1053.49 411.98 1218.18 394.91 1127.49 472.50 1064.15 572.27 1233.79 556.41
00001248 DELETE   994.47 213.37 333.82 495.55 1062.41 407.42 1220.66 393.13 1126.30 475.26 1066.35 571.76 1239.43 557.52
00001249 00000117 995.39 208.31 330.32 501.83 1059.56 408.33 1223.24 394.52 1132.57 472.59 1068.93 570.09 1236.20 557.21
00001250 00000118 997.26 204.68 330.06 510.63 1061.77 406.28 1224.45 394.47 1134.22 471.98 1070.99 569.89 1236.30 558.46
00001251 00000119 999.18 209.28 329.90 508.79 1063.79 405.88 1225.40 394.33 1135.52 471.58 1072.57 570.79 1237.84 559.56
00001252 00000120 1001.56 207.63 328.32 513.25 1064.90 404.84 1226.79 394.09 1135.60 471.32 1072.42 571.73 1239.10 560.89
00001253 00000121 1002.31 205.36 329.99 517.26 1066.60 404.87 1227.44 395.24 1134.89 471.25 1072.80 571.46 1239.19 561.46
00001254 00000122 1003.51 204.75 330.35 518.41 1066.99 404.68 1227.42 396.52 1132.88 472.21 1071.71 571.17 1238.32 562.33
00001255 00000123 1002.16 203.21 332.67 512.88 1066.05 404.01 1226.16 398.56 1129.77 474.45 1068.66 566.51 1235.95 559.99
00001256 00000124 1000.51 205.69 333.60 501.04 1064.37 403.11 1226.68 400.07 1129.18 477.35 1066.52 566.14 1232.27 562.62
00001257 00000125 998.72 201.95 335.58 498.90 1063.07 402.52 1225.89 402.65 1126.69 478.40 1064.62 566.62 1226.25 566.46
00001258 DELETE   998.61 202.58 334.87 492.44 1062.88 402.51 1224.84 405.02 1124.59 479.78 1065.01 566.96 1220.66 569.42
00001259 00000127 1000.01 203.29 333.56 493.43 1063.39 404.30 1223.68 405.88 1124.08 481.33 1068.94 569.88 1217.54 571.87
00001260 00000128 1002.23 206.02 331.59 493.69 1064.69 406.25 1223.00 406.74 1124.56 482.63 1074.22 573.18 1214.73 574.53
00001261 00000129 1003.87 203.58 331.85 497.18 1066.73 407.60 1223.45 406.01 1125.50 480.80 1078.64 576.29 1213.42 576.50
00001262 00000130 1004.24 204.32 332.48 497.78 1067.03 402.93 1224.39 401.01 1126.82 480.90 1082.03 577.49 1212.96 577.36
00001263 00000131 1003.82 202.50 332.76 497.70 1068.95 397.93 1228.79 397.93 1131.99 481.20 1081.81 575.65 1218.60 576.61
00001264 00000132 1002.90 201.77 336.13 497.37 1070.99 398.02 1231.66 397.65 1137.44 480.32 1083.43 575.51 1223.01 576.10
00001265 00000133 1003.64 201.06 335.63 500.40 1073.73 397.79 1234.11 396.91 1141.92 478.59 1086.81 574.39 1227.17 574.55
00001266 00000134 1002.12 204.38 337.21 495.60 1074.31 397.69 1236.41 397.33 1145.06 478.25 1082.15 570.04 1231.97 570.58
00001267 00000135 1001.70 200.39 338.60 500.45 1075.49 398.36 1238.15 396.67 1148.64 478.50 1081.86 566.68 1239.83 565.47
00001268 00000136 1001.49 202.17 340.35 496.45 1075.46 399.51 1239.57 396.12 1150.68 479.60 1083.05 567.98 1243.26 565.31
00001269 00000137 1001.83 200.82 340.65 497.49 1076.53 401.58 1241.21 396.25 1153.94 480.40 1085.49 569.31 1246.40 564.89
00001270 00000138 1003.29 203.26 340.09 497.70 1078.18 401.45 1242.15 396.03 1156.34 481.54 1087.90 571.48 1247.16 567.08
00001271 00000139 1004.09 202.64 340.28 498.72 1079.61 402.52 1243.33 395.63 1158.60 481.69 1092.72 574.94 1247.07 569.81
00001272 00000140 1004.82 203.05 340.52 499.87 1081.57 403.76 1243.39 395.02 1160.98 482.64 1098.56 577.13 1246.84 570.71
00001273 00000141 1004.31 201.94 341.13 503.14 1082.33 403.81 1243.35 393.64 1162.79 481.77 1101.68 579.17 1246.89 571.84
00001274 00000142 1002.45 205.87 342.59 500.88 1082.04 404.80 1243.41 393.07 1163.96 482.99 1102.92 580.67 1248.34 572.00
00001275 00000143 1001.55 208.91 342.05 497.87 1080.95 405.95 1241.97 392.42 1164.71 484.19 1104.21 581.86 1249.67 571.48
00001276 00000144 1001.85 214.99 341.80 493.88 1078.98 409.30 1241.12 392.63 1164.43 485.79 1105.98 585.17 1252.27 572.25
00001277 00000145 1000.36 214.66 342.21 496.77 1076.12 412.61 1237.82 393.54 1161.49 487.01 1104.91 586.11 1251.74 570.81
00001278 00000146 997.46 221.28 339.80 490.30 1071.11 413.70 1232.95 393.72 1156.27 487.11 1101.43 586.64 1248.31 570.29
00001279 00000147 992.34 219.19 341.69 491.97 1064.81 415.40 1226.56 393.89 1147.83 488.69 1095.60 587.96 1243.90 570.36
00001280 00000148 992.05 224.71 337.32 493.30 1059.70 418.69 1222.06 396.68 1141.49 491.22 1086.97 589.28 1241.07 570.85
00001281 00000149 991.86 227.97 332.85 496.90 1052.99 421.19 1215.43 395.90 1132.57 497.48 1081.58 593.67 1238.03 571.96
00001282 00000150 989.18 226.96 332.00 504.00 1046.91 423.48 1208.50 397.34 1123.03 499.52 1075.89 595.28 1233.11 572.99
00001283 00000151 984.07 226.20 334.17 503.98 1043.90 424.19 1201.79 400.25 1114.66 501.81 1071.30 592.10 1226.91 571.41
00001284 00000152 981.83 223.25 332.64 501.19 1037.74 426.33 1196.11 402.23 1106.16 502.85 1065.71 591.60 1219.98 570.61
00001285 00000153 978.31 222.59 334.53 495.97 1032.41 426.13 1188.91 405.07 1096.61 505.05 1061.50 589.58 1211.55 571.22
00001286 00000154 975.37 224.76 333.50 487.38 1028.42 424.30 1183.73 407.30 1088.73 505.70 1058.76 589.51 1201.10 575.53
00001287 00000155 971.88 228.50 332.35 479.15 1024.53 421.37 1179.69 406.90 1082.90 503.55 1053.57 589.36 1191.57 578.40
00001288 00000156 967.34 218.98 335.06 489.45 1021.31 421.03 1176.70 407.39 1078.80 502.66 1049.29 591.02 1185.11 581.27
CROP_BBOX: 768 0 1531 839
