Video ID: 	wEi5kUb9tMo
H: 	1080
W: 	1920
FPS: 	25.0

FRAME INDEX X0 Y0 W H [Landmarks (5 Points)]

00019300 00000000 949.54 167.97 383.67 557.32 1093.99 398.56 1262.99 395.92 1216.15 472.30 1120.81 586.36 1262.80 584.90
00019301 00000001 956.40 174.27 379.06 539.39 1098.71 400.47 1270.95 396.21 1221.25 474.68 1129.81 590.47 1266.04 587.59
00019302 00000002 953.37 177.36 384.65 541.54 1096.77 401.45 1268.97 398.07 1218.90 476.54 1128.25 594.17 1263.24 592.07
00019303 00000003 949.78 176.49 389.38 547.73 1090.57 399.33 1260.02 399.19 1205.86 478.62 1120.81 594.04 1252.57 594.68
00019304 00000004 943.19 170.37 394.09 561.85 1082.37 393.65 1247.56 397.78 1191.85 478.01 1108.47 590.85 1238.28 595.12
00019305 DELETE   936.03 165.53 399.13 566.91 1068.39 387.89 1237.52 393.69 1174.79 476.66 1094.54 590.89 1225.13 595.90
00019306 00000006 929.99 165.47 403.34 565.59 1053.64 385.58 1228.52 389.32 1156.11 474.99 1075.77 587.30 1217.52 590.36
00019307 00000007 925.69 165.54 407.27 566.23 1042.05 383.51 1216.66 386.86 1135.90 469.00 1060.25 582.36 1202.53 585.32
00019308 00000008 922.40 158.18 407.91 579.97 1036.22 377.84 1208.67 384.46 1123.91 465.05 1050.76 578.46 1188.37 584.55
00019309 00000009 916.73 157.27 412.21 588.58 1029.83 374.21 1203.30 383.53 1115.47 464.04 1040.77 577.26 1182.79 585.30
00019310 00000010 916.09 157.84 412.61 592.21 1026.30 371.57 1201.82 380.68 1109.43 465.05 1035.47 578.46 1180.81 586.32
00019311 00000011 915.65 163.99 411.49 578.91 1022.40 371.13 1197.73 379.84 1103.99 464.34 1034.57 577.83 1172.85 585.83
00019312 00000012 916.26 168.54 409.00 556.93 1019.05 374.73 1191.10 381.36 1098.59 462.53 1037.15 575.04 1163.58 581.90
00019313 00000013 914.08 168.74 409.07 552.20 1013.67 375.76 1185.43 379.75 1092.36 459.41 1033.55 573.27 1157.86 577.80
00019314 00000014 906.14 163.59 410.31 553.49 1006.93 377.00 1179.87 380.77 1086.96 459.79 1025.83 572.79 1154.09 576.89
00019315 00000015 902.54 160.07 402.47 549.10 998.29 377.24 1168.22 379.47 1074.89 455.73 1012.66 567.68 1146.73 570.55
00019316 00000016 900.06 160.81 398.12 546.08 983.70 376.20 1151.71 373.72 1053.75 457.25 999.25 565.78 1131.06 564.67
00019317 00000017 887.85 148.62 403.98 554.62 965.03 378.85 1141.31 372.09 1025.71 453.29 977.86 565.22 1124.32 560.44
00019318 00000018 884.12 144.71 397.52 562.77 955.45 373.48 1125.41 367.61 1007.34 449.59 964.59 563.54 1102.40 559.73
00019319 00000019 883.52 152.26 397.78 555.61 953.82 374.80 1119.77 368.94 1005.00 452.75 964.62 563.35 1098.67 559.38
00019320 00000020 882.35 154.49 399.37 550.86 953.15 381.22 1124.94 372.73 1009.48 456.85 965.43 566.19 1107.84 560.20
00019321 00000021 881.92 154.73 401.77 552.39 954.06 386.13 1127.34 380.19 1010.30 462.19 964.57 568.51 1111.84 564.26
00019322 00000022 882.33 161.09 398.87 550.27 954.71 389.44 1124.33 388.36 1008.92 470.60 961.68 572.05 1107.33 572.25
00019323 00000023 880.10 157.62 397.78 563.51 952.41 386.77 1118.74 391.14 1004.51 474.84 956.89 572.55 1098.32 577.43
00019324 00000024 877.30 158.97 399.02 566.79 950.63 388.90 1114.49 394.37 1000.15 475.83 954.50 575.85 1093.83 581.66
00019325 00000025 874.40 159.32 398.41 567.14 949.41 392.60 1113.67 397.64 1000.27 477.92 953.98 580.25 1093.54 585.73
00019326 00000026 871.86 160.37 399.55 566.22 947.01 394.04 1110.00 400.12 996.96 481.43 950.98 583.08 1087.18 589.60
00019327 00000027 866.51 162.74 399.52 566.99 945.01 394.57 1107.95 403.27 995.57 484.01 945.38 587.18 1080.75 596.08
00019328 00000028 861.92 164.54 399.21 568.29 942.17 398.07 1107.46 408.36 992.93 488.89 938.99 593.42 1074.69 603.72
00019329 00000029 858.05 168.49 400.22 560.28 940.26 399.76 1108.83 412.60 992.53 491.55 933.72 594.34 1070.96 606.58
00019330 00000030 855.26 172.25 398.71 557.12 937.91 401.99 1107.27 414.43 990.43 492.49 931.92 596.51 1067.73 608.33
00019331 00000031 852.86 176.48 397.74 557.24 935.65 402.62 1102.15 415.75 986.44 494.80 932.49 595.90 1062.90 608.52
00019332 00000032 847.68 172.55 400.11 569.10 932.82 398.46 1097.66 412.41 983.14 494.02 932.67 595.32 1062.01 608.24
00019333 00000033 845.24 163.37 399.24 572.28 930.11 396.84 1095.39 411.32 982.03 491.87 931.07 591.08 1062.49 604.05
00019334 00000034 843.48 162.33 398.16 558.90 928.15 393.22 1092.14 409.73 980.96 488.75 925.39 580.47 1058.53 595.15
00019335 00000035 842.29 163.67 399.24 559.22 928.75 385.02 1092.34 401.64 982.67 479.15 926.69 571.39 1061.81 586.22
00019336 00000036 838.93 160.83 403.97 564.31 927.99 378.19 1093.75 394.31 984.78 470.64 927.98 564.54 1064.99 578.87
00019337 00000037 838.90 153.41 402.61 562.19 925.23 374.09 1091.35 389.59 981.04 466.20 924.53 557.44 1065.25 571.13
00019338 00000038 834.75 139.06 411.27 569.75 919.27 368.67 1087.88 381.65 968.71 461.88 919.24 553.29 1063.68 563.62
00019339 00000039 830.35 127.32 411.25 592.23 914.72 361.50 1085.53 375.40 967.20 454.33 914.02 550.90 1056.66 562.89
00019340 00000040 830.18 143.37 407.93 587.74 915.19 361.15 1085.18 372.77 971.11 452.09 919.53 552.86 1063.55 563.44
00019341 00000041 825.14 126.88 410.34 577.12 910.61 364.38 1080.04 375.12 964.66 456.85 915.98 554.19 1049.38 563.54
00019342 00000042 823.87 117.97 407.21 569.11 904.22 355.35 1079.64 369.54 959.09 454.67 908.75 547.24 1040.36 559.37
00019343 00000043 822.56 111.18 410.47 582.05 903.36 354.39 1078.94 365.21 959.70 449.76 911.19 550.98 1040.75 560.45
00019344 00000044 819.43 115.30 411.43 571.88 898.82 348.81 1078.76 357.99 958.44 446.16 907.34 551.76 1037.12 559.66
00019345 00000045 816.68 114.22 413.36 572.30 896.53 346.18 1079.64 355.46 957.86 441.57 903.14 546.80 1038.21 554.82
00019346 00000046 812.21 108.70 421.27 584.93 896.64 344.76 1079.21 351.76 959.69 434.62 903.42 543.82 1040.47 550.13
00019347 00000047 808.93 112.37 425.46 586.01 897.28 341.63 1077.26 347.97 959.28 431.85 903.17 541.75 1039.84 547.91
00019348 00000048 807.67 110.35 427.22 588.49 895.68 341.37 1080.11 348.44 960.39 432.51 901.74 539.75 1047.25 546.11
00019349 00000049 808.88 116.21 424.26 575.95 893.78 344.37 1082.26 354.36 959.17 439.75 897.45 538.54 1048.30 547.05
00019350 00000050 811.39 120.89 421.78 579.05 893.75 351.71 1082.64 362.87 959.04 454.14 899.25 547.45 1050.56 556.76
00019351 00000051 809.25 122.76 423.58 593.24 894.84 364.54 1080.30 372.80 960.57 463.11 902.38 561.28 1049.71 568.41
00019352 00000052 804.48 141.40 426.23 595.39 894.90 373.53 1075.91 384.01 960.17 471.04 900.47 574.26 1038.23 583.58
00019353 00000053 802.80 126.61 429.17 621.87 890.48 391.63 1069.48 402.53 955.01 489.30 898.36 594.42 1034.25 603.82
00019354 00000054 802.54 138.60 431.52 626.26 889.79 408.59 1070.35 419.56 948.03 507.24 896.55 609.14 1032.66 618.40
00019355 00000055 801.75 167.42 426.54 611.14 889.01 420.14 1074.25 430.77 958.37 531.64 900.51 624.31 1040.35 633.70
00019356 00000056 804.76 185.14 425.30 596.94 889.07 431.20 1075.13 442.45 955.94 546.22 900.42 634.54 1043.39 644.59
00019357 00000057 803.94 196.08 420.77 599.26 889.26 445.23 1072.68 458.16 955.37 560.75 899.66 651.64 1035.03 663.69
00019358 00000058 802.75 207.12 428.42 593.85 886.34 458.34 1070.66 470.14 956.66 574.41 900.52 669.30 1031.10 679.31
00019359 00000059 800.96 214.59 428.53 594.90 890.95 467.91 1070.07 481.42 957.10 583.39 904.99 677.98 1027.57 689.39
00019360 00000060 800.65 233.08 427.75 590.28 885.64 481.52 1069.11 489.41 953.74 591.90 903.39 691.77 1027.53 698.55
00019361 00000061 796.51 246.71 425.50 578.38 888.32 493.85 1073.10 497.93 956.15 606.14 907.14 698.38 1045.65 702.40
00019362 00000062 798.34 243.59 429.18 590.84 882.02 495.61 1069.78 506.05 957.34 619.59 899.82 702.89 1040.75 711.67
00019363 00000063 797.69 243.86 429.85 590.71 880.92 500.30 1067.76 511.98 956.54 630.19 898.38 706.47 1042.84 716.15
00019364 00000064 797.68 263.99 429.69 568.54 879.47 506.40 1068.92 517.76 958.16 636.34 897.27 711.61 1041.57 720.80
00019365 00000065 796.68 265.48 430.77 568.94 878.86 508.48 1066.70 521.49 955.55 639.37 896.46 713.11 1037.87 723.49
00019366 00000066 796.06 268.03 432.31 567.26 877.51 510.21 1066.24 524.45 954.35 642.85 895.71 713.02 1038.68 724.28
00019367 00000067 794.67 272.23 426.65 566.07 881.29 515.67 1069.53 526.16 947.43 644.09 897.78 716.53 1040.94 725.17
00019368 00000068 797.48 272.90 431.48 563.34 879.83 513.43 1070.01 527.30 959.54 647.71 896.10 715.56 1042.38 726.66
00019369 00000069 798.26 274.02 432.70 567.62 881.76 513.86 1071.87 529.19 961.49 649.77 899.04 718.24 1042.33 730.47
00019370 00000070 799.63 274.55 432.83 575.95 884.13 513.65 1074.64 529.35 963.33 651.65 900.87 722.61 1043.79 735.68
00019371 00000071 803.45 278.94 429.56 562.81 885.98 515.37 1073.79 531.89 963.42 652.00 903.19 721.08 1043.15 734.26
00019372 00000072 804.88 275.05 429.11 559.43 886.95 516.77 1071.89 531.29 962.29 652.02 906.85 723.55 1042.21 734.73
00019373 00000073 809.25 275.30 427.22 556.91 888.90 515.13 1074.56 528.55 964.16 650.70 910.68 726.10 1044.08 736.40
00019374 00000074 812.58 268.97 424.55 561.59 892.99 512.37 1077.06 525.63 966.32 645.29 912.63 723.37 1044.63 733.67
00019375 00000075 812.63 262.81 423.69 568.98 894.36 507.65 1079.88 521.74 967.68 638.12 910.93 717.10 1045.60 728.36
00019376 00000076 814.02 258.67 421.80 571.31 894.10 503.66 1079.47 515.88 968.21 635.66 913.16 716.47 1047.72 726.30
00019377 00000077 814.63 253.64 420.25 576.13 895.43 500.12 1079.79 512.67 968.62 632.59 913.99 713.73 1048.46 723.89
00019378 00000078 808.78 253.72 424.12 577.59 900.41 494.15 1086.72 505.51 972.62 623.75 919.43 707.41 1051.93 717.61
00019379 00000079 809.06 250.62 424.75 582.35 900.94 494.42 1086.47 506.41 972.46 624.53 919.71 707.10 1052.65 717.97
00019380 00000080 809.49 254.42 424.11 579.72 900.35 496.99 1087.04 507.70 972.92 627.27 919.26 709.23 1054.06 719.20
00019381 00000081 809.87 257.40 424.30 574.46 901.24 498.43 1087.96 508.67 973.62 628.91 919.71 711.70 1053.72 721.20
00019382 00000082 810.37 256.82 424.58 577.36 902.09 498.00 1088.10 508.45 974.62 629.67 921.26 711.82 1054.65 721.71
00019383 00000083 816.98 247.84 421.17 578.82 901.68 497.02 1083.29 507.44 973.79 626.37 922.51 707.80 1054.52 716.57
00019384 00000084 815.59 234.61 431.56 576.97 904.51 478.80 1093.38 487.77 979.39 600.12 926.49 693.36 1054.34 701.14
00019385 00000085 825.18 205.57 431.91 595.32 914.57 460.80 1097.80 472.16 983.52 576.36 934.28 674.14 1057.88 683.58
00019386 00000086 823.72 198.49 428.79 593.53 928.02 439.76 1103.80 452.32 996.84 550.64 941.69 651.90 1067.45 664.38
00019387 00000087 824.18 194.45 430.33 600.80 928.28 436.09 1103.66 444.92 998.70 546.84 947.30 650.41 1076.34 659.43
00019388 00000088 824.50 204.32 435.52 613.51 925.03 444.90 1105.18 452.57 994.39 561.91 946.97 657.45 1078.72 665.11
00019389 00000089 823.66 219.06 431.37 604.91 920.75 460.90 1106.05 468.89 998.55 579.94 936.50 670.43 1083.53 677.00
00019390 00000090 828.16 226.49 428.39 571.21 917.74 466.21 1105.11 475.32 985.66 579.04 931.00 660.80 1079.14 669.34
00019391 00000091 829.19 207.14 432.28 580.12 924.04 443.95 1104.92 456.29 989.06 558.67 933.39 638.77 1081.74 649.64
00019392 00000092 835.85 190.37 433.09 585.12 931.98 426.09 1109.01 436.40 995.75 537.98 944.52 624.68 1089.52 632.70
00019393 00000093 838.95 171.03 435.68 594.98 937.81 408.69 1114.85 414.99 1005.67 522.23 955.22 612.20 1100.19 616.56
00019394 00000094 847.65 160.09 431.35 602.91 946.97 399.96 1121.42 404.54 1015.87 507.75 962.69 603.79 1109.35 606.67
00019395 00000095 852.21 153.68 432.42 605.44 947.93 388.97 1127.66 393.85 1018.47 494.39 964.18 596.69 1112.75 599.81
00019396 00000096 855.03 145.39 435.79 612.05 950.52 383.56 1133.04 387.94 1021.42 490.24 966.45 594.56 1115.38 597.33
00019397 00000097 856.95 144.91 436.33 609.93 952.04 382.31 1134.65 387.45 1022.66 487.57 966.75 590.90 1116.19 594.24
00019398 00000098 858.05 147.20 434.32 605.16 952.92 381.10 1134.88 387.53 1021.87 486.02 965.44 589.49 1113.13 594.24
00019399 00000099 857.62 146.95 433.34 598.65 950.05 387.38 1133.44 393.55 1018.54 488.52 961.66 590.97 1113.05 595.60
00019400 00000100 857.84 146.50 432.26 594.35 948.20 392.26 1133.69 398.22 1017.46 489.94 960.60 591.69 1116.34 595.87
00019401 00000101 855.78 147.58 432.12 595.18 947.47 392.29 1131.53 400.03 1014.64 490.53 957.39 592.47 1112.53 598.17
00019402 00000102 851.79 147.53 431.09 598.85 945.27 392.92 1127.09 402.24 1011.57 494.45 954.67 595.86 1105.64 602.94
00019403 00000103 846.86 151.54 430.35 601.91 943.20 392.59 1123.21 404.24 1008.75 498.21 950.43 599.51 1098.89 608.70
00019404 00000104 839.98 157.07 431.39 600.25 938.94 393.83 1116.96 407.39 1003.51 503.16 944.70 601.27 1090.80 611.96
00019405 00000105 834.89 154.81 432.05 604.97 933.99 402.00 1111.66 419.77 995.90 509.48 936.59 604.54 1080.38 618.49
00019406 00000106 830.72 159.49 431.11 599.67 927.10 404.96 1109.82 422.45 990.54 513.88 930.19 606.51 1077.34 620.25
00019407 00000107 827.22 166.44 430.74 593.00 921.46 406.40 1108.08 423.87 985.25 515.89 926.26 609.06 1074.31 622.89
00019408 00000108 823.90 167.71 432.77 595.71 918.77 408.32 1107.65 425.75 984.36 523.47 925.69 613.52 1073.15 627.36
00019409 00000109 821.73 173.09 431.07 591.63 915.64 412.64 1107.05 427.93 985.74 530.76 926.29 620.49 1073.41 633.02
00019410 00000110 820.29 181.72 428.79 588.01 917.26 418.18 1106.10 432.19 989.75 532.57 930.98 627.82 1074.16 639.73
00019411 00000111 817.84 186.53 430.45 588.55 917.79 418.12 1105.49 432.49 992.53 535.47 932.10 628.80 1072.74 641.67
00019412 00000112 816.88 185.13 435.22 593.92 924.79 418.67 1109.52 434.67 1002.17 540.62 938.91 628.22 1078.82 642.66
00019413 DELETE   819.70 179.78 437.84 595.42 937.20 423.73 1129.23 435.25 1026.48 541.78 948.67 625.68 1105.33 635.61
00019414 DELETE   828.84 173.97 444.94 602.02 971.90 428.03 1163.30 429.09 1080.62 543.99 995.05 629.57 1150.21 629.88
00019415 DELETE   861.15 172.95 426.62 605.66 1020.07 427.96 1201.38 425.60 1135.83 531.38 1045.39 627.67 1190.57 627.25
00019416 00000116 879.66 177.40 412.82 597.48 1050.37 436.57 1222.15 428.88 1172.91 536.89 1078.21 634.84 1214.40 629.67
00019417 00000117 886.33 177.75 411.62 594.97 1064.39 433.54 1235.78 430.38 1186.30 539.98 1089.96 636.99 1220.08 635.45
00019418 00000118 885.30 180.11 413.54 594.69 1068.46 429.67 1238.61 427.93 1190.27 539.75 1090.16 636.51 1218.85 636.28
00019419 00000119 885.48 176.66 412.42 587.01 1069.76 425.86 1240.78 424.54 1191.80 536.19 1093.54 632.26 1218.75 632.41
CROP_BBOX: 530 0 1569 998
