Video ID: 	UcdUd7lzw34
H: 	1080
W: 	1920
FPS: 	29.97002997002997

FRAME INDEX X0 Y0 W H [Landmarks (5 Points)]

00004963 00000000 932.88 130.17 474.89 631.29 1052.45 356.36 1254.97 406.13 1101.67 454.11 1008.37 563.79 1183.57 605.41
00004964 00000001 934.91 122.09 476.27 638.25 1057.25 354.41 1261.73 403.23 1107.77 446.54 1010.42 562.45 1183.42 603.47
00004965 DELETE   940.55 111.64 474.64 637.48 1058.15 346.09 1263.73 389.90 1106.58 437.36 1009.17 558.47 1179.39 595.71
00004966 00000003 935.21 110.39 474.72 631.46 1056.54 337.65 1257.53 383.60 1103.61 425.22 1008.55 546.67 1177.89 585.20
00004967 00000004 933.60 97.96 469.78 630.82 1055.79 331.86 1259.17 380.82 1103.37 413.94 1008.70 536.43 1178.20 577.21
00004968 00000005 937.40 96.29 459.86 622.82 1037.44 324.74 1263.54 376.16 1085.72 405.99 996.68 538.09 1184.02 581.41
00004969 00000006 936.49 101.23 465.24 618.40 1049.40 333.74 1254.58 378.51 1097.21 410.29 1004.17 537.37 1175.30 574.31
00004970 00000007 936.73 98.93 469.88 620.99 1049.27 333.66 1257.05 380.80 1096.96 411.80 1003.29 538.61 1176.56 577.08
00004971 00000008 938.45 103.44 466.22 615.68 1048.84 336.12 1257.92 382.50 1097.78 414.23 1002.72 540.53 1179.14 578.36
00004972 00000009 939.35 105.29 466.86 614.44 1051.31 336.18 1260.75 384.29 1099.35 416.44 1003.31 540.59 1179.90 579.82
00004973 00000010 941.84 104.49 466.41 615.57 1053.06 336.37 1262.66 385.05 1099.94 419.07 1004.24 541.86 1180.45 581.65
00004974 00000011 943.55 106.17 467.02 621.45 1055.75 337.38 1263.19 382.80 1100.68 420.62 1006.31 545.67 1179.93 583.62
00004975 00000012 944.73 109.96 466.83 620.80 1055.71 339.79 1264.57 383.61 1101.16 423.34 1006.73 548.98 1181.55 585.53
00004976 00000013 944.44 108.78 473.48 621.82 1055.91 338.91 1266.46 384.81 1100.35 425.31 1006.76 548.84 1183.46 586.94
00004977 00000014 946.53 112.23 474.80 620.82 1055.77 341.90 1267.48 385.81 1100.72 430.22 1008.62 552.50 1186.01 589.03
00004978 00000015 945.01 113.78 474.52 622.09 1056.04 344.11 1267.53 388.84 1101.97 434.77 1009.38 554.59 1187.07 591.83
00004979 00000016 947.27 111.56 476.46 624.66 1055.44 346.68 1270.27 391.08 1102.07 435.68 1010.12 555.95 1190.77 592.53
00004980 00000017 946.86 114.38 477.92 623.28 1056.96 346.13 1272.08 392.46 1104.02 440.71 1011.92 555.16 1194.73 593.23
00004981 00000018 946.89 114.27 480.00 625.69 1060.01 345.76 1273.99 391.86 1108.98 442.09 1016.62 555.43 1198.38 593.22
00004982 00000019 949.32 113.76 480.07 643.48 1057.05 336.14 1277.99 384.42 1114.65 435.29 1022.42 555.14 1199.14 597.57
00004983 00000020 947.93 111.31 482.72 654.25 1058.50 334.43 1277.04 377.66 1115.82 429.86 1022.77 557.66 1192.41 596.38
00004984 00000021 947.54 109.69 479.96 657.61 1059.06 334.32 1275.82 374.51 1116.36 424.85 1023.36 558.58 1190.70 595.06
00004985 00000022 946.61 108.19 479.84 658.83 1058.65 334.39 1274.59 373.95 1116.93 423.27 1024.16 558.18 1190.07 594.07
00004986 00000023 946.41 109.34 479.27 658.68 1056.41 334.67 1273.72 372.87 1114.77 422.92 1022.90 559.72 1190.70 594.62
00004987 00000024 945.11 107.16 481.84 661.56 1054.92 335.01 1272.97 373.79 1112.52 423.08 1020.88 559.36 1189.80 594.82
00004988 00000025 942.91 105.23 479.44 649.57 1062.97 342.27 1270.62 383.41 1113.46 430.97 1016.31 560.49 1187.00 595.38
00004989 00000026 943.35 104.52 480.13 650.95 1062.19 342.09 1271.75 383.88 1112.50 431.26 1015.19 560.73 1188.56 596.00
00004990 00000027 942.33 109.49 478.72 644.03 1060.43 343.35 1272.56 384.65 1113.07 433.53 1014.29 561.95 1190.40 596.81
00004991 00000028 942.77 107.92 476.12 643.33 1059.32 345.25 1271.88 386.26 1112.65 437.52 1014.79 561.97 1191.09 596.48
00004992 00000029 941.96 109.26 475.12 644.75 1058.95 346.88 1272.03 388.16 1115.02 440.58 1016.79 565.56 1192.98 600.42
00004993 00000030 942.04 112.55 468.38 647.87 1059.67 349.06 1273.41 392.13 1119.26 448.19 1019.22 570.20 1196.97 606.61
00004994 00000031 938.96 115.72 471.41 656.32 1061.49 353.21 1272.68 393.67 1122.76 455.63 1023.58 578.53 1198.83 613.10
00004995 00000032 935.81 119.51 473.28 661.33 1056.42 357.94 1271.17 396.15 1123.34 458.29 1022.54 584.44 1205.08 616.93
00004996 00000033 932.79 121.08 472.16 658.53 1055.49 359.78 1270.71 397.13 1126.90 458.86 1025.60 586.49 1207.83 618.29
00004997 00000034 929.03 120.91 473.97 647.99 1052.62 361.08 1270.44 397.43 1129.73 458.75 1026.18 585.37 1209.82 616.04
00004998 00000035 927.15 103.65 467.73 669.71 1041.82 359.80 1272.12 395.22 1120.58 465.19 1020.44 598.35 1213.71 627.42
00004999 00000036 919.63 109.27 467.10 672.61 1039.79 364.11 1270.12 407.04 1128.35 461.60 1016.59 598.85 1215.17 633.87
00005000 00000037 911.11 109.41 472.65 697.12 1040.90 369.81 1271.42 410.54 1139.62 464.00 1017.90 608.94 1218.69 642.79
00005001 00000038 907.99 112.82 467.77 688.77 1042.09 376.11 1267.12 409.94 1150.97 461.54 1031.08 612.02 1222.51 639.99
00005002 DELETE   902.82 116.28 472.39 677.40 1045.45 374.23 1271.15 404.81 1165.33 463.42 1044.14 610.06 1233.12 634.63
00005003 DELETE   899.10 113.19 471.21 673.05 1048.21 364.48 1271.81 390.54 1177.45 460.30 1057.93 605.75 1241.86 625.97
00005004 00000041 893.12 113.66 472.01 663.76 1048.68 359.42 1274.10 379.85 1185.54 456.63 1069.10 601.05 1252.01 615.90
00005005 00000042 890.10 110.57 470.90 666.84 1048.50 360.46 1274.71 375.94 1191.10 456.58 1071.85 602.96 1256.24 613.86
00005006 00000043 883.22 113.54 471.88 664.27 1046.71 363.10 1270.17 379.21 1191.59 463.10 1071.70 606.35 1253.33 617.83
00005007 DELETE   875.85 120.20 471.13 659.95 1043.48 369.89 1265.29 389.07 1188.67 474.68 1066.52 608.94 1249.91 623.02
00005008 DELETE   867.08 132.30 476.71 654.67 1039.50 376.59 1261.67 394.42 1185.78 484.91 1063.44 616.42 1244.89 629.60
00005009 DELETE   862.44 131.65 474.99 659.09 1039.69 388.13 1257.90 404.50 1184.38 499.48 1059.74 623.24 1239.40 635.56
00005010 00000047 856.56 134.37 473.09 661.64 1035.54 391.90 1250.82 407.77 1177.73 507.68 1058.14 629.92 1233.86 642.05
00005011 00000048 850.20 138.19 472.55 660.17 1030.59 395.85 1242.55 411.14 1170.11 509.61 1054.47 633.33 1224.92 645.37
00005012 00000049 842.68 137.37 476.93 663.17 1026.02 397.45 1236.21 412.37 1164.47 512.98 1052.08 636.27 1220.30 648.05
00005013 00000050 841.75 136.57 476.24 666.91 1021.70 398.29 1232.79 413.15 1156.98 515.57 1045.74 637.73 1214.91 649.56
00005014 00000051 839.58 138.56 474.85 667.23 1017.35 398.18 1226.72 412.34 1150.55 517.36 1041.96 639.92 1208.25 651.24
00005015 00000052 838.79 141.15 471.95 665.73 1012.15 396.73 1222.35 411.32 1143.94 517.63 1037.08 640.25 1203.77 652.00
00005016 00000053 837.70 142.12 471.31 665.38 1007.83 395.74 1219.99 411.00 1139.58 516.02 1032.75 640.02 1200.82 652.27
00005017 00000054 836.74 143.93 471.04 664.57 1005.50 395.61 1217.98 410.03 1137.24 515.30 1030.17 641.34 1197.72 652.98
00005018 00000055 836.30 143.43 472.12 665.48 1003.50 394.44 1218.84 409.20 1135.27 514.25 1027.99 641.57 1196.45 653.48
00005019 00000056 838.62 139.73 469.15 668.09 1000.30 397.34 1218.43 403.54 1142.46 516.78 1035.13 651.71 1202.69 655.74
00005020 00000057 838.68 139.81 469.45 668.52 999.33 395.40 1218.87 402.48 1141.31 514.57 1032.86 650.92 1201.46 655.70
00005021 00000058 837.94 141.13 472.69 666.63 997.08 393.63 1219.52 401.32 1139.33 510.26 1030.37 648.37 1201.51 653.80
00005022 00000059 837.69 138.67 474.62 670.30 994.01 391.97 1217.80 398.80 1134.93 507.86 1026.04 647.60 1197.89 652.28
00005023 00000060 835.50 139.78 476.50 671.48 996.49 387.53 1213.50 400.64 1124.26 503.53 1019.21 639.20 1184.46 650.43
00005024 00000061 835.29 141.38 475.64 671.21 995.06 386.56 1210.84 400.07 1121.29 501.31 1016.97 638.20 1182.16 649.89
00005025 00000062 835.04 141.08 475.43 671.60 993.50 385.77 1209.19 398.60 1119.21 500.23 1015.22 636.75 1182.44 647.63
00005026 00000063 834.82 139.09 474.85 673.21 992.78 384.66 1207.76 396.87 1118.25 498.00 1014.74 635.42 1182.08 645.62
00005027 00000064 835.72 138.98 473.31 674.52 991.67 384.41 1206.10 396.20 1116.02 496.71 1012.79 634.02 1181.29 643.80
00005028 00000065 835.22 140.09 473.37 671.68 989.99 384.65 1204.92 396.51 1113.38 496.37 1010.31 633.84 1178.79 643.64
00005029 00000066 839.58 130.92 473.66 674.69 979.97 386.19 1207.88 389.76 1114.15 493.80 1010.31 640.52 1187.60 642.19
00005030 00000067 839.41 132.35 472.08 667.28 977.36 384.15 1206.42 388.65 1110.28 489.33 1006.47 637.82 1184.43 640.35
00005031 00000068 839.16 128.76 470.59 660.96 973.95 384.60 1206.21 387.86 1106.43 487.49 1003.14 636.09 1184.22 637.53
00005032 00000069 838.34 129.69 468.83 653.79 972.19 384.71 1204.56 389.00 1103.94 486.76 1000.53 633.44 1182.79 635.77
00005033 00000070 837.82 130.43 471.84 651.24 970.71 385.70 1204.26 388.53 1102.15 486.38 1000.12 632.93 1183.39 633.99
00005034 00000071 838.00 131.97 470.27 650.52 969.49 386.84 1203.26 388.88 1100.23 486.63 997.82 631.36 1184.14 631.92
00005035 00000072 837.11 129.76 468.68 647.84 966.77 386.22 1201.37 388.00 1096.06 482.23 995.93 629.60 1182.49 629.70
00005036 00000073 835.92 125.09 469.89 649.11 963.48 383.68 1197.63 383.34 1091.50 477.58 994.74 628.56 1178.35 626.62
00005037 00000074 835.04 119.49 469.17 648.04 959.90 380.13 1194.70 380.39 1087.44 474.80 992.68 625.46 1176.36 623.64
00005038 00000075 836.22 118.86 464.75 645.75 958.44 377.33 1191.45 379.09 1084.41 468.04 990.65 619.80 1173.02 618.97
00005039 00000076 834.97 120.69 465.79 644.44 955.41 377.00 1187.11 379.00 1079.15 463.14 988.46 618.49 1168.69 617.75
00005040 00000077 833.63 117.97 465.01 657.73 951.00 374.18 1182.72 375.02 1073.57 459.53 983.44 624.29 1157.22 623.34
00005041 00000078 832.55 122.21 459.83 666.81 948.54 374.09 1176.52 372.28 1071.30 460.73 981.81 629.33 1150.27 626.71
00005042 00000079 829.83 115.01 463.73 673.09 944.76 375.15 1174.37 370.16 1067.00 457.16 979.37 628.71 1150.53 623.48
00005043 00000080 828.57 118.97 465.03 666.81 942.01 374.08 1172.48 369.29 1063.79 457.18 975.25 625.41 1149.78 620.02
00005044 00000081 827.19 120.63 464.64 661.50 939.29 373.41 1171.83 369.44 1061.08 455.21 970.61 622.68 1149.42 617.79
00005045 00000082 827.21 118.36 463.34 660.51 937.15 373.56 1170.04 369.47 1058.32 454.82 967.79 619.60 1150.88 614.23
00005046 00000083 827.91 117.33 462.11 660.07 936.26 374.19 1167.99 368.28 1055.84 454.03 967.81 617.52 1152.11 610.56
00005047 00000084 826.28 119.30 456.48 658.54 936.54 374.79 1164.92 367.14 1057.19 452.89 970.06 616.29 1152.73 607.78
00005048 00000085 826.23 122.81 455.22 653.48 935.17 374.57 1163.95 368.54 1054.30 453.01 968.07 615.29 1152.30 608.02
00005049 00000086 825.81 119.52 457.36 656.64 934.00 373.46 1164.47 368.72 1052.16 454.11 964.22 614.35 1151.57 608.09
00005050 00000087 826.64 123.48 453.97 650.01 932.75 372.65 1163.66 368.20 1050.00 453.51 962.44 613.46 1149.76 607.47
00005051 00000088 826.82 119.97 457.04 651.67 931.59 373.48 1164.42 370.07 1048.15 452.78 959.83 612.96 1150.78 607.65
00005052 00000089 827.25 121.51 455.66 650.08 930.62 373.26 1164.65 369.89 1047.39 452.80 958.73 612.87 1151.28 607.59
00005053 00000090 827.21 121.43 454.29 649.81 930.42 373.57 1164.82 371.10 1046.99 452.37 957.34 612.13 1151.74 607.64
00005054 00000091 826.74 120.09 454.48 651.19 930.16 373.68 1165.01 372.57 1046.46 452.46 955.50 610.85 1151.98 607.37
00005055 00000092 826.52 120.03 454.97 650.47 929.25 373.11 1166.32 373.46 1046.38 453.24 952.22 609.67 1153.28 607.59
00005056 00000093 827.27 119.65 454.03 648.23 928.70 373.40 1166.63 374.25 1045.08 453.16 950.45 608.91 1153.78 607.33
00005057 00000094 826.87 121.69 453.89 645.46 927.45 375.36 1165.34 375.49 1043.21 451.42 949.58 608.32 1154.09 606.10
00005058 00000095 826.41 121.23 453.11 652.69 925.91 376.51 1163.11 373.24 1041.42 450.68 949.60 612.56 1155.69 607.70
00005059 00000096 824.56 121.73 456.68 664.59 924.58 373.40 1158.22 367.14 1040.69 446.16 950.94 617.29 1152.09 610.46
00005060 00000097 823.05 117.73 456.40 670.40 921.18 371.82 1156.64 361.17 1036.84 439.24 950.76 620.88 1149.63 610.74
00005061 00000098 822.36 114.18 461.40 667.75 920.76 371.18 1153.24 356.87 1032.93 436.60 950.46 614.09 1149.11 600.87
00005062 00000099 822.87 109.75 462.51 657.18 920.53 374.08 1153.35 359.99 1032.98 436.20 951.27 605.66 1150.25 592.46
00005063 00000100 823.67 111.90 465.15 650.24 920.47 379.17 1153.86 363.51 1031.61 438.68 951.86 604.83 1151.09 590.46
00005064 00000101 824.00 112.89 468.97 650.83 920.51 385.52 1155.12 367.37 1031.24 439.25 951.95 607.75 1152.78 591.42
00005065 00000102 825.12 115.20 465.66 649.31 922.45 387.00 1158.58 372.19 1035.27 447.39 953.79 610.85 1155.10 597.29
00005066 00000103 827.91 119.07 462.11 652.25 923.92 389.59 1161.22 377.79 1036.30 458.37 953.82 618.07 1154.96 606.76
00005067 00000104 829.32 130.33 461.67 649.40 926.21 396.20 1160.55 382.48 1037.78 475.55 955.61 624.84 1155.68 611.90
00005068 00000105 830.69 145.02 463.31 650.94 929.45 404.63 1156.94 390.61 1033.78 491.01 959.12 633.99 1151.53 620.99
00005069 00000106 834.77 149.12 464.24 659.38 930.92 411.93 1158.42 400.77 1031.16 504.36 958.53 642.66 1151.45 631.96
00005070 00000107 835.91 148.40 463.90 665.20 929.66 416.96 1157.12 406.22 1030.15 513.54 957.77 648.96 1149.18 638.74
00005071 00000108 836.37 152.44 462.47 665.42 929.45 424.01 1159.62 409.34 1036.81 512.01 965.47 657.03 1153.51 642.90
00005072 00000109 838.44 148.82 463.98 668.55 927.81 423.09 1156.66 408.93 1029.24 519.21 959.67 658.39 1148.68 645.29
00005073 00000110 840.31 150.15 463.84 667.34 928.95 422.79 1158.11 408.50 1030.05 518.90 961.20 657.82 1150.35 644.61
00005074 00000111 842.05 149.27 464.11 667.67 931.98 420.62 1160.47 408.40 1032.42 517.59 963.31 656.79 1150.69 645.31
00005075 00000112 845.41 150.21 465.44 666.02 934.61 418.70 1163.49 407.83 1032.84 515.59 965.16 657.19 1150.32 646.97
00005076 00000113 848.18 142.63 464.86 672.68 938.46 417.06 1165.46 408.29 1034.22 514.25 967.52 655.45 1149.69 646.92
00005077 00000114 850.52 149.12 465.12 659.89 939.48 416.47 1166.16 407.31 1034.83 513.12 970.20 653.43 1150.47 644.55
00005078 00000115 852.68 144.52 464.36 658.08 940.91 414.98 1168.11 405.59 1035.80 510.64 971.41 652.55 1150.95 643.66
00005079 00000116 856.91 136.56 467.32 657.86 943.59 416.58 1168.31 400.17 1040.16 506.60 977.46 648.57 1147.06 635.11
00005080 00000117 859.33 131.54 466.53 660.43 945.99 414.85 1168.86 397.24 1041.00 502.55 980.40 647.18 1147.05 632.99
00005081 00000118 867.21 134.31 466.03 655.75 948.67 414.69 1176.91 393.96 1042.81 503.78 978.08 650.08 1153.98 633.01
00005082 00000119 868.24 137.67 462.90 652.00 948.46 414.48 1173.94 396.39 1040.47 502.73 980.33 646.18 1153.55 631.72
00005083 00000120 871.42 138.44 462.52 653.29 949.81 412.84 1174.77 395.12 1040.41 502.03 979.26 645.00 1154.13 631.02
00005084 00000121 872.05 141.20 464.05 646.83 950.12 409.30 1180.74 392.61 1044.28 498.60 979.86 643.40 1160.09 629.69
00005085 00000122 871.22 138.34 467.80 651.19 952.34 406.80 1185.78 390.20 1048.87 490.03 980.29 642.44 1166.25 628.48
00005086 00000123 869.58 125.42 471.68 666.14 960.54 405.22 1191.92 388.66 1058.01 482.60 989.51 639.27 1170.15 624.59
00005087 00000124 871.51 132.72 474.01 656.15 966.38 401.57 1197.09 388.58 1065.05 474.74 991.89 632.61 1172.04 620.79
00005088 00000125 870.24 124.72 474.31 670.06 974.00 399.45 1195.18 387.02 1069.91 470.70 999.34 631.66 1168.74 620.83
00005089 00000126 872.73 122.76 475.08 671.33 976.85 394.18 1198.54 384.86 1072.54 469.25 999.66 628.64 1169.42 620.48
00005090 00000127 873.18 125.05 473.22 663.25 975.86 391.76 1197.59 382.05 1072.55 464.70 998.68 624.01 1169.90 615.24
00005091 00000128 871.53 123.38 474.51 666.90 975.58 388.85 1197.53 380.07 1072.31 459.70 995.96 621.55 1171.89 613.18
00005092 00000129 869.10 116.65 478.65 674.28 974.13 391.58 1195.81 379.37 1070.49 457.38 995.14 623.31 1172.68 612.01
00005093 00000130 870.41 123.50 475.20 669.48 973.60 390.93 1195.44 377.52 1069.33 459.85 995.98 624.52 1171.08 612.55
00005094 00000131 872.09 119.15 473.23 678.16 973.20 391.66 1193.75 375.08 1066.19 461.32 996.63 626.40 1169.64 611.94
00005095 00000132 875.73 119.15 469.68 680.91 971.81 390.14 1191.90 372.09 1061.52 465.92 996.69 626.31 1172.04 610.85
00005096 00000133 880.10 116.23 468.97 692.92 971.97 392.10 1192.48 369.44 1059.73 467.17 997.60 633.12 1178.24 614.19
00005097 00000134 879.77 118.96 469.37 697.25 969.91 395.82 1190.30 367.12 1058.28 467.61 1000.92 640.05 1184.46 616.44
00005098 00000135 878.82 124.11 473.24 696.50 962.53 399.60 1186.86 365.03 1052.23 474.90 998.40 645.09 1187.31 616.31
00005099 00000136 875.38 119.10 480.90 696.99 954.16 413.45 1169.25 372.65 1036.29 487.22 996.26 645.66 1177.20 611.39
00005100 00000137 858.15 115.87 496.18 699.09 930.91 430.96 1144.25 373.46 1014.30 493.49 985.57 654.82 1170.11 606.73
00005101 00000138 846.21 124.71 502.33 692.43 918.29 442.64 1126.65 373.28 1001.80 503.44 982.36 663.77 1165.63 605.83
00005102 00000139 834.52 146.02 507.19 692.71 914.15 447.07 1123.52 374.22 1000.19 505.18 983.58 674.78 1161.26 612.29
00005103 00000140 833.39 159.42 507.01 693.45 914.22 449.61 1119.37 376.30 996.91 506.23 985.84 681.88 1159.72 619.42
00005104 00000141 833.54 150.76 507.20 704.45 913.01 452.88 1119.29 378.72 994.75 506.18 983.42 685.64 1157.16 622.55
00005105 00000142 837.75 179.54 503.96 660.39 913.17 451.34 1126.35 386.99 998.86 514.71 979.70 676.44 1157.10 621.14
00005106 00000143 831.21 178.29 507.55 647.54 899.00 455.32 1119.14 389.48 993.34 522.31 967.74 675.32 1149.38 619.98
00005107 00000144 827.18 177.38 512.32 643.33 895.35 455.04 1116.44 394.43 988.43 526.59 961.77 673.73 1140.61 623.11
00005108 00000145 827.45 168.93 508.78 649.50 896.60 457.57 1114.51 399.61 986.66 529.04 961.06 673.52 1137.58 625.53
00005109 00000146 830.24 140.82 503.02 679.22 901.74 464.37 1110.61 411.00 983.30 530.95 957.08 674.30 1134.08 631.06
00005110 00000147 835.59 139.23 494.30 671.15 909.68 471.82 1109.68 419.53 985.17 527.29 960.31 668.54 1128.30 623.62
00005111 00000148 836.82 138.49 494.97 669.79 911.12 467.54 1112.72 418.43 985.77 527.70 960.78 667.49 1128.87 625.01
00005112 00000149 840.84 156.86 490.60 651.20 913.61 455.18 1123.47 410.76 993.78 528.10 961.92 663.65 1132.65 625.54
00005113 00000150 841.92 150.03 490.27 654.10 913.67 443.62 1128.11 403.43 1000.39 525.78 963.72 657.47 1137.66 625.71
00005114 00000151 844.51 155.35 482.60 644.67 919.36 433.79 1139.21 398.65 1004.47 514.51 960.62 646.84 1137.61 615.84
00005115 00000152 844.25 138.45 490.46 656.33 920.19 427.01 1135.76 390.22 1007.58 511.51 966.17 647.21 1136.64 618.32
00005116 00000153 847.17 137.80 491.32 664.70 925.89 421.24 1136.47 385.81 1005.99 504.65 972.49 649.34 1129.79 620.51
00005117 00000154 850.10 135.00 490.14 661.39 927.42 414.72 1138.95 380.66 1007.61 499.49 976.86 651.41 1126.00 623.80
00005118 00000155 852.66 115.73 489.88 683.67 931.68 408.48 1141.66 376.89 1008.58 493.02 972.10 644.60 1128.78 619.49
00005119 00000156 854.09 116.53 489.14 676.65 933.00 406.10 1144.84 374.61 1011.83 491.17 974.38 637.90 1135.26 613.24
00005120 00000157 861.59 106.58 479.81 673.98 931.10 407.05 1154.43 375.99 1016.19 489.98 970.83 637.05 1143.48 611.69
00005121 00000158 865.47 116.36 479.19 660.41 932.12 405.43 1159.09 376.34 1021.16 488.93 970.55 633.85 1148.83 609.60
00005122 00000159 872.27 101.66 475.80 673.97 939.62 405.67 1163.45 377.18 1027.04 488.67 975.19 631.77 1150.97 608.59
00005123 00000160 879.62 105.14 475.96 682.08 947.58 401.87 1175.43 371.43 1026.97 480.90 974.76 632.34 1162.80 607.34
00005124 00000161 883.40 106.32 467.42 665.88 946.50 407.71 1170.76 379.72 1033.03 486.53 981.68 630.93 1158.82 607.98
00005125 00000162 883.36 110.54 469.80 661.76 944.18 409.81 1167.89 378.46 1030.66 488.68 981.04 632.49 1158.17 606.68
00005126 00000163 876.11 114.13 484.06 661.00 942.59 418.66 1157.45 383.50 1020.48 487.26 973.76 631.31 1151.34 601.59
00005127 DELETE   865.85 112.97 492.20 662.18 936.61 417.33 1142.64 394.49 997.35 483.67 959.25 626.17 1123.52 607.63
00005128 DELETE   861.15 104.46 489.88 668.99 923.14 416.81 1128.55 394.87 971.62 479.75 942.22 626.91 1104.77 609.65
