Video ID: 	rXX0yvTebIg
H: 	1080
W: 	1920
FPS: 	25.0

FRAME INDEX X0 Y0 W H [Landmarks (5 Points)]

00005888 00000000 579.48 239.19 395.26 532.35 664.14 467.00 835.16 437.03 764.10 580.49 738.60 673.00 863.48 646.86
00005889 00000001 576.26 241.41 394.51 529.15 661.32 464.50 832.87 438.20 760.33 577.68 732.11 670.80 856.60 647.93
00005890 00000002 574.48 237.57 394.47 532.33 661.05 463.50 833.66 437.70 760.30 576.62 729.11 668.51 856.15 646.01
00005891 00000003 578.13 232.12 392.84 533.09 662.70 459.71 836.22 432.35 762.79 570.32 729.05 665.64 857.82 641.98
00005892 00000004 580.38 233.66 393.03 532.89 667.99 455.12 839.99 424.89 769.19 559.17 734.34 659.55 864.03 633.31
00005893 00000005 581.46 230.63 395.81 534.19 669.55 451.39 842.69 419.83 771.14 552.53 734.79 655.24 868.15 627.81
00005894 00000006 583.56 226.57 394.74 534.66 671.22 449.86 843.73 419.40 771.46 549.03 733.20 651.49 867.18 624.93
00005895 00000007 584.89 226.25 394.04 533.41 672.65 449.22 844.99 420.44 773.03 548.57 733.33 650.36 866.78 625.23
00005896 00000008 584.29 232.43 395.56 530.96 675.42 449.19 847.00 424.04 776.01 555.83 736.55 653.58 864.66 631.57
00005897 00000009 583.16 229.88 396.11 537.70 676.45 452.14 847.97 426.84 779.05 559.31 738.80 659.15 863.00 636.82
00005898 00000010 583.31 229.65 391.74 539.42 675.11 452.59 849.46 427.32 779.23 560.15 736.35 660.88 864.53 638.66
00005899 00000011 576.60 231.37 392.59 538.31 670.45 455.15 844.99 428.58 776.29 562.86 731.32 661.27 862.99 638.57
00005900 00000012 569.34 235.14 389.26 538.01 659.62 455.19 839.18 433.18 764.05 568.62 717.39 663.66 855.36 645.43
00005901 00000013 553.17 250.50 393.68 525.59 650.10 461.86 826.51 436.76 753.67 570.52 709.44 666.44 844.70 646.10
00005902 DELETE   529.65 244.84 408.23 530.58 632.03 466.71 809.55 433.59 731.83 573.40 701.25 659.30 837.82 631.44
00005903 00000015 521.33 251.20 404.73 526.15 618.65 473.31 792.66 433.77 723.49 576.01 687.54 668.91 824.12 635.21
00005904 00000016 514.99 246.81 398.96 527.62 612.00 470.97 784.43 431.70 717.91 573.52 682.57 668.27 816.03 635.02
00005905 DELETE   514.16 239.42 392.55 533.81 604.34 470.14 773.25 431.78 707.40 569.35 675.21 667.19 804.97 634.90
00005906 00000018 506.54 240.39 391.68 528.77 597.27 464.86 767.41 430.38 699.98 566.38 666.58 664.90 795.56 635.62
00005907 00000019 499.84 233.35 390.42 535.33 589.08 462.51 761.62 430.47 691.04 565.21 654.05 662.83 788.49 635.98
00005908 00000020 496.83 238.48 390.58 529.24 585.16 459.79 758.31 429.51 686.59 564.62 648.75 663.00 783.36 638.19
00005909 00000021 493.68 251.29 390.29 518.59 583.30 461.63 756.55 431.43 684.09 566.01 646.80 665.31 779.68 640.68
00005910 00000022 493.08 252.34 389.41 520.10 580.72 466.40 752.83 435.27 681.44 568.03 643.75 668.29 776.28 644.02
00005911 00000023 490.50 253.50 391.42 520.29 579.30 469.64 751.56 439.06 679.09 571.42 642.26 669.59 775.30 645.65
00005912 00000024 492.03 252.29 390.44 520.55 579.83 471.12 752.69 441.68 679.07 573.54 642.71 671.04 775.52 647.89
00005913 00000025 493.05 252.15 390.79 520.53 582.03 469.71 754.56 441.95 681.91 573.18 644.14 669.82 776.78 647.96
00005914 00000026 494.60 248.71 391.68 524.27 584.17 468.22 756.43 440.00 684.61 571.63 646.68 669.48 778.83 646.93
00005915 00000027 500.45 250.69 387.46 522.02 586.69 466.73 758.63 439.01 684.86 568.97 648.34 668.53 780.04 646.36
00005916 00000028 502.28 249.38 387.81 521.87 588.14 467.33 759.73 439.23 685.90 569.32 650.86 668.62 782.14 645.88
00005917 00000029 502.71 248.07 389.41 523.00 588.80 467.47 760.00 440.37 685.68 569.37 650.50 668.19 781.27 646.40
00005918 00000030 504.73 247.10 388.38 524.42 589.50 467.50 761.27 441.11 685.97 569.53 650.03 668.24 780.80 647.06
00005919 00000031 506.58 246.98 387.87 525.23 590.92 467.92 762.29 441.62 686.64 568.92 651.03 668.14 781.07 647.11
00005920 00000032 508.75 244.50 386.66 527.28 591.71 467.39 764.05 441.89 686.67 569.36 651.37 668.27 781.57 647.93
00005921 00000033 509.80 244.56 387.19 528.27 593.06 467.24 765.23 442.97 686.84 569.37 650.42 667.79 780.64 648.45
00005922 00000034 508.73 247.00 387.60 528.00 593.80 467.62 765.30 444.11 687.68 569.24 651.05 668.24 779.92 649.48
00005923 00000035 507.29 248.02 388.53 527.59 593.42 469.26 764.67 446.04 687.78 571.26 651.03 669.21 779.89 650.68
00005924 00000036 506.47 250.04 388.90 526.14 594.27 475.51 762.02 450.62 687.81 573.55 651.93 670.24 777.66 650.61
00005925 00000037 505.17 250.99 389.29 526.09 593.18 473.83 762.22 449.15 687.60 572.25 650.34 669.68 777.58 650.39
00005926 00000038 504.45 248.32 389.54 526.11 590.11 468.26 762.26 446.49 684.68 569.70 643.37 666.39 776.59 649.27
00005927 00000039 503.98 239.75 390.39 534.35 588.93 461.00 762.97 440.65 684.59 565.08 640.57 662.40 776.96 646.45
00005928 00000040 502.23 232.78 390.73 541.54 586.92 457.77 762.52 437.88 682.58 563.02 637.22 660.08 776.55 644.45
00005929 00000041 501.30 233.11 388.43 538.42 584.52 456.01 759.92 436.91 679.35 561.63 633.45 657.86 773.40 643.36
00005930 00000042 496.80 234.16 389.87 544.21 580.83 453.85 755.93 434.30 675.23 558.99 631.20 657.33 770.17 642.35
00005931 00000043 492.66 236.60 392.87 545.97 577.48 451.70 752.63 431.96 672.15 557.58 631.08 658.24 766.87 642.93
00005932 00000044 490.48 236.84 393.20 545.57 572.90 450.90 749.47 429.49 669.01 558.00 629.28 660.53 764.39 644.11
00005933 00000045 488.19 238.00 390.90 544.90 569.28 451.69 745.98 427.59 665.41 556.84 629.26 663.48 762.00 644.98
00005934 00000046 483.97 238.01 390.45 537.07 566.39 450.27 743.58 426.04 662.13 555.41 626.99 662.06 756.96 643.46
00005935 00000047 474.82 231.90 397.51 546.31 561.51 448.20 738.84 424.25 657.88 551.65 623.71 661.35 753.49 642.21
00005936 00000048 468.80 229.53 401.24 553.69 557.07 447.33 731.96 422.91 653.70 551.43 620.48 659.31 750.53 639.65
00005937 00000049 464.50 233.42 403.26 547.10 552.04 447.79 726.07 421.94 648.93 554.06 616.62 655.54 749.40 634.29
00005938 00000050 458.35 236.33 403.10 534.94 547.15 456.35 717.99 421.44 644.15 552.35 618.15 659.84 747.21 628.98
00005939 00000051 458.36 235.68 400.91 532.50 545.22 456.67 716.64 421.34 642.20 552.52 616.00 658.43 746.18 627.35
00005940 00000052 458.36 231.73 398.19 533.10 543.89 459.44 715.47 422.04 641.70 553.92 615.44 659.50 745.36 626.68
00005941 00000053 457.61 232.97 395.35 531.83 543.81 466.88 711.92 425.43 642.51 556.89 615.06 659.58 745.27 623.82
00005942 DELETE   456.04 231.57 397.64 531.83 542.35 466.50 711.46 424.88 641.89 556.70 613.88 657.85 745.78 621.82
00005943 DELETE   460.17 232.29 395.87 530.96 543.79 462.97 713.41 421.70 640.86 552.05 613.58 654.75 748.18 619.28
00005944 00000056 459.62 238.47 400.47 528.41 546.39 457.81 717.72 416.35 646.47 549.92 616.34 650.95 756.18 615.23
00005945 00000057 460.63 225.53 407.56 543.61 554.75 441.43 728.15 411.65 649.25 541.87 619.83 636.38 762.40 610.65
00005946 00000058 462.85 221.16 407.03 546.84 557.42 438.34 732.74 409.06 653.15 537.18 622.05 635.97 765.26 610.78
00005947 00000059 463.69 222.42 407.40 545.48 559.20 438.62 734.49 410.50 655.26 539.49 622.38 635.40 766.27 611.05
00005948 00000060 461.95 227.76 406.21 538.77 558.30 442.52 733.22 415.16 653.80 545.17 621.08 638.38 762.12 614.96
00005949 00000061 458.71 236.14 401.41 525.88 555.75 450.02 732.38 422.83 652.18 555.36 620.46 644.30 757.26 621.25
00005950 00000062 458.90 246.32 392.40 516.46 547.70 465.71 722.86 429.45 650.10 569.05 615.91 662.69 748.56 631.85
00005951 00000063 452.10 241.19 394.68 525.79 543.54 469.27 717.68 432.48 647.84 574.55 616.44 668.89 744.03 637.27
00005952 00000064 442.18 242.83 401.20 528.38 542.24 470.18 712.45 435.85 646.30 573.21 617.09 671.42 736.88 641.57
00005953 00000065 439.34 246.39 400.13 527.03 541.60 468.32 710.26 437.25 644.19 574.74 615.11 673.33 730.31 646.67
00005954 00000066 439.99 249.68 397.49 523.05 541.03 467.33 708.21 437.79 641.91 573.31 613.56 672.13 726.99 646.80
00005955 00000067 442.05 248.56 394.05 521.82 539.70 465.27 707.80 436.02 639.84 572.27 612.68 672.00 725.93 646.86
00005956 00000068 441.72 252.32 394.32 516.74 539.08 465.16 707.27 435.48 639.45 571.23 610.82 669.50 726.87 643.90
00005957 00000069 443.10 249.62 392.73 517.96 537.95 466.12 706.06 435.54 638.33 570.79 610.08 669.95 726.84 643.59
00005958 00000070 444.30 252.04 392.88 516.08 538.35 466.54 707.04 434.95 638.77 570.76 609.55 668.75 728.62 641.51
00005959 00000071 443.92 249.19 393.94 518.61 538.41 467.58 707.77 435.11 639.84 571.64 610.59 669.67 730.44 641.57
00005960 00000072 445.15 249.41 394.01 519.65 539.46 469.22 709.47 436.78 641.06 573.87 611.02 670.54 732.30 642.57
00005961 00000073 446.25 245.13 395.85 523.26 539.32 470.95 711.94 437.60 642.47 576.12 611.41 672.07 735.52 643.12
00005962 00000074 447.71 244.43 397.27 525.60 540.46 471.45 713.34 437.68 643.63 578.74 613.74 674.24 737.19 644.85
00005963 00000075 448.56 242.98 399.03 528.76 541.76 473.11 714.69 439.44 644.44 580.80 615.41 675.38 738.69 646.20
00005964 00000076 450.81 247.37 399.41 525.38 543.77 474.53 717.10 441.06 645.59 583.47 616.60 675.81 740.68 646.97
00005965 00000077 454.57 250.03 398.19 524.21 546.46 474.74 720.79 441.43 647.35 583.74 616.94 675.97 743.28 647.37
00005966 00000078 456.85 252.44 398.80 523.48 549.29 474.64 725.05 441.09 650.38 584.52 618.29 675.80 746.79 647.15
00005967 00000079 457.80 246.34 399.13 527.64 550.51 473.58 728.33 442.05 652.55 583.13 617.62 674.20 748.40 647.17
00005968 00000080 458.56 236.81 403.42 540.73 558.46 471.72 735.43 447.97 655.46 578.03 621.87 663.59 753.29 643.75
00005969 00000081 460.54 236.45 403.78 539.35 561.04 471.15 737.65 447.80 656.97 578.30 624.08 662.83 755.00 643.21
00005970 00000082 461.33 238.79 403.47 537.09 561.62 471.65 738.67 447.56 657.52 579.05 624.82 663.30 756.39 642.93
00005971 00000083 460.07 241.13 405.20 534.18 561.67 471.74 739.70 447.09 658.42 579.83 625.33 664.38 756.45 643.54
00005972 00000084 458.71 241.01 407.44 537.08 561.21 473.60 739.72 449.08 658.33 582.53 623.76 665.77 756.04 645.22
00005973 00000085 458.18 244.02 407.52 535.79 561.55 475.45 739.74 450.59 658.99 584.76 624.49 666.70 756.96 645.67
00005974 00000086 460.73 244.51 405.38 533.43 561.80 474.00 739.76 448.80 658.46 583.23 625.33 666.33 757.25 644.87
00005975 00000087 461.80 242.97 404.81 531.05 563.57 468.34 742.22 443.80 659.33 577.99 626.24 664.25 756.49 643.60
00005976 00000088 461.55 242.93 405.87 527.07 565.01 464.73 743.46 440.28 661.25 575.12 629.40 662.51 756.51 641.98
00005977 00000089 471.39 247.03 396.59 524.65 566.23 459.74 741.60 439.11 663.66 574.50 627.04 670.91 751.24 654.03
00005978 00000090 474.51 248.55 393.65 521.51 568.02 458.08 742.60 436.94 665.74 572.18 629.47 671.46 751.10 654.24
00005979 00000091 477.59 247.74 390.65 522.30 568.86 455.62 742.31 433.88 666.34 568.36 631.83 671.02 749.59 653.71
00005980 00000092 478.81 249.60 388.40 521.89 569.06 452.76 742.46 430.78 667.03 564.47 632.42 668.42 749.80 650.98
00005981 00000093 477.05 248.78 389.04 520.88 568.25 445.52 741.20 424.22 666.09 558.15 629.88 661.99 744.83 645.09
00005982 00000094 474.74 242.95 389.62 524.22 565.26 436.86 737.20 415.35 663.66 548.01 625.54 654.39 741.24 637.53
00005983 00000095 460.63 222.98 405.53 541.06 561.36 431.43 736.57 407.89 658.21 540.47 625.60 644.42 750.55 624.77
00005984 00000096 459.65 217.45 402.66 547.06 559.34 426.94 732.37 404.99 654.98 533.99 621.86 642.67 743.91 624.75
00005985 00000097 460.43 229.78 391.18 531.50 550.71 437.37 724.26 406.51 652.14 541.78 618.53 655.47 738.39 629.42
00005986 00000098 459.15 227.78 386.36 531.17 544.72 438.18 717.78 407.45 642.88 540.44 610.23 652.21 733.40 626.30
00005987 00000099 453.83 228.01 382.42 521.83 539.35 434.58 712.40 403.92 638.96 537.43 602.06 646.49 726.89 620.16
00005988 00000100 447.98 222.56 383.91 523.02 533.74 431.29 705.73 401.65 633.33 533.30 594.21 641.20 718.25 615.85
00005989 00000101 445.24 219.48 383.07 524.10 532.15 427.49 704.59 398.93 633.57 529.30 592.60 640.09 712.77 615.93
00005990 00000102 444.57 221.32 382.17 517.91 530.57 422.96 703.08 394.88 631.37 527.79 591.64 637.43 708.70 613.54
00005991 00000103 442.00 219.27 383.96 521.40 528.79 420.99 703.31 394.56 629.30 527.54 589.36 636.44 708.13 613.56
00005992 00000104 438.98 217.06 385.77 524.54 527.32 421.11 701.56 395.54 628.62 529.02 588.94 636.91 706.22 614.58
00005993 00000105 434.62 217.23 389.41 529.25 524.88 424.79 698.57 399.23 627.16 531.64 586.95 638.32 706.65 616.34
00005994 00000106 433.37 221.21 390.27 532.48 523.54 427.64 697.51 402.85 625.06 535.55 585.61 641.25 708.71 619.48
00005995 00000107 432.05 227.30 391.87 527.08 524.00 429.79 696.98 405.89 625.28 539.35 586.56 643.07 709.51 621.87
00005996 00000108 433.22 233.01 392.16 525.22 525.62 433.47 697.69 409.04 626.90 544.08 588.99 646.12 710.97 624.44
00005997 00000109 433.38 237.83 393.01 527.72 525.92 438.90 698.30 413.54 626.88 547.32 588.50 651.09 710.82 629.15
00005998 00000110 437.48 234.75 389.62 531.66 528.36 443.67 699.00 418.90 628.18 552.13 590.84 655.95 710.45 635.25
00005999 00000111 440.48 232.04 388.64 535.52 530.47 448.11 703.16 422.88 632.09 557.02 593.82 659.81 715.53 638.44
00006000 00000112 442.56 237.85 388.08 529.19 532.89 448.16 707.39 424.27 635.28 560.80 597.33 662.43 718.77 641.67
00006001 00000113 445.53 239.08 386.25 528.93 535.45 450.99 711.26 426.89 637.49 563.27 597.33 664.32 721.34 643.28
00006002 00000114 445.28 241.35 388.65 528.14 537.27 452.14 714.42 428.60 639.88 565.71 600.61 666.67 723.71 645.92
00006003 00000115 446.93 237.23 388.22 531.35 538.80 453.28 716.01 429.72 642.41 569.21 602.00 667.44 725.21 646.82
00006004 00000116 448.08 240.33 389.59 530.03 541.28 455.81 717.03 431.76 644.18 571.36 603.77 667.95 726.38 646.96
00006005 00000117 448.77 236.95 390.64 533.75 542.40 457.95 717.38 433.60 645.50 572.80 604.94 669.11 727.14 647.81
00006006 00000118 450.57 232.65 389.63 537.81 542.65 458.92 719.63 434.53 646.81 574.97 606.29 670.91 730.71 649.54
00006007 00000119 450.75 233.07 392.95 540.55 543.64 461.48 721.52 436.24 647.70 577.43 606.90 672.06 733.71 649.91
00006008 00000120 453.73 242.20 394.34 534.48 545.81 464.40 725.15 436.82 649.93 581.44 609.80 674.66 739.33 650.72
00006009 00000121 455.86 246.60 394.83 533.05 548.59 467.29 727.59 439.41 652.36 584.95 612.61 675.64 743.86 651.78
00006010 00000122 457.98 247.82 396.20 534.64 551.72 470.70 730.02 442.72 655.06 588.34 615.03 677.40 746.76 653.46
00006011 00000123 457.62 256.70 398.25 526.49 554.81 471.77 733.73 443.27 657.72 589.98 617.06 678.76 747.72 654.43
00006012 00000124 458.20 259.23 399.71 528.13 556.66 473.16 733.70 444.42 659.49 590.98 618.27 678.31 749.27 653.78
00006013 00000125 457.93 259.68 401.79 526.59 557.16 473.14 735.04 444.38 660.38 590.31 619.03 677.92 750.27 653.21
00006014 00000126 459.64 259.43 399.42 524.49 557.30 471.77 736.04 443.36 660.33 589.73 617.55 675.62 751.05 651.34
CROP_BBOX: 279 0 1349 1022
