Video ID: 	lr13xnKdwfQ
H: 	1080
W: 	1920
FPS: 	25.0

FRAME INDEX X0 Y0 W H [Landmarks (5 Points)]

00004615 00000000 722.46 170.97 345.10 495.65 880.46 371.29 1031.17 385.54 1006.53 447.36 909.58 548.45 1023.45 560.18
00004616 00000001 722.53 171.56 344.93 495.12 880.40 371.53 1030.94 385.42 1006.16 447.45 909.80 548.56 1023.13 559.97
00004617 00000002 722.81 172.14 344.62 494.77 880.65 372.53 1030.82 386.10 1005.94 447.97 909.64 548.71 1023.14 559.92
00004618 00000003 724.13 173.36 344.04 494.09 880.64 372.41 1031.69 385.59 1005.76 448.77 909.59 549.26 1023.55 560.14
00004619 00000004 724.71 173.51 343.77 494.57 881.41 373.80 1032.07 386.28 1006.17 449.66 910.19 549.99 1023.96 560.35
00004620 00000005 725.12 173.47 344.12 495.06 882.20 375.25 1032.67 387.93 1006.54 450.33 910.48 550.63 1024.28 561.26
00004621 DELETE   726.97 172.19 342.76 496.95 885.41 380.71 1033.53 395.06 1008.09 452.23 909.73 551.08 1024.14 563.55
00004622 00000007 726.39 173.56 344.17 495.54 885.94 384.47 1032.78 400.13 1006.03 453.50 908.48 551.15 1022.10 564.54
00004623 00000008 727.53 173.75 343.36 495.97 885.07 381.84 1033.93 395.84 1007.95 452.84 909.46 551.65 1024.58 563.80
00004624 00000009 727.55 174.31 344.93 495.50 883.93 378.27 1036.03 391.32 1009.48 451.44 910.94 552.18 1027.13 563.29
00004625 00000010 727.53 174.35 346.23 495.70 882.81 376.51 1035.81 388.20 1008.82 449.94 911.67 552.27 1027.65 562.10
00004626 00000011 727.97 173.90 346.68 495.82 882.70 376.27 1036.48 388.16 1009.29 449.72 911.67 552.31 1028.50 562.31
00004627 00000012 728.20 173.78 346.97 496.14 883.11 376.60 1037.09 388.45 1010.25 449.46 912.58 552.44 1029.48 562.40
00004628 00000013 728.74 174.04 346.97 495.93 883.58 376.68 1037.86 388.15 1010.93 449.32 913.39 552.73 1030.10 562.32
00004629 00000014 728.70 173.68 347.71 496.21 883.87 376.27 1038.63 387.65 1011.31 449.20 913.67 553.06 1030.56 562.52
00004630 00000015 728.66 173.52 347.47 496.61 883.99 376.78 1038.39 387.95 1011.48 449.49 913.81 553.21 1030.59 562.50
00004631 00000016 728.63 173.55 347.33 496.54 883.68 376.76 1038.24 387.98 1011.32 449.53 913.69 553.39 1030.59 562.71
00004632 00000017 728.08 173.85 347.81 496.93 883.93 376.85 1038.29 387.83 1011.64 449.64 914.13 553.64 1030.67 562.70
00004633 00000018 728.83 174.35 346.87 495.94 883.83 376.91 1038.49 387.81 1011.23 449.82 914.34 553.96 1030.75 562.92
00004634 00000019 728.25 176.04 346.57 494.61 883.79 377.33 1038.21 388.14 1011.16 449.99 914.55 553.97 1030.68 562.74
00004635 00000020 728.27 175.38 346.57 494.99 883.69 377.61 1037.62 388.52 1011.21 449.84 914.28 553.89 1030.46 562.82
00004636 00000021 727.84 175.32 346.59 495.08 883.53 377.55 1037.31 388.12 1010.95 450.02 914.16 553.88 1030.46 562.57
00004637 00000022 726.99 175.91 346.95 494.23 882.75 377.51 1036.43 387.93 1009.90 449.60 913.70 553.36 1029.93 561.86
00004638 00000023 726.91 175.70 346.49 494.58 882.48 377.12 1035.94 387.39 1009.55 449.64 913.22 553.17 1029.25 561.62
00004639 00000024 726.66 175.15 346.52 495.15 882.09 377.05 1035.26 387.41 1009.26 449.49 912.99 552.84 1029.11 561.40
00004640 00000025 726.42 174.96 346.43 495.98 881.65 376.68 1035.75 386.63 1010.56 448.98 912.56 552.51 1030.19 560.85
00004641 00000026 726.17 174.65 346.84 497.13 881.29 376.28 1035.98 386.77 1010.84 448.97 911.38 552.16 1030.27 561.04
00004642 00000027 726.03 174.98 346.63 497.16 880.61 375.57 1035.29 386.09 1009.81 449.08 909.54 551.27 1029.02 560.28
00004643 00000028 725.76 174.92 346.18 498.78 879.48 375.03 1034.69 386.22 1009.22 449.77 906.92 551.03 1028.09 560.74
00004644 00000029 725.95 174.99 346.73 500.64 879.33 375.19 1035.83 387.06 1009.46 450.22 906.42 552.14 1028.71 562.35
00004645 00000030 726.19 174.39 345.88 501.08 879.33 375.65 1036.41 387.14 1010.16 451.10 906.30 552.87 1028.83 562.89
00004646 00000031 727.01 174.35 345.49 502.29 879.41 376.23 1036.98 387.32 1010.16 451.94 905.92 553.63 1029.15 563.47
00004647 00000032 727.23 174.74 345.84 502.74 879.55 377.06 1037.30 388.39 1009.74 452.07 905.23 554.17 1029.03 564.22
00004648 00000033 727.97 174.60 345.25 504.37 879.29 377.62 1037.55 388.58 1009.58 452.69 904.53 554.85 1029.06 564.69
00004649 00000034 727.49 174.71 346.20 504.37 878.87 377.90 1037.25 388.42 1008.62 453.30 904.30 555.03 1028.82 564.48
00004650 00000035 728.22 174.23 345.85 506.14 878.37 378.00 1036.41 387.16 1007.88 453.12 904.44 555.30 1028.60 563.63
00004651 00000036 728.93 173.73 345.07 507.04 877.86 378.26 1036.47 386.79 1007.46 453.86 903.85 556.04 1028.91 563.90
00004652 00000037 728.90 174.33 345.62 507.25 877.56 378.69 1036.91 387.20 1007.20 454.25 903.59 556.34 1029.41 564.14
00004653 00000038 728.86 174.40 344.75 507.37 877.79 379.53 1036.48 388.68 1006.84 454.59 903.89 556.61 1028.56 564.91
00004654 00000039 729.72 173.99 344.47 507.88 878.63 379.27 1037.32 388.31 1007.76 455.05 905.37 557.39 1028.79 565.56
00004655 00000040 730.23 174.11 344.46 507.90 878.70 379.12 1037.68 388.66 1007.65 455.23 905.64 557.94 1028.76 566.49
00004656 00000041 730.59 174.07 344.18 508.19 878.29 378.69 1037.42 387.67 1006.96 455.54 905.81 558.61 1028.05 566.69
00004657 00000042 731.26 174.36 344.10 507.94 878.41 378.42 1037.48 387.12 1006.92 455.86 906.51 559.20 1028.09 567.03
00004658 00000043 731.38 174.51 344.43 507.99 878.52 377.96 1037.30 387.06 1006.75 455.84 906.88 559.50 1027.69 567.60
00004659 00000044 731.94 174.43 344.70 507.01 878.77 377.66 1037.78 386.47 1007.10 455.11 907.30 558.91 1028.46 566.69
00004660 00000045 732.06 174.00 344.08 506.89 878.97 376.68 1037.19 385.09 1007.29 455.83 906.47 558.41 1027.37 566.08
00004661 00000046 731.73 173.61 344.30 508.26 879.35 375.71 1037.09 383.75 1008.32 455.73 905.76 557.72 1027.37 565.30
00004662 00000047 731.42 173.60 344.68 507.88 879.09 375.82 1037.03 383.67 1008.65 455.20 905.35 557.18 1028.06 564.58
00004663 00000048 731.78 173.29 344.82 508.80 879.29 376.26 1036.88 383.48 1008.63 454.91 904.61 556.48 1028.33 563.48
00004664 00000049 732.09 173.30 344.78 508.96 879.49 376.27 1037.45 383.28 1009.76 454.95 904.05 556.40 1029.42 563.34
00004665 00000050 731.29 173.72 344.63 505.42 880.13 375.80 1037.43 384.06 1009.98 453.83 905.37 554.98 1028.86 562.77
00004666 00000051 731.20 174.06 346.32 504.40 880.58 376.28 1038.75 384.79 1009.94 452.92 906.62 555.13 1029.97 562.93
00004667 00000052 730.71 174.80 347.26 503.16 880.79 376.32 1039.35 385.15 1010.15 452.19 906.90 554.53 1030.33 562.46
00004668 00000053 730.87 175.70 347.29 501.75 881.08 376.83 1040.51 386.69 1010.92 451.34 906.34 553.79 1031.96 562.52
00004669 00000054 730.85 175.51 347.32 501.55 881.05 376.85 1040.12 386.53 1010.65 450.96 906.68 553.43 1031.92 561.99
00004670 00000055 730.63 175.69 347.78 500.82 881.14 376.99 1039.77 385.77 1011.09 450.76 907.39 553.42 1032.32 561.23
00004671 00000056 730.46 175.51 347.51 499.89 881.15 377.03 1039.19 385.11 1011.12 450.56 907.82 553.01 1031.99 560.29
00004672 00000057 730.39 175.15 347.25 499.97 881.07 376.78 1038.87 385.11 1011.03 450.10 907.68 552.40 1031.90 559.90
00004673 00000058 730.08 175.32 347.48 498.98 881.07 377.06 1038.26 385.26 1010.71 450.31 907.81 552.11 1031.37 559.50
00004674 00000059 729.37 175.20 348.09 498.95 880.88 376.86 1037.63 384.97 1010.54 450.22 907.67 551.97 1030.97 559.31
00004675 00000060 729.27 175.02 347.87 499.36 880.66 377.16 1037.26 385.14 1010.40 449.88 907.65 551.92 1030.75 559.18
00004676 00000061 729.31 174.95 347.66 499.12 880.87 377.46 1037.31 385.13 1010.48 449.60 908.88 552.30 1031.15 559.20
00004677 00000062 728.96 175.03 347.38 499.33 880.45 377.51 1037.12 385.66 1009.84 449.97 908.24 552.16 1030.72 559.40
00004678 00000063 728.43 175.51 347.48 498.99 880.03 377.65 1036.65 385.88 1009.43 449.81 907.99 552.06 1030.59 559.31
00004679 00000064 728.38 175.54 347.40 498.87 880.02 377.78 1036.64 386.10 1009.26 449.91 907.78 552.02 1030.50 559.36
00004680 00000065 728.23 175.61 347.45 498.91 879.88 377.90 1036.44 386.34 1009.17 449.79 907.67 552.01 1030.53 559.43
00004681 00000066 727.73 175.34 347.42 499.17 879.32 377.88 1035.84 385.94 1008.53 449.77 907.35 551.95 1030.14 559.04
00004682 00000067 727.77 175.15 347.42 499.12 879.07 377.12 1035.81 385.11 1008.32 449.62 907.32 551.91 1030.00 558.90
00004683 00000068 727.43 175.32 347.32 498.31 878.81 377.10 1035.24 384.58 1008.06 449.32 907.39 551.68 1029.88 558.26
00004684 00000069 727.25 174.64 347.82 499.31 878.60 376.39 1035.40 383.80 1008.08 449.07 907.56 552.06 1029.98 558.56
00004685 00000070 727.28 174.82 347.96 499.25 878.55 375.50 1035.56 383.93 1008.09 448.28 907.01 551.71 1030.08 559.03
00004686 00000071 726.99 173.96 347.56 499.62 878.29 374.10 1034.99 383.34 1007.84 447.10 907.20 550.78 1029.81 558.83
00004687 00000072 725.94 173.03 348.31 500.53 877.79 372.79 1034.00 383.33 1007.31 445.96 906.15 549.77 1028.53 558.96
00004688 00000073 726.04 172.22 347.15 500.27 877.97 371.21 1032.19 382.82 1006.77 444.38 905.83 548.02 1026.78 558.27
00004689 00000074 725.79 170.17 346.65 501.45 877.83 368.30 1031.14 381.38 1006.79 442.14 907.11 547.13 1025.73 558.49
00004690 00000075 725.81 168.77 347.01 502.47 876.81 365.54 1029.97 377.39 1005.03 441.50 908.76 547.20 1025.01 557.26
00004691 00000076 725.46 170.41 347.05 499.54 875.02 365.37 1027.85 374.68 1001.83 441.59 910.82 548.22 1024.48 555.75
00004692 00000077 723.53 172.20 346.66 498.52 871.76 368.02 1024.10 375.07 997.48 443.34 911.12 550.48 1024.29 555.85
00004693 00000078 717.99 168.67 345.26 508.13 863.07 370.57 1015.61 374.09 987.77 447.57 904.28 554.50 1019.00 557.34
00004694 DELETE   712.11 171.15 342.79 504.70 851.73 372.96 1003.96 370.02 972.55 454.30 895.06 560.35 1006.19 558.41
00004695 00000080 693.13 163.90 359.06 506.28 839.03 369.60 1005.69 368.91 959.74 444.94 876.09 554.04 1000.39 553.05
00004696 DELETE   691.72 153.62 356.63 508.75 835.95 352.78 1003.34 357.73 953.35 421.53 865.88 536.54 990.85 539.77
00004697 DELETE   692.30 141.67 358.53 499.16 836.43 336.22 1002.63 350.58 948.18 404.24 864.37 517.37 988.30 528.36
00004698 DELETE   691.09 128.99 360.02 498.79 834.54 323.40 996.03 341.63 942.12 389.66 855.30 497.05 983.42 512.42
00004699 00000084 696.15 125.87 353.00 492.21 830.15 314.18 998.65 335.92 945.61 374.09 845.19 488.87 982.55 508.48
00004700 00000085 695.70 123.50 352.00 490.10 828.26 315.55 1000.92 336.53 943.20 379.99 843.48 491.43 982.36 510.08
00004701 00000086 698.12 125.02 351.53 490.32 832.27 318.01 1004.80 342.32 944.97 386.83 843.63 493.53 982.17 515.31
00004702 00000087 701.31 127.61 354.65 496.06 849.19 324.44 1009.85 347.64 958.07 398.46 862.09 498.01 989.71 517.46
00004703 00000088 708.41 127.82 354.80 496.97 856.83 331.32 1019.88 356.03 968.14 402.78 871.14 503.97 999.43 524.68
00004704 00000089 713.77 130.88 352.75 496.89 864.58 334.03 1028.09 360.54 979.65 406.29 879.05 506.99 1007.25 529.40
00004705 00000090 716.69 131.51 350.33 495.61 869.93 335.04 1030.63 361.25 985.13 405.50 884.97 504.42 1010.71 526.46
00004706 00000091 713.71 133.02 354.34 487.30 868.72 332.55 1025.51 350.00 987.87 411.84 887.47 509.45 1009.18 522.80
00004707 00000092 718.53 129.20 346.19 495.34 872.48 332.73 1032.79 358.83 991.17 402.81 886.97 500.79 1014.90 522.86
00004708 00000093 718.91 129.00 346.20 491.90 873.11 332.40 1029.37 355.11 991.91 400.41 892.15 499.63 1015.78 518.69
00004709 00000094 712.99 125.63 349.62 484.80 870.48 330.70 1022.99 338.77 993.47 404.73 896.32 504.95 1016.00 512.23
00004710 00000095 714.65 127.61 347.01 481.13 871.20 333.20 1021.81 334.99 993.68 405.69 901.48 506.63 1017.62 508.85
00004711 00000096 720.48 126.60 345.54 488.30 870.29 337.40 1026.03 342.44 992.34 402.43 905.93 502.29 1026.13 506.20
00004712 DELETE   716.21 133.98 351.92 489.02 873.68 353.64 1027.26 356.42 997.65 411.60 910.29 513.43 1028.48 515.48
00004713 DELETE   720.07 139.97 345.07 493.35 871.07 369.37 1025.61 363.07 997.02 431.95 915.48 533.07 1030.21 527.70
00004714 00000099 725.08 151.69 341.43 487.75 877.29 376.65 1020.76 357.18 1001.46 443.76 926.97 545.42 1032.04 532.06
00004715 00000100 720.83 165.13 346.39 495.76 874.94 371.59 1021.03 360.03 1005.10 447.50 924.22 553.23 1027.13 543.85
00004716 00000101 720.18 167.57 348.17 497.98 873.02 379.44 1019.89 366.96 1005.31 449.44 924.03 557.28 1030.02 547.23
00004717 00000102 720.21 168.32 347.86 503.00 869.32 384.70 1017.64 368.13 1002.82 453.56 919.12 560.80 1030.87 547.60
00004718 00000103 721.34 170.29 345.29 504.97 869.57 389.56 1016.85 373.77 1002.25 457.52 915.47 562.64 1029.20 550.48
00004719 00000104 719.95 177.09 346.75 500.40 872.90 400.09 1015.23 387.22 999.62 463.41 912.57 564.28 1022.15 554.66
00004720 DELETE   720.22 175.75 345.71 501.96 872.41 398.51 1015.68 384.05 999.40 463.34 918.09 566.21 1024.45 554.86
00004721 00000106 720.34 173.24 343.53 503.41 869.38 395.85 1011.92 376.92 998.12 463.99 920.20 566.97 1023.91 551.99
00004722 00000107 720.35 172.83 343.50 506.90 868.43 393.73 1008.67 371.76 996.69 465.01 915.90 566.02 1021.79 549.05
00004723 00000108 719.73 173.03 342.31 506.60 864.13 392.95 1007.22 372.62 992.25 464.21 911.23 564.89 1019.74 549.35
00004724 00000109 718.28 174.26 343.32 508.81 863.07 394.50 1007.02 376.50 989.38 466.26 905.52 564.74 1015.90 551.20
00004725 00000110 717.06 177.33 345.77 507.03 862.91 396.69 1006.85 376.75 990.93 468.62 894.29 560.87 1015.69 546.86
00004726 00000111 714.99 180.44 349.27 509.50 861.65 399.03 1009.38 378.06 990.39 472.10 884.46 559.30 1016.96 545.22
00004727 00000112 713.98 182.11 351.36 509.68 860.39 399.87 1009.44 377.70 989.73 473.39 877.81 556.40 1017.78 541.79
00004728 00000113 712.71 184.40 353.15 508.52 859.53 401.08 1009.78 377.62 990.01 474.36 874.61 556.04 1018.52 540.51
00004729 00000114 712.30 185.48 353.26 507.16 858.54 401.50 1009.17 376.00 989.84 473.93 874.01 556.07 1018.95 538.98
00004730 00000115 711.28 186.67 354.99 505.82 857.25 401.72 1008.67 374.12 989.73 474.47 872.80 555.68 1019.56 537.02
00004731 00000116 710.75 184.66 354.46 506.86 856.99 401.05 1007.97 373.75 989.13 474.71 871.89 554.68 1018.58 536.45
00004732 00000117 709.47 183.12 355.61 507.75 855.66 400.41 1007.69 372.61 987.99 473.83 871.27 554.99 1018.31 536.28
00004733 00000118 709.05 183.60 355.71 506.78 854.63 399.80 1007.19 371.84 986.64 474.05 870.39 554.80 1018.04 535.89
00004734 00000119 708.09 185.00 356.15 505.44 852.65 399.65 1005.85 371.81 984.04 473.35 869.71 554.95 1017.62 535.83
00004735 00000120 706.85 185.05 357.08 505.92 851.90 399.99 1005.88 371.98 984.40 473.39 868.76 555.08 1018.24 535.81
00004736 00000121 705.96 187.24 358.10 503.31 850.53 400.86 1006.02 370.94 983.65 473.74 868.64 556.85 1018.87 535.90
00004737 00000122 705.97 189.21 358.04 501.11 850.24 400.79 1005.69 370.65 983.14 473.63 868.47 557.33 1018.15 536.20
00004738 00000123 705.56 188.29 358.44 501.82 849.99 400.84 1004.44 370.29 983.22 473.05 868.55 556.21 1018.17 534.71
00004739 00000124 704.98 185.81 359.51 504.23 849.80 400.75 1004.12 369.51 983.53 472.25 869.05 555.72 1018.69 533.68
00004740 00000125 705.39 186.11 360.09 504.29 850.19 400.69 1003.82 368.63 984.62 471.64 869.45 554.81 1019.33 532.21
00004741 00000126 704.51 183.17 360.89 507.22 850.11 399.31 1003.54 368.35 984.15 471.18 869.68 554.39 1018.64 532.59
00004742 00000127 705.13 182.34 360.36 507.68 850.47 399.21 1003.24 367.74 985.08 470.73 869.81 554.11 1018.56 532.00
00004743 00000128 705.01 183.01 360.57 507.09 850.42 399.12 1003.08 367.45 985.03 470.55 869.73 553.88 1018.36 531.61
00004744 00000129 705.30 183.03 360.41 507.09 850.26 399.03 1003.24 367.48 984.60 470.75 869.93 554.28 1018.42 532.07
00004745 00000130 705.82 182.46 359.69 508.06 850.20 399.62 1003.27 367.69 983.99 471.02 870.18 555.33 1018.41 532.73
00004746 00000131 705.86 183.84 359.38 506.49 850.33 399.78 1003.84 368.18 983.79 470.47 870.71 555.55 1018.63 533.18
00004747 00000132 706.10 184.48 359.51 506.15 850.66 399.74 1003.93 368.03 984.33 470.66 870.90 555.81 1018.45 533.41
00004748 00000133 706.03 183.84 360.07 506.74 851.21 400.20 1004.12 368.07 985.48 470.77 871.58 555.29 1019.03 532.63
00004749 00000134 706.23 182.69 359.59 507.93 851.25 399.37 1003.98 367.89 985.48 470.37 871.37 554.69 1018.86 532.58
00004750 00000135 706.29 181.08 359.91 509.01 851.22 398.77 1003.63 367.38 984.87 469.36 872.83 554.02 1019.18 531.83
00004751 00000136 706.84 179.25 359.85 510.59 851.36 398.07 1002.99 366.47 984.94 468.23 873.71 553.43 1019.32 531.06
00004752 00000137 706.38 177.35 360.75 512.85 850.29 398.83 1002.22 365.22 984.75 467.10 874.53 553.84 1020.83 529.65
00004753 00000138 706.69 175.95 359.57 513.61 850.73 399.09 1001.25 365.42 985.43 467.11 874.27 554.39 1019.00 530.52
00004754 00000139 706.58 175.84 359.29 513.78 850.62 398.65 1001.01 365.70 984.61 466.70 874.61 554.70 1018.37 531.30
00004755 00000140 706.80 175.75 358.56 513.70 850.28 399.11 1000.46 366.12 983.82 466.88 874.55 554.89 1018.13 531.44
00004756 00000141 707.38 176.32 357.58 513.16 850.34 399.53 1000.20 366.68 983.47 466.92 874.85 555.66 1017.24 532.22
00004757 00000142 707.63 178.48 356.65 510.22 849.96 400.30 998.69 366.55 982.42 466.65 875.43 556.86 1016.39 532.58
00004758 00000143 707.77 178.12 354.76 507.25 849.66 401.61 997.64 368.85 980.09 466.42 880.45 559.40 1014.78 535.30
00004759 00000144 708.02 179.82 352.15 501.83 848.54 400.78 997.36 369.46 977.74 465.49 886.68 562.52 1013.90 538.78
00004760 00000145 708.42 179.00 349.53 499.19 845.68 398.18 997.07 366.66 975.22 464.23 890.73 565.95 1014.25 541.50
00004761 00000146 707.62 179.96 346.81 500.38 840.44 398.77 993.50 365.90 970.21 462.36 888.89 567.57 1015.32 542.02
00004762 00000147 703.09 179.13 347.32 502.86 833.63 398.42 989.56 363.30 963.42 459.38 882.43 567.31 1012.43 540.27
00004763 00000148 698.25 171.84 352.11 509.72 828.73 398.40 987.01 361.10 956.09 461.27 874.82 569.05 1005.55 538.65
00004764 00000149 694.92 171.06 353.81 509.93 825.62 400.93 982.56 363.39 948.92 462.58 871.67 568.87 1001.76 538.33
00004765 00000150 693.45 176.98 356.74 501.30 823.33 402.82 979.50 364.33 944.33 465.83 873.60 568.69 1000.74 537.33
00004766 00000151 690.85 182.44 351.54 491.97 813.35 415.11 977.44 366.79 941.95 471.43 861.92 575.60 1002.75 537.28
00004767 00000152 690.85 182.66 349.97 492.85 812.57 415.69 975.69 368.48 939.08 472.65 861.43 578.05 999.69 540.47
00004768 00000153 689.23 183.46 349.06 496.53 810.89 416.04 972.99 368.89 935.73 474.32 860.03 581.25 995.94 543.63
00004769 00000154 688.86 183.59 348.94 497.98 809.77 415.54 971.63 369.27 934.04 473.83 859.64 582.42 994.45 545.34
00004770 00000155 688.76 183.94 349.72 498.07 809.93 415.05 971.62 369.23 934.00 472.75 860.08 582.25 994.76 545.51
00004771 00000156 689.03 184.30 350.22 497.81 810.01 414.77 971.67 369.47 933.82 472.58 860.63 582.45 995.05 546.11
00004772 00000157 689.57 184.70 350.43 497.89 809.83 414.46 972.25 370.91 932.57 473.62 858.68 582.67 993.47 547.80
00004773 00000158 689.85 185.29 351.37 498.09 810.41 415.66 972.95 372.33 933.76 473.31 858.00 581.78 994.79 547.09
00004774 00000159 690.94 184.76 352.26 495.04 810.46 415.55 974.58 371.32 934.29 472.44 857.81 579.56 996.92 544.25
00004775 00000160 691.11 183.45 354.16 492.85 810.91 416.19 975.59 370.33 935.79 471.24 859.40 577.85 999.50 541.28
00004776 00000161 693.27 181.67 358.44 498.09 819.32 404.60 974.98 366.61 935.47 468.01 870.08 567.79 996.22 536.50
00004777 00000162 693.96 181.42 358.47 498.50 819.31 404.02 975.37 366.11 935.67 467.92 869.46 566.76 996.96 535.29
00004778 00000163 693.84 181.71 359.12 499.07 820.15 403.60 975.79 365.91 937.05 467.73 869.73 566.53 997.23 535.25
00004779 00000164 694.27 182.51 358.11 498.95 821.17 403.06 977.06 365.94 938.83 467.82 871.13 566.79 998.02 536.01
00004780 00000165 692.88 184.15 354.79 494.80 813.61 414.51 977.96 366.87 940.85 471.26 860.08 575.22 1003.76 537.68
00004781 00000166 692.07 184.61 355.76 497.28 813.57 414.88 976.92 367.33 940.60 471.76 859.54 574.98 1003.71 537.51
00004782 00000167 691.41 185.11 356.89 500.68 813.05 415.38 975.90 367.18 940.70 471.91 858.48 574.78 1005.05 536.73
