Video ID: 	7i-QYjGHOeQ
H: 	1080
W: 	1920
FPS: 	29.97002997002997

FRAME INDEX X0 Y0 W H [Landmarks (5 Points)]

00007180 00000000 455.46 113.13 344.65 531.40 640.07 330.42 777.49 333.68 773.00 417.63 658.29 515.47 771.77 519.04
00007181 00000001 455.72 113.69 345.24 532.42 639.77 331.60 777.88 335.73 773.52 418.99 657.13 516.95 771.14 521.18
00007182 00000002 453.20 118.82 347.51 529.71 639.22 333.24 777.89 337.65 773.91 422.96 656.34 520.71 768.81 524.91
00007183 00000003 451.79 121.07 348.90 529.83 637.55 335.47 778.16 338.69 772.77 425.53 655.83 523.81 769.07 526.86
00007184 00000004 448.37 120.58 351.24 530.37 636.32 336.43 777.03 339.55 772.60 425.89 655.76 524.22 768.64 526.99
00007185 00000005 446.25 120.68 352.47 529.96 635.16 336.42 775.75 340.35 771.28 425.49 654.93 524.07 767.15 527.38
00007186 00000006 443.55 123.48 353.12 526.87 632.30 336.43 772.90 340.64 769.49 424.82 651.63 523.55 763.72 527.11
00007187 00000007 435.70 124.82 357.77 526.54 625.36 339.53 768.86 343.42 764.61 425.77 648.19 526.56 759.48 529.41
00007188 00000008 428.55 126.15 360.76 527.01 618.59 342.61 763.52 344.75 759.59 428.02 643.56 529.80 754.44 531.18
00007189 00000009 422.89 127.57 362.94 530.28 611.39 345.11 757.80 343.79 753.80 430.82 639.20 534.23 751.35 532.82
00007190 00000010 417.80 129.04 361.83 530.68 608.31 351.44 754.29 352.61 748.44 433.99 633.10 533.72 747.32 534.62
00007191 00000011 411.16 131.47 365.21 531.38 607.47 351.36 752.33 343.02 750.69 451.64 630.47 544.81 749.01 539.11
00007192 00000012 405.30 133.01 366.79 529.83 596.65 362.58 744.99 360.84 737.39 443.45 619.75 537.90 736.01 536.85
00007193 DELETE   405.26 136.00 369.23 534.40 598.13 357.38 745.49 352.15 739.10 456.46 620.08 548.61 740.78 545.46
00007194 DELETE   402.70 135.71 370.77 537.21 596.03 358.00 742.90 355.83 734.53 459.80 618.37 550.24 735.97 549.69
00007195 00000015 401.73 136.59 370.35 537.92 593.29 355.81 743.50 354.01 733.47 460.18 615.71 551.08 736.95 550.99
00007196 00000016 400.59 135.34 372.46 539.58 590.97 354.15 744.27 352.74 732.69 460.46 614.47 551.95 739.71 551.97
00007197 00000017 402.16 128.39 370.60 541.99 586.26 361.99 738.61 354.51 727.30 451.76 616.90 547.42 735.21 540.85
00007198 00000018 408.26 127.01 372.73 547.97 593.59 347.07 746.51 347.88 738.41 443.41 627.58 549.06 743.14 549.94
00007199 00000019 413.71 128.82 372.37 547.39 598.61 344.76 753.80 346.29 744.87 442.34 631.77 551.24 749.17 552.65
00007200 00000020 416.07 129.20 372.78 549.95 599.61 342.62 756.98 344.51 746.02 443.09 629.73 552.04 749.80 553.80
00007201 00000021 415.11 129.11 374.93 548.16 597.94 342.47 757.64 345.98 743.98 443.82 626.57 550.71 749.79 553.78
00007202 00000022 413.65 125.15 378.07 551.36 595.23 342.38 759.43 346.65 743.83 443.83 625.62 550.37 753.12 553.82
00007203 00000023 413.88 125.40 377.77 551.35 594.52 343.44 757.57 346.57 742.15 443.75 628.32 552.29 752.51 554.47
00007204 00000024 414.04 127.07 378.70 551.82 596.11 344.88 759.18 347.44 744.11 447.06 630.65 555.63 753.48 557.31
00007205 00000025 419.82 133.02 376.68 555.52 602.45 347.14 761.57 350.24 747.77 450.41 634.93 561.48 752.07 563.87
00007206 00000026 424.24 136.79 375.50 560.76 606.89 351.90 766.21 355.50 751.91 457.60 634.17 566.86 752.85 570.04
00007207 00000027 427.60 136.15 374.59 563.40 611.35 356.33 767.49 358.41 755.34 459.54 636.32 568.09 755.07 570.35
00007208 00000028 431.61 136.69 374.47 561.62 615.19 357.64 771.80 359.52 759.98 459.90 638.19 567.38 760.52 569.80
00007209 00000029 440.34 134.42 370.32 562.42 623.14 357.40 778.50 359.09 768.03 458.65 644.93 566.44 768.04 569.01
00007210 00000030 448.39 132.34 367.63 562.81 630.67 357.70 784.78 360.42 775.32 456.98 650.20 565.39 773.92 569.31
00007211 00000031 455.85 133.36 365.25 562.95 638.89 358.80 789.88 364.43 782.58 455.22 655.15 564.34 779.07 571.03
00007212 00000032 462.41 134.33 367.63 563.62 647.09 359.08 798.26 366.26 790.10 454.35 664.11 564.66 787.55 572.21
00007213 00000033 457.36 143.27 375.37 557.98 651.02 359.19 798.13 362.26 795.61 463.98 680.04 565.50 793.98 569.91
00007214 00000034 459.81 147.90 376.51 556.99 648.17 360.44 793.35 364.37 786.39 460.69 677.88 567.77 790.68 571.67
00007215 00000035 460.33 151.61 376.11 556.67 646.67 366.09 792.70 368.68 784.03 465.19 675.38 570.48 789.86 573.22
00007216 00000036 462.28 154.93 373.09 556.44 646.72 369.61 792.90 372.22 783.17 468.94 674.25 573.55 788.79 576.30
00007217 00000037 462.62 157.07 371.64 556.98 646.69 373.60 792.19 375.80 782.61 472.26 674.63 576.69 788.67 579.08
00007218 00000038 463.74 158.93 370.52 557.89 647.34 376.12 793.51 377.82 784.53 475.13 675.61 579.70 790.24 581.59
00007219 00000039 463.56 160.87 370.29 556.74 647.02 377.28 793.77 379.12 784.58 476.57 675.27 580.90 790.54 582.83
00007220 00000040 469.74 158.91 367.15 556.86 651.50 380.29 803.58 386.28 790.19 472.39 666.88 579.71 793.61 585.96
00007221 00000041 468.38 158.36 367.50 556.83 649.32 379.78 802.37 385.01 788.20 472.91 665.07 580.04 793.04 585.54
00007222 00000042 468.76 158.84 367.56 555.88 649.23 378.78 802.21 383.83 788.60 471.91 665.60 579.21 793.37 584.54
00007223 00000043 462.77 161.08 370.30 552.83 644.54 374.53 791.36 377.96 780.39 473.90 672.18 577.60 788.55 580.92
00007224 00000044 462.13 159.03 371.60 553.01 645.40 373.22 790.56 376.09 779.79 471.67 673.61 575.89 787.72 578.73
00007225 00000045 462.10 157.11 371.65 551.42 645.71 371.21 790.60 373.50 780.61 469.47 673.06 572.76 787.58 575.20
00007226 00000046 462.76 154.97 374.54 550.76 647.85 368.16 791.71 369.61 783.86 465.44 677.89 570.60 789.83 572.43
00007227 00000047 460.93 151.51 377.31 551.29 649.88 362.40 793.61 364.60 788.17 460.11 681.47 567.16 792.14 569.56
00007228 00000048 462.80 144.93 374.79 552.28 651.97 357.16 796.14 359.67 792.43 454.39 685.80 562.45 795.69 564.98
00007229 00000049 462.48 137.33 377.60 551.13 657.19 354.80 806.22 356.99 802.34 457.73 690.48 560.30 803.62 563.05
00007230 00000050 464.17 131.76 378.30 552.37 657.52 350.36 807.64 353.23 801.50 455.22 690.39 557.06 805.74 560.17
00007231 00000051 466.68 128.39 371.95 550.15 651.65 351.26 800.56 350.97 794.44 445.80 686.36 552.36 798.43 552.02
00007232 00000052 466.96 124.21 371.90 551.18 652.77 348.84 799.78 347.61 793.81 443.63 686.78 549.25 797.69 548.15
00007233 00000053 468.05 121.18 372.93 552.69 653.22 346.94 800.19 345.43 793.63 441.04 685.68 546.09 798.35 544.74
00007234 00000054 468.48 120.47 374.03 551.13 653.00 345.00 800.81 343.68 793.47 438.47 684.59 542.76 799.15 541.58
00007235 00000055 468.36 119.78 373.66 550.05 652.02 343.75 800.52 342.19 792.50 436.82 683.64 540.72 799.21 539.41
00007236 00000056 468.51 119.71 373.61 548.71 651.40 342.80 801.05 341.68 792.10 435.91 682.24 538.75 799.33 537.85
00007237 00000057 468.04 119.41 374.49 548.06 650.75 342.26 801.57 340.95 792.67 435.97 681.96 538.50 800.22 537.42
00007238 00000058 468.10 118.89 374.49 548.36 650.60 342.80 801.95 341.32 792.73 435.94 681.94 538.59 800.73 537.34
00007239 00000059 468.23 118.61 374.60 548.04 650.11 343.39 802.44 341.57 792.75 435.78 681.96 538.12 801.81 536.58
00007240 00000060 468.98 119.06 374.55 546.73 651.43 345.29 802.30 342.26 792.63 436.33 684.14 538.11 802.19 535.60
00007241 00000061 469.84 119.25 374.46 546.64 652.52 346.43 803.95 343.33 793.56 436.62 684.85 537.86 803.61 535.27
00007242 00000062 472.18 117.99 374.14 548.18 654.94 347.78 806.49 343.92 795.08 436.84 686.92 538.25 806.45 534.87
00007243 00000063 474.76 117.70 373.81 549.86 658.03 349.23 808.43 343.89 796.99 437.36 690.37 539.44 809.45 534.74
00007244 00000064 476.94 117.69 373.87 549.71 660.37 349.35 811.87 344.26 799.77 438.03 692.75 540.66 812.12 536.12
00007245 00000065 478.74 120.15 375.84 546.82 662.59 351.20 818.44 346.34 804.64 438.90 694.88 541.25 817.55 536.89
00007246 00000066 481.64 121.90 376.88 548.41 665.27 353.16 824.75 347.21 812.00 441.61 697.50 545.59 823.48 540.36
00007247 00000067 487.48 122.97 377.79 554.26 672.83 346.90 833.69 347.25 820.11 446.05 703.13 553.39 826.51 553.71
00007248 00000068 492.67 128.56 377.02 554.36 683.03 349.95 838.86 351.58 828.77 451.24 709.02 557.92 827.54 559.72
00007249 DELETE   500.41 130.42 373.15 553.96 696.14 352.73 845.86 354.22 839.47 453.03 717.50 558.96 832.07 561.44
00007250 00000070 511.73 130.47 364.42 551.26 709.95 356.91 856.79 361.42 851.42 457.92 724.92 558.48 840.33 564.09
00007251 00000071 521.61 138.39 362.21 549.69 726.73 360.97 869.85 366.22 869.30 463.86 734.31 562.04 847.74 568.65
00007252 00000072 523.82 151.54 361.26 543.32 736.50 362.41 868.41 364.67 878.91 472.63 753.00 561.87 855.69 567.53
00007253 00000073 527.41 152.04 364.78 544.24 740.51 363.27 870.91 366.33 883.18 473.08 760.33 565.20 857.88 571.15
00007254 00000074 529.38 151.07 367.98 545.00 741.84 363.74 873.40 365.30 885.56 472.19 763.19 566.09 862.62 570.64
00007255 00000075 529.64 149.99 370.67 544.55 742.18 360.74 874.86 362.00 887.21 469.11 764.18 564.18 863.92 568.48
00007256 00000076 529.35 149.38 372.86 548.69 742.33 356.53 874.82 361.91 886.47 465.43 762.52 562.58 860.60 570.23
00007257 00000077 530.04 150.49 370.80 551.87 741.60 354.65 870.67 361.24 884.02 464.46 758.87 560.82 855.07 569.92
00007258 00000078 530.86 151.55 370.18 553.20 741.60 355.29 871.34 362.33 883.53 465.11 758.36 561.85 855.38 571.40
00007259 00000079 530.72 150.43 370.22 549.68 742.42 359.24 873.99 363.41 885.30 467.62 761.65 563.47 860.14 570.17
00007260 00000080 530.70 152.35 367.56 546.52 741.05 362.71 872.68 366.63 882.84 470.49 761.42 566.33 859.54 572.53
00007261 00000081 530.61 152.88 366.34 545.66 741.04 367.61 874.46 370.60 881.42 473.36 761.05 567.93 860.15 573.60
00007262 00000082 528.42 154.28 366.50 543.58 738.45 367.54 873.82 370.99 879.65 474.60 758.26 567.96 859.98 573.95
00007263 00000083 526.54 153.75 365.12 542.42 734.60 366.04 871.41 370.50 877.34 474.10 753.93 566.66 859.03 573.29
00007264 00000084 524.97 156.33 364.91 543.03 733.35 362.06 868.08 368.88 874.85 473.33 749.06 564.71 853.40 573.42
00007265 00000085 531.70 153.40 361.13 551.45 733.93 364.12 872.94 376.56 872.59 467.85 732.99 565.75 849.63 578.51
00007266 00000086 529.63 153.14 362.02 551.36 730.86 364.60 870.94 376.28 869.75 468.59 729.24 565.76 847.52 578.05
00007267 00000087 527.83 152.75 361.33 550.39 728.41 366.55 868.23 376.93 867.78 469.53 726.66 565.42 845.65 576.77
00007268 00000088 525.66 153.51 361.12 549.91 724.62 369.88 865.25 380.29 863.02 469.06 725.43 565.56 844.90 576.59
00007269 00000089 522.18 154.23 361.16 548.30 716.86 371.02 861.46 382.07 855.02 467.48 720.58 564.90 842.62 576.10
00007270 00000090 516.74 152.67 363.23 548.63 706.00 370.44 853.09 379.98 844.57 464.79 714.02 562.85 837.48 572.41
00007271 00000091 510.08 148.70 366.77 550.82 699.02 370.38 848.39 376.45 842.12 462.87 712.31 562.30 836.82 568.76
00007272 00000092 507.10 148.92 366.45 542.06 694.09 367.95 848.28 373.68 840.54 462.20 714.29 562.91 837.94 568.80
00007273 00000093 502.79 149.76 368.29 540.19 688.90 368.16 842.99 370.89 837.17 461.29 711.45 563.31 834.43 566.78
00007274 00000094 497.92 148.65 370.87 542.92 683.01 364.86 837.77 366.87 831.30 459.00 707.96 563.62 829.96 566.30
00007275 00000095 492.72 150.09 372.40 541.86 678.54 363.84 832.68 368.28 824.25 457.94 704.71 562.82 824.90 567.30
00007276 00000096 489.45 147.39 372.05 542.07 673.79 361.57 827.97 366.45 817.31 456.95 702.18 561.65 821.41 566.35
00007277 00000097 483.68 146.45 371.11 540.91 667.95 361.76 818.42 365.37 810.10 455.59 698.48 559.43 816.51 563.09
00007278 00000098 480.86 147.18 370.73 540.14 663.57 361.12 813.38 365.33 805.28 454.41 695.29 558.00 813.63 562.30
00007279 00000099 479.13 148.25 371.45 540.97 661.74 362.63 811.53 365.55 803.76 455.33 692.92 558.61 812.15 562.02
00007280 00000100 476.26 151.29 371.96 541.42 659.32 364.44 807.45 365.74 799.94 456.48 689.52 559.36 808.05 561.57
00007281 00000101 474.37 153.14 373.33 543.65 658.15 367.59 805.12 366.89 797.99 459.52 688.08 562.08 806.17 562.74
00007282 00000102 475.05 154.68 372.56 546.36 656.89 370.52 804.32 370.15 796.19 463.29 686.77 566.42 804.53 567.16
00007283 00000103 474.91 156.35 371.52 547.52 657.84 374.45 803.96 373.59 795.04 467.41 686.88 569.51 802.57 569.83
00007284 00000104 475.61 160.73 371.12 547.51 658.65 379.44 805.88 378.96 796.04 471.84 685.02 573.62 803.06 574.18
00007285 00000105 475.53 164.17 371.97 547.80 659.68 384.31 807.22 383.95 798.54 474.76 683.99 575.88 803.96 576.53
00007286 00000106 475.35 166.08 372.89 550.52 661.67 386.98 808.27 386.50 800.71 477.94 683.08 577.98 804.17 578.46
00007287 00000107 475.30 166.66 373.01 550.30 662.10 387.96 809.54 388.27 802.04 478.32 684.03 578.44 805.63 579.49
00007288 00000108 474.77 167.54 372.00 548.47 661.44 387.25 808.50 388.61 801.00 478.05 683.03 577.83 804.00 579.84
00007289 00000109 474.87 165.36 372.22 549.73 661.58 387.08 807.97 386.60 799.93 477.09 685.21 577.16 804.40 577.52
00007290 00000110 474.61 164.61 371.37 549.76 660.46 385.60 806.92 385.89 798.46 476.13 685.42 576.91 803.25 577.83
00007291 00000111 474.04 163.40 371.09 550.35 660.94 385.08 806.05 385.03 797.49 475.37 687.24 576.32 802.54 576.81
00007292 00000112 474.66 163.29 370.39 549.88 660.75 381.32 804.95 381.47 795.46 473.70 686.93 575.22 800.19 575.92
00007293 00000113 472.10 159.09 372.16 551.76 660.25 375.41 804.05 376.30 794.20 470.73 687.03 573.20 797.87 574.44
00007294 00000114 473.43 157.25 371.37 548.03 660.98 370.26 804.64 373.19 794.15 467.79 688.29 570.22 797.53 573.24
00007295 00000115 474.08 156.34 371.44 548.45 662.14 368.63 805.13 372.16 795.19 466.49 687.90 568.64 797.05 572.33
00007296 00000116 473.58 156.70 370.92 547.23 661.19 368.23 805.20 373.14 794.47 467.27 685.58 568.24 795.46 573.12
00007297 00000117 473.56 157.48 370.46 545.61 661.43 369.18 805.75 373.81 794.98 468.93 685.15 569.23 795.89 573.93
00007298 00000118 471.16 167.89 375.37 534.75 664.73 370.81 810.05 372.16 806.75 475.15 692.03 573.19 807.34 575.91
00007299 00000119 470.33 169.08 375.81 533.62 664.07 373.00 809.89 374.20 806.56 477.51 690.45 574.22 807.27 576.85
00007300 00000120 470.99 163.11 371.45 543.32 658.87 376.26 806.60 378.78 795.95 474.87 680.23 573.33 797.10 576.60
00007301 00000121 468.74 163.93 370.21 544.74 657.88 378.49 804.25 380.34 795.47 477.01 679.22 575.35 795.58 577.92
00007302 00000122 471.55 175.22 368.04 534.74 662.46 380.55 806.89 380.69 804.28 485.94 685.98 578.96 803.21 581.49
00007303 00000123 469.66 169.51 366.41 545.50 655.57 385.90 805.99 388.53 795.81 483.42 675.28 581.06 795.52 584.24
00007304 00000124 470.29 171.07 364.71 547.72 655.95 387.81 806.93 391.29 796.15 486.95 674.62 585.00 794.43 588.85
00007305 00000125 469.08 172.71 364.97 552.53 656.08 388.83 806.24 394.74 795.52 490.62 675.14 587.95 792.95 593.43
00007306 00000126 468.66 174.52 364.73 551.10 655.35 390.47 806.25 396.68 795.01 492.92 674.79 589.91 792.33 595.58
00007307 00000127 467.40 173.61 365.84 550.31 655.04 391.34 805.66 397.53 795.00 491.21 674.89 588.37 793.01 593.99
00007308 00000128 466.60 171.32 367.10 551.93 657.55 389.29 805.72 395.94 795.52 489.01 677.29 586.61 792.29 592.56
00007309 00000129 466.16 170.99 367.78 552.16 658.40 386.82 804.96 393.21 794.58 487.43 676.65 584.31 791.27 590.07
00007310 00000130 465.66 169.74 368.12 554.00 657.75 383.26 804.61 391.14 795.07 486.21 674.98 582.77 791.20 589.70
00007311 00000131 465.81 168.77 368.35 553.76 657.75 383.43 805.60 390.61 795.45 486.55 674.17 582.30 791.69 588.78
00007312 00000132 468.02 172.20 367.83 547.54 658.01 388.90 809.39 393.65 798.31 487.66 674.24 583.50 795.31 588.57
00007313 00000133 469.99 172.93 367.43 548.36 658.70 391.96 810.65 395.41 800.24 488.97 675.89 585.43 797.55 589.43
00007314 00000134 471.79 173.85 368.33 548.99 659.84 393.51 812.50 396.89 801.18 490.40 679.74 587.74 799.99 591.31
00007315 00000135 474.71 175.66 367.96 546.12 661.52 394.77 814.99 396.94 804.10 491.42 682.89 588.78 802.89 591.29
00007316 00000136 477.48 176.37 366.73 545.53 663.05 396.36 817.25 398.22 806.81 492.27 683.85 589.39 804.91 591.72
00007317 00000137 477.81 177.37 367.34 546.26 664.13 396.51 817.56 398.03 807.16 492.97 685.17 589.63 805.66 591.63
00007318 00000138 476.70 177.00 369.66 550.85 665.91 396.00 816.56 399.19 806.16 492.74 689.18 590.84 805.86 593.67
00007319 00000139 476.79 176.51 369.48 553.28 666.57 396.24 815.87 398.85 806.52 494.45 690.53 593.43 805.04 595.69
00007320 00000140 476.92 176.25 369.97 554.02 667.36 395.16 815.33 398.98 806.49 493.46 691.74 593.93 804.11 597.15
00007321 00000141 477.75 174.13 369.33 557.39 670.26 393.55 813.95 398.05 807.73 492.25 695.52 594.05 803.41 597.65
00007322 00000142 476.90 172.70 371.15 555.70 669.90 392.87 815.88 395.81 809.89 488.84 696.73 590.94 807.30 593.31
00007323 00000143 476.91 172.52 371.74 553.98 668.93 392.57 817.79 395.86 811.77 487.37 694.68 588.85 809.22 591.65
00007324 00000144 476.12 170.84 371.09 556.55 669.69 390.10 815.88 394.83 810.52 486.68 693.33 588.16 805.92 592.17
00007325 00000145 475.77 171.12 369.79 558.73 670.47 387.42 812.53 395.29 807.05 487.87 691.55 589.57 799.07 596.09
00007326 00000146 475.58 171.29 369.54 559.92 669.04 386.08 811.70 394.73 805.52 487.36 688.38 589.21 797.22 596.39
00007327 00000147 474.46 170.68 369.90 558.40 668.14 384.62 811.35 392.88 805.24 485.49 686.54 586.32 797.25 593.33
00007328 00000148 473.10 168.63 371.31 558.26 666.72 382.55 811.53 391.96 804.51 481.99 683.95 582.72 798.06 590.79
00007329 00000149 472.80 168.38 371.79 556.62 665.68 379.20 810.74 389.21 803.27 479.39 682.86 580.38 797.29 588.97
00007330 00000150 471.29 167.75 373.53 555.17 665.17 375.13 810.00 386.12 801.65 476.79 681.81 577.58 795.67 587.04
00007331 00000151 470.60 165.86 373.48 554.27 663.64 373.45 808.11 384.11 799.30 475.20 681.15 575.70 794.29 584.89
00007332 00000152 469.01 163.92 374.07 552.75 662.21 370.73 806.57 381.35 797.72 472.99 680.04 573.28 792.82 582.46
00007333 00000153 470.80 168.46 374.10 543.63 668.54 369.53 809.67 375.79 809.80 476.53 689.51 572.51 801.89 579.96
00007334 00000154 466.92 158.78 374.96 552.98 662.05 366.69 804.38 375.77 797.46 467.83 681.38 567.72 793.23 575.82
00007335 00000155 465.62 156.11 376.49 551.61 661.62 363.87 804.85 371.65 798.15 466.16 681.05 565.62 793.17 572.81
00007336 00000156 463.40 158.23 380.02 542.39 663.49 362.63 812.25 365.20 807.39 470.30 684.22 566.64 803.11 570.67
00007337 00000157 460.84 153.00 381.14 540.75 661.69 360.07 814.42 360.85 808.20 468.59 683.61 564.23 806.86 566.69
00007338 00000158 460.56 149.43 379.10 543.38 660.47 359.16 812.37 358.88 806.55 467.99 683.30 562.01 805.90 563.59
00007339 00000159 460.37 148.74 379.69 546.27 661.34 357.96 810.49 358.83 806.21 466.28 686.16 561.75 804.11 564.33
00007340 00000160 459.81 148.68 380.31 547.13 661.37 357.83 809.41 359.26 805.94 466.01 687.04 562.11 802.85 565.16
00007341 00000161 458.82 150.04 381.48 546.68 660.61 358.51 809.06 360.79 805.23 466.78 684.32 563.03 800.84 566.76
00007342 00000162 458.98 150.71 380.64 548.75 660.20 358.54 808.10 362.34 804.94 467.16 682.53 563.88 798.78 568.92
00007343 00000163 458.55 153.78 379.05 548.34 659.21 358.08 806.08 363.24 804.26 466.73 679.33 563.86 795.30 570.40
00007344 00000164 457.12 152.75 380.52 554.60 654.37 358.89 799.49 366.20 792.98 463.32 675.50 564.51 788.84 570.98
00007345 00000165 458.74 157.35 376.38 548.08 659.47 361.58 803.22 365.60 802.62 469.70 678.14 565.77 791.41 571.80
00007346 00000166 459.39 161.30 372.96 545.95 658.87 364.22 800.93 368.53 801.51 473.45 677.11 567.92 790.65 574.31
00007347 00000167 465.92 156.84 369.47 556.93 658.47 369.71 807.48 381.78 797.47 468.43 661.77 569.89 790.25 581.56
00007348 00000168 464.19 160.16 369.55 559.29 656.68 375.44 808.05 385.73 797.29 474.33 659.21 574.29 790.88 584.60
00007349 00000169 463.58 159.69 368.02 560.19 656.87 378.11 811.44 388.83 799.80 479.14 658.69 578.55 791.42 589.33
00007350 00000170 463.98 159.44 367.13 560.09 655.67 381.22 812.46 391.05 799.39 482.51 658.52 580.47 792.39 590.38
