Video ID: 	Zs30EKa2zSw
H: 	1080
W: 	1920
FPS: 	29.97002997002997

FRAME INDEX X0 Y0 W H [Landmarks (5 Points)]

00000666 00000000 657.83 181.69 382.95 501.31 858.57 343.04 1016.26 350.77 1000.86 451.24 876.27 553.70 992.90 560.67
00000667 00000001 649.67 175.39 382.18 505.43 854.39 345.20 1006.66 351.80 994.06 453.97 874.12 554.40 983.88 560.62
00000668 00000002 641.03 178.90 383.90 501.97 846.17 346.93 999.18 354.50 988.18 454.66 869.37 554.77 979.82 561.30
00000669 00000003 635.96 177.80 381.55 505.01 840.81 348.68 988.30 355.40 979.60 456.50 865.38 553.78 970.79 559.27
00000670 DELETE   631.53 177.75 380.26 509.01 839.33 353.58 979.61 361.67 976.81 453.64 863.01 552.08 963.90 558.92
00000671 00000005 626.94 178.72 380.04 511.28 837.91 355.95 972.96 364.95 973.29 452.42 857.17 551.19 956.36 559.15
00000672 00000006 622.68 179.16 380.61 506.79 834.05 353.16 970.38 364.73 969.06 449.80 853.09 545.29 954.88 554.72
00000673 00000007 619.96 172.24 382.55 505.37 827.89 347.82 967.14 356.55 960.89 446.44 855.10 542.06 956.21 548.13
00000674 00000008 620.11 169.38 382.29 504.70 825.98 340.97 966.06 348.48 962.18 439.83 860.29 541.34 959.59 545.70
00000675 00000009 620.78 165.02 381.05 506.59 828.01 336.82 966.86 343.07 965.47 436.76 864.40 539.60 962.06 542.96
00000676 00000010 619.74 160.19 380.66 510.16 826.23 335.17 965.95 342.11 964.84 433.26 865.02 538.78 962.84 542.41
00000677 00000011 618.62 160.43 377.51 508.86 823.54 331.92 960.59 342.47 959.14 432.32 861.06 536.49 956.38 543.12
00000678 00000012 611.54 160.84 381.04 506.94 820.83 331.61 956.49 344.66 958.95 432.28 857.77 534.66 952.07 543.45
00000679 00000013 606.80 157.24 381.73 514.07 819.03 331.78 951.63 346.42 958.38 429.75 855.34 534.04 949.14 544.32
00000680 00000014 601.88 152.42 381.06 522.44 816.06 333.13 947.43 348.43 955.52 431.63 847.03 532.44 943.44 543.96
00000681 00000015 597.86 155.14 381.46 524.53 812.88 336.34 941.87 350.55 950.97 434.46 839.81 531.30 939.30 542.28
00000682 00000016 603.08 167.64 377.28 519.00 813.03 342.33 950.99 350.93 956.63 442.59 829.22 545.19 937.66 553.08
00000683 00000017 603.02 165.53 373.99 524.93 812.23 344.27 951.25 355.03 953.16 444.46 825.52 548.00 934.86 557.98
00000684 00000018 601.58 165.47 374.96 532.06 812.30 346.67 951.25 358.99 954.14 450.25 824.08 552.38 932.84 563.79
00000685 00000019 603.03 157.40 371.49 542.56 813.05 346.85 949.43 362.13 954.90 449.80 826.65 556.65 928.78 571.03
00000686 00000020 603.44 166.54 370.66 532.48 809.21 348.71 951.26 360.17 952.79 452.28 824.43 557.97 931.63 569.13
00000687 00000021 602.69 164.34 370.18 530.68 808.80 351.25 951.61 359.82 952.18 453.57 824.10 557.73 933.06 566.58
00000688 00000022 602.69 165.95 368.88 525.87 808.08 353.56 950.27 359.19 950.75 453.94 823.75 558.06 931.57 564.46
00000689 00000023 602.49 162.78 367.98 526.27 806.09 353.26 950.59 358.44 949.67 454.70 823.42 557.95 932.01 563.83
00000690 00000024 598.23 162.12 370.84 528.38 803.62 354.56 949.33 359.13 947.54 454.53 822.70 559.92 930.47 565.25
00000691 00000025 594.87 165.52 373.40 527.10 801.58 355.13 946.88 358.90 945.57 455.15 821.31 560.99 928.11 565.52
00000692 00000026 593.93 162.85 372.97 530.91 802.05 356.16 947.08 360.89 944.17 457.85 821.06 563.50 926.27 568.71
00000693 00000027 593.53 169.88 373.35 523.99 800.63 355.99 947.20 359.94 943.90 459.16 820.73 563.99 926.37 568.53
00000694 00000028 594.96 164.34 370.67 527.31 800.80 356.88 946.96 360.10 943.08 458.60 821.31 564.75 925.91 568.75
00000695 00000029 593.79 163.26 371.94 526.40 800.62 357.23 945.27 358.17 942.70 457.98 821.43 563.60 924.82 565.85
00000696 00000030 593.58 163.14 371.05 524.56 801.41 359.20 945.33 362.04 942.94 456.47 821.25 561.06 925.12 564.91
00000697 00000031 597.29 172.27 368.23 517.11 802.59 365.90 946.29 368.58 942.34 457.12 821.25 561.51 926.95 565.26
00000698 00000032 596.99 169.89 368.89 520.22 802.51 368.54 944.73 370.93 942.20 456.09 820.96 561.46 926.42 565.04
00000699 00000033 597.54 169.41 368.35 522.12 802.86 368.19 945.20 371.72 941.63 455.81 820.31 562.23 925.29 566.77
00000700 00000034 597.31 170.99 368.89 520.70 802.57 366.66 943.89 371.32 940.95 454.32 820.79 561.88 924.51 567.25
00000701 00000035 597.93 170.21 369.44 520.94 801.53 366.80 943.05 368.45 941.31 453.68 821.14 561.41 926.34 564.25
00000702 00000036 598.46 167.06 369.78 521.77 798.71 364.17 942.74 365.77 939.78 451.17 820.96 560.55 927.38 563.11
00000703 00000037 598.92 168.50 368.60 518.91 793.59 358.75 940.98 362.07 934.11 446.66 819.26 559.22 927.19 562.62
00000704 00000038 594.82 166.40 372.15 521.69 789.32 354.11 936.81 357.33 929.53 442.72 816.67 557.95 924.67 560.83
00000705 00000039 591.80 167.45 373.53 521.58 782.90 352.72 931.35 353.73 923.23 441.07 812.56 558.35 922.63 559.08
00000706 00000040 589.99 163.62 374.74 526.45 780.51 352.03 927.30 351.50 918.65 440.16 810.86 558.73 921.14 558.19
00000707 00000041 587.88 162.69 376.28 527.86 775.08 348.10 922.31 346.34 912.05 437.96 806.67 558.68 915.40 557.19
00000708 00000042 581.38 161.86 380.56 527.16 769.92 347.31 917.79 343.86 906.75 438.82 803.02 558.42 911.30 555.44
00000709 00000043 577.42 156.53 381.64 532.10 763.29 347.10 912.86 343.62 900.69 437.52 798.39 557.52 907.57 554.34
00000710 00000044 572.74 159.18 382.31 527.38 754.64 349.34 907.25 344.99 890.84 439.01 792.81 557.32 901.90 552.98
00000711 00000045 568.40 152.99 382.19 535.27 748.34 346.72 900.55 344.67 884.09 438.68 790.11 557.96 896.77 555.11
00000712 00000046 562.83 159.43 385.02 529.87 739.65 348.21 895.80 345.33 874.80 441.76 785.65 560.37 892.96 556.42
00000713 00000047 559.29 154.81 385.50 535.94 732.45 350.84 887.52 343.11 865.59 444.13 781.73 563.09 887.36 555.04
00000714 DELETE   553.27 157.73 386.41 530.64 725.11 355.39 879.75 339.79 859.69 448.52 776.65 565.24 883.07 550.91
00000715 00000049 546.05 155.39 387.02 530.53 719.31 359.91 873.69 342.04 854.73 454.42 767.02 563.24 877.40 547.48
00000716 00000050 537.63 161.99 388.95 523.38 715.09 365.06 870.27 344.89 849.86 460.52 758.36 563.03 873.29 545.83
00000717 00000051 529.70 163.75 392.26 521.46 708.88 370.39 866.44 346.56 845.42 464.87 748.46 564.50 870.74 545.11
00000718 00000052 524.53 165.59 393.37 518.49 704.41 372.83 864.86 347.92 841.45 467.72 736.62 563.34 866.65 543.69
00000719 DELETE   521.69 165.44 391.86 514.63 696.97 383.11 861.14 357.99 832.30 471.35 731.58 559.15 860.11 540.35
00000720 00000054 517.67 165.21 397.10 523.35 697.74 382.47 859.21 355.92 833.09 467.66 730.49 562.70 861.84 542.19
00000721 00000055 522.68 160.48 389.65 526.75 696.15 379.22 856.41 354.14 838.17 459.96 723.20 565.47 856.56 546.47
00000722 00000056 527.14 158.31 382.64 533.25 691.05 375.71 847.13 354.92 829.05 453.11 724.51 570.56 848.67 554.65
00000723 00000057 526.48 159.92 382.51 533.28 686.50 377.99 845.11 355.33 826.90 454.96 721.57 573.00 848.72 555.53
00000724 00000058 525.18 159.30 383.79 534.64 686.75 379.08 845.97 355.53 828.62 456.98 720.87 573.67 849.64 555.61
00000725 00000059 524.35 160.25 384.17 533.40 686.49 379.78 846.33 355.25 828.63 458.32 719.82 573.71 849.32 554.82
00000726 00000060 523.99 164.22 383.36 528.89 686.27 381.32 847.42 356.35 827.13 461.43 718.60 574.19 848.47 554.90
00000727 00000061 523.49 165.39 383.02 527.11 686.24 382.35 847.29 356.65 827.02 462.67 718.04 573.71 848.31 553.79
00000728 00000062 523.39 165.31 382.96 526.04 686.61 382.54 847.62 356.46 826.79 463.07 718.35 573.50 847.78 553.22
00000729 00000063 522.97 166.59 383.74 523.96 686.54 384.01 848.22 357.37 826.14 464.27 718.42 573.20 848.76 552.27
00000730 00000064 522.90 164.74 383.24 524.67 686.30 384.69 848.90 357.00 826.42 465.02 719.38 574.46 849.22 552.54
00000731 00000065 523.95 167.62 382.89 521.53 687.11 385.99 848.80 357.24 825.90 465.21 719.34 573.89 849.16 551.26
00000732 00000066 523.47 165.96 383.29 522.85 686.92 386.63 848.61 357.29 825.93 465.33 719.79 574.14 849.31 550.93
00000733 00000067 523.68 165.61 382.88 522.24 687.25 386.64 848.43 357.19 825.86 465.05 720.87 574.34 849.14 551.02
00000734 00000068 523.02 166.81 383.79 522.21 686.94 387.00 847.15 357.52 825.02 464.47 721.82 574.76 848.81 551.31
00000735 00000069 521.55 166.05 384.63 524.10 686.12 386.70 846.82 358.20 824.50 464.75 721.06 575.67 848.21 552.89
00000736 00000070 521.20 166.27 383.93 524.17 685.78 387.59 846.79 358.75 824.37 465.85 720.57 576.55 847.75 553.56
00000737 00000071 521.19 166.37 383.93 524.64 685.47 388.46 846.23 359.20 823.75 465.96 721.59 577.31 848.18 553.81
00000738 00000072 521.00 166.09 383.81 525.08 684.46 388.66 846.23 359.67 822.70 467.05 720.57 578.38 847.55 555.14
00000739 00000073 521.12 166.73 384.22 526.29 685.19 388.42 845.81 359.92 823.27 466.19 721.85 578.59 848.10 555.78
00000740 00000074 520.39 167.19 385.28 527.46 685.80 388.70 845.75 360.58 823.50 466.23 722.85 579.49 848.44 556.95
00000741 00000075 520.31 168.53 385.72 525.79 685.54 388.52 845.91 360.02 823.31 465.91 723.73 579.75 848.97 556.80
00000742 00000076 521.63 167.01 384.84 527.40 686.30 389.02 846.78 361.16 824.25 466.68 723.57 579.61 849.90 557.24
00000743 00000077 522.74 168.90 384.26 524.83 686.38 388.97 848.04 361.25 824.54 467.14 723.46 579.41 850.11 557.12
00000744 00000078 524.26 173.44 383.38 519.40 689.82 389.79 851.55 363.10 827.06 468.59 722.44 577.36 850.83 556.17
00000745 00000079 523.83 178.30 386.36 512.76 693.14 389.73 859.02 366.46 831.03 470.41 724.47 576.00 855.12 557.50
00000746 00000080 521.70 176.34 389.23 517.11 693.75 386.39 858.51 367.45 832.30 467.11 726.07 575.60 855.21 560.25
00000747 00000081 519.44 178.31 391.15 520.69 696.16 385.02 857.74 366.23 836.57 464.99 731.73 578.15 856.09 562.65
00000748 DELETE   524.35 177.34 388.27 519.41 702.85 385.02 863.21 362.10 845.86 468.35 737.36 576.49 862.56 557.98
00000749 DELETE   519.12 171.76 393.62 523.43 707.46 386.30 863.11 361.36 846.07 471.58 749.19 569.11 868.06 549.10
00000750 DELETE   524.38 162.82 390.67 530.24 715.03 379.08 868.62 355.18 856.44 462.22 759.80 565.99 873.75 546.07
00000751 00000085 535.12 156.58 384.68 538.28 720.12 368.33 870.10 345.16 864.51 456.35 768.67 567.15 878.27 547.68
00000752 00000086 533.57 140.23 384.52 551.51 725.03 361.10 867.46 337.93 867.53 449.29 776.35 563.18 878.06 543.77
00000753 00000087 531.33 134.12 385.69 547.33 725.73 359.86 867.67 334.84 870.52 445.84 776.21 557.15 879.66 536.35
00000754 00000088 529.71 129.18 376.77 541.62 725.47 368.26 866.65 331.14 878.41 452.26 774.62 557.46 875.55 529.09
00000755 00000089 529.19 130.10 374.22 539.54 723.39 366.41 864.01 329.55 878.00 449.70 775.35 556.82 875.38 528.55
00000756 00000090 524.67 133.20 372.32 539.03 720.93 361.80 862.52 327.48 873.23 451.86 773.28 558.23 872.93 531.54
00000757 00000091 519.78 125.20 371.24 549.38 717.81 364.49 856.76 329.81 867.13 451.89 770.31 559.44 869.46 531.98
00000758 00000092 515.68 133.74 371.57 540.51 713.60 365.05 851.72 330.01 861.48 454.88 766.21 561.11 865.60 533.32
00000759 00000093 513.18 125.22 372.29 549.81 713.48 375.61 846.67 336.92 863.38 452.91 754.99 564.23 853.84 533.65
00000760 DELETE   507.35 124.55 375.41 549.65 704.20 372.24 840.40 329.02 852.69 450.70 749.73 568.44 849.09 534.21
00000761 00000095 501.93 124.18 375.26 556.31 698.59 369.21 834.03 326.78 848.44 447.21 748.55 570.85 844.40 536.65
00000762 00000096 496.56 128.97 374.49 553.55 691.75 364.60 826.79 327.68 837.67 444.85 744.81 569.69 837.47 538.96
00000763 DELETE   489.69 132.43 376.75 547.41 685.05 364.36 822.73 327.95 833.41 446.21 736.80 566.63 832.28 536.43
00000764 00000098 483.28 129.39 378.43 548.49 680.47 363.63 818.89 329.03 830.49 444.24 731.88 563.76 828.73 535.49
00000765 00000099 479.06 133.19 378.18 543.31 674.94 362.61 813.63 331.00 821.85 444.75 729.80 562.87 824.88 536.49
00000766 DELETE   472.02 126.14 371.33 543.68 670.22 374.26 805.32 336.17 818.03 454.81 721.48 562.21 814.81 532.46
00000767 00000101 471.01 125.46 368.99 543.53 665.59 374.65 802.07 337.59 814.02 455.37 717.84 561.34 812.50 532.63
00000768 00000102 467.87 121.49 369.93 546.50 662.82 374.65 800.25 337.06 812.47 454.10 713.44 558.97 809.96 530.01
00000769 00000103 465.64 123.38 372.11 543.37 661.42 373.52 799.04 334.80 811.85 452.43 709.81 556.59 807.30 526.95
00000770 00000104 461.98 126.26 374.58 541.33 659.52 370.62 798.02 331.73 812.16 451.59 708.51 554.93 806.33 525.26
00000771 00000105 461.82 120.95 374.85 547.02 660.18 370.76 798.45 329.16 814.00 451.24 708.60 554.98 806.89 523.14
00000772 00000106 462.55 123.91 374.42 544.94 660.22 368.32 798.43 327.40 815.68 449.18 709.25 554.90 807.04 523.86
00000773 00000107 463.29 119.31 371.59 550.09 661.12 365.20 797.27 326.23 813.23 449.37 714.92 556.81 808.74 526.90
00000774 00000108 466.72 118.44 367.26 550.99 662.36 363.57 796.18 327.92 810.35 451.05 719.67 560.31 806.97 532.86
00000775 00000109 470.03 122.00 376.42 556.45 666.93 351.69 798.28 323.44 808.08 440.90 724.16 560.42 810.58 537.26
00000776 00000110 469.95 118.79 367.32 551.04 662.45 363.07 796.73 328.06 811.79 449.99 722.48 561.66 810.48 534.43
00000777 00000111 467.89 119.54 372.29 548.31 663.68 364.28 798.72 327.24 816.04 446.49 721.74 557.62 813.27 528.98
00000778 00000112 469.40 123.33 370.52 542.82 664.45 364.30 798.91 326.99 817.39 445.78 722.36 556.31 813.41 527.56
00000779 00000113 468.72 119.16 372.34 546.65 666.80 363.81 800.67 326.54 818.37 447.35 724.43 557.83 813.05 529.00
00000780 00000114 469.45 119.82 371.99 545.85 667.48 364.45 801.85 326.04 819.89 447.90 723.74 557.75 813.28 528.03
00000781 00000115 469.87 120.47 373.37 542.74 669.28 362.93 804.77 326.44 820.57 447.10 725.86 555.86 815.64 527.30
00000782 00000116 470.02 120.30 374.43 541.27 670.40 363.44 807.67 328.46 822.07 445.66 727.47 554.34 819.40 526.75
00000783 00000117 471.03 125.72 373.77 533.95 671.68 364.85 809.02 328.96 822.89 446.51 729.21 553.96 820.31 525.69
CROP_BBOX: 273 0 1172 878
