Video ID: 	UZfcDOI6_-w
H: 	2160
W: 	3840
FPS: 	25.0

FRAME INDEX X0 Y0 W H [Landmarks (5 Points)]

00001652 00000000 1475.09 423.05 799.12 1071.11 1536.26 820.71 1798.18 816.76 1540.58 1106.95 1687.05 1212.27 1926.00 1198.14
00001653 00000001 1454.07 443.95 799.98 1055.93 1514.01 842.12 1763.83 820.16 1519.88 1109.37 1659.25 1225.95 1901.29 1196.42
00001654 00000002 1447.47 452.78 800.27 1051.24 1510.21 851.06 1754.75 833.40 1511.86 1122.18 1654.30 1229.16 1896.17 1203.20
00001655 00000003 1447.57 461.96 792.45 1040.80 1505.95 863.30 1750.67 847.85 1510.58 1135.12 1654.56 1237.31 1896.43 1213.01
00001656 00000004 1453.19 480.56 782.70 1026.26 1505.92 873.62 1749.14 861.27 1511.17 1144.45 1654.13 1244.08 1894.60 1222.66
00001657 00000005 1459.80 498.20 770.04 1017.11 1512.16 882.33 1748.27 875.52 1517.24 1152.91 1656.32 1248.07 1891.36 1231.53
00001658 00000006 1459.05 506.33 776.88 1018.34 1529.06 890.93 1749.73 880.55 1526.69 1162.77 1667.53 1249.29 1895.66 1228.79
00001659 00000007 1461.37 517.26 782.70 1012.98 1537.64 892.49 1753.32 879.86 1534.83 1164.05 1687.51 1254.24 1907.72 1231.26
00001660 00000008 1481.37 507.66 768.83 1020.29 1553.41 909.52 1760.29 884.99 1554.74 1162.37 1710.96 1257.79 1923.00 1226.10
00001661 00000009 1493.82 506.21 768.35 1033.17 1565.96 898.03 1787.06 896.09 1563.43 1173.90 1735.91 1248.97 1947.65 1232.14
00001662 00000010 1504.37 505.77 773.53 1038.48 1574.27 890.81 1795.11 891.96 1560.61 1172.54 1741.49 1248.52 1954.72 1234.22
00001663 00000011 1518.43 497.47 773.72 1044.89 1585.41 883.21 1804.90 887.22 1570.21 1166.31 1745.45 1248.72 1960.56 1237.39
00001664 00000012 1527.70 482.76 772.02 1059.02 1591.91 881.95 1812.50 881.21 1579.58 1160.70 1751.32 1250.32 1967.01 1235.94
00001665 DELETE   1540.58 489.15 768.10 1039.02 1600.65 878.50 1831.16 878.83 1593.94 1162.36 1757.45 1246.69 1980.21 1234.16
00001666 00000014 1549.60 486.23 782.64 1032.10 1609.94 877.27 1840.12 872.04 1600.41 1155.47 1764.67 1242.92 1987.53 1225.95
00001667 00000015 1557.35 474.60 785.70 1031.87 1609.56 868.76 1855.12 862.14 1601.95 1144.98 1756.32 1237.70 1993.61 1219.97
00001668 00000016 1559.90 461.31 788.21 1029.33 1616.89 863.15 1864.78 848.16 1616.56 1124.71 1758.04 1228.42 1997.99 1204.53
00001669 00000017 1567.43 439.57 790.60 1027.48 1633.75 839.12 1876.19 833.86 1638.20 1105.19 1775.10 1203.11 2008.30 1187.82
00001670 00000018 1578.76 430.45 785.81 1029.63 1640.91 815.23 1895.79 827.08 1646.05 1108.18 1764.81 1177.82 2028.99 1178.17
00001671 00000019 1575.94 416.48 802.83 1037.28 1643.83 808.61 1916.39 808.95 1666.49 1088.15 1760.94 1168.42 2043.55 1159.21
00001672 00000020 1568.36 406.86 805.40 1036.51 1643.78 794.54 1936.04 800.17 1682.47 1077.41 1745.74 1148.48 2054.41 1144.80
00001673 00000021 1567.20 401.55 803.49 1041.74 1652.70 772.83 1972.50 776.14 1727.31 1058.20 1742.43 1146.32 2064.49 1140.08
00001674 00000022 1562.99 397.69 803.66 1041.19 1651.47 768.35 1978.62 772.01 1731.09 1055.04 1736.34 1143.13 2064.73 1137.82
00001675 00000023 1545.47 400.89 816.45 1040.90 1639.27 767.87 1984.38 776.60 1732.24 1057.92 1714.86 1140.19 2065.55 1139.51
00001676 00000024 1536.53 397.00 819.12 1047.72 1634.54 765.24 1986.05 774.61 1735.69 1056.85 1706.54 1136.46 2064.89 1136.35
00001677 00000025 1535.16 392.81 817.44 1048.89 1632.24 762.80 1985.38 773.13 1734.54 1051.92 1697.32 1130.64 2063.82 1131.70
00001678 00000026 1539.87 392.09 812.68 1048.83 1635.86 763.16 1982.44 770.62 1737.78 1050.07 1700.68 1129.19 2066.57 1127.97
00001679 00000027 1549.51 392.67 808.75 1047.68 1648.55 770.03 1983.78 773.28 1747.28 1048.03 1715.35 1129.65 2074.00 1124.83
00001680 00000028 1568.75 388.26 793.29 1046.60 1660.79 785.66 1972.00 782.26 1734.85 1051.33 1740.18 1123.37 2079.48 1113.53
00001681 00000029 1590.17 388.19 785.22 1051.21 1686.14 782.39 1989.44 777.82 1756.71 1046.59 1756.89 1117.39 2092.08 1108.06
00001682 00000030 1600.39 379.08 792.00 1064.59 1701.70 770.04 2020.70 768.60 1779.27 1042.09 1756.39 1105.16 2113.88 1098.86
00001683 00000031 1614.36 361.32 788.86 1077.80 1712.74 772.09 2033.71 766.83 1792.36 1036.47 1761.14 1105.85 2123.58 1096.79
00001684 00000032 1605.42 351.66 807.22 1108.75 1707.09 749.89 2053.99 774.11 1812.82 1046.72 1764.50 1107.60 2138.41 1121.56
00001685 00000033 1613.09 363.75 809.96 1105.36 1713.71 755.20 2063.57 785.65 1817.31 1059.17 1769.78 1113.45 2146.92 1130.77
00001686 00000034 1623.22 379.87 815.18 1098.54 1727.16 768.55 2071.92 804.79 1818.85 1075.25 1781.33 1126.81 2159.72 1147.44
00001687 00000035 1630.40 395.53 823.22 1099.70 1742.86 790.08 2086.22 823.44 1835.61 1091.60 1797.69 1142.90 2168.77 1158.46
00001688 DELETE   1647.81 419.93 815.03 1089.93 1761.50 810.68 2098.77 839.42 1853.61 1108.37 1820.70 1164.53 2181.58 1174.57
00001689 00000037 1663.66 435.74 818.46 1071.87 1782.37 827.95 2117.33 851.03 1871.63 1103.61 1834.56 1181.33 2185.64 1187.60
00001690 DELETE   1679.26 434.28 813.70 1079.61 1798.41 842.48 2128.52 861.72 1875.26 1106.06 1854.88 1198.07 2199.66 1200.42
00001691 DELETE   1684.03 426.57 819.39 1086.83 1793.29 851.86 2127.65 884.18 1870.11 1123.88 1862.99 1200.41 2201.71 1221.00
00001692 DELETE   1704.93 436.65 814.35 1098.85 1817.25 859.31 2155.76 906.24 1892.32 1141.64 1872.07 1208.46 2217.64 1242.44
00001693 00000041 1714.99 456.43 824.08 1086.60 1837.30 868.16 2172.18 918.06 1922.07 1167.09 1899.20 1214.55 2243.00 1249.10
00001694 00000042 1715.02 472.74 833.81 1081.13 1835.19 867.77 2175.18 921.43 1920.56 1174.30 1899.19 1226.05 2244.49 1263.92
00001695 00000043 1718.67 496.05 826.90 1062.59 1831.15 888.18 2162.24 929.41 1905.62 1167.96 1882.45 1238.95 2214.17 1267.75
00001696 00000044 1718.48 497.96 821.51 1061.84 1829.97 895.04 2156.90 938.41 1901.21 1171.47 1883.83 1243.93 2212.81 1274.45
00001697 00000045 1710.96 498.11 824.65 1057.20 1828.29 904.24 2155.97 939.75 1907.68 1166.03 1890.11 1249.38 2208.60 1273.37
00001698 00000046 1709.39 501.20 823.49 1057.90 1825.79 910.10 2148.64 942.64 1900.87 1163.61 1887.48 1250.89 2206.66 1271.72
00001699 00000047 1706.68 502.52 820.36 1057.51 1821.84 909.68 2147.33 942.66 1901.43 1170.97 1883.76 1250.99 2209.18 1272.30
00001700 00000048 1704.95 499.96 820.96 1055.87 1821.64 912.03 2143.70 945.53 1901.32 1169.61 1887.83 1251.60 2205.90 1273.34
00001701 00000049 1717.49 494.21 811.94 1059.97 1809.70 912.24 2144.68 944.24 1874.52 1172.72 1878.08 1256.86 2205.43 1279.08
00001702 00000050 1707.85 502.44 816.63 1064.07 1821.90 915.86 2147.78 937.10 1890.66 1178.40 1887.45 1270.72 2203.79 1281.04
00001703 00000051 1704.20 509.93 817.19 1057.49 1818.91 915.49 2150.01 944.89 1887.47 1181.20 1879.78 1266.37 2202.98 1283.41
00001704 00000052 1695.39 511.06 822.55 1058.70 1818.66 917.31 2146.02 948.19 1888.43 1177.10 1874.84 1268.04 2198.14 1286.46
00001705 00000053 1684.93 509.49 824.67 1059.36 1810.08 918.12 2139.31 943.57 1884.17 1180.56 1872.58 1267.81 2197.96 1281.97
00001706 00000054 1677.64 510.31 825.13 1051.88 1801.83 910.18 2128.41 939.29 1875.23 1173.22 1860.47 1263.91 2189.81 1281.81
00001707 00000055 1664.87 507.46 828.63 1057.84 1789.62 896.47 2126.00 931.54 1876.95 1175.01 1848.31 1253.41 2189.59 1276.36
00001708 00000056 1650.22 505.69 828.47 1051.02 1774.54 886.83 2113.15 925.62 1867.90 1176.16 1836.02 1245.28 2171.84 1271.43
00001709 00000057 1638.41 492.47 827.95 1067.75 1761.16 872.84 2098.37 913.35 1853.79 1166.96 1821.99 1232.46 2164.16 1259.29
00001710 00000058 1646.29 472.87 800.56 1063.44 1755.35 865.63 2092.44 915.25 1841.09 1162.08 1820.20 1220.73 2151.87 1248.04
00001711 00000059 1638.36 449.69 803.27 1082.36 1739.26 862.13 2080.66 907.49 1824.65 1150.94 1802.88 1210.94 2146.49 1235.39
00001712 00000060 1632.10 445.38 802.38 1078.46 1730.66 861.60 2070.04 902.79 1820.06 1143.00 1794.58 1206.74 2137.64 1228.78
00001713 00000061 1622.55 458.45 804.38 1063.88 1716.61 863.13 2059.87 901.80 1808.37 1146.97 1789.81 1210.97 2133.15 1231.97
00001714 00000062 1616.93 452.37 799.78 1073.00 1711.12 867.68 2050.18 903.76 1799.36 1152.30 1786.02 1214.89 2130.08 1233.57
00001715 00000063 1619.85 461.75 804.64 1071.07 1714.97 855.12 2051.42 897.21 1787.12 1148.20 1788.46 1220.60 2124.04 1246.88
00001716 00000064 1611.52 479.83 812.17 1061.65 1710.59 861.83 2043.97 904.12 1782.42 1152.00 1787.36 1226.90 2115.90 1253.22
00001717 00000065 1598.09 489.17 818.24 1056.75 1705.05 863.79 2041.87 913.41 1780.79 1164.56 1778.63 1226.23 2110.47 1259.32
00001718 00000066 1588.68 501.79 817.58 1051.68 1693.16 863.56 2030.44 918.58 1773.54 1180.28 1762.83 1219.67 2105.88 1259.40
00001719 00000067 1593.21 506.83 804.61 1043.44 1702.19 872.94 2032.68 931.55 1774.36 1185.76 1778.51 1221.20 2110.74 1261.75
00001720 00000068 1587.43 501.42 807.62 1048.60 1695.06 887.63 2010.06 927.58 1757.68 1165.81 1743.75 1223.97 2072.07 1250.49
00001721 00000069 1573.62 511.77 809.28 1030.42 1685.42 882.77 1992.20 928.31 1742.22 1158.17 1738.74 1218.52 2057.26 1248.96
00001722 00000070 1562.98 501.51 808.89 1035.67 1668.22 878.29 1974.49 931.68 1720.56 1167.23 1728.69 1216.46 2048.02 1251.78
00001723 00000071 1554.90 495.84 803.18 1031.01 1656.74 869.80 1984.78 922.87 1728.39 1172.64 1730.66 1209.02 2062.22 1244.68
00001724 00000072 1547.14 527.15 802.90 1007.16 1647.87 863.81 1953.76 934.26 1693.34 1167.57 1702.21 1205.60 2024.70 1255.78
00001725 00000073 1542.83 523.41 797.18 1016.72 1637.61 864.01 1944.46 934.41 1680.95 1178.15 1696.80 1210.75 2022.15 1261.16
00001726 00000074 1531.02 519.37 801.81 1032.01 1632.65 853.97 1970.67 918.42 1704.46 1176.51 1692.81 1223.28 2032.68 1268.87
00001727 00000075 1520.88 515.27 800.11 1037.45 1621.29 859.18 1956.36 920.29 1693.86 1182.95 1681.38 1226.15 2021.31 1269.76
00001728 00000076 1512.63 520.81 795.90 1028.16 1610.87 864.21 1944.84 921.43 1688.80 1190.25 1678.44 1229.70 2013.63 1270.58
00001729 00000077 1505.37 521.21 796.57 1027.90 1606.20 855.84 1943.41 919.75 1685.73 1190.22 1666.69 1221.01 2009.81 1267.37
00001730 00000078 1502.82 516.23 790.44 1033.66 1603.93 859.17 1936.65 921.54 1684.68 1190.23 1662.44 1214.54 2005.96 1259.62
00001731 00000079 1493.66 509.73 794.98 1038.52 1589.59 857.12 1927.34 917.34 1675.06 1182.70 1648.82 1208.09 1998.99 1252.58
00001732 00000080 1489.75 503.77 795.52 1042.38 1582.52 855.57 1918.85 913.63 1668.09 1178.87 1645.03 1207.60 1992.01 1250.65
00001733 00000081 1487.51 501.42 783.01 1042.93 1580.41 868.24 1914.27 919.43 1668.49 1178.49 1641.96 1203.37 1992.21 1240.50
00001734 00000082 1484.24 504.37 781.22 1038.65 1577.10 878.90 1914.57 923.45 1669.66 1178.01 1637.78 1205.05 1992.83 1237.03
00001735 00000083 1478.63 502.53 783.66 1045.29 1573.26 876.58 1911.31 918.92 1668.86 1178.79 1636.35 1211.13 1990.13 1241.62
00001736 00000084 1475.17 502.88 786.49 1050.00 1570.85 871.79 1912.89 915.77 1669.92 1179.87 1632.16 1208.67 1990.45 1240.07
00001737 00000085 1474.04 506.11 784.34 1047.77 1571.13 872.61 1913.81 916.20 1672.41 1183.20 1630.20 1208.37 1991.64 1239.53
00001738 00000086 1472.98 508.77 786.71 1047.46 1571.93 874.64 1915.48 915.22 1676.75 1184.84 1631.74 1210.26 1993.36 1238.69
00001739 00000087 1474.12 505.99 784.30 1050.84 1574.49 875.28 1918.64 916.00 1680.80 1186.42 1631.84 1208.57 1997.69 1237.22
00001740 00000088 1472.72 509.27 785.27 1048.21 1573.35 874.64 1919.52 917.92 1679.97 1189.70 1629.34 1207.92 1997.43 1238.58
00001741 00000089 1475.74 513.97 781.91 1042.98 1578.59 879.35 1920.49 923.57 1683.32 1189.12 1630.89 1206.77 1999.08 1238.02
00001742 00000090 1480.76 515.94 781.45 1039.89 1581.82 878.00 1925.45 924.34 1687.27 1189.89 1631.82 1207.57 1999.88 1240.79
00001743 00000091 1488.84 512.85 780.22 1038.92 1592.25 876.93 1932.77 923.26 1696.68 1184.80 1637.57 1208.69 2001.00 1242.07
00001744 00000092 1491.54 510.54 783.88 1037.56 1594.06 873.67 1938.49 917.88 1701.78 1181.41 1641.62 1211.49 2005.96 1243.42
00001745 00000093 1491.88 510.70 788.12 1037.42 1597.35 871.39 1944.74 920.11 1707.80 1185.61 1641.83 1210.18 2007.22 1245.88
00001746 00000094 1496.30 518.56 784.98 1031.81 1603.18 888.93 1952.00 938.98 1711.32 1195.47 1643.48 1210.74 2015.85 1246.07
00001747 00000095 1495.91 523.03 786.60 1031.89 1598.93 899.61 1947.88 944.35 1708.26 1205.60 1648.87 1222.43 2016.96 1253.10
00001748 00000096 1500.98 525.40 789.27 1028.57 1602.95 891.70 1959.63 944.24 1706.82 1206.48 1649.03 1232.23 2019.47 1269.25
00001749 00000097 1503.77 531.10 790.52 1021.75 1607.18 881.05 1965.66 943.29 1705.62 1206.67 1650.66 1233.33 2020.33 1278.35
00001750 00000098 1508.96 534.15 791.59 1012.80 1617.77 871.61 1977.46 939.52 1714.34 1203.95 1658.87 1228.32 2026.09 1277.87
00001751 00000099 1518.01 537.73 792.23 1003.03 1627.43 870.20 1990.01 936.77 1722.04 1200.93 1669.79 1231.76 2033.29 1280.92
00001752 00000100 1532.16 530.96 788.13 1010.69 1639.87 871.51 1998.77 933.56 1727.71 1196.60 1681.00 1235.22 2039.76 1280.52
00001753 00000101 1539.71 517.17 787.35 1027.42 1647.42 871.37 2004.11 933.96 1728.26 1191.32 1686.70 1234.88 2044.16 1280.35
00001754 00000102 1547.45 529.41 785.69 1016.13 1653.10 872.27 2007.84 931.22 1734.66 1185.79 1692.21 1237.83 2046.63 1280.18
00001755 00000103 1548.28 538.40 788.38 1010.64 1653.84 872.43 2011.75 933.72 1735.91 1185.04 1691.43 1237.46 2052.34 1281.24
00001756 00000104 1544.77 536.95 796.85 1018.03 1652.94 874.65 2010.24 936.46 1734.73 1182.39 1689.63 1242.37 2049.07 1286.39
00001757 00000105 1548.41 533.94 798.49 1027.12 1657.51 884.41 2005.29 944.11 1730.24 1182.13 1691.62 1254.54 2042.58 1296.82
00001758 00000106 1542.78 535.25 809.09 1031.31 1656.27 886.93 2002.94 942.56 1727.53 1179.92 1697.64 1258.89 2042.44 1297.98
00001759 00000107 1543.76 527.86 811.26 1038.79 1657.36 892.90 1998.60 943.65 1720.17 1182.14 1705.74 1267.83 2039.02 1302.75
00001760 00000108 1533.66 518.31 824.89 1051.23 1649.98 897.35 1997.54 942.49 1720.13 1185.52 1703.71 1276.78 2036.67 1308.11
00001761 00000109 1536.31 527.54 828.50 1053.33 1655.22 901.92 2008.34 948.35 1725.76 1184.81 1705.50 1274.79 2040.27 1306.22
00001762 00000110 1532.83 521.92 835.86 1077.33 1658.33 926.95 1994.69 966.63 1731.34 1195.89 1707.35 1283.05 2029.67 1308.91
00001763 00000111 1548.97 508.29 828.63 1096.04 1665.88 926.81 1996.28 956.40 1729.09 1193.32 1726.98 1291.94 2030.14 1309.35
00001764 00000112 1552.06 501.64 836.48 1105.04 1668.89 916.98 2005.49 952.14 1730.75 1184.41 1726.07 1288.01 2029.38 1309.95
00001765 00000113 1559.10 491.21 837.39 1117.95 1670.45 914.36 2016.02 951.90 1735.31 1201.51 1734.53 1297.04 2039.31 1320.81
00001766 00000114 1563.44 478.92 856.08 1130.42 1667.15 912.19 2020.24 961.40 1738.60 1217.06 1748.58 1283.20 2087.22 1316.63
00001767 00000115 1566.11 476.97 864.15 1139.07 1667.97 911.22 2028.53 957.34 1742.70 1226.85 1757.01 1296.41 2095.23 1326.93
00001768 00000116 1566.82 462.94 877.33 1161.18 1678.87 917.32 2041.61 956.79 1763.86 1220.25 1763.79 1303.71 2098.79 1329.33
00001769 00000117 1570.87 465.29 887.44 1158.97 1682.72 911.07 2056.77 956.09 1773.38 1226.74 1765.79 1303.40 2108.89 1333.16
00001770 00000118 1579.09 449.01 899.59 1177.36 1696.45 901.21 2078.33 951.87 1791.61 1220.53 1769.75 1299.71 2122.08 1334.89
00001771 00000119 1590.03 444.97 902.86 1183.23 1709.57 902.97 2089.98 947.78 1806.44 1212.82 1779.58 1301.37 2132.56 1333.21
00001772 00000120 1598.14 435.15 910.29 1196.98 1717.78 904.65 2107.78 943.56 1818.82 1208.92 1785.64 1303.56 2148.99 1331.66
00001773 00000121 1610.48 427.25 910.62 1203.05 1729.83 897.39 2125.09 941.22 1821.82 1207.76 1790.14 1301.50 2160.02 1334.57
00001774 00000122 1627.60 422.90 911.39 1206.48 1749.13 896.02 2134.61 943.64 1833.72 1208.14 1814.51 1302.07 2174.95 1337.88
00001775 00000123 1632.95 420.97 920.38 1210.51 1757.99 904.57 2142.09 953.37 1854.46 1220.55 1826.53 1311.82 2178.48 1347.91
00001776 00000124 1635.38 417.83 932.17 1217.59 1758.91 903.12 2153.99 954.26 1861.07 1231.60 1833.35 1317.97 2192.33 1355.70
00001777 00000125 1643.94 419.27 927.66 1215.07 1772.51 901.75 2166.31 952.49 1863.08 1220.69 1838.11 1309.22 2206.79 1347.45
00001778 00000126 1645.15 402.92 937.65 1235.52 1773.77 900.19 2172.30 960.35 1869.44 1231.20 1850.01 1314.02 2215.84 1358.38
00001779 00000127 1650.90 399.23 935.94 1232.69 1784.62 892.68 2181.23 951.24 1882.86 1219.52 1857.72 1308.51 2220.30 1351.93
00001780 00000128 1657.38 397.77 934.79 1235.70 1792.96 883.83 2186.58 945.77 1887.74 1210.72 1867.35 1300.41 2227.70 1346.04
00001781 00000129 1653.58 397.96 941.25 1236.12 1792.90 876.76 2191.84 941.30 1888.58 1202.32 1859.67 1296.72 2225.29 1344.59
00001782 00000130 1658.94 398.01 936.45 1240.56 1795.38 872.26 2192.46 940.72 1885.70 1201.80 1859.51 1295.18 2226.37 1346.13
00001783 00000131 1662.48 400.55 928.42 1233.54 1797.55 882.81 2197.46 951.50 1894.68 1212.48 1863.42 1300.59 2228.86 1352.06
00001784 00000132 1668.27 416.50 918.90 1216.03 1794.43 892.89 2192.47 963.42 1886.24 1227.66 1862.82 1303.97 2228.85 1357.04
00001785 00000133 1668.46 422.30 918.96 1213.90 1794.09 901.82 2191.19 965.58 1890.33 1227.01 1861.96 1305.65 2227.57 1353.45
00001786 00000134 1671.08 421.47 916.18 1218.10 1798.36 901.36 2188.97 961.02 1893.54 1222.49 1865.14 1308.27 2224.32 1352.90
00001787 00000135 1677.11 422.73 906.79 1215.14 1801.68 903.15 2192.27 962.09 1897.61 1222.43 1867.36 1308.21 2225.80 1352.24
00001788 00000136 1680.61 422.39 900.23 1209.85 1803.08 908.53 2194.85 967.56 1899.24 1216.09 1864.43 1303.75 2225.61 1348.26
00001789 00000137 1677.88 419.56 897.90 1209.66 1805.92 909.88 2192.02 969.79 1899.96 1214.56 1861.51 1297.18 2222.52 1342.24
00001790 00000138 1677.71 421.95 894.86 1212.32 1809.29 905.52 2190.32 968.95 1899.42 1212.31 1865.74 1295.15 2221.89 1343.15
00001791 00000139 1675.30 419.50 892.90 1209.18 1807.20 898.52 2189.28 963.03 1899.11 1209.01 1860.82 1293.18 2218.15 1342.23
00001792 00000140 1678.02 423.44 887.86 1190.35 1806.45 894.01 2189.44 963.04 1900.58 1211.92 1859.62 1284.23 2221.55 1336.35
00001793 00000141 1678.86 417.88 885.38 1194.57 1808.59 888.96 2187.21 954.73 1900.27 1202.35 1860.62 1280.40 2220.70 1329.91
00001794 00000142 1684.29 422.37 871.76 1179.34 1808.79 882.29 2186.78 949.45 1900.29 1197.96 1860.48 1276.77 2215.50 1327.73
00001795 00000143 1682.13 420.27 868.76 1178.76 1808.67 881.76 2182.09 944.31 1900.12 1192.55 1861.84 1273.88 2215.47 1320.79
00001796 00000144 1681.44 425.44 867.81 1161.76 1808.02 879.62 2193.47 946.05 1910.78 1189.80 1857.46 1275.79 2214.40 1326.21
00001797 00000145 1684.08 418.12 864.64 1168.92 1814.34 892.37 2170.40 948.37 1905.39 1186.79 1873.18 1273.61 2207.30 1315.07
00001798 00000146 1695.62 435.14 854.18 1148.54 1818.52 898.38 2182.98 955.02 1917.93 1183.51 1865.50 1273.29 2190.01 1311.84
00001799 00000147 1696.94 431.16 849.66 1156.21 1815.30 895.81 2189.44 952.77 1919.47 1182.41 1858.02 1273.00 2192.29 1311.56
00001800 00000148 1692.57 411.15 849.71 1172.46 1809.46 882.98 2181.15 944.89 1904.10 1184.51 1854.65 1270.64 2209.30 1317.20
00001801 00000149 1691.76 425.87 848.80 1161.11 1809.72 880.12 2185.05 946.40 1903.80 1191.84 1853.55 1267.11 2214.08 1317.29
00001802 00000150 1691.81 424.28 847.15 1162.49 1807.82 880.75 2187.00 949.07 1903.90 1194.28 1846.80 1267.41 2213.67 1319.12
00001803 00000151 1696.67 425.33 836.05 1157.75 1809.93 881.86 2185.99 949.21 1903.78 1189.36 1846.21 1268.89 2208.78 1319.88
00001804 00000152 1694.47 428.32 835.46 1156.17 1806.89 878.04 2183.40 947.03 1901.08 1191.39 1845.03 1270.81 2203.20 1323.39
00001805 00000153 1690.64 424.22 846.03 1153.76 1797.84 875.56 2183.59 939.13 1878.63 1170.38 1832.92 1267.97 2188.69 1315.91
00001806 00000154 1680.29 416.01 850.85 1154.66 1791.61 866.07 2178.71 928.08 1870.55 1159.32 1825.08 1266.49 2178.79 1312.77
00001807 00000155 1686.36 432.46 831.51 1131.48 1799.76 865.67 2161.77 927.36 1885.93 1156.25 1829.54 1251.23 2164.73 1292.54
00001808 00000156 1681.17 426.15 833.40 1140.43 1798.43 861.02 2159.65 923.79 1886.92 1158.17 1830.16 1247.69 2165.55 1289.93
