Video ID: 	3QHmhgyUsGk
H: 	1080
W: 	1920
FPS: 	25.0

FRAME INDEX X0 Y0 W H [Landmarks (5 Points)]

00003791 00000000 884.09 137.48 372.75 516.39 973.38 348.08 1140.75 332.12 1062.73 429.61 1011.50 537.21 1139.09 525.87
00003792 00000001 884.58 137.65 372.18 511.87 972.45 344.79 1141.60 331.62 1059.70 426.58 1007.18 530.70 1140.63 521.63
00003793 00000002 884.49 137.71 371.23 510.68 970.46 342.42 1143.15 331.66 1058.10 425.70 1002.70 528.57 1141.51 521.54
00003794 00000003 882.33 135.96 372.31 514.03 969.68 345.11 1141.05 335.50 1057.45 430.25 1001.91 529.15 1140.91 522.92
00003795 00000004 880.98 138.26 368.48 515.40 971.61 356.71 1136.46 350.19 1055.76 436.53 1001.22 531.47 1134.03 527.49
00003796 DELETE   878.61 138.10 367.64 517.18 968.77 357.82 1132.35 351.89 1052.16 439.76 999.08 534.95 1126.92 531.70
00003797 00000006 878.05 136.29 363.24 518.85 966.59 354.10 1132.58 352.12 1049.15 441.69 995.39 534.57 1123.02 534.93
00003798 00000007 872.68 135.24 366.29 517.88 963.01 348.61 1127.92 347.54 1045.94 439.95 993.57 535.09 1114.74 536.28
00003799 00000008 869.34 132.51 365.48 519.06 960.82 345.03 1124.80 340.80 1044.23 431.26 992.30 535.56 1108.51 533.99
00003800 00000009 869.44 127.87 363.51 523.35 958.03 340.94 1121.69 335.28 1040.16 422.96 988.37 534.85 1104.41 532.31
00003801 00000010 868.48 125.86 363.04 525.18 955.72 339.73 1120.05 334.89 1035.76 420.07 984.15 532.97 1100.92 531.15
00003802 00000011 867.24 129.73 365.10 521.54 954.34 342.38 1120.66 340.86 1033.85 427.63 981.49 534.65 1100.15 535.35
00003803 00000012 866.58 134.89 364.99 517.14 952.80 345.39 1119.46 346.63 1028.54 439.75 977.68 537.13 1096.00 540.10
00003804 00000013 866.38 138.20 364.07 517.29 954.05 351.56 1117.30 356.21 1027.54 446.51 976.29 536.86 1095.13 542.60
00003805 00000014 864.36 144.60 365.40 516.97 952.98 363.25 1114.83 369.20 1025.19 455.72 974.90 541.15 1096.80 547.52
00003806 00000015 864.55 156.73 367.10 513.45 952.10 373.57 1117.85 376.93 1026.19 470.58 975.75 553.28 1100.24 557.58
00003807 00000016 865.70 163.71 366.57 515.07 954.06 384.71 1119.47 390.06 1025.89 480.71 974.71 557.62 1105.61 563.39
00003808 00000017 873.70 175.80 364.22 508.77 959.02 396.79 1120.91 403.76 1031.91 489.83 974.68 570.16 1108.10 577.06
00003809 00000018 873.44 183.18 364.92 506.53 965.02 404.74 1125.35 413.26 1038.90 499.73 980.74 575.84 1110.70 583.78
00003810 00000019 875.25 189.08 363.41 504.44 970.36 405.52 1128.95 409.78 1048.06 501.54 990.10 579.03 1117.47 583.80
00003811 00000020 877.49 190.78 362.86 506.39 972.74 405.54 1132.67 407.97 1053.41 502.07 994.80 581.54 1124.32 584.86
00003812 00000021 878.40 187.45 362.27 509.74 973.75 403.04 1132.99 404.79 1055.47 500.29 996.02 581.03 1125.64 583.70
00003813 00000022 878.22 182.97 362.71 512.86 972.34 399.41 1132.24 401.11 1054.12 495.99 992.30 576.70 1125.65 579.23
00003814 00000023 878.65 178.07 361.18 517.79 969.36 397.08 1132.20 398.08 1052.36 493.97 985.11 572.94 1128.69 574.96
00003815 00000024 879.29 175.36 360.88 520.75 967.95 394.07 1131.89 396.04 1048.38 490.80 979.04 568.56 1128.57 571.53
00003816 00000025 880.72 173.94 360.55 521.05 968.66 391.59 1132.54 393.79 1047.83 487.75 977.18 564.12 1128.45 567.88
00003817 00000026 883.04 167.88 362.77 521.74 969.37 385.99 1132.75 390.81 1044.34 484.83 978.42 565.14 1121.29 570.33
00003818 00000027 884.14 159.75 364.43 528.21 973.25 373.80 1135.81 384.85 1048.13 479.63 986.09 568.21 1108.97 578.10
00003819 00000028 884.77 155.07 367.16 531.69 975.45 370.50 1139.35 384.67 1048.91 472.46 986.07 568.72 1104.06 580.71
00003820 00000029 887.41 149.90 368.65 533.72 978.33 366.91 1143.91 385.74 1048.60 470.68 983.42 564.48 1101.09 580.28
00003821 00000030 881.91 152.32 380.26 535.11 989.14 360.35 1151.62 387.55 1054.99 469.29 983.74 554.82 1101.16 577.13
00003822 00000031 885.18 149.09 381.70 543.87 996.07 359.93 1158.14 393.21 1061.55 467.25 984.46 552.72 1103.93 580.29
00003823 00000032 887.28 151.07 385.11 551.08 1009.68 360.42 1168.66 399.46 1077.04 466.75 986.75 550.02 1108.24 582.85
00003824 00000033 900.63 160.35 378.29 539.71 1012.44 356.82 1176.34 393.96 1078.30 460.80 987.50 544.87 1124.19 577.45
00003825 00000034 900.51 163.65 382.29 541.10 1021.10 359.12 1182.36 400.72 1090.23 468.33 988.48 539.08 1135.45 574.40
00003826 00000035 901.63 166.82 381.98 537.05 1022.69 365.10 1184.77 405.33 1094.45 470.93 991.81 541.50 1142.80 575.42
00003827 00000036 907.52 168.64 375.02 527.36 1018.53 368.00 1183.91 406.21 1088.64 470.31 994.52 539.81 1145.74 574.17
00003828 00000037 900.97 162.61 377.16 526.97 1019.18 366.28 1182.83 401.67 1094.57 479.89 991.87 541.41 1142.03 572.54
00003829 00000038 903.37 161.50 371.08 526.30 1017.61 369.91 1180.84 401.30 1095.59 472.82 997.22 542.85 1142.11 570.07
00003830 00000039 901.33 158.02 368.46 525.33 1013.90 372.42 1171.26 394.30 1090.90 467.89 1006.42 550.92 1134.20 570.70
00003831 00000040 897.83 156.61 369.25 524.59 1005.74 372.81 1167.45 390.94 1084.08 469.49 1002.13 554.49 1133.41 571.30
00003832 00000041 895.69 155.33 368.01 523.20 1000.50 372.30 1161.14 386.54 1077.62 465.17 1002.53 554.77 1128.71 568.41
00003833 00000042 896.29 151.59 362.25 524.02 988.09 369.40 1151.88 384.19 1065.52 465.00 995.57 554.19 1122.98 566.87
00003834 00000043 889.49 150.92 364.89 518.70 977.27 368.99 1146.00 379.90 1052.63 462.39 982.39 551.59 1121.50 560.96
00003835 00000044 874.71 149.85 366.26 518.92 972.55 364.11 1138.40 374.19 1048.39 461.67 982.30 542.38 1111.11 552.99
00003836 00000045 870.84 143.96 365.00 532.80 966.99 363.96 1127.55 372.77 1044.05 460.56 981.73 548.57 1102.47 558.25
00003837 00000046 864.29 141.35 366.75 535.42 957.95 365.91 1116.53 371.14 1033.81 460.24 978.83 553.09 1094.85 559.55
00003838 00000047 858.68 141.65 369.68 530.28 950.53 367.12 1112.29 371.94 1026.57 460.32 975.63 554.45 1092.16 559.88
00003839 00000048 853.61 148.60 370.98 525.16 943.22 371.95 1106.58 373.77 1020.45 463.11 969.75 557.65 1089.50 560.10
00003840 00000049 856.40 153.19 365.44 525.93 939.61 380.22 1100.93 374.08 1017.47 465.08 972.02 566.90 1086.38 561.83
00003841 00000050 853.98 160.91 362.70 521.18 935.28 386.04 1094.62 376.94 1012.86 466.80 969.63 570.73 1083.84 563.52
00003842 00000051 852.34 163.46 359.21 517.17 930.10 389.65 1089.12 376.38 1006.07 467.34 964.06 573.26 1083.77 562.59
00003843 00000052 845.89 161.84 364.07 520.98 920.96 389.25 1085.47 373.48 993.34 472.11 950.34 574.68 1085.17 561.50
00003844 00000053 843.49 162.44 364.68 518.38 915.05 388.48 1082.45 373.71 988.83 475.53 941.05 571.35 1090.98 558.75
00003845 00000054 841.15 166.29 365.16 512.00 911.07 387.18 1079.05 373.58 985.12 476.24 937.06 567.47 1091.45 555.69
00003846 00000055 840.07 165.38 365.42 511.47 909.59 385.81 1076.26 371.40 983.66 475.38 936.78 565.82 1090.47 553.18
00003847 00000056 841.62 161.80 364.03 519.92 910.00 384.75 1076.26 369.22 984.32 474.34 938.16 565.96 1090.05 552.54
00003848 00000057 841.64 162.45 364.13 518.27 910.09 385.07 1076.81 369.73 983.90 474.55 938.49 566.10 1090.62 552.75
00003849 00000058 841.67 163.62 364.80 513.62 911.15 385.44 1078.19 370.80 983.84 474.50 937.95 566.35 1090.82 553.49
00003850 00000059 842.37 164.42 365.52 515.51 912.16 386.33 1079.53 371.94 985.17 475.45 939.23 569.81 1090.54 557.25
00003851 00000060 842.33 162.13 367.75 518.79 913.62 390.93 1080.86 373.38 987.27 476.59 945.88 576.69 1087.64 561.65
00003852 00000061 842.37 161.44 369.88 522.99 913.04 395.65 1079.73 374.12 990.41 479.87 949.99 578.89 1089.38 560.88
00003853 00000062 843.09 161.61 370.15 523.27 915.06 395.42 1079.69 374.48 991.91 480.16 953.32 579.29 1086.58 561.81
00003854 00000063 844.24 160.19 370.01 526.60 918.86 395.77 1079.74 374.70 992.34 478.27 959.67 582.55 1079.57 565.10
00003855 00000064 850.06 162.91 364.58 522.89 923.74 394.62 1084.54 376.82 1001.72 479.59 966.72 584.40 1081.93 569.34
00003856 00000065 851.24 162.88 363.74 522.60 925.38 396.22 1085.38 379.54 1002.26 480.94 967.91 584.09 1083.34 569.97
00003857 00000066 850.90 163.92 364.91 523.23 926.42 396.89 1086.49 381.19 1003.43 482.02 967.64 584.55 1083.03 571.23
00003858 00000067 850.80 165.98 364.60 523.65 927.21 396.42 1087.31 380.72 1005.49 482.73 969.19 585.44 1085.43 571.91
00003859 00000068 851.20 165.77 363.17 522.79 927.35 396.77 1087.35 381.29 1004.90 482.30 968.88 586.33 1084.50 573.21
00003860 00000069 849.94 166.44 363.78 521.01 926.32 396.70 1086.90 382.03 1004.10 482.76 965.59 585.85 1082.52 573.55
00003861 00000070 849.07 167.97 363.23 520.58 926.08 398.42 1086.19 384.24 1003.71 484.33 964.77 586.30 1081.04 574.46
00003862 00000071 847.52 168.05 363.52 521.86 925.47 398.12 1085.54 384.39 1003.30 484.30 964.84 588.39 1079.25 577.06
00003863 00000072 846.05 166.55 363.50 522.27 924.55 397.86 1084.68 383.20 1002.21 483.56 964.24 589.79 1076.75 578.02
00003864 00000073 842.16 165.75 364.52 525.25 918.52 394.99 1083.23 387.19 993.44 486.56 962.22 586.22 1074.45 579.11
00003865 00000074 840.41 165.55 364.56 524.15 917.67 394.96 1082.38 386.66 993.75 486.39 961.97 586.27 1073.03 578.77
00003866 00000075 838.62 165.76 364.67 523.81 915.39 394.66 1081.26 386.13 992.69 485.09 959.57 586.52 1072.07 578.82
00003867 00000076 836.68 164.85 365.29 524.63 914.21 394.14 1080.71 385.66 992.73 484.05 957.52 585.69 1071.61 577.88
00003868 00000077 832.40 158.86 373.19 529.52 913.53 392.67 1077.61 377.18 990.00 477.56 951.73 583.10 1073.11 570.14
00003869 00000078 832.16 157.20 371.37 530.47 912.06 393.56 1077.61 376.61 990.15 476.00 948.18 577.77 1079.98 563.70
00003870 00000079 831.09 158.69 369.61 525.59 910.41 394.53 1077.34 376.64 989.80 471.47 942.00 570.73 1081.56 556.33
00003871 00000080 835.64 159.80 362.03 515.57 907.95 388.51 1072.07 376.27 984.46 466.91 938.37 560.49 1077.60 551.37
00003872 00000081 830.80 151.20 367.78 528.12 905.00 378.72 1068.69 362.07 977.20 458.19 937.55 560.63 1068.64 547.65
00003873 00000082 834.05 146.97 357.37 523.47 912.76 376.43 1066.89 366.49 981.74 451.68 943.53 560.26 1060.17 553.17
00003874 00000083 834.11 148.56 356.36 522.26 910.39 374.66 1065.05 367.53 976.20 451.79 938.58 560.83 1052.11 556.30
00003875 00000084 834.23 149.80 355.50 525.00 908.16 374.24 1063.41 370.54 971.28 454.50 931.63 561.93 1043.39 560.74
00003876 00000085 833.70 154.76 361.65 529.89 905.95 378.60 1063.77 375.99 962.34 465.93 926.45 569.45 1039.71 568.55
00003877 00000086 837.02 165.23 360.98 515.00 906.37 388.17 1066.55 390.49 963.40 484.06 921.80 579.35 1036.26 582.80
00003878 00000087 844.86 184.43 355.03 492.06 913.98 399.24 1074.76 407.81 970.82 500.63 922.36 585.71 1039.44 594.43
00003879 DELETE   846.27 193.87 359.04 506.98 919.65 407.44 1082.54 418.98 980.85 515.80 933.01 592.36 1057.18 602.42
00003880 00000089 857.83 204.01 354.69 510.88 926.42 411.81 1089.04 425.32 991.72 524.60 927.19 591.23 1075.23 603.55
00003881 00000090 861.84 207.86 354.53 517.11 935.40 414.51 1096.11 430.77 998.85 527.08 929.45 589.03 1083.56 603.31
00003882 00000091 863.76 207.55 358.07 514.48 941.03 412.25 1102.90 429.41 1004.06 524.16 932.59 587.18 1087.21 602.13
00003883 00000092 857.56 202.13 365.27 508.38 947.45 407.39 1116.72 431.65 1011.02 516.50 941.48 577.17 1091.86 598.71
00003884 00000093 864.29 196.45 361.35 505.33 944.64 401.88 1113.24 417.55 1007.88 505.87 938.92 567.39 1089.52 582.13
00003885 00000094 864.17 185.71 360.55 511.43 946.15 394.54 1115.83 412.21 1011.26 497.22 939.93 560.56 1091.00 576.94
00003886 00000095 864.90 182.16 360.09 510.78 952.10 390.25 1115.87 409.84 1015.17 491.40 942.13 561.90 1091.40 579.26
00003887 00000096 865.88 175.04 362.08 515.34 952.08 382.32 1114.52 403.26 1013.15 484.87 943.39 556.91 1088.03 575.09
00003888 00000097 867.62 167.12 362.66 522.25 950.11 376.01 1112.43 396.91 1011.66 482.16 945.70 557.81 1079.84 575.74
00003889 00000098 863.62 162.09 367.43 530.23 950.07 370.69 1113.80 398.03 1007.45 486.14 943.79 555.85 1071.27 580.95
00003890 00000099 866.45 174.79 367.18 521.68 951.38 379.73 1114.18 407.05 1006.06 494.90 939.27 563.00 1067.18 588.52
00003891 00000100 866.13 185.66 368.91 519.88 956.95 394.36 1117.37 420.78 1013.70 502.23 944.54 578.07 1073.82 601.51
00003892 00000101 864.57 194.73 364.34 518.78 954.32 407.23 1114.43 436.12 1008.94 520.12 943.61 590.86 1067.97 616.17
00003893 DELETE   856.22 196.70 364.81 516.87 941.38 407.73 1097.71 436.35 992.64 511.76 933.77 590.46 1051.31 614.56
00003894 DELETE   856.38 190.34 355.96 507.98 927.46 391.66 1075.81 425.27 956.58 498.39 910.86 576.28 1029.40 604.46
00003895 00000104 849.02 178.74 356.97 510.38 912.22 378.88 1062.52 408.66 933.91 483.46 895.22 565.27 1013.81 591.39
00003896 00000105 849.92 170.28 357.43 511.37 908.83 370.18 1058.58 400.76 925.28 473.50 889.97 555.44 1008.54 582.46
00003897 00000106 850.03 163.51 358.11 513.12 907.35 362.57 1057.80 393.16 921.90 464.98 886.82 550.55 1006.03 577.73
00003898 00000107 850.33 157.91 351.58 507.74 904.40 350.61 1058.63 386.89 931.07 460.62 887.40 544.59 999.17 573.96
00003899 00000108 851.50 153.66 352.15 506.85 905.45 345.27 1057.77 381.36 930.81 454.97 888.93 536.61 1001.40 565.86
00003900 00000109 853.21 149.77 350.18 508.20 907.26 344.04 1057.48 375.97 933.90 452.99 894.18 535.90 1004.36 561.75
00003901 00000110 854.28 147.83 351.47 511.54 908.16 343.73 1060.37 373.83 937.74 454.52 897.30 536.96 1011.09 561.22
00003902 00000111 855.87 147.58 351.03 511.59 910.24 345.49 1063.74 374.16 942.22 456.89 901.31 539.05 1016.93 562.10
00003903 00000112 857.38 149.88 351.67 510.91 912.70 348.67 1066.66 373.89 946.86 457.22 906.99 542.41 1020.99 562.66
00003904 00000113 857.68 149.39 351.67 511.53 913.53 349.32 1068.50 372.64 949.58 456.12 908.08 542.85 1024.90 561.53
00003905 00000114 858.48 146.25 352.00 513.77 914.75 348.16 1071.62 371.74 952.55 456.49 909.45 542.20 1028.70 561.09
00003906 00000115 859.90 143.71 352.41 513.25 915.43 347.40 1073.60 369.46 953.09 455.48 911.58 541.54 1032.37 559.14
00003907 00000116 858.82 141.45 354.11 513.94 915.65 346.18 1074.17 367.40 953.79 452.90 912.74 540.09 1033.45 556.98
00003908 00000117 859.89 141.20 353.27 513.67 916.25 345.35 1075.19 365.77 954.80 451.91 913.26 540.99 1034.87 557.27
00003909 00000118 858.69 140.57 353.96 515.24 915.45 345.24 1074.75 365.36 954.53 451.22 913.39 542.48 1030.87 558.62
00003910 00000119 855.49 137.45 357.00 524.00 914.37 343.83 1075.31 366.50 951.54 451.85 909.23 541.15 1032.12 559.36
00003911 00000120 855.30 137.25 359.36 523.76 920.60 346.19 1076.97 364.35 956.98 445.45 917.70 539.56 1037.38 555.70
00003912 00000121 856.05 136.54 360.28 521.80 924.21 341.01 1082.29 355.26 966.82 441.12 929.11 538.50 1044.54 551.00
00003913 00000122 856.01 135.15 360.24 522.12 925.17 340.11 1086.83 349.28 977.48 439.13 934.92 537.92 1058.22 546.07
00003914 00000123 855.20 130.95 359.42 520.99 925.72 337.72 1091.44 344.91 986.40 434.49 938.05 533.90 1069.58 540.09
00003915 00000124 856.96 128.20 358.06 520.92 928.99 338.43 1095.27 342.64 994.55 431.20 943.03 531.05 1078.50 534.62
00003916 00000125 858.51 130.42 359.05 514.27 933.74 341.56 1098.63 342.64 1002.80 429.99 949.80 528.46 1085.63 529.22
00003917 00000126 853.79 136.71 365.21 506.70 938.79 343.91 1109.12 350.55 1011.09 428.88 956.45 523.30 1090.36 530.07
00003918 00000127 853.03 136.44 364.91 507.25 938.86 343.48 1109.60 350.94 1011.53 429.72 955.22 521.88 1090.78 529.28
00003919 00000128 851.71 134.91 366.27 512.03 937.39 342.81 1108.52 350.50 1009.97 428.88 954.26 522.38 1090.18 529.99
00003920 00000129 854.40 130.84 359.09 514.97 931.00 340.69 1094.88 342.49 1000.47 429.69 946.68 528.13 1080.54 529.45
00003921 00000130 851.42 130.03 357.16 507.69 926.31 338.31 1090.37 340.90 994.08 426.57 943.62 528.38 1071.46 530.51
00003922 00000131 847.44 129.48 358.19 507.09 922.88 336.76 1087.08 339.88 989.85 424.41 940.49 526.16 1066.42 528.80
00003923 00000132 846.12 129.79 354.79 504.69 917.97 332.71 1086.47 337.87 985.00 423.60 928.88 523.21 1067.58 527.87
00003924 00000133 842.34 129.52 355.46 502.62 914.21 332.25 1085.82 337.03 984.83 425.14 923.98 521.74 1069.18 526.27
00003925 00000134 837.65 130.74 365.13 505.37 913.27 334.54 1088.66 338.34 982.71 426.68 930.03 519.02 1072.55 524.59
00003926 00000135 832.91 128.92 367.43 511.47 911.29 335.92 1084.36 333.98 984.41 425.89 935.43 524.88 1070.47 525.78
00003927 00000136 825.73 127.52 369.12 510.40 905.79 342.17 1076.15 326.95 985.16 423.03 943.52 531.67 1074.10 520.97
00003928 00000137 815.75 133.88 373.33 504.80 898.18 350.97 1062.07 323.04 981.23 421.10 945.68 533.17 1074.73 511.24
00003929 00000138 806.31 139.74 376.86 498.43 891.27 355.02 1054.63 323.04 979.90 423.29 946.98 535.52 1074.50 510.02
00003930 00000139 797.06 145.12 379.31 493.40 882.56 360.59 1049.33 322.86 975.78 424.78 944.67 539.20 1073.94 508.87
00003931 00000140 788.89 147.59 381.48 493.31 876.69 363.36 1044.83 325.74 972.13 427.52 940.63 539.97 1073.47 508.90
00003932 00000141 786.60 148.72 380.19 495.43 873.99 367.22 1043.23 330.10 970.40 430.76 938.11 542.17 1072.19 511.38
00003933 00000142 785.24 150.48 379.71 493.04 870.72 369.63 1040.57 332.23 966.53 431.30 934.83 542.00 1070.29 510.93
00003934 00000143 786.20 150.85 379.24 492.52 868.08 369.72 1037.52 332.33 961.15 431.56 932.51 543.00 1066.71 512.25
00003935 00000144 788.30 150.92 378.31 491.69 868.83 368.29 1035.33 332.38 958.01 434.66 932.73 543.85 1061.84 514.75
00003936 00000145 790.59 150.23 378.44 496.84 868.27 367.68 1033.15 334.69 953.73 439.23 928.41 544.32 1057.08 517.83
00003937 00000146 793.65 148.84 374.74 501.55 868.35 364.28 1031.85 333.83 947.40 434.38 923.45 542.31 1051.97 518.36
00003938 00000147 795.70 149.53 371.83 500.46 869.93 360.55 1030.06 333.21 944.56 433.32 920.81 540.19 1044.85 519.24
00003939 00000148 797.59 148.40 373.04 497.89 867.73 359.23 1030.84 332.35 939.29 428.92 915.39 535.61 1045.18 514.77
00003940 00000149 798.15 146.94 373.14 500.16 866.77 358.43 1030.71 332.31 935.01 425.50 910.36 535.83 1039.79 516.02
00003941 00000150 797.66 146.44 373.82 501.87 867.40 359.85 1027.97 335.41 934.36 428.16 907.98 540.06 1029.60 522.02
00003942 00000151 797.80 146.80 374.38 503.16 868.20 360.60 1025.73 336.88 932.73 429.48 907.05 542.11 1024.21 524.97
00003943 00000152 800.72 145.61 373.97 505.60 868.88 359.26 1025.14 335.82 930.15 429.19 905.13 540.86 1023.29 524.06
00003944 00000153 804.39 145.04 373.44 502.20 872.15 356.94 1028.35 334.19 932.51 427.56 908.70 537.10 1027.16 520.97
00003945 00000154 807.63 141.91 372.59 503.26 876.24 352.19 1032.39 330.68 936.46 423.86 912.42 534.58 1028.80 519.58
00003946 00000155 812.13 141.93 368.61 500.48 878.26 353.07 1034.97 329.65 939.02 421.79 915.44 532.82 1033.90 515.92
00003947 00000156 815.62 138.65 366.95 502.91 877.81 351.31 1038.88 327.11 936.73 417.47 912.45 527.98 1042.52 509.80
00003948 00000157 817.50 133.95 364.49 504.52 876.62 346.77 1041.27 325.28 933.78 414.69 907.80 524.10 1044.01 508.24
00003949 00000158 818.49 129.85 364.90 505.56 877.91 343.04 1042.67 324.22 933.35 411.92 905.30 519.67 1042.31 506.16
00003950 00000159 819.69 127.01 365.41 507.66 879.45 341.71 1043.52 325.04 933.56 411.63 905.57 519.57 1039.56 507.93
00003951 00000160 819.42 126.95 367.39 509.64 882.19 342.10 1044.10 326.76 936.27 413.71 908.23 520.99 1037.10 510.69
00003952 00000161 820.70 131.53 367.85 507.71 884.83 344.95 1043.62 330.89 938.90 419.17 910.53 524.82 1033.94 515.93
00003953 00000162 826.52 136.38 358.53 508.61 886.67 347.08 1042.68 330.70 935.97 411.70 913.83 535.03 1023.63 520.73
00003954 00000163 827.05 139.71 359.26 507.33 888.19 347.21 1043.61 332.82 937.14 413.03 915.90 535.99 1022.53 523.17
00003955 00000164 828.45 142.26 358.74 511.13 890.88 347.99 1047.64 335.74 939.89 416.64 917.88 537.47 1027.78 526.20
00003956 00000165 825.46 136.68 366.53 515.15 892.88 351.16 1049.21 341.31 944.63 434.27 918.21 535.17 1036.29 530.32
00003957 00000166 831.27 145.88 356.55 514.28 891.95 352.04 1051.22 342.80 945.49 430.72 920.12 545.89 1039.02 538.97
