Video ID: 	NTX_OISg8zI
H: 	1080
W: 	1920
FPS: 	25.0

FRAME INDEX X0 Y0 W H [Landmarks (5 Points)]

00005500 00000000 592.24 237.97 394.24 577.93 748.19 487.89 932.01 482.59 879.84 602.46 770.16 696.42 911.81 692.69
00005501 00000001 592.41 236.38 391.26 577.38 743.04 490.28 923.25 485.18 870.09 601.09 767.00 695.18 906.00 691.34
00005502 00000002 585.91 236.56 395.35 576.66 732.80 495.95 916.80 492.78 859.47 601.62 755.00 695.55 899.94 693.31
00005503 00000003 583.66 233.82 396.77 579.35 728.96 492.66 914.75 493.28 856.09 602.22 746.45 691.93 896.89 693.16
00005504 00000004 583.64 232.80 395.75 576.06 726.52 489.58 912.07 490.33 851.17 601.19 744.93 689.18 895.42 690.27
00005505 00000005 584.31 232.08 394.27 572.81 725.66 488.85 911.17 489.69 849.47 600.59 743.96 687.25 894.83 688.34
00005506 00000006 585.88 232.91 393.38 569.69 725.89 488.80 910.79 488.51 848.68 599.62 749.52 689.02 894.63 688.68
00005507 00000007 586.46 232.39 392.60 570.39 726.57 489.84 910.13 488.73 848.61 601.58 753.09 691.71 893.02 690.64
00005508 00000008 586.00 233.32 392.41 572.17 728.40 492.32 911.00 489.44 851.02 603.28 756.35 696.18 892.04 693.77
00005509 00000009 586.70 234.82 392.53 576.60 730.52 496.12 915.80 491.17 856.08 604.99 758.21 700.13 897.70 696.00
00005510 DELETE   586.84 239.38 391.06 581.45 734.04 503.07 921.10 495.36 863.66 607.95 755.23 703.41 901.10 697.71
00005511 DELETE   592.94 247.22 385.39 581.20 740.99 509.08 921.37 500.45 870.36 611.11 757.29 704.80 903.25 699.08
00005512 00000012 592.85 251.84 387.03 583.79 748.92 505.88 926.19 497.51 878.79 613.93 759.87 704.16 905.91 698.81
00005513 00000013 597.94 257.22 382.91 576.08 746.09 500.59 925.14 496.57 881.98 616.61 758.89 706.54 909.40 704.58
00005514 00000014 598.58 259.93 382.89 574.22 748.80 501.73 928.17 496.40 888.02 623.19 759.60 708.69 911.23 706.30
00005515 00000015 597.04 263.97 383.96 571.48 749.83 504.91 928.21 499.42 889.33 628.39 757.75 709.57 909.99 707.24
00005516 00000016 595.98 267.40 383.15 566.67 749.43 506.90 927.16 502.84 887.98 630.03 755.67 709.90 906.69 708.96
00005517 00000017 595.74 268.51 382.79 565.72 748.36 507.19 926.48 504.04 886.33 629.84 754.34 710.16 905.29 709.80
00005518 00000018 596.97 267.69 380.41 564.71 748.53 507.90 926.25 505.41 885.87 630.63 753.63 709.58 903.68 710.05
00005519 00000019 597.03 268.47 381.06 564.38 748.46 508.78 926.89 505.81 886.18 631.56 753.85 710.05 905.10 710.07
00005520 00000020 598.12 271.84 380.28 562.23 749.78 510.87 927.22 507.80 886.68 632.83 753.52 710.26 905.56 710.42
00005521 00000021 599.34 275.14 379.06 559.11 751.24 511.82 928.11 510.10 887.11 633.38 754.17 711.09 904.93 712.37
00005522 00000022 599.73 276.99 379.29 556.09 751.56 512.36 929.04 511.60 886.90 634.30 753.75 710.97 904.84 713.26
00005523 00000023 598.58 279.16 380.73 552.78 750.90 511.45 929.39 512.26 885.38 635.20 752.54 710.05 904.20 713.61
00005524 00000024 597.40 277.54 381.19 552.23 749.25 509.01 928.91 510.78 884.43 634.30 751.52 709.30 902.77 713.55
00005525 00000025 594.92 272.77 382.60 556.24 747.69 507.38 927.01 508.18 883.88 632.36 751.50 709.15 900.69 712.42
00005526 00000026 593.18 267.42 383.60 559.12 745.95 505.64 925.55 502.89 882.44 629.08 755.61 709.82 901.42 709.87
00005527 00000027 590.19 260.89 387.31 563.34 744.54 501.51 927.18 497.69 882.96 626.41 756.99 707.85 904.25 706.77
00005528 00000028 592.02 260.08 386.57 564.39 745.45 500.31 926.90 496.11 883.68 622.68 759.35 706.41 906.11 704.99
00005529 00000029 592.40 260.50 387.40 567.63 747.05 498.85 927.45 495.36 885.22 621.91 758.65 707.84 904.78 707.11
00005530 00000030 592.56 261.39 387.46 570.19 748.56 497.96 926.47 495.67 886.97 621.48 756.14 708.51 901.32 708.97
00005531 00000031 593.65 259.35 386.59 570.49 748.36 496.18 926.59 494.30 886.43 617.63 756.99 707.15 901.73 707.78
00005532 00000032 588.21 252.46 392.24 575.81 750.75 494.88 931.66 486.86 885.57 611.80 766.47 707.35 902.09 702.31
00005533 00000033 588.27 244.86 393.91 573.32 749.09 487.79 933.59 483.24 881.65 603.99 771.77 701.83 905.40 698.53
00005534 00000034 586.88 233.15 396.95 576.53 747.50 484.06 930.78 481.21 878.16 599.28 771.76 697.33 904.66 694.86
00005535 00000035 586.85 231.01 395.45 575.91 744.18 484.91 930.46 481.94 875.76 597.76 769.75 695.91 904.30 693.28
00005536 00000036 587.25 230.00 391.64 571.58 745.02 483.87 921.88 482.76 869.52 595.11 769.85 691.28 896.06 690.43
00005537 DELETE   583.07 228.27 392.82 571.38 739.24 479.75 917.98 479.49 864.73 591.24 765.10 687.98 893.05 687.80
00005538 DELETE   583.73 232.07 388.81 563.69 734.52 475.74 914.80 482.23 856.65 579.52 754.49 676.60 888.83 682.32
00005539 DELETE   578.94 230.14 390.80 567.28 731.13 470.35 913.08 483.58 853.71 571.79 743.59 667.66 886.07 679.46
00005540 00000040 570.89 224.24 397.47 573.04 725.82 459.40 908.42 475.79 851.37 565.43 736.07 663.68 878.54 677.79
00005541 DELETE   569.28 217.72 389.26 576.73 720.34 455.77 899.44 471.92 844.60 559.55 727.62 656.71 872.40 670.01
00005542 DELETE   570.73 209.12 384.08 578.54 716.83 447.91 895.55 465.06 838.90 553.61 721.46 649.67 866.25 664.23
00005543 00000043 569.22 200.65 380.76 580.65 710.91 438.16 887.66 456.81 830.50 546.56 713.57 639.60 860.48 655.32
00005544 00000044 557.30 190.17 391.86 587.46 705.51 435.75 888.43 454.27 824.41 540.44 706.44 630.85 859.25 646.68
00005545 00000045 555.56 187.24 392.37 584.48 702.71 429.66 886.93 451.55 821.26 533.80 703.46 624.19 858.62 642.65
00005546 00000046 555.25 186.08 392.39 580.94 702.74 426.51 886.77 449.04 820.69 531.87 702.83 620.82 857.67 639.95
00005547 00000047 555.34 183.44 393.05 584.51 701.73 424.09 885.64 447.36 819.36 529.94 701.48 619.76 856.85 639.45
00005548 00000048 556.11 179.82 392.50 596.12 701.50 421.02 883.53 446.48 819.72 527.52 698.48 618.74 854.93 640.22
00005549 00000049 563.79 183.71 388.89 595.12 709.69 416.53 884.24 443.77 826.56 526.37 701.41 620.27 852.56 643.57
00005550 00000050 565.28 182.17 389.32 597.66 710.78 419.28 885.34 445.10 827.55 524.47 704.03 619.61 856.95 641.63
00005551 00000051 562.79 175.66 389.11 602.70 707.64 421.53 885.49 445.94 824.17 520.10 702.82 616.39 858.98 637.12
00005552 00000052 564.30 175.62 388.63 600.56 709.96 420.22 887.54 444.04 826.95 517.27 705.70 615.05 861.23 635.35
00005553 00000053 564.63 172.80 389.40 602.55 710.70 418.39 888.88 442.17 828.32 515.03 706.30 613.68 862.51 633.89
00005554 00000054 565.53 172.38 389.36 602.17 711.00 418.35 889.63 441.46 828.55 514.22 706.97 613.48 863.44 633.13
00005555 00000055 566.79 173.04 389.14 602.58 711.92 419.15 890.03 441.84 828.80 514.97 707.98 614.45 863.97 633.81
00005556 00000056 568.03 174.91 388.04 601.89 712.70 420.35 890.12 442.75 829.21 515.78 708.40 615.10 864.58 634.25
00005557 00000057 568.83 174.62 388.32 601.46 714.12 421.05 891.10 442.58 830.68 515.27 710.36 614.97 866.03 633.40
00005558 00000058 570.89 175.54 387.13 599.66 716.16 420.94 892.46 441.48 832.70 514.74 712.08 614.72 867.95 632.42
00005559 00000059 572.27 175.09 386.57 592.90 717.10 421.83 893.28 440.95 834.91 514.03 719.21 615.09 871.50 631.49
00005560 00000060 574.90 174.51 384.51 581.27 717.03 424.49 897.29 440.14 837.48 513.46 728.56 616.72 878.93 629.88
00005561 00000061 575.55 176.16 383.32 574.64 717.43 423.84 899.11 439.70 839.31 510.39 730.64 614.38 882.57 627.56
00005562 00000062 576.40 175.75 382.47 573.22 717.13 422.90 898.94 437.05 838.76 509.65 730.98 613.80 883.89 625.69
00005563 00000063 575.02 175.27 382.77 572.60 716.21 424.30 898.60 435.95 838.63 512.37 730.70 615.14 884.80 624.93
00005564 00000064 572.85 176.62 383.69 569.26 714.29 425.32 898.50 434.75 837.93 514.31 725.21 613.46 883.34 621.62
00005565 00000065 573.84 178.66 382.34 565.49 712.48 427.32 898.03 435.46 835.38 515.43 724.60 613.21 884.34 620.18
00005566 00000066 572.51 178.89 382.19 567.55 710.39 429.94 895.80 435.09 834.19 518.65 723.55 616.23 882.85 620.88
00005567 00000067 570.74 181.07 382.54 567.93 709.99 433.76 893.62 436.45 833.99 520.88 723.71 618.79 879.99 621.52
00005568 00000068 571.22 182.60 382.32 565.81 709.37 437.07 891.41 437.35 832.01 522.71 726.41 620.68 879.83 621.30
00005569 00000069 569.44 185.80 382.47 560.93 709.40 439.81 891.80 437.92 833.92 524.73 727.02 621.35 881.40 620.22
00005570 00000070 566.90 187.53 383.57 560.01 707.95 441.94 890.83 438.82 832.40 527.52 725.06 622.63 879.59 620.53
00005571 00000071 565.15 187.60 383.13 563.06 707.05 444.58 889.62 440.15 831.96 530.55 724.52 625.46 878.15 622.17
00005572 00000072 564.71 187.38 381.95 564.90 706.36 447.14 885.55 440.74 829.62 530.98 728.15 628.84 874.51 623.95
00005573 00000073 565.64 184.40 380.36 569.58 705.50 449.03 881.40 440.82 826.36 531.66 731.88 631.80 872.07 625.38
00005574 00000074 565.78 184.13 378.82 567.54 705.34 449.76 880.42 441.60 824.92 533.06 733.27 632.27 870.73 625.75
00005575 00000075 565.43 183.94 378.52 567.57 705.63 451.56 879.22 441.55 824.86 533.79 735.21 634.13 869.64 626.17
00005576 00000076 564.73 184.76 379.07 568.98 705.70 452.00 880.01 441.85 826.05 534.97 735.09 635.86 869.92 627.81
00005577 00000077 563.61 186.74 380.42 571.44 705.54 452.74 881.99 443.15 828.27 536.98 733.34 638.22 872.52 630.59
00005578 00000078 562.67 188.38 380.86 573.01 705.69 452.19 884.29 444.86 830.02 537.23 726.88 636.72 872.16 631.21
00005579 00000079 561.42 189.80 381.33 577.29 705.80 451.39 885.76 445.40 831.29 538.61 723.06 637.03 872.65 632.65
00005580 00000080 566.76 191.50 380.86 586.43 705.16 440.83 877.78 439.78 830.92 538.59 722.24 635.59 869.57 636.80
00005581 00000081 566.62 193.15 379.98 592.36 705.65 441.86 878.29 442.04 831.21 539.25 719.10 636.99 868.11 639.01
00005582 00000082 566.28 194.00 380.31 594.41 705.89 441.91 879.97 443.40 831.90 540.37 717.74 637.73 868.99 640.56
00005583 00000083 566.03 194.48 380.84 590.83 706.03 442.41 880.83 443.61 832.03 541.91 716.92 636.81 870.09 639.58
00005584 00000084 566.75 195.75 380.51 582.36 705.52 443.08 881.94 443.61 831.53 543.39 717.61 634.54 873.48 637.09
00005585 00000085 562.58 195.15 381.93 579.32 707.19 455.70 889.81 448.22 833.82 544.08 718.61 638.76 876.31 633.36
00005586 00000086 571.48 195.59 378.96 574.32 710.84 444.62 884.07 442.80 836.42 541.61 728.75 636.28 874.82 636.69
00005587 00000087 574.80 196.70 375.59 570.44 713.18 446.80 885.23 442.24 839.00 541.20 735.67 638.90 877.48 637.02
00005588 00000088 580.28 198.19 370.91 565.71 715.83 449.49 887.81 442.53 841.47 540.02 743.86 640.61 881.84 636.57
00005589 00000089 583.13 200.35 368.86 562.57 719.07 453.74 888.73 444.55 844.33 542.11 749.59 643.68 883.79 637.79
00005590 00000090 586.79 199.51 367.46 562.77 720.74 449.17 893.82 437.11 849.30 545.35 752.53 647.21 887.02 639.13
00005591 00000091 587.82 200.13 366.72 561.60 722.45 447.74 892.97 433.56 852.49 548.14 755.04 647.17 887.68 637.26
00005592 00000092 588.24 203.15 369.01 558.26 721.32 448.23 895.08 431.16 853.35 549.95 754.21 646.98 892.57 634.45
00005593 00000093 588.25 202.45 368.41 560.76 722.06 448.44 896.09 432.56 855.01 552.38 754.00 648.23 892.49 636.85
00005594 00000094 588.81 204.25 367.59 561.84 722.27 449.21 895.68 435.23 855.06 553.88 752.27 649.96 891.22 640.18
00005595 00000095 588.59 205.20 368.61 564.29 722.54 448.67 897.21 437.78 855.60 555.62 750.74 651.83 889.81 644.71
00005596 00000096 588.13 206.24 368.86 564.35 722.56 448.83 897.05 438.31 855.49 555.86 749.36 652.00 888.44 645.29
00005597 00000097 589.07 207.41 368.23 563.09 722.94 449.29 898.00 439.88 855.60 556.94 747.88 651.59 888.95 646.02
00005598 00000098 588.76 207.25 368.18 564.12 722.68 449.89 898.79 440.99 855.72 558.16 746.25 651.94 889.01 646.83
00005599 00000099 588.48 206.91 368.35 565.58 723.08 450.75 899.30 442.06 856.53 558.88 745.52 651.84 889.59 647.13
00005600 00000100 587.72 206.41 370.08 568.01 722.88 450.81 900.15 442.51 856.63 559.28 744.60 652.23 889.83 647.83
00005601 00000101 587.45 207.25 370.25 571.76 723.71 451.03 899.70 443.77 856.94 558.82 742.45 651.77 888.76 648.18
00005602 00000102 585.37 207.67 372.89 580.87 725.01 450.54 898.50 443.39 859.12 558.72 738.16 652.29 886.41 648.88
00005603 00000103 583.83 208.15 376.33 589.86 726.96 448.30 899.22 441.85 863.39 557.31 737.87 654.08 885.80 650.98
00005604 00000104 584.16 205.95 376.89 589.28 727.33 448.13 900.99 441.64 864.75 557.72 736.96 651.72 888.24 648.68
00005605 00000105 585.83 203.87 375.99 580.63 727.15 448.38 901.22 440.20 863.64 556.65 739.79 647.76 892.03 643.19
00005606 00000106 587.30 203.69 374.16 574.02 728.13 448.07 902.48 439.00 863.53 556.80 743.63 648.12 892.21 642.62
00005607 00000107 588.93 203.75 371.05 570.51 726.60 447.87 901.40 437.50 861.38 555.08 749.58 650.73 892.48 644.03
00005608 00000108 589.60 203.49 367.64 567.73 724.77 448.17 898.22 435.89 857.83 553.93 754.89 654.60 889.65 646.01
00005609 00000109 589.82 202.48 365.34 568.29 723.33 449.92 894.39 435.12 854.92 553.85 755.97 654.86 887.82 644.06
00005610 00000110 589.40 204.82 363.61 562.51 720.83 450.46 890.70 436.23 849.98 553.58 755.00 653.40 885.23 643.00
00005611 00000111 586.03 207.36 364.90 560.14 719.29 449.03 889.70 439.50 846.60 554.52 750.46 652.27 880.41 645.73
00005612 00000112 577.37 209.95 374.02 558.39 719.68 444.98 891.57 441.56 844.24 553.54 745.82 648.80 876.24 647.21
00005613 00000113 570.54 214.11 379.74 555.64 721.73 440.53 893.27 447.01 844.47 552.41 736.64 641.04 871.80 647.88
00005614 00000114 567.23 217.36 381.67 551.99 725.38 435.95 894.15 451.78 844.66 552.68 730.96 636.97 865.47 651.52
CROP_BBOX: 306 0 1235 968
