Video ID: 	_-91nXXjrVo
H: 	1080
W: 	1920
FPS: 	25.0

FRAME INDEX X0 Y0 W H [Landmarks (5 Points)]

00001538 00000000 520.80 158.31 463.51 625.73 625.51 399.81 832.17 382.48 731.39 528.93 667.96 621.27 855.06 606.31
00001539 DELETE   517.11 161.39 461.11 622.25 623.18 399.17 830.78 382.88 731.64 528.25 666.04 622.13 851.37 608.24
00001540 00000002 519.73 160.51 454.49 625.47 621.85 400.82 826.33 381.82 728.99 527.93 664.81 622.66 851.49 606.42
00001541 DELETE   516.80 156.30 458.22 624.04 619.92 400.92 824.83 377.03 731.10 523.37 669.40 622.29 851.65 601.76
00001542 00000004 515.83 152.84 454.60 627.24 615.86 398.42 822.40 372.74 730.15 522.40 665.90 621.84 850.00 599.67
00001543 00000005 508.71 148.23 453.99 627.04 613.36 395.60 823.23 369.77 731.16 519.03 660.48 618.58 849.11 596.26
00001544 00000006 506.41 144.99 456.24 629.31 612.62 394.66 821.06 366.17 732.18 515.84 664.38 619.46 847.04 595.05
00001545 00000007 500.96 145.28 460.07 627.12 611.01 394.34 820.25 363.32 733.33 514.90 665.56 619.80 847.16 593.11
00001546 00000008 497.70 144.37 463.67 631.99 609.80 394.91 816.85 361.75 733.20 510.67 665.79 619.49 846.88 590.94
00001547 00000009 497.78 145.53 462.93 625.26 606.65 397.41 815.34 359.39 731.68 509.13 668.02 620.69 847.87 587.86
00001548 00000010 493.94 145.30 463.23 628.97 606.48 401.12 811.15 358.99 733.47 509.87 673.84 625.32 848.26 589.25
00001549 00000011 483.19 160.79 467.25 610.95 604.18 413.67 807.51 364.13 736.92 515.32 675.78 631.81 844.19 588.26
00001550 00000012 479.56 162.17 472.52 611.70 601.51 412.78 802.27 360.08 732.94 511.09 676.03 631.69 841.90 585.17
00001551 00000013 474.91 165.26 473.88 609.43 597.35 414.69 796.25 357.51 730.70 507.69 677.63 633.85 841.05 583.65
00001552 00000014 474.15 163.94 470.64 611.52 592.62 416.15 788.91 354.52 725.90 502.79 678.29 634.20 842.22 580.36
00001553 00000015 462.34 169.21 474.68 607.50 588.00 428.26 775.70 358.27 723.82 500.51 681.33 633.37 846.72 571.10
00001554 DELETE   457.92 177.40 478.44 596.79 584.82 435.51 763.68 356.20 720.00 496.50 690.03 635.36 849.84 565.53
00001555 00000017 457.34 185.64 478.96 580.98 582.12 444.90 758.52 357.49 718.94 492.98 694.69 639.09 853.10 563.00
00001556 00000018 454.05 192.75 481.57 567.60 582.91 450.97 754.66 358.09 720.67 482.39 699.27 638.20 853.17 557.72
00001557 00000019 448.91 200.30 486.93 558.29 582.63 449.14 749.55 359.53 717.23 477.45 698.09 633.14 846.99 555.51
00001558 DELETE   442.97 204.01 492.66 554.48 580.90 451.77 747.61 360.18 717.67 474.90 700.36 633.95 847.42 554.80
00001559 00000021 437.17 203.46 500.89 552.95 577.87 451.34 744.66 354.75 717.32 472.72 703.12 633.40 849.87 549.77
00001560 00000022 428.79 206.15 511.72 547.88 576.16 447.88 744.47 353.08 717.00 469.39 700.25 628.09 849.06 545.80
00001561 DELETE   431.41 212.73 509.03 539.72 574.29 445.09 744.61 350.78 715.80 467.02 699.36 626.24 849.51 544.58
00001562 00000024 426.47 221.42 516.83 524.13 572.03 446.33 744.30 350.63 714.35 459.99 699.98 623.99 848.31 541.23
00001563 00000025 427.59 227.37 517.95 517.13 572.19 452.16 742.24 351.83 712.24 457.72 701.74 623.10 847.76 536.80
00001564 00000026 429.64 235.84 516.32 511.49 570.86 456.85 738.53 351.30 708.94 457.43 702.99 625.13 846.77 534.80
00001565 00000027 436.00 241.53 509.49 505.30 570.03 460.70 734.63 353.73 704.51 460.83 705.64 627.46 844.77 536.08
00001566 00000028 439.05 237.26 507.68 515.61 571.23 463.11 732.43 352.69 701.98 462.25 707.20 630.17 844.74 535.97
00001567 00000029 438.02 237.24 515.01 517.06 571.58 466.24 734.26 350.35 703.60 460.32 705.47 627.40 849.65 528.78
00001568 00000030 440.30 239.94 521.78 503.07 571.60 467.91 732.24 351.37 696.46 458.79 704.90 618.59 848.99 519.95
00001569 00000031 445.43 243.05 520.48 500.46 573.73 469.05 729.84 351.89 692.88 455.66 707.71 617.85 847.30 519.35
00001570 00000032 444.38 244.30 526.29 494.53 571.34 468.07 729.72 349.33 688.35 456.45 702.22 611.47 846.98 511.82
00001571 00000033 449.52 244.55 523.19 494.14 572.93 465.78 732.42 351.59 688.90 458.35 697.79 611.05 844.41 514.96
00001572 00000034 450.54 242.65 527.65 502.11 573.70 462.96 734.57 350.09 683.70 455.03 693.58 610.81 842.39 516.32
00001573 00000035 452.65 242.80 532.32 502.53 574.48 459.76 737.19 349.94 688.07 451.99 699.79 612.13 846.67 519.76
00001574 00000036 469.40 229.05 524.02 506.60 587.25 482.12 740.64 361.81 692.56 454.83 726.87 612.64 841.84 509.00
00001575 00000037 471.26 226.61 528.08 517.20 591.27 477.93 747.97 368.81 693.69 459.22 722.25 614.75 842.29 520.42
00001576 00000038 477.97 230.88 526.85 512.76 598.97 475.82 754.52 369.08 700.01 464.26 727.57 613.35 848.25 521.04
00001577 00000039 487.57 231.02 517.91 505.46 603.35 468.77 765.21 365.17 705.19 461.72 726.86 615.08 853.52 525.41
00001578 00000040 491.49 228.49 520.90 508.79 606.46 465.66 768.23 361.07 703.62 454.74 728.15 615.05 853.33 524.43
00001579 00000041 506.61 229.88 502.89 500.20 617.31 456.89 774.71 356.97 717.09 449.72 732.85 608.67 859.44 522.36
00001580 00000042 507.21 227.86 508.46 500.15 624.03 457.74 780.57 357.55 725.20 449.31 735.59 607.18 862.69 521.35
00001581 00000043 518.53 229.01 494.80 497.71 628.05 460.32 779.86 358.34 724.40 450.31 736.58 605.33 860.24 519.02
00001582 00000044 526.06 235.84 491.95 494.93 618.85 485.46 769.02 355.24 717.95 449.08 743.35 613.59 870.75 506.27
00001583 00000045 539.02 232.30 487.07 501.09 626.29 487.64 772.47 355.94 717.89 449.93 748.29 616.55 873.14 507.77
00001584 00000046 547.87 228.30 478.88 507.22 631.03 483.03 776.85 356.82 719.01 453.43 748.17 614.85 874.13 510.48
00001585 00000047 566.97 225.67 469.77 507.18 641.62 483.69 785.29 357.53 719.84 452.13 753.18 613.69 878.48 509.65
00001586 00000048 583.78 221.22 459.18 507.61 648.47 483.75 789.00 355.33 716.59 453.89 755.92 615.46 879.76 509.79
00001587 00000049 598.82 217.51 452.38 506.40 659.08 484.88 798.42 356.99 719.82 455.60 758.01 617.71 881.16 512.97
00001588 00000050 603.49 214.88 449.75 509.42 652.80 464.87 812.77 342.47 721.33 455.17 749.97 626.35 883.18 527.03
00001589 00000051 623.69 203.78 430.84 514.59 667.09 440.48 812.80 328.70 714.31 448.00 755.46 617.36 878.53 523.56
00001590 DELETE   632.70 198.20 431.52 517.75 668.83 437.09 817.93 325.12 713.80 444.09 755.45 613.69 881.10 520.42
00001591 00000053 639.85 191.63 434.21 521.81 674.61 431.02 824.51 320.99 719.94 440.00 760.80 609.79 885.30 518.50
00001592 00000054 642.04 190.34 436.95 520.35 677.14 429.12 829.48 321.35 723.28 439.96 760.49 608.61 886.30 519.19
00001593 00000055 647.52 182.21 436.80 527.56 681.44 428.33 833.87 320.22 728.74 440.07 763.51 607.00 891.82 517.32
00001594 00000056 656.77 188.92 445.22 522.44 691.93 424.50 839.13 325.57 732.62 442.33 767.65 601.70 892.30 518.91
00001595 00000057 661.40 187.75 443.93 525.39 697.52 420.78 841.04 327.78 732.36 443.14 771.04 598.10 894.19 519.37
00001596 00000058 671.68 188.81 443.31 526.71 705.32 417.22 844.12 327.80 733.42 441.69 773.62 597.24 893.80 521.15
00001597 00000059 681.04 181.47 443.74 533.41 712.86 417.49 848.58 330.06 737.96 441.39 777.65 596.32 897.23 522.20
00001598 00000060 689.53 175.99 439.90 539.97 718.17 411.29 856.70 330.25 742.53 440.20 777.10 594.06 899.96 525.11
00001599 00000061 699.56 180.68 430.49 536.64 724.48 403.29 863.76 332.82 745.24 442.22 776.17 591.26 897.89 530.92
00001600 00000062 698.59 179.18 419.53 547.52 723.61 400.77 860.60 330.28 733.07 438.89 775.58 599.79 898.41 539.29
00001601 00000063 710.24 176.01 413.19 546.05 731.86 394.71 862.44 330.61 733.95 435.25 781.20 592.37 899.44 537.66
00001602 00000064 705.02 176.23 417.39 543.09 733.09 394.22 865.10 332.34 736.63 434.73 782.32 590.35 900.12 537.47
00001603 00000065 706.45 179.46 412.77 539.17 736.44 394.25 866.58 334.47 738.91 435.61 782.66 588.82 899.12 537.57
00001604 00000066 716.00 172.98 404.65 542.40 741.84 393.57 865.51 335.51 740.98 436.06 788.63 587.04 898.54 537.05
00001605 00000067 732.29 177.71 402.22 535.88 772.55 380.34 882.05 333.96 751.61 434.60 802.25 583.20 898.16 544.08
00001606 00000068 737.24 161.11 394.33 550.33 777.14 376.92 886.01 335.16 756.38 434.10 803.68 579.09 902.11 543.88
00001607 00000069 743.33 153.41 392.83 557.12 785.74 377.18 890.53 334.42 762.14 433.09 812.07 579.60 907.99 543.59
00001608 00000070 749.87 158.91 385.04 551.07 790.75 373.43 896.47 334.90 767.19 435.40 813.46 577.48 910.73 545.46
00001609 00000071 754.79 151.70 376.77 555.03 799.41 369.57 899.95 337.12 771.27 435.82 816.70 571.49 911.61 544.69
00001610 00000072 762.86 168.74 362.27 533.43 793.00 371.59 903.96 340.02 785.13 422.63 817.01 564.99 906.81 536.91
00001611 00000073 768.87 162.13 357.62 536.74 800.90 367.13 911.31 341.83 794.65 422.70 818.28 559.06 908.69 536.91
00001612 00000074 769.75 151.59 352.64 548.23 804.52 360.42 917.50 344.22 796.68 424.54 817.34 556.08 911.09 541.56
00001613 00000075 772.78 142.88 351.55 557.58 810.41 351.59 920.22 343.12 799.18 423.21 816.66 550.78 910.13 543.02
00001614 00000076 775.51 136.62 346.06 563.11 816.02 344.81 922.90 342.74 803.62 420.85 818.22 546.26 908.99 543.84
00001615 00000077 777.77 125.73 351.18 574.74 823.03 343.44 929.23 341.72 804.82 419.03 820.96 544.36 910.49 542.96
00001616 00000078 782.34 126.06 347.75 572.29 829.85 340.16 933.77 341.20 807.45 416.63 824.22 541.46 911.97 542.35
00001617 00000079 781.28 111.89 358.14 586.93 833.32 335.69 939.85 338.90 805.72 411.84 823.63 538.50 914.38 541.30
00001618 00000080 785.77 106.12 360.55 589.69 836.88 337.12 934.48 331.74 800.93 406.40 826.48 538.41 910.38 533.40
00001619 00000081 787.99 102.73 358.82 590.65 841.77 331.20 939.41 330.43 801.97 403.30 825.28 533.78 911.22 532.90
00001620 00000082 786.78 97.65 360.92 593.44 847.28 328.03 940.87 331.90 804.17 402.29 825.76 529.08 909.21 531.72
00001621 00000083 787.00 89.41 365.06 599.27 853.97 320.25 944.27 330.65 805.24 398.16 826.38 521.17 907.37 528.90
00001622 00000084 784.51 90.99 369.52 595.53 854.82 311.99 946.62 325.41 802.72 392.24 822.04 517.26 904.15 527.45
00001623 00000085 785.35 91.96 367.80 589.56 852.10 308.95 949.29 324.50 803.84 390.89 818.29 514.28 904.28 527.14
00001624 00000086 787.31 76.24 368.09 602.52 853.34 302.45 957.94 319.77 808.04 387.24 820.12 514.17 903.45 529.50
00001625 00000087 790.94 69.89 354.51 602.10 855.03 295.30 969.79 310.80 814.76 377.11 824.98 509.23 912.08 523.64
00001626 00000088 789.69 63.20 356.93 594.33 855.55 300.21 991.48 313.62 843.26 366.06 827.66 499.14 934.44 512.39
00001627 00000089 789.04 59.24 379.15 588.14 856.69 297.95 1013.18 304.48 858.84 348.92 826.96 495.03 944.51 502.13
00001628 00000090 802.49 57.58 400.31 583.18 868.07 284.02 1036.89 294.33 882.69 346.90 840.85 485.64 974.79 497.62
00001629 DELETE   808.09 61.29 392.30 574.67 875.66 284.35 1048.06 290.74 898.72 346.70 853.92 482.51 995.64 490.47
00001630 00000092 803.16 72.35 401.63 568.53 880.17 284.31 1058.47 288.19 913.66 344.95 861.58 480.47 1008.75 486.54
00001631 00000093 800.20 77.30 400.67 568.92 880.03 287.32 1061.88 290.28 920.82 346.17 863.12 484.07 1014.45 489.52
00001632 00000094 796.08 77.21 401.39 572.94 876.45 291.86 1058.09 292.21 919.58 347.63 861.68 486.97 1014.35 490.48
00001633 00000095 794.46 84.04 396.92 569.74 868.07 295.31 1045.47 292.39 906.81 349.48 854.17 491.28 1003.79 492.63
00001634 00000096 786.46 83.54 397.22 571.60 857.64 298.16 1033.66 296.15 893.93 354.30 844.37 496.11 988.62 498.77
00001635 00000097 762.85 91.52 402.59 565.99 839.68 307.84 1014.97 303.33 859.59 360.61 826.63 506.14 962.40 505.04
00001636 00000098 757.39 89.96 400.56 565.80 822.21 310.29 995.86 302.22 841.15 369.47 812.51 512.20 946.68 508.58
00001637 00000099 756.37 85.43 404.37 572.81 814.79 314.65 985.76 303.71 828.86 373.61 805.61 516.52 941.38 510.39
00001638 00000100 756.09 83.94 393.16 578.79 808.21 319.34 978.15 306.68 823.00 376.86 801.99 521.34 940.08 513.60
00001639 00000101 752.82 92.73 396.24 580.51 809.87 328.58 978.64 312.86 814.27 375.00 800.53 521.64 936.89 510.56
00001640 00000102 750.11 88.52 401.82 600.71 807.58 332.63 972.66 313.71 811.12 381.31 803.34 531.70 936.88 517.46
00001641 00000103 747.17 93.43 404.54 605.92 805.93 334.32 965.61 312.89 809.76 384.84 805.56 539.04 933.45 522.45
00001642 00000104 748.03 101.61 404.62 606.12 803.87 338.46 964.22 314.27 809.24 388.37 806.48 546.66 938.19 527.77
00001643 00000105 744.53 104.73 409.91 606.15 801.91 337.66 960.48 314.68 807.15 388.83 805.17 546.62 937.19 528.34
00001644 00000106 736.57 101.51 414.43 610.71 795.74 337.00 955.35 313.37 800.57 385.18 799.84 546.03 932.23 526.84
00001645 00000107 727.89 102.51 410.31 609.66 788.91 330.22 950.73 308.42 795.59 375.40 791.66 542.21 921.89 524.13
00001646 00000108 724.59 98.11 405.00 614.40 784.08 326.74 947.89 305.07 790.42 372.47 785.46 542.25 915.50 524.44
00001647 00000109 721.45 98.87 403.54 614.73 779.33 326.98 943.62 305.65 785.54 373.68 782.48 544.31 912.26 526.65
00001648 00000110 716.23 108.85 405.57 606.14 776.26 332.41 942.92 312.49 786.69 379.16 779.31 548.59 909.21 532.15
00001649 00000111 715.72 107.72 412.63 602.69 778.21 334.93 941.42 313.63 789.18 385.70 785.60 548.26 910.12 530.92
00001650 00000112 717.53 102.10 409.38 605.02 775.69 334.42 936.03 319.85 781.29 393.66 776.18 545.67 902.25 534.25
00001651 00000113 717.32 114.49 405.12 593.50 773.38 340.97 931.84 326.99 782.18 403.05 776.53 551.25 901.24 540.14
00001652 00000114 716.06 112.54 400.42 601.16 768.44 351.31 927.73 334.86 782.61 413.70 775.15 563.35 895.89 550.54
00001653 00000115 714.89 114.46 404.27 603.85 753.73 353.58 923.90 339.51 773.80 427.01 758.22 569.99 887.27 559.68
00001654 00000116 713.15 136.74 402.43 594.85 761.92 362.86 921.26 349.35 777.55 433.96 771.37 580.97 891.52 569.96
00001655 00000117 711.79 147.80 384.93 593.92 758.62 370.93 916.94 354.61 776.07 446.88 767.76 596.35 883.75 583.33
00001656 00000118 714.75 132.52 381.50 620.71 754.20 375.05 916.16 366.75 774.41 460.72 767.68 600.29 884.33 594.47
00001657 00000119 713.78 130.83 377.16 624.05 753.21 376.36 912.18 372.12 771.30 464.88 766.72 600.44 881.13 598.05
00001658 00000120 712.61 127.43 371.21 634.63 750.19 378.71 909.90 376.13 768.20 469.78 764.90 604.41 882.54 603.57
00001659 00000121 712.16 122.77 372.82 639.82 749.85 378.50 907.34 377.93 765.75 473.51 765.45 604.75 880.20 605.66
00001660 00000122 707.37 117.54 373.06 646.68 746.27 382.83 901.99 381.01 764.00 475.08 761.89 607.07 874.80 606.78
00001661 00000123 704.00 119.98 374.34 648.71 744.43 386.14 898.45 380.46 759.15 476.37 761.04 611.33 871.48 607.75
00001662 00000124 694.86 132.01 385.68 639.51 739.09 390.95 896.07 383.74 758.57 481.55 757.50 617.97 868.44 612.82
00001663 00000125 692.59 130.19 394.74 647.97 735.23 391.07 888.41 388.23 752.86 487.98 752.95 621.55 861.97 619.78
00001664 00000126 684.01 131.22 406.72 648.84 730.98 394.35 884.36 388.97 743.89 486.26 750.76 618.88 857.04 615.38
00001665 00000127 675.34 138.22 412.08 641.70 728.02 395.48 881.35 389.95 740.31 489.32 748.42 619.34 856.58 615.54
00001666 00000128 669.30 138.05 413.73 644.07 723.72 395.68 879.87 388.77 741.92 489.79 746.70 620.83 856.78 615.90
00001667 00000129 668.17 138.95 414.52 644.55 721.40 398.01 875.48 388.17 739.10 493.55 748.88 624.24 856.68 616.68
00001668 00000130 666.51 144.07 414.30 640.98 719.28 396.67 873.44 386.21 739.16 496.08 748.68 624.76 857.42 616.73
00001669 00000131 663.75 141.83 412.82 642.07 716.80 396.83 870.96 384.40 738.96 495.57 750.29 625.06 856.86 615.14
00001670 00000132 659.94 141.04 412.00 637.97 714.59 394.74 865.85 384.47 738.62 499.54 745.74 623.87 859.74 614.44
00001671 00000133 656.63 136.06 410.16 637.91 711.13 393.02 866.28 381.61 740.52 497.04 743.71 622.08 859.03 611.99
00001672 00000134 655.91 137.04 411.59 637.27 709.90 392.56 865.80 378.38 739.99 493.53 746.07 623.07 860.36 610.54
00001673 00000135 659.85 134.60 409.48 645.73 710.55 390.99 866.90 375.00 738.43 488.71 744.66 624.81 861.51 610.52
00001674 00000136 659.19 135.76 415.38 644.34 709.02 388.70 868.30 374.38 735.84 489.42 742.57 622.01 866.37 608.93
00001675 00000137 658.94 138.63 421.53 640.69 710.77 389.06 875.16 374.04 740.88 488.57 744.46 620.23 868.85 607.66
00001676 00000138 660.16 139.27 421.70 638.77 711.17 388.32 874.56 372.06 741.08 488.36 747.74 618.75 873.44 604.85
00001677 00000139 661.71 138.32 421.56 638.42 711.73 388.57 873.42 371.87 740.12 488.55 748.97 617.65 876.20 603.13
00001678 00000140 660.30 136.64 423.83 639.20 711.63 388.51 873.62 371.05 740.57 488.45 750.20 616.63 878.98 601.29
00001679 00000141 661.85 140.29 425.27 632.09 714.45 388.98 876.09 373.14 743.25 490.17 751.75 615.77 880.79 601.73
00001680 00000142 665.89 138.93 420.14 639.35 716.73 391.03 878.23 376.14 742.92 491.99 752.33 619.53 880.41 606.57
00001681 00000143 671.63 136.73 416.25 643.07 719.82 391.93 877.58 378.32 740.95 493.70 754.13 620.12 878.84 608.43
00001682 00000144 675.52 141.91 413.77 641.48 722.40 394.16 876.90 382.26 739.43 496.44 754.75 621.98 877.66 611.87
00001683 00000145 679.81 150.45 408.70 635.88 724.71 397.39 877.35 386.26 738.70 498.87 755.15 623.72 877.80 614.55
00001684 00000146 678.51 158.17 413.47 633.08 724.03 402.35 876.28 390.71 740.12 504.04 755.64 627.16 878.15 617.94
00001685 00000147 684.25 153.34 411.44 643.66 728.54 405.99 878.13 395.40 739.98 508.16 757.78 629.62 879.55 621.52
00001686 00000148 680.90 152.58 414.32 648.43 727.85 408.32 883.37 401.27 744.01 514.03 753.84 633.19 880.68 627.99
00001687 00000149 680.14 162.03 416.27 645.17 726.74 411.34 882.23 406.60 745.72 518.83 755.34 638.91 878.09 635.47
00001688 00000150 678.06 167.09 418.32 647.89 725.79 413.84 879.19 412.93 743.61 527.82 757.71 642.17 880.82 641.61
00001689 00000151 677.53 172.46 413.49 645.09 723.50 419.11 876.47 417.33 742.67 534.17 759.04 648.05 880.00 646.49
00001690 00000152 681.51 173.52 408.59 645.33 724.22 424.54 873.57 423.42 739.38 538.82 758.67 651.62 878.49 650.42
00001691 00000153 677.66 170.01 408.80 650.71 721.54 425.95 869.98 422.59 737.83 539.16 758.78 653.94 875.46 650.70
00001692 00000154 674.04 178.19 407.72 642.75 717.26 426.95 866.96 420.73 736.48 539.10 756.60 655.85 873.43 650.04
00001693 00000155 672.05 183.76 406.26 634.79 714.63 426.11 862.12 420.02 734.45 539.81 755.14 654.27 870.96 648.15
00001694 00000156 670.95 181.74 404.40 637.11 713.08 426.59 860.07 419.60 732.75 540.61 753.89 655.99 868.62 649.16
00001695 00000157 671.13 184.48 404.29 639.65 712.67 432.37 857.87 424.10 729.65 544.58 755.06 661.97 869.16 653.61
00001696 00000158 674.43 195.83 396.40 630.35 712.04 440.37 859.15 427.08 729.49 547.39 757.10 669.69 871.33 656.69
00001697 00000159 672.37 205.28 398.55 621.53 709.53 446.70 860.29 434.65 727.05 549.08 752.51 673.70 870.64 661.27
00001698 00000160 670.69 194.18 398.51 636.80 711.04 449.87 857.92 440.97 724.80 549.44 750.78 674.45 868.89 664.15
00001699 00000161 667.21 197.07 399.01 635.85 710.31 450.61 859.88 445.51 722.95 550.37 745.65 673.60 867.03 666.31
00001700 00000162 664.71 199.58 402.10 636.29 708.14 452.52 859.56 448.11 720.51 552.39 741.94 675.39 865.61 668.55
00001701 DELETE   664.88 205.29 398.46 633.91 708.98 453.80 856.03 452.50 717.68 555.57 741.30 676.18 864.65 671.56
00001702 00000164 665.32 207.28 391.30 632.15 708.59 454.96 853.37 456.27 715.25 557.04 737.56 676.23 860.38 673.68
00001703 00000165 661.63 210.15 392.83 630.60 709.21 460.14 855.72 457.97 718.33 561.83 727.05 678.27 857.97 674.87
00001704 00000166 645.67 210.28 386.96 615.69 696.31 459.23 849.59 460.09 714.75 551.83 717.45 677.76 840.21 676.25
00001705 00000167 643.23 199.17 378.85 625.99 690.35 451.77 845.98 454.43 706.88 546.13 709.44 675.51 830.27 676.29
00001706 00000168 634.81 196.61 375.55 626.87 688.71 441.36 843.69 448.04 704.35 537.57 701.02 668.94 816.07 673.84
00001707 00000169 630.49 185.19 376.25 626.44 685.00 433.34 840.17 438.69 700.61 528.63 699.96 661.21 811.30 665.32
00001708 00000170 619.82 181.62 391.43 625.95 680.37 425.37 844.60 434.95 701.16 520.00 685.85 649.99 804.03 658.19
