Video ID: 	nbwMV7o7Was
H: 	1080
W: 	1920
FPS: 	29.97002997002997

FRAME INDEX X0 Y0 W H [Landmarks (5 Points)]

00007023 00000000 530.97 146.20 371.24 586.26 683.34 395.15 863.36 353.23 847.10 489.72 725.77 601.45 872.40 568.15
00007024 00000001 540.44 153.03 366.90 567.04 683.68 400.62 865.75 358.84 838.88 491.69 732.60 605.72 872.53 572.13
00007025 00000002 539.33 143.45 363.61 576.06 689.25 400.20 858.44 359.55 841.17 487.35 753.43 606.68 871.71 575.00
00007026 00000003 550.49 143.83 358.77 576.15 703.05 393.91 866.95 356.18 850.68 489.04 765.36 607.94 875.23 577.58
00007027 DELETE   560.84 126.37 355.06 612.33 711.64 397.58 873.26 358.84 859.48 486.93 766.85 610.94 882.04 580.14
00007028 DELETE   573.85 129.98 354.35 616.95 719.44 394.01 889.11 359.46 873.00 485.06 769.75 612.28 897.61 583.99
00007029 DELETE   579.82 143.56 354.15 597.49 728.62 390.46 898.92 355.72 888.62 482.31 773.78 608.81 904.38 580.82
00007030 00000007 586.24 152.32 355.14 582.30 735.51 390.18 909.97 354.78 900.22 484.44 779.23 608.51 910.76 580.21
00007031 00000008 588.25 144.19 360.81 583.93 738.33 389.30 915.83 355.22 900.29 483.21 785.40 606.80 916.48 578.98
00007032 00000009 591.76 149.86 363.91 569.60 742.44 388.70 917.36 351.11 903.84 482.58 792.28 602.52 921.15 571.61
00007033 00000010 584.92 151.24 372.83 561.79 743.85 388.68 921.04 347.05 910.69 482.77 795.07 598.82 925.50 564.26
00007034 00000011 585.86 152.87 371.75 559.02 745.49 388.93 920.99 346.83 911.39 483.77 795.74 598.33 925.00 563.63
00007035 00000012 585.56 150.58 372.39 567.87 745.06 387.02 919.78 347.94 911.12 481.72 792.32 599.93 922.14 567.92
00007036 00000013 589.82 153.57 365.10 574.68 744.45 382.90 916.23 349.13 907.02 480.44 788.62 601.36 918.21 573.95
00007037 00000014 590.05 150.74 363.29 578.18 743.58 384.48 916.95 350.32 907.67 480.49 786.08 602.70 916.89 575.37
00007038 00000015 588.92 151.58 362.88 580.00 740.18 382.97 912.40 351.05 901.69 476.72 782.65 600.57 914.25 574.97
00007039 00000016 592.25 146.49 362.29 584.89 740.55 380.36 911.77 348.12 899.94 476.41 777.98 596.59 913.18 570.97
00007040 00000017 592.29 145.40 364.07 577.87 739.82 377.54 913.27 349.42 897.91 473.98 777.13 589.58 915.84 566.94
00007041 00000018 594.04 139.45 362.45 565.00 741.01 376.91 914.94 344.95 898.91 472.43 781.49 585.12 918.47 559.62
00007042 00000019 589.70 138.24 369.70 559.53 741.96 372.21 914.72 337.09 899.21 467.87 783.06 579.78 917.79 551.88
00007043 00000020 599.88 138.55 362.13 551.41 742.75 371.01 917.26 334.68 897.49 463.35 787.09 576.08 921.79 547.56
00007044 00000021 596.45 128.50 365.63 565.75 740.95 362.20 918.19 332.26 895.09 454.10 786.69 572.58 924.08 548.35
00007045 00000022 595.03 121.86 366.14 570.86 739.39 356.98 918.41 330.25 893.46 450.56 784.10 569.58 922.81 547.77
00007046 00000023 599.22 121.90 361.13 554.62 743.32 356.04 921.01 325.74 896.77 447.35 789.37 564.16 926.57 540.31
00007047 00000024 604.09 123.62 360.37 545.28 757.70 349.30 929.89 324.12 901.96 439.50 801.50 554.94 930.77 534.06
00007048 00000025 605.58 113.20 361.29 551.09 765.13 343.71 930.12 320.97 907.01 429.33 804.14 544.15 932.70 525.70
00007049 00000026 609.89 105.29 359.67 562.74 770.31 336.88 932.61 317.61 912.49 423.82 802.97 539.07 932.45 524.31
00007050 00000027 610.03 105.80 361.83 575.30 768.26 326.10 936.16 312.75 914.22 415.92 796.53 539.97 931.07 530.60
00007051 00000028 611.06 107.06 360.43 571.18 766.93 325.24 932.79 308.52 914.26 411.43 793.09 533.70 932.49 521.83
00007052 00000029 606.73 96.24 363.50 565.43 765.16 325.56 933.89 302.15 914.14 408.99 794.56 525.50 937.76 508.44
00007053 00000030 607.80 89.70 361.43 561.34 757.53 323.04 934.96 300.91 906.52 406.37 785.60 519.38 935.82 503.21
00007054 00000031 603.05 89.58 360.65 554.62 753.64 314.92 930.06 299.56 899.21 397.29 784.98 515.56 927.60 504.21
00007055 00000032 599.96 87.71 354.17 564.27 742.28 311.77 916.08 293.79 893.18 395.08 779.58 518.15 920.70 504.69
00007056 00000033 588.28 90.64 358.17 568.38 730.66 313.80 900.46 296.61 877.18 398.54 774.82 525.35 904.83 511.89
00007057 00000034 581.81 89.22 354.26 577.01 719.58 315.91 888.01 300.97 858.11 402.21 771.48 532.49 892.66 520.58
00007058 00000035 570.08 81.35 360.24 595.72 707.56 306.94 876.35 287.28 844.83 399.81 761.73 536.45 881.65 520.56
00007059 00000036 562.14 77.64 367.00 588.60 694.50 296.99 868.74 277.63 830.87 396.40 753.73 530.07 875.62 514.09
00007060 DELETE   554.54 84.39 367.97 567.81 679.09 300.38 860.44 276.77 816.19 393.80 744.92 527.44 874.77 508.58
00007061 00000038 550.40 79.99 367.39 578.93 673.07 298.33 852.96 272.68 810.16 389.02 735.40 521.02 871.41 500.52
00007062 00000039 546.10 84.59 368.77 568.11 669.37 309.79 854.39 280.59 809.20 387.09 718.23 515.88 870.65 492.09
00007063 00000040 543.76 80.51 367.84 571.15 665.57 306.31 851.45 280.67 804.95 385.49 712.89 514.92 864.33 494.01
00007064 00000041 535.69 80.76 372.85 567.20 659.51 302.92 843.43 278.39 800.77 381.78 710.18 511.01 858.30 490.49
00007065 00000042 536.26 82.69 369.85 561.36 659.74 303.89 843.70 282.28 800.12 378.04 707.88 507.31 859.06 489.33
00007066 00000043 537.29 82.60 363.75 551.08 658.49 305.79 838.69 281.21 797.69 373.10 710.90 501.64 857.88 480.78
00007067 00000044 537.77 80.25 364.04 548.45 656.00 299.23 837.05 269.11 797.15 367.39 713.15 498.52 860.24 472.54
00007068 00000045 538.35 83.19 367.97 552.69 655.76 296.08 836.69 263.23 798.72 361.75 714.61 499.02 864.70 470.69
00007069 00000046 536.80 82.38 370.39 565.64 655.37 287.84 840.75 256.66 802.42 359.18 710.54 501.59 867.41 474.66
00007070 00000047 537.95 78.42 371.17 561.96 659.02 288.61 844.84 256.85 806.51 359.14 714.23 500.02 869.30 472.76
00007071 00000048 544.95 76.77 361.46 538.90 664.79 289.82 847.20 256.38 807.11 359.26 722.62 495.05 867.18 467.00
00007072 00000049 541.54 76.18 364.22 529.68 664.60 291.59 845.73 254.65 807.54 359.52 722.62 491.21 867.24 460.49
00007073 00000050 536.20 77.79 369.69 542.99 657.43 295.80 839.29 254.86 802.74 360.21 719.08 496.36 867.65 461.86
00007074 00000051 527.11 85.56 382.06 564.21 651.26 293.60 835.58 260.58 798.01 363.41 707.72 506.08 862.23 478.26
00007075 00000052 525.20 79.87 377.79 566.42 649.89 301.44 836.94 265.59 798.21 372.94 705.83 509.71 862.75 479.45
00007076 00000053 526.73 76.18 367.68 557.67 653.31 312.33 838.93 274.14 800.18 387.74 709.91 511.36 860.65 479.04
00007077 00000054 526.64 82.47 369.44 554.42 651.52 321.29 840.37 284.23 796.19 402.74 707.24 516.77 859.89 485.32
00007078 00000055 524.33 86.76 373.36 572.19 646.69 326.27 838.22 293.59 787.94 416.76 701.12 534.83 853.39 507.46
00007079 00000056 518.34 97.75 375.68 574.94 642.05 333.25 825.82 305.74 777.10 423.22 696.07 547.77 838.57 525.18
00007080 00000057 518.28 104.39 372.71 570.01 642.13 342.25 822.12 313.65 772.85 432.48 692.79 548.40 837.18 524.67
00007081 00000058 514.32 102.59 376.53 576.85 637.81 345.33 819.23 316.63 768.15 434.53 687.82 549.06 836.50 524.93
00007082 00000059 517.50 100.72 371.92 571.86 639.21 340.99 820.20 312.87 770.05 432.75 689.14 546.49 835.02 523.01
00007083 00000060 516.60 98.04 375.35 574.97 641.08 336.24 823.88 308.58 774.69 425.57 690.44 542.75 839.02 519.69
00007084 00000061 523.94 94.22 369.68 566.00 646.00 332.73 827.92 300.12 782.31 419.26 701.34 538.17 845.85 511.11
00007085 00000062 532.19 93.82 364.68 557.32 655.62 328.21 839.14 296.94 794.97 411.15 710.78 532.02 854.52 506.24
00007086 00000063 531.98 94.19 367.69 560.65 666.89 330.66 844.99 298.41 811.26 398.92 718.22 525.97 865.26 499.66
00007087 00000064 538.03 104.91 369.32 561.85 673.86 313.14 847.13 287.50 819.76 386.67 717.78 521.00 867.52 501.26
00007088 00000065 542.44 100.24 368.28 555.61 678.33 312.29 855.26 282.06 828.05 378.59 728.03 517.93 877.76 493.90
00007089 00000066 539.74 88.53 373.32 547.74 687.29 310.89 859.78 273.16 841.93 374.82 744.09 510.97 883.71 480.79
00007090 00000067 542.24 95.38 367.96 526.91 688.25 295.91 853.38 266.67 839.50 367.65 757.47 496.18 880.54 473.22
00007091 00000068 543.91 82.33 365.77 531.20 696.24 302.13 858.81 258.70 848.05 358.63 764.52 497.61 888.39 461.39
00007092 00000069 541.97 73.21 373.04 542.53 695.38 285.74 846.54 252.37 852.05 346.44 779.65 486.53 890.28 458.26
00007093 00000070 538.55 76.73 373.20 535.74 704.35 284.32 856.52 250.00 856.89 344.74 766.20 485.67 885.57 457.13
00007094 00000071 539.27 80.05 376.99 548.15 706.61 278.43 854.47 248.28 858.80 341.60 761.15 483.10 883.67 458.25
00007095 00000072 549.57 72.22 370.85 550.32 703.18 273.81 853.42 249.86 860.32 335.73 771.60 475.38 891.32 454.61
00007096 00000073 547.82 66.03 371.09 545.56 704.56 275.91 859.22 253.98 862.96 339.57 773.59 476.08 893.62 457.16
00007097 00000074 540.61 70.52 375.82 542.16 702.90 280.80 858.83 259.81 863.08 344.85 767.80 476.50 891.37 458.91
00007098 00000075 535.94 90.16 382.22 529.63 693.06 294.75 855.35 257.20 848.90 352.49 752.46 489.05 884.26 458.49
00007099 00000076 531.64 90.85 377.51 530.63 679.09 293.04 848.74 256.81 829.69 353.48 745.33 496.35 876.43 465.24
00007100 00000077 529.49 88.74 373.18 544.82 662.39 298.06 839.71 261.48 811.22 364.51 729.10 507.11 867.82 476.75
00007101 00000078 518.22 77.31 378.66 562.75 644.73 298.51 824.41 261.00 788.90 375.52 713.07 516.42 848.55 485.07
00007102 00000079 516.46 81.08 375.93 576.54 634.52 299.79 817.27 266.50 775.04 384.76 697.12 523.72 835.06 496.13
00007103 DELETE   513.53 79.63 372.12 583.76 626.50 300.19 809.57 271.43 760.67 391.18 686.89 525.78 826.62 501.63
00007104 00000081 501.98 84.30 379.44 579.08 615.24 306.29 795.13 275.48 740.81 393.77 678.14 524.12 816.59 497.71
00007105 00000082 496.06 88.58 376.47 569.83 612.05 303.42 791.18 286.70 730.01 391.01 665.08 517.06 801.81 502.95
00007106 00000083 495.45 85.65 373.39 579.58 608.80 301.77 786.45 284.93 725.36 392.36 661.27 521.06 794.97 507.51
00007107 00000084 498.23 86.83 368.93 581.89 605.10 303.98 784.19 285.18 717.64 390.28 657.00 523.07 794.03 507.99
00007108 00000085 496.26 84.90 369.53 584.15 602.23 305.75 781.39 287.96 714.27 390.87 651.48 523.69 789.61 510.45
00007109 00000086 495.62 83.86 368.32 587.66 599.72 308.78 780.45 288.80 711.77 391.38 650.62 526.40 790.80 511.41
00007110 00000087 497.30 82.29 365.90 592.28 600.56 309.05 783.12 288.37 714.74 393.60 651.67 527.96 793.80 512.20
00007111 00000088 495.55 81.44 364.97 585.96 601.00 310.29 782.82 288.74 718.90 397.71 653.83 526.76 794.50 510.62
00007112 00000089 492.60 87.28 369.12 576.78 601.29 309.27 784.37 289.05 720.57 401.50 652.47 525.52 794.63 509.95
00007113 00000090 489.48 86.14 371.82 577.76 599.42 312.47 783.18 292.31 719.68 406.86 650.47 527.28 794.30 511.64
00007114 00000091 487.45 91.74 376.84 581.69 597.11 318.51 782.78 298.34 715.83 411.85 647.20 532.94 796.75 516.84
00007115 00000092 485.51 95.35 381.71 593.77 596.27 322.25 782.13 303.02 713.11 415.05 643.60 542.10 794.22 526.46
00007116 00000093 484.39 102.83 384.48 598.63 595.88 331.87 781.29 310.17 712.25 426.02 643.43 551.32 794.79 532.73
00007117 00000094 487.81 113.49 379.57 593.24 596.45 342.42 779.30 316.75 710.24 441.36 648.28 564.24 789.55 543.07
00007118 00000095 487.94 115.25 378.40 586.49 598.60 350.04 777.66 324.83 709.78 449.78 651.12 568.50 783.53 548.11
00007119 00000096 482.92 118.63 386.57 589.84 588.73 360.08 777.61 332.34 700.75 456.73 640.59 572.18 792.86 548.95
00007120 00000097 482.14 116.34 388.74 593.57 590.41 366.71 776.15 343.94 700.79 464.40 637.89 573.48 788.57 555.06
00007121 00000098 484.39 126.60 386.41 577.92 588.56 371.94 777.15 352.11 696.70 469.97 634.53 573.57 786.17 557.70
00007122 00000099 483.91 132.50 388.50 565.70 590.84 376.47 779.33 358.32 697.29 477.36 635.99 574.85 784.61 560.48
00007123 00000100 481.89 131.11 392.14 577.28 592.30 377.84 780.61 360.97 697.44 479.89 634.81 577.33 783.45 564.30
00007124 00000101 483.98 129.23 389.60 591.18 594.55 379.69 783.43 366.66 697.62 482.88 630.08 580.73 782.52 571.15
00007125 00000102 493.86 139.90 378.49 587.44 595.39 372.69 778.87 364.34 697.84 478.07 632.70 585.06 779.93 577.72
00007126 00000103 497.49 141.18 376.46 588.60 598.86 374.26 781.13 366.75 701.03 479.33 632.67 584.48 782.01 577.87
00007127 00000104 498.94 139.44 375.67 593.42 601.08 375.88 782.77 367.15 703.06 480.27 633.28 584.61 783.82 576.78
00007128 00000105 504.90 142.85 372.21 588.39 606.30 378.60 786.37 370.76 707.22 480.76 637.13 585.70 785.57 578.75
00007129 00000106 507.54 141.48 371.45 590.72 610.26 378.49 790.95 372.91 712.45 480.85 639.04 586.22 787.68 580.97
00007130 00000107 509.17 143.28 372.14 586.38 612.27 378.88 793.26 374.78 714.72 482.25 641.70 587.79 787.90 583.77
00007131 00000108 510.88 143.01 371.51 586.36 613.12 379.76 793.84 375.68 715.58 483.21 641.34 588.18 787.99 584.25
00007132 00000109 510.59 141.79 372.30 589.15 613.28 380.64 794.15 375.30 716.98 484.32 643.17 589.99 788.83 584.90
00007133 00000110 512.14 142.66 371.15 587.22 613.86 380.14 795.49 375.50 716.63 484.02 642.97 589.26 789.51 584.87
00007134 00000111 512.88 141.65 371.53 587.66 614.56 380.02 796.31 375.43 717.06 484.23 643.59 589.13 790.17 584.72
00007135 00000112 513.90 139.36 370.89 587.71 615.06 378.72 797.30 374.88 717.71 483.27 643.41 587.93 790.90 583.98
00007136 00000113 513.82 138.47 370.46 588.15 615.07 377.30 798.31 373.39 718.60 482.15 643.27 587.85 791.37 583.75
00007137 00000114 514.68 141.96 369.18 586.21 615.77 377.77 798.24 373.40 718.15 481.72 643.50 587.43 791.59 583.13
00007138 00000115 514.09 143.04 369.52 586.06 615.47 377.69 797.40 373.60 717.26 481.39 641.79 586.29 791.12 582.30
00007139 00000116 514.05 142.87 368.90 585.39 614.99 378.59 796.23 374.51 716.51 481.97 641.59 586.02 790.67 582.12
00007140 00000117 513.52 141.14 369.12 590.61 614.47 378.60 796.17 375.41 715.63 480.83 640.10 586.09 790.86 582.82
00007141 00000118 513.96 138.42 369.22 598.19 613.87 377.37 796.43 371.68 717.19 480.05 639.84 586.76 794.93 581.33
00007142 00000119 511.18 137.22 373.23 600.93 613.94 374.43 798.28 368.08 721.60 478.15 643.92 590.48 795.41 584.25
00007143 00000120 516.03 135.49 369.00 590.17 617.47 374.94 805.89 367.28 730.22 476.56 656.49 593.39 799.98 585.93
00007144 00000121 519.25 131.70 370.71 590.44 624.21 373.32 814.04 363.12 741.94 475.04 665.33 590.22 811.31 580.46
00007145 00000122 527.79 136.71 366.96 582.96 632.79 374.02 822.42 362.20 750.97 475.41 669.70 588.11 819.26 578.00
00007146 00000123 534.68 137.00 369.40 572.25 640.34 375.07 833.40 364.82 761.14 477.43 672.28 580.60 830.16 571.81
00007147 00000124 534.63 128.23 376.92 580.94 643.53 379.73 836.55 369.56 765.08 484.37 675.97 579.62 836.05 570.43
00007148 00000125 542.29 128.09 372.00 579.31 647.69 382.19 842.37 374.69 767.58 490.07 678.89 580.49 839.21 573.58
00007149 00000126 544.82 137.70 375.69 576.77 652.56 384.41 844.19 375.38 770.21 491.15 682.40 582.44 842.13 574.51
00007150 00000127 547.33 135.52 372.81 579.40 653.96 384.53 845.53 374.56 771.80 492.82 684.83 584.13 843.98 575.27
00007151 00000128 548.26 133.55 372.90 582.14 654.33 385.85 846.12 375.85 772.43 492.64 685.89 585.27 844.94 576.26
00007152 00000129 547.12 136.13 372.22 574.75 651.95 384.07 844.73 374.85 770.07 491.54 684.38 585.21 841.16 576.96
00007153 00000130 541.52 135.08 376.67 581.43 650.15 384.61 839.48 376.69 765.90 491.59 682.11 587.63 832.95 580.27
00007154 00000131 536.27 134.98 376.68 583.48 646.20 382.62 836.44 374.41 764.16 489.59 676.28 584.27 832.96 576.96
00007155 00000132 533.56 131.83 375.59 578.53 638.99 376.69 834.87 367.49 758.37 482.61 667.93 582.99 829.33 575.18
00007156 00000133 529.61 135.66 374.95 588.92 634.76 375.01 826.50 365.37 750.96 480.36 659.65 581.93 825.34 574.09
00007157 00000134 528.64 133.80 370.61 587.85 631.11 374.90 823.18 365.59 746.74 481.25 659.05 584.39 822.75 576.49
00007158 00000135 525.58 140.75 372.35 588.76 629.31 379.78 819.26 371.62 741.17 484.09 655.98 585.25 819.73 577.97
00007159 00000136 523.69 141.61 373.96 589.06 626.83 380.35 818.98 371.76 739.42 485.40 651.39 585.63 818.97 578.08
00007160 00000137 521.07 139.68 376.01 590.64 626.10 380.51 818.29 373.25 739.68 484.54 649.60 583.67 818.66 577.13
00007161 00000138 525.55 132.87 373.77 602.00 626.78 378.99 818.61 370.95 739.19 487.74 647.10 580.36 824.36 573.40
00007162 00000139 525.33 134.86 375.88 606.24 627.96 376.58 819.67 366.29 740.53 486.92 647.35 578.57 828.03 569.86
00007163 00000140 525.89 137.28 378.40 602.59 630.98 374.29 823.35 363.72 745.60 482.32 651.33 578.09 831.64 569.23
00007164 00000141 529.13 132.44 375.16 604.86 633.11 376.10 824.88 364.65 748.99 481.43 655.01 577.98 833.07 568.26
00007165 00000142 529.37 128.25 377.84 600.66 633.51 378.39 826.94 366.71 750.88 483.37 658.33 579.11 833.17 568.73
00007166 00000143 528.85 129.05 379.16 592.39 632.52 377.61 828.28 368.03 749.70 483.13 658.94 580.41 830.83 571.53
00007167 00000144 530.35 132.51 378.93 592.60 635.44 379.82 827.98 372.97 748.21 485.67 658.33 580.66 827.16 574.37
00007168 00000145 530.82 132.08 379.41 592.78 636.51 382.42 827.14 374.27 749.69 487.25 662.98 583.10 827.05 575.61
00007169 00000146 530.91 133.50 378.73 593.49 637.53 383.26 827.95 374.77 750.58 489.30 665.09 585.84 826.91 577.95
00007170 00000147 531.19 134.17 379.44 592.31 637.67 383.77 827.60 374.48 750.75 491.28 666.41 586.95 827.21 578.44
00007171 00000148 531.45 134.47 380.41 592.56 638.99 383.52 830.04 373.96 752.95 491.53 669.59 589.01 828.72 580.20
00007172 00000149 534.80 137.74 379.50 594.17 644.17 381.58 834.54 373.97 758.74 489.18 672.62 586.24 833.62 579.34
CROP_BBOX: 292 0 1294 925
