Video ID: 	nFoaEm9GtQ4
H: 	2160
W: 	3840
FPS: 	25.0

FRAME INDEX X0 Y0 W H [Landmarks (5 Points)]

00002911 00000000 2132.49 173.07 715.45 1106.15 2268.25 569.81 2605.12 580.66 2371.13 742.61 2282.51 977.61 2550.52 989.68
00002912 DELETE   2129.42 173.90 717.41 1082.67 2257.17 575.84 2595.27 587.27 2356.44 754.34 2265.48 972.49 2543.54 985.64
00002913 00000002 2127.33 179.57 717.13 1069.60 2249.61 580.33 2583.17 592.16 2344.81 760.49 2255.38 972.11 2531.22 985.95
00002914 00000003 2130.11 187.32 715.11 1061.73 2245.95 586.00 2574.60 601.21 2331.96 769.78 2248.50 976.22 2519.60 992.75
00002915 00000004 2132.36 189.51 708.01 1083.47 2244.69 591.00 2569.62 607.99 2322.94 777.47 2244.71 992.42 2511.92 1010.56
00002916 00000005 2137.82 193.77 703.09 1073.87 2247.46 591.77 2567.85 609.44 2321.48 780.86 2245.20 991.52 2509.64 1010.47
00002917 00000006 2145.27 200.16 697.06 1057.59 2258.93 590.29 2568.30 613.15 2327.51 777.63 2251.88 979.78 2506.73 1003.18
00002918 00000007 2144.41 203.02 701.11 1056.11 2266.36 608.76 2569.87 626.16 2335.86 784.96 2262.63 987.20 2507.51 1005.73
00002919 00000008 2146.31 205.24 702.67 1070.70 2271.24 615.50 2571.28 634.93 2338.52 796.88 2272.81 996.12 2509.32 1015.37
00002920 00000009 2146.23 205.95 704.48 1083.83 2276.06 621.32 2579.69 643.26 2349.48 808.64 2280.72 1004.88 2521.05 1025.29
00002921 00000010 2140.98 207.11 708.42 1084.09 2279.09 627.86 2583.87 648.24 2361.68 812.96 2290.79 1007.75 2528.64 1026.21
00002922 00000011 2141.39 207.34 707.62 1082.42 2278.59 630.58 2582.78 649.79 2365.36 817.93 2292.40 1009.86 2530.08 1027.28
00002923 00000012 2136.21 208.45 710.29 1079.67 2273.44 631.99 2580.75 650.14 2361.56 817.17 2287.36 1009.92 2528.85 1026.72
00002924 00000013 2135.39 203.86 705.58 1087.09 2272.78 634.10 2579.19 646.76 2363.33 815.03 2293.27 1011.43 2533.63 1023.30
00002925 00000014 2135.51 201.22 704.41 1106.43 2277.99 639.41 2581.89 645.59 2366.39 809.24 2304.88 1024.99 2537.14 1030.77
00002926 00000015 2127.61 206.18 711.47 1126.91 2284.43 639.27 2588.68 646.04 2374.21 806.38 2313.22 1032.33 2544.53 1037.19
00002927 00000016 2132.29 197.73 707.96 1112.70 2284.69 635.21 2598.82 642.58 2386.17 806.93 2312.10 1021.81 2553.76 1028.00
00002928 00000017 2128.36 191.49 711.32 1099.94 2283.97 631.06 2600.19 635.91 2396.87 807.80 2310.63 1010.13 2560.16 1015.61
00002929 00000018 2124.12 189.55 715.00 1085.59 2283.56 626.00 2601.63 632.47 2405.48 806.49 2307.65 1001.11 2562.24 1008.26
00002930 00000019 2120.86 183.51 715.95 1085.35 2280.35 620.76 2601.54 625.91 2405.59 801.05 2304.76 995.14 2561.41 1001.31
00002931 00000020 2112.24 179.99 722.58 1093.68 2277.56 617.86 2600.80 624.28 2406.15 796.09 2304.70 996.84 2556.72 1003.93
00002932 00000021 2109.50 175.11 722.00 1115.98 2277.98 618.37 2598.58 622.39 2401.22 788.23 2311.38 1004.16 2553.79 1008.78
00002933 00000022 2106.84 177.10 720.18 1119.03 2277.68 617.63 2597.86 623.84 2401.97 787.15 2311.30 1007.97 2550.26 1014.40
00002934 00000023 2102.83 181.23 720.37 1113.90 2276.48 621.95 2596.17 629.88 2403.46 793.78 2310.14 1008.04 2547.58 1015.86
00002935 00000024 2103.21 194.03 716.86 1087.84 2273.54 624.84 2592.26 631.66 2404.41 801.05 2308.32 1004.61 2550.61 1011.69
00002936 00000025 2099.80 197.02 721.16 1074.89 2265.09 622.57 2583.66 623.08 2398.56 790.16 2300.76 997.56 2547.10 999.82
00002937 00000026 2117.90 197.61 709.08 1074.31 2264.66 615.78 2581.66 610.61 2400.97 786.59 2296.41 993.63 2560.27 992.37
00002938 00000027 2116.10 198.23 707.55 1078.65 2253.82 617.08 2569.87 608.14 2383.40 785.39 2282.29 993.36 2550.30 989.92
00002939 00000028 2109.61 196.12 708.59 1080.80 2246.85 615.74 2559.83 605.83 2372.88 787.04 2275.05 995.86 2536.05 991.64
00002940 00000029 2107.46 202.38 704.70 1096.80 2245.34 615.07 2551.46 602.43 2361.35 789.14 2267.70 1004.36 2521.91 997.84
00002941 00000030 2107.47 200.09 699.57 1116.31 2242.13 613.63 2545.92 597.90 2352.09 789.99 2264.47 1012.63 2518.25 1003.63
00002942 00000031 2103.73 201.60 702.44 1113.98 2237.77 615.30 2542.24 595.96 2348.42 788.15 2259.84 1013.51 2513.85 1001.81
00002943 00000032 2100.86 196.63 705.70 1104.25 2234.43 614.81 2538.39 596.99 2346.13 789.74 2259.15 1001.43 2515.99 990.78
00002944 00000033 2099.22 202.15 707.80 1092.43 2232.71 622.38 2534.45 605.33 2344.76 797.11 2258.31 993.09 2527.35 982.24
00002945 00000034 2095.23 205.87 711.79 1088.15 2228.76 630.09 2531.12 614.77 2341.18 805.78 2250.02 990.45 2528.46 981.49
00002946 00000035 2090.46 214.38 712.71 1094.57 2225.35 638.54 2525.06 624.50 2334.32 816.47 2244.22 997.86 2526.50 990.00
00002947 00000036 2091.12 216.26 707.81 1096.87 2226.47 634.31 2528.12 617.04 2335.33 817.01 2248.10 1008.81 2519.17 998.57
00002948 00000037 2095.50 216.12 703.87 1102.16 2228.12 628.18 2530.70 610.44 2333.61 812.12 2247.60 1016.09 2508.66 1005.67
00002949 00000038 2092.70 203.43 705.95 1126.25 2224.15 619.88 2536.83 599.06 2335.95 804.19 2251.94 1025.81 2511.85 1012.19
00002950 00000039 2091.83 202.52 704.93 1105.08 2223.22 616.48 2534.95 604.38 2338.83 803.05 2250.29 1010.60 2503.89 1004.52
00002951 00000040 2086.81 200.84 711.06 1072.68 2221.16 612.29 2529.97 603.27 2338.20 787.06 2250.27 990.83 2496.62 988.37
00002952 00000041 2091.23 202.92 709.39 1060.24 2227.85 607.79 2539.89 601.99 2343.68 779.28 2245.23 983.13 2497.10 983.72
00002953 00000042 2088.63 196.26 708.62 1049.92 2224.47 604.03 2540.42 598.88 2346.86 775.97 2246.65 979.33 2495.71 980.87
00002954 00000043 2085.69 191.22 715.60 1059.01 2223.59 599.39 2537.20 587.43 2347.53 763.82 2250.48 972.12 2503.19 967.50
00002955 00000044 2085.63 183.23 719.23 1073.84 2223.81 590.25 2544.33 567.60 2350.03 743.81 2258.83 978.29 2506.94 965.44
00002956 00000045 2084.85 188.29 720.72 1085.42 2228.59 578.66 2551.10 557.21 2347.99 728.76 2245.22 964.93 2516.98 953.73
00002957 00000046 2088.38 191.35 713.18 1072.23 2230.60 567.83 2548.95 556.49 2341.91 720.48 2238.51 951.76 2502.33 949.39
00002958 00000047 2092.53 187.56 705.05 1062.42 2229.76 563.15 2541.88 550.65 2333.42 707.97 2231.38 933.98 2494.53 931.39
00002959 00000048 2087.42 189.16 706.70 1037.69 2231.18 554.17 2536.82 541.34 2332.93 696.91 2233.52 912.67 2489.05 910.20
00002960 00000049 2081.10 189.63 703.62 1036.24 2227.67 548.09 2534.59 535.12 2327.99 688.62 2229.75 916.98 2472.53 915.33
00002961 00000050 2074.13 183.92 703.80 1039.92 2218.87 548.77 2520.73 531.36 2315.47 685.76 2224.11 920.34 2455.35 915.04
00002962 00000051 2065.32 188.74 705.60 1042.29 2210.65 553.15 2508.49 532.36 2309.61 689.70 2224.16 923.76 2450.12 915.42
00002963 00000052 2065.47 184.74 702.30 1059.09 2204.98 558.58 2503.47 543.68 2311.30 709.19 2227.88 938.87 2454.63 934.47
00002964 00000053 2058.55 183.20 704.67 1074.69 2195.59 563.56 2496.86 550.86 2309.50 732.72 2234.18 969.98 2445.03 966.95
00002965 00000054 2055.59 184.26 709.91 1080.78 2195.55 567.79 2505.59 559.74 2314.10 744.74 2232.64 974.21 2450.15 974.33
00002966 00000055 2057.63 183.40 710.14 1075.88 2197.67 571.52 2508.41 562.44 2321.15 747.13 2236.72 974.78 2453.11 974.20
00002967 00000056 2062.13 179.89 711.11 1081.57 2206.68 576.32 2522.07 571.44 2332.65 752.11 2234.40 976.42 2463.38 979.34
00002968 00000057 2067.81 179.25 716.07 1084.84 2215.26 581.85 2538.67 583.33 2343.02 769.09 2229.13 978.53 2481.41 985.86
00002969 00000058 2076.67 179.40 716.20 1103.35 2219.82 597.01 2541.00 597.78 2339.12 786.11 2229.33 992.25 2488.11 998.38
00002970 00000059 2083.82 183.44 711.16 1120.44 2226.60 609.27 2546.38 612.10 2342.28 812.17 2236.92 1009.47 2497.60 1016.00
00002971 00000060 2083.99 189.73 721.35 1132.14 2231.45 616.84 2555.37 617.64 2349.46 824.30 2244.71 1021.83 2512.28 1025.33
00002972 00000061 2086.03 188.85 723.36 1134.42 2233.20 618.22 2556.43 618.73 2350.52 827.68 2249.08 1024.96 2513.88 1027.92
00002973 00000062 2085.64 185.56 723.18 1132.78 2230.49 607.35 2559.38 607.90 2348.72 815.67 2242.28 1017.37 2513.37 1020.77
00002974 00000063 2086.60 177.70 721.19 1129.96 2229.71 598.01 2559.48 598.03 2350.55 800.35 2243.89 1009.63 2511.55 1012.52
00002975 00000064 2088.37 180.12 722.15 1126.42 2234.70 586.56 2563.40 583.08 2352.17 778.39 2245.07 1001.00 2510.94 1001.79
00002976 00000065 2089.08 174.41 721.51 1133.04 2236.36 579.18 2568.72 578.27 2353.35 768.89 2241.42 997.45 2509.36 1000.63
00002977 00000066 2085.97 174.25 724.66 1129.15 2235.41 573.22 2564.54 573.55 2349.33 760.05 2236.64 990.24 2498.98 994.83
00002978 00000067 2088.22 171.57 721.28 1136.60 2232.63 569.31 2561.64 568.26 2341.75 754.22 2229.82 989.78 2497.22 993.72
00002979 00000068 2087.11 178.56 723.86 1130.61 2230.22 567.56 2559.94 563.90 2340.12 750.46 2228.73 989.10 2496.80 991.09
00002980 00000069 2089.50 173.39 721.80 1138.69 2232.20 567.51 2560.09 562.73 2343.04 748.66 2231.20 990.31 2499.63 991.05
00002981 00000070 2090.55 172.34 722.47 1144.51 2232.96 566.28 2562.75 559.81 2345.46 743.49 2233.85 992.40 2505.13 991.42
00002982 00000071 2093.28 173.42 721.95 1146.32 2236.19 564.70 2569.36 557.99 2349.50 739.92 2236.31 992.84 2513.18 991.38
00002983 00000072 2095.85 169.39 724.76 1150.98 2240.87 561.26 2575.89 558.74 2351.96 739.13 2235.86 987.25 2518.49 989.06
00002984 00000073 2098.13 159.77 725.80 1142.72 2243.39 566.51 2581.30 567.29 2358.49 737.93 2240.54 980.31 2523.01 985.14
00002985 00000074 2095.94 157.43 729.11 1109.44 2241.79 566.19 2578.41 576.33 2354.34 733.88 2232.53 955.75 2518.41 967.76
00002986 00000075 2096.07 146.41 729.39 1108.35 2242.60 558.67 2582.43 572.91 2358.40 727.77 2237.30 946.72 2524.43 961.34
00002987 00000076 2099.38 144.16 726.83 1093.63 2242.84 550.35 2584.49 570.09 2353.97 714.75 2230.11 930.08 2525.59 950.67
00002988 00000077 2104.23 148.08 719.65 1083.79 2247.00 544.42 2577.86 559.04 2352.80 706.20 2233.84 921.62 2516.15 939.12
00002989 00000078 2103.17 148.85 718.64 1075.09 2246.83 541.91 2574.79 552.22 2351.45 701.91 2236.27 918.14 2511.76 932.31
00002990 00000079 2102.56 148.91 718.61 1081.53 2244.34 543.87 2570.69 548.60 2349.55 703.42 2237.15 922.76 2513.55 932.17
00002991 00000080 2101.01 155.93 719.49 1085.33 2239.90 545.82 2564.26 545.38 2346.00 704.47 2238.28 928.92 2511.79 934.24
00002992 00000081 2093.53 152.17 723.77 1083.08 2233.13 552.76 2563.23 545.78 2343.19 703.19 2239.01 940.66 2506.21 940.80
00002993 00000082 2093.68 153.23 721.64 1062.38 2228.19 556.04 2547.63 547.31 2337.09 708.95 2243.87 928.11 2499.59 926.03
00002994 00000083 2082.76 156.81 727.20 1047.53 2218.84 554.09 2537.40 551.26 2323.54 713.53 2223.05 919.94 2475.53 923.70
00002995 00000084 2079.62 157.89 724.74 1041.01 2205.11 553.21 2525.11 554.56 2300.66 718.81 2201.01 926.50 2454.09 934.49
00002996 00000085 2081.74 163.32 722.32 1055.59 2212.19 549.63 2529.30 550.35 2307.93 712.80 2209.25 934.89 2454.66 943.22
00002997 00000086 2087.98 158.52 724.98 1064.59 2218.99 557.90 2537.54 546.89 2320.40 712.81 2227.62 939.02 2479.77 936.32
00002998 00000087 2085.43 158.36 724.75 1056.52 2216.80 559.09 2537.51 547.03 2319.90 715.42 2224.45 936.65 2484.19 933.29
00002999 00000088 2083.05 163.84 721.88 1049.45 2208.61 564.79 2525.77 551.57 2308.84 721.30 2216.53 935.10 2478.14 930.77
00003000 00000089 2083.26 164.95 716.23 1073.18 2203.77 564.04 2518.00 546.61 2293.74 715.78 2208.80 943.65 2470.30 936.73
00003001 00000090 2081.31 170.33 715.48 1066.02 2204.06 563.62 2518.89 545.50 2295.09 714.44 2209.00 941.51 2473.71 934.02
00003002 00000091 2083.16 169.75 716.71 1052.96 2206.62 566.90 2521.13 551.37 2303.56 721.80 2213.50 936.42 2477.90 930.41
00003003 00000092 2081.20 165.71 719.15 1055.13 2205.71 566.29 2518.73 553.70 2303.30 725.03 2211.16 930.81 2474.14 927.08
00003004 00000093 2080.29 168.95 713.39 1056.59 2198.28 567.17 2512.43 556.77 2290.17 727.52 2198.05 929.62 2464.20 928.56
00003005 00000094 2074.09 165.00 716.27 1055.29 2192.08 564.03 2511.28 555.97 2282.08 724.01 2188.39 931.80 2452.71 933.24
00003006 00000095 2072.56 160.97 719.67 1052.20 2188.78 564.90 2508.86 553.78 2277.35 720.48 2186.67 933.37 2452.32 932.25
00003007 00000096 2073.72 157.55 721.54 1060.62 2189.95 564.33 2509.65 550.04 2281.33 720.02 2193.72 932.27 2464.11 927.91
00003008 00000097 2077.12 162.36 722.33 1070.07 2191.89 565.52 2507.65 540.49 2280.22 712.10 2203.02 936.69 2471.72 923.68
00003009 00000098 2072.81 165.88 718.03 1091.96 2185.72 557.96 2492.91 537.77 2261.39 705.87 2195.57 937.78 2461.48 928.86
00003010 DELETE   2069.63 174.25 711.07 1089.57 2176.81 563.96 2473.03 540.10 2244.22 706.30 2191.25 944.80 2444.15 934.31
00003011 00000100 2061.13 167.38 707.15 1079.54 2159.90 565.92 2455.91 553.77 2215.29 722.57 2161.66 934.75 2419.17 934.05
00003012 00000101 2057.35 141.52 712.05 1106.70 2146.82 575.42 2453.54 563.35 2190.36 720.35 2144.02 951.91 2385.51 944.35
00003013 00000102 2071.56 159.28 706.49 1094.47 2166.68 565.16 2455.42 552.91 2217.47 722.82 2171.27 935.07 2425.35 933.90
00003014 DELETE   2079.21 146.54 724.43 1108.55 2178.29 568.12 2490.75 543.12 2253.69 719.78 2188.60 937.33 2469.84 924.75
00003015 DELETE   2095.69 135.24 721.83 1118.85 2205.33 563.32 2527.11 546.82 2295.45 720.40 2214.30 935.77 2502.52 927.03
00003016 DELETE   2110.09 140.24 718.87 1110.62 2234.01 564.64 2563.73 546.83 2343.76 716.12 2249.09 940.69 2541.37 928.95
00003017 00000106 2112.26 146.27 717.80 1086.27 2240.89 559.16 2572.45 545.23 2365.05 719.72 2266.83 938.50 2549.81 929.60
00003018 DELETE   2108.91 148.73 718.90 1091.27 2233.23 564.21 2558.13 545.35 2345.99 722.93 2255.75 948.85 2528.24 936.59
00003019 DELETE   2094.75 153.21 722.61 1080.82 2209.96 569.12 2526.70 556.07 2303.66 725.65 2219.45 943.13 2487.05 938.06
00003020 00000109 2075.82 168.51 728.79 1067.32 2189.32 574.94 2501.86 563.33 2268.70 731.56 2187.27 940.28 2458.66 938.13
00003021 DELETE   2089.42 155.43 721.08 1083.96 2200.40 573.29 2517.78 568.27 2281.79 735.04 2197.70 944.39 2477.45 946.01
00003022 DELETE   2100.09 151.27 724.52 1094.32 2227.39 567.56 2562.08 561.13 2337.46 728.77 2231.89 945.82 2526.76 944.52
00003023 00000112 2102.00 148.09 726.17 1087.27 2236.32 560.64 2575.73 552.05 2357.37 723.08 2246.97 942.45 2540.35 938.82
00003024 DELETE   2099.52 152.97 724.90 1090.59 2222.79 563.54 2551.40 545.38 2322.07 709.73 2226.76 936.44 2517.56 926.88
CROP_BBOX: 1618 0 3402 1624
