Video ID: 	jPh531NywH8
H: 	1080
W: 	1920
FPS: 	25.0

FRAME INDEX X0 Y0 W H [Landmarks (5 Points)]

00004760 00000000 633.86 254.10 464.05 653.39 718.61 524.01 920.36 496.95 804.25 638.05 765.94 746.30 937.15 724.06
00004761 00000001 632.23 250.13 468.40 656.57 722.68 519.30 925.03 488.31 813.18 629.68 774.26 742.36 947.61 716.79
00004762 00000002 635.90 244.17 466.37 660.60 729.03 512.14 931.40 478.51 822.42 618.31 779.32 735.45 958.65 707.80
00004763 00000003 643.43 237.78 466.25 663.87 739.32 502.10 946.74 470.26 838.84 610.44 789.22 730.15 974.29 704.04
00004764 00000004 650.72 236.71 467.78 661.51 753.39 498.47 959.34 465.98 858.69 608.59 805.88 727.58 991.20 700.50
00004765 00000005 662.07 233.89 463.11 668.56 765.41 495.73 972.98 468.51 869.43 609.54 813.43 728.61 999.85 705.58
00004766 00000006 667.15 235.29 466.02 674.63 773.56 500.24 982.40 475.70 878.16 613.58 817.91 731.54 1008.98 710.29
00004767 00000007 670.26 237.23 468.53 674.89 777.13 500.49 987.79 478.15 880.97 614.88 820.66 731.73 1013.61 711.99
00004768 00000008 674.76 237.17 466.96 675.00 780.06 498.07 991.30 477.22 883.26 613.36 821.74 730.80 1015.51 712.02
00004769 00000009 676.50 235.87 467.50 673.52 781.08 495.07 991.82 475.13 882.74 611.16 822.72 726.93 1015.99 708.77
00004770 00000010 677.50 230.69 466.76 673.80 781.87 491.85 991.25 473.75 881.12 608.53 822.52 723.69 1014.14 706.90
00004771 00000011 678.32 227.48 466.08 671.29 781.64 488.79 991.49 471.20 880.62 605.93 823.37 721.71 1012.68 705.33
00004772 00000012 677.69 225.69 467.31 666.71 780.02 486.20 989.52 468.52 877.56 603.63 822.43 717.86 1009.83 701.45
00004773 00000013 678.28 225.53 466.63 661.75 779.54 486.08 988.14 468.91 876.36 602.56 821.49 715.28 1007.46 699.22
00004774 00000014 678.19 226.79 467.15 656.98 778.35 487.06 987.14 470.03 874.84 603.99 821.53 715.77 1004.32 699.90
00004775 00000015 678.52 229.44 468.14 651.49 776.05 489.21 984.89 470.67 870.92 605.52 822.34 719.43 998.56 702.63
00004776 00000016 677.89 229.45 468.42 652.75 772.05 489.57 981.36 472.50 865.75 610.35 818.07 722.50 989.87 707.28
00004777 00000017 675.44 236.98 463.78 648.05 760.32 493.57 968.20 472.78 850.52 616.65 806.53 726.75 978.66 709.11
00004778 DELETE   672.97 235.84 460.81 652.98 744.53 498.06 941.72 479.00 814.01 619.82 788.76 724.70 948.67 708.98
00004779 DELETE   656.60 238.66 468.12 645.94 721.02 499.33 912.14 488.99 776.25 620.35 755.93 720.18 910.78 712.48
00004780 DELETE   646.59 246.51 470.04 640.69 702.46 500.78 886.38 493.76 742.49 619.67 735.35 724.04 884.73 719.12
00004781 00000021 637.95 244.70 468.48 634.00 690.25 493.97 866.25 495.31 718.21 620.93 721.45 715.32 866.45 716.72
00004782 00000022 641.69 247.16 457.25 629.74 681.71 486.95 851.74 490.52 706.67 621.41 710.85 712.98 846.63 715.40
00004783 00000023 639.83 241.53 455.84 636.87 679.37 483.40 846.64 482.43 704.28 609.57 707.79 715.22 834.21 714.74
00004784 00000024 639.95 230.03 454.91 650.31 679.29 478.94 844.04 475.17 698.79 593.84 700.45 712.22 827.09 709.82
00004785 00000025 638.82 219.84 453.82 649.23 677.75 471.71 845.66 470.30 697.74 587.75 693.53 702.67 824.12 702.82
00004786 00000026 639.93 212.14 451.14 654.07 679.03 469.33 845.91 467.14 698.47 582.32 694.11 700.51 823.55 700.15
00004787 00000027 636.16 212.85 454.20 657.56 677.62 471.69 845.80 468.35 697.27 585.15 693.27 704.06 825.40 702.73
00004788 00000028 632.45 218.68 457.10 656.10 677.41 473.21 844.99 470.32 695.48 588.61 693.57 706.95 828.51 705.57
00004789 00000029 631.38 221.90 459.06 662.59 679.02 477.83 844.40 471.15 696.08 592.75 701.82 710.84 838.18 705.33
00004790 00000030 632.47 225.92 461.43 667.52 681.26 482.24 846.23 473.99 699.26 597.48 708.67 714.23 849.73 706.70
00004791 00000031 633.43 231.72 467.46 660.82 682.14 484.72 845.78 476.28 697.36 601.32 713.12 711.85 858.41 703.55
00004792 00000032 632.59 233.82 464.90 656.45 680.53 486.83 845.96 479.81 699.81 603.97 709.50 713.05 852.16 706.24
00004793 00000033 632.64 238.03 464.21 656.15 681.27 488.00 847.64 485.34 701.66 611.04 709.49 715.04 852.39 711.77
00004794 00000034 635.70 244.68 462.16 654.06 682.21 492.44 848.08 490.97 701.14 618.20 711.80 719.84 854.08 717.70
00004795 00000035 635.00 248.31 462.17 652.25 683.08 494.19 850.41 495.30 703.29 623.39 714.42 721.42 857.14 721.53
00004796 00000036 635.22 250.07 462.44 650.69 682.72 495.63 850.68 496.81 704.57 624.94 714.23 722.33 856.69 722.32
00004797 00000037 637.60 249.97 461.76 649.59 684.38 496.48 852.10 497.26 707.34 625.55 715.94 721.84 857.76 721.48
00004798 00000038 639.12 252.08 460.29 647.35 686.18 497.17 854.00 497.14 709.05 625.71 717.64 720.15 863.76 718.86
00004799 00000039 641.11 254.32 460.73 648.88 688.59 498.88 856.22 496.85 710.60 625.31 719.29 721.49 868.42 718.22
00004800 00000040 642.14 254.15 461.03 650.23 690.63 498.77 858.84 497.03 713.18 627.21 720.59 722.01 871.56 718.99
00004801 00000041 642.95 253.16 460.59 650.90 692.49 498.89 861.52 497.23 716.47 627.27 721.51 721.98 873.73 718.84
00004802 00000042 639.34 250.29 464.24 650.84 692.31 502.18 870.15 501.84 718.49 624.81 722.21 725.13 876.20 724.48
00004803 00000043 640.33 253.81 465.31 643.51 692.28 503.67 872.75 503.55 721.47 626.73 722.15 725.77 876.37 725.50
00004804 00000044 639.15 254.82 467.63 640.30 691.97 503.50 876.34 506.45 724.49 631.79 720.91 726.84 877.35 729.16
00004805 00000045 640.62 256.47 467.38 637.68 692.17 506.03 878.68 509.27 726.79 633.58 718.76 728.48 876.32 731.10
00004806 00000046 641.71 257.14 467.43 636.80 693.39 507.23 880.88 511.07 729.18 636.10 719.55 730.21 876.94 733.36
00004807 00000047 644.81 258.10 466.15 636.98 696.00 509.04 882.58 513.12 731.88 637.99 722.48 732.41 878.12 735.89
00004808 00000048 647.47 259.60 465.31 640.42 698.27 511.44 883.63 515.63 732.62 638.53 723.82 737.82 874.34 741.52
00004809 00000049 649.53 261.42 466.76 643.74 701.40 514.13 883.90 516.94 734.15 639.81 729.28 743.61 874.47 746.17
00004810 00000050 649.42 263.21 467.48 646.21 703.06 514.08 883.40 516.01 733.56 638.94 732.36 744.63 877.02 746.21
00004811 00000051 654.58 261.71 463.39 646.29 708.15 511.59 882.85 513.69 734.92 634.42 738.38 742.98 875.99 744.99
00004812 00000052 658.42 255.55 461.08 646.31 708.56 506.59 889.14 510.82 738.45 634.22 734.99 739.48 880.40 743.65
00004813 00000053 661.85 250.48 460.90 648.67 712.98 503.14 895.29 506.73 745.99 630.85 737.48 735.60 884.90 739.64
00004814 00000054 667.42 248.29 459.18 655.39 721.72 505.68 900.08 502.71 754.66 623.99 748.48 737.83 890.00 736.44
00004815 00000055 674.33 245.99 455.49 653.95 728.75 504.48 909.56 499.79 763.34 623.20 754.10 734.69 900.94 731.63
00004816 00000056 677.62 242.72 458.79 650.72 729.60 505.61 911.39 498.36 764.23 620.26 754.55 729.62 906.95 724.12
00004817 DELETE   672.54 237.96 462.06 646.49 727.62 506.03 903.86 493.43 760.87 610.62 757.32 719.95 907.06 709.91
00004818 00000058 659.46 229.00 469.84 647.41 718.26 503.58 891.34 480.96 750.57 597.96 756.15 715.22 901.86 696.97
00004819 DELETE   649.77 221.61 474.37 651.93 708.86 497.39 885.03 467.92 745.90 588.98 751.32 714.08 901.99 690.19
00004820 00000060 645.47 217.19 475.42 653.24 704.90 488.91 882.96 460.41 743.27 585.16 747.53 710.06 897.99 687.15
00004821 00000061 647.13 217.54 474.43 651.24 707.07 488.69 883.57 460.75 745.45 584.16 748.83 709.99 894.20 687.68
00004822 00000062 651.07 222.10 472.63 647.92 710.79 492.32 887.17 467.82 749.12 590.39 750.35 712.52 892.54 693.12
00004823 00000063 654.75 229.01 474.09 639.75 715.93 496.88 890.59 476.48 755.50 600.12 756.88 712.46 896.46 696.46
00004824 00000064 660.95 234.96 469.66 635.77 720.32 501.34 893.06 483.51 758.05 606.78 759.72 714.08 901.32 700.04
00004825 00000065 668.15 248.11 469.09 630.50 724.22 507.75 895.87 488.19 761.39 615.94 765.78 718.89 911.59 702.83
00004826 00000066 672.80 260.47 469.16 624.81 727.77 519.84 900.24 497.37 765.95 631.60 775.36 730.83 922.26 711.62
00004827 00000067 677.72 266.10 469.20 625.27 729.29 528.06 901.95 506.69 767.15 642.88 776.29 736.16 927.62 717.26
00004828 00000068 681.02 269.50 463.54 626.17 730.79 529.98 901.82 512.94 767.27 649.65 776.37 738.28 926.39 723.01
00004829 00000069 680.14 270.43 456.92 625.57 729.30 528.96 906.67 514.69 772.00 640.88 771.00 738.02 926.46 725.83
00004830 00000070 682.93 268.17 456.99 631.89 730.06 526.96 906.36 512.40 768.87 638.04 769.25 736.74 925.63 724.28
00004831 00000071 688.76 266.30 458.90 637.38 733.65 521.41 901.85 510.67 759.64 642.91 771.51 733.35 925.15 723.07
00004832 00000072 692.24 266.67 455.63 631.41 735.62 517.38 899.23 509.71 755.78 639.17 770.95 728.53 921.35 720.89
00004833 00000073 694.78 265.56 456.12 626.75 737.33 515.17 901.76 510.51 756.74 639.58 771.04 724.37 921.86 719.25
00004834 00000074 696.99 266.19 455.92 626.26 739.20 514.01 905.01 510.49 758.79 639.82 772.63 724.03 924.25 719.84
00004835 00000075 698.78 265.07 454.68 630.07 741.96 512.89 907.59 510.14 761.68 638.45 774.79 725.09 924.05 721.69
00004836 00000076 699.93 264.31 455.67 633.57 743.11 512.51 909.75 508.01 764.43 636.26 775.79 726.21 924.40 721.52
00004837 00000077 700.44 262.32 454.83 635.65 743.11 512.61 909.75 506.60 764.24 633.82 775.73 727.15 923.65 721.18
00004838 00000078 699.50 263.14 455.23 635.94 742.87 513.38 909.77 506.16 764.53 633.40 776.06 728.39 924.17 721.40
00004839 00000079 698.78 263.36 454.44 636.93 742.66 513.97 910.00 506.78 765.69 634.21 775.42 729.43 922.99 722.62
00004840 00000080 697.21 264.48 454.70 640.98 742.28 515.90 910.00 507.72 766.38 636.21 775.75 731.91 925.45 724.13
00004841 00000081 696.16 265.05 455.75 643.70 741.51 518.02 909.97 508.19 765.71 637.17 776.70 734.97 928.03 725.50
00004842 00000082 689.86 267.85 452.33 637.02 739.00 521.90 914.99 510.40 775.39 630.85 772.59 735.71 928.24 725.77
00004843 00000083 687.62 268.18 451.54 637.98 737.17 523.34 913.28 511.63 773.50 632.37 771.95 737.37 927.44 727.22
00004844 00000084 686.48 270.00 450.28 637.02 735.82 525.49 910.69 512.89 773.19 634.56 771.90 738.25 927.04 727.27
00004845 00000085 682.65 270.76 450.80 634.95 734.03 526.41 910.15 514.53 774.42 635.76 769.73 739.06 922.97 728.99
00004846 00000086 681.01 270.82 451.01 633.09 733.32 527.57 910.55 514.94 776.26 635.54 769.24 740.30 922.53 729.68
00004847 00000087 679.25 272.03 453.44 631.54 733.39 526.22 913.99 513.39 780.34 636.45 770.61 740.95 924.76 730.28
00004848 00000088 680.13 274.02 452.59 629.31 737.82 526.94 921.11 513.14 788.39 635.94 775.69 740.88 930.31 729.33
00004849 00000089 682.39 272.17 450.28 632.24 741.18 529.25 928.66 511.46 797.16 637.98 780.83 742.01 940.48 726.80
00004850 00000090 684.37 288.97 449.45 612.55 747.37 526.73 936.30 506.15 808.88 638.56 787.70 744.00 947.28 725.42
00004851 00000091 686.66 287.77 447.66 615.19 754.44 530.34 943.03 506.90 821.02 639.85 796.31 746.03 958.44 724.96
00004852 00000092 686.43 288.32 448.57 612.81 760.04 530.46 948.93 506.85 831.73 641.07 803.20 745.77 966.52 724.20
00004853 00000093 686.99 284.67 450.72 613.71 764.59 530.89 955.59 506.14 842.03 640.48 808.50 744.55 974.51 721.58
00004854 00000094 689.15 283.98 451.20 612.79 769.33 529.85 959.58 505.88 848.52 639.69 812.74 741.88 979.90 719.27
00004855 00000095 691.89 279.52 453.21 617.30 773.07 528.87 963.86 504.84 852.52 637.68 815.74 740.01 985.10 717.05
00004856 00000096 693.18 277.23 455.59 619.52 776.25 528.19 967.00 505.83 855.34 636.95 818.20 738.25 987.67 716.41
00004857 00000097 693.94 279.17 457.41 618.49 777.40 528.69 967.94 507.25 854.99 637.96 818.74 738.08 988.61 716.97
00004858 00000098 694.78 279.57 454.93 622.93 775.40 532.53 961.26 509.63 848.83 641.40 815.68 740.53 983.95 718.20
00004859 00000099 689.80 269.66 460.86 644.24 761.26 532.98 956.01 508.88 830.70 647.20 801.01 746.98 979.98 725.33
00004860 00000100 689.32 271.04 459.97 646.52 754.34 530.59 946.83 510.39 814.07 647.57 791.77 746.43 966.53 728.13
00004861 00000101 689.28 271.16 457.71 641.85 749.43 526.73 934.12 511.62 798.76 646.54 787.26 743.65 950.99 729.47
00004862 00000102 688.17 271.46 454.60 631.03 744.19 526.64 925.91 513.62 788.73 643.62 781.57 743.90 934.63 732.11
00004863 00000103 687.38 270.95 454.59 627.25 741.19 525.53 922.84 516.69 783.93 646.24 775.41 742.19 927.65 734.22
00004864 00000104 683.20 274.74 453.21 618.72 738.68 525.67 922.53 518.22 789.78 640.49 771.62 737.45 927.82 730.97
00004865 00000105 682.56 276.15 454.38 617.47 738.22 523.82 922.62 520.66 787.77 641.27 767.70 732.50 928.20 729.43
00004866 00000106 684.97 276.61 454.62 619.25 739.39 523.02 923.64 522.96 784.68 641.70 765.68 729.78 932.74 728.95
00004867 00000107 687.38 276.96 453.74 625.72 742.58 522.49 923.50 523.30 782.52 641.20 767.16 729.07 930.21 728.75
00004868 00000108 688.30 276.85 452.94 632.28 742.13 522.91 923.29 521.86 781.26 641.58 767.29 729.81 935.50 727.43
00004869 00000109 688.16 275.06 450.36 635.99 740.76 523.45 921.50 521.06 779.32 640.10 765.94 730.48 934.25 727.11
00004870 00000110 688.73 274.31 446.75 639.52 740.54 523.51 920.39 520.64 777.51 640.58 766.94 734.25 934.23 730.54
00004871 00000111 686.31 274.70 446.00 631.64 737.37 521.77 918.82 521.70 775.27 640.02 762.42 733.58 925.52 732.88
00004872 00000112 684.17 275.55 449.61 624.81 734.01 521.65 916.21 522.25 772.75 639.08 759.40 731.41 922.09 731.22
00004873 00000113 686.55 274.71 450.99 628.57 735.24 520.36 913.33 518.25 767.20 641.31 759.91 731.80 921.63 729.61
00004874 00000114 684.80 270.61 450.98 632.53 734.23 518.31 911.31 515.60 767.55 638.48 759.69 730.17 919.01 727.71
00004875 00000115 683.87 267.26 449.98 632.65 733.92 515.12 911.17 513.22 766.99 636.44 759.21 729.59 916.13 728.10
00004876 00000116 681.83 266.55 451.57 625.38 731.76 513.12 909.47 512.08 765.20 635.19 756.60 726.16 912.68 725.54
00004877 00000117 678.12 266.74 453.37 620.47 729.25 512.30 908.04 512.29 764.38 634.53 753.04 723.52 909.24 723.97
00004878 00000118 674.35 267.14 453.25 619.70 726.05 512.63 906.54 513.31 764.85 637.05 750.13 724.11 907.51 725.31
00004879 00000119 673.16 268.00 453.73 626.46 725.12 513.79 905.31 512.60 763.58 636.56 750.90 729.34 905.21 729.03
00004880 00000120 670.74 264.35 453.05 637.24 723.41 514.78 905.43 511.66 763.65 636.97 751.58 739.60 899.84 737.94
00004881 00000121 668.84 261.63 453.42 638.53 720.32 513.79 902.93 510.61 760.64 636.23 751.87 742.50 894.17 740.82
00004882 00000122 668.29 260.50 454.10 638.74 720.20 512.93 903.45 510.12 760.59 633.74 750.78 742.86 890.31 741.64
00004883 00000123 670.13 259.27 452.65 641.08 722.41 512.54 906.83 510.24 763.95 633.82 751.13 744.27 889.12 743.66
00004884 00000124 672.16 258.53 452.29 641.39 724.99 511.65 911.83 510.91 767.64 636.54 750.89 742.64 895.24 743.25
00004885 00000125 674.30 256.95 451.13 642.24 727.55 509.79 916.23 511.24 770.86 637.10 750.40 740.55 898.13 743.04
CROP_BBOX: 325 0 1603 1080
