Video ID: 	0m0rWnz7Jjg
H: 	1080
W: 	1920
FPS: 	29.97002997002997

FRAME INDEX X0 Y0 W H [Landmarks (5 Points)]

00002462 00000000 613.91 161.85 463.45 642.66 695.69 412.85 906.37 391.48 783.98 530.14 746.12 653.18 912.47 634.61
00002463 DELETE   616.03 164.33 457.26 621.75 699.85 414.70 909.14 395.39 788.23 528.49 748.36 648.55 908.95 632.02
00002464 DELETE   619.28 166.11 457.27 622.23 704.04 417.57 911.09 398.56 791.44 530.84 752.75 650.63 911.23 634.23
00002465 00000003 622.29 170.37 459.59 625.50 706.64 420.12 912.38 402.50 793.60 534.92 753.11 652.74 912.85 637.42
00002466 00000004 622.81 171.21 461.69 632.90 708.37 424.14 915.09 407.33 796.88 542.09 755.19 657.98 917.01 643.04
00002467 00000005 622.19 171.12 464.05 641.49 708.56 429.31 916.75 412.13 797.64 548.23 755.99 664.07 921.75 648.64
00002468 00000006 620.57 170.89 466.83 651.83 707.44 431.98 915.38 413.00 796.77 550.03 757.11 669.15 924.30 652.20
00002469 00000007 622.35 172.76 465.96 659.75 707.59 434.19 917.69 412.67 799.85 550.60 760.24 677.50 924.29 657.56
00002470 00000008 620.12 178.58 468.15 654.01 704.76 436.02 915.78 414.34 798.15 552.38 757.73 676.75 926.71 656.83
00002471 00000009 618.09 182.99 469.28 646.54 701.29 438.05 912.54 415.52 794.03 552.62 755.86 677.94 925.22 657.45
00002472 00000010 617.34 184.85 468.44 642.74 700.35 440.01 911.13 417.02 794.25 552.97 755.90 679.30 923.99 658.75
00002473 00000011 617.10 184.70 468.20 642.59 700.09 440.75 910.64 416.96 794.57 553.64 757.53 681.16 924.20 660.00
00002474 00000012 617.34 184.19 468.66 640.55 700.47 440.72 911.80 417.70 794.74 554.37 758.08 681.19 923.97 660.80
00002475 00000013 617.88 185.39 468.58 643.92 701.11 440.44 912.27 417.08 794.81 553.46 757.94 681.83 925.70 660.74
00002476 00000014 619.05 185.64 468.42 645.73 701.66 440.39 913.21 417.38 795.13 553.93 758.72 683.89 926.63 662.92
00002477 00000015 620.86 185.52 466.56 647.37 703.39 441.82 915.00 418.96 797.12 556.06 758.11 683.57 929.40 662.52
00002478 00000016 622.34 186.18 465.75 646.96 704.63 441.39 916.33 420.32 797.65 557.09 757.17 683.06 928.51 663.42
00002479 00000017 623.68 186.06 464.32 643.64 706.04 440.05 918.64 421.93 799.12 555.78 754.71 680.71 926.01 663.71
00002480 00000018 619.52 182.65 465.55 635.26 707.66 439.74 919.29 425.07 799.84 561.54 752.84 671.17 921.31 657.97
00002481 00000019 619.98 181.03 464.75 636.42 708.94 439.31 923.19 426.83 801.94 561.06 751.55 669.54 923.35 657.89
00002482 00000020 622.25 180.38 462.53 639.02 711.58 438.70 926.77 426.42 805.74 560.59 754.22 671.20 925.94 659.49
00002483 00000021 631.01 179.10 457.09 635.19 716.93 435.62 932.66 422.14 815.43 554.68 760.76 675.10 925.59 662.42
00002484 00000022 632.52 177.80 455.52 635.25 720.25 436.95 936.71 423.85 821.20 553.53 764.76 676.02 930.06 663.60
00002485 00000023 633.57 180.75 452.26 635.21 727.13 443.01 937.23 433.08 819.97 559.99 768.08 675.52 930.48 665.62
00002486 00000024 643.06 177.76 446.83 635.30 733.71 441.69 943.15 434.42 827.32 556.75 767.75 666.70 929.96 661.11
00002487 00000025 645.03 177.19 447.22 637.31 735.26 437.15 944.25 433.64 826.39 554.71 765.16 663.45 928.54 660.97
00002488 00000026 645.88 174.11 448.62 641.33 734.65 434.26 944.60 431.41 823.92 552.03 761.83 661.23 928.09 659.06
00002489 00000027 640.79 175.22 458.23 640.51 733.72 434.75 940.53 437.51 812.45 548.16 757.16 656.41 918.99 658.90
00002490 00000028 641.42 172.98 459.22 640.34 733.92 431.36 938.83 435.86 809.07 546.96 755.50 653.25 916.67 657.36
00002491 00000029 644.54 171.87 457.27 637.08 733.31 428.10 937.44 433.72 805.58 544.88 752.56 649.24 916.06 654.43
00002492 00000030 648.50 170.30 453.79 634.41 734.93 426.14 937.34 432.84 804.40 543.78 752.79 645.60 916.25 651.74
00002493 00000031 652.53 170.36 451.36 629.86 737.06 424.62 937.61 431.12 804.21 542.67 754.49 643.38 916.91 649.39
00002494 00000032 655.08 169.14 449.82 630.89 738.16 423.95 938.88 430.65 804.98 542.16 754.37 642.05 917.51 648.33
00002495 00000033 657.20 169.35 448.39 628.60 739.69 423.09 939.32 430.19 805.95 541.77 755.65 641.04 917.92 647.67
00002496 00000034 664.83 171.34 438.76 626.42 741.10 420.12 941.72 424.44 812.74 541.87 759.94 644.04 924.31 647.64
00002497 00000035 660.05 170.48 446.40 633.80 741.71 423.37 939.18 429.90 804.83 541.31 759.58 646.68 914.52 652.93
00002498 00000036 659.43 171.16 447.55 634.88 743.06 423.38 938.69 430.32 804.30 541.66 763.10 647.18 911.89 653.75
00002499 00000037 659.41 171.48 448.20 636.42 743.31 423.15 938.51 430.40 803.63 540.85 762.08 646.83 909.66 653.76
00002500 00000038 659.10 171.44 448.12 637.33 742.46 422.87 938.72 429.93 802.57 540.12 760.96 647.40 908.87 654.18
00002501 00000039 658.42 170.53 448.75 637.26 742.35 422.37 938.43 429.35 802.58 539.17 760.27 646.41 909.08 653.15
00002502 00000040 658.61 169.64 448.31 634.98 741.66 421.93 938.62 429.26 802.98 539.90 759.36 645.84 909.72 652.80
00002503 00000041 665.44 170.51 438.73 628.35 742.90 418.91 941.21 425.19 813.06 542.01 761.78 646.37 917.28 652.09
00002504 00000042 666.35 172.29 437.68 625.07 743.18 419.48 942.81 425.58 814.29 542.78 762.29 646.85 918.47 652.44
00002505 00000043 665.88 171.71 438.22 626.71 743.63 419.52 943.61 425.63 815.57 543.20 763.30 647.91 919.42 653.61
00002506 00000044 666.01 172.58 438.03 627.17 743.97 419.63 944.81 425.52 816.06 542.45 762.43 648.64 920.77 653.99
00002507 00000045 666.73 173.39 437.06 625.74 744.97 420.38 945.67 426.43 816.72 542.45 763.22 648.54 922.42 653.88
00002508 00000046 662.01 173.66 445.75 630.87 743.98 424.90 944.12 431.92 809.24 544.74 761.22 651.46 916.18 658.14
00002509 00000047 661.45 176.04 446.79 631.37 744.24 425.12 945.00 432.20 809.57 545.03 761.51 652.81 916.81 659.61
00002510 00000048 661.27 175.95 447.02 635.14 744.21 425.12 945.15 432.42 809.32 544.79 760.46 654.23 916.17 661.29
00002511 00000049 660.76 177.21 448.04 636.38 744.49 425.64 945.78 432.78 809.57 545.50 761.37 655.45 917.54 662.36
00002512 00000050 661.34 178.24 448.04 639.19 744.31 425.18 947.97 433.61 810.42 546.87 759.75 656.59 919.86 664.62
00002513 00000051 661.21 180.14 448.50 639.67 744.84 426.50 950.26 434.69 812.36 548.29 760.48 659.08 921.95 666.80
00002514 00000052 663.59 178.99 447.43 637.68 746.76 426.68 951.88 435.86 814.29 550.94 762.11 658.87 924.98 667.28
00002515 00000053 665.11 181.18 447.27 632.15 747.69 428.14 951.78 438.38 815.45 554.54 763.17 658.32 924.20 667.55
00002516 00000054 669.92 182.95 441.13 625.21 749.23 425.10 955.31 436.89 820.45 553.76 765.53 656.27 929.49 666.11
00002517 00000055 671.01 186.62 441.51 616.69 750.49 427.99 955.62 441.42 821.13 557.73 768.16 656.27 928.74 667.29
00002518 00000056 671.96 187.12 441.53 614.68 751.75 430.55 955.81 445.26 821.97 561.35 769.35 658.38 927.69 670.51
00002519 00000057 672.32 188.14 441.64 613.19 753.26 432.26 955.77 448.00 821.80 562.23 769.73 659.20 926.20 672.10
00002520 00000058 669.15 191.43 446.91 617.53 755.37 436.08 955.33 455.23 823.22 568.68 770.57 660.81 920.44 676.92
00002521 00000059 669.65 191.96 446.93 617.48 755.83 436.64 955.47 456.22 823.41 569.47 771.85 662.08 919.68 678.49
00002522 00000060 670.60 192.32 446.92 618.92 756.67 436.03 956.00 455.34 823.89 569.13 772.94 661.38 921.06 677.64
00002523 00000061 670.67 191.93 447.15 622.65 757.00 436.42 956.61 455.00 823.90 568.71 772.53 662.50 922.88 678.22
00002524 00000062 669.93 190.63 447.77 624.13 756.93 436.55 955.71 456.15 822.86 568.70 770.46 661.23 920.94 677.82
00002525 00000063 671.09 193.29 446.23 624.22 755.09 437.76 954.35 457.57 819.40 570.81 768.31 663.69 918.75 680.56
00002526 00000064 669.94 194.14 447.24 629.93 751.67 442.42 952.81 461.78 815.88 574.55 762.49 667.35 915.12 684.42
00002527 00000065 668.07 196.66 446.95 623.90 748.23 446.38 950.53 466.04 814.91 581.50 762.26 671.05 913.86 687.84
00002528 00000066 666.90 198.13 447.99 621.13 746.64 447.79 946.78 466.18 812.48 582.15 763.13 673.89 909.96 689.49
00002529 00000067 667.56 198.93 445.57 619.00 744.71 447.32 942.51 464.40 809.16 580.93 765.69 680.66 902.48 695.17
00002530 00000068 667.87 199.18 445.03 620.81 744.44 447.29 941.54 462.47 808.13 580.10 769.62 684.48 901.35 697.29
00002531 00000069 667.62 200.70 445.12 620.16 743.27 448.39 941.65 462.55 808.23 579.59 767.69 684.79 900.77 696.94
00002532 00000070 666.83 201.11 446.04 617.86 743.74 448.96 942.32 462.69 809.15 580.24 767.74 682.94 902.79 694.76
00002533 00000071 667.90 200.75 445.69 614.58 743.69 449.08 944.41 462.83 811.04 582.56 768.77 681.94 907.02 693.59
00002534 00000072 668.36 200.78 445.73 615.74 745.33 450.40 945.70 463.30 812.51 582.39 770.82 682.26 909.80 693.18
00002535 00000073 669.73 202.53 445.82 615.63 746.30 456.60 949.50 467.97 815.29 582.38 770.94 682.54 916.30 692.28
00002536 00000074 671.34 201.77 445.39 616.80 749.40 455.70 952.53 469.12 818.95 582.80 772.94 681.62 919.05 693.09
00002537 00000075 674.18 203.17 444.28 614.70 751.31 455.26 957.09 468.21 823.43 581.23 773.70 682.18 923.36 693.42
00002538 DELETE   675.07 200.62 446.84 617.71 756.03 451.55 963.81 464.42 830.57 580.20 778.10 679.28 930.94 690.69
00002539 00000077 676.74 198.64 448.10 619.74 758.63 447.49 967.43 459.74 835.10 579.21 781.58 678.80 934.20 689.80
00002540 00000078 678.85 195.58 447.84 624.25 760.90 445.34 970.87 455.58 839.41 577.38 785.23 680.49 937.51 689.98
00002541 00000079 678.37 195.12 443.66 628.21 762.32 437.58 970.77 448.29 838.56 571.81 782.76 681.29 941.15 690.28
00002542 00000080 677.84 193.39 450.84 629.22 761.76 442.22 971.84 452.20 839.82 574.63 786.24 678.69 939.20 688.08
00002543 00000081 676.66 194.03 444.74 626.42 761.89 436.67 971.15 447.50 837.61 569.07 780.06 676.75 940.44 685.90
00002544 00000082 674.28 192.93 446.34 624.75 759.43 435.22 971.00 446.73 834.72 569.06 775.64 672.33 942.44 681.82
00002545 00000083 673.74 193.73 446.39 621.68 759.11 434.56 970.83 447.05 834.17 569.32 774.63 671.90 940.53 682.24
00002546 00000084 675.08 194.18 449.06 617.71 758.00 441.07 972.37 453.92 838.72 577.49 781.08 674.59 939.75 686.08
00002547 00000085 674.94 194.27 449.60 620.31 757.73 441.35 971.92 454.70 838.19 578.31 781.49 676.35 938.27 688.24
00002548 00000086 673.83 195.84 446.74 627.71 758.83 437.06 971.26 447.53 836.32 572.29 779.73 684.89 935.98 693.99
00002549 00000087 674.74 198.22 452.05 633.39 761.01 444.03 971.82 455.97 837.59 576.74 786.39 684.72 935.32 695.73
00002550 00000088 673.75 200.22 452.98 632.05 759.51 444.18 971.64 456.12 837.61 576.70 782.88 683.97 935.86 695.02
00002551 00000089 674.50 202.17 451.58 626.54 758.83 445.05 971.76 457.26 837.50 579.38 783.02 682.77 937.09 694.11
00002552 00000090 674.01 201.23 451.77 624.09 758.05 445.68 971.07 458.19 837.32 581.34 784.05 682.33 936.69 693.76
00002553 00000091 675.67 202.23 450.13 619.98 758.64 445.95 971.20 458.20 837.91 581.88 786.43 683.74 935.43 694.83
00002554 00000092 674.73 202.49 445.55 623.24 759.98 440.95 969.81 449.83 838.20 577.85 785.42 689.32 937.07 697.36
00002555 00000093 673.08 202.15 447.63 626.13 759.91 439.84 971.90 451.07 838.53 576.08 780.22 686.48 935.42 696.46
00002556 00000094 675.15 201.93 451.33 623.03 760.78 445.14 971.81 458.27 839.56 580.54 786.48 682.40 933.64 694.32
00002557 00000095 676.74 203.56 446.52 628.53 760.64 441.90 973.76 449.09 843.22 577.93 782.71 687.43 936.76 693.68
00002558 00000096 675.73 200.53 453.86 629.51 760.94 444.64 972.96 456.30 840.62 579.98 785.97 684.26 935.80 695.29
00002559 00000097 677.84 200.35 446.14 636.08 761.99 441.23 975.21 450.17 843.41 578.84 781.81 686.65 939.38 694.07
00002560 00000098 678.72 199.63 445.66 638.48 761.90 440.52 974.59 449.65 842.05 578.82 782.13 687.21 940.12 694.78
00002561 00000099 678.90 200.30 445.78 638.23 762.55 440.03 974.96 449.12 842.76 578.24 783.12 686.75 941.34 694.28
00002562 00000100 679.91 200.05 445.10 638.76 763.60 439.55 974.50 448.30 843.17 577.63 784.72 687.20 942.19 694.42
00002563 00000101 680.17 200.06 445.46 636.60 764.17 439.70 975.17 447.64 845.36 577.25 785.56 686.94 943.04 693.44
00002564 00000102 680.39 199.43 446.03 635.85 765.83 439.19 975.96 447.67 847.08 576.51 786.64 685.92 942.73 692.86
00002565 00000103 679.93 200.26 447.03 631.79 766.55 439.56 978.75 446.66 850.33 575.74 786.32 685.57 942.57 691.26
00002566 00000104 680.18 199.50 447.71 631.53 768.16 438.41 980.97 448.15 851.78 574.86 783.97 682.76 942.57 690.72
00002567 00000105 680.36 198.26 448.52 632.65 768.99 438.36 982.12 449.73 852.49 573.04 782.25 680.41 941.12 689.74
00002568 00000106 682.05 198.24 444.69 630.70 769.51 444.60 978.77 457.48 848.81 571.68 780.28 677.26 939.51 687.73
00002569 00000107 682.64 199.89 444.45 628.80 768.93 445.82 978.64 457.89 847.88 569.35 779.24 675.14 943.68 684.64
00002570 00000108 682.81 196.53 445.17 634.04 769.20 441.03 978.97 454.66 846.33 566.83 779.73 672.14 945.48 682.88
00002571 00000109 682.93 194.67 446.41 637.99 769.70 437.69 979.55 451.56 846.53 565.37 780.66 671.50 948.59 682.36
00002572 00000110 683.75 193.36 446.36 641.15 770.08 433.40 979.46 446.19 847.55 561.01 780.91 670.57 949.79 680.49
00002573 00000111 685.84 192.04 445.33 644.64 771.72 428.50 979.53 440.22 849.14 558.49 783.64 668.28 953.57 677.15
00002574 00000112 686.99 191.38 445.05 642.06 772.03 426.28 980.59 438.18 849.33 556.59 783.73 664.61 954.95 673.58
00002575 00000113 687.44 189.63 445.10 640.43 773.76 423.68 983.44 437.29 851.87 555.51 783.63 659.81 954.17 670.33
00002576 00000114 688.18 188.44 444.92 637.95 774.23 422.58 984.81 436.87 852.91 554.97 784.14 658.64 954.09 669.83
00002577 00000115 689.05 187.54 445.06 635.53 775.44 422.41 986.70 437.69 855.01 555.43 785.22 658.14 952.93 670.24
00002578 00000116 688.85 188.24 445.17 633.11 776.19 422.00 987.36 437.32 856.82 555.01 786.55 658.19 951.81 670.32
00002579 00000117 689.26 187.82 445.01 632.40 776.86 422.19 987.54 438.05 857.23 554.58 786.35 657.56 950.80 670.17
00002580 00000118 690.05 189.03 444.99 630.87 777.41 421.75 986.89 436.58 857.96 553.83 787.76 657.87 949.06 669.73
00002581 00000119 690.71 189.57 444.23 632.73 776.19 422.29 986.69 435.87 857.38 553.92 786.14 660.97 948.90 671.88
00002582 00000120 689.06 187.94 445.07 633.24 775.78 422.12 987.24 434.86 858.30 554.03 787.61 661.97 948.23 672.23
00002583 00000121 689.19 187.63 445.38 638.21 774.93 420.87 986.80 432.75 857.30 552.56 787.22 663.68 948.11 673.33
00002584 00000122 689.53 187.87 444.38 642.34 773.45 419.94 984.60 430.29 854.17 551.92 787.52 666.12 948.28 674.51
00002585 00000123 689.67 187.98 443.50 653.24 773.15 416.99 981.51 426.42 849.89 549.17 786.38 667.76 948.66 675.21
00002586 00000124 689.22 186.29 444.05 658.04 772.78 416.23 981.49 424.55 849.53 548.23 785.90 667.50 951.04 673.85
00002587 00000125 689.62 186.62 443.46 653.69 773.26 415.61 982.00 423.03 852.68 547.05 789.59 666.03 951.27 671.65
00002588 00000126 690.01 186.92 443.64 646.57 773.20 415.22 982.01 422.45 854.61 546.84 791.91 664.79 949.91 670.50
00002589 00000127 690.53 186.06 442.33 638.36 773.75 415.36 983.22 423.48 855.98 546.17 792.08 661.61 948.77 668.33
00002590 00000128 689.99 185.14 442.17 634.58 772.90 416.02 982.72 423.89 855.90 546.32 791.61 659.86 948.94 666.38
00002591 00000129 684.26 185.36 446.03 626.56 771.35 416.46 978.20 423.63 847.27 544.20 787.03 655.61 947.70 661.62
00002592 00000130 684.58 184.51 445.70 626.01 771.16 416.93 977.98 424.22 847.20 544.92 787.48 655.18 948.59 661.22
00002593 00000131 684.45 183.73 445.52 626.69 770.30 417.83 977.14 424.44 846.89 545.22 787.48 655.87 948.93 661.28
00002594 00000132 683.77 184.49 445.47 626.11 769.27 418.36 977.21 423.49 847.37 545.03 788.74 657.65 950.17 661.87
00002595 00000133 683.16 184.09 446.16 627.15 769.11 418.63 977.24 423.15 847.52 545.56 789.72 658.86 950.84 662.57
00002596 00000134 682.34 184.36 446.15 626.50 769.12 418.90 977.29 422.54 849.34 545.45 790.61 659.22 951.68 662.26
00002597 00000135 680.88 183.87 446.97 631.58 768.95 419.17 977.23 421.93 850.44 544.94 790.86 660.54 953.38 662.82
00002598 00000136 679.20 182.93 448.73 635.64 768.06 420.05 977.82 421.64 852.56 545.98 791.29 661.73 956.61 663.01
00002599 00000137 678.86 181.76 448.34 639.81 768.41 421.04 978.14 421.13 855.93 546.91 792.94 664.03 958.35 664.16
00002600 00000138 678.15 179.66 448.25 644.00 769.00 423.37 978.79 421.07 860.09 548.04 796.42 666.84 962.62 664.99
00002601 00000139 677.03 180.96 449.37 643.40 768.77 426.82 979.91 421.61 862.96 549.64 799.61 670.38 966.95 666.06
00002602 00000140 674.97 180.54 450.25 646.47 769.17 429.61 979.69 422.38 865.21 553.94 802.99 673.11 970.78 667.16
00002603 00000141 672.76 181.00 452.01 651.95 768.92 433.90 979.70 423.99 867.37 558.86 805.67 677.99 975.36 669.75
00002604 00000142 669.81 182.92 454.61 655.75 768.80 440.42 977.07 426.54 870.80 563.82 812.22 683.67 979.71 672.23
00002605 00000143 669.44 188.06 450.32 655.83 765.40 443.43 975.44 430.53 871.95 563.12 813.13 688.25 977.23 676.46
00002606 00000144 668.23 186.12 452.50 657.17 763.36 448.68 971.65 432.03 866.97 569.81 810.21 690.17 979.40 676.39
00002607 00000145 665.19 187.75 453.43 657.76 759.08 450.56 969.33 434.06 863.71 572.13 805.71 693.07 975.44 679.66
00002608 00000146 662.52 186.89 452.29 651.80 755.42 450.95 966.60 435.00 859.87 570.94 801.59 690.51 971.30 677.76
00002609 00000147 660.21 186.95 453.74 649.61 753.75 451.33 965.76 434.59 858.11 571.67 802.38 690.15 971.63 676.71
00002610 00000148 657.17 185.49 453.30 645.98 753.35 450.99 964.65 432.85 858.09 571.41 807.25 688.88 973.67 674.16
00002611 00000149 656.30 186.85 452.54 640.53 754.19 452.08 963.31 432.51 858.73 571.60 810.51 687.06 974.83 671.13
00002612 00000150 655.36 186.78 452.66 638.54 753.19 452.72 963.01 432.48 858.14 571.45 810.38 687.62 975.89 670.99
00002613 00000151 655.04 187.13 452.08 637.58 752.44 453.61 962.31 434.79 856.74 571.29 806.99 687.08 972.57 671.73
00002614 00000152 654.91 187.99 451.62 638.61 751.76 453.48 962.65 434.26 856.90 571.74 805.85 688.84 973.38 673.16
00002615 00000153 654.57 187.31 451.47 642.85 750.78 453.39 961.62 434.43 856.04 572.95 805.50 691.89 970.33 676.52
00002616 00000154 655.59 187.75 448.69 646.59 750.35 452.92 961.29 436.63 854.14 572.50 801.33 691.94 964.68 679.00
00002617 00000155 656.39 189.02 445.96 648.89 749.03 452.31 960.27 438.67 852.45 571.46 795.95 693.13 957.98 682.60
00002618 00000156 657.33 190.20 445.88 647.76 750.18 458.42 960.35 448.39 849.98 571.79 790.26 691.32 956.17 683.47
00002619 00000157 655.29 192.11 445.75 647.31 750.29 460.15 959.40 449.73 849.43 569.98 790.01 690.87 955.90 682.70
00002620 00000158 655.17 191.51 445.69 644.54 750.00 459.19 959.41 448.87 849.37 569.82 790.36 689.77 955.26 681.66
00002621 00000159 656.27 190.68 445.06 644.66 749.46 457.99 959.49 448.82 848.55 570.53 788.34 688.44 955.19 681.26
00002622 00000160 657.29 189.48 444.94 643.45 749.56 457.00 959.48 447.34 847.85 569.34 788.76 687.50 955.25 679.99
00002623 00000161 657.43 187.99 445.50 647.88 750.29 454.66 959.79 444.73 848.71 568.11 790.18 688.19 956.09 680.53
00002624 00000162 658.06 186.11 446.24 649.90 749.86 452.46 961.08 442.63 849.13 568.69 790.08 688.24 958.67 680.67
00002625 00000163 658.86 184.38 446.45 656.10 749.92 450.64 961.50 440.00 849.04 568.29 789.05 689.57 959.74 681.41
00002626 00000164 659.12 184.50 447.31 652.75 749.73 450.72 961.51 439.31 849.63 569.06 790.15 688.53 961.71 679.66
00002627 00000165 659.17 184.33 446.80 647.32 749.96 450.67 961.33 440.55 849.25 568.94 790.08 686.19 960.54 678.28
00002628 00000166 658.62 182.91 447.81 644.57 750.17 450.16 962.79 441.33 849.06 567.62 786.90 682.19 959.58 675.22
00002629 00000167 658.62 183.19 449.57 641.36 750.13 449.91 963.69 441.75 847.98 567.51 783.90 678.14 960.21 671.62
00002630 00000168 659.18 183.27 450.28 640.45 750.10 450.26 963.42 443.61 846.95 568.65 782.29 677.58 958.88 672.23
00002631 00000169 658.61 183.18 450.80 646.69 749.65 449.47 962.37 443.64 845.30 568.36 779.07 678.63 956.65 674.07
00002632 00000170 657.34 182.09 448.18 648.78 746.56 447.32 957.93 445.58 837.61 566.70 771.25 678.07 944.23 677.07
