Video ID: 	ghjwOGbUhqs
H: 	1080
W: 	1920
FPS: 	25.0

FRAME INDEX X0 Y0 W H [Landmarks (5 Points)]

00098250 00000000 553.07 162.23 424.83 653.49 643.13 471.85 811.00 439.48 733.41 575.84 713.77 675.51 853.73 646.66
00098251 00000001 549.39 159.01 428.78 657.73 643.85 470.18 813.06 434.39 739.14 570.71 716.64 672.81 858.45 641.14
00098252 00000002 547.77 157.63 431.26 658.32 641.99 464.10 815.53 426.33 740.74 565.57 716.41 671.43 860.04 638.45
00098253 00000003 547.25 159.03 432.99 651.20 642.17 456.76 816.48 417.39 739.81 558.79 716.96 665.81 860.02 631.72
00098254 00000004 550.45 147.28 430.59 647.63 646.14 443.83 819.61 406.82 742.71 545.48 717.47 653.94 857.72 622.32
00098255 00000005 554.66 140.92 431.30 645.37 653.43 431.05 826.65 396.17 749.82 530.91 721.38 644.75 859.95 614.80
00098256 00000006 557.91 139.02 430.21 643.85 659.52 424.06 831.87 393.62 754.89 525.04 723.18 638.80 859.06 612.35
00098257 00000007 561.70 136.63 429.91 646.49 665.13 421.21 839.63 392.82 760.82 523.02 728.45 639.27 863.81 614.07
00098258 00000008 565.68 141.96 431.63 649.44 669.91 422.57 848.41 392.68 768.72 526.55 735.79 645.75 872.28 619.14
00098259 00000009 567.57 149.17 433.56 652.51 672.40 428.63 850.73 397.88 773.30 533.46 739.46 652.46 876.94 625.14
00098260 00000010 567.91 150.95 433.90 657.69 675.54 430.99 855.02 399.81 779.31 537.52 742.95 656.79 882.12 629.06
00098261 00000011 576.02 137.82 430.97 671.04 678.65 425.53 862.79 396.09 786.77 535.04 742.89 651.36 893.80 626.97
00098262 00000012 581.55 133.82 428.56 665.75 683.71 422.73 868.86 392.42 794.69 533.89 746.72 645.44 900.57 620.32
00098263 00000013 585.57 131.92 429.67 658.80 690.33 420.53 875.91 389.80 802.33 531.54 754.74 640.68 908.18 614.89
00098264 00000014 588.70 138.23 432.04 648.52 695.56 418.60 881.11 386.81 808.92 529.51 763.43 639.99 913.15 613.36
00098265 00000015 595.72 132.63 427.73 655.39 705.70 416.13 887.34 384.06 817.51 522.55 774.65 642.27 916.71 614.96
00098266 00000016 599.77 131.12 428.90 655.59 718.12 414.62 900.85 384.52 835.57 522.78 784.89 640.03 928.75 614.10
00098267 DELETE   612.35 138.20 426.81 641.27 745.84 419.50 930.44 389.52 874.12 517.53 802.76 635.54 952.50 608.80
00098268 DELETE   634.69 134.00 423.64 641.93 786.67 425.52 970.13 393.21 924.52 508.44 844.92 641.34 989.24 612.84
00098269 DELETE   658.94 122.87 417.33 647.13 813.63 429.32 989.10 389.38 958.28 503.01 878.49 632.47 1023.72 598.47
00098270 00000020 669.31 121.41 417.96 650.57 834.67 425.86 1004.28 387.14 979.70 504.39 900.22 635.74 1035.36 602.72
00098271 00000021 676.28 127.73 419.01 645.50 850.18 424.54 1014.73 389.73 993.53 503.96 916.42 638.28 1044.17 608.28
00098272 00000022 683.23 132.64 418.60 646.51 857.00 424.98 1024.05 391.11 1002.01 507.32 922.04 642.59 1051.39 613.23
00098273 00000023 688.14 134.80 416.52 645.61 861.97 426.18 1029.05 392.46 1007.03 511.74 926.67 646.09 1054.78 616.93
00098274 00000024 689.25 134.51 418.08 650.63 865.16 426.74 1032.49 392.16 1011.49 514.81 929.04 649.18 1057.79 619.35
00098275 00000025 691.35 129.45 418.11 657.03 867.48 427.90 1034.78 392.54 1013.89 518.85 929.57 650.82 1058.91 620.38
00098276 00000026 691.25 129.83 418.86 655.74 867.78 428.89 1035.57 392.40 1014.68 520.25 930.63 651.64 1059.90 620.30
00098277 00000027 690.83 128.49 420.94 656.72 867.93 427.97 1037.75 392.00 1015.52 519.14 931.13 651.38 1061.62 620.33
00098278 00000028 692.01 128.07 421.20 656.08 868.23 428.14 1039.16 392.67 1015.71 518.99 932.02 651.52 1063.04 620.80
00098279 00000029 691.36 128.12 422.02 657.48 868.74 429.43 1039.68 393.72 1016.59 519.63 931.78 651.75 1063.84 620.70
00098280 00000030 691.51 131.53 420.45 650.91 866.86 431.43 1037.65 395.09 1013.45 521.60 929.40 650.82 1061.80 619.29
00098281 00000031 690.39 131.66 419.97 653.58 865.02 431.40 1035.54 394.27 1011.89 522.70 925.59 650.77 1059.10 618.71
00098282 00000032 688.61 133.91 423.89 671.05 865.28 435.14 1033.20 393.18 1011.81 518.80 923.94 657.88 1057.83 620.47
00098283 00000033 690.54 132.01 423.08 677.86 866.61 438.82 1035.31 395.41 1014.58 522.25 923.87 660.88 1061.09 622.36
00098284 00000034 694.47 129.37 422.92 690.88 870.45 441.71 1041.17 401.69 1019.98 527.55 924.41 668.25 1064.88 633.29
00098285 00000035 694.90 140.73 420.55 680.85 873.66 449.27 1044.61 409.10 1024.78 536.89 929.15 675.57 1065.87 640.44
00098286 00000036 695.72 140.87 419.37 675.12 873.83 453.87 1044.66 412.43 1024.47 540.63 929.67 674.94 1066.34 638.48
00098287 00000037 698.05 138.72 418.83 665.53 874.43 451.42 1046.60 411.31 1023.92 538.05 930.02 669.80 1066.33 634.31
00098288 00000038 700.92 132.11 420.66 666.02 876.84 445.27 1048.54 406.49 1026.09 530.82 930.84 663.73 1069.05 629.76
00098289 00000039 701.78 128.09 421.36 667.52 881.42 442.49 1050.35 403.75 1029.73 527.32 933.65 660.56 1069.44 626.94
00098290 00000040 702.69 128.94 420.48 668.13 879.33 442.44 1050.50 405.00 1027.14 529.65 929.15 661.13 1067.86 628.55
00098291 00000041 700.72 128.00 419.30 680.05 866.43 448.92 1044.77 412.03 1012.06 541.60 920.89 671.83 1063.42 638.96
00098292 DELETE   685.11 165.88 419.01 655.72 843.01 460.06 1021.53 420.61 984.83 554.46 902.52 681.08 1044.47 645.67
00098293 DELETE   673.60 174.79 413.82 645.59 817.10 458.72 996.81 422.99 955.51 555.01 876.49 670.73 1027.33 640.64
00098294 00000044 662.38 151.34 412.23 653.28 793.95 434.86 975.39 410.47 924.89 538.43 848.88 652.87 1002.75 632.18
00098295 00000045 653.20 137.96 415.49 655.45 787.49 416.40 964.02 395.21 912.90 516.26 840.83 637.96 988.91 620.24
00098296 00000046 650.08 138.15 419.01 649.33 784.78 409.20 966.82 387.84 913.64 501.86 836.22 633.37 983.25 614.41
00098297 00000047 646.04 136.48 419.41 646.43 779.75 408.34 962.95 386.66 907.87 501.49 830.72 630.00 980.24 610.64
00098298 00000048 640.59 146.20 421.82 644.49 772.77 417.02 958.16 390.85 898.77 515.74 823.25 641.00 974.34 617.72
00098299 00000049 634.55 155.46 422.50 643.83 765.16 429.37 948.30 399.99 887.41 532.61 816.89 653.32 966.84 627.17
00098300 00000050 630.43 148.11 422.03 656.93 761.19 436.83 944.14 409.56 882.31 538.09 812.07 658.75 962.08 634.33
00098301 00000051 623.02 143.85 424.55 659.25 754.43 432.06 936.35 404.01 877.84 532.18 810.05 654.19 958.78 628.86
00098302 00000052 620.39 134.00 421.06 656.56 750.86 420.97 930.18 394.77 871.79 520.34 804.80 642.31 951.76 618.55
00098303 00000053 619.22 132.63 419.75 650.63 749.46 411.02 927.28 386.91 868.84 505.31 802.57 632.27 949.69 610.27
00098304 00000054 617.65 131.61 419.85 645.93 746.85 410.04 927.34 386.56 867.14 507.36 798.61 628.79 948.08 607.49
00098305 00000055 618.00 132.98 419.70 647.83 748.12 415.24 927.08 391.08 867.39 515.82 799.48 632.66 949.18 610.62
00098306 00000056 618.88 137.50 418.98 653.61 750.55 422.55 927.00 395.62 870.54 526.86 804.41 642.04 952.35 617.51
00098307 00000057 619.36 142.66 419.09 658.22 749.59 431.90 930.00 404.00 872.72 536.14 804.36 651.03 956.24 625.66
00098308 00000058 619.28 156.80 419.52 662.32 755.08 443.42 934.82 414.67 879.32 552.57 808.13 666.37 959.84 640.42
00098309 00000059 618.39 163.12 423.94 675.49 759.05 467.44 940.53 435.01 888.11 576.64 810.56 687.01 962.80 656.89
00098310 00000060 623.49 173.48 421.53 665.88 763.97 474.11 945.18 444.39 892.15 585.42 813.54 692.01 965.45 664.73
00098311 00000061 623.58 175.09 422.11 655.07 766.56 465.12 948.41 435.27 897.45 570.46 817.94 682.01 969.44 654.24
00098312 00000062 627.07 163.53 422.43 650.66 766.17 449.09 948.75 418.87 895.75 550.49 818.13 667.61 970.66 639.29
00098313 00000063 629.06 143.91 425.90 657.17 760.92 436.50 949.50 403.32 890.65 537.25 816.78 656.09 971.86 625.12
00098314 00000064 630.42 143.52 424.65 653.90 762.37 428.26 949.95 395.91 889.86 530.83 817.37 649.56 969.83 619.43
00098315 00000065 631.91 143.35 422.35 656.96 761.47 433.62 948.53 400.00 889.56 534.36 818.99 655.73 970.15 624.48
00098316 00000066 626.55 150.25 419.54 656.17 766.66 444.34 948.25 416.76 892.15 546.49 816.97 662.32 967.75 637.13
00098317 00000067 623.73 149.17 423.48 664.26 761.44 446.28 944.01 415.01 888.37 547.03 816.03 666.41 964.59 636.89
00098318 00000068 622.42 148.75 421.10 668.87 761.22 439.22 942.69 414.80 885.19 545.12 810.09 663.00 961.99 640.51
00098319 00000069 621.10 142.02 424.64 672.02 757.86 427.73 938.01 398.00 882.42 530.10 814.04 657.41 956.89 629.24
00098320 00000070 621.35 137.76 422.43 665.89 759.97 420.83 939.03 395.08 882.95 526.86 811.20 649.87 957.46 626.23
00098321 00000071 621.30 138.55 422.70 662.29 758.86 421.92 939.41 394.16 883.67 526.94 811.08 648.81 959.20 623.52
00098322 00000072 621.38 142.81 421.91 656.72 758.64 427.29 938.56 398.60 883.50 532.08 810.81 650.78 959.56 624.84
00098323 00000073 620.62 142.48 421.99 660.70 756.57 436.22 938.05 407.76 881.91 538.64 808.62 654.94 959.69 629.16
00098324 00000074 620.10 142.90 421.45 662.49 753.90 436.83 936.28 409.30 879.45 540.10 806.25 655.92 958.66 631.00
00098325 00000075 619.26 142.63 420.48 662.74 752.49 433.91 934.16 406.13 877.87 538.28 806.03 655.33 957.17 630.27
00098326 00000076 618.35 143.15 421.15 667.86 752.57 429.27 933.50 402.45 878.10 535.38 807.31 656.56 956.77 632.31
00098327 00000077 618.92 144.33 420.64 666.43 752.59 429.31 934.04 402.92 878.18 535.06 806.88 657.27 956.18 633.35
00098328 00000078 619.82 145.11 420.01 667.96 752.14 433.25 934.44 408.28 877.52 538.56 804.37 659.34 955.90 636.70
00098329 00000079 618.94 151.21 417.92 665.65 752.85 439.86 932.52 415.20 876.65 548.53 805.04 664.12 954.93 641.80
00098330 00000080 616.66 167.34 419.72 657.65 746.98 457.09 927.26 427.29 872.74 563.24 803.24 679.30 949.40 651.90
00098331 00000081 618.32 180.63 415.44 652.20 745.78 476.54 926.06 446.73 869.62 591.67 800.88 696.13 946.36 669.95
00098332 00000082 617.25 184.34 417.98 658.19 750.51 485.46 930.52 456.16 872.59 603.57 804.20 705.14 948.35 679.32
00098333 00000083 618.51 178.62 417.13 661.53 750.21 479.78 930.13 450.52 874.21 594.40 803.37 699.51 948.88 673.60
00098334 00000084 619.36 170.43 419.45 655.59 749.99 461.11 933.07 432.28 876.25 569.57 804.32 682.14 952.08 655.49
00098335 00000085 621.52 146.67 423.65 663.93 752.76 441.26 937.52 413.32 879.20 548.43 807.70 665.27 955.85 638.72
00098336 00000086 625.49 147.45 418.90 657.35 757.96 435.99 941.57 412.45 880.48 543.28 805.66 657.91 957.51 636.34
00098337 00000087 626.37 149.85 422.96 663.53 758.54 441.66 942.78 412.64 884.33 550.39 809.77 663.77 961.28 636.57
00098338 00000088 623.22 162.99 422.38 659.74 758.82 457.44 939.50 430.22 882.91 566.51 813.26 678.92 957.81 653.12
00098339 00000089 622.61 171.67 421.38 660.90 760.42 460.95 944.03 438.11 880.98 576.32 807.02 682.57 957.40 661.87
00098340 00000090 624.65 166.98 419.08 658.73 764.17 454.46 944.65 432.83 884.28 568.34 811.81 677.63 958.02 657.81
00098341 00000091 627.35 151.72 418.21 665.16 765.28 442.53 945.47 420.66 886.44 552.67 812.78 667.61 960.27 647.34
00098342 00000092 632.49 145.83 418.29 658.32 763.87 434.16 948.71 409.75 886.48 540.73 813.95 659.80 961.99 637.69
00098343 00000093 633.45 142.42 418.64 661.88 765.59 432.20 950.10 408.32 887.40 538.57 812.55 656.90 962.87 635.24
00098344 00000094 632.77 148.51 419.98 667.73 765.33 439.55 950.11 417.69 886.55 546.14 809.30 663.44 963.51 643.42
00098345 00000095 629.16 157.22 419.99 665.36 766.38 445.23 947.35 422.99 887.02 553.19 811.78 668.91 962.84 648.39
00098346 00000096 627.03 153.91 421.35 664.17 764.06 444.11 946.26 421.17 885.33 550.89 809.61 666.12 961.96 645.04
00098347 00000097 627.18 149.28 420.71 658.18 761.86 437.88 945.65 415.93 883.32 543.06 807.85 659.78 958.96 639.60
00098348 00000098 627.34 145.09 420.77 656.03 760.17 435.67 943.87 410.66 883.20 539.54 810.20 656.82 959.69 634.10
00098349 00000099 628.43 147.50 419.89 655.54 761.78 438.15 946.46 413.86 884.60 542.60 809.72 659.18 960.54 637.17
00098350 00000100 625.92 152.43 420.79 659.18 763.33 444.50 946.46 419.34 886.35 550.98 811.20 664.96 962.83 641.97
00098351 00000101 624.24 156.29 420.84 658.61 763.55 445.89 945.40 421.37 886.38 553.71 811.38 667.51 961.83 645.05
00098352 00000102 627.73 151.63 419.90 653.97 763.20 441.51 946.39 417.07 886.05 545.96 811.67 661.56 961.82 639.31
00098353 00000103 631.01 144.67 420.97 652.37 762.97 433.71 947.99 407.41 886.20 537.25 814.16 655.92 962.91 632.27
00098354 00000104 632.32 142.90 421.67 654.07 766.52 428.53 952.14 402.38 889.93 533.96 815.08 652.95 965.94 629.37
00098355 00000105 635.74 139.50 422.12 666.37 770.09 430.42 956.55 405.73 893.41 537.04 817.47 658.72 968.89 636.44
00098356 00000106 640.06 147.78 417.02 675.40 774.94 434.91 958.27 412.55 897.43 541.93 818.85 666.87 969.94 646.53
00098357 00000107 640.00 148.20 417.23 675.41 776.38 437.86 958.47 416.46 898.25 544.20 819.44 667.69 970.58 648.02
00098358 00000108 638.48 151.51 420.23 662.15 772.88 435.09 959.57 409.84 897.54 540.18 818.90 664.15 972.25 641.55
00098359 00000109 640.32 146.40 420.02 649.27 774.47 430.07 958.89 404.64 897.44 532.26 822.70 654.83 970.95 632.33
00098360 00000110 639.86 141.33 420.62 652.71 776.13 426.59 960.08 401.48 899.84 530.42 822.64 650.10 972.42 627.77
00098361 00000111 641.45 140.74 420.03 654.42 776.88 428.28 960.86 405.04 900.11 531.53 821.83 651.43 971.56 630.88
00098362 00000112 643.26 146.70 416.98 651.28 775.68 432.81 960.10 407.49 899.24 536.05 823.27 656.59 971.86 634.24
00098363 00000113 640.71 145.95 419.37 655.08 772.88 431.74 957.79 406.76 895.07 534.58 819.32 655.40 970.42 633.19
00098364 00000114 633.43 139.18 424.65 654.46 766.51 426.30 951.70 402.47 887.74 531.46 812.32 646.76 964.68 625.04
00098365 00000115 624.51 132.33 426.28 662.57 752.36 418.74 935.58 397.80 869.58 528.01 799.15 640.81 951.95 621.14
00098366 00000116 618.54 134.49 425.46 663.89 738.98 415.13 919.87 399.29 847.15 529.34 785.85 642.52 932.49 627.50
00098367 00000117 613.03 139.33 419.35 661.37 724.36 421.05 902.24 403.74 827.11 532.49 771.10 646.65 917.07 631.38
00098368 00000118 608.64 132.56 419.73 674.69 713.20 427.44 892.29 411.50 813.56 541.21 757.03 651.81 906.30 638.10
00098369 00000119 603.50 139.78 420.61 666.16 704.64 430.51 887.72 416.45 805.35 547.57 747.03 653.77 897.82 642.17
00098370 00000120 599.88 135.74 421.16 672.98 702.03 433.05 885.38 419.97 802.07 549.52 741.85 655.05 893.30 644.34
00098371 00000121 598.42 133.37 421.69 676.47 700.61 433.71 884.17 420.29 800.02 550.18 739.96 656.08 890.99 645.22
00098372 00000122 598.79 133.25 421.00 678.50 700.46 433.13 883.59 419.85 798.71 549.30 740.30 656.78 889.92 646.02
00098373 00000123 598.10 132.82 422.46 679.89 699.83 431.45 883.58 418.12 798.23 548.50 740.61 656.61 889.78 645.77
00098374 00000124 598.43 133.24 421.79 679.59 697.73 430.69 882.72 416.18 796.37 546.05 738.75 655.79 889.69 644.01
00098375 00000125 596.60 131.66 423.25 677.63 696.24 428.02 882.55 413.80 795.02 541.88 737.07 652.99 888.10 641.55
00098376 00000126 597.95 132.40 421.66 673.56 696.23 426.29 883.00 412.70 794.45 539.67 736.22 651.07 887.29 640.10
00098377 00000127 597.39 131.93 421.53 673.56 695.52 424.25 882.06 410.18 793.64 536.63 737.07 650.17 886.45 638.85
00098378 00000128 596.05 131.53 421.48 672.01 693.24 421.16 880.87 406.93 791.76 534.37 734.39 647.61 885.40 636.19
00098379 00000129 593.89 128.35 423.00 665.47 691.77 416.64 879.43 403.75 789.42 530.67 731.79 641.08 882.41 630.74
00098380 00000130 593.17 124.57 424.04 664.32 690.87 412.56 879.75 399.66 788.47 525.74 729.38 634.99 882.18 624.38
00098381 00000131 592.87 124.93 424.52 662.52 692.19 406.66 877.70 394.65 788.01 517.48 729.60 629.75 876.95 619.86
00098382 00000132 591.74 123.88 423.51 659.63 692.23 403.62 875.99 390.71 788.45 511.57 731.03 625.53 875.92 614.57
00098383 00000133 592.31 120.20 422.23 655.35 690.47 401.35 874.63 388.13 785.97 509.88 729.96 621.29 875.34 609.91
00098384 00000134 591.77 118.18 422.81 660.03 689.30 402.04 872.25 389.54 782.81 510.11 726.82 621.98 870.96 611.35
00098385 00000135 593.34 119.60 421.95 671.56 685.63 403.91 869.99 391.76 774.61 517.01 722.03 629.38 869.86 619.13
00098386 00000136 593.41 120.47 421.81 675.87 686.96 405.92 869.08 395.84 774.67 522.36 721.47 631.35 869.21 622.98
00098387 00000137 593.63 120.29 422.23 677.26 687.62 404.66 871.09 393.75 776.11 518.70 722.89 631.42 872.01 622.25
00098388 00000138 595.06 118.25 421.65 671.85 691.17 403.69 875.51 389.52 783.85 511.85 728.83 627.91 879.04 615.62
00098389 00000139 598.11 117.25 420.63 666.40 697.38 398.08 881.95 384.68 792.09 506.84 733.31 622.01 886.24 609.84
00098390 00000140 601.07 115.49 419.13 668.00 702.41 395.44 885.89 382.92 798.77 506.86 738.92 621.15 891.54 609.42
00098391 00000141 601.68 113.46 419.01 668.80 705.30 396.30 887.79 383.96 802.73 507.92 742.49 621.33 894.26 609.74
00098392 00000142 600.33 114.97 420.30 667.33 702.97 398.13 886.74 384.97 800.53 510.12 741.51 622.28 894.09 610.08
00098393 00000143 598.21 113.72 421.06 668.62 701.68 401.25 886.77 389.95 799.97 515.80 738.21 623.45 892.51 613.09
00098394 00000144 599.68 120.92 419.51 659.74 701.85 402.52 889.63 391.45 801.57 520.41 738.00 624.37 893.09 614.55
00098395 00000145 599.80 122.09 418.63 657.48 708.43 403.69 894.87 390.09 813.11 521.27 749.03 625.48 901.60 613.48
00098396 00000146 603.72 124.89 418.98 658.41 716.57 404.03 899.53 387.22 825.17 518.91 761.85 629.08 910.12 614.11
00098397 00000147 608.28 126.40 418.42 653.78 722.90 401.92 905.91 384.91 834.51 515.64 771.13 627.71 917.67 612.27
00098398 00000148 609.83 130.01 418.18 649.38 724.34 400.75 907.10 382.96 836.44 511.44 774.40 625.32 922.52 608.85
00098399 00000149 607.10 126.73 417.82 654.19 718.94 400.15 902.64 380.75 830.20 508.40 767.41 624.51 919.65 606.57
00098400 00000150 602.17 121.84 418.69 660.97 710.66 399.11 894.65 380.19 817.64 511.82 755.72 624.42 910.71 607.02
00098401 00000151 598.09 117.59 420.68 666.19 704.95 399.08 889.88 381.58 810.40 512.33 746.77 621.90 907.04 605.80
00098402 00000152 597.56 117.43 420.66 666.56 705.68 399.75 889.90 382.42 811.71 512.72 747.13 621.40 907.97 605.44
00098403 00000153 599.54 121.87 421.71 662.18 711.60 401.68 894.96 381.50 821.94 511.57 757.22 623.34 914.82 604.97
00098404 00000154 607.35 128.22 418.07 655.15 723.14 400.27 905.06 381.45 835.59 510.26 768.42 621.83 925.50 604.31
00098405 00000155 611.46 126.93 417.55 658.72 730.57 400.79 911.92 380.34 846.53 509.96 776.93 623.22 935.12 604.32
00098406 00000156 612.22 129.46 417.82 659.38 732.66 402.60 913.12 381.03 847.90 512.25 778.91 625.32 937.75 605.44
00098407 00000157 610.89 139.24 420.09 657.68 730.67 403.76 913.17 382.55 844.19 517.92 778.28 631.06 937.54 611.38
00098408 00000158 611.70 137.03 421.05 664.66 733.61 407.00 915.77 386.47 847.79 521.68 781.36 635.91 939.57 616.76
00098409 00000159 613.10 134.53 420.64 669.29 740.22 410.11 921.39 387.93 857.79 522.29 787.75 637.89 945.08 617.35
00098410 00000160 613.92 130.79 421.12 664.95 741.30 412.74 922.64 390.30 860.57 522.93 789.33 634.39 947.51 613.78
00098411 00000161 613.00 133.63 419.58 659.42 738.61 414.42 917.14 392.06 854.66 524.24 786.85 632.99 943.17 612.53
00098412 00000162 608.62 135.94 421.09 664.30 728.34 421.08 909.01 395.85 845.68 528.71 778.87 639.98 939.04 617.72
00098413 00000163 600.73 135.30 423.10 667.77 718.33 426.08 896.63 400.15 835.38 532.89 770.35 643.32 927.82 621.12
00098414 00000164 591.46 133.88 425.79 668.50 701.76 427.83 886.20 402.54 818.59 541.24 752.98 644.27 917.16 622.60
CROP_BBOX: 261 0 1499 1080
