Video ID: 	N6BzWmlDllA
H: 	1080
W: 	1920
FPS: 	25.0

FRAME INDEX X0 Y0 W H [Landmarks (5 Points)]

00019645 00000000 708.14 162.15 401.10 515.78 819.54 356.15 972.96 342.63 906.54 441.06 858.59 531.90 985.64 519.30
00019646 00000001 696.50 149.17 405.23 518.34 807.50 356.81 967.98 344.70 892.84 443.64 844.36 528.49 977.50 518.33
00019647 00000002 695.49 147.07 403.25 519.84 803.24 355.90 962.03 342.93 885.65 441.16 842.22 528.84 973.21 518.09
00019648 00000003 693.02 146.12 404.15 520.59 800.55 354.61 959.71 341.97 882.67 440.97 840.32 528.56 971.62 517.95
00019649 00000004 692.57 145.82 404.86 522.70 801.25 355.57 961.34 343.56 884.14 441.61 840.41 529.74 972.37 519.70
00019650 00000005 693.77 143.84 405.64 526.82 803.40 357.52 964.90 344.87 888.10 442.12 842.85 532.50 975.22 522.02
00019651 00000006 701.86 154.98 401.80 517.75 806.48 352.67 963.33 340.82 890.54 438.85 848.70 531.44 972.36 520.95
00019652 00000007 703.62 158.50 401.60 516.04 810.27 353.05 966.00 341.91 894.47 439.87 852.12 533.67 973.58 523.58
00019653 00000008 706.09 164.52 399.70 512.80 815.96 353.55 970.53 342.94 901.40 440.43 855.36 535.12 977.02 525.64
00019654 00000009 711.66 168.95 395.44 511.87 823.78 353.09 976.84 341.87 908.94 441.79 860.33 535.43 981.17 525.23
00019655 00000010 717.89 170.06 392.04 513.64 832.67 356.08 986.99 342.27 920.73 444.44 866.81 538.88 991.30 526.58
00019656 00000011 726.89 166.76 386.87 522.92 841.83 358.12 996.58 342.53 935.73 443.09 877.37 542.35 1006.79 528.33
00019657 00000012 730.57 170.54 387.38 522.28 850.57 358.94 1007.55 343.59 951.15 445.37 885.50 543.04 1020.79 528.93
00019658 00000013 734.77 171.32 387.60 524.04 860.03 360.75 1014.99 344.24 967.12 446.10 895.37 544.08 1031.48 529.23
00019659 00000014 745.75 168.71 382.46 525.24 871.73 360.67 1027.99 346.06 983.62 443.40 905.07 542.31 1044.54 529.54
00019660 00000015 754.78 173.54 376.94 515.31 888.18 363.51 1042.20 345.20 1001.65 440.73 921.10 542.22 1058.49 526.87
00019661 DELETE   760.76 172.47 380.99 511.85 908.37 355.80 1060.53 344.47 1014.15 448.28 941.86 536.23 1069.80 525.67
00019662 00000017 765.31 168.01 382.17 516.50 921.99 355.51 1074.09 342.84 1035.15 450.93 955.73 537.78 1082.33 526.91
00019663 DELETE   775.30 171.46 375.81 509.62 931.02 359.87 1081.98 345.29 1048.78 452.31 965.54 540.30 1090.28 528.97
00019664 DELETE   784.32 171.07 372.72 507.21 939.24 360.19 1090.88 344.94 1059.41 449.50 975.46 540.55 1098.28 528.64
00019665 00000020 792.87 167.46 370.16 509.05 945.02 358.92 1099.72 346.09 1068.00 444.87 980.21 539.21 1107.21 528.98
00019666 00000021 803.81 171.02 364.59 498.68 952.65 360.86 1107.91 344.64 1077.09 441.70 987.99 537.32 1118.16 523.99
00019667 00000022 812.56 167.19 361.87 499.46 965.47 361.77 1119.52 342.53 1093.24 436.66 998.53 537.97 1128.35 522.39
00019668 00000023 821.61 165.21 357.56 499.15 978.47 356.82 1125.85 341.68 1103.35 432.23 1006.95 532.87 1132.34 520.70
00019669 00000024 828.87 167.07 358.40 497.73 989.33 351.88 1134.49 338.70 1113.45 430.39 1017.21 531.17 1139.23 519.78
00019670 00000025 833.29 173.16 359.99 487.86 998.73 352.49 1142.57 342.36 1119.45 437.48 1024.31 526.32 1143.37 519.38
00019671 00000026 831.78 158.26 362.25 499.13 1004.36 355.64 1149.91 343.93 1131.23 436.27 1041.49 525.32 1157.07 515.91
00019672 00000027 839.70 160.69 362.73 491.53 1012.22 350.89 1154.27 339.02 1136.54 435.04 1042.56 524.46 1159.05 515.89
00019673 00000028 840.30 154.89 361.76 501.18 1012.77 357.43 1158.83 347.91 1141.26 436.40 1048.71 525.36 1164.28 517.51
00019674 00000029 843.74 160.23 361.16 499.50 1018.97 357.46 1161.70 350.23 1146.94 435.56 1053.88 525.12 1168.60 519.05
00019675 00000030 852.11 168.07 364.68 494.75 1021.33 351.87 1166.13 345.92 1145.86 437.23 1055.14 527.63 1170.36 523.98
00019676 00000031 857.03 172.89 363.38 491.36 1019.14 353.13 1169.24 346.94 1143.60 440.56 1054.18 530.38 1174.10 526.40
00019677 00000032 858.07 176.83 362.58 487.49 1020.64 353.32 1170.12 347.98 1143.75 441.69 1054.74 531.37 1173.23 528.01
00019678 00000033 858.57 178.68 363.71 484.40 1019.62 353.45 1171.69 348.57 1142.85 443.11 1053.11 532.06 1172.80 528.95
00019679 00000034 858.19 176.66 364.30 488.40 1019.94 353.91 1171.25 348.94 1142.14 444.91 1052.95 533.32 1172.09 530.05
00019680 00000035 856.75 175.90 363.84 490.84 1017.48 355.52 1168.99 350.48 1139.27 447.35 1051.06 534.96 1170.49 531.57
00019681 00000036 849.73 173.69 367.30 500.63 1013.27 357.78 1161.52 350.82 1132.32 449.89 1045.19 536.37 1163.26 531.45
00019682 00000037 837.67 170.22 375.25 511.50 1003.46 359.06 1151.96 350.59 1119.08 454.02 1031.17 537.64 1154.35 531.24
00019683 00000038 830.37 173.64 372.27 507.79 984.39 362.95 1133.91 354.74 1095.92 458.75 1011.92 538.98 1134.93 532.24
00019684 DELETE   819.20 179.94 375.59 514.76 954.17 373.76 1110.38 362.25 1065.90 455.21 984.09 550.26 1121.50 539.93
00019685 DELETE   796.66 178.23 389.20 526.14 931.78 374.71 1086.74 364.93 1034.92 468.24 963.77 557.23 1097.35 547.89
00019686 DELETE   780.05 176.53 394.48 526.99 912.42 374.95 1063.30 362.33 1005.22 474.72 942.49 556.06 1071.33 544.72
00019687 00000042 766.89 183.37 400.00 513.10 888.60 377.63 1050.13 367.27 983.72 468.68 924.98 554.20 1055.45 545.20
00019688 00000043 758.06 182.65 398.31 516.10 867.34 377.33 1031.73 368.80 959.64 471.07 902.46 553.31 1036.76 546.20
00019689 00000044 737.97 181.42 408.02 517.66 849.33 383.72 1008.06 367.10 945.67 474.51 891.12 557.98 1027.47 542.70
00019690 00000045 731.97 183.97 405.24 513.72 843.22 384.14 998.28 366.23 936.10 472.33 883.89 558.70 1016.09 542.31
00019691 00000046 726.29 183.85 400.60 510.66 839.03 379.72 992.15 361.62 929.59 469.68 880.49 557.49 1005.19 541.26
00019692 00000047 726.49 185.73 394.61 505.75 834.49 378.72 987.15 360.45 923.33 466.61 877.47 556.87 999.63 540.84
00019693 00000048 721.29 182.56 395.13 506.94 831.43 377.15 984.61 359.59 919.86 465.99 874.07 556.77 993.64 541.52
00019694 00000049 719.51 180.80 395.53 513.28 832.46 376.16 983.35 359.13 918.65 466.68 873.78 557.54 992.42 542.62
00019695 00000050 720.52 181.63 393.46 513.63 836.71 374.70 985.91 357.93 923.41 466.35 877.25 557.86 994.13 543.16
00019696 00000051 722.77 177.62 394.68 522.70 843.57 374.34 994.23 356.70 935.70 469.78 880.47 557.51 1006.72 541.77
00019697 00000052 728.26 178.26 394.28 519.58 854.14 374.81 1010.31 355.12 958.00 462.39 893.96 555.73 1027.41 537.89
00019698 00000053 742.10 175.22 385.00 515.12 869.68 370.86 1027.18 350.83 981.33 449.01 908.19 548.52 1043.67 531.13
00019699 00000054 754.81 173.39 374.23 506.97 891.94 369.64 1042.52 344.75 1007.21 442.11 928.24 543.26 1059.45 522.99
00019700 00000055 759.92 159.67 371.27 518.62 906.84 365.29 1060.46 344.52 1024.64 451.49 949.13 542.09 1076.71 525.44
00019701 00000056 769.58 163.85 377.04 511.47 926.49 359.32 1075.67 338.42 1044.75 447.19 968.72 540.58 1087.60 523.86
00019702 00000057 779.20 165.46 371.59 512.05 936.98 359.02 1082.58 342.52 1055.07 439.91 979.86 544.42 1090.75 531.00
00019703 00000058 788.38 166.49 368.34 516.74 946.26 359.44 1090.17 345.39 1067.16 434.17 989.23 544.91 1101.87 532.99
00019704 00000059 801.40 161.24 362.37 513.67 957.33 360.37 1101.07 339.54 1084.00 429.46 1005.04 544.73 1119.23 527.23
00019705 00000060 813.93 159.90 355.91 504.90 970.56 361.51 1113.33 338.18 1098.59 427.30 1014.79 540.53 1130.23 520.94
00019706 00000061 820.33 166.75 354.25 488.00 987.02 360.03 1122.04 337.40 1113.35 430.36 1027.68 531.15 1137.10 515.23
00019707 00000062 826.19 168.28 352.23 486.84 992.05 359.62 1128.25 337.92 1117.77 431.39 1030.75 531.89 1141.23 516.32
00019708 00000063 828.09 166.76 354.20 490.35 995.11 359.47 1132.70 337.79 1119.95 434.34 1032.50 533.00 1143.48 517.18
00019709 00000064 835.39 178.44 356.15 485.22 998.28 361.03 1139.13 343.34 1119.51 444.55 1036.53 536.39 1144.55 522.92
00019710 00000065 833.80 175.92 357.46 480.66 999.81 365.58 1137.28 344.80 1122.95 441.90 1039.69 532.41 1153.80 516.51
00019711 00000066 832.77 182.70 361.74 488.37 1003.09 369.64 1142.18 356.37 1123.93 453.71 1040.46 543.65 1148.28 534.17
00019712 00000067 829.32 184.07 361.27 499.75 994.08 384.30 1138.02 362.39 1119.11 456.50 1020.71 555.81 1142.80 539.17
00019713 00000068 826.44 191.74 363.16 500.94 985.57 389.11 1132.51 365.90 1108.84 463.54 1014.47 562.91 1139.48 544.96
00019714 00000069 824.04 200.35 361.76 493.19 976.69 394.66 1127.29 367.36 1099.22 473.09 1007.99 567.21 1136.81 546.30
00019715 00000070 825.41 205.11 359.00 495.83 979.14 401.66 1129.24 373.84 1103.59 481.02 1009.39 572.75 1139.40 551.43
00019716 00000071 827.96 217.39 356.21 497.88 984.72 408.00 1133.65 384.81 1107.90 492.26 1011.53 584.71 1138.99 566.89
00019717 00000072 827.25 228.11 358.76 496.34 987.60 411.77 1133.36 389.35 1111.19 497.59 1012.37 589.38 1139.01 571.94
00019718 00000073 821.67 223.48 362.27 495.79 980.70 411.50 1129.90 387.13 1101.18 503.69 1017.73 585.26 1138.02 566.27
00019719 00000074 824.45 225.39 358.89 484.25 985.95 411.91 1129.95 386.49 1106.21 500.05 1014.57 583.85 1135.51 564.50
00019720 00000075 823.60 228.29 358.74 495.19 984.23 409.64 1129.13 388.20 1107.20 494.86 1008.56 586.34 1135.01 569.74
00019721 00000076 821.01 228.93 359.36 493.33 983.93 413.01 1129.68 390.64 1108.03 497.59 1009.18 589.38 1133.75 571.80
00019722 00000077 819.06 229.83 361.42 496.99 982.24 416.56 1129.66 392.89 1108.50 501.61 1008.01 592.92 1133.99 574.11
00019723 00000078 823.05 233.21 359.59 497.34 977.01 420.67 1125.09 391.17 1104.02 508.47 1003.47 599.41 1130.33 576.09
00019724 00000079 820.14 242.54 362.17 494.98 971.41 426.61 1121.85 398.86 1096.92 514.57 1001.01 606.69 1128.57 584.67
00019725 00000080 821.69 244.85 360.16 496.17 970.77 427.35 1121.93 401.01 1095.74 517.97 998.60 607.66 1128.65 586.83
00019726 00000081 820.28 244.37 360.05 498.65 970.37 427.12 1121.03 400.83 1095.24 517.75 997.98 608.51 1127.33 587.67
00019727 00000082 818.34 240.78 360.72 503.48 968.98 424.90 1119.80 398.58 1094.81 515.07 997.42 608.66 1126.55 587.75
00019728 00000083 816.84 240.05 361.96 505.44 968.34 422.62 1117.84 396.43 1095.20 512.87 995.98 606.84 1126.36 586.21
00019729 00000084 815.09 238.74 361.19 502.94 966.52 420.97 1116.66 393.42 1093.52 511.55 995.52 604.45 1125.52 582.70
00019730 00000085 812.62 232.59 361.10 505.59 964.22 419.82 1113.85 392.73 1089.88 510.77 991.89 601.39 1122.80 580.09
00019731 00000086 811.63 232.26 360.42 499.08 962.15 418.97 1112.00 389.08 1088.70 509.72 989.63 597.41 1121.41 574.07
00019732 00000087 810.28 230.15 359.86 496.57 961.18 418.01 1110.93 388.38 1087.54 509.35 986.47 594.76 1117.47 571.94
00019733 00000088 803.89 230.23 364.08 499.43 962.86 418.54 1111.09 394.98 1087.26 511.16 988.93 593.39 1114.42 574.86
00019734 00000089 804.86 229.88 363.39 498.64 953.73 417.64 1106.18 388.60 1079.59 512.39 979.89 595.14 1112.15 572.72
00019735 00000090 798.07 229.42 367.32 503.24 945.69 418.46 1100.92 393.18 1069.84 515.32 975.64 597.80 1107.47 578.04
00019736 00000091 786.70 231.30 376.24 515.19 935.33 419.28 1089.32 401.33 1050.69 521.96 964.27 601.27 1095.86 587.02
00019737 00000092 765.72 233.00 392.28 513.50 914.36 415.36 1070.59 401.58 1022.45 522.97 946.67 598.48 1077.12 586.10
00019738 DELETE   752.98 229.54 399.75 517.36 882.58 414.05 1043.26 403.82 985.11 521.12 921.24 597.99 1053.24 587.83
00019739 DELETE   739.52 226.82 394.13 522.32 856.94 420.46 1015.84 399.37 963.93 522.14 895.86 602.81 1034.14 584.23
00019740 DELETE   722.28 215.32 401.44 521.40 834.98 413.88 994.83 393.30 933.82 518.25 876.34 597.38 1005.91 578.65
00019741 00000096 706.98 216.04 409.99 510.52 821.23 414.89 979.00 400.24 910.33 516.98 864.72 593.38 989.16 581.10
00019742 00000097 705.63 211.00 404.63 510.40 809.27 414.47 966.91 403.10 891.32 512.69 851.24 587.83 980.13 578.39
00019743 00000098 699.88 209.88 403.66 511.80 801.76 415.34 958.46 404.23 880.63 513.12 844.34 588.80 972.21 579.60
00019744 00000099 694.00 211.70 404.66 512.73 795.05 417.44 952.31 404.70 874.10 518.21 841.86 593.24 967.12 582.57
00019745 00000100 688.01 214.75 405.78 512.59 787.73 424.87 945.34 409.09 866.46 520.48 836.70 597.01 961.39 583.46
00019746 00000101 686.37 214.56 402.13 513.63 781.65 428.02 937.87 412.66 856.07 524.39 828.58 598.84 952.40 585.92
00019747 00000102 681.93 208.19 399.53 519.63 767.89 432.14 924.85 416.62 852.33 530.21 821.07 604.28 943.08 589.79
00019748 00000103 675.14 219.57 400.55 512.35 762.84 432.37 918.57 419.25 845.67 535.40 815.75 605.22 938.44 592.14
00019749 00000104 671.85 218.96 400.27 513.02 758.78 437.12 914.93 421.02 842.12 538.21 813.54 609.29 937.24 594.03
00019750 00000105 669.00 223.12 398.86 511.48 755.14 438.54 912.06 422.28 838.39 542.90 811.45 612.08 936.06 596.39
00019751 00000106 666.39 240.49 398.56 496.80 750.48 447.04 901.27 423.35 829.49 542.89 805.65 622.02 923.01 601.49
00019752 00000107 661.85 243.17 398.59 498.40 745.72 454.83 897.84 431.61 825.46 550.94 803.76 632.02 920.03 611.52
00019753 00000108 660.46 253.00 397.64 498.94 743.84 465.14 892.62 442.02 820.86 561.26 801.93 638.73 920.50 618.53
00019754 00000109 658.22 254.24 398.22 500.11 738.38 468.87 886.13 446.39 813.30 566.10 796.19 640.38 917.87 620.66
00019755 00000110 655.20 255.91 397.19 500.45 731.46 469.01 878.80 447.29 805.20 569.02 789.13 641.10 912.74 622.35
00019756 00000111 655.81 255.93 391.01 500.39 725.99 465.38 873.07 443.92 798.01 567.41 782.04 641.28 905.45 622.92
00019757 00000112 654.83 260.64 388.50 495.52 723.31 464.64 870.32 443.97 793.63 566.38 777.64 641.38 900.25 623.92
00019758 00000113 652.75 259.31 390.71 498.90 721.12 464.94 869.00 445.82 791.10 568.70 775.95 641.79 899.05 625.46
00019759 00000114 649.52 257.49 392.12 501.05 719.31 465.31 866.75 447.05 789.29 571.21 774.75 642.02 897.54 626.21
00019760 00000115 649.41 258.26 391.41 501.57 718.73 465.07 866.31 447.18 788.26 571.46 772.81 641.75 896.76 626.32
00019761 00000116 649.55 258.72 390.19 499.86 718.74 464.80 866.47 447.16 788.14 570.82 771.73 641.24 895.30 626.15
00019762 00000117 649.60 258.64 390.83 499.99 718.80 464.52 867.33 447.11 788.51 571.46 772.08 641.48 896.06 626.54
00019763 00000118 649.53 257.55 391.82 500.91 719.28 465.04 868.24 447.29 789.90 571.67 773.52 641.60 897.84 626.24
00019764 00000119 651.23 259.60 391.35 498.90 722.07 465.30 869.79 447.46 792.34 570.54 776.54 641.86 899.51 626.45
00019765 00000120 652.15 259.35 391.53 500.79 723.25 464.68 868.99 445.62 792.54 568.24 778.50 641.88 899.24 625.62
00019766 00000121 652.33 259.18 391.25 501.68 724.16 463.41 869.53 444.55 793.58 568.54 779.66 641.98 899.46 625.97
00019767 00000122 652.06 261.90 390.90 496.11 724.46 463.35 871.55 443.85 795.77 567.27 780.08 640.47 902.54 623.94
00019768 00000123 651.91 259.32 389.51 495.54 723.97 462.56 870.85 442.73 795.09 566.32 778.17 639.21 900.16 622.51
00019769 00000124 649.49 258.11 391.97 499.29 720.47 461.50 868.07 442.28 790.60 565.55 774.60 638.53 897.44 622.23
00019770 00000125 649.83 257.80 388.65 501.76 718.49 462.46 864.59 443.66 785.98 563.87 769.86 638.38 891.95 622.60
00019771 00000126 648.23 254.90 386.57 501.24 715.08 461.05 860.12 443.08 780.37 563.51 766.15 638.67 883.86 623.79
00019772 00000127 647.15 250.46 386.80 502.77 712.59 460.42 858.18 443.04 777.01 561.65 762.54 637.56 881.74 623.24
00019773 00000128 645.69 250.23 388.14 501.47 711.09 458.74 857.24 441.76 774.77 560.08 761.60 636.15 880.06 622.16
00019774 00000129 645.33 250.48 388.91 500.96 709.95 457.59 856.07 440.28 773.26 558.17 760.57 635.92 877.70 621.78
00019775 00000130 645.00 251.77 388.21 498.37 709.77 456.98 856.24 440.27 773.00 556.89 759.09 634.45 876.21 620.89
00019776 00000131 650.03 246.61 389.89 493.10 706.62 456.33 857.93 438.39 770.58 557.90 759.50 625.24 879.73 607.37
00019777 00000132 649.42 242.37 390.74 495.97 705.52 454.52 857.05 436.56 769.90 555.56 757.88 624.00 878.19 606.27
00019778 00000133 642.51 249.14 391.17 492.55 705.57 451.67 855.51 434.07 769.15 550.02 752.46 628.10 871.44 613.59
00019779 00000134 644.33 246.86 388.70 491.08 705.62 449.98 854.70 431.21 768.96 545.15 752.81 625.32 871.61 609.79
00019780 00000135 650.49 241.12 389.15 489.83 705.17 450.56 856.59 429.89 770.58 545.52 758.10 619.86 879.05 600.37
00019781 00000136 648.97 242.52 389.67 488.80 704.15 450.08 853.94 429.69 768.49 546.18 757.10 619.63 876.82 600.28
00019782 00000137 646.64 242.20 388.99 494.94 702.36 450.84 849.36 430.10 764.43 547.13 759.32 623.68 873.05 603.73
00019783 00000138 643.61 244.86 384.24 492.90 699.81 446.68 840.50 430.30 756.01 546.01 755.38 621.93 862.06 605.45
00019784 00000139 635.06 238.56 386.79 500.68 693.60 444.03 833.47 430.07 745.26 541.23 748.52 620.90 851.45 606.67
00019785 00000140 628.32 231.31 384.71 505.84 688.33 441.37 825.95 428.91 735.85 539.87 744.48 617.13 846.11 604.20
00019786 00000141 624.11 234.67 381.64 497.35 681.79 439.14 821.26 426.68 728.07 536.50 736.85 613.61 841.23 601.09
00019787 00000142 621.62 224.99 382.97 501.35 681.12 437.35 819.32 424.63 729.06 532.63 736.50 609.55 839.95 597.11
00019788 00000143 621.11 221.23 383.48 501.91 681.89 434.76 819.09 423.17 730.15 531.00 738.22 606.47 840.70 594.94
00019789 00000144 619.44 219.20 384.37 506.12 681.25 432.31 816.96 421.49 727.25 528.61 735.06 603.51 838.55 592.53
00019790 00000145 618.09 219.16 383.79 502.98 678.18 433.18 815.61 420.92 726.06 528.50 732.68 603.65 836.44 591.93
00019791 00000146 617.06 217.43 382.95 502.44 675.77 434.29 814.38 421.98 724.46 529.67 729.38 603.55 833.27 592.18
00019792 00000147 614.95 223.94 384.44 501.43 670.37 441.46 805.73 428.94 717.41 527.87 726.44 602.11 828.71 589.71
00019793 00000148 613.15 223.70 384.05 503.44 668.31 443.07 802.51 429.76 714.96 528.44 725.71 604.72 824.98 591.62
00019794 00000149 612.52 226.71 380.47 499.32 666.39 443.98 798.03 430.21 711.98 528.69 723.47 605.66 821.32 592.05
00019795 00000150 611.41 231.83 377.02 491.83 663.23 447.33 790.46 429.96 705.30 529.40 719.05 608.86 814.59 592.35
00019796 00000151 609.31 232.50 374.75 487.81 660.00 448.61 783.47 430.52 698.59 529.63 715.22 610.06 808.15 592.94
00019797 00000152 608.25 231.82 373.24 487.91 658.59 446.83 781.55 429.52 696.73 528.63 713.16 608.51 805.20 592.13
00019798 00000153 607.76 228.97 375.85 492.27 659.17 447.06 782.43 429.28 697.59 528.66 715.04 609.50 804.79 592.83
00019799 00000154 609.47 229.45 379.98 492.24 660.55 449.40 786.81 429.67 702.45 528.36 716.49 611.07 805.09 592.89
00019800 00000155 612.22 226.90 381.53 497.34 665.08 448.19 795.39 432.82 710.15 532.18 721.65 609.76 814.11 595.10
00019801 00000156 611.77 227.24 386.14 501.75 667.00 449.72 801.71 433.15 716.83 534.45 728.54 610.72 825.61 594.62
00019802 00000157 615.52 228.78 381.80 504.65 674.80 442.78 812.72 428.54 724.98 541.40 734.09 614.94 837.56 601.42
00019803 00000158 616.83 231.41 381.91 507.87 676.04 445.06 814.01 429.84 725.83 544.62 736.03 619.90 839.96 605.31
00019804 00000159 617.41 236.88 380.75 504.75 676.18 446.08 812.98 431.78 724.29 547.52 736.42 620.50 840.86 606.23
00019805 00000160 617.28 237.82 381.56 504.89 675.68 446.72 813.13 431.67 724.37 549.31 737.07 621.60 842.98 606.47
00019806 00000161 611.78 234.71 388.18 513.24 669.99 452.48 817.00 426.55 725.65 547.91 732.86 630.47 845.98 608.35
00019807 00000162 619.82 241.07 384.09 505.58 678.79 447.17 816.86 431.50 728.14 550.99 740.39 623.71 847.37 607.68
00019808 00000163 615.92 243.95 389.91 508.36 675.10 454.53 823.37 430.71 730.30 552.51 736.56 635.15 850.08 614.66
00019809 00000164 625.00 243.18 384.71 510.61 683.92 450.19 821.76 431.93 733.02 553.30 748.50 630.58 855.24 611.78
00019810 00000165 628.13 246.12 384.27 508.52 685.79 451.30 822.65 432.49 734.40 553.78 750.18 632.07 856.39 612.80
00019811 00000166 628.93 245.00 383.77 509.20 687.47 450.36 823.92 432.69 736.20 553.38 750.85 630.49 856.97 612.23
00019812 00000167 631.18 245.95 383.20 507.07 689.39 448.78 824.91 432.32 737.61 551.42 751.23 628.35 856.89 611.03
00019813 00000168 631.87 247.88 382.11 502.10 690.29 447.62 826.22 431.46 739.15 550.64 752.63 626.16 858.16 608.93
