Video ID: 	LMPAQRSR2SY
H: 	2160
W: 	3840
FPS: 	25.0

FRAME INDEX X0 Y0 W H [Landmarks (5 Points)]

00001219 00000000 2226.85 486.28 561.07 756.66 2375.97 783.70 2613.48 771.38 2499.65 936.11 2420.02 1063.42 2609.27 1050.57
00001220 DELETE   2228.48 481.03 560.98 745.77 2377.24 774.55 2614.30 763.25 2500.90 931.45 2411.70 1047.76 2607.98 1038.23
00001221 DELETE   2230.99 465.66 564.66 762.14 2379.08 764.52 2617.83 759.33 2496.66 924.25 2401.01 1033.66 2609.79 1028.98
00001222 DELETE   2234.86 457.20 562.65 769.26 2378.30 755.24 2618.22 756.05 2489.41 913.30 2393.16 1028.78 2601.22 1029.60
00001223 00000004 2238.20 455.09 562.28 772.24 2380.66 750.67 2619.12 755.29 2486.55 905.32 2394.31 1025.67 2594.94 1030.18
00001224 DELETE   2239.54 447.41 564.37 776.51 2386.50 744.25 2614.80 751.99 2482.69 899.70 2397.70 1022.24 2581.07 1029.78
00001225 00000006 2245.78 434.69 561.94 791.04 2388.48 738.12 2613.38 746.93 2478.16 890.95 2399.25 1021.73 2574.01 1030.70
00001226 00000007 2248.04 425.42 564.91 793.96 2389.92 731.76 2613.64 744.64 2475.38 886.90 2397.14 1015.05 2574.15 1027.34
00001227 00000008 2249.57 426.36 567.39 783.15 2388.42 725.75 2615.95 742.21 2473.36 882.15 2390.30 1004.63 2578.47 1019.75
00001228 00000009 2250.08 418.47 568.78 784.91 2387.10 718.37 2615.40 739.28 2468.52 877.44 2383.43 998.04 2572.89 1016.79
00001229 00000010 2250.87 415.12 567.76 780.77 2385.93 712.14 2616.31 735.32 2467.12 873.20 2379.91 993.12 2573.22 1013.69
00001230 00000011 2251.10 414.20 564.24 779.69 2383.89 710.20 2614.80 731.93 2466.08 870.52 2377.73 989.47 2575.67 1008.76
00001231 00000012 2250.53 410.53 563.84 783.67 2382.24 708.65 2613.82 730.05 2464.43 865.91 2376.53 983.57 2577.72 1002.66
00001232 00000013 2248.87 412.58 561.49 785.08 2379.94 705.93 2611.39 725.20 2462.21 860.06 2373.94 978.46 2581.10 995.84
00001233 00000014 2249.01 416.02 561.65 774.37 2374.01 706.73 2609.95 718.56 2466.51 861.02 2378.54 975.05 2580.12 987.51
00001234 00000015 2244.76 414.74 559.50 758.27 2371.13 703.13 2607.01 715.12 2464.70 856.86 2375.73 968.06 2581.33 980.07
00001235 00000016 2241.42 408.31 551.25 754.04 2366.74 695.60 2601.80 711.39 2456.54 847.91 2366.04 960.93 2578.43 975.25
00001236 00000017 2241.90 408.12 552.41 747.70 2366.72 692.09 2602.17 709.25 2455.37 843.88 2363.43 953.38 2579.38 968.68
00001237 00000018 2246.55 403.12 550.16 748.74 2368.36 689.59 2604.20 708.12 2455.64 840.06 2364.27 947.59 2581.66 963.96
00001238 00000019 2252.68 403.08 548.14 742.70 2372.29 687.00 2608.01 706.89 2459.02 834.93 2367.47 942.12 2583.57 959.55
00001239 00000020 2254.82 404.15 552.28 738.09 2381.99 681.25 2613.35 704.03 2464.41 833.19 2371.72 939.15 2580.95 959.66
00001240 00000021 2261.54 406.40 553.05 733.78 2387.56 679.78 2620.50 702.63 2469.06 830.39 2375.33 938.12 2587.68 958.88
00001241 00000022 2272.88 406.17 553.12 736.49 2396.08 677.49 2629.17 702.10 2472.44 827.46 2381.77 936.51 2593.84 958.65
00001242 00000023 2283.82 404.07 552.13 734.76 2404.34 677.77 2636.72 699.86 2481.21 823.98 2394.26 934.80 2604.47 954.71
00001243 00000024 2294.61 409.18 546.40 723.39 2412.89 672.69 2643.46 693.45 2490.78 821.04 2406.19 933.32 2614.40 951.76
00001244 00000025 2302.36 408.44 540.54 719.98 2420.38 670.76 2652.98 690.07 2502.13 816.89 2413.92 931.63 2626.44 948.86
00001245 00000026 2309.89 406.79 536.18 717.04 2426.65 668.09 2660.20 686.51 2511.91 813.91 2420.19 929.44 2636.24 946.09
00001246 00000027 2315.71 407.60 538.27 713.57 2436.57 664.82 2666.91 684.10 2517.74 809.71 2429.06 925.37 2632.81 943.23
00001247 00000028 2319.83 402.92 541.48 715.21 2441.64 659.24 2674.50 680.52 2522.25 803.85 2430.23 919.25 2642.47 938.52
00001248 00000029 2325.10 402.22 540.24 715.93 2452.19 659.56 2680.46 683.89 2529.53 798.20 2434.88 914.44 2648.26 936.51
00001249 00000030 2330.26 401.16 540.82 714.94 2460.39 663.33 2686.20 688.38 2536.81 792.10 2441.74 908.52 2649.31 931.64
00001250 00000031 2335.91 382.68 543.83 730.07 2466.35 652.95 2693.75 682.28 2538.27 782.97 2444.27 902.00 2649.34 928.98
00001251 00000032 2339.43 375.42 545.22 737.44 2470.09 647.91 2694.70 677.46 2541.86 776.69 2450.62 901.88 2648.39 928.99
00001252 00000033 2342.73 376.35 541.45 728.58 2472.63 643.95 2697.28 671.49 2546.71 774.69 2452.79 898.38 2650.54 923.42
00001253 00000034 2343.82 368.08 544.40 729.09 2474.20 640.47 2697.59 668.39 2548.08 771.32 2456.44 891.86 2650.34 917.39
00001254 00000035 2343.23 365.93 547.00 723.19 2474.65 637.84 2701.61 668.01 2550.18 768.99 2454.41 887.18 2651.14 914.85
00001255 00000036 2342.57 362.54 548.41 723.67 2473.61 636.17 2702.24 667.51 2549.23 768.45 2453.37 884.72 2652.26 913.36
00001256 00000037 2341.65 363.90 548.17 725.34 2472.62 634.92 2700.28 666.12 2547.45 768.31 2453.16 885.00 2648.70 913.46
00001257 00000038 2339.37 362.64 550.70 730.36 2471.08 635.28 2699.67 665.76 2546.99 768.00 2452.86 886.18 2648.93 913.97
00001258 00000039 2338.13 366.66 551.19 728.55 2470.07 635.44 2698.28 665.64 2546.08 767.76 2452.65 886.95 2648.40 914.33
00001259 00000040 2335.56 362.75 551.96 732.77 2468.58 635.91 2697.53 665.20 2545.73 767.73 2452.40 887.51 2648.18 914.21
00001260 00000041 2334.35 368.55 550.68 727.97 2468.10 637.13 2697.33 665.34 2546.09 769.62 2452.28 889.10 2650.37 914.46
00001261 00000042 2333.26 372.45 551.49 726.56 2466.77 639.05 2696.93 666.18 2544.46 772.01 2450.95 890.47 2651.52 914.72
00001262 00000043 2332.02 366.62 551.54 732.96 2465.35 640.84 2696.98 668.44 2542.70 773.39 2449.49 891.84 2650.97 916.80
00001263 00000044 2330.75 373.83 551.52 727.79 2465.33 642.05 2696.11 669.02 2543.13 774.85 2449.82 893.16 2650.51 917.30
00001264 00000045 2329.17 372.66 551.91 729.29 2465.23 643.22 2696.44 669.78 2543.71 777.10 2449.97 894.22 2652.36 917.78
00001265 00000046 2329.54 374.05 549.80 727.13 2464.69 643.01 2696.15 669.49 2543.52 778.43 2449.96 894.74 2652.51 918.08
00001266 00000047 2329.37 372.44 549.77 728.25 2464.03 643.73 2695.85 670.20 2542.99 779.12 2449.42 895.13 2651.95 918.56
00001267 00000048 2329.51 373.00 549.57 726.71 2463.76 643.50 2695.29 670.10 2542.92 779.47 2449.05 895.69 2651.00 919.27
00001268 00000049 2328.51 374.65 550.61 726.20 2463.66 643.44 2694.91 670.33 2542.77 779.49 2448.84 896.61 2650.36 920.42
00001269 00000050 2327.62 377.09 551.27 725.86 2463.15 643.87 2694.09 669.99 2542.16 778.96 2449.28 898.41 2649.27 921.60
00001270 00000051 2327.55 378.70 550.11 724.34 2463.03 644.54 2694.17 670.26 2542.59 780.44 2449.39 898.51 2650.43 921.19
00001271 00000052 2327.08 374.34 550.47 729.18 2462.15 644.64 2694.28 671.21 2540.86 781.45 2446.74 898.95 2650.01 922.51
00001272 00000053 2326.15 376.42 551.28 727.89 2460.22 645.04 2693.19 671.81 2538.17 781.84 2444.07 899.32 2648.82 923.12
00001273 00000054 2326.37 376.86 550.33 726.56 2460.22 645.44 2692.28 672.50 2537.46 781.72 2444.36 900.13 2646.36 924.31
00001274 00000055 2326.24 379.00 550.40 725.59 2459.99 645.11 2692.15 671.62 2537.04 781.03 2444.75 901.44 2646.39 925.12
00001275 00000056 2326.51 379.95 549.50 724.51 2460.04 644.84 2692.48 671.01 2537.66 780.56 2445.40 902.12 2645.32 925.57
00001276 00000057 2326.29 374.56 550.58 729.68 2459.94 644.48 2693.19 670.12 2538.73 779.75 2446.41 902.73 2645.87 925.95
00001277 00000058 2325.67 373.52 551.99 733.94 2459.30 644.58 2692.79 669.49 2537.64 777.25 2446.75 904.26 2645.53 927.13
00001278 00000059 2325.76 373.25 552.48 737.31 2461.68 643.14 2692.51 668.23 2540.42 774.08 2451.24 905.12 2641.48 928.03
00001279 00000060 2326.00 370.99 551.33 742.30 2459.90 642.60 2693.12 668.12 2538.99 776.13 2445.77 906.28 2643.72 929.48
00001280 00000061 2327.45 372.88 549.78 735.06 2461.17 643.18 2693.87 668.21 2539.98 775.14 2447.40 900.99 2646.82 923.70
00001281 00000062 2328.96 376.44 547.51 724.40 2460.33 643.04 2693.05 667.28 2537.99 775.45 2445.94 894.70 2650.99 916.43
00001282 00000063 2329.07 376.55 547.86 724.66 2459.43 642.46 2693.25 666.40 2536.48 773.17 2443.98 891.40 2653.38 912.87
00001283 00000064 2329.67 374.55 547.60 725.84 2459.13 642.33 2692.56 665.15 2536.23 772.20 2444.95 890.91 2653.85 911.50
00001284 00000065 2329.92 370.00 547.94 733.39 2459.79 641.71 2692.93 663.74 2536.99 769.82 2447.84 893.07 2654.50 913.33
00001285 00000066 2330.54 373.56 548.01 730.46 2461.16 640.97 2691.98 661.88 2539.56 767.40 2454.31 896.25 2651.95 915.56
00001286 00000067 2330.23 371.81 547.88 733.55 2461.00 639.11 2693.08 660.15 2541.06 764.96 2452.40 896.62 2651.57 916.02
00001287 00000068 2331.28 368.01 547.34 732.36 2461.15 637.35 2693.07 658.32 2542.72 761.99 2453.19 894.65 2650.57 914.35
00001288 00000069 2332.15 367.88 544.83 727.06 2460.29 636.17 2694.75 658.93 2542.01 761.58 2448.69 889.96 2652.89 911.11
00001289 00000070 2333.16 370.22 543.67 722.27 2459.83 636.07 2694.90 658.95 2541.25 761.75 2447.06 888.86 2653.37 910.10
00001290 00000071 2332.91 368.99 544.91 724.21 2459.46 636.50 2695.34 659.43 2540.36 762.01 2446.29 888.75 2654.03 910.14
00001291 00000072 2332.10 367.33 545.58 728.44 2459.39 637.79 2693.94 659.60 2540.08 763.98 2447.94 890.35 2653.98 910.67
00001292 00000073 2332.00 369.24 545.21 725.56 2458.19 639.29 2693.42 660.26 2538.77 766.45 2446.21 890.29 2655.84 909.75
00001293 00000074 2331.15 371.42 543.92 722.30 2456.71 640.27 2692.10 660.94 2537.09 768.07 2444.39 889.74 2656.80 908.81
00001294 00000075 2329.53 367.65 545.32 726.54 2455.81 640.78 2690.27 661.67 2535.25 770.78 2443.26 890.91 2654.28 910.13
00001295 00000076 2329.18 373.06 543.60 722.74 2455.11 641.53 2689.09 661.63 2533.54 771.49 2443.01 892.51 2653.92 910.89
00001296 00000077 2326.55 365.75 545.53 730.30 2452.59 642.01 2687.64 661.14 2532.98 771.62 2441.35 893.35 2653.95 911.16
00001297 00000078 2325.60 370.39 545.23 727.65 2451.37 641.14 2684.58 659.43 2531.08 770.33 2442.78 897.12 2651.29 914.18
00001298 00000079 2322.32 366.54 547.18 734.80 2450.14 640.38 2684.04 659.31 2529.89 769.55 2440.86 897.53 2647.75 915.32
00001299 00000080 2321.33 370.24 547.59 733.23 2449.22 640.86 2682.75 659.90 2528.55 769.59 2441.49 898.35 2645.29 916.05
00001300 00000081 2320.17 372.92 547.06 729.75 2448.03 640.80 2681.41 660.30 2527.13 771.09 2438.70 897.89 2644.45 915.82
00001301 00000082 2320.23 367.36 544.85 732.36 2447.07 640.59 2680.58 659.11 2526.72 770.77 2438.33 898.35 2643.78 915.67
00001302 00000083 2319.63 369.91 545.05 728.67 2446.36 640.78 2678.59 659.27 2525.45 770.01 2436.96 897.31 2642.08 914.68
00001303 00000084 2320.02 364.00 544.82 734.30 2446.34 639.75 2677.82 657.99 2525.80 769.81 2437.00 896.95 2641.95 914.25
00001304 00000085 2319.67 363.32 545.35 734.38 2446.01 639.46 2676.96 657.38 2525.60 768.98 2437.99 896.28 2641.38 913.28
00001305 00000086 2318.01 359.09 549.49 740.94 2442.74 640.05 2678.76 654.82 2535.17 769.61 2441.60 896.84 2639.11 913.09
00001306 00000087 2317.81 357.32 550.94 745.32 2443.32 639.26 2681.51 655.17 2536.37 769.39 2441.36 896.35 2640.00 913.72
00001307 00000088 2317.88 361.02 551.28 743.56 2443.99 638.62 2682.82 654.96 2536.91 769.25 2442.10 896.21 2641.63 913.86
00001308 00000089 2317.84 363.04 551.49 741.46 2444.70 638.93 2683.62 655.19 2538.24 769.08 2443.07 896.35 2642.43 913.97
00001309 00000090 2319.98 366.30 547.01 736.11 2449.75 637.83 2684.73 657.49 2531.52 768.18 2439.76 896.22 2646.64 914.40
00001310 00000091 2319.76 365.52 549.01 738.99 2450.66 638.52 2685.89 658.13 2532.43 767.67 2441.64 895.70 2647.51 913.84
00001311 00000092 2320.79 363.56 548.23 732.71 2449.55 639.40 2686.92 658.40 2532.47 768.35 2439.81 892.99 2651.64 910.84
00001312 00000093 2320.59 364.48 547.15 731.97 2448.89 639.58 2685.15 658.09 2531.60 769.47 2438.91 891.84 2651.20 909.16
00001313 00000094 2319.87 366.42 546.70 731.89 2446.94 641.94 2680.38 659.13 2527.77 768.55 2439.64 894.02 2647.04 910.50
00001314 00000095 2317.98 366.90 546.83 736.00 2445.22 641.60 2676.18 657.20 2524.37 767.10 2441.01 897.46 2640.86 912.63
00001315 00000096 2316.23 370.26 544.32 733.12 2443.06 643.00 2670.89 657.23 2522.81 766.49 2442.67 900.98 2632.70 915.12
00001316 00000097 2314.20 370.74 545.98 737.08 2433.63 646.75 2667.39 655.84 2525.08 769.77 2440.58 904.18 2626.90 915.89
00001317 00000098 2314.22 372.16 542.53 734.07 2427.98 644.84 2659.32 652.97 2515.25 765.32 2432.67 902.12 2618.26 913.07
00001318 00000099 2310.18 370.43 543.37 732.72 2424.65 643.29 2655.77 652.54 2510.57 760.36 2426.21 898.44 2612.31 910.54
00001319 00000100 2308.72 368.84 541.96 729.23 2421.56 641.91 2652.50 652.59 2503.78 757.60 2419.40 894.73 2606.47 908.09
00001320 00000101 2307.57 369.78 539.62 715.65 2417.54 641.71 2649.15 651.35 2498.95 757.39 2413.51 890.54 2606.72 902.88
00001321 00000102 2306.82 363.54 534.08 718.56 2414.31 638.52 2641.39 649.44 2489.22 762.44 2414.58 891.31 2611.53 903.87
00001322 00000103 2303.45 370.05 535.21 719.07 2409.47 642.11 2634.87 654.30 2480.46 771.37 2409.15 894.68 2605.45 907.94
00001323 00000104 2300.26 375.44 531.67 723.38 2404.91 643.70 2628.70 657.35 2473.15 772.19 2403.88 899.02 2595.26 912.40
00001324 00000105 2295.68 387.52 533.12 714.68 2397.24 648.67 2619.95 659.89 2464.89 775.57 2399.66 904.97 2587.58 916.24
00001325 00000106 2286.74 395.29 535.33 710.18 2388.95 651.63 2612.47 666.29 2456.31 783.11 2386.85 907.35 2579.63 921.35
00001326 00000107 2279.38 399.85 533.91 711.30 2380.97 660.10 2601.17 672.08 2450.48 794.95 2383.46 920.34 2575.58 932.41
00001327 00000108 2274.71 403.13 533.50 713.56 2377.16 664.57 2592.09 674.03 2446.04 798.80 2381.79 929.53 2570.09 940.06
00001328 00000109 2272.32 401.08 532.72 712.88 2373.44 663.31 2589.58 672.70 2443.24 796.73 2381.43 928.85 2567.06 939.44
00001329 00000110 2270.43 399.52 534.03 706.14 2370.58 658.97 2591.57 670.90 2439.85 797.15 2373.83 919.66 2568.73 931.84
00001330 00000111 2269.80 397.29 536.08 710.58 2370.85 655.21 2593.48 667.31 2438.84 793.11 2370.94 918.18 2569.96 930.44
00001331 00000112 2270.23 393.07 536.35 719.41 2372.53 655.12 2591.31 665.92 2439.91 787.45 2379.82 920.32 2562.60 931.92
00001332 00000113 2270.44 395.05 535.90 721.54 2372.05 656.90 2588.29 666.73 2437.86 788.92 2380.77 921.56 2561.38 932.24
00001333 00000114 2268.43 397.68 536.60 719.67 2370.33 660.46 2588.29 670.31 2438.02 795.27 2378.54 923.43 2565.22 933.93
00001334 00000115 2268.44 400.12 535.23 716.91 2370.67 661.95 2587.39 672.09 2438.83 798.59 2377.64 923.51 2567.26 934.13
00001335 00000116 2268.14 402.03 537.28 712.52 2371.79 663.88 2590.29 674.76 2441.90 800.52 2376.94 922.43 2572.75 933.62
00001336 00000117 2271.14 400.91 534.24 708.36 2375.12 663.15 2593.54 674.42 2445.10 803.21 2377.21 920.68 2581.61 931.89
00001337 00000118 2273.14 402.35 534.70 703.77 2377.71 663.54 2597.03 674.57 2447.96 803.04 2378.84 917.26 2591.71 928.02
00001338 00000119 2274.48 404.58 536.73 700.79 2379.33 663.73 2599.84 674.77 2448.32 801.53 2379.82 914.42 2595.44 925.01
00001339 00000120 2275.81 402.93 536.33 703.86 2381.21 663.28 2601.27 674.61 2450.02 800.97 2382.68 911.39 2597.83 921.94
00001340 00000121 2278.01 400.22 537.57 706.95 2382.05 662.19 2603.37 674.55 2449.46 800.46 2383.76 908.52 2599.42 919.74
00001341 00000122 2279.81 397.11 535.72 710.67 2384.75 661.37 2605.38 674.75 2451.24 800.61 2384.62 907.22 2600.56 919.24
00001342 00000123 2280.92 397.51 536.53 710.39 2386.62 660.92 2606.76 675.52 2451.89 800.11 2385.75 905.94 2598.26 918.85
00001343 00000124 2282.77 395.08 535.45 710.67 2387.71 660.60 2608.66 675.14 2454.01 797.90 2387.38 907.87 2596.05 921.16
00001344 00000125 2284.76 397.34 534.77 709.20 2389.59 659.36 2611.04 674.82 2456.88 797.52 2388.45 908.44 2595.15 922.43
00001345 00000126 2287.28 394.28 534.13 714.88 2392.58 660.73 2612.81 676.36 2458.19 795.92 2392.08 909.85 2594.17 924.27
00001346 00000127 2286.71 400.35 536.38 712.10 2393.59 669.71 2617.73 682.70 2462.99 791.82 2393.41 910.88 2596.78 924.03
00001347 00000128 2287.46 398.88 537.27 715.04 2395.71 668.34 2620.52 682.96 2464.61 792.85 2394.68 910.55 2597.43 924.76
00001348 00000129 2291.04 388.72 534.49 724.93 2398.03 662.89 2621.35 678.51 2465.43 792.58 2395.98 909.82 2598.51 924.66
00001349 00000130 2290.19 385.93 536.97 727.57 2398.67 659.83 2622.50 675.13 2467.24 793.62 2395.89 909.70 2601.27 923.96
00001350 00000131 2290.27 384.93 538.88 728.75 2400.88 658.49 2625.84 675.05 2468.90 793.08 2398.24 909.58 2603.37 924.76
00001351 00000132 2291.44 385.09 538.67 729.12 2402.30 657.75 2627.51 674.44 2470.12 792.70 2399.97 909.64 2605.33 924.82
00001352 00000133 2291.81 385.11 537.87 727.48 2402.60 657.53 2627.38 673.52 2471.59 793.30 2400.87 909.09 2606.32 923.55
00001353 00000134 2291.98 385.51 537.85 726.85 2402.42 657.24 2627.77 672.47 2472.04 793.21 2400.52 908.97 2609.50 922.74
00001354 00000135 2292.61 383.47 537.34 727.58 2402.81 656.50 2628.90 671.56 2473.16 791.68 2400.33 906.77 2611.93 920.39
00001355 00000136 2294.13 383.67 535.49 731.37 2404.29 659.68 2625.70 674.72 2472.20 799.75 2399.52 903.25 2617.20 917.93
00001356 00000137 2293.86 386.84 536.32 726.68 2404.49 660.85 2627.66 674.46 2473.82 797.58 2398.31 900.93 2621.49 914.36
00001357 00000138 2294.48 384.27 536.18 730.77 2404.76 661.41 2628.68 675.33 2473.58 798.14 2395.69 898.07 2624.96 911.40
00001358 00000139 2294.29 380.49 536.27 737.27 2405.36 661.08 2629.82 674.90 2473.70 799.30 2394.70 894.49 2630.98 907.00
00001359 00000140 2293.61 380.50 537.64 736.67 2405.82 660.51 2631.25 675.25 2474.40 799.15 2394.49 892.56 2631.59 905.59
00001360 00000141 2293.92 380.45 538.46 738.05 2406.21 659.97 2632.35 674.90 2475.10 799.88 2395.24 891.94 2633.67 904.72
00001361 00000142 2294.77 378.98 538.50 739.32 2406.90 659.24 2632.55 674.35 2475.38 799.96 2396.24 891.22 2633.98 904.04
00001362 00000143 2297.08 379.34 537.81 737.21 2408.43 659.59 2633.44 673.40 2477.09 799.62 2397.25 890.30 2636.17 902.15
00001363 00000144 2298.87 380.05 537.30 734.75 2409.84 659.85 2635.47 671.73 2480.19 798.16 2398.77 889.88 2638.65 900.47
00001364 00000145 2300.13 378.62 536.83 735.87 2410.94 658.47 2635.68 671.56 2480.63 797.97 2399.85 888.21 2638.50 899.61
00001365 00000146 2301.10 377.87 537.35 736.57 2412.28 657.66 2636.63 670.91 2481.21 797.92 2400.87 887.15 2639.87 898.51
00001366 00000147 2302.01 380.35 538.48 733.97 2414.13 657.80 2638.89 671.29 2482.89 797.81 2401.88 886.79 2641.80 898.33
00001367 00000148 2304.05 378.91 537.72 734.30 2414.80 657.51 2639.16 669.86 2483.69 797.11 2404.00 886.70 2644.07 897.23
00001368 00000149 2306.37 377.20 536.40 735.87 2416.51 657.69 2640.73 669.78 2485.24 795.99 2406.34 886.28 2645.78 896.59
00001369 00000150 2307.36 377.29 536.46 736.49 2418.04 657.65 2642.39 669.25 2486.31 795.46 2407.66 886.06 2648.04 895.96
00001370 00000151 2308.39 378.13 536.66 733.91 2419.44 656.21 2644.63 668.93 2487.39 794.48 2407.87 884.99 2649.44 895.85
00001371 00000152 2309.92 372.54 536.37 739.28 2420.47 655.44 2646.32 668.11 2488.45 793.56 2409.06 884.86 2651.19 895.73
00001372 00000153 2309.58 371.15 538.34 738.78 2421.31 654.33 2648.46 667.87 2490.14 792.37 2409.41 883.59 2652.35 895.26
00001373 00000154 2311.53 369.08 537.37 739.76 2422.31 656.63 2650.53 669.84 2491.38 791.70 2409.46 883.18 2654.01 894.85
00001374 00000155 2311.49 372.87 536.91 736.12 2423.51 657.15 2651.67 669.93 2493.63 791.46 2410.15 883.42 2654.81 894.86
00001375 00000156 2311.37 373.35 538.24 735.51 2423.35 656.91 2651.17 668.77 2493.93 790.49 2410.67 884.11 2654.67 895.03
00001376 00000157 2312.91 382.12 539.86 719.53 2423.39 655.92 2659.69 670.66 2500.48 784.54 2411.14 880.83 2652.05 895.07
00001377 00000158 2312.21 382.91 537.76 716.27 2424.63 659.04 2662.06 672.40 2505.02 784.58 2414.80 889.51 2646.25 903.26
00001378 DELETE   2311.05 394.14 536.83 711.05 2427.87 673.47 2660.71 678.39 2518.27 794.10 2423.61 913.96 2652.52 920.88
00001379 DELETE   2308.17 404.88 539.91 711.36 2431.06 687.57 2662.75 685.67 2529.60 804.88 2434.01 926.54 2659.44 927.74
00001380 DELETE   2303.05 403.46 545.19 725.73 2435.09 698.62 2664.46 691.62 2541.77 819.73 2443.99 936.34 2665.04 932.64
