Video ID: 	lGd7if2PUDo
H: 	1080
W: 	1920
FPS: 	25.0

FRAME INDEX X0 Y0 W H [Landmarks (5 Points)]

00010026 00000000 923.29 152.28 337.81 501.28 1002.83 343.08 1154.34 324.04 1081.57 412.77 1041.30 528.49 1161.32 513.36
00010027 DELETE   924.08 150.53 340.71 503.53 1008.95 342.48 1161.89 322.94 1092.29 409.84 1051.90 528.41 1170.61 512.45
00010028 00000002 927.25 149.43 335.20 509.23 1017.00 348.84 1174.13 330.07 1113.05 413.50 1062.80 529.92 1188.09 515.13
00010029 00000003 928.50 153.80 340.80 503.99 1021.36 347.25 1178.68 324.84 1118.10 414.64 1068.78 534.21 1187.97 516.39
00010030 00000004 929.13 156.12 335.11 507.17 1024.47 351.20 1182.05 330.97 1129.31 419.42 1072.30 537.43 1195.58 521.42
00010031 00000005 929.64 156.66 340.52 504.92 1025.22 349.24 1182.44 326.90 1124.85 417.68 1072.77 537.22 1191.95 519.25
00010032 00000006 928.85 156.37 340.14 502.06 1023.35 349.43 1180.00 326.28 1121.50 419.40 1070.40 535.43 1190.88 516.78
00010033 00000007 925.44 155.59 342.45 501.18 1020.19 349.08 1175.72 326.22 1116.00 417.46 1067.21 532.51 1186.98 514.17
00010034 00000008 923.40 151.21 336.91 506.34 1015.68 349.38 1172.54 331.64 1113.56 417.74 1063.13 530.30 1187.28 516.14
00010035 00000009 922.38 150.69 336.30 509.78 1011.58 350.07 1168.00 330.23 1107.98 416.49 1059.75 534.42 1181.35 518.73
00010036 00000010 927.33 159.23 337.71 510.81 1010.13 348.55 1168.80 323.38 1102.87 419.52 1052.56 544.69 1174.98 523.48
00010037 00000011 927.20 161.95 337.10 517.65 1008.67 348.23 1167.88 323.35 1100.47 417.84 1048.72 549.95 1172.65 529.72
00010038 00000012 926.99 161.97 337.75 522.28 1007.74 349.12 1168.67 323.34 1099.10 419.61 1046.21 551.67 1172.77 530.85
00010039 00000013 926.14 161.58 338.31 524.88 1007.07 346.45 1169.82 322.07 1098.53 422.06 1045.55 552.31 1173.22 532.51
00010040 00000014 926.22 158.13 338.93 529.41 1006.77 346.73 1173.23 323.13 1098.61 424.28 1045.42 553.19 1176.44 533.47
00010041 00000015 926.55 153.42 337.78 526.39 1005.26 349.60 1173.96 326.21 1097.03 426.72 1043.69 551.70 1177.81 532.40
00010042 00000016 927.63 153.69 338.13 524.41 1007.69 349.22 1174.74 326.83 1098.67 425.76 1044.63 551.36 1175.46 533.00
00010043 00000017 929.22 156.44 338.76 526.85 1011.79 347.72 1176.01 327.71 1102.13 424.81 1047.19 551.46 1175.46 534.96
00010044 00000018 932.42 161.18 336.90 525.70 1014.50 346.41 1178.56 327.53 1103.95 423.88 1045.73 552.22 1175.16 537.01
00010045 00000019 934.45 161.86 334.86 525.72 1016.18 345.47 1180.59 327.58 1106.42 423.53 1046.32 551.25 1177.05 536.70
00010046 00000020 933.46 149.50 333.82 539.98 1016.31 343.10 1176.97 333.00 1104.23 422.10 1047.85 546.54 1176.82 539.95
00010047 00000021 937.01 152.27 332.09 536.02 1018.85 342.94 1179.32 332.97 1106.79 420.52 1050.03 546.12 1179.23 539.61
00010048 00000022 940.21 151.37 332.10 539.77 1021.57 342.75 1182.31 332.02 1109.81 421.73 1052.57 546.11 1183.58 538.97
00010049 00000023 943.73 152.55 329.83 539.40 1024.96 342.22 1185.04 330.67 1113.79 420.39 1055.68 547.89 1184.45 540.38
00010050 00000024 947.63 153.25 327.87 540.71 1028.32 340.66 1187.38 329.22 1116.81 416.53 1059.13 547.81 1187.04 540.59
00010051 00000025 948.76 148.67 329.87 532.73 1030.48 338.98 1190.85 327.61 1120.17 414.88 1059.59 541.25 1187.52 534.43
00010052 00000026 951.04 154.36 332.68 511.40 1033.90 332.96 1197.98 321.98 1125.09 413.80 1062.56 535.55 1189.67 527.39
00010053 00000027 954.22 153.00 332.30 497.25 1034.26 332.78 1200.47 320.61 1126.90 412.56 1063.84 529.71 1195.95 520.60
00010054 00000028 956.97 152.09 331.78 489.25 1036.65 331.85 1202.52 319.29 1128.27 410.53 1068.15 526.59 1196.70 517.14
00010055 00000029 959.05 149.94 333.12 490.44 1040.12 331.00 1204.65 318.92 1130.34 409.23 1070.81 523.09 1199.65 514.06
00010056 00000030 965.42 152.02 324.49 488.48 1049.52 330.39 1208.50 320.88 1135.13 406.56 1075.04 526.05 1202.82 517.29
00010057 00000031 969.11 152.00 322.65 489.70 1053.98 330.03 1213.07 322.72 1139.50 409.31 1077.67 527.17 1205.71 520.02
00010058 00000032 970.89 153.32 324.03 487.22 1056.86 330.27 1216.50 323.89 1142.63 408.08 1080.84 527.67 1208.63 521.21
00010059 00000033 971.58 156.72 332.25 484.34 1053.66 332.50 1220.35 323.78 1143.93 409.19 1082.65 527.45 1210.62 521.12
00010060 00000034 973.22 156.89 332.83 488.16 1055.34 330.53 1221.92 322.24 1146.03 407.33 1084.03 526.92 1211.99 520.85
00010061 00000035 974.86 156.77 331.78 485.39 1055.95 328.71 1221.70 321.06 1145.06 405.40 1083.09 524.36 1211.53 518.95
00010062 00000036 976.56 157.21 330.49 479.47 1054.36 328.03 1219.78 321.23 1141.26 404.24 1079.35 521.88 1208.59 517.63
00010063 00000037 976.30 158.13 330.14 478.87 1050.92 326.55 1215.19 320.06 1134.28 403.67 1075.72 521.81 1202.30 517.88
00010064 00000038 975.84 155.97 329.23 482.86 1048.59 325.12 1211.92 319.36 1128.24 403.67 1071.44 522.45 1197.64 519.38
00010065 00000039 975.89 155.14 327.59 481.46 1045.60 324.87 1208.56 318.38 1122.36 404.79 1068.75 521.92 1193.45 518.37
00010066 00000040 976.70 155.10 326.82 483.39 1045.50 324.43 1208.48 318.41 1121.17 404.49 1067.87 522.72 1192.89 519.65
00010067 00000041 978.27 157.14 326.27 480.87 1047.31 323.91 1209.84 317.25 1125.07 402.94 1071.19 522.26 1194.40 518.58
00010068 00000042 979.82 157.14 328.44 479.90 1051.24 324.41 1214.55 317.51 1131.27 400.76 1076.41 522.21 1201.12 518.04
00010069 00000043 983.41 156.69 328.79 476.44 1057.22 324.07 1222.67 316.91 1142.44 399.32 1083.84 520.83 1210.63 516.07
00010070 00000044 985.70 156.02 331.66 478.11 1062.87 324.30 1230.09 316.45 1152.27 395.43 1093.25 520.59 1216.53 515.01
00010071 00000045 987.57 156.70 331.05 479.67 1067.79 324.60 1235.16 316.55 1160.47 400.09 1098.83 521.89 1221.49 515.92
00010072 00000046 987.09 155.06 333.34 484.54 1070.58 328.19 1236.86 320.25 1163.23 403.85 1100.63 523.06 1223.86 517.15
00010073 00000047 987.36 156.77 332.23 484.68 1069.59 329.41 1234.83 321.27 1160.38 404.44 1099.69 523.41 1221.59 517.28
00010074 00000048 986.48 155.81 329.98 482.48 1064.53 329.30 1229.07 319.31 1155.27 402.19 1096.12 524.07 1218.02 516.70
00010075 00000049 982.85 157.35 329.96 479.99 1057.46 330.94 1223.54 319.03 1147.53 401.41 1089.76 524.99 1215.46 516.47
00010076 00000050 980.51 159.32 329.97 482.61 1052.30 332.49 1216.61 321.04 1137.08 407.01 1083.58 527.84 1206.98 519.92
00010077 00000051 978.43 156.32 330.08 487.71 1048.42 332.30 1213.00 322.04 1130.20 407.31 1077.65 529.44 1201.49 522.73
00010078 00000052 976.85 154.31 330.36 491.71 1046.95 333.14 1211.58 321.98 1128.70 410.43 1076.59 530.70 1200.26 523.31
00010079 00000053 976.80 154.42 330.97 491.08 1048.13 334.16 1212.66 323.06 1130.34 410.23 1078.26 529.66 1201.97 522.00
00010080 00000054 977.20 154.56 331.71 488.77 1050.52 334.81 1213.85 324.06 1132.58 410.65 1081.07 528.25 1203.48 520.73
00010081 00000055 978.03 156.58 331.96 486.07 1052.47 335.15 1214.45 324.02 1134.01 412.03 1083.59 527.58 1204.62 519.54
00010082 00000056 977.08 155.18 333.46 489.11 1052.32 335.14 1213.33 324.19 1133.31 411.24 1083.42 526.34 1203.20 518.46
00010083 00000057 975.78 154.45 333.31 489.93 1051.21 334.54 1212.14 323.69 1132.35 411.79 1082.19 526.32 1201.61 518.53
00010084 00000058 972.40 148.43 336.14 503.52 1055.61 333.46 1210.59 325.76 1133.18 411.58 1085.22 523.56 1201.04 516.47
00010085 00000059 971.04 153.48 340.19 504.30 1058.22 332.53 1208.49 324.29 1136.57 411.81 1089.29 521.59 1201.86 514.19
00010086 00000060 975.60 161.12 338.81 508.85 1059.79 337.70 1215.47 316.27 1136.99 410.13 1086.00 529.49 1206.52 514.41
00010087 00000061 976.46 161.02 337.13 506.64 1061.61 337.23 1218.75 314.28 1143.35 408.14 1091.26 532.69 1211.38 516.10
00010088 00000062 978.34 164.10 335.75 504.98 1062.77 333.99 1220.06 314.44 1144.48 406.52 1091.71 534.66 1208.53 521.41
00010089 00000063 977.32 160.35 337.14 511.04 1060.50 337.64 1220.37 319.28 1142.58 406.92 1088.28 538.80 1209.25 526.98
00010090 00000064 976.68 154.05 335.35 523.06 1054.90 342.47 1217.50 329.95 1136.72 412.61 1083.61 540.53 1211.59 532.60
00010091 00000065 976.78 157.72 333.58 521.95 1058.23 342.51 1217.97 323.52 1136.79 411.75 1080.38 543.84 1203.14 533.06
00010092 00000066 975.59 158.29 334.40 522.17 1058.16 343.28 1217.93 324.70 1138.05 414.31 1081.32 545.17 1203.43 534.23
00010093 00000067 974.55 158.81 334.85 521.61 1057.68 342.98 1217.58 324.89 1138.59 416.88 1080.96 544.14 1204.34 533.36
00010094 00000068 973.28 158.64 334.29 523.16 1056.07 341.77 1217.34 324.13 1137.68 417.78 1078.87 543.88 1205.21 533.52
00010095 00000069 972.88 158.63 334.31 522.66 1054.84 341.54 1217.33 324.11 1135.79 416.88 1077.10 543.31 1204.75 533.13
00010096 00000070 972.79 160.71 334.25 517.61 1055.65 340.19 1216.59 322.80 1137.08 415.73 1079.04 542.46 1202.83 532.22
00010097 00000071 971.72 160.88 335.07 512.65 1056.02 340.58 1216.99 321.96 1138.95 415.63 1081.32 541.93 1203.62 530.43
00010098 00000072 970.75 159.19 336.07 514.50 1054.50 340.12 1216.46 321.20 1137.60 415.26 1080.12 540.85 1204.23 529.11
00010099 00000073 970.68 158.70 336.00 513.01 1053.41 339.88 1215.72 320.68 1135.61 414.61 1078.95 539.23 1204.08 527.17
00010100 00000074 969.36 154.19 334.81 513.41 1047.75 342.05 1213.41 327.73 1133.76 417.40 1079.81 536.42 1210.37 526.85
00010101 00000075 970.15 151.30 333.98 513.44 1049.15 337.01 1205.62 325.13 1127.19 410.76 1080.42 536.16 1203.73 526.90
00010102 00000076 967.73 150.88 338.28 512.14 1053.09 336.90 1211.54 327.27 1134.03 414.42 1085.04 531.52 1205.98 522.32
00010103 00000077 968.03 149.51 339.13 508.98 1052.67 337.00 1212.25 328.55 1133.59 415.39 1080.80 528.86 1208.54 520.59
00010104 00000078 969.20 153.14 336.20 492.98 1048.16 337.51 1212.49 324.95 1131.17 415.59 1075.16 524.36 1208.43 515.48
00010105 00000079 970.06 152.80 334.38 486.27 1046.43 338.59 1210.12 324.99 1128.61 414.79 1075.89 523.86 1206.20 514.17
00010106 00000080 970.45 153.33 333.19 481.52 1045.67 339.01 1209.72 325.48 1128.02 414.60 1075.34 523.78 1205.55 514.24
00010107 00000081 970.00 153.50 333.73 483.38 1045.44 340.24 1210.07 325.99 1128.83 415.85 1076.03 525.50 1206.54 515.27
00010108 00000082 969.94 154.08 334.38 482.05 1045.18 341.60 1209.80 327.13 1128.87 417.51 1076.34 526.84 1206.43 516.37
00010109 00000083 968.94 156.04 335.07 486.09 1044.99 342.98 1208.07 328.73 1127.70 419.93 1076.31 528.23 1204.92 517.80
00010110 00000084 967.17 156.57 337.43 490.92 1043.15 343.68 1205.20 330.15 1122.44 423.10 1072.66 528.52 1201.73 518.97
00010111 00000085 966.21 156.71 338.60 499.83 1041.99 343.27 1203.08 330.45 1119.06 423.36 1070.62 530.58 1199.28 521.47
00010112 00000086 967.44 159.12 336.01 504.46 1044.47 349.95 1201.63 336.50 1121.29 428.50 1072.64 530.04 1201.65 521.43
00010113 00000087 968.88 157.31 335.07 511.76 1048.12 350.55 1207.35 337.61 1128.59 428.36 1077.34 535.30 1205.16 527.01
00010114 00000088 973.80 162.31 335.06 510.31 1057.39 351.56 1213.44 331.54 1139.67 421.43 1083.57 539.11 1208.33 526.28
00010115 DELETE   976.81 161.61 337.44 508.09 1063.14 354.17 1220.96 334.61 1150.13 420.78 1091.16 543.09 1213.67 530.40
00010116 DELETE   978.39 162.61 339.30 504.99 1073.90 356.66 1233.71 341.84 1166.57 421.02 1107.10 544.13 1230.07 533.25
00010117 DELETE   981.34 159.22 339.05 507.09 1082.29 352.33 1247.35 341.05 1179.70 419.12 1118.12 541.67 1247.17 532.62
00010118 00000092 982.67 159.61 337.60 497.81 1087.25 350.71 1249.12 337.27 1189.81 416.47 1125.53 539.23 1243.22 529.16
00010119 DELETE   982.22 159.30 339.39 504.00 1083.56 352.00 1250.34 340.26 1182.36 416.52 1119.58 541.10 1249.13 531.55
00010120 DELETE   982.71 157.08 337.60 508.82 1075.29 351.77 1238.09 335.52 1175.72 416.41 1111.18 545.30 1237.91 533.03
00010121 DELETE   979.01 158.02 340.91 505.46 1068.19 355.62 1228.58 336.08 1162.65 421.08 1102.69 546.33 1226.35 531.97
00010122 00000096 975.70 161.51 339.84 507.80 1061.15 358.30 1220.04 336.09 1151.77 422.28 1092.22 545.92 1217.66 531.03
00010123 00000097 970.79 159.38 341.35 511.03 1060.22 363.34 1226.13 349.51 1150.24 429.15 1091.30 542.99 1226.37 532.75
00010124 DELETE   976.86 159.02 337.63 510.39 1068.90 355.99 1233.53 342.07 1168.13 426.94 1096.01 539.23 1234.75 529.73
00010125 00000099 981.36 162.02 338.04 504.90 1079.90 352.46 1244.05 344.30 1182.05 427.09 1103.27 533.01 1245.17 527.56
00010126 00000100 983.05 162.17 338.64 501.55 1083.18 350.29 1247.90 340.92 1187.59 422.88 1108.56 532.87 1248.63 525.93
00010127 00000101 977.10 158.86 340.04 493.56 1084.40 344.88 1242.22 336.63 1179.93 421.09 1105.52 524.42 1236.58 518.69
00010128 00000102 975.98 158.95 343.17 500.49 1075.06 345.78 1241.19 336.45 1168.72 422.20 1100.83 524.56 1241.45 517.48
00010129 00000103 972.90 155.47 343.60 505.19 1068.36 345.55 1233.64 335.94 1160.84 425.06 1091.81 521.25 1236.85 514.19
00010130 00000104 970.20 153.60 342.65 504.62 1060.03 347.73 1223.59 336.84 1150.06 428.05 1085.83 523.82 1226.17 516.03
00010131 00000105 966.83 147.81 340.28 514.49 1053.28 348.17 1217.91 339.69 1140.11 430.02 1081.23 528.90 1218.04 523.46
00010132 00000106 966.39 149.99 336.93 519.82 1051.38 347.45 1216.09 341.25 1137.81 428.84 1075.14 532.58 1210.49 529.70
00010133 00000107 964.80 150.62 337.35 513.63 1050.89 348.42 1216.03 343.27 1136.23 429.32 1072.73 528.02 1211.26 525.84
00010134 00000108 964.64 151.10 335.55 514.51 1050.67 348.44 1215.88 342.33 1137.48 427.13 1073.72 528.85 1212.28 525.91
00010135 00000109 961.26 148.34 337.64 512.45 1046.39 347.62 1216.23 341.23 1135.08 425.16 1071.68 525.28 1217.66 521.47
00010136 00000110 961.89 149.72 335.96 508.89 1047.63 343.30 1214.52 338.12 1135.26 419.01 1070.44 520.61 1213.51 518.02
00010137 00000111 961.99 155.72 335.56 487.60 1052.64 338.53 1218.82 329.47 1146.16 412.28 1078.09 521.01 1212.90 514.05
00010138 00000112 964.37 155.29 338.20 485.25 1063.77 336.05 1229.86 328.07 1162.01 403.74 1091.15 520.61 1222.50 514.53
00010139 00000113 965.22 155.25 338.95 490.42 1068.86 333.52 1233.05 325.20 1168.63 402.06 1098.64 522.95 1223.78 516.62
00010140 00000114 963.50 155.55 339.40 491.36 1066.40 334.28 1230.23 325.93 1164.95 402.28 1096.15 523.00 1220.77 516.64
00010141 00000115 961.36 155.29 340.90 499.59 1060.84 336.34 1218.32 327.52 1153.58 406.73 1095.17 519.13 1216.48 511.01
00010142 00000116 962.83 154.49 332.43 496.03 1053.93 339.50 1209.99 326.61 1143.02 405.13 1088.42 518.83 1211.82 507.97
00010143 00000117 960.29 159.10 334.83 502.85 1050.26 339.76 1209.46 328.97 1140.94 413.88 1077.99 518.65 1214.40 511.39
00010144 00000118 959.10 156.53 336.53 504.20 1048.30 340.64 1209.47 330.02 1139.28 413.80 1078.48 519.41 1215.95 511.99
00010145 00000119 958.77 157.62 335.83 488.81 1050.16 338.43 1212.06 328.38 1141.83 410.55 1078.66 522.12 1206.94 514.23
00010146 00000120 960.59 159.30 335.36 488.30 1052.61 339.00 1215.87 328.83 1146.49 411.22 1080.79 522.85 1210.72 514.89
00010147 00000121 964.28 155.55 328.12 498.91 1055.00 339.35 1214.71 331.61 1144.40 410.04 1079.70 529.11 1206.87 522.04
00010148 00000122 961.27 155.70 335.55 505.20 1049.38 337.81 1207.64 329.68 1137.24 411.75 1078.91 534.53 1202.88 528.06
00010149 00000123 960.94 153.90 333.97 515.89 1049.34 344.29 1213.67 335.14 1142.55 417.84 1078.85 535.77 1210.17 530.68
00010150 00000124 961.94 154.32 333.66 516.93 1050.18 347.25 1214.65 337.19 1143.48 420.29 1079.45 537.36 1211.20 531.52
00010151 00000125 965.63 161.45 336.04 515.22 1056.21 345.78 1216.83 330.70 1146.49 419.56 1080.00 539.81 1206.16 531.23
00010152 00000126 967.15 161.25 334.45 516.60 1055.82 347.42 1216.20 331.02 1145.27 419.29 1079.16 540.77 1206.80 531.56
00010153 00000127 968.33 163.87 332.90 516.60 1054.08 348.18 1213.85 332.41 1141.66 421.23 1076.11 541.25 1203.87 533.17
00010154 00000128 969.42 164.97 331.78 520.76 1051.86 345.96 1212.29 331.43 1136.48 418.90 1072.78 543.35 1198.65 536.82
00010155 00000129 969.24 165.13 331.70 520.19 1052.10 346.57 1212.52 331.51 1137.77 419.18 1073.38 543.37 1199.88 536.40
00010156 00000130 968.26 163.39 332.75 516.44 1054.70 349.00 1215.05 334.34 1143.41 425.29 1076.19 540.39 1206.90 532.55
00010157 00000131 969.07 162.90 332.20 514.95 1055.13 350.03 1216.46 334.15 1144.06 424.90 1078.13 540.50 1210.31 531.51
00010158 00000132 962.89 153.86 338.97 512.93 1047.96 349.84 1206.00 338.07 1134.39 423.37 1078.44 542.30 1205.22 533.26
00010159 00000133 962.54 154.32 338.31 506.08 1046.55 348.61 1204.88 337.69 1131.48 422.27 1074.97 539.83 1202.54 531.68
00010160 00000134 962.09 158.41 337.72 497.81 1047.32 347.21 1208.64 335.24 1133.78 423.19 1076.54 533.27 1203.57 524.32
00010161 00000135 963.24 156.39 337.50 498.19 1048.12 347.78 1209.61 334.93 1134.76 422.07 1077.36 531.30 1205.87 521.69
00010162 00000136 962.89 156.65 338.61 499.44 1047.10 346.67 1208.71 334.88 1130.95 422.01 1072.66 528.56 1205.22 520.07
00010163 00000137 963.21 157.19 339.36 500.30 1044.99 347.31 1205.44 336.26 1124.63 424.48 1068.64 527.96 1201.61 520.37
00010164 00000138 963.69 156.22 339.58 502.83 1044.77 348.27 1204.52 337.83 1122.85 425.66 1068.66 528.74 1199.80 521.59
00010165 00000139 965.10 156.05 339.17 504.48 1046.87 349.59 1206.83 338.20 1126.36 426.10 1070.36 529.91 1203.30 522.05
00010166 00000140 966.66 156.07 339.55 506.11 1049.56 350.52 1209.13 339.05 1129.60 425.36 1073.48 530.86 1205.17 522.93
00010167 00000141 969.31 154.83 338.29 507.12 1051.44 350.30 1211.52 339.29 1131.92 425.36 1076.23 532.99 1205.65 525.47
00010168 00000142 975.35 159.25 333.72 520.93 1056.89 349.40 1217.86 338.60 1137.29 426.61 1074.53 540.78 1204.57 535.88
00010169 00000143 976.34 159.66 333.78 526.76 1059.29 345.04 1220.03 331.80 1142.15 424.79 1077.78 546.19 1205.53 539.60
00010170 00000144 976.70 158.71 337.03 528.05 1061.32 346.43 1222.08 334.09 1143.86 426.52 1078.42 545.31 1208.90 538.90
00010171 00000145 976.96 157.92 337.30 527.37 1062.21 347.52 1220.72 335.29 1143.92 425.22 1079.61 543.04 1208.24 536.55
00010172 00000146 975.36 156.12 338.76 525.30 1060.96 347.83 1220.05 337.10 1142.56 426.27 1080.38 540.17 1207.98 534.40
00010173 00000147 974.31 157.58 337.76 521.98 1060.33 346.49 1219.13 337.68 1138.83 425.31 1075.45 534.30 1205.68 530.05
00010174 00000148 973.67 159.16 335.85 516.58 1058.69 344.59 1217.00 335.52 1136.62 424.42 1074.32 531.47 1203.14 527.13
00010175 00000149 973.06 159.33 334.56 519.24 1058.65 341.72 1217.59 331.52 1135.31 419.65 1073.89 533.99 1199.62 529.19
00010176 00000150 971.69 159.32 334.57 519.33 1058.72 341.05 1217.92 329.95 1137.50 418.22 1075.75 536.46 1198.59 531.38
00010177 00000151 970.67 159.36 334.68 519.56 1058.24 340.80 1218.39 328.69 1139.81 418.96 1078.31 539.29 1200.23 533.23
00010178 00000152 970.03 160.01 334.59 519.19 1056.21 342.60 1217.89 330.34 1137.70 418.68 1075.58 538.26 1202.59 531.98
00010179 00000153 964.44 149.00 337.96 516.60 1046.74 340.59 1205.73 332.60 1127.42 421.11 1072.15 537.93 1200.29 531.95
00010180 00000154 964.16 148.64 337.88 519.48 1045.51 339.64 1204.01 332.48 1124.52 420.38 1069.73 537.86 1197.22 532.54
00010181 00000155 965.53 153.09 333.23 524.04 1046.57 346.75 1210.69 337.31 1130.71 425.59 1073.16 542.66 1201.04 537.63
00010182 00000156 969.92 163.73 332.69 521.19 1051.94 339.61 1213.15 326.97 1131.83 417.25 1071.23 542.15 1193.20 536.86
00010183 00000157 968.89 163.46 332.32 518.15 1050.86 341.38 1212.86 328.24 1131.89 419.13 1071.21 540.31 1197.14 534.10
00010184 00000158 964.48 154.10 332.24 520.39 1044.37 345.62 1209.16 336.53 1129.50 426.41 1070.92 538.44 1202.30 533.80
00010185 00000159 962.78 155.08 337.02 518.22 1043.38 340.21 1200.59 332.12 1121.84 415.88 1069.79 539.88 1194.76 533.88
00010186 00000160 963.61 156.19 331.91 523.81 1042.88 345.89 1205.05 335.13 1127.03 420.67 1066.99 540.80 1196.66 535.12
00010187 00000161 962.65 155.24 333.30 527.31 1042.49 347.81 1204.74 336.37 1127.00 419.70 1066.24 542.16 1196.77 535.79
00010188 00000162 961.44 152.70 335.11 519.83 1039.94 350.26 1203.51 338.03 1123.23 422.80 1066.68 536.07 1200.66 528.56
00010189 00000163 960.62 151.82 337.69 510.88 1040.76 342.77 1198.93 333.51 1119.39 419.25 1065.72 538.11 1195.35 531.24
