Video ID: 	IzZRZDlRXyo
H: 	1080
W: 	1920
FPS: 	25.0

FRAME INDEX X0 Y0 W H [Landmarks (5 Points)]

00008111 00000000 558.72 255.92 373.91 539.67 694.42 438.62 867.58 435.57 804.83 576.59 712.04 647.22 857.90 644.85
00008112 00000001 556.82 255.86 376.17 543.48 694.74 438.81 866.76 434.88 806.46 576.44 712.58 649.28 858.26 645.95
00008113 00000002 553.86 254.39 378.33 549.41 695.46 439.82 865.01 435.16 807.24 575.86 715.53 650.64 858.95 646.13
00008114 00000003 552.09 253.68 379.69 550.80 695.07 438.71 865.48 434.19 808.53 573.65 718.40 652.66 859.39 647.91
00008115 00000004 548.58 258.26 382.58 548.37 694.93 440.73 864.80 434.29 812.33 573.19 720.50 655.20 861.65 648.98
00008116 00000005 547.62 260.01 383.45 548.65 693.66 444.25 863.62 436.85 813.67 573.75 722.39 658.67 862.98 651.48
00008117 00000006 547.98 258.40 382.10 557.17 693.97 450.34 862.42 440.23 813.15 578.09 725.42 663.30 865.47 653.24
00008118 DELETE   544.90 262.27 385.16 556.22 693.32 455.36 862.62 444.35 814.74 581.68 727.06 667.32 866.52 657.13
00008119 00000008 545.97 261.26 383.48 561.78 694.05 455.65 861.90 444.15 815.47 583.50 729.30 672.86 866.99 661.93
00008120 00000009 546.19 276.12 391.05 554.77 688.82 459.26 865.67 445.93 812.04 588.23 726.49 677.38 860.22 664.55
00008121 00000010 546.62 277.91 389.43 556.20 688.14 462.10 864.07 446.66 810.89 589.98 726.39 681.90 859.80 667.44
00008122 00000011 541.94 265.15 385.52 569.49 687.26 460.78 858.27 446.24 812.74 591.05 725.29 685.05 867.28 671.50
00008123 00000012 538.47 264.55 388.69 573.19 684.41 462.41 856.86 446.38 811.22 593.20 724.24 688.02 867.35 673.31
00008124 00000013 535.54 264.25 389.99 576.83 682.50 462.28 855.13 446.76 810.07 594.95 722.33 689.53 866.09 675.32
00008125 00000014 531.71 269.21 392.65 575.08 681.22 462.46 852.33 446.42 809.74 594.22 722.34 690.61 865.70 676.15
00008126 00000015 529.55 267.48 394.62 579.33 678.79 462.92 850.59 445.30 808.99 596.55 720.51 692.41 864.49 676.83
00008127 00000016 529.31 280.23 397.22 573.94 674.36 464.26 854.83 443.32 808.24 590.08 703.30 688.81 861.30 670.71
00008128 00000017 526.83 276.20 400.17 576.99 670.44 465.19 854.27 443.24 804.86 590.29 700.07 689.30 859.47 670.42
00008129 00000018 523.63 274.76 402.95 580.19 665.89 463.60 851.19 442.55 800.16 590.09 697.30 689.77 856.38 671.37
00008130 00000019 519.39 269.44 403.75 584.28 661.20 463.21 847.12 441.50 797.43 587.32 695.30 690.99 852.72 671.85
00008131 00000020 514.03 271.16 405.95 584.67 657.31 462.89 843.13 441.26 794.83 588.36 692.66 689.87 849.27 670.55
00008132 00000021 508.83 273.00 409.01 584.00 652.50 463.36 839.05 442.30 789.42 590.93 688.98 691.09 844.46 671.86
00008133 00000022 503.94 272.46 410.96 584.33 647.24 464.15 834.60 442.10 784.92 593.28 685.97 692.81 839.30 672.37
00008134 00000023 496.57 273.30 415.28 583.85 641.60 465.41 830.86 442.90 781.76 593.29 682.79 693.81 836.24 672.73
00008135 00000024 493.88 273.54 414.90 584.51 636.19 466.76 827.77 441.93 777.14 592.98 680.35 695.85 833.94 672.62
00008136 00000025 488.49 272.49 418.45 586.05 634.53 464.54 826.24 439.20 776.13 593.03 678.47 694.54 832.42 671.10
00008137 00000026 487.04 266.32 417.39 587.88 633.89 463.31 825.70 438.54 775.05 590.44 678.50 692.98 830.77 669.90
00008138 00000027 486.98 261.66 417.32 587.77 634.07 458.32 825.49 432.55 777.48 584.62 679.33 686.41 834.40 662.26
00008139 DELETE   494.48 239.75 413.15 599.63 638.96 450.39 833.27 425.76 780.11 573.66 680.94 677.40 849.38 655.14
00008140 00000029 495.43 234.58 413.69 583.90 636.51 438.96 830.45 412.04 777.63 556.54 683.42 660.41 851.01 635.79
00008141 00000030 495.89 227.54 413.95 579.34 635.78 427.87 827.79 395.77 780.23 542.16 685.75 649.42 851.99 620.20
00008142 00000031 490.50 215.53 418.50 591.53 634.86 421.78 825.84 389.70 779.58 531.12 685.03 644.57 850.61 614.89
00008143 00000032 490.08 211.40 415.20 595.15 632.54 416.83 819.28 386.63 773.21 522.52 683.85 642.98 839.56 614.77
00008144 00000033 485.78 209.06 416.42 597.78 630.78 412.03 813.04 382.86 767.89 513.36 680.65 638.18 831.43 610.72
00008145 00000034 474.07 206.65 423.44 596.34 617.62 409.68 802.44 377.75 753.68 507.61 672.60 636.10 823.86 606.23
00008146 00000035 464.95 203.66 433.37 598.55 609.38 409.47 796.74 377.71 746.31 503.82 668.26 634.29 821.63 604.09
00008147 00000036 460.97 204.17 436.61 598.60 604.78 408.06 793.69 375.83 741.89 503.61 665.29 632.73 820.23 602.17
00008148 00000037 458.75 204.88 438.80 598.28 603.61 409.28 792.19 378.01 740.68 503.24 663.91 632.24 819.89 602.59
00008149 00000038 457.12 205.27 441.19 601.29 601.47 411.86 790.41 378.30 739.44 505.08 663.81 635.58 820.21 603.78
00008150 00000039 457.84 207.71 441.36 605.29 600.27 417.34 790.58 381.51 740.02 514.11 663.49 642.12 824.50 608.41
00008151 00000040 459.56 214.46 439.99 609.85 604.06 422.56 798.71 388.47 744.84 530.44 662.96 653.38 828.31 621.39
00008152 00000041 460.37 223.88 442.80 613.50 607.57 435.64 805.14 402.37 750.47 547.96 663.41 666.39 834.96 635.56
00008153 00000042 466.26 229.82 439.73 615.30 614.29 445.33 811.97 414.78 756.53 557.81 666.91 675.98 840.33 647.95
00008154 00000043 468.26 235.29 439.09 620.52 618.63 451.40 819.01 422.23 763.01 565.93 667.94 682.63 845.53 656.38
00008155 00000044 470.20 251.22 441.48 606.21 621.95 453.21 824.87 422.61 771.32 572.41 669.08 680.71 842.43 651.68
00008156 00000045 470.84 251.99 442.86 608.42 622.84 453.06 826.31 421.79 773.43 574.80 671.04 683.35 844.49 653.69
00008157 00000046 470.84 252.83 445.55 609.93 623.19 453.30 828.03 422.31 774.29 575.51 672.58 684.98 846.12 655.53
00008158 00000047 470.58 253.25 446.19 610.30 622.80 453.17 827.85 421.64 774.16 576.50 672.40 685.83 845.70 656.01
00008159 00000048 469.10 252.69 447.51 612.21 622.79 455.17 827.39 423.00 774.27 578.64 674.08 688.91 845.46 658.57
00008160 00000049 467.65 253.74 450.13 617.66 623.05 457.76 826.65 425.25 773.71 581.06 674.72 693.49 844.58 662.98
00008161 00000050 470.11 255.72 449.94 618.82 623.68 462.56 829.13 427.96 774.48 583.11 676.48 699.53 846.31 667.52
00008162 00000051 476.54 262.17 450.61 618.59 624.98 469.93 832.77 432.83 776.10 592.14 678.32 707.06 852.50 673.13
00008163 00000052 482.20 263.83 448.55 630.71 630.80 477.04 835.48 439.14 778.13 598.47 684.99 718.89 857.05 684.21
00008164 00000053 486.67 275.23 443.16 629.86 635.78 483.56 840.00 445.47 782.77 611.37 683.67 725.12 862.04 690.46
00008165 00000054 487.13 278.89 441.26 633.16 635.33 489.06 839.57 453.61 781.11 620.47 678.70 729.17 861.81 696.80
00008166 00000055 484.74 283.71 443.81 637.93 634.69 494.66 840.90 459.37 781.07 630.32 675.22 735.91 859.80 703.67
00008167 00000056 477.01 287.85 448.41 644.87 633.19 499.42 839.88 465.39 780.28 639.04 671.26 743.95 858.04 712.92
00008168 00000057 466.54 287.42 456.69 649.88 627.91 504.57 835.17 469.95 777.09 642.42 665.87 747.75 854.34 716.62
00008169 00000058 458.76 289.21 461.92 651.63 626.63 510.98 835.75 476.27 781.17 650.87 667.52 756.99 852.46 726.29
00008170 00000059 458.56 287.01 463.56 656.49 628.54 527.78 835.57 490.39 782.81 658.98 667.13 764.46 854.14 732.16
00008171 00000060 460.25 285.23 462.68 659.79 633.33 535.99 837.63 499.75 785.60 662.06 669.15 766.93 855.07 735.71
00008172 00000061 462.61 284.07 461.19 666.98 636.92 540.11 837.51 505.26 785.78 664.41 669.49 770.58 853.01 740.82
00008173 00000062 472.00 287.47 461.28 664.34 639.83 541.92 843.28 505.61 790.00 664.37 678.55 770.48 856.36 738.44
00008174 00000063 472.17 289.09 464.45 665.18 641.01 543.70 847.37 505.48 793.21 666.49 681.42 776.82 858.91 743.26
00008175 00000064 468.39 286.82 468.62 670.28 639.19 544.80 846.81 503.13 794.10 669.05 682.53 783.52 856.64 747.25
00008176 00000065 465.49 290.27 468.90 670.28 634.70 540.83 844.60 497.99 790.63 670.26 686.12 788.70 856.39 751.16
00008177 00000066 462.59 290.94 467.93 672.07 631.74 538.29 840.82 496.09 786.68 669.22 685.20 792.25 851.31 755.04
00008178 00000067 459.57 295.58 467.07 670.75 627.86 533.71 838.38 492.88 782.25 670.32 682.84 791.72 848.81 755.67
00008179 00000068 453.12 298.39 468.91 665.80 623.24 530.56 833.85 490.45 777.66 670.46 678.80 788.29 841.56 752.72
00008180 00000069 445.07 279.12 465.79 678.19 618.93 525.87 819.93 488.80 772.24 670.88 675.37 789.45 839.12 756.35
00008181 00000070 440.16 277.59 465.76 677.23 612.75 523.22 814.69 485.00 768.27 666.66 668.24 783.77 837.49 749.73
00008182 00000071 435.37 278.52 467.39 674.88 609.87 520.86 810.00 481.38 765.16 664.73 665.08 780.76 835.08 745.59
00008183 00000072 433.68 294.13 468.94 659.89 602.29 525.06 809.56 481.38 757.91 661.99 660.16 774.54 826.45 734.87
00008184 00000073 432.94 303.66 467.97 647.93 600.81 522.37 808.13 479.93 755.16 659.80 657.23 770.12 826.05 731.27
00008185 00000074 433.44 302.18 467.68 649.61 602.77 521.12 809.16 479.57 756.63 656.52 657.39 768.95 824.32 731.00
00008186 00000075 439.61 303.06 464.00 650.32 607.38 521.87 813.26 478.16 763.11 654.96 658.49 766.30 830.66 726.79
00008187 00000076 442.69 301.85 464.73 648.79 614.72 520.69 818.88 479.07 770.94 653.92 662.69 763.81 835.71 726.28
00008188 00000077 450.85 311.08 463.42 638.60 618.76 517.14 826.90 476.58 777.59 655.10 668.17 763.33 843.73 726.54
00008189 00000078 453.53 303.55 464.46 645.53 624.20 513.54 834.10 474.81 786.40 650.84 670.94 760.67 849.40 725.52
00008190 00000079 454.68 281.37 462.97 663.08 632.99 513.96 837.28 474.61 792.05 651.85 679.23 768.03 855.67 733.55
00008191 00000080 457.12 280.54 459.38 658.07 638.05 520.58 836.40 482.26 791.97 644.15 682.28 764.09 854.89 730.24
00008192 00000081 459.78 276.20 455.96 656.03 638.95 514.33 835.10 476.44 790.58 635.10 683.31 756.14 854.35 722.05
00008193 00000082 463.88 268.72 452.73 656.58 637.23 504.47 837.06 465.46 789.96 627.57 685.26 750.71 857.54 715.07
00008194 00000083 460.97 270.09 459.13 655.52 633.72 497.77 837.26 454.22 792.77 623.31 683.52 745.70 861.23 706.58
00008195 00000084 462.97 275.80 457.05 644.42 632.95 490.99 834.91 450.74 789.86 618.66 684.35 738.51 859.40 701.86
00008196 00000085 461.51 275.31 458.27 642.75 631.50 485.97 835.16 446.29 791.23 614.13 680.75 732.83 859.04 696.82
00008197 00000086 459.39 275.62 458.40 642.65 630.76 484.62 833.53 445.01 790.77 611.69 680.99 732.59 857.54 696.74
00008198 00000087 458.41 273.63 458.45 646.08 630.50 483.31 832.28 444.70 788.88 609.69 680.11 732.22 856.46 697.14
00008199 00000088 458.41 273.90 457.34 647.22 630.70 483.40 831.67 444.65 787.87 609.87 679.00 733.24 855.18 698.04
00008200 00000089 456.70 275.08 459.09 649.86 630.77 483.52 831.23 446.27 788.33 612.03 677.12 733.59 854.76 699.84
00008201 00000090 453.01 278.96 463.16 654.08 629.64 485.62 831.32 451.08 786.54 618.00 674.82 737.57 855.32 706.09
00008202 00000091 454.60 277.80 460.54 661.01 630.57 489.68 832.06 454.54 785.92 623.83 677.24 745.08 856.20 712.72
00008203 00000092 452.36 279.91 463.46 661.98 629.40 498.27 829.49 459.44 784.70 632.12 678.36 751.77 855.43 716.49
00008204 00000093 456.00 303.24 464.27 642.41 631.96 509.96 829.56 466.42 791.00 635.78 678.46 752.93 851.02 713.95
00008205 00000094 457.91 303.71 464.93 642.05 633.50 513.78 833.67 472.24 793.47 640.34 679.42 753.27 856.28 716.01
00008206 00000095 461.10 307.72 464.80 639.60 633.30 515.37 837.87 473.62 795.46 645.37 678.28 756.09 859.52 718.65
00008207 00000096 460.76 310.76 467.02 636.91 634.65 515.26 839.89 473.20 797.32 647.52 677.82 755.72 860.75 718.33
00008208 00000097 461.47 312.37 466.85 635.47 635.46 515.95 840.46 474.28 798.37 648.47 677.82 755.97 860.96 719.00
00008209 00000098 460.76 311.59 466.78 636.52 635.63 514.90 839.92 473.96 797.43 648.48 678.09 755.83 859.92 719.46
00008210 00000099 462.18 312.41 465.48 634.13 635.23 514.35 839.33 473.41 796.61 647.74 677.80 754.63 860.11 718.19
00008211 00000100 464.04 307.39 462.68 636.55 635.34 512.68 837.44 472.92 794.60 645.47 678.72 752.02 857.43 716.46
00008212 00000101 462.03 289.99 461.88 653.51 633.34 510.83 838.09 470.00 794.69 648.74 676.83 756.34 862.56 720.62
00008213 00000102 465.54 305.49 461.75 636.31 635.37 508.26 837.79 471.03 793.04 643.08 678.13 748.73 856.09 715.02
00008214 00000103 467.25 299.07 461.40 642.55 638.11 506.97 839.77 472.35 792.73 640.21 680.07 747.66 856.77 716.12
00008215 00000104 466.37 297.72 463.17 643.75 638.37 504.05 840.16 470.12 792.78 639.39 679.96 746.31 856.03 715.50
00008216 00000105 464.21 282.01 461.55 658.53 636.76 503.99 841.42 468.29 791.09 640.77 677.31 749.00 863.31 716.99
00008217 00000106 464.56 278.36 459.29 662.63 635.51 501.14 840.94 467.06 787.87 639.02 673.94 747.62 861.33 716.52
00008218 00000107 463.71 277.21 459.54 663.92 635.36 499.84 841.84 465.90 786.08 640.47 672.00 747.24 859.39 716.15
00008219 00000108 461.30 277.40 461.48 664.32 632.66 499.67 841.23 464.92 786.02 639.63 670.18 748.40 858.60 716.82
00008220 00000109 456.09 274.63 465.24 666.57 632.05 501.26 839.50 468.40 785.15 640.84 669.87 749.21 855.46 719.26
00008221 00000110 456.09 275.11 464.21 666.65 631.09 503.07 838.06 470.85 783.48 642.33 668.14 750.15 853.42 720.96
00008222 00000111 456.76 278.92 464.11 664.57 631.33 505.58 838.97 471.15 785.12 644.29 669.07 753.42 855.79 722.48
00008223 00000112 462.70 288.71 461.26 654.86 632.52 507.69 841.08 473.40 790.65 645.31 676.06 755.01 854.67 723.66
00008224 00000113 462.79 295.70 463.85 652.02 632.86 509.32 843.74 473.53 793.58 649.21 677.24 759.88 856.32 727.39
00008225 00000114 466.02 288.11 462.51 660.64 635.71 508.69 846.59 473.16 795.59 650.95 679.38 761.69 857.59 729.75
00008226 00000115 468.81 288.50 461.26 660.36 637.62 507.27 848.45 471.90 796.33 650.72 681.09 761.75 858.04 729.88
00008227 00000116 469.50 283.69 462.14 665.96 639.22 505.90 849.35 472.38 795.99 649.12 681.59 760.64 857.62 730.29
00008228 00000117 474.32 277.05 457.79 670.80 643.59 506.53 851.11 474.98 797.68 647.69 681.69 757.52 858.44 729.18
00008229 00000118 473.17 288.30 461.60 659.78 645.48 507.16 852.29 476.34 801.00 646.18 681.76 755.82 859.30 728.24
00008230 00000119 483.00 290.55 455.83 658.41 654.09 507.19 861.21 477.64 806.55 646.84 693.57 762.69 864.72 735.53
00008231 00000120 485.00 300.84 458.65 650.18 661.56 509.97 865.25 481.37 811.70 649.53 698.88 763.03 866.55 736.66
00008232 00000121 490.28 312.43 458.12 639.68 666.58 516.81 867.15 486.65 816.08 655.41 707.06 766.78 871.02 738.94
00008233 00000122 494.83 306.69 456.34 651.73 670.29 520.89 872.26 492.42 818.83 659.55 710.54 770.85 874.92 744.41
00008234 00000123 491.44 283.63 462.15 677.29 674.44 524.71 864.59 496.00 823.06 665.26 709.35 776.35 884.52 751.70
00008235 00000124 501.12 305.28 456.61 660.11 672.47 530.03 875.87 499.58 818.55 674.39 714.43 778.40 880.70 750.24
00008236 00000125 500.39 304.25 458.45 663.60 673.62 530.99 877.59 502.26 819.34 678.54 713.51 780.72 879.76 754.04
00008237 00000126 498.53 301.20 460.32 667.33 670.79 531.97 876.86 502.59 818.25 678.22 712.15 782.09 879.80 754.74
00008238 00000127 498.17 305.75 459.99 662.52 667.94 531.68 875.25 505.73 814.78 679.31 709.03 780.67 878.96 756.12
00008239 00000128 495.98 301.92 459.54 666.82 664.19 530.00 873.00 506.46 809.50 681.14 702.53 780.39 874.27 757.81
00008240 00000129 491.11 305.46 464.23 665.58 661.62 528.72 869.84 505.97 806.12 681.15 697.56 779.91 870.56 757.91
00008241 00000130 489.36 298.75 461.81 672.92 658.49 535.20 864.38 511.81 801.73 679.61 694.80 781.28 866.43 758.89
00008242 00000131 483.27 280.55 464.17 682.16 663.06 543.60 853.25 516.68 806.06 677.67 686.46 778.69 866.67 757.17
00008243 00000132 481.39 279.28 466.32 682.27 660.90 533.76 853.00 509.15 801.20 676.33 682.87 774.56 865.90 754.53
00008244 00000133 488.66 305.58 461.99 657.30 654.47 524.14 862.84 502.52 796.20 673.07 687.58 770.02 862.34 749.39
00008245 00000134 489.34 308.68 460.39 646.79 654.18 517.88 863.15 496.36 796.87 666.62 687.00 763.86 861.97 743.22
00008246 00000135 488.26 302.37 461.07 646.40 652.48 512.91 860.85 492.08 792.69 661.41 683.43 757.93 859.52 737.94
00008247 00000136 486.93 281.26 458.55 663.88 650.84 506.33 855.40 484.07 791.95 652.51 680.82 753.55 857.36 732.65
00008248 00000137 488.14 275.04 459.05 658.66 652.39 497.53 856.29 474.29 792.00 644.68 683.18 746.40 858.29 724.62
00008249 00000138 490.02 257.63 454.87 660.38 648.22 488.71 851.29 468.05 796.88 634.64 692.47 733.66 873.52 717.49
00008250 00000139 492.48 255.06 462.78 668.27 658.76 477.94 864.55 455.03 805.60 626.76 700.72 733.59 874.55 710.71
CROP_BBOX: 177 0 1289 1080
