Video ID: 	rFQ-qqmUeOE
H: 	1080
W: 	1920
FPS: 	23.976023976023978

FRAME INDEX X0 Y0 W H [Landmarks (5 Points)]

00008584 00000000 891.75 127.23 452.32 656.18 1040.03 380.21 1251.18 401.60 1152.09 518.92 1034.23 610.01 1212.57 628.19
00008585 00000001 889.21 126.54 454.38 664.20 1039.75 378.02 1250.85 399.71 1152.73 516.01 1033.76 610.78 1212.32 629.26
00008586 00000002 892.14 119.74 447.57 681.69 1044.31 372.40 1248.53 398.91 1156.31 511.27 1034.01 616.27 1211.00 637.41
00008587 00000003 889.13 117.36 448.54 688.92 1042.64 372.24 1245.75 399.99 1154.90 510.28 1028.97 614.92 1209.47 637.06
00008588 00000004 889.77 121.50 446.50 679.78 1041.10 373.93 1244.93 400.19 1154.10 510.72 1028.14 613.34 1210.79 634.19
00008589 00000005 882.65 122.02 453.49 668.06 1031.13 375.44 1243.17 395.16 1147.88 509.90 1027.48 607.76 1210.32 624.67
00008590 00000006 881.56 119.61 452.23 666.93 1029.33 371.33 1242.70 390.62 1147.44 506.74 1026.05 604.22 1209.99 621.04
00008591 00000007 882.55 118.16 450.08 660.58 1028.32 369.74 1242.37 388.18 1146.73 505.00 1025.32 600.51 1210.10 616.82
00008592 00000008 883.71 117.32 448.81 657.67 1028.73 369.88 1242.82 388.25 1146.60 504.16 1024.71 598.55 1210.17 614.85
00008593 00000009 883.85 117.12 447.86 654.56 1028.25 369.79 1241.97 388.42 1145.44 504.16 1023.46 596.72 1209.52 613.20
00008594 00000010 883.43 119.78 447.36 651.47 1027.91 372.00 1241.47 389.61 1145.13 506.32 1024.04 597.85 1209.07 613.51
00008595 00000011 883.08 118.37 448.80 658.04 1027.93 373.46 1241.11 390.43 1145.51 507.86 1024.42 600.37 1209.70 615.32
00008596 00000012 881.67 122.87 450.61 656.81 1026.95 373.50 1240.04 391.21 1143.30 510.04 1022.55 601.16 1207.45 616.79
00008597 00000013 880.61 123.72 449.53 655.57 1023.27 379.94 1234.86 395.77 1137.18 511.78 1019.49 604.51 1201.90 618.66
00008598 00000014 877.88 132.10 449.11 646.05 1012.71 393.39 1222.61 410.42 1117.76 517.51 1005.22 603.36 1193.50 617.72
00008599 DELETE   877.62 143.68 445.87 631.20 999.67 397.93 1208.59 419.83 1091.69 522.41 985.35 603.90 1170.76 622.61
00008600 DELETE   870.94 144.74 449.65 631.42 982.72 392.12 1185.66 427.79 1057.53 521.52 960.52 600.67 1138.17 630.76
00008601 00000017 871.26 143.59 447.13 633.65 967.91 390.73 1169.91 437.20 1032.27 518.46 945.21 600.11 1116.75 639.89
00008602 00000018 866.61 148.53 448.39 630.87 964.48 387.84 1163.82 442.49 1019.46 518.99 933.83 596.36 1101.93 642.91
00008603 00000019 862.35 151.47 450.49 630.28 960.80 387.97 1160.16 445.53 1013.48 520.13 928.53 596.35 1096.13 645.38
00008604 00000020 860.66 145.27 442.50 639.68 960.41 385.75 1148.48 438.25 1000.92 522.61 921.41 598.59 1091.19 640.73
00008605 00000021 861.09 148.46 440.10 644.23 957.96 386.02 1145.01 437.60 998.50 522.38 919.32 603.93 1087.27 645.15
00008606 00000022 862.18 149.04 440.02 647.94 955.31 385.10 1139.60 435.34 998.97 522.36 923.13 603.32 1077.48 646.15
00008607 00000023 860.47 141.86 442.19 650.79 954.22 387.55 1146.54 441.26 996.81 511.19 918.15 600.40 1072.63 646.88
00008608 00000024 857.13 141.03 442.17 648.13 953.01 385.30 1144.17 437.83 994.06 508.21 916.61 596.53 1070.00 641.92
00008609 00000025 856.33 139.36 443.24 648.94 952.72 383.91 1144.80 435.68 995.51 506.20 917.18 595.65 1069.88 640.43
00008610 00000026 856.27 140.14 443.72 649.13 952.71 383.02 1145.28 433.85 996.03 505.89 918.62 596.03 1072.36 639.89
00008611 00000027 854.12 137.68 439.12 658.48 952.73 379.48 1137.01 425.47 993.49 510.48 917.13 603.62 1079.65 640.10
00008612 00000028 853.29 139.90 445.33 656.47 951.19 383.67 1145.00 433.23 995.46 507.46 918.77 598.31 1078.09 640.92
00008613 00000029 852.51 136.30 442.03 663.03 952.53 381.98 1140.78 426.61 995.30 513.36 917.41 604.47 1087.98 639.37
00008614 00000030 856.68 138.93 445.06 659.07 954.05 386.48 1147.82 434.87 1000.37 508.60 922.68 598.02 1085.20 639.64
00008615 00000031 854.13 136.50 441.30 661.81 953.66 381.76 1141.79 425.93 997.54 512.55 919.55 604.09 1090.81 638.69
00008616 00000032 855.63 137.04 440.89 660.60 954.60 381.89 1144.37 425.78 1000.03 512.29 920.10 603.62 1093.59 637.98
00008617 00000033 857.14 136.68 441.82 662.91 956.01 382.54 1147.03 426.28 1002.21 513.06 921.68 605.32 1095.96 639.78
00008618 00000034 857.88 137.16 442.30 661.94 958.22 381.87 1148.25 425.72 1004.44 511.70 924.22 603.23 1098.47 637.80
00008619 00000035 858.95 134.80 441.03 663.48 958.77 382.24 1149.74 426.53 1005.57 512.65 924.89 603.36 1099.86 638.39
00008620 00000036 859.76 133.54 441.60 663.20 960.32 383.42 1151.37 428.87 1007.36 516.40 926.07 602.96 1101.76 638.88
00008621 00000037 860.40 137.19 442.35 659.05 961.60 384.38 1153.14 429.83 1009.71 517.31 927.57 601.67 1104.65 637.77
00008622 00000038 860.64 139.49 441.90 657.87 961.97 385.32 1153.38 430.38 1011.28 518.81 928.88 603.01 1106.41 638.52
00008623 00000039 863.02 142.31 449.10 661.07 964.42 390.34 1158.68 432.61 1016.72 522.55 933.79 607.80 1106.26 644.50
00008624 00000040 863.58 144.43 449.04 659.18 966.73 391.95 1161.91 434.00 1020.57 525.76 936.88 608.94 1110.82 645.42
00008625 00000041 864.31 144.07 449.43 657.42 968.17 393.86 1165.14 432.15 1027.68 526.93 941.32 610.38 1118.58 643.69
00008626 00000042 865.79 144.93 452.63 652.57 973.80 402.16 1171.97 437.52 1041.95 530.64 949.72 612.14 1130.52 642.69
00008627 00000043 874.54 159.11 444.03 634.97 990.49 408.14 1189.24 439.62 1070.56 534.54 968.80 615.34 1151.51 640.57
00008628 00000044 879.98 158.94 442.08 639.72 1000.79 407.17 1205.77 434.37 1090.15 538.47 981.90 620.17 1168.06 642.25
00008629 00000045 885.83 159.63 439.95 642.10 1011.33 402.56 1214.33 427.77 1104.10 539.44 994.91 622.23 1180.86 642.57
00008630 00000046 889.69 158.65 442.50 650.53 1019.10 403.32 1225.69 429.87 1115.94 541.63 1004.20 627.45 1191.37 648.97
00008631 00000047 890.96 154.90 444.54 661.81 1025.35 403.12 1230.73 430.23 1124.46 543.63 1011.21 631.87 1195.40 654.07
00008632 00000048 889.64 153.41 446.51 670.38 1026.99 398.13 1230.62 425.62 1126.94 538.35 1010.39 630.33 1196.24 652.99
00008633 00000049 886.38 151.03 445.77 674.96 1024.16 395.09 1228.16 421.84 1124.37 534.50 1007.22 631.37 1192.69 653.49
00008634 00000050 883.46 150.80 446.11 674.09 1021.14 397.29 1225.92 421.18 1123.42 536.16 1007.16 633.49 1191.06 653.40
00008635 00000051 883.22 151.40 444.57 661.58 1018.81 398.18 1225.18 421.58 1122.45 537.21 1006.95 630.93 1188.65 650.32
00008636 00000052 882.23 150.44 444.12 657.20 1016.32 398.86 1224.12 419.89 1122.04 537.01 1006.54 629.00 1189.57 646.21
00008637 00000053 879.62 150.21 446.03 663.07 1016.54 399.73 1224.24 420.52 1123.61 538.63 1005.25 630.72 1191.84 647.78
00008638 00000054 877.46 151.95 447.15 667.09 1016.54 400.04 1222.24 419.90 1121.86 537.69 1005.64 632.58 1190.91 649.09
00008639 00000055 876.00 148.77 447.31 666.90 1014.44 398.60 1221.39 417.38 1122.13 534.70 1004.12 629.43 1193.00 644.73
00008640 00000056 875.17 145.12 447.29 667.39 1014.21 396.00 1220.50 414.21 1122.37 532.15 1003.06 626.14 1193.85 640.67
00008641 00000057 875.78 145.50 446.88 662.28 1014.02 394.69 1221.35 411.47 1123.48 530.27 1005.94 624.97 1195.42 638.29
00008642 00000058 873.79 141.50 449.38 667.65 1016.43 393.70 1220.83 409.88 1126.69 529.23 1008.65 622.91 1194.86 635.70
00008643 00000059 875.74 139.91 447.77 660.50 1017.26 391.19 1224.15 407.07 1129.80 526.97 1011.78 619.75 1197.70 632.21
00008644 00000060 875.36 135.35 456.09 660.96 1020.75 392.51 1230.81 404.90 1135.73 527.26 1022.31 619.54 1201.67 630.45
00008645 00000061 882.17 135.90 445.35 662.54 1024.97 389.04 1231.28 405.48 1140.28 523.91 1019.81 619.33 1204.87 632.23
00008646 00000062 884.03 131.83 445.98 668.91 1029.82 387.69 1235.66 404.37 1146.41 524.16 1023.81 619.08 1209.13 632.24
00008647 00000063 885.11 131.49 446.85 669.01 1031.83 387.47 1237.82 403.53 1150.64 524.52 1026.15 619.02 1212.29 631.69
00008648 00000064 887.31 131.28 445.31 666.84 1032.42 388.79 1238.90 404.05 1152.27 524.10 1029.28 619.59 1214.59 631.50
00008649 00000065 888.13 130.51 444.95 667.16 1032.36 388.75 1239.59 403.48 1152.86 523.61 1030.77 619.45 1216.41 630.82
00008650 00000066 888.21 129.50 444.44 670.58 1032.74 388.98 1239.09 403.06 1153.30 523.90 1031.14 620.76 1216.37 631.60
00008651 00000067 887.81 130.17 444.79 671.15 1032.49 388.69 1239.25 403.23 1152.88 524.87 1031.46 624.08 1213.85 635.23
00008652 00000068 889.35 130.25 444.07 669.82 1032.96 389.51 1240.51 403.64 1153.67 525.32 1032.33 625.26 1214.43 636.14
00008653 00000069 888.52 129.22 444.81 672.39 1033.26 388.66 1240.11 402.70 1153.89 524.61 1032.22 624.28 1214.57 635.06
00008654 00000070 887.82 128.36 446.05 676.49 1033.55 386.50 1240.49 400.91 1153.54 522.98 1032.52 625.84 1213.68 636.99
00008655 00000071 888.53 127.06 446.33 680.01 1035.81 386.55 1241.58 401.57 1154.81 523.24 1031.95 625.06 1216.22 636.76
00008656 00000072 888.58 126.98 446.20 680.49 1036.62 386.36 1242.44 401.60 1155.77 522.12 1031.66 623.71 1218.20 635.58
00008657 00000073 887.75 125.31 446.06 681.72 1036.99 385.52 1241.32 401.63 1155.19 521.04 1030.22 621.06 1217.12 633.68
00008658 00000074 886.79 124.89 446.93 679.08 1035.61 384.72 1241.29 401.72 1154.88 518.18 1028.75 617.72 1218.24 630.94
00008659 00000075 886.97 126.36 446.15 675.94 1035.08 383.82 1239.85 401.21 1153.53 516.47 1027.42 615.04 1218.00 628.70
00008660 00000076 884.92 124.94 445.87 678.04 1033.62 383.54 1237.41 401.01 1151.57 516.64 1025.06 614.58 1215.20 628.23
00008661 00000077 882.28 127.54 445.66 675.40 1029.84 383.65 1234.32 399.49 1148.39 516.87 1022.06 614.90 1213.11 627.24
00008662 00000078 880.16 127.09 445.90 676.98 1028.07 384.40 1230.79 399.17 1146.33 518.15 1020.57 615.93 1211.46 627.40
00008663 00000079 878.78 128.74 445.35 675.98 1026.05 383.90 1228.63 397.93 1144.37 518.50 1019.61 616.34 1210.23 627.15
00008664 00000080 877.28 130.26 445.44 673.46 1023.77 382.08 1227.37 395.80 1141.59 516.89 1018.58 615.82 1209.34 626.31
00008665 00000081 875.15 130.40 446.95 673.57 1022.00 382.21 1226.40 395.52 1140.47 517.01 1018.49 616.36 1209.46 626.49
00008666 00000082 876.97 129.93 445.29 674.48 1022.81 382.93 1226.23 395.57 1141.17 518.20 1018.83 616.91 1209.85 626.48
00008667 00000083 870.82 126.79 453.72 677.13 1018.16 390.47 1229.15 396.90 1139.12 519.30 1021.56 615.57 1211.35 621.58
00008668 00000084 870.36 125.66 453.71 669.68 1017.62 394.90 1231.09 403.40 1137.12 517.73 1019.97 612.65 1209.62 620.30
00008669 00000085 872.38 125.21 453.20 662.81 1017.46 390.36 1233.37 396.26 1138.41 519.45 1019.91 611.52 1208.43 617.53
00008670 00000086 875.57 125.08 451.65 662.00 1020.79 387.39 1233.63 394.07 1141.00 519.12 1023.37 611.17 1207.86 618.03
00008671 00000087 876.55 125.84 450.67 659.76 1020.91 386.78 1233.88 393.98 1140.72 518.96 1023.06 611.26 1206.52 618.64
00008672 00000088 876.67 124.97 451.27 663.17 1021.69 383.45 1234.34 392.67 1140.84 517.61 1023.89 611.60 1205.78 620.61
00008673 00000089 880.74 124.28 446.18 671.74 1024.96 378.34 1236.12 394.95 1145.14 517.02 1023.45 617.44 1205.86 630.48
00008674 00000090 879.48 125.49 447.55 672.94 1026.32 378.15 1234.59 396.19 1143.88 517.33 1022.52 617.08 1202.71 631.40
00008675 00000091 876.95 125.50 448.88 673.64 1024.28 378.31 1232.81 396.34 1141.75 518.74 1020.45 617.93 1199.90 632.33
00008676 00000092 873.55 129.76 453.11 664.01 1019.28 382.63 1232.82 391.96 1138.97 520.18 1021.63 615.70 1201.06 625.14
00008677 00000093 873.35 130.27 452.16 656.72 1017.17 383.88 1232.21 392.83 1136.34 520.91 1018.63 613.93 1199.37 623.16
00008678 00000094 872.20 132.61 449.89 649.99 1013.20 382.80 1225.85 391.40 1129.44 518.60 1014.94 610.97 1192.78 619.90
00008679 00000095 869.15 132.36 450.01 648.20 1010.14 382.92 1222.39 390.95 1125.70 517.82 1012.74 610.66 1188.81 619.18
00008680 00000096 867.66 134.18 449.40 645.97 1007.32 383.52 1219.66 390.46 1122.82 517.61 1011.24 611.24 1187.49 618.83
00008681 00000097 864.58 127.93 448.60 647.19 1005.06 381.34 1217.28 387.86 1121.18 514.79 1008.19 607.82 1185.54 615.09
00008682 00000098 860.83 126.65 447.94 647.59 1002.77 379.11 1214.07 385.38 1118.99 510.84 1005.13 604.19 1183.15 611.27
00008683 00000099 860.24 126.37 448.11 655.27 1000.95 375.66 1212.80 382.97 1117.20 507.25 1003.68 605.56 1182.39 613.38
00008684 00000100 860.49 124.87 448.74 670.20 1003.15 371.68 1211.71 380.49 1119.89 503.93 1007.59 608.92 1183.84 618.00
00008685 00000101 860.74 118.30 445.41 671.67 1001.25 369.37 1211.33 380.30 1117.90 500.73 1003.46 604.61 1183.68 615.23
00008686 00000102 860.68 115.02 442.47 668.72 999.69 369.09 1209.11 379.44 1115.08 498.40 1001.02 600.56 1182.01 610.72
00008687 00000103 861.47 113.32 442.69 666.95 1000.15 367.57 1210.29 377.57 1115.85 496.46 1002.01 598.99 1183.46 608.88
00008688 00000104 862.43 109.87 443.05 666.91 1000.39 365.24 1211.33 375.46 1116.41 493.06 1001.70 596.60 1184.43 606.56
00008689 00000105 861.73 106.74 442.25 666.39 1000.13 361.65 1210.69 372.57 1115.85 490.54 1000.38 592.42 1184.61 602.79
00008690 00000106 861.91 102.14 442.67 667.60 999.65 359.57 1211.04 369.61 1115.91 488.55 999.94 589.72 1185.79 599.22
00008691 00000107 863.57 101.55 442.22 663.10 999.73 357.98 1211.48 366.46 1115.54 486.78 1003.15 589.07 1185.69 597.37
00008692 00000108 861.24 98.38 442.42 666.10 998.51 356.16 1209.39 364.51 1113.20 485.42 1000.77 586.81 1183.30 595.10
CROP_BBOX: 588 0 1607 971
