Video ID: 	5zLMtu4mufY
H: 	1080
W: 	1920
FPS: 	25.0

FRAME INDEX X0 Y0 W H [Landmarks (5 Points)]

00002590 00000000 1123.58 73.43 391.78 617.99 1258.64 321.87 1436.28 343.50 1374.22 429.69 1267.39 530.46 1423.39 547.37
00002591 00000001 1125.56 73.55 396.16 620.31 1263.18 321.49 1437.65 340.44 1377.15 428.92 1272.53 529.50 1426.27 544.13
00002592 00000002 1123.78 74.09 390.97 624.80 1258.32 318.67 1427.42 344.33 1361.94 429.40 1253.85 524.82 1410.20 545.35
00002593 DELETE   1116.21 72.67 393.01 627.99 1241.12 321.68 1420.86 347.77 1333.52 428.84 1230.69 527.36 1392.62 548.52
00002594 DELETE   1100.37 85.59 397.18 599.92 1219.39 313.31 1392.15 341.70 1294.78 419.96 1207.89 513.31 1362.55 537.21
00002595 DELETE   1095.61 91.66 391.75 588.70 1192.76 307.11 1372.57 337.08 1250.59 415.36 1174.05 509.03 1337.00 534.78
00002596 00000006 1088.50 100.33 391.89 583.57 1180.27 296.86 1359.09 337.80 1222.14 416.11 1150.66 501.15 1311.44 535.66
00002597 00000007 1086.17 107.32 394.95 568.06 1173.49 294.63 1348.36 339.87 1204.50 420.28 1138.12 499.42 1286.34 538.30
00002598 00000008 1084.40 104.43 395.00 572.55 1169.86 296.18 1339.66 345.88 1194.24 423.17 1133.48 503.08 1276.43 544.94
00002599 00000009 1089.45 106.42 380.65 564.42 1167.49 296.62 1326.60 347.80 1191.00 430.10 1131.15 507.36 1257.32 551.54
00002600 00000010 1087.16 103.26 394.88 568.85 1170.56 303.48 1341.83 346.81 1203.67 428.55 1142.15 508.52 1280.76 545.43
00002601 00000011 1086.29 104.95 393.71 565.18 1173.95 303.97 1344.32 346.57 1209.89 435.87 1145.62 510.77 1279.97 547.54
00002602 00000012 1089.17 108.38 387.18 569.12 1173.52 306.96 1343.88 348.22 1209.65 437.32 1148.52 519.32 1281.39 555.63
00002603 00000013 1091.77 106.75 377.97 575.58 1167.15 304.29 1331.05 348.32 1199.05 441.99 1138.30 525.23 1262.78 564.17
00002604 00000014 1089.45 97.55 375.45 595.28 1160.38 304.44 1322.76 351.55 1186.29 441.66 1131.01 523.45 1255.30 564.99
00002605 00000015 1088.10 95.05 378.11 600.58 1157.64 306.12 1319.07 353.82 1182.38 444.24 1128.97 524.19 1254.76 566.16
00002606 00000016 1090.19 102.77 381.05 595.64 1158.84 310.52 1319.47 349.12 1185.85 442.69 1140.27 527.33 1260.55 559.96
00002607 00000017 1092.20 98.85 380.89 599.01 1163.24 307.96 1328.99 348.22 1194.86 440.62 1140.62 526.96 1266.25 563.07
00002608 00000018 1090.45 107.84 385.88 587.10 1161.65 310.27 1324.70 346.44 1193.77 438.29 1147.05 524.69 1270.72 555.73
00002609 00000019 1087.52 100.10 385.30 587.37 1160.04 307.55 1320.80 344.07 1190.91 436.08 1141.52 519.18 1264.81 550.44
00002610 00000020 1084.85 102.16 383.14 584.64 1156.59 307.20 1313.50 343.63 1183.02 435.52 1135.56 517.74 1257.56 548.41
00002611 00000021 1083.52 106.97 377.96 581.44 1152.55 302.02 1313.36 347.57 1175.09 436.34 1123.23 518.89 1249.70 558.72
00002612 00000022 1083.48 107.21 379.32 582.01 1152.83 302.79 1313.22 349.62 1176.31 441.78 1125.51 518.93 1252.89 559.48
00002613 00000023 1085.63 105.87 380.06 582.75 1154.26 310.77 1312.73 348.96 1183.00 444.79 1135.66 519.99 1260.17 551.63
00002614 00000024 1083.37 103.02 375.77 585.14 1154.32 306.11 1317.70 351.56 1185.44 445.24 1128.87 520.07 1261.06 559.45
00002615 00000025 1083.00 95.23 374.09 591.50 1154.67 305.70 1318.94 350.64 1186.98 442.79 1127.14 520.96 1257.89 560.21
00002616 00000026 1077.72 97.36 379.40 585.59 1156.08 310.81 1318.51 350.72 1188.61 440.72 1130.36 522.06 1261.57 556.13
00002617 00000027 1078.85 104.91 378.42 582.69 1163.39 321.64 1327.37 357.50 1203.16 441.22 1142.31 526.41 1277.05 557.77
00002618 00000028 1081.41 101.66 371.94 592.56 1171.07 324.11 1336.04 354.59 1218.88 442.08 1157.13 529.44 1295.35 556.35
00002619 00000029 1080.65 102.25 383.79 596.16 1178.55 324.86 1345.12 352.47 1235.84 444.62 1167.71 537.00 1298.85 561.64
00002620 00000030 1078.86 90.10 392.30 612.10 1184.93 329.12 1350.93 356.00 1249.58 445.68 1180.61 542.11 1311.82 565.57
00002621 00000031 1079.81 103.12 392.51 606.06 1180.32 336.20 1353.48 352.89 1258.37 448.89 1188.88 550.21 1313.79 564.29
00002622 00000032 1076.43 109.81 393.00 601.81 1177.82 338.44 1351.63 353.09 1260.20 451.77 1190.37 553.89 1315.99 566.05
00002623 00000033 1074.70 115.28 391.15 599.22 1176.27 339.58 1349.39 353.31 1261.25 454.46 1191.12 556.53 1316.60 567.75
00002624 00000034 1070.79 114.42 388.85 598.54 1175.91 348.89 1344.51 360.92 1262.25 452.63 1191.98 556.64 1317.86 566.34
00002625 00000035 1067.21 112.30 394.18 599.29 1174.48 350.58 1346.42 360.27 1262.88 452.53 1191.18 556.76 1322.32 564.30
00002626 00000036 1064.39 114.85 392.31 597.10 1172.11 349.89 1344.00 360.08 1262.64 453.42 1190.80 557.03 1322.71 564.87
00002627 00000037 1060.10 102.93 398.97 605.46 1172.53 346.49 1349.45 362.04 1262.48 455.35 1186.72 553.88 1332.80 567.08
00002628 00000038 1062.11 110.65 397.55 601.39 1171.83 346.05 1348.34 356.19 1265.93 453.48 1193.04 557.78 1327.24 565.41
00002629 00000039 1059.78 97.43 403.06 610.09 1174.39 341.73 1353.22 353.40 1267.75 450.77 1191.42 553.23 1336.73 563.01
00002630 00000040 1059.36 96.47 404.33 607.81 1174.30 339.92 1353.54 349.67 1270.68 446.26 1194.70 550.02 1342.07 557.81
00002631 00000041 1055.62 99.98 401.90 602.95 1170.72 343.48 1348.34 353.82 1266.52 444.04 1189.00 547.03 1338.29 555.44
00002632 00000042 1050.19 106.98 400.39 596.72 1158.30 339.87 1336.20 348.41 1248.04 442.60 1174.88 546.53 1325.52 553.95
00002633 00000043 1044.95 101.85 392.24 606.22 1144.62 335.39 1325.60 347.86 1228.27 444.13 1153.63 545.46 1306.45 556.54
00002634 00000044 1039.97 100.13 395.86 605.97 1129.79 332.36 1311.30 341.42 1209.42 442.04 1138.85 544.59 1287.52 553.32
00002635 00000045 1029.50 121.99 388.06 577.21 1115.58 350.89 1293.24 352.49 1188.01 447.02 1130.10 550.24 1273.76 551.41
00002636 DELETE   1031.86 120.44 373.62 583.05 1104.76 351.67 1272.73 355.54 1165.97 448.84 1113.90 547.66 1255.29 551.38
00002637 DELETE   1027.75 123.48 372.20 582.38 1092.97 350.03 1252.53 358.25 1142.15 452.66 1100.67 543.89 1235.99 551.95
00002638 00000048 1017.78 112.06 385.32 599.93 1085.33 335.44 1245.09 355.98 1127.08 450.50 1084.56 547.28 1211.84 564.49
00002639 00000049 1019.65 124.53 378.04 585.90 1078.71 340.23 1234.59 357.29 1114.85 454.01 1077.96 546.04 1206.44 561.06
00002640 00000050 1017.46 129.61 378.98 587.01 1082.26 340.96 1242.20 357.26 1124.89 454.32 1082.82 546.13 1217.08 560.34
00002641 DELETE   1021.88 123.93 374.89 596.04 1092.74 354.75 1254.83 363.80 1146.17 456.86 1101.80 548.39 1244.64 555.74
00002642 00000052 1017.14 120.18 389.93 601.08 1102.10 357.33 1275.38 363.08 1173.58 461.02 1115.01 554.40 1267.72 558.28
00002643 00000053 1012.30 111.98 399.25 610.77 1108.96 359.79 1286.33 365.91 1191.58 464.50 1124.68 555.83 1281.63 559.68
00002644 00000054 1008.21 110.49 388.29 600.82 1107.21 358.19 1287.16 364.15 1193.75 467.83 1122.67 555.20 1284.26 559.80
00002645 00000055 999.51 112.32 388.37 589.58 1096.51 358.35 1272.81 364.94 1182.30 471.10 1113.14 552.96 1268.61 558.06
00002646 00000056 989.99 120.68 389.12 575.64 1080.72 357.55 1258.15 365.38 1161.55 472.19 1097.29 549.89 1251.31 556.06
00002647 00000057 985.00 121.07 387.83 581.30 1064.66 354.43 1238.10 365.44 1136.46 468.12 1075.42 560.12 1221.65 569.44
00002648 DELETE   974.44 118.73 378.44 586.04 1045.40 356.80 1220.49 364.59 1118.54 483.45 1061.38 563.36 1203.71 570.13
00002649 00000059 965.12 113.83 376.18 593.41 1024.29 361.65 1199.10 361.26 1097.66 484.14 1046.26 569.84 1183.55 569.53
00002650 00000060 954.30 128.32 374.26 576.25 1016.70 359.05 1183.73 365.22 1076.22 475.81 1033.87 564.93 1158.27 570.18
00002651 00000061 941.93 116.69 361.36 591.78 999.12 355.42 1167.59 361.66 1056.02 478.86 1016.88 560.56 1157.05 566.40
00002652 00000062 929.61 117.99 360.32 582.47 992.70 354.65 1163.99 362.08 1049.41 475.42 1006.18 557.75 1149.64 564.51
00002653 00000063 931.33 124.21 342.10 584.70 991.89 358.30 1154.43 355.37 1050.42 471.92 1012.94 567.33 1143.63 566.38
00002654 00000064 932.33 115.80 350.47 591.26 998.30 350.31 1155.59 361.36 1052.69 464.59 1012.32 557.32 1140.34 567.32
00002655 00000065 932.86 116.85 355.16 586.21 1003.79 351.96 1158.90 361.50 1063.34 465.32 1020.30 556.52 1145.75 565.19
00002656 00000066 932.65 132.09 368.37 573.73 1004.52 355.56 1165.39 355.18 1072.45 461.27 1031.91 558.32 1158.92 558.33
00002657 00000067 927.02 122.97 379.61 572.41 1006.13 357.99 1176.93 353.30 1081.14 464.41 1034.92 555.38 1178.87 551.17
00002658 00000068 924.58 119.22 388.17 570.74 1011.06 355.68 1188.36 349.53 1094.41 459.56 1042.40 552.05 1191.65 546.62
00002659 00000069 931.60 128.13 388.99 575.54 1021.77 348.41 1195.86 338.32 1109.48 448.67 1055.53 553.76 1194.99 544.44
00002660 00000070 934.26 132.78 396.24 580.07 1028.81 343.63 1203.23 327.85 1120.23 438.03 1064.77 550.80 1209.16 536.50
00002661 00000071 937.18 123.84 398.03 581.14 1035.95 342.46 1214.49 325.84 1130.58 433.93 1070.23 546.57 1218.73 530.91
00002662 00000072 939.27 106.61 397.20 582.02 1044.26 336.06 1224.17 329.71 1144.61 427.77 1074.89 536.83 1230.35 531.32
00002663 00000073 946.07 107.87 397.16 574.66 1052.77 334.93 1233.91 327.66 1154.90 425.77 1082.35 533.61 1239.74 527.53
00002664 00000074 952.88 101.67 396.48 574.94 1061.59 330.14 1241.61 322.54 1162.48 421.80 1091.19 529.84 1245.97 523.16
00002665 00000075 954.13 96.96 399.47 575.48 1061.28 326.91 1242.52 320.58 1160.62 419.63 1090.58 525.62 1247.54 520.06
00002666 00000076 954.69 90.14 398.44 580.42 1059.74 323.26 1240.02 318.77 1154.24 417.25 1085.01 521.28 1241.21 517.68
00002667 00000077 952.67 91.55 396.30 584.17 1055.73 322.21 1230.24 318.18 1145.69 413.66 1078.34 519.51 1231.12 516.93
00002668 00000078 950.54 99.22 392.58 576.10 1044.07 323.15 1212.94 314.99 1124.19 414.43 1067.77 522.32 1213.97 516.16
00002669 00000079 950.39 95.65 391.58 578.85 1031.06 324.47 1200.33 315.21 1099.87 417.26 1051.86 523.83 1199.06 517.05
00002670 00000080 952.23 95.79 381.46 570.81 1022.07 321.63 1190.92 317.57 1083.61 421.98 1036.56 522.35 1182.46 520.50
00002671 00000081 953.95 87.98 380.85 572.74 1019.64 319.37 1187.97 319.75 1076.07 422.69 1030.23 521.14 1173.28 523.07
00002672 00000082 958.42 89.88 378.67 571.38 1028.24 321.73 1200.20 321.05 1090.20 423.66 1040.62 520.46 1187.18 521.44
00002673 00000083 968.34 94.99 378.62 566.83 1048.08 329.15 1225.33 326.71 1120.12 430.13 1066.96 526.45 1212.84 525.78
00002674 00000084 973.68 111.57 377.01 573.79 1057.01 328.80 1242.34 332.85 1140.60 440.78 1082.28 538.02 1230.61 539.75
00002675 00000085 979.15 115.59 393.09 584.53 1073.11 340.01 1258.43 344.13 1156.78 446.33 1087.62 541.52 1253.34 544.64
00002676 00000086 985.91 112.92 392.41 593.11 1079.19 355.72 1266.79 357.04 1168.59 464.15 1096.64 550.91 1265.47 551.42
00002677 00000087 996.64 116.24 392.91 596.10 1086.52 366.20 1276.32 368.49 1175.51 470.66 1106.41 562.29 1271.09 563.91
00002678 00000088 1003.89 124.40 380.81 621.02 1097.16 381.51 1274.55 378.65 1190.92 474.26 1116.87 578.74 1276.24 577.19
00002679 00000089 1012.46 135.40 382.24 612.56 1103.37 373.25 1278.42 374.10 1188.90 475.85 1114.94 573.79 1277.51 574.58
00002680 00000090 1015.46 121.07 388.61 606.44 1112.30 363.56 1288.30 367.16 1202.17 470.50 1124.05 559.97 1286.68 564.18
00002681 00000091 1033.33 126.65 368.35 583.64 1123.76 357.34 1302.68 356.94 1216.29 460.50 1137.98 550.78 1301.45 551.07
00002682 00000092 1041.25 120.27 380.90 579.60 1141.37 343.04 1321.02 350.31 1232.59 458.65 1154.61 541.25 1317.19 548.03
00002683 00000093 1049.73 100.44 397.41 587.89 1162.51 331.73 1344.54 345.32 1258.08 436.84 1169.56 527.99 1334.55 539.09
00002684 00000094 1061.11 74.83 397.87 614.38 1183.69 318.25 1364.94 334.94 1287.86 422.36 1188.79 521.58 1353.73 534.13
00002685 00000095 1070.68 67.98 399.50 617.61 1201.04 312.31 1379.01 330.99 1306.93 415.31 1204.21 514.33 1366.28 528.45
00002686 00000096 1078.30 65.75 394.97 612.93 1215.20 301.94 1387.02 323.16 1320.06 409.60 1215.78 507.43 1370.62 524.05
00002687 00000097 1084.75 61.93 389.95 604.53 1221.07 294.25 1394.85 317.47 1328.47 402.49 1222.08 498.95 1376.21 517.69
00002688 00000098 1088.11 61.68 385.88 589.09 1220.84 290.56 1398.73 313.95 1329.99 396.57 1222.21 492.26 1379.57 511.18
00002689 00000099 1088.28 60.32 384.68 580.18 1218.33 288.29 1397.74 312.80 1326.68 394.01 1218.04 486.67 1378.60 506.82
00002690 00000100 1085.09 66.00 383.82 571.43 1211.43 287.20 1388.54 309.24 1317.21 391.43 1213.47 483.56 1372.71 501.90
00002691 00000101 1078.52 70.83 388.27 572.45 1201.61 289.43 1378.95 309.68 1304.54 389.64 1204.96 485.36 1363.45 501.83
00002692 00000102 1070.81 73.05 393.04 573.52 1192.46 288.56 1369.71 310.79 1289.87 385.73 1192.21 487.45 1348.97 505.66
00002693 00000103 1063.74 72.21 393.50 575.49 1181.35 288.87 1353.60 309.13 1274.56 385.93 1182.89 488.96 1333.83 505.89
00002694 00000104 1061.19 71.31 388.12 578.93 1173.65 291.86 1346.84 312.53 1263.47 388.98 1173.41 489.14 1327.69 506.28
00002695 00000105 1056.87 71.71 386.88 576.24 1168.61 294.09 1339.53 313.98 1256.08 390.11 1168.33 489.36 1319.34 506.12
00002696 00000106 1056.35 71.69 386.24 575.72 1167.58 293.56 1338.26 313.25 1254.75 390.27 1167.43 489.38 1317.98 506.07
00002697 00000107 1058.05 69.84 387.73 579.65 1170.10 294.06 1342.63 312.31 1260.65 390.79 1173.62 490.25 1324.71 505.45
00002698 00000108 1058.82 72.79 389.45 586.23 1173.14 293.45 1344.88 312.72 1264.52 390.63 1175.75 492.53 1326.67 508.63
00002699 00000109 1059.63 75.51 391.02 589.13 1173.41 294.45 1346.41 312.99 1265.72 391.71 1178.60 497.08 1328.39 512.54
00002700 00000110 1060.38 73.31 391.68 595.38 1176.34 297.15 1348.90 315.16 1269.96 393.24 1180.96 499.92 1333.07 514.77
00002701 00000111 1060.60 73.79 393.42 597.24 1179.58 298.25 1350.11 316.46 1274.09 395.02 1184.35 501.26 1334.70 516.24
00002702 00000112 1062.36 69.91 392.76 601.32 1184.40 298.00 1356.18 315.62 1282.10 395.06 1189.08 501.12 1341.83 515.34
00002703 00000113 1063.04 67.71 394.31 600.87 1189.12 297.56 1360.98 315.54 1289.41 396.02 1194.37 501.07 1346.41 515.62
00002704 00000114 1063.93 66.73 394.78 603.48 1191.13 298.46 1364.17 315.36 1293.66 397.28 1197.30 503.04 1350.45 516.50
00002705 00000115 1063.36 67.00 394.91 603.29 1193.20 300.94 1366.18 315.70 1300.57 398.69 1202.39 505.67 1355.52 517.31
00002706 00000116 1064.47 67.18 395.07 602.04 1196.69 299.72 1369.41 313.93 1306.01 399.44 1208.93 507.54 1357.96 518.68
00002707 00000117 1067.77 68.17 393.69 590.04 1198.35 298.76 1372.49 311.38 1308.23 399.04 1215.34 507.35 1360.32 517.18
00002708 00000118 1067.20 65.21 393.44 594.61 1202.05 298.05 1374.62 311.39 1313.98 399.09 1218.71 506.12 1363.24 516.40
00002709 00000119 1068.51 61.55 391.12 601.08 1206.03 299.11 1374.41 310.40 1318.52 399.96 1225.22 506.94 1364.82 515.38
00002710 00000120 1068.73 63.83 391.37 603.73 1206.43 300.13 1374.17 310.87 1318.69 401.37 1225.88 509.29 1365.54 517.20
00002711 00000121 1067.23 66.27 393.05 602.65 1202.84 301.32 1367.77 309.69 1313.61 401.57 1223.36 510.25 1361.76 516.32
00002712 00000122 1062.25 66.48 394.42 597.61 1192.98 302.51 1363.05 308.89 1305.27 400.81 1216.84 511.11 1357.49 515.68
00002713 00000123 1056.69 61.42 393.33 606.99 1184.34 302.92 1352.33 310.54 1294.18 398.78 1204.44 509.87 1346.99 515.72
00002714 00000124 1049.65 66.43 394.09 605.85 1173.12 305.43 1341.03 314.63 1277.55 401.46 1189.90 510.43 1334.46 517.94
00002715 00000125 1046.04 67.66 391.02 605.28 1163.80 308.16 1329.97 317.38 1263.30 404.17 1180.20 512.79 1322.85 520.76
CROP_BBOX: 737 0 1755 933
