Video ID: 	qYNhQTVfBy8
H: 	1080
W: 	1920
FPS: 	23.97603947899316

FRAME INDEX X0 Y0 W H [Landmarks (5 Points)]

00004470 00000000 789.61 124.61 404.28 601.02 883.18 376.27 1074.88 368.18 979.77 471.97 914.10 587.21 1064.08 578.78
00004471 00000001 790.59 121.04 403.73 602.79 883.00 374.70 1076.35 365.77 978.83 466.35 912.58 582.85 1069.92 573.69
00004472 00000002 791.88 124.80 402.66 602.81 885.45 371.29 1079.08 362.92 979.47 462.81 913.66 581.80 1070.34 572.91
00004473 00000003 796.72 124.80 401.68 607.01 888.48 370.41 1082.95 362.54 981.73 467.01 914.56 584.73 1071.94 576.81
00004474 DELETE   798.69 123.31 407.74 608.69 892.34 369.94 1094.02 364.19 987.98 470.10 918.30 586.05 1081.26 579.20
00004475 DELETE   802.21 119.68 410.07 611.07 898.54 369.16 1100.15 362.66 998.40 473.92 927.00 585.40 1090.30 577.59
00004476 00000006 808.62 116.34 408.22 616.59 902.96 368.77 1107.27 360.19 1007.26 478.91 932.25 587.93 1101.28 579.28
00004477 00000007 810.10 119.98 409.60 612.83 906.96 368.04 1112.01 359.06 1012.21 476.75 937.66 589.11 1104.44 580.20
00004478 00000008 809.20 124.43 414.53 607.29 909.51 367.99 1114.04 359.98 1015.99 477.69 940.62 588.88 1106.04 580.93
00004479 00000009 810.16 125.94 416.62 600.10 911.35 367.27 1116.39 359.20 1018.15 478.25 942.71 588.60 1106.11 580.65
00004480 00000010 813.75 119.63 417.82 604.26 917.52 364.77 1120.02 361.69 1020.12 472.67 943.33 579.57 1106.39 577.97
00004481 00000011 814.49 119.27 418.56 601.90 918.26 364.19 1120.53 359.87 1021.24 471.88 947.02 579.00 1108.96 576.22
00004482 00000012 815.43 119.30 418.40 602.32 920.00 364.20 1122.49 360.45 1023.10 471.95 947.94 579.61 1108.85 577.41
00004483 00000013 817.96 120.59 415.80 603.55 921.90 365.44 1123.78 361.40 1024.45 472.86 950.26 583.66 1108.40 581.29
00004484 00000014 819.03 122.57 415.78 604.68 921.74 365.81 1126.15 361.38 1025.42 474.68 949.86 585.76 1112.05 582.80
00004485 00000015 818.42 121.75 416.07 608.11 920.95 366.06 1127.82 362.55 1026.10 475.23 945.92 585.98 1112.59 583.78
00004486 00000016 819.89 123.23 412.71 607.68 919.95 366.78 1126.78 365.70 1022.68 476.02 941.39 586.77 1107.93 586.69
00004487 00000017 816.08 124.28 414.89 607.60 917.45 368.53 1122.62 365.98 1020.33 476.49 941.75 587.56 1107.26 586.16
00004488 00000018 814.81 122.86 416.04 608.66 914.59 369.18 1118.19 365.11 1015.35 475.94 940.67 586.98 1105.81 584.27
00004489 00000019 811.08 124.88 414.67 600.80 908.71 371.92 1116.51 363.31 1014.02 481.77 940.87 594.27 1105.64 585.96
00004490 00000020 811.16 121.44 418.24 605.79 913.00 370.39 1117.74 366.27 1016.03 476.81 940.45 586.20 1105.90 583.46
00004491 00000021 811.05 122.23 419.06 603.80 912.80 371.97 1119.71 366.72 1016.77 478.18 940.07 587.37 1107.68 583.60
00004492 00000022 810.24 123.60 420.24 604.04 913.37 373.16 1120.75 367.52 1018.44 480.30 941.26 589.04 1108.88 584.88
00004493 00000023 810.34 124.77 420.27 607.33 913.36 374.69 1121.17 369.03 1019.75 482.58 941.88 593.03 1109.29 588.91
00004494 00000024 811.95 126.15 418.88 610.47 914.81 376.05 1120.80 370.51 1019.54 483.35 942.02 595.40 1107.06 591.55
00004495 00000025 810.87 127.20 419.93 608.63 916.20 375.85 1122.74 370.57 1022.65 484.70 944.11 595.35 1108.37 591.82
00004496 00000026 809.17 127.38 423.46 606.59 916.42 374.37 1124.14 369.77 1023.35 483.96 944.73 594.32 1109.46 591.34
00004497 00000027 812.32 126.66 421.50 606.50 917.37 372.94 1126.72 369.79 1023.53 482.79 941.54 591.03 1111.47 588.98
00004498 00000028 813.96 126.82 419.90 604.68 917.70 372.51 1127.79 370.27 1022.43 481.50 940.20 589.52 1112.10 588.20
00004499 00000029 813.76 126.77 420.60 603.84 917.53 372.59 1127.23 369.50 1022.30 481.02 940.96 587.94 1114.31 585.79
00004500 00000030 813.63 127.37 420.92 601.97 917.41 372.72 1126.66 369.34 1021.84 481.11 941.28 587.29 1114.68 584.87
00004501 00000031 812.20 126.66 422.41 601.41 916.56 372.64 1126.26 368.62 1021.74 481.27 941.13 587.17 1114.61 584.25
00004502 00000032 810.81 126.77 423.88 598.98 914.95 373.04 1125.29 368.21 1020.29 480.01 940.11 586.42 1114.43 582.76
00004503 00000033 811.02 126.70 422.48 597.89 913.75 373.37 1123.56 367.65 1019.47 480.27 939.79 585.92 1114.36 581.47
00004504 00000034 810.51 124.89 422.27 598.52 912.86 372.62 1121.18 366.81 1017.88 479.10 939.97 584.72 1113.25 580.11
00004505 00000035 811.35 122.79 420.80 601.07 912.12 371.28 1120.40 365.63 1016.39 477.94 939.06 584.67 1111.97 580.26
00004506 00000036 810.78 121.81 420.58 602.95 911.48 371.41 1119.68 365.50 1016.13 477.64 939.05 586.20 1110.64 581.65
00004507 00000037 810.70 123.36 419.86 602.17 910.97 372.37 1119.15 367.01 1015.23 479.02 938.09 587.40 1109.20 583.30
00004508 00000038 809.05 125.56 421.70 603.11 911.59 375.30 1119.45 369.71 1016.28 482.44 938.96 590.07 1108.41 585.88
00004509 00000039 806.33 131.65 422.11 594.42 908.83 380.31 1116.86 372.67 1016.09 491.04 939.93 597.24 1108.01 589.56
00004510 00000040 805.70 132.34 422.59 594.76 909.78 380.95 1115.78 373.92 1017.33 494.18 941.82 598.10 1104.98 590.87
00004511 00000041 805.82 133.00 422.01 594.87 910.45 381.04 1115.44 373.31 1017.87 494.08 943.89 599.17 1104.35 591.24
00004512 00000042 808.12 127.21 422.70 605.64 914.67 379.63 1116.34 372.04 1019.29 488.04 947.34 593.34 1107.30 587.97
00004513 00000043 808.49 125.89 422.81 605.39 914.60 378.08 1116.87 369.48 1019.21 485.29 947.24 591.03 1109.13 584.77
00004514 00000044 809.39 121.99 421.98 605.69 914.90 375.48 1118.74 367.65 1019.50 483.54 945.71 587.40 1110.21 581.76
00004515 00000045 811.51 117.92 419.99 607.74 915.13 372.93 1119.66 366.23 1018.61 479.82 943.78 584.18 1109.93 579.52
00004516 00000046 813.62 115.45 417.07 614.29 916.10 371.48 1115.34 364.93 1017.37 475.27 946.33 585.25 1105.54 580.92
00004517 00000047 816.29 116.33 414.44 614.34 917.92 373.51 1114.54 365.96 1016.45 472.69 948.75 585.27 1104.97 580.22
00004518 00000048 815.92 113.29 414.65 614.66 918.45 373.51 1114.99 365.31 1016.58 469.22 948.95 582.36 1106.75 576.58
00004519 00000049 815.14 113.28 416.12 608.11 916.54 373.85 1116.92 365.68 1015.51 468.74 946.82 578.95 1109.41 572.84
00004520 00000050 813.94 115.21 417.32 603.37 914.68 371.92 1117.96 365.24 1015.03 467.62 943.73 578.22 1108.86 573.48
00004521 00000051 812.50 122.71 413.19 591.80 910.84 378.91 1118.00 368.97 1013.91 478.78 939.52 588.91 1112.85 579.52
00004522 00000052 812.38 123.78 413.04 589.97 911.25 380.36 1117.65 370.03 1014.99 478.51 938.94 586.36 1115.03 576.83
00004523 00000053 813.26 125.44 411.61 586.85 912.40 380.32 1118.22 369.77 1017.15 478.90 939.78 584.20 1117.42 574.38
00004524 00000054 814.91 124.03 410.41 588.66 915.13 378.30 1119.31 367.56 1020.54 479.17 941.81 582.27 1118.10 572.59
00004525 00000055 819.36 117.18 415.20 596.11 920.55 366.96 1125.28 360.68 1022.45 465.75 945.74 568.17 1119.75 562.98
00004526 00000056 817.84 117.02 419.82 595.78 922.04 353.88 1124.84 348.41 1025.29 463.22 949.36 563.26 1120.37 558.75
00004527 00000057 816.76 116.25 422.08 596.14 921.84 349.09 1124.58 342.57 1026.47 462.24 951.30 560.77 1122.12 555.21
00004528 00000058 815.87 116.14 422.27 595.58 922.05 346.80 1124.87 340.84 1026.65 460.76 952.18 559.89 1121.85 554.80
00004529 00000059 816.40 117.83 421.16 591.51 921.99 345.66 1124.86 340.01 1026.22 459.60 952.99 559.14 1121.55 554.16
00004530 00000060 816.39 116.93 420.47 594.84 920.95 344.89 1122.95 340.58 1023.71 460.45 950.68 559.69 1117.31 555.91
00004531 00000061 816.44 118.04 411.26 590.82 910.91 350.98 1115.73 341.08 1016.94 467.18 942.78 572.71 1108.62 563.06
00004532 00000062 808.00 118.98 407.83 593.51 898.65 351.33 1103.20 349.57 995.67 468.14 921.25 569.74 1086.95 566.93
00004533 00000063 804.45 125.84 401.32 596.02 884.97 356.34 1088.21 364.50 966.05 478.56 897.04 575.85 1065.45 582.05
00004534 00000064 797.13 135.83 400.55 600.54 879.03 361.27 1079.05 373.02 951.69 485.65 885.23 582.62 1056.03 591.72
00004535 00000065 794.27 147.89 400.13 605.74 879.90 369.02 1074.27 385.04 945.69 503.32 881.89 592.49 1051.51 604.53
00004536 00000066 793.18 167.00 395.78 599.34 879.93 384.05 1067.66 404.48 943.09 521.27 878.38 598.73 1048.22 614.97
00004537 00000067 798.28 189.34 397.50 586.43 877.97 402.01 1074.89 417.98 952.11 539.43 881.79 613.26 1049.26 625.92
00004538 00000068 795.67 187.81 405.06 590.08 878.64 405.63 1077.31 417.32 959.31 542.20 888.52 616.74 1054.33 625.38
00004539 00000069 794.04 167.12 406.79 605.02 888.25 396.28 1078.10 408.86 963.39 529.11 898.16 609.66 1063.88 618.65
00004540 00000070 794.33 155.82 415.13 603.25 891.65 387.15 1086.36 395.47 975.15 518.13 906.77 602.75 1072.62 607.92
00004541 00000071 796.45 142.81 415.22 604.50 894.36 378.03 1091.88 382.81 984.36 504.54 912.19 595.33 1076.57 597.64
00004542 00000072 795.83 135.66 416.67 600.98 895.23 372.40 1092.33 376.60 988.79 492.88 910.96 583.33 1076.86 585.18
00004543 00000073 799.28 121.07 414.41 606.91 898.55 365.65 1099.96 368.45 995.96 483.38 912.88 574.81 1088.83 575.32
00004544 00000074 801.61 116.43 412.40 602.25 898.59 361.91 1104.05 361.94 999.13 479.67 918.40 576.28 1090.34 574.16
00004545 00000075 805.57 114.69 407.32 600.50 901.61 357.56 1108.31 357.08 1002.70 471.80 920.57 575.29 1092.26 573.63
00004546 00000076 810.21 115.85 402.69 597.44 903.11 355.48 1109.63 351.18 1004.53 465.73 923.02 573.35 1097.44 568.98
00004547 00000077 811.96 115.78 405.93 597.65 907.38 350.11 1113.50 343.69 1010.73 458.95 929.39 568.58 1103.67 561.77
00004548 00000078 814.06 107.40 406.60 602.91 909.55 345.72 1115.38 336.85 1014.72 454.42 934.23 562.52 1110.16 553.49
00004549 00000079 818.44 102.29 403.98 604.81 915.37 344.01 1119.62 334.30 1020.66 449.47 937.76 557.69 1115.12 548.36
00004550 00000080 820.30 102.44 404.20 607.33 919.31 344.43 1123.01 332.48 1026.42 444.34 942.07 556.56 1120.67 545.25
00004551 00000081 824.66 107.51 400.88 605.65 922.21 346.12 1124.27 332.37 1030.07 445.51 945.15 558.17 1124.44 545.83
00004552 00000082 825.02 111.09 400.96 605.36 922.37 348.04 1123.81 333.25 1032.43 445.73 946.80 560.05 1126.58 547.01
00004553 00000083 824.41 110.25 401.00 606.51 921.26 349.64 1121.93 333.60 1032.41 447.60 947.77 559.97 1127.84 545.60
00004554 00000084 823.08 108.89 401.37 609.57 920.14 349.33 1120.18 333.41 1031.70 448.04 947.74 560.66 1127.00 546.20
00004555 00000085 821.23 109.00 401.77 610.01 918.96 350.18 1118.06 333.10 1031.29 449.20 947.10 560.01 1127.23 544.50
00004556 00000086 820.58 108.48 401.98 611.24 919.77 353.88 1116.05 336.80 1031.30 451.05 946.54 559.53 1126.85 543.99
00004557 00000087 820.39 109.52 401.34 608.39 920.33 361.87 1113.91 347.12 1029.05 454.56 944.43 560.19 1124.80 546.63
00004558 00000088 821.72 110.03 400.27 609.05 919.85 365.60 1114.37 353.70 1024.65 457.22 941.76 563.36 1122.05 552.46
00004559 00000089 820.53 115.53 401.94 603.36 917.14 369.89 1111.75 358.02 1020.48 461.66 941.09 568.73 1119.07 557.78
00004560 00000090 815.86 117.33 406.07 601.46 915.27 370.66 1109.48 359.27 1019.33 465.19 939.49 569.39 1117.07 558.66
00004561 00000091 812.61 118.39 405.96 601.79 912.46 370.23 1108.19 361.05 1016.06 468.04 934.71 570.42 1113.94 561.86
00004562 00000092 810.75 118.32 403.56 605.84 910.54 370.83 1104.35 364.35 1012.34 471.85 929.65 572.47 1106.48 566.26
00004563 00000093 807.61 117.64 402.58 610.43 906.79 371.26 1101.07 367.34 1005.89 473.90 926.58 576.72 1097.25 572.35
00004564 DELETE   798.74 120.88 409.24 610.04 898.10 376.09 1091.63 373.94 994.32 479.75 918.25 577.21 1089.69 573.97
00004565 00000095 794.66 122.50 409.81 607.42 891.47 380.35 1087.17 377.79 988.10 480.82 912.63 579.07 1088.57 575.25
00004566 00000096 790.65 126.22 412.24 602.64 890.71 379.96 1084.39 377.77 988.13 480.13 913.29 579.70 1082.64 575.92
00004567 00000097 790.92 125.99 412.58 600.76 890.11 381.66 1085.97 379.01 988.41 481.51 912.88 581.87 1083.57 577.80
00004568 00000098 786.40 124.88 414.76 602.67 892.95 380.73 1091.31 380.61 988.68 488.68 912.13 581.26 1082.88 580.15
00004569 00000099 787.78 126.08 414.44 601.10 894.31 380.48 1092.21 380.50 990.53 488.55 912.65 580.15 1083.91 579.20
00004570 00000100 789.81 124.59 413.93 599.92 897.30 379.10 1093.80 379.49 993.64 488.33 918.31 580.50 1084.97 579.75
00004571 00000101 796.64 123.09 412.32 595.18 895.70 378.39 1091.28 374.60 994.68 483.03 923.34 583.36 1084.05 578.51
00004572 00000102 793.27 124.07 411.90 599.06 901.01 377.82 1091.43 378.58 994.27 487.06 926.53 582.88 1081.49 582.81
00004573 00000103 796.55 125.73 409.93 597.45 901.66 379.04 1091.30 378.05 993.71 489.02 927.60 583.46 1082.44 581.85
00004574 00000104 800.42 126.59 410.72 590.46 900.22 381.20 1093.25 375.09 999.22 487.00 928.40 583.98 1088.97 577.28
00004575 00000105 800.81 127.69 410.93 591.61 902.97 383.48 1094.87 377.04 1003.13 489.01 929.58 582.81 1093.55 575.94
00004576 00000106 800.98 127.84 411.87 592.28 904.87 384.32 1096.72 377.67 1005.84 489.65 931.95 583.01 1095.79 575.96
00004577 00000107 800.69 127.70 413.53 592.35 906.79 384.16 1097.67 377.80 1008.33 489.58 933.84 581.59 1097.17 574.67
00004578 00000108 801.54 127.78 413.33 591.98 907.00 384.48 1097.80 377.23 1008.58 488.72 934.45 581.63 1097.86 574.02
00004579 00000109 801.74 127.18 412.90 592.41 907.66 384.86 1098.66 377.94 1009.28 487.70 934.52 581.29 1099.31 573.92
00004580 00000110 801.30 127.78 413.13 591.88 906.36 386.77 1099.26 378.34 1008.90 488.10 933.08 581.10 1102.91 572.56
00004581 00000111 797.82 128.84 413.15 597.27 909.54 385.52 1103.26 379.12 1009.63 491.29 933.82 582.73 1100.93 576.07
00004582 00000112 797.27 129.56 413.28 596.70 909.12 385.96 1103.48 380.22 1009.27 491.58 932.30 582.59 1100.91 576.45
00004583 00000113 797.51 129.69 412.66 596.10 909.06 385.65 1103.63 380.51 1008.82 491.46 930.98 581.81 1100.44 576.25
00004584 00000114 799.01 129.28 411.76 595.87 909.85 386.30 1104.65 380.91 1009.27 491.76 932.24 582.64 1101.09 576.95
00004585 00000115 800.80 128.97 411.06 596.91 911.20 385.72 1105.33 380.04 1010.22 491.73 934.46 583.38 1101.70 577.44
00004586 00000116 803.48 127.72 410.33 599.49 913.05 385.70 1106.49 379.52 1011.72 491.37 937.76 585.49 1102.35 579.10
00004587 00000117 805.24 128.56 409.77 598.59 914.53 386.48 1108.38 380.57 1012.97 492.00 940.45 589.70 1101.11 583.52
00004588 00000118 810.75 128.71 408.53 594.30 914.08 386.26 1107.77 381.89 1014.22 491.02 940.25 589.65 1102.36 585.12
00004589 00000119 816.78 130.39 402.17 601.20 916.92 385.90 1110.04 382.39 1014.34 492.54 941.90 593.36 1103.25 589.95
00004590 00000120 818.18 130.58 401.03 603.01 918.61 385.51 1111.70 381.67 1016.33 492.54 944.82 597.03 1102.12 593.44
00004591 00000121 819.83 117.92 408.57 617.15 922.99 383.32 1116.93 380.53 1020.15 488.07 949.25 588.18 1105.72 587.11
00004592 00000122 820.54 116.41 412.73 617.55 923.07 384.56 1119.07 377.07 1023.33 490.43 955.69 591.36 1112.85 586.17
00004593 00000123 818.67 124.96 416.70 609.50 925.38 392.22 1120.96 380.55 1028.58 498.57 962.56 596.93 1117.32 588.38
00004594 00000124 815.82 131.59 421.52 602.69 923.38 399.86 1122.33 384.64 1029.52 504.94 960.75 599.45 1121.70 587.66
00004595 00000125 814.28 136.45 421.55 599.65 920.30 404.99 1119.61 388.97 1025.16 511.24 956.14 600.16 1121.67 587.43
00004596 00000126 812.84 135.59 420.56 599.77 917.60 405.00 1117.51 390.84 1020.08 509.47 950.37 596.59 1119.86 585.27
00004597 00000127 812.57 135.45 419.17 599.65 916.89 404.06 1117.26 391.75 1018.76 508.14 946.81 595.55 1116.93 585.92
CROP_BBOX: 539 0 1485 913
