Video ID: 	ymat3_og2Mo
H: 	1080
W: 	1920
FPS: 	25.0

FRAME INDEX X0 Y0 W H [Landmarks (5 Points)]

00030904 00000000 792.57 161.14 343.20 509.13 909.32 373.73 1059.92 376.08 1004.03 459.05 931.28 537.07 1056.56 539.21
00030905 00000001 800.98 163.75 339.35 505.70 920.05 374.97 1067.27 374.69 1015.74 462.82 942.98 539.23 1064.48 539.44
00030906 00000002 810.95 164.65 336.92 501.97 933.62 373.14 1078.75 372.97 1029.27 459.10 953.87 536.10 1074.98 536.23
00030907 00000003 818.62 164.60 341.63 499.03 938.75 364.41 1086.94 365.58 1044.08 447.71 961.25 537.68 1083.21 540.26
00030908 00000004 822.88 163.36 337.74 493.32 957.49 369.10 1096.04 364.55 1053.76 455.08 974.10 536.19 1088.55 533.63
00030909 00000005 824.03 163.58 341.51 501.17 954.96 370.57 1096.95 368.21 1053.94 454.04 977.93 538.26 1095.00 536.09
00030910 00000006 824.72 161.86 341.46 504.52 952.67 369.12 1094.77 367.15 1049.89 452.03 976.11 539.22 1092.14 537.58
00030911 00000007 822.78 161.50 342.14 506.33 946.34 366.40 1087.32 367.26 1038.76 446.91 968.50 538.13 1080.73 539.27
00030912 00000008 819.73 155.56 340.36 514.21 935.87 362.08 1078.10 368.24 1023.32 451.25 951.67 537.66 1063.69 543.93
00030913 DELETE   813.20 150.13 340.44 519.41 918.32 360.01 1068.12 367.77 1003.22 447.14 932.68 535.91 1050.58 544.25
00030914 DELETE   803.42 143.36 340.15 525.25 905.45 354.64 1056.83 366.79 984.92 445.50 914.67 532.02 1033.42 544.11
00030915 00000011 793.24 143.39 344.04 525.63 890.28 356.93 1040.65 367.25 962.30 442.86 898.30 531.71 1017.91 542.30
00030916 00000012 785.46 148.49 345.29 518.64 878.59 355.67 1025.48 364.85 947.56 440.83 890.34 532.22 1006.41 541.22
00030917 00000013 781.81 144.97 346.60 520.42 874.61 354.99 1022.31 361.98 945.86 438.34 890.21 533.08 1005.70 540.10
00030918 00000014 779.16 142.53 346.01 523.38 874.65 357.08 1022.98 359.47 952.45 439.29 897.84 534.17 1015.43 537.13
00030919 00000015 777.90 153.57 344.14 519.89 878.72 362.46 1014.64 357.16 949.36 437.38 907.38 535.06 1016.89 529.84
00030920 00000016 776.03 153.88 342.94 517.18 865.27 365.25 1009.25 355.21 941.82 443.18 893.63 538.50 1014.69 531.37
00030921 00000017 769.51 157.10 338.84 510.76 850.42 369.37 995.17 359.74 920.64 448.24 876.51 538.42 999.28 531.85
00030922 00000018 762.90 155.51 331.79 507.05 836.27 373.42 981.56 366.35 903.43 459.84 862.58 538.05 987.20 533.36
00030923 00000019 757.57 152.11 331.50 508.43 828.79 373.10 975.24 367.23 894.56 463.46 855.74 538.04 980.12 534.43
00030924 00000020 752.81 151.01 333.55 510.97 826.06 374.65 973.11 367.12 894.23 463.41 855.51 538.96 980.06 533.93
00030925 00000021 749.14 153.63 336.34 509.76 825.15 376.32 971.50 366.81 895.98 464.42 857.97 541.13 982.00 534.32
00030926 00000022 746.60 154.73 337.38 513.38 825.38 377.68 971.28 366.78 898.20 464.34 859.53 543.03 983.97 534.92
00030927 00000023 744.03 156.18 339.23 515.35 823.75 378.87 969.86 366.93 896.72 463.22 858.67 544.96 982.82 535.84
00030928 00000024 743.41 157.64 339.86 517.53 823.14 378.86 968.34 366.45 895.36 462.44 858.37 546.35 981.59 536.86
00030929 00000025 742.29 157.19 341.03 516.87 821.84 379.44 967.90 367.70 894.68 464.10 857.36 547.60 979.36 538.67
00030930 00000026 741.78 155.97 341.82 516.16 820.96 379.77 968.85 369.79 893.86 465.61 853.79 545.99 978.76 538.52
00030931 00000027 741.42 156.08 341.73 513.91 820.41 382.65 968.36 373.31 893.42 468.41 854.08 547.34 978.16 540.25
00030932 00000028 742.39 160.62 342.20 511.23 823.67 386.80 970.11 378.27 894.37 467.64 855.08 546.80 980.95 540.01
00030933 00000029 742.18 160.32 342.57 511.76 825.37 385.64 971.30 377.33 897.28 469.92 858.44 547.79 982.05 541.19
00030934 00000030 743.93 159.62 343.04 513.03 827.73 385.70 975.02 377.19 901.51 470.89 861.98 549.39 986.39 542.48
00030935 00000031 745.51 162.45 341.94 512.08 831.14 386.63 978.13 377.70 907.72 475.13 866.26 551.17 990.78 543.85
00030936 00000032 746.34 168.05 342.95 508.16 833.60 394.84 977.19 384.56 907.17 473.01 867.70 552.31 991.47 543.60
00030937 00000033 748.92 168.21 343.06 511.97 837.09 399.22 978.29 386.63 912.28 473.53 872.14 556.16 994.98 545.31
00030938 00000034 756.35 169.43 343.60 513.53 840.73 394.26 982.44 381.02 923.47 474.70 878.77 560.43 999.92 550.05
00030939 00000035 756.92 168.43 346.94 514.83 844.97 390.31 989.03 376.94 932.30 478.11 885.36 561.97 1005.36 551.43
00030940 00000036 757.94 167.95 349.39 514.68 849.29 388.69 995.73 376.94 940.82 479.64 890.79 564.23 1009.41 554.94
00030941 00000037 761.55 170.25 348.79 512.81 854.88 389.28 1002.78 377.35 949.39 479.87 896.49 565.52 1015.57 556.39
00030942 00000038 766.06 171.85 347.65 510.06 860.62 391.52 1009.97 378.54 957.85 479.70 902.91 567.77 1021.92 558.08
00030943 00000039 770.03 170.78 345.21 510.85 865.67 393.00 1015.78 380.86 964.30 480.38 906.86 568.93 1026.04 560.14
00030944 00000040 773.51 173.55 343.70 510.43 869.91 394.85 1021.34 383.01 968.59 480.49 910.08 569.40 1032.20 560.88
00030945 00000041 775.19 174.13 343.56 510.61 870.89 394.45 1022.72 383.31 968.66 480.41 909.76 569.29 1032.60 561.38
00030946 00000042 775.81 174.88 343.55 511.93 871.32 394.09 1022.30 383.57 967.90 480.96 909.30 569.62 1031.84 562.17
00030947 00000043 778.17 175.89 342.27 511.88 873.94 392.97 1024.70 383.25 969.14 479.80 911.00 570.04 1032.99 563.21
00030948 00000044 782.70 173.95 339.46 513.36 877.61 392.63 1028.02 382.94 971.56 480.76 914.90 572.22 1033.77 565.53
00030949 00000045 777.77 175.34 342.74 514.96 885.47 387.49 1032.38 379.39 978.92 479.73 923.32 564.61 1037.07 558.79
00030950 00000046 779.14 175.15 343.50 518.37 886.74 387.57 1034.39 378.48 981.45 479.89 926.71 565.89 1039.54 559.31
00030951 00000047 779.68 174.14 345.35 524.91 887.47 384.75 1033.24 381.14 978.14 480.56 924.68 572.16 1031.15 569.84
00030952 00000048 780.00 173.00 346.53 525.42 886.99 383.68 1032.69 380.98 976.59 478.45 924.05 570.63 1030.42 568.92
00030953 00000049 780.49 171.21 345.99 525.65 886.45 383.76 1032.08 381.43 976.29 478.76 921.99 569.77 1030.17 568.43
00030954 00000050 780.58 169.92 346.09 528.80 885.36 381.97 1030.99 381.42 973.72 476.65 920.07 568.38 1028.08 568.50
00030955 00000051 781.50 169.46 347.24 528.05 886.55 381.35 1032.90 380.56 976.24 475.54 918.08 566.49 1031.13 566.57
00030956 00000052 777.40 167.94 351.43 527.34 887.18 384.96 1036.23 386.98 976.86 476.05 916.64 556.07 1041.10 557.43
00030957 00000053 775.41 165.72 353.05 528.28 886.33 383.08 1034.77 386.14 974.66 473.82 914.17 554.52 1037.27 556.80
00030958 00000054 789.06 168.78 338.60 521.12 878.76 381.42 1027.39 375.92 966.79 467.56 907.84 561.94 1031.77 558.37
00030959 00000055 781.70 167.18 338.60 517.68 864.47 379.74 1012.68 372.92 949.73 469.36 896.27 556.92 1022.08 552.40
00030960 DELETE   767.44 167.68 343.08 507.65 851.38 382.92 995.99 377.52 922.25 470.82 875.26 548.23 998.42 544.40
00030961 00000057 763.35 163.24 333.07 511.41 837.80 379.50 981.33 376.13 894.39 472.94 853.86 550.46 980.45 547.70
00030962 00000058 761.35 165.61 326.27 511.73 834.38 378.30 974.09 376.37 888.07 471.54 847.77 553.03 971.21 552.29
00030963 00000059 761.23 164.53 326.65 513.18 834.25 379.09 973.15 376.82 887.42 472.40 848.56 553.65 971.07 552.70
00030964 00000060 761.37 165.26 327.48 512.27 835.62 379.54 973.89 376.20 890.23 472.42 851.02 553.61 972.06 551.75
00030965 00000061 759.19 166.45 332.34 509.65 831.46 379.93 976.02 376.25 887.58 471.48 848.54 551.67 973.96 548.75
00030966 00000062 759.98 163.49 325.83 514.68 832.14 378.50 972.08 374.56 886.22 469.44 847.14 554.01 970.39 551.97
00030967 00000063 759.28 163.94 324.98 513.60 830.80 378.50 969.91 374.72 883.68 469.88 845.91 554.11 967.94 552.26
00030968 00000064 758.80 165.44 325.98 512.20 830.91 379.54 971.13 376.27 884.98 472.00 845.64 553.53 969.78 551.89
00030969 00000065 758.50 165.98 328.58 512.20 832.90 381.10 970.80 376.25 887.41 473.11 850.98 554.70 969.42 551.96
00030970 00000066 758.60 165.83 327.94 513.16 832.21 381.23 969.44 376.09 885.72 472.60 850.97 556.19 966.87 553.43
00030971 00000067 757.48 165.77 327.32 513.48 830.72 380.85 967.70 376.31 883.10 472.99 849.02 556.38 963.63 554.19
00030972 00000068 757.83 165.95 327.10 513.82 830.93 380.92 968.43 376.99 883.92 474.08 848.62 556.68 964.51 554.86
00030973 00000069 757.88 165.22 328.73 514.23 833.62 381.63 970.48 377.68 888.41 476.06 851.72 556.96 967.02 554.91
00030974 00000070 758.07 164.24 329.03 513.94 834.42 381.58 971.57 377.30 890.39 475.60 852.67 556.54 968.54 554.18
00030975 00000071 757.40 165.32 327.71 513.42 832.69 381.43 970.67 378.11 888.21 477.30 848.53 554.82 969.36 552.99
00030976 00000072 757.52 165.61 327.33 514.41 831.45 381.26 969.52 378.46 885.13 476.77 846.59 553.94 968.55 552.46
00030977 00000073 757.09 164.09 328.23 517.30 831.74 381.14 970.89 377.18 887.31 476.05 847.83 555.23 971.70 552.76
00030978 00000074 763.37 165.71 327.91 515.15 832.44 382.37 971.18 382.60 890.46 478.10 857.53 551.32 973.47 552.89
00030979 00000075 763.08 165.30 329.12 516.96 832.83 382.69 971.61 382.08 890.90 477.13 857.63 551.33 974.85 552.20
00030980 00000076 762.91 164.20 329.13 517.97 832.91 383.16 972.36 381.73 891.50 476.59 857.66 551.15 976.47 551.29
00030981 00000077 762.90 164.25 328.86 518.20 832.47 383.15 972.25 381.59 891.12 477.26 857.38 551.40 976.83 551.43
00030982 00000078 762.75 164.97 328.71 517.34 832.36 383.85 972.34 381.88 891.14 477.62 857.85 551.71 977.63 551.33
00030983 00000079 762.98 165.28 328.17 513.42 832.67 384.33 974.17 383.15 891.10 478.18 857.78 550.01 978.98 550.03
00030984 00000080 755.67 165.70 334.60 510.25 832.89 382.17 976.73 376.83 891.46 474.82 851.95 553.23 978.06 548.85
00030985 00000081 756.23 164.71 335.07 507.78 833.95 383.12 979.12 377.67 894.32 475.93 851.49 550.65 981.52 546.04
00030986 00000082 756.03 165.06 335.05 506.75 836.90 381.42 979.60 376.48 899.98 476.02 852.18 546.17 979.13 543.87
00030987 00000083 755.19 166.01 336.72 505.33 838.12 381.05 980.75 376.02 901.75 474.96 852.33 544.65 980.95 542.33
00030988 00000084 756.40 165.76 337.08 504.59 839.30 380.93 982.94 375.77 903.68 474.72 853.55 544.12 983.40 541.60
00030989 00000085 757.36 165.69 336.86 504.03 840.59 380.21 984.68 374.97 905.56 474.51 854.80 543.05 985.55 540.26
00030990 00000086 763.65 167.00 334.34 503.99 839.42 384.07 985.42 383.53 903.36 477.25 860.41 542.29 989.14 542.25
00030991 00000087 763.63 166.20 334.93 507.23 839.19 384.17 984.54 382.48 903.37 477.35 862.40 544.67 989.82 543.73
00030992 00000088 763.85 163.84 332.40 512.76 837.02 383.80 978.41 380.37 899.60 476.51 863.82 549.45 984.42 547.48
00030993 00000089 764.58 162.88 328.45 517.51 833.51 382.20 973.98 379.19 892.97 474.48 858.94 550.72 978.09 549.67
00030994 00000090 765.04 165.26 326.49 518.49 832.52 382.52 971.45 382.33 889.20 477.95 855.77 551.18 975.40 552.37
00030995 00000091 769.57 166.86 325.29 519.06 834.27 382.98 973.18 382.49 893.36 482.64 857.74 557.97 977.15 558.71
00030996 00000092 768.93 169.01 327.51 519.82 835.40 386.11 974.10 385.53 894.72 485.94 858.12 560.35 977.32 561.09
00030997 00000093 768.99 168.64 327.28 518.37 835.82 385.38 974.37 385.43 895.83 485.05 857.56 558.34 977.58 559.63
00030998 00000094 768.44 165.39 327.61 518.07 835.08 381.12 973.73 380.94 896.13 479.60 858.54 554.66 978.36 555.57
00030999 00000095 763.08 163.35 327.21 517.14 833.78 380.65 972.76 379.96 893.17 473.54 858.38 550.11 974.34 551.11
00031000 00000096 762.72 160.47 326.53 517.92 833.15 379.31 973.93 376.07 894.27 470.65 859.54 550.71 975.33 549.76
00031001 00000097 764.02 160.98 326.76 519.38 833.66 380.35 974.93 376.87 894.01 472.37 859.17 550.81 978.16 549.48
00031002 00000098 763.50 165.11 327.40 513.74 833.94 381.58 975.24 379.71 894.86 476.41 859.70 550.02 979.62 549.70
00031003 00000099 757.54 162.01 332.39 513.93 833.47 378.26 977.70 372.26 896.01 472.79 852.29 552.67 973.79 549.93
00031004 00000100 756.80 160.97 333.55 514.89 833.87 377.37 977.68 371.48 896.55 471.83 850.66 547.17 977.30 544.09
00031005 00000101 763.76 162.93 327.89 510.17 833.27 381.73 976.96 379.25 894.54 474.53 856.99 544.31 982.96 542.97
00031006 00000102 756.74 157.99 333.31 515.43 834.29 376.38 978.23 369.30 897.72 468.25 853.10 548.05 975.86 544.40
00031007 00000103 762.28 164.18 329.01 511.06 835.23 380.00 976.22 378.21 898.36 474.76 863.10 550.34 978.35 550.18
00031008 00000104 761.88 164.74 329.80 511.55 836.15 379.73 976.03 378.39 899.64 474.06 864.11 550.95 977.36 551.24
00031009 00000105 762.12 165.41 330.33 510.56 836.28 380.31 975.72 378.54 899.36 472.74 864.27 550.65 977.75 550.50
00031010 00000106 760.90 167.84 332.95 507.24 837.05 384.91 977.99 381.72 899.52 467.74 862.40 549.88 978.55 548.27
00031011 00000107 760.95 167.73 335.48 506.36 838.79 387.36 979.85 383.54 901.33 466.84 862.85 549.47 979.96 547.23
00031012 00000108 761.81 168.40 336.55 504.59 841.80 387.73 982.07 382.41 906.05 465.53 866.86 549.49 982.24 545.97
00031013 00000109 762.74 167.74 339.71 505.21 845.24 385.74 987.62 381.09 910.90 463.89 868.12 547.26 986.54 544.12
00031014 00000110 764.44 166.13 341.33 511.04 849.16 383.93 992.77 378.37 917.08 462.38 873.95 549.58 993.34 545.62
00031015 00000111 765.30 164.92 341.91 513.20 853.54 381.80 994.73 375.87 924.91 462.27 881.85 551.40 996.34 547.26
00031016 00000112 767.60 162.40 342.03 516.91 858.19 380.71 1000.97 372.58 932.77 461.01 887.77 552.34 1004.06 546.49
00031017 00000113 769.50 160.36 344.46 521.12 862.86 377.66 1007.31 369.48 940.31 460.36 891.17 551.23 1010.73 545.24
00031018 00000114 771.02 160.54 345.78 518.79 865.77 376.70 1011.72 366.89 945.18 458.31 895.19 550.04 1015.87 542.71
00031019 00000115 770.13 160.20 349.03 515.90 867.30 376.25 1016.61 365.66 950.54 459.33 898.17 549.68 1021.10 541.60
00031020 00000116 772.86 161.13 348.21 512.94 870.01 377.91 1020.24 365.84 954.74 456.86 901.26 548.58 1025.66 539.10
00031021 00000117 773.79 162.38 348.88 511.49 873.63 379.52 1025.09 367.24 960.94 457.64 905.51 549.49 1030.56 539.51
00031022 00000118 777.88 159.82 343.36 512.92 881.52 373.42 1026.38 365.38 965.50 454.95 911.69 545.62 1033.50 538.58
00031023 00000119 775.17 153.29 346.87 515.40 883.33 370.79 1036.41 372.20 974.73 455.06 915.69 542.44 1038.37 543.54
00031024 00000120 776.44 154.12 347.15 517.44 887.81 370.24 1039.28 370.49 980.12 454.29 919.98 543.23 1041.62 543.44
00031025 00000121 777.64 153.68 346.95 518.35 891.79 371.26 1043.58 370.46 985.94 456.44 923.31 545.18 1044.30 544.56
00031026 00000122 778.39 155.06 346.33 514.82 896.57 373.83 1047.86 373.58 991.81 459.22 926.78 544.42 1047.40 544.12
00031027 00000123 781.29 157.71 342.28 509.54 900.60 382.01 1048.92 382.37 995.37 459.49 927.84 542.15 1048.27 542.36
00031028 00000124 783.89 158.85 339.42 507.83 904.32 383.43 1051.85 382.97 1000.30 457.54 930.59 541.80 1050.85 541.59
00031029 00000125 785.22 160.60 338.27 505.80 907.38 380.35 1054.26 377.71 1005.47 458.03 936.21 544.15 1053.13 542.14
00031030 00000126 785.17 156.79 337.07 508.18 909.25 377.03 1057.28 373.54 1011.45 456.93 942.16 545.65 1057.61 542.98
00031031 00000127 785.60 156.17 338.62 507.54 912.35 376.78 1062.82 374.30 1018.27 457.92 945.89 544.66 1065.72 542.51
00031032 00000128 791.75 160.08 332.97 501.41 922.88 376.48 1063.48 364.83 1025.97 455.56 948.29 548.25 1064.23 540.95
00031033 00000129 794.00 157.99 331.90 505.25 925.45 375.50 1065.53 363.34 1028.57 454.47 951.13 548.16 1064.85 540.38
00031034 00000130 790.36 156.91 338.46 508.49 920.21 377.40 1067.42 371.60 1027.60 457.01 954.47 545.86 1072.19 541.22
00031035 00000131 790.62 157.90 340.00 506.88 921.11 378.20 1069.03 372.18 1029.23 457.21 955.50 545.68 1074.23 540.74
00031036 00000132 790.80 157.40 340.63 506.33 921.90 378.95 1069.76 372.49 1029.76 457.42 956.49 544.96 1075.66 539.62
00031037 00000133 791.36 157.31 339.89 506.59 921.96 377.14 1069.72 370.50 1029.86 456.68 956.33 545.05 1074.33 539.74
00031038 00000134 791.71 158.51 339.05 507.81 923.47 376.23 1069.19 369.10 1031.03 455.74 958.54 546.93 1074.39 541.20
00031039 00000135 791.77 159.20 337.96 509.19 922.95 375.24 1067.48 368.32 1030.19 454.93 958.36 547.73 1072.99 542.18
00031040 00000136 792.25 159.14 336.30 510.70 923.23 375.65 1066.42 368.08 1030.13 455.15 958.51 548.33 1072.85 542.24
00031041 00000137 792.12 158.97 335.78 513.16 923.43 376.28 1065.73 368.51 1030.00 455.49 958.67 549.66 1072.84 543.37
00031042 00000138 792.23 158.89 334.79 515.83 922.92 375.08 1065.34 367.76 1030.30 453.28 956.77 548.31 1073.04 542.47
00031043 00000139 792.76 157.89 333.89 517.32 922.96 373.74 1064.93 367.13 1029.88 452.41 955.21 547.06 1072.54 541.75
00031044 00000140 791.98 157.82 333.80 517.87 920.02 375.81 1064.94 369.54 1028.05 450.16 952.20 545.39 1073.51 540.50
00031045 DELETE   790.63 159.48 332.64 518.39 916.55 381.81 1058.75 372.95 1023.03 449.75 946.52 545.21 1069.97 538.47
00031046 DELETE   788.74 157.49 332.90 521.63 912.37 382.62 1054.20 373.18 1018.12 448.03 942.21 544.01 1067.39 536.83
00031047 00000143 782.98 153.65 336.52 524.16 906.44 376.75 1050.40 366.29 1012.77 444.30 938.94 542.66 1062.32 534.71
00031048 DELETE   775.93 152.78 340.81 529.04 901.17 378.84 1041.35 360.28 998.78 445.79 934.42 546.78 1052.46 531.31
00031049 00000145 770.33 153.49 344.96 531.14 892.75 376.03 1032.37 358.93 985.75 449.81 923.51 544.27 1047.04 529.16
00031050 00000146 764.15 153.51 345.17 526.31 876.75 382.23 1025.60 362.49 980.32 455.76 914.37 551.22 1044.60 534.05
00031051 00000147 754.95 152.45 347.13 525.70 867.35 380.75 1014.27 361.09 968.51 455.79 907.38 551.74 1032.88 534.84
00031052 00000148 747.99 155.66 347.65 520.56 859.28 383.83 1000.75 362.12 956.99 456.60 904.61 553.95 1021.93 535.60
00031053 00000149 738.81 153.42 351.81 521.02 848.82 384.93 992.86 360.39 946.53 460.46 899.53 555.19 1017.14 534.49
00031054 00000150 742.69 152.43 350.16 525.20 842.62 377.19 986.22 351.91 941.93 447.21 892.59 555.37 1008.32 535.39
00031055 00000151 728.58 152.73 352.46 522.17 835.10 385.20 979.76 359.71 931.09 456.95 888.12 555.55 1007.03 534.22
00031056 00000152 725.32 152.28 353.89 522.66 827.34 384.70 975.70 358.74 921.98 457.70 881.16 555.69 1003.28 533.97
00031057 00000153 722.48 154.06 354.63 519.85 823.20 385.57 971.74 360.83 916.30 462.56 875.92 555.39 998.21 534.63
00031058 00000154 719.30 154.16 355.50 517.36 817.34 386.48 965.83 362.15 908.10 464.52 871.10 554.89 991.95 534.39
00031059 00000155 716.38 152.95 356.54 517.37 813.52 384.98 963.61 363.66 903.21 464.10 865.49 553.69 986.32 535.88
00031060 00000156 710.64 152.45 357.48 515.82 809.27 381.15 959.25 365.02 897.12 462.97 858.63 549.89 977.38 536.49
00031061 00000157 707.89 151.76 355.90 513.89 806.68 378.29 955.96 364.48 893.56 461.09 853.93 547.34 970.57 536.10
00031062 00000158 706.66 151.26 355.83 511.85 804.64 375.06 952.88 361.82 890.52 455.07 850.87 544.92 966.21 534.21
00031063 00000159 706.80 150.08 355.44 511.92 802.24 374.16 949.57 359.98 888.28 451.40 849.00 544.22 963.52 532.84
00031064 00000160 709.10 153.32 355.22 511.91 802.79 377.98 938.31 358.37 878.24 445.73 850.86 544.81 955.30 528.32
00031065 00000161 708.03 154.34 354.45 513.29 796.02 377.57 931.73 360.17 866.34 450.74 841.94 545.05 948.91 530.00
00031066 00000162 707.74 153.32 349.95 514.34 789.77 378.98 927.30 362.23 856.32 454.38 834.08 548.79 943.15 534.25
00031067 00000163 711.22 155.12 344.85 511.89 787.11 380.52 924.40 361.86 849.09 454.41 829.48 549.98 941.03 533.66
00031068 00000164 711.76 156.32 342.21 512.08 786.14 379.49 922.48 360.25 845.47 449.97 828.29 550.02 937.61 533.37
00031069 00000165 712.68 156.14 340.56 514.26 786.59 378.25 922.03 357.51 843.29 447.04 827.69 550.31 938.56 532.24
00031070 00000166 713.09 155.68 340.12 517.28 786.94 377.39 922.25 356.32 842.55 446.42 827.20 550.79 939.25 532.34
00031071 00000167 713.65 155.29 339.73 518.15 786.86 377.56 922.89 357.44 842.71 448.31 826.99 550.82 940.25 533.11
00031072 00000168 713.31 155.76 341.05 515.00 786.26 377.20 922.88 359.46 843.82 451.16 826.05 549.08 939.13 533.42
