Video ID: 	5NQ7MmOo870
H: 	1080
W: 	1920
FPS: 	25.0

FRAME INDEX X0 Y0 W H [Landmarks (5 Points)]

00006505 00000000 997.72 146.10 373.95 515.28 1060.15 373.20 1244.35 358.12 1125.12 441.41 1088.83 539.86 1243.07 527.49
00006506 00000001 998.63 143.12 370.54 514.87 1062.62 371.75 1244.12 358.82 1127.84 440.22 1090.97 535.39 1243.58 524.91
00006507 DELETE   1005.18 141.55 360.27 519.13 1066.65 378.65 1248.26 358.43 1131.81 438.65 1089.78 541.69 1247.90 523.56
00006508 00000003 1005.72 140.36 364.40 519.51 1072.38 371.62 1248.01 353.54 1135.23 427.94 1098.32 537.38 1237.66 521.40
00006509 00000004 1001.71 135.15 373.21 525.35 1073.37 360.72 1247.23 350.19 1137.50 428.69 1103.32 531.74 1243.01 524.06
00006510 00000005 1003.40 135.62 378.28 527.66 1071.61 360.30 1251.05 344.90 1137.29 423.90 1104.55 533.23 1254.20 521.00
00006511 00000006 1004.92 135.94 380.51 528.81 1071.34 362.90 1252.07 343.70 1137.79 423.83 1106.99 534.02 1260.78 517.99
00006512 00000007 1007.65 138.38 380.84 529.31 1072.09 365.83 1250.68 344.66 1138.06 429.75 1108.56 536.40 1263.29 518.23
00006513 00000008 1008.63 138.93 381.35 531.32 1072.44 370.77 1249.45 348.78 1139.16 435.09 1110.20 539.37 1265.33 520.22
00006514 00000009 1008.88 142.11 378.85 527.77 1072.64 373.33 1249.20 353.34 1138.18 439.14 1108.28 541.35 1260.59 524.07
00006515 00000010 1007.99 143.29 377.84 525.70 1072.93 375.16 1247.45 355.98 1138.42 441.82 1108.44 541.56 1257.82 525.08
00006516 00000011 1004.89 144.82 376.10 524.98 1069.06 377.00 1246.75 358.64 1135.85 446.71 1103.90 545.92 1253.72 530.33
00006517 00000012 1001.38 152.18 376.32 516.34 1064.89 378.58 1243.83 359.25 1131.05 448.53 1098.69 547.30 1247.47 531.23
00006518 00000013 998.39 155.63 375.80 512.56 1060.16 378.84 1240.95 359.91 1125.62 449.77 1093.31 547.99 1243.74 532.39
00006519 DELETE   995.59 155.41 380.87 511.30 1055.20 378.78 1237.32 358.73 1121.55 451.05 1089.28 549.16 1239.52 532.49
00006520 DELETE   993.70 156.09 381.00 510.39 1053.21 379.40 1236.35 360.17 1119.59 451.42 1085.96 548.18 1236.93 532.29
00006521 00000016 991.47 155.82 380.49 508.82 1051.85 378.01 1233.75 360.08 1117.77 451.23 1084.50 549.08 1230.32 534.48
00006522 00000017 990.63 153.42 376.42 516.09 1051.53 381.53 1235.30 365.23 1124.90 453.61 1085.13 552.93 1229.48 538.68
00006523 00000018 991.50 161.18 368.98 507.65 1049.19 384.38 1227.01 364.37 1116.38 446.97 1083.46 555.20 1224.44 537.93
00006524 00000019 980.19 165.70 373.06 506.31 1042.11 384.60 1223.53 363.42 1110.01 452.33 1077.48 558.62 1218.31 541.65
00006525 00000020 977.89 162.75 367.39 509.06 1037.94 377.64 1220.92 358.34 1107.09 450.02 1075.19 556.17 1214.22 541.09
00006526 00000021 977.76 160.00 366.34 511.65 1038.30 377.23 1220.19 359.27 1106.94 451.70 1075.14 555.93 1212.82 541.93
00006527 00000022 977.18 162.93 365.76 508.74 1038.36 373.49 1220.39 356.47 1107.67 450.64 1074.20 555.46 1211.62 542.43
00006528 00000023 977.82 165.92 365.62 506.30 1038.46 373.00 1220.68 356.56 1107.30 451.18 1074.23 555.65 1211.73 543.07
00006529 00000024 979.09 167.36 366.61 505.09 1039.91 372.02 1222.30 356.41 1108.06 451.88 1074.08 556.80 1212.17 544.76
00006530 00000025 980.35 167.87 366.39 503.64 1040.45 371.46 1221.82 358.83 1104.99 454.29 1072.44 556.61 1210.61 547.06
00006531 00000026 978.85 169.49 369.06 500.82 1039.67 369.58 1220.03 357.47 1104.39 453.61 1070.83 555.40 1208.09 546.46
00006532 00000027 976.30 167.34 370.37 503.80 1038.23 370.30 1217.72 356.38 1102.99 450.64 1070.41 555.51 1204.88 545.31
00006533 00000028 973.60 164.48 368.66 509.41 1036.04 372.32 1217.56 356.21 1102.47 450.00 1071.14 560.66 1203.40 548.62
00006534 00000029 971.61 164.12 365.57 517.26 1034.53 374.42 1214.63 357.80 1101.22 450.42 1071.22 561.92 1202.08 549.38
00006535 00000030 971.51 167.61 368.06 519.94 1033.84 377.29 1213.12 361.05 1100.71 457.88 1070.20 565.17 1208.23 552.47
00006536 00000031 971.37 175.27 373.15 512.14 1032.86 378.88 1211.39 365.33 1098.47 464.75 1067.07 567.69 1210.28 557.03
00006537 00000032 972.84 179.79 371.28 506.22 1033.61 380.68 1214.26 367.67 1100.56 467.31 1063.90 566.59 1216.76 556.47
00006538 00000033 974.16 178.14 368.81 507.41 1034.38 379.52 1216.14 367.34 1102.69 467.73 1064.76 565.68 1218.70 556.27
00006539 00000034 974.56 179.29 370.15 502.67 1034.94 379.41 1216.23 367.54 1101.50 466.45 1064.66 564.09 1216.38 555.08
00006540 00000035 975.58 179.39 372.31 501.70 1037.19 375.85 1218.12 365.22 1102.11 462.38 1066.86 561.77 1211.83 554.05
00006541 00000036 975.46 176.90 372.62 503.39 1037.34 374.54 1215.78 363.76 1099.61 460.00 1067.59 560.52 1207.05 552.74
00006542 00000037 974.79 174.03 373.88 510.45 1038.10 373.08 1213.90 364.57 1097.40 459.55 1065.67 559.51 1202.05 553.85
00006543 00000038 972.96 166.01 378.85 519.23 1035.57 377.04 1202.38 367.81 1093.09 468.05 1059.66 565.32 1193.97 558.35
00006544 00000039 974.10 170.25 377.81 522.55 1035.66 375.99 1200.92 369.69 1086.26 466.41 1054.18 565.72 1189.85 561.48
00006545 00000040 977.45 172.49 376.06 529.92 1037.81 372.52 1204.91 372.00 1083.22 465.82 1047.88 565.20 1186.58 566.03
00006546 00000041 982.17 174.29 371.24 533.64 1042.39 370.82 1209.45 373.29 1085.04 464.38 1048.96 565.05 1191.54 568.38
00006547 00000042 986.03 170.72 371.55 538.23 1046.56 369.71 1215.52 371.41 1090.00 461.14 1052.14 563.46 1200.33 565.85
00006548 00000043 986.72 169.15 379.05 531.02 1048.53 369.45 1220.32 371.42 1095.56 460.32 1056.09 560.75 1206.18 563.07
00006549 00000044 989.90 176.18 364.21 510.56 1052.19 361.60 1226.78 373.89 1090.66 455.04 1058.75 550.08 1210.64 560.79
00006550 00000045 991.24 177.57 365.21 503.40 1052.37 358.98 1230.13 371.11 1091.46 453.42 1058.08 547.33 1212.01 557.72
00006551 00000046 992.52 174.71 367.41 502.45 1052.95 356.92 1230.96 369.79 1091.98 453.34 1058.43 545.63 1210.44 556.63
00006552 00000047 993.52 174.04 368.65 502.61 1053.91 356.25 1233.08 367.77 1096.23 452.38 1061.35 546.17 1212.59 556.07
00006553 00000048 994.63 169.97 367.31 504.68 1055.82 356.23 1233.93 367.23 1098.53 451.54 1062.55 545.51 1212.24 555.09
00006554 00000049 1001.07 159.69 372.30 509.20 1057.41 355.17 1228.77 362.45 1104.61 451.29 1064.44 544.70 1213.21 550.91
00006555 00000050 996.79 165.18 365.76 506.64 1058.09 353.84 1235.29 365.35 1099.27 448.96 1063.34 542.69 1210.88 552.88
00006556 00000051 1005.36 164.30 361.60 503.86 1063.57 352.17 1231.52 365.05 1105.62 445.43 1070.30 542.49 1206.65 552.73
00006557 00000052 1006.29 157.11 361.98 510.21 1066.06 350.20 1232.23 363.76 1106.47 442.59 1070.17 540.31 1204.35 551.25
00006558 00000053 1008.55 150.13 361.04 515.00 1070.58 346.61 1233.10 360.73 1105.59 437.20 1071.55 537.26 1202.80 548.76
00006559 00000054 1009.23 142.76 365.61 521.37 1074.68 344.02 1237.05 358.30 1107.81 433.19 1072.60 534.84 1202.14 546.56
00006560 00000055 1009.71 139.88 364.38 522.66 1077.71 341.59 1240.07 356.09 1110.67 428.64 1074.03 533.23 1201.82 545.45
00006561 00000056 1012.52 139.22 369.49 523.39 1081.61 339.64 1243.53 354.61 1113.21 426.94 1077.41 531.56 1205.59 544.09
00006562 00000057 1015.58 137.25 373.17 525.43 1085.22 337.07 1244.83 352.93 1114.49 424.84 1080.26 529.11 1206.87 542.12
00006563 00000058 1016.77 133.19 370.92 529.90 1086.72 334.72 1246.59 351.41 1113.42 422.84 1080.73 528.08 1206.78 541.88
00006564 00000059 1017.08 134.07 370.48 528.28 1087.69 333.69 1246.28 349.22 1111.95 417.49 1081.27 527.33 1203.80 540.39
00006565 00000060 1019.10 134.30 370.55 526.85 1088.61 332.93 1242.40 347.25 1106.75 412.18 1082.14 524.92 1200.08 537.00
00006566 00000061 1021.28 132.54 368.72 527.91 1087.37 328.92 1238.29 345.84 1097.95 407.83 1077.54 520.81 1192.61 534.96
00006567 00000062 1021.05 127.43 369.46 532.44 1088.80 325.42 1237.39 345.01 1093.70 404.02 1073.80 515.85 1187.94 532.41
00006568 00000063 1022.16 124.35 367.81 533.37 1090.52 323.67 1237.30 345.06 1092.49 402.30 1073.27 513.37 1185.51 531.54
00006569 00000064 1024.58 125.93 369.95 534.40 1092.78 326.13 1240.93 345.88 1098.14 402.94 1078.76 516.05 1191.19 532.47
00006570 00000065 1030.41 129.03 365.63 530.67 1096.65 329.35 1248.94 347.46 1108.30 407.08 1086.59 519.20 1203.57 534.16
00006571 00000066 1031.75 130.30 378.05 526.52 1094.88 331.16 1253.28 346.74 1118.80 416.89 1087.92 514.04 1219.50 528.52
00006572 00000067 1031.72 129.71 380.65 528.79 1093.74 331.82 1253.03 347.59 1117.20 418.02 1087.64 513.08 1222.73 527.35
00006573 00000068 1030.62 128.31 378.40 529.41 1090.95 331.67 1251.83 348.64 1114.08 417.21 1083.59 512.56 1220.83 527.70
00006574 00000069 1032.47 127.21 367.25 521.87 1092.80 331.78 1249.30 351.95 1107.07 415.87 1079.92 510.49 1211.95 527.03
00006575 00000070 1034.27 128.10 365.35 513.12 1096.33 337.00 1243.21 354.71 1105.91 411.67 1082.16 506.12 1206.71 520.69
00006576 00000071 1034.54 128.84 368.77 513.92 1096.83 335.83 1245.01 356.13 1106.92 412.16 1080.66 504.76 1206.76 521.34
00006577 00000072 1035.98 130.24 366.31 520.29 1097.90 336.96 1248.02 358.20 1111.30 418.81 1086.39 514.60 1205.48 531.82
00006578 00000073 1037.99 129.23 364.17 526.43 1100.99 338.61 1252.94 359.92 1115.58 421.98 1091.44 519.44 1209.44 536.57
00006579 00000074 1038.29 131.40 367.05 525.66 1102.51 337.62 1257.49 361.78 1117.99 422.87 1090.35 518.39 1213.00 537.87
00006580 00000075 1040.85 127.86 369.39 521.69 1102.01 339.35 1258.03 356.74 1127.94 429.88 1095.67 514.39 1223.80 530.60
00006581 00000076 1040.24 131.02 370.36 521.85 1104.04 341.50 1260.80 357.84 1133.60 432.07 1099.29 515.49 1228.68 530.96
00006582 00000077 1039.41 131.85 370.34 523.95 1102.58 342.75 1264.12 358.57 1132.84 432.34 1099.04 515.27 1236.97 529.88
00006583 00000078 1038.60 129.60 371.92 532.71 1100.24 341.89 1263.68 358.21 1129.72 432.26 1096.61 516.45 1239.28 531.15
00006584 00000079 1036.64 131.33 371.61 529.80 1097.63 342.81 1262.39 360.44 1126.44 432.76 1094.23 517.12 1236.73 532.74
00006585 00000080 1032.87 134.02 375.29 521.67 1092.97 344.70 1257.59 363.07 1122.02 433.04 1090.66 516.38 1232.76 532.15
00006586 00000081 1033.79 135.23 366.35 518.89 1093.35 340.31 1249.29 365.08 1113.96 433.79 1084.60 518.22 1226.41 537.44
00006587 00000082 1034.35 133.88 363.43 516.36 1091.07 340.71 1245.76 363.49 1109.31 433.58 1083.16 518.07 1222.83 535.90
00006588 00000083 1034.92 131.56 361.36 518.34 1092.58 341.11 1245.26 363.73 1107.18 431.43 1082.84 516.55 1221.08 534.22
00006589 00000084 1036.40 131.97 359.37 517.89 1095.52 343.28 1245.96 365.13 1111.34 431.29 1086.20 516.50 1220.24 533.74
00006590 DELETE   1038.26 140.76 361.39 511.65 1094.13 356.39 1254.14 370.68 1124.35 433.68 1094.73 516.04 1232.67 528.77
00006591 DELETE   1038.76 137.90 372.80 522.52 1097.31 357.38 1261.60 370.21 1127.22 437.07 1095.51 522.65 1235.66 534.45
00006592 00000087 1034.34 136.23 373.46 531.63 1093.61 352.44 1259.38 368.11 1124.16 440.79 1093.92 524.56 1236.66 538.34
00006593 00000088 1032.58 141.52 379.80 525.65 1090.57 354.70 1252.32 371.78 1117.17 442.87 1090.72 525.91 1229.10 540.61
00006594 00000089 1031.34 145.22 372.71 524.94 1088.48 350.14 1245.44 373.75 1108.02 440.04 1087.36 528.21 1218.62 545.57
00006595 00000090 1030.76 145.87 368.01 518.23 1089.00 348.99 1237.46 373.50 1104.61 437.54 1085.09 526.87 1202.77 545.48
00006596 00000091 1030.50 151.07 369.42 511.76 1089.84 349.88 1234.92 373.55 1104.06 435.92 1083.76 525.85 1199.16 543.78
00006597 00000092 1031.91 154.55 370.89 508.58 1092.50 350.22 1235.54 374.70 1106.73 435.59 1084.80 525.60 1197.52 544.23
00006598 00000093 1033.76 150.76 361.47 511.97 1093.61 348.45 1238.36 370.76 1112.79 436.19 1092.24 529.38 1203.16 546.01
00006599 00000094 1035.84 148.22 357.61 518.49 1096.39 348.06 1245.39 370.16 1117.56 434.59 1097.53 532.27 1212.63 548.29
00006600 00000095 1035.13 150.39 354.01 517.25 1097.97 350.73 1253.52 372.18 1127.97 437.80 1097.93 532.53 1223.36 548.41
00006601 00000096 1036.73 156.37 364.06 509.96 1098.10 350.77 1258.87 371.27 1132.53 439.68 1098.11 531.21 1230.61 546.31
00006602 00000097 1033.37 148.45 368.18 518.68 1098.37 346.25 1263.73 367.00 1136.75 439.06 1098.18 530.84 1228.38 546.66
00006603 00000098 1028.21 144.38 385.44 517.66 1093.84 348.70 1264.61 360.97 1134.29 439.76 1095.74 529.09 1234.50 540.03
00006604 00000099 1028.87 142.94 379.14 520.82 1094.56 343.44 1262.61 362.00 1130.91 434.25 1092.30 524.03 1228.33 538.66
00006605 00000100 1026.55 137.63 372.22 525.29 1091.73 341.86 1256.42 360.06 1123.73 428.70 1087.95 523.08 1218.17 537.66
00006606 00000101 1022.90 137.66 371.94 530.73 1090.48 342.18 1246.17 357.12 1118.84 424.88 1093.52 527.04 1206.50 538.58
00006607 00000102 1023.91 143.12 370.91 531.12 1090.13 343.96 1242.29 360.23 1113.80 427.66 1092.03 530.73 1204.18 542.76
00006608 00000103 1025.37 145.21 367.72 530.56 1086.93 346.29 1242.03 362.59 1110.77 432.20 1089.50 532.97 1211.23 544.81
00006609 00000104 1023.62 146.28 370.30 520.26 1083.75 346.80 1238.72 364.36 1105.59 432.41 1081.32 525.93 1209.62 539.35
00006610 00000105 1021.19 146.81 368.52 516.91 1081.52 345.11 1236.64 363.59 1104.41 431.41 1076.66 525.65 1202.14 540.13
00006611 00000106 1018.02 141.16 373.73 525.90 1077.61 346.06 1234.30 361.88 1100.25 431.49 1075.63 531.32 1198.99 543.66
00006612 00000107 1013.37 138.15 370.57 531.07 1075.09 345.25 1229.39 359.85 1098.76 431.86 1075.07 534.52 1192.52 546.10
00006613 00000108 1006.54 140.42 376.33 526.30 1061.10 340.46 1228.44 359.75 1096.12 438.19 1062.07 528.95 1192.09 544.28
00006614 00000109 1001.59 142.39 380.45 525.07 1056.31 339.52 1221.13 359.96 1087.46 437.92 1056.16 525.09 1185.54 541.27
00006615 00000110 999.37 141.01 375.05 526.74 1053.97 342.34 1216.57 361.35 1085.54 439.36 1054.19 525.67 1182.52 540.82
00006616 00000111 999.84 142.72 372.11 526.50 1055.28 344.17 1220.09 363.29 1087.14 441.06 1055.91 527.89 1187.63 542.90
00006617 00000112 1000.66 146.03 367.35 525.91 1056.40 345.70 1222.82 365.03 1094.30 445.79 1059.24 532.54 1188.85 547.55
00006618 00000113 999.45 145.13 364.72 529.11 1055.18 346.28 1223.66 365.78 1090.91 448.33 1057.61 535.46 1193.73 550.29
00006619 00000114 996.99 142.78 363.93 531.42 1054.80 344.63 1220.34 365.48 1086.10 448.55 1056.11 533.24 1194.93 548.77
00006620 00000115 996.65 144.77 362.30 529.55 1054.38 343.61 1216.06 366.12 1079.34 446.35 1053.45 532.22 1190.78 549.10
00006621 00000116 996.47 146.29 362.85 527.29 1052.51 342.54 1214.32 364.61 1076.79 445.54 1051.36 531.85 1189.00 548.41
00006622 00000117 996.60 145.47 360.96 525.66 1051.94 342.98 1212.55 365.04 1075.43 446.94 1050.85 531.01 1189.94 547.51
00006623 00000118 996.19 147.55 362.69 522.09 1051.87 344.47 1213.86 366.18 1077.18 448.93 1051.54 530.44 1193.73 546.64
00006624 00000119 996.40 149.44 363.52 521.67 1052.22 345.80 1215.10 366.13 1078.79 449.51 1053.95 532.54 1196.31 547.51
00006625 00000120 997.01 149.32 365.13 524.85 1052.44 346.37 1217.01 366.01 1080.54 450.54 1055.26 534.62 1197.48 548.99
00006626 00000121 996.58 146.78 364.69 526.55 1052.56 346.16 1219.03 365.83 1082.89 451.86 1055.45 534.90 1199.17 549.44
00006627 00000122 997.67 145.56 364.88 526.66 1053.77 347.27 1220.04 365.73 1085.67 451.29 1055.81 533.35 1197.75 547.21
00006628 00000123 998.59 146.75 367.59 526.76 1053.55 346.99 1219.05 365.05 1085.09 449.88 1056.28 533.28 1196.65 546.83
00006629 00000124 999.05 143.73 367.87 527.93 1053.81 345.87 1220.95 364.57 1085.66 449.23 1055.59 531.90 1199.07 546.03
00006630 00000125 1000.42 143.76 368.47 525.51 1054.72 345.24 1221.61 364.82 1086.67 448.66 1056.11 529.90 1200.02 544.63
00006631 00000126 1002.43 144.44 366.90 523.22 1056.11 344.60 1222.12 363.90 1088.10 448.20 1057.79 529.94 1200.39 544.53
00006632 00000127 1004.02 144.81 364.33 524.58 1058.12 346.09 1224.34 363.55 1090.89 446.81 1060.43 530.55 1201.53 543.61
00006633 00000128 1005.86 147.46 369.16 521.70 1058.97 344.14 1226.32 362.60 1091.16 446.62 1061.70 529.65 1205.35 543.52
00006634 00000129 1006.46 147.50 375.57 519.97 1059.39 340.55 1228.64 360.67 1092.42 445.27 1062.63 527.29 1206.43 542.63
00006635 00000130 1010.00 147.09 377.47 518.27 1062.03 342.61 1226.06 356.77 1098.45 442.39 1063.88 528.05 1206.93 540.34
00006636 00000131 1011.85 144.47 375.41 525.16 1062.30 340.00 1233.55 358.78 1098.13 445.45 1068.34 530.95 1207.14 545.14
00006637 00000132 1014.63 140.50 378.09 520.40 1062.01 342.95 1225.56 358.00 1093.76 442.93 1062.24 527.84 1203.93 540.96
00006638 00000133 1015.89 140.30 376.68 521.74 1063.36 342.90 1226.72 358.33 1094.85 442.99 1062.20 528.63 1203.28 542.24
00006639 00000134 1017.24 141.34 375.61 523.03 1064.93 342.57 1228.08 358.71 1096.64 442.35 1064.30 529.91 1204.96 544.20
00006640 00000135 1019.10 154.29 364.37 512.50 1080.15 346.38 1231.33 367.27 1102.07 435.31 1077.60 529.82 1193.99 545.73
00006641 00000136 1021.93 151.89 363.33 514.21 1080.35 341.97 1236.34 367.51 1101.15 437.66 1074.76 528.73 1199.18 548.44
00006642 00000137 1022.55 150.98 367.96 515.48 1081.99 341.93 1238.10 367.03 1102.75 437.63 1075.66 528.83 1197.96 548.36
00006643 00000138 1021.87 148.28 366.58 517.37 1082.55 341.27 1238.25 366.16 1102.90 436.69 1075.57 527.67 1197.09 547.16
00006644 00000139 1021.48 148.43 369.19 516.44 1081.71 340.30 1238.16 364.77 1101.60 434.83 1073.74 526.07 1196.77 545.32
00006645 00000140 1019.73 146.87 369.35 517.11 1080.18 339.64 1237.52 362.83 1100.95 433.77 1073.36 525.73 1195.75 543.93
00006646 00000141 1018.57 145.91 368.13 517.46 1079.64 340.38 1238.47 362.57 1102.74 432.83 1072.05 524.02 1197.55 541.59
00006647 00000142 1016.47 140.31 379.53 519.96 1070.13 335.95 1241.65 355.17 1107.34 438.66 1071.59 523.64 1209.20 538.96
00006648 00000143 1018.18 149.05 371.10 519.51 1081.53 341.66 1240.17 363.76 1106.20 434.03 1076.65 528.46 1197.87 545.83
00006649 00000144 1019.00 153.53 374.11 516.40 1081.71 343.99 1237.62 365.52 1106.20 436.63 1080.21 531.62 1202.52 548.10
00006650 00000145 1016.48 146.35 377.76 517.06 1067.83 344.22 1232.85 362.85 1103.95 445.16 1065.58 529.49 1207.58 545.67
00006651 00000146 1012.61 153.57 374.23 511.02 1066.13 345.96 1230.73 364.63 1102.94 447.96 1063.89 530.21 1210.11 546.05
00006652 00000147 1009.97 156.41 372.12 511.86 1064.25 348.54 1229.40 365.87 1100.38 450.22 1063.67 532.78 1211.80 547.33
00006653 00000148 1008.68 155.12 370.78 510.00 1063.21 350.03 1228.75 367.04 1101.26 452.84 1062.64 534.43 1208.76 548.54
00006654 00000149 1006.47 157.57 364.98 508.38 1060.70 348.54 1230.49 370.23 1099.73 457.39 1061.31 537.10 1202.74 553.66
00006655 00000150 1003.68 154.69 368.46 513.02 1056.59 348.00 1225.48 367.31 1095.17 454.88 1058.98 536.53 1196.86 551.32
00006656 00000151 1000.71 154.53 365.81 512.46 1055.28 349.40 1223.21 367.95 1093.97 455.25 1057.09 536.35 1194.49 550.61
00006657 00000152 1000.17 157.42 366.92 511.52 1054.77 350.45 1223.11 368.61 1093.02 457.02 1057.98 539.97 1194.17 553.85
00006658 00000153 1000.25 157.20 372.60 514.46 1054.34 352.00 1222.12 372.17 1091.36 461.10 1057.50 541.01 1194.95 556.30
00006659 00000154 1002.12 161.87 374.96 514.68 1057.08 358.79 1220.66 370.65 1096.34 461.37 1061.79 546.43 1197.95 556.50
CROP_BBOX: 783 0 1601 825
