Video ID: 	HpYK7DDO6NA
H: 	1080
W: 	1920
FPS: 	25.0

FRAME INDEX X0 Y0 W H [Landmarks (5 Points)]

00005055 00000000 685.09 204.45 495.27 655.11 735.98 455.14 931.50 434.88 772.53 570.99 774.40 705.74 919.06 690.11
00005056 DELETE   682.34 204.12 495.08 655.21 730.71 454.33 924.97 435.61 765.96 570.85 765.39 705.47 909.36 691.39
00005057 00000002 687.85 193.79 491.77 672.20 736.20 449.24 916.36 439.36 760.63 560.90 760.37 698.05 899.58 690.19
00005058 00000003 684.41 192.17 492.01 674.54 732.80 449.54 912.95 440.01 755.56 562.00 755.07 697.48 897.88 689.98
00005059 00000004 677.76 192.41 494.66 674.16 725.02 447.01 905.74 439.48 747.77 565.75 748.70 697.87 891.69 691.93
00005060 00000005 674.50 189.95 494.67 677.93 721.57 447.69 900.82 439.73 743.57 565.27 744.15 698.16 887.82 691.84
00005061 00000006 670.09 189.60 495.93 679.30 717.29 448.18 899.27 438.78 742.24 567.01 741.56 700.22 886.60 692.67
00005062 00000007 668.03 192.98 495.90 676.23 714.54 448.65 897.23 438.38 740.28 568.08 740.25 701.43 884.07 693.23
00005063 00000008 667.94 197.39 494.84 670.53 714.51 448.01 893.65 439.47 737.52 569.14 741.16 699.46 881.69 692.58
00005064 00000009 667.98 196.76 493.51 670.16 713.20 449.05 891.76 438.66 736.09 568.86 740.80 699.96 880.44 691.63
00005065 00000010 666.38 199.11 495.96 667.95 713.20 450.00 891.98 440.26 734.57 569.35 739.67 699.23 879.59 691.60
00005066 00000011 665.49 197.63 495.87 669.28 713.52 450.80 891.52 440.78 734.71 570.19 739.69 699.66 878.83 691.89
00005067 00000012 664.42 203.73 494.22 662.35 712.19 454.48 892.05 443.10 736.01 571.38 738.64 700.67 877.78 691.89
00005068 00000013 664.86 207.56 495.64 659.28 713.22 455.80 890.87 443.93 733.99 572.21 739.96 701.76 877.83 692.55
00005069 00000014 667.07 206.55 494.37 661.77 714.97 455.57 889.98 445.63 733.42 573.35 740.02 702.22 877.00 694.67
00005070 00000015 670.29 207.47 492.61 662.58 717.54 456.86 889.40 446.58 732.12 574.28 741.25 703.20 877.93 695.37
00005071 00000016 671.92 208.54 490.41 663.35 718.75 455.12 889.75 446.24 733.27 573.71 741.89 703.42 877.96 696.64
00005072 00000017 675.67 205.54 487.30 665.65 719.68 452.73 891.84 447.47 735.45 575.46 742.36 703.20 878.97 699.32
00005073 00000018 678.44 209.05 487.60 663.16 724.76 455.22 896.54 450.39 739.60 575.86 746.22 703.11 882.21 699.56
00005074 00000019 681.62 210.35 487.79 661.58 727.72 459.57 899.88 452.02 742.85 574.34 749.70 704.50 885.37 698.70
00005075 00000020 684.13 209.33 485.15 663.96 730.60 460.13 904.19 452.37 748.01 575.44 752.57 706.08 888.56 700.07
00005076 00000021 681.83 221.36 488.77 642.52 727.31 467.53 915.32 456.95 748.98 577.63 751.00 713.43 900.17 707.28
00005077 00000022 683.04 227.49 491.29 637.16 729.62 468.13 919.26 459.25 753.81 579.95 755.11 713.15 904.27 708.19
00005078 00000023 686.60 224.12 489.06 640.47 733.37 467.69 923.52 459.04 759.73 580.88 759.00 713.22 909.29 708.43
00005079 00000024 689.08 229.19 488.06 636.08 738.57 468.06 925.90 459.32 765.68 582.25 763.86 712.26 912.80 707.15
00005080 00000025 693.44 230.54 486.75 636.40 742.78 468.83 929.63 461.88 769.70 583.27 765.90 711.29 915.34 707.43
00005081 00000026 697.25 229.19 485.10 639.02 745.98 467.98 932.67 461.28 772.43 583.14 768.52 711.40 918.44 707.57
00005082 00000027 698.23 223.71 489.59 648.42 748.17 467.66 934.78 459.71 774.23 583.34 773.27 713.08 922.33 708.11
00005083 00000028 703.98 222.41 486.70 654.75 752.55 464.45 938.36 458.73 782.06 589.26 786.25 713.38 924.35 708.75
00005084 00000029 707.36 229.72 487.71 646.91 757.86 468.96 944.65 459.83 784.74 582.36 780.77 712.83 927.46 706.99
00005085 00000030 710.98 229.13 488.59 647.44 761.07 467.40 950.00 460.03 789.63 583.91 782.91 712.83 931.35 708.46
00005086 00000031 718.55 233.33 484.10 644.33 766.20 466.01 955.02 459.86 793.63 583.77 787.03 711.72 935.48 708.21
00005087 00000032 722.79 224.45 484.48 656.39 766.07 466.53 951.98 462.88 795.07 592.37 797.04 713.04 936.10 710.65
00005088 00000033 723.27 223.91 486.53 655.75 769.59 466.13 954.53 462.06 800.68 592.25 801.71 712.15 939.83 709.33
00005089 00000034 724.84 223.92 487.20 656.37 773.66 468.72 959.03 464.23 805.46 591.21 803.37 712.69 941.48 709.71
00005090 00000035 728.87 227.32 484.95 654.27 776.64 470.11 959.49 464.99 807.95 592.15 806.71 713.75 943.71 710.26
00005091 00000036 730.81 224.79 484.81 658.16 778.94 470.89 961.71 466.67 809.77 592.96 807.31 714.48 944.16 711.73
00005092 00000037 732.24 228.80 484.84 655.43 779.21 470.52 962.21 467.82 809.36 594.41 807.02 714.62 944.25 713.18
00005093 00000038 733.20 227.36 485.60 657.75 779.31 470.37 961.72 468.71 808.11 595.35 807.50 715.99 943.42 715.42
00005094 00000039 729.93 229.44 487.71 656.69 777.39 474.62 961.88 470.90 806.97 595.55 805.80 718.38 943.36 716.01
00005095 00000040 729.19 228.26 487.15 658.68 774.40 475.98 961.02 471.77 804.72 596.65 802.87 720.08 942.55 717.38
00005096 00000041 725.74 229.59 485.87 658.36 770.06 476.14 958.38 472.75 802.17 598.62 800.22 720.94 941.14 718.84
00005097 00000042 720.97 237.10 484.22 648.83 768.42 477.96 962.02 469.67 802.60 595.77 790.06 723.68 938.05 718.54
00005098 00000043 716.50 236.73 483.57 651.45 763.87 479.21 957.36 471.01 797.29 597.86 785.42 725.67 935.27 720.53
00005099 00000044 711.44 229.26 484.18 661.63 759.00 479.94 952.01 470.18 791.53 599.39 782.16 728.35 934.02 721.91
00005100 00000045 706.28 234.84 487.35 658.49 755.26 481.15 947.58 471.55 787.99 601.35 779.80 728.72 932.63 722.12
00005101 00000046 702.67 239.71 487.38 654.86 751.78 483.15 942.47 473.17 783.98 602.93 776.01 729.04 929.50 721.85
00005102 00000047 697.94 240.47 489.51 654.13 747.37 485.59 935.59 473.64 777.30 603.49 774.57 729.42 927.78 720.52
00005103 00000048 694.37 242.52 488.65 650.10 743.53 487.44 930.79 475.66 773.40 604.00 771.10 729.04 923.87 720.31
00005104 00000049 691.30 240.54 487.61 651.25 741.95 486.72 928.20 474.36 772.75 602.22 769.16 728.67 920.74 719.62
00005105 00000050 688.59 237.48 488.53 652.50 739.37 488.32 925.67 475.30 771.17 602.21 766.24 727.34 919.52 717.86
00005106 00000051 692.74 221.21 485.61 675.53 739.32 487.19 916.22 474.59 770.60 599.23 770.97 725.74 913.13 714.49
00005107 00000052 690.70 226.13 489.31 670.32 737.42 486.73 913.72 474.80 767.83 600.60 770.56 724.71 912.77 713.94
00005108 00000053 690.85 225.76 488.15 671.24 737.07 488.89 911.13 474.99 765.74 601.08 771.01 726.26 911.32 713.84
00005109 00000054 691.22 224.33 486.62 671.18 736.96 488.35 910.24 475.60 765.01 602.12 770.10 725.79 909.49 714.49
00005110 00000055 691.83 224.39 484.91 669.99 735.48 490.38 909.11 476.52 763.75 604.07 769.09 725.61 910.43 713.55
00005111 00000056 689.52 225.84 488.64 669.56 733.61 491.41 907.58 477.67 759.61 606.64 767.86 723.73 914.43 711.31
00005112 00000057 688.88 223.43 486.94 669.61 734.21 492.25 905.59 477.44 759.06 607.60 769.68 720.54 917.75 706.96
00005113 00000058 688.87 222.46 486.42 669.10 733.37 492.50 904.62 478.33 758.63 609.26 769.89 717.54 919.91 704.28
00005114 00000059 688.60 224.94 486.28 663.96 732.75 493.01 903.93 479.03 758.30 608.84 768.75 715.11 919.24 701.99
00005115 00000060 688.78 223.76 487.15 665.14 733.29 492.92 904.12 479.93 758.16 608.62 768.78 713.50 919.79 701.10
00005116 00000061 684.20 232.49 483.24 649.44 726.60 491.04 908.47 476.62 756.46 612.01 766.66 719.92 918.55 706.29
00005117 00000062 684.40 234.67 482.10 646.59 726.39 491.54 908.88 477.31 755.94 611.15 765.37 719.72 917.12 706.32
00005118 00000063 684.97 232.88 482.49 647.70 726.53 492.00 909.17 477.01 755.75 609.93 765.09 719.83 916.34 705.88
00005119 00000064 685.52 233.13 481.54 646.82 726.96 492.27 909.27 476.40 756.16 608.61 765.76 720.36 915.34 705.79
00005120 00000065 686.05 239.28 481.41 640.81 727.42 491.91 908.81 476.49 755.40 608.91 766.35 720.31 913.72 706.28
00005121 00000066 686.40 238.78 481.46 641.45 728.05 492.11 909.32 476.25 756.01 608.06 767.29 720.65 913.31 706.33
00005122 00000067 686.39 240.14 482.22 641.29 728.14 493.77 909.32 476.03 756.76 607.79 769.05 722.69 913.79 706.86
00005123 00000068 685.96 240.33 482.94 641.77 728.80 495.24 909.39 475.77 758.25 607.84 771.32 725.01 912.30 708.01
00005124 00000069 686.40 240.11 483.61 641.77 729.81 494.85 908.43 476.24 758.27 608.60 772.87 724.77 911.26 708.49
00005125 00000070 686.36 241.88 484.06 641.36 730.28 494.66 909.85 476.41 759.12 608.32 773.80 725.53 912.39 709.49
00005126 00000071 686.38 243.08 485.36 640.65 730.84 493.61 911.28 476.44 761.03 608.88 774.68 727.04 911.03 712.07
00005127 00000072 685.93 249.51 484.81 633.99 733.19 499.33 915.12 479.39 765.09 608.36 767.94 731.20 910.87 716.23
00005128 00000073 687.56 251.96 484.57 632.23 734.92 498.28 916.96 480.36 766.09 609.19 768.91 732.19 908.98 718.90
00005129 00000074 691.25 245.12 480.20 642.86 736.22 493.33 916.09 476.69 766.07 607.82 778.50 734.53 907.42 720.36
00005130 00000075 692.23 244.55 479.91 645.92 737.38 494.45 917.38 476.00 767.76 606.97 780.10 737.71 907.37 722.19
00005131 00000076 690.28 251.78 485.00 639.83 739.38 498.87 920.60 481.25 769.04 609.18 772.45 738.71 908.02 725.61
00005132 00000077 693.30 245.83 479.79 647.94 737.46 492.95 917.34 476.97 766.33 607.89 777.84 738.28 905.99 724.81
00005133 00000078 692.08 250.54 483.41 642.59 739.12 499.41 921.23 482.06 767.64 609.35 769.57 742.12 905.46 729.40
00005134 00000079 693.50 249.87 482.60 643.38 739.30 499.14 920.52 480.81 767.61 610.47 771.01 744.25 906.44 730.76
00005135 00000080 693.14 247.93 482.99 647.14 741.49 499.35 921.92 480.80 769.86 610.04 773.75 743.45 908.98 729.62
00005136 00000081 693.95 249.39 483.34 644.55 742.31 496.11 923.99 479.74 771.28 608.82 773.21 738.73 912.12 726.55
00005137 00000082 695.18 246.79 482.59 647.81 743.69 494.17 923.32 479.29 771.12 609.32 774.88 735.32 915.30 724.00
00005138 00000083 697.08 245.96 482.29 649.49 745.18 493.42 925.18 478.94 772.59 608.97 775.19 733.80 917.96 722.71
00005139 00000084 699.32 243.54 480.67 651.40 746.78 492.33 926.01 478.46 773.57 607.87 776.55 732.43 920.63 721.79
00005140 00000085 702.42 248.00 479.06 646.71 748.07 491.29 927.82 478.42 774.41 609.20 778.29 731.25 923.83 721.23
00005141 00000086 703.62 248.28 478.88 646.45 749.13 489.75 930.80 476.60 777.48 609.33 780.31 730.93 926.39 720.71
00005142 00000087 706.45 249.31 478.11 646.39 751.02 489.20 931.70 476.85 778.54 609.25 782.25 730.90 926.94 721.23
00005143 00000088 708.87 252.14 480.22 643.21 752.37 491.89 933.56 478.06 780.74 608.95 785.26 731.64 929.91 720.73
00005144 00000089 713.77 255.76 479.26 639.20 757.09 493.96 937.79 480.98 785.07 609.65 789.89 731.44 932.52 721.17
00005145 00000090 714.78 253.09 478.89 643.15 759.92 495.48 940.19 480.79 788.55 608.12 793.10 732.76 935.07 721.17
00005146 00000091 715.46 253.42 480.01 643.46 760.15 497.22 942.30 480.82 790.91 609.15 794.66 733.75 938.43 720.79
00005147 00000092 716.08 253.46 482.70 644.13 761.98 499.21 945.06 481.42 794.42 610.16 797.64 735.20 941.16 721.25
00005148 00000093 717.37 256.28 483.28 641.32 763.33 502.22 946.49 482.20 796.94 611.65 801.65 737.45 943.95 721.63
00005149 00000094 722.67 247.09 483.17 652.26 765.69 499.45 943.83 485.66 791.77 613.29 807.97 737.67 946.00 726.17
00005150 00000095 722.40 254.85 480.17 642.69 768.26 503.75 951.43 483.31 802.48 610.87 804.32 735.97 950.38 719.76
00005151 00000096 723.90 245.58 483.56 651.82 768.21 498.74 947.44 487.30 795.82 615.26 809.11 735.18 948.81 725.63
00005152 00000097 723.58 256.91 480.72 637.41 769.25 504.65 954.00 485.06 807.10 612.50 805.67 734.48 955.46 719.03
00005153 00000098 725.82 258.87 478.99 634.58 771.36 504.42 956.21 486.01 809.96 612.82 806.93 732.97 958.59 718.48
00005154 00000099 727.08 261.43 477.80 629.49 771.85 505.68 956.88 487.59 811.13 613.73 807.73 732.31 961.56 718.06
00005155 00000100 728.21 265.16 476.21 624.80 772.46 505.84 957.27 487.62 812.43 615.29 809.61 731.86 965.39 717.36
00005156 00000101 729.47 254.86 482.13 634.42 772.51 500.60 952.08 488.22 803.27 615.91 813.50 730.15 960.26 719.34
00005157 00000102 730.26 255.86 482.22 633.61 773.32 501.20 951.62 488.84 803.49 616.36 815.22 729.69 961.76 718.74
00005158 00000103 730.47 255.11 483.49 634.00 774.15 500.79 951.71 488.75 803.22 615.51 815.85 728.92 961.88 718.19
00005159 00000104 730.86 252.64 483.06 637.13 774.52 499.00 952.17 488.22 803.59 615.16 815.32 727.48 962.31 717.86
00005160 00000105 728.52 250.38 485.79 639.93 773.11 495.60 952.70 484.60 803.30 614.10 814.66 727.77 961.35 717.99
00005161 00000106 728.42 258.79 480.59 637.11 773.03 498.05 957.19 481.85 807.98 611.13 810.27 731.15 963.27 718.45
00005162 00000107 728.80 259.20 479.90 639.12 773.37 497.27 955.42 480.88 805.51 609.67 810.05 732.86 959.46 720.03
00005163 00000108 728.77 254.62 478.54 644.76 771.80 494.86 952.98 478.45 802.44 607.93 808.07 733.75 956.07 720.97
00005164 00000109 728.30 249.20 475.28 649.65 769.44 489.76 951.60 475.13 798.26 606.32 803.94 732.19 953.48 720.75
00005165 00000110 726.50 248.49 477.40 648.32 767.00 491.91 948.81 475.77 794.24 605.57 802.26 732.71 951.39 720.18
00005166 00000111 725.18 248.59 479.20 646.28 763.65 493.46 945.33 475.12 790.11 605.17 800.39 732.17 950.77 717.71
00005167 00000112 721.42 247.95 479.01 648.80 760.17 492.30 942.85 473.34 787.90 604.97 798.80 733.11 948.97 718.07
00005168 00000113 720.13 246.19 478.47 654.49 757.77 490.44 941.76 472.30 785.92 606.91 797.15 733.83 949.83 719.28
00005169 00000114 723.84 246.82 479.04 653.27 759.74 488.16 933.69 476.68 778.73 611.48 804.41 732.67 946.18 722.28
00005170 00000115 722.50 246.03 478.37 652.74 757.31 488.30 935.17 477.49 777.82 611.13 799.21 732.79 942.25 723.16
00005171 00000116 718.95 249.75 475.90 647.69 756.85 490.71 940.23 475.80 782.19 609.27 791.63 731.98 943.34 719.96
00005172 00000117 717.86 247.78 478.57 648.31 757.32 490.99 940.67 476.34 783.57 609.98 791.34 732.67 942.32 721.00
00005173 00000118 719.27 250.33 477.37 645.02 758.86 492.59 941.67 479.78 785.03 611.94 790.52 732.66 940.48 722.55
00005174 00000119 719.51 253.44 477.09 641.93 758.78 496.65 941.89 482.45 786.71 613.44 790.52 735.70 939.28 724.54
00005175 00000120 719.36 251.66 478.15 644.48 759.04 496.98 942.01 483.19 786.26 614.55 791.47 736.60 940.94 725.73
00005176 00000121 718.69 252.96 480.84 646.10 758.83 496.70 942.25 483.40 785.74 615.23 791.22 737.07 941.16 726.49
00005177 00000122 721.44 253.99 480.96 649.25 761.88 499.59 942.67 484.58 788.01 616.33 796.47 739.62 945.66 727.38
00005178 00000123 722.79 252.67 481.53 649.64 764.37 500.86 945.25 484.33 791.43 614.59 800.43 739.42 949.05 726.11
00005179 00000124 725.93 257.76 479.78 641.40 767.03 502.48 949.26 486.04 796.07 613.69 802.74 737.08 951.41 723.99
00005180 00000125 728.25 262.87 477.31 628.54 768.13 503.78 951.71 486.77 800.27 613.49 803.42 733.94 956.27 720.62
00005181 DELETE   730.96 265.58 474.31 620.80 771.84 502.46 956.06 486.51 807.45 612.94 805.89 730.05 961.71 717.63
CROP_BBOX: 468 0 1474 1051
