Video ID: 	LnKe3DPyQZM
H: 	1080
W: 	1920
FPS: 	25.0

FRAME INDEX X0 Y0 W H [Landmarks (5 Points)]

00013421 00000000 351.13 208.13 423.74 584.06 477.29 441.73 668.67 426.75 601.54 559.21 516.97 654.16 668.58 639.87
00013422 00000001 356.80 202.47 426.28 593.96 484.83 443.35 674.03 427.14 608.38 557.47 523.82 657.49 673.53 642.14
00013423 DELETE   368.58 193.47 428.60 611.30 497.24 440.59 694.16 427.27 615.94 561.49 530.29 653.44 689.76 644.53
00013424 00000003 387.99 213.01 416.38 595.90 505.65 440.91 700.22 437.32 619.67 563.57 535.96 661.93 684.76 658.23
00013425 00000004 393.94 221.33 419.37 592.96 511.97 443.58 708.07 437.29 628.06 564.71 545.22 666.16 698.37 660.08
00013426 00000005 399.89 227.37 427.40 591.78 524.30 450.03 715.66 441.10 640.67 571.95 562.40 673.22 707.10 665.12
00013427 00000006 407.38 226.94 431.20 595.52 539.45 457.26 729.47 447.78 657.22 575.67 578.15 675.77 725.14 666.01
00013428 DELETE   425.48 232.68 428.68 592.80 558.33 462.68 750.56 451.93 680.03 578.94 592.67 679.66 746.31 669.25
00013429 DELETE   447.41 237.26 426.19 587.56 585.78 457.78 778.94 451.14 707.65 580.54 609.95 676.68 767.08 671.51
00013430 DELETE   460.18 232.40 427.54 593.33 606.94 458.42 803.63 450.13 740.46 580.92 635.50 676.60 797.44 669.79
00013431 00000010 469.52 236.42 430.41 592.79 623.40 454.55 823.75 445.49 762.80 579.27 651.19 676.93 818.21 668.56
00013432 00000011 480.68 235.40 426.53 596.71 634.30 455.39 837.15 439.36 783.95 580.10 660.15 680.64 835.07 666.91
00013433 00000012 490.62 227.87 424.46 599.01 642.57 456.29 846.55 440.22 794.42 581.92 668.32 679.11 844.17 665.62
00013434 00000013 496.56 234.62 422.82 590.14 648.72 456.66 852.58 440.25 801.81 581.62 674.57 678.01 849.96 664.37
00013435 00000014 501.86 234.38 421.25 594.02 656.58 455.46 855.28 441.36 806.36 578.22 688.71 681.99 852.91 669.40
00013436 00000015 503.92 234.93 419.74 593.59 659.62 455.31 859.31 439.76 811.92 578.74 695.34 684.73 856.72 670.80
00013437 00000016 501.98 234.96 421.65 592.70 661.91 454.38 861.09 440.30 814.13 578.90 701.31 688.29 856.84 675.01
00013438 00000017 501.90 234.07 421.18 595.85 664.23 453.15 861.63 439.59 816.25 577.87 708.62 692.70 856.75 679.37
00013439 00000018 502.71 231.43 419.42 601.20 666.95 453.42 861.12 441.98 816.68 577.05 710.21 694.60 854.36 683.16
00013440 00000019 499.33 233.87 421.45 603.90 666.07 453.72 859.15 440.40 819.00 577.07 709.28 695.26 855.58 682.25
00013441 00000020 496.93 237.06 421.87 602.86 666.33 453.23 857.95 441.46 819.25 576.01 706.40 693.75 853.28 682.42
00013442 00000021 493.26 234.32 424.67 605.92 665.20 453.63 856.90 442.05 817.75 574.95 702.60 691.11 852.67 680.01
00013443 00000022 490.10 235.15 425.99 598.74 659.76 455.05 857.37 442.27 814.63 572.70 695.94 685.56 855.25 673.66
00013444 00000023 489.04 235.87 425.97 591.48 656.81 458.08 859.66 441.99 815.59 575.10 693.67 683.97 860.32 669.58
00013445 00000024 488.34 235.42 425.40 591.34 657.18 458.08 858.79 442.77 814.39 574.82 697.86 685.85 860.20 671.63
00013446 00000025 489.07 234.20 423.68 593.32 658.68 457.79 857.94 442.66 814.36 576.55 701.54 688.99 857.80 674.76
00013447 00000026 490.27 232.68 422.38 599.66 660.03 456.94 854.52 443.57 812.06 577.06 702.79 691.86 852.35 678.89
00013448 00000027 491.44 234.32 421.23 609.40 660.54 457.17 853.28 443.69 813.32 579.58 700.84 697.17 850.50 684.38
00013449 00000028 483.05 240.09 431.66 611.97 657.77 459.13 849.53 443.88 811.59 584.93 688.11 695.96 838.12 682.21
00013450 00000029 488.84 237.73 425.01 613.22 657.87 460.67 853.41 445.90 814.04 582.25 693.54 698.07 851.97 684.68
00013451 00000030 489.42 238.07 423.54 603.84 655.83 461.23 855.19 444.77 811.88 585.51 699.94 701.63 854.77 686.18
00013452 00000031 489.25 242.44 423.16 601.13 656.15 462.49 855.46 445.09 812.05 589.13 704.10 706.17 855.38 689.65
00013453 00000032 484.58 251.57 428.65 597.16 657.65 465.54 849.82 452.29 809.69 594.73 702.52 712.30 839.55 699.55
00013454 00000033 484.73 251.57 429.13 600.08 656.85 467.05 850.44 453.23 810.03 596.12 702.82 714.37 842.63 700.94
00013455 00000034 485.14 252.19 428.74 593.23 656.75 470.50 852.44 455.57 810.63 598.21 700.20 711.05 845.97 696.98
00013456 00000035 484.54 253.11 430.55 596.42 657.15 471.32 852.10 456.23 811.26 598.54 694.65 708.50 843.93 694.58
00013457 00000036 485.16 257.92 429.99 596.38 655.84 472.74 849.84 456.99 809.15 598.65 690.84 708.12 843.77 693.68
00013458 00000037 484.05 258.55 430.77 591.74 654.41 472.31 851.09 456.06 807.95 599.90 690.49 706.44 844.93 691.48
00013459 00000038 484.98 258.97 428.41 581.51 653.53 473.19 851.91 455.94 807.20 599.59 690.14 703.33 846.38 687.84
00013460 00000039 484.30 257.70 428.58 579.49 653.68 472.65 851.89 455.29 806.88 598.64 691.79 702.52 846.63 686.75
00013461 00000040 484.36 258.11 428.50 579.06 653.32 473.61 851.38 455.70 806.32 599.91 692.02 703.35 846.39 687.09
00013462 00000041 482.61 255.56 429.48 583.40 652.93 474.36 851.79 456.48 806.43 601.93 691.07 703.77 846.38 687.49
00013463 00000042 482.45 255.45 429.60 585.48 652.55 475.35 851.04 456.97 806.40 602.99 689.57 703.41 846.64 686.78
00013464 00000043 481.43 256.42 430.60 586.38 651.79 475.45 850.56 457.04 805.94 603.57 688.19 703.74 846.25 687.13
00013465 00000044 482.23 257.36 429.81 586.19 651.64 476.65 850.32 457.55 806.31 603.76 688.71 704.84 846.91 687.65
00013466 00000045 482.74 259.96 428.33 583.59 652.01 477.30 849.64 458.74 805.95 604.00 692.03 709.36 844.96 692.53
00013467 00000046 481.75 262.66 428.55 589.62 652.69 477.37 847.82 459.87 805.52 606.52 695.99 717.76 841.86 701.50
00013468 00000047 483.05 263.17 426.86 595.98 654.22 476.25 848.94 460.08 807.30 607.32 700.25 724.48 840.22 709.14
00013469 00000048 485.51 266.68 423.67 591.76 656.45 478.35 848.68 463.85 807.49 608.23 702.22 725.52 838.76 711.70
00013470 00000049 487.78 271.14 424.30 590.35 657.94 480.03 850.27 465.67 810.26 609.83 700.51 723.91 842.47 710.39
00013471 00000050 492.02 271.12 422.90 584.93 660.70 481.29 853.74 468.07 812.49 611.60 701.81 722.31 846.19 710.24
00013472 00000051 493.69 270.40 423.12 585.85 661.77 481.68 854.93 468.75 813.86 613.29 701.69 721.94 847.61 710.33
00013473 00000052 491.80 277.26 424.28 583.97 661.49 483.42 855.63 471.36 814.36 618.52 699.44 725.96 846.83 715.12
00013474 00000053 489.77 278.54 425.78 589.89 662.19 483.46 858.00 471.67 818.53 620.89 695.19 728.08 848.88 717.66
00013475 00000054 490.09 279.56 426.24 589.46 662.70 485.03 858.45 472.02 820.48 619.63 689.00 724.69 849.73 713.98
00013476 00000055 489.88 276.14 429.21 592.13 665.65 483.39 859.83 469.53 822.88 616.17 689.33 719.95 850.75 708.61
00013477 00000056 488.95 274.66 431.25 594.83 667.80 483.10 859.45 469.62 823.90 615.08 689.45 715.66 851.44 704.60
00013478 00000057 488.46 279.36 433.44 591.08 669.06 484.38 859.50 470.05 824.23 614.88 692.75 715.76 853.57 703.79
00013479 00000058 490.89 278.40 431.45 594.12 670.81 488.08 861.38 472.44 827.39 618.00 693.07 718.42 855.84 705.49
00013480 00000059 492.61 277.27 431.75 604.80 671.62 490.04 862.45 474.38 828.48 621.71 695.29 724.43 857.23 711.36
00013481 00000060 494.97 277.66 431.65 605.04 672.65 493.00 863.52 476.05 829.07 623.45 698.89 727.58 859.49 713.23
00013482 00000061 495.86 275.84 433.10 598.70 672.25 496.70 863.88 479.96 827.92 625.76 699.64 725.96 861.16 711.32
00013483 00000062 496.46 272.92 432.85 594.30 671.41 499.38 864.59 479.81 827.08 627.86 702.06 726.06 863.26 708.96
00013484 00000063 498.21 270.86 431.82 595.97 671.67 501.39 865.46 481.09 827.26 628.87 703.11 727.26 864.78 709.57
00013485 00000064 496.66 274.26 433.56 598.50 672.97 498.91 865.56 480.20 828.22 627.45 705.63 729.59 863.78 712.96
00013486 00000065 495.52 274.18 432.87 608.58 674.70 497.70 864.90 481.30 829.03 626.80 706.64 734.30 860.91 719.80
00013487 00000066 494.88 276.60 431.61 602.63 672.07 496.80 863.28 481.09 825.32 628.20 706.39 734.60 857.79 720.43
00013488 00000067 493.74 273.81 431.92 602.83 669.39 496.42 862.66 480.22 823.64 628.92 703.63 733.03 858.00 718.55
00013489 00000068 491.41 278.11 433.71 597.96 667.65 494.57 861.46 477.29 822.39 627.99 699.18 728.40 857.73 713.10
00013490 00000069 491.48 279.69 434.52 593.75 667.91 494.07 861.00 474.16 823.81 626.49 696.40 724.47 858.65 707.42
00013491 00000070 492.11 276.47 437.17 593.02 667.19 494.14 861.82 470.86 824.79 625.93 695.75 719.69 862.70 699.83
00013492 00000071 494.68 276.22 437.66 589.72 667.31 493.70 863.77 468.06 825.52 623.47 695.05 714.41 867.05 692.58
00013493 00000072 497.53 278.46 437.78 587.76 670.66 494.05 865.30 470.20 826.91 623.93 698.73 714.10 868.87 693.49
00013494 00000073 497.03 277.04 437.64 590.69 671.18 493.58 865.01 470.35 827.48 624.42 696.88 714.52 867.51 694.64
00013495 00000074 496.19 276.40 439.29 594.03 670.92 492.04 863.59 471.02 824.85 624.61 698.31 718.07 863.65 699.72
00013496 00000075 494.91 277.15 441.06 596.30 669.91 491.65 862.93 469.32 825.12 624.64 699.73 721.08 863.13 701.51
00013497 00000076 495.62 275.91 439.23 601.89 668.92 492.69 861.94 470.66 822.87 625.76 698.54 722.64 862.44 703.29
00013498 00000077 495.78 282.12 439.15 601.54 667.17 492.25 861.27 472.24 820.73 627.09 697.56 723.88 862.66 705.82
00013499 00000078 496.52 281.36 436.13 603.27 663.40 492.64 859.48 471.36 815.86 628.00 695.34 725.12 860.96 706.08
00013500 00000079 494.34 282.57 435.50 594.72 654.25 489.96 854.70 468.58 805.53 627.15 687.96 721.34 856.43 702.26
00013501 00000080 491.91 278.49 440.70 598.11 645.90 486.00 850.03 465.88 795.58 627.11 677.93 714.54 853.05 696.27
00013502 00000081 491.35 284.23 440.58 593.36 640.92 484.11 845.92 467.57 785.55 629.39 670.08 714.55 845.02 699.22
00013503 00000082 490.84 280.80 438.69 602.10 640.46 484.62 842.55 470.75 782.05 630.24 670.78 718.34 837.85 705.17
00013504 00000083 489.91 283.69 440.99 605.92 638.38 486.25 839.75 475.83 777.30 632.41 664.62 719.12 833.72 709.00
00013505 00000084 489.59 285.36 442.78 604.52 637.68 489.95 838.52 478.76 775.67 635.79 659.70 716.00 835.81 705.41
00013506 00000085 488.55 287.11 442.88 599.43 636.15 491.62 837.89 482.89 770.98 638.64 652.60 710.10 835.56 701.52
00013507 00000086 487.81 291.79 444.21 593.62 634.12 496.20 836.33 485.86 768.73 639.59 646.26 705.17 838.79 695.52
00013508 00000087 486.99 289.64 444.27 595.95 632.19 493.93 834.83 484.12 766.60 637.09 644.75 703.81 837.29 694.56
00013509 00000088 486.41 282.80 444.83 603.71 631.92 488.06 834.04 478.93 766.51 631.71 647.61 703.15 834.85 694.00
00013510 00000089 485.01 273.05 444.36 616.51 631.88 481.50 833.22 465.28 771.49 623.84 660.36 711.12 834.31 695.85
00013511 00000090 486.89 264.03 440.79 619.55 632.61 478.37 832.53 457.14 773.68 614.61 668.63 714.81 832.68 695.16
00013512 00000091 488.49 255.28 438.30 623.61 637.10 472.77 836.43 451.92 779.41 604.07 675.51 714.29 833.47 694.65
00013513 00000092 491.04 243.80 433.53 625.32 646.36 470.12 841.41 450.98 791.34 593.71 685.87 709.76 837.78 691.64
00013514 DELETE   496.60 226.61 429.06 617.76 663.13 463.01 862.72 451.76 814.64 576.49 701.13 694.42 861.46 683.69
00013515 DELETE   503.65 220.33 427.22 606.73 680.78 454.38 873.39 438.81 835.64 563.72 713.58 678.93 872.51 665.25
00013516 00000095 504.61 207.29 440.87 618.48 686.87 437.41 880.27 430.24 836.66 552.09 723.38 662.77 881.08 655.08
00013517 00000096 499.49 199.80 447.84 614.67 693.57 428.85 885.91 417.63 849.59 544.56 729.50 651.09 891.02 639.82
00013518 00000097 497.40 198.36 448.29 605.06 699.68 423.58 887.29 413.07 855.50 535.15 729.64 641.70 889.17 631.50
00013519 00000098 492.85 201.13 449.07 599.58 696.81 420.69 881.92 409.60 854.35 528.68 726.01 636.43 886.82 626.19
00013520 00000099 488.52 196.41 449.46 609.40 690.72 413.67 874.24 404.64 847.40 524.81 721.19 636.52 880.45 627.49
00013521 00000100 490.70 197.82 447.20 612.35 687.70 414.77 871.93 403.82 844.35 526.02 714.85 637.08 879.01 626.74
00013522 00000101 490.84 201.31 447.75 611.13 686.46 418.50 872.91 406.23 844.66 530.37 710.70 637.53 880.25 626.43
00013523 00000102 491.45 205.17 450.72 607.35 688.73 420.35 876.96 408.84 846.87 536.17 712.69 639.32 883.22 629.03
00013524 00000103 498.06 206.90 450.21 604.38 693.28 422.96 885.28 410.05 853.35 538.81 714.10 635.88 892.96 625.14
00013525 00000104 505.25 206.85 446.76 601.70 698.07 423.15 892.82 409.74 860.53 537.02 716.88 633.04 898.58 622.03
00013526 00000105 510.40 207.59 447.17 601.04 701.84 420.42 898.32 410.99 862.74 535.60 719.20 632.00 902.20 624.10
00013527 00000106 513.81 209.58 448.37 602.65 704.46 423.35 900.23 410.95 865.94 541.41 719.47 634.22 905.51 624.25
00013528 00000107 517.06 217.92 446.07 600.21 708.30 434.44 904.24 422.20 872.85 550.36 719.85 642.72 907.20 633.57
00013529 00000108 518.74 224.91 451.93 604.13 713.49 444.85 909.44 434.31 875.52 565.71 719.99 650.18 911.02 642.15
00013530 DELETE   521.74 242.06 449.05 601.82 723.26 475.77 910.96 453.54 884.47 596.07 721.30 668.68 913.66 653.07
00013531 00000110 525.89 262.17 448.24 613.84 732.42 487.84 919.29 482.36 884.54 615.91 721.39 689.20 904.38 685.78
00013532 DELETE   531.86 284.96 442.77 614.20 738.47 522.29 920.41 515.59 885.29 647.47 717.22 712.88 903.23 709.41
00013533 DELETE   541.48 319.85 439.72 588.43 739.52 545.23 920.33 523.03 886.55 671.09 716.14 732.47 899.70 719.99
00013534 00000113 540.13 333.17 444.66 584.91 742.15 556.44 923.95 536.88 889.10 685.87 721.65 746.47 899.58 736.43
00013535 00000114 536.24 345.21 448.23 586.19 731.88 551.73 927.14 539.99 884.31 698.19 724.94 760.52 906.35 752.53
00013536 00000115 535.03 354.57 449.37 587.50 731.74 558.62 925.97 545.50 882.63 704.97 730.22 779.06 901.51 769.59
00013537 00000116 536.18 358.45 446.18 586.24 727.44 558.36 920.92 548.10 873.78 706.98 742.00 794.62 893.91 785.82
00013538 00000117 534.53 354.84 444.20 591.90 723.64 556.61 920.03 549.32 868.96 706.30 746.99 803.02 890.16 795.75
00013539 00000118 533.13 349.92 439.97 599.68 721.29 554.92 914.13 551.09 862.20 705.84 748.22 806.16 881.06 801.28
00013540 00000119 529.20 349.29 441.80 603.67 718.47 554.59 910.90 549.99 858.99 706.52 743.05 805.13 877.00 799.92
00013541 00000120 525.36 346.43 445.02 606.44 715.77 556.61 911.08 551.49 858.22 708.47 735.10 802.36 877.93 797.23
00013542 00000121 524.59 344.92 444.48 606.22 715.25 556.82 909.90 551.29 858.33 706.80 738.22 802.44 878.21 796.69
00013543 00000122 527.35 343.40 440.83 603.78 717.48 556.27 908.91 551.27 856.75 706.18 744.94 804.28 874.34 798.89
00013544 00000123 529.37 346.92 440.69 600.36 717.62 554.66 908.78 548.45 857.85 703.81 748.18 803.89 878.20 797.06
00013545 00000124 531.24 346.52 439.53 597.83 718.48 553.48 910.23 547.38 859.48 701.27 750.19 801.57 881.83 794.70
00013546 00000125 530.78 348.25 440.29 594.17 718.63 552.78 913.53 544.17 864.17 699.89 749.86 798.11 889.93 789.14
00013547 00000126 528.69 344.86 440.62 595.78 718.21 550.38 910.54 542.24 863.95 693.71 747.87 794.53 886.83 786.18
00013548 00000127 525.83 339.70 442.45 597.90 717.96 547.68 907.73 541.06 861.95 689.66 748.06 791.20 883.42 784.05
00013549 00000128 525.73 330.47 438.04 600.23 715.40 542.95 902.58 537.84 856.60 683.76 750.99 787.94 879.62 781.40
00013550 00000129 522.35 327.80 437.50 597.08 713.37 537.83 900.26 533.62 855.10 677.25 752.40 783.97 876.96 778.13
00013551 00000130 518.92 310.10 431.48 613.81 709.71 535.33 890.26 527.88 850.17 673.24 745.82 780.98 875.87 773.86
00013552 00000131 516.34 306.96 429.75 607.04 706.51 532.61 885.02 526.23 844.74 668.63 743.52 773.16 871.55 766.99
00013553 00000132 508.28 305.03 436.18 605.51 704.82 527.44 884.59 521.82 845.18 664.64 740.43 768.25 870.48 762.72
00013554 00000133 502.69 304.90 439.87 600.39 697.13 521.97 884.91 519.06 840.87 658.60 728.30 762.38 869.11 759.07
00013555 00000134 498.43 302.26 441.01 595.81 691.59 518.03 881.33 518.61 835.30 647.97 717.46 749.87 864.49 749.83
00013556 00000135 495.69 296.80 440.39 602.48 688.88 513.84 876.81 513.26 834.21 642.61 712.02 745.09 863.46 743.95
00013557 00000136 494.46 293.24 440.31 604.00 694.73 508.93 882.12 514.93 841.28 636.74 712.05 739.54 861.69 743.78
00013558 00000137 498.31 280.66 438.65 609.92 709.49 506.56 893.15 514.55 856.29 633.01 724.97 736.33 861.21 742.51
00013559 00000138 506.36 273.04 434.73 610.54 727.09 501.46 904.16 503.55 876.94 627.97 745.76 732.69 873.50 733.50
00013560 00000139 512.93 271.41 428.94 602.42 742.13 494.22 910.56 493.06 895.67 615.34 759.91 725.79 881.67 724.43
00013561 00000140 517.96 269.47 421.62 594.13 750.94 489.82 913.90 489.49 902.96 609.60 769.73 720.24 885.95 719.78
00013562 00000141 520.03 266.61 419.90 592.36 758.08 485.58 913.04 481.96 910.72 604.57 773.19 714.30 885.90 712.01
00013563 00000142 523.67 261.60 418.89 584.35 762.72 475.16 918.63 477.15 916.22 592.91 782.37 704.84 893.23 706.60
00013564 00000143 525.33 254.50 422.26 582.25 773.63 466.41 921.30 471.72 927.88 586.77 790.16 697.94 894.35 702.85
00013565 00000144 524.04 242.62 428.18 595.17 780.55 459.07 920.44 474.25 930.51 583.60 793.90 689.34 900.73 701.69
00013566 00000145 535.89 228.54 415.87 603.98 795.25 464.87 923.65 475.80 945.29 572.10 805.92 680.05 899.99 689.50
00013567 00000146 546.40 221.91 410.15 606.64 802.21 453.93 929.91 467.21 952.63 562.48 813.52 674.73 907.92 686.40
00013568 00000147 550.66 221.99 410.63 598.37 806.81 439.83 927.93 441.52 960.13 551.47 823.15 670.14 912.89 672.54
00013569 00000148 549.45 222.94 412.84 591.04 805.76 431.09 925.12 428.16 960.11 543.94 825.51 665.67 913.58 663.93
CROP_BBOX: 30 0 1246 1080
