Video ID: 	HEIco-UYfX0
H: 	1080
W: 	1920
FPS: 	23.976023976023978

FRAME INDEX X0 Y0 W H [Landmarks (5 Points)]

00006098 00000000 653.94 194.52 468.25 672.52 704.59 472.17 890.55 457.08 728.65 575.94 726.66 695.95 900.53 682.59
00006099 DELETE   652.85 194.01 473.25 673.17 695.27 476.00 889.08 447.64 726.81 562.93 730.21 696.49 906.37 670.76
00006100 00000002 664.60 183.72 462.57 682.85 703.41 474.27 901.71 447.46 737.89 571.88 731.51 702.47 906.64 679.74
00006101 DELETE   665.35 193.37 460.36 667.51 713.18 486.25 900.33 463.76 744.28 578.69 738.06 701.25 907.99 682.73
00006102 00000004 664.57 218.01 461.85 653.07 710.25 499.03 894.43 473.52 739.35 591.80 736.26 713.81 901.67 692.93
00006103 00000005 658.07 221.40 463.75 656.41 704.58 505.11 891.80 485.59 737.09 604.89 728.52 720.82 897.46 704.65
00006104 00000006 654.30 230.15 462.64 653.26 697.28 508.82 890.15 490.68 735.62 609.99 725.95 730.16 893.30 715.17
00006105 00000007 653.05 238.38 462.07 643.57 697.62 504.76 889.62 493.60 731.66 613.60 724.93 726.44 890.82 717.07
00006106 00000008 652.15 238.29 463.51 646.29 696.52 503.95 889.69 494.12 731.58 615.89 724.82 728.50 890.58 720.38
00006107 00000009 651.21 241.27 467.63 648.70 693.37 511.22 891.28 498.78 730.27 619.39 721.38 734.01 893.17 723.53
00006108 00000010 651.38 235.79 468.59 658.44 693.69 516.30 889.66 502.12 728.30 625.21 724.12 738.64 895.80 726.41
00006109 00000011 651.55 235.04 467.13 662.36 694.83 513.01 889.98 502.24 726.10 625.69 723.50 737.26 896.72 727.68
00006110 00000012 654.28 233.98 466.74 664.12 698.75 510.27 889.82 497.05 728.91 618.76 726.78 736.86 894.93 725.85
00006111 00000013 659.01 234.89 462.52 657.23 703.57 506.41 890.38 495.77 730.67 612.98 729.34 731.74 893.98 723.14
00006112 00000014 662.73 239.64 461.19 651.07 706.03 500.84 891.58 491.75 736.93 609.93 732.86 730.63 891.68 723.80
00006113 00000015 666.31 238.55 459.49 645.82 708.96 498.89 895.92 490.26 742.60 608.27 735.14 729.06 892.72 722.60
00006114 00000016 666.69 230.17 459.63 654.87 709.04 499.94 897.91 491.41 742.75 613.37 735.40 733.33 893.97 727.18
00006115 00000017 667.02 220.00 460.02 666.48 707.39 504.17 898.24 491.57 741.85 616.03 734.19 739.24 893.78 729.98
00006116 00000018 666.78 218.77 459.05 666.54 707.47 503.97 897.71 493.43 742.22 615.68 732.51 737.60 891.50 730.23
00006117 00000019 667.95 226.21 459.57 653.06 709.26 501.43 899.05 493.70 743.38 615.02 732.98 732.77 892.24 727.59
00006118 00000020 669.64 220.76 459.53 657.74 711.76 499.68 899.76 492.99 744.37 614.31 734.47 731.36 892.28 727.22
00006119 00000021 667.75 213.20 463.93 668.18 711.12 501.90 901.39 495.29 746.26 619.83 735.73 733.97 895.16 729.86
00006120 00000022 660.79 226.45 468.34 665.92 709.10 511.44 908.91 498.82 755.73 624.97 740.00 743.13 914.18 733.49
00006121 00000023 665.09 221.91 465.85 693.31 711.43 507.76 903.49 498.64 744.12 630.96 745.78 747.35 916.82 739.34
00006122 00000024 666.66 229.65 464.95 679.57 712.29 507.25 908.07 498.98 748.46 631.07 744.89 744.05 919.72 736.90
00006123 00000025 667.46 224.16 466.95 675.61 713.59 504.90 911.58 494.83 755.84 626.14 745.22 741.46 918.73 733.49
00006124 00000026 675.93 217.34 462.38 676.06 719.64 501.17 913.14 488.27 762.18 617.73 748.15 737.03 916.28 727.04
00006125 00000027 679.89 229.32 461.84 663.50 722.19 500.44 917.76 488.86 767.66 618.55 751.11 736.22 919.67 727.31
00006126 00000028 681.72 236.04 465.74 659.93 723.59 501.38 921.68 491.97 771.28 624.02 755.65 739.87 923.33 732.39
00006127 00000029 684.07 231.56 466.78 664.43 727.84 500.83 923.88 491.68 773.72 621.74 757.16 740.12 920.97 732.97
00006128 00000030 685.85 237.48 471.65 656.31 730.72 498.90 926.38 492.15 774.72 620.50 762.82 738.24 924.34 732.55
00006129 00000031 687.71 230.71 467.86 658.97 732.06 495.34 926.59 487.27 777.81 614.20 762.73 736.50 919.38 729.98
00006130 00000032 687.90 235.56 464.72 648.90 731.18 491.94 925.48 483.60 778.44 608.57 760.21 732.66 915.75 726.23
00006131 00000033 685.90 227.04 460.04 651.99 730.32 491.81 923.01 482.70 776.71 606.61 757.70 730.18 912.55 723.58
00006132 00000034 682.36 217.66 455.93 652.44 730.84 491.93 922.84 481.78 778.61 602.51 755.18 725.65 910.63 718.82
00006133 00000035 679.12 223.54 459.58 645.83 730.61 485.14 922.45 478.31 775.09 598.29 753.95 715.88 911.30 711.57
00006134 00000036 682.87 216.09 460.41 649.53 730.94 478.41 922.01 474.40 770.15 587.41 749.10 708.92 905.95 706.93
00006135 00000037 684.61 217.72 459.95 643.91 732.41 477.35 924.33 474.44 774.39 590.54 753.41 707.92 908.18 706.78
00006136 00000038 681.21 219.47 461.53 643.53 732.43 484.13 924.38 478.05 778.17 594.60 755.50 710.73 913.56 706.94
00006137 00000039 679.59 213.33 456.20 652.02 730.85 487.24 921.84 481.25 778.56 599.79 752.98 714.94 911.55 711.54
00006138 00000040 675.03 217.77 457.66 646.42 726.88 486.07 918.01 481.99 771.29 600.09 748.10 712.74 910.64 710.53
00006139 00000041 672.52 207.37 460.60 654.15 726.17 479.16 917.46 473.40 765.57 591.86 748.19 707.79 910.82 704.07
00006140 00000042 670.22 193.10 463.05 657.68 726.57 471.15 919.46 472.19 767.93 581.50 742.46 694.75 908.72 696.31
00006141 00000043 671.94 188.04 465.05 655.89 725.59 470.36 919.94 471.16 769.82 580.87 742.80 695.32 907.62 696.65
00006142 00000044 674.16 204.03 463.38 647.55 726.47 474.35 921.59 472.28 773.67 588.22 746.95 701.93 911.14 701.08
00006143 00000045 677.85 202.38 456.06 656.83 728.08 483.06 918.81 477.72 772.94 594.68 748.80 711.62 908.19 708.70
00006144 00000046 672.97 216.91 459.63 643.29 723.62 481.74 920.38 479.10 773.56 598.65 745.49 710.02 909.21 708.97
00006145 00000047 674.71 207.32 457.28 646.75 727.00 477.08 920.06 481.30 769.04 589.85 739.00 699.63 903.07 704.05
00006146 00000048 673.84 201.23 459.75 650.12 726.90 472.37 923.26 477.62 771.94 585.36 739.98 695.79 907.01 700.89
00006147 00000049 678.52 202.83 459.60 650.58 729.03 469.59 927.30 473.87 775.75 585.86 745.98 699.04 909.01 703.56
00006148 00000050 680.22 214.37 459.80 653.23 731.26 476.64 929.37 472.14 779.96 593.09 754.42 712.31 919.34 709.50
00006149 00000051 681.09 214.13 463.29 656.43 735.07 482.06 931.49 475.79 786.49 598.18 759.05 714.68 925.72 710.34
00006150 00000052 685.68 221.44 457.87 643.91 734.32 483.50 933.18 477.85 790.85 600.43 760.40 716.32 926.90 712.43
00006151 00000053 686.61 226.42 457.49 636.75 737.40 480.88 939.47 477.52 796.91 601.01 763.51 715.27 931.89 713.11
00006152 00000054 681.74 229.99 460.86 646.02 745.97 482.05 956.91 483.59 805.51 597.55 762.63 713.47 943.46 714.04
00006153 00000055 680.85 226.44 477.77 644.55 754.01 479.14 968.35 488.23 818.75 606.52 769.07 711.81 951.43 718.07
00006154 00000056 682.29 212.33 468.17 671.57 750.35 484.06 972.71 495.07 822.79 610.01 772.54 717.17 958.89 725.24
00006155 00000057 691.36 209.88 468.08 685.47 756.27 484.66 966.97 494.21 818.96 616.76 772.27 725.36 954.50 733.25
00006156 00000058 690.19 207.11 468.55 688.48 757.68 485.18 966.64 495.35 818.80 617.84 772.66 725.70 953.50 734.20
00006157 00000059 691.62 207.62 469.87 690.08 759.42 483.87 969.35 496.26 818.57 618.76 772.56 725.04 955.42 735.20
00006158 00000060 693.07 208.39 468.37 686.90 760.21 484.48 972.31 498.41 820.85 620.32 772.81 724.25 958.24 735.73
00006159 00000061 692.71 211.51 465.53 676.12 761.36 496.53 984.42 508.20 831.70 627.72 780.83 722.62 971.73 730.11
00006160 00000062 699.05 218.32 461.34 679.91 766.80 501.36 982.21 508.62 829.09 626.90 778.98 736.40 963.53 741.06
00006161 00000063 697.26 214.96 462.81 677.27 766.57 504.87 989.79 514.52 838.56 630.16 786.95 734.96 968.71 741.66
00006162 00000064 701.52 227.90 461.58 675.90 769.02 507.85 989.40 513.13 835.84 631.28 783.08 747.62 964.93 750.83
00006163 00000065 698.49 236.25 469.52 666.21 770.09 511.07 990.93 520.32 840.75 634.33 789.84 747.33 964.87 755.46
00006164 00000066 699.30 232.93 470.20 668.73 770.24 511.13 991.58 522.84 840.07 634.39 788.36 748.35 963.71 758.47
00006165 00000067 699.53 239.79 470.64 662.15 771.66 513.55 991.93 526.42 841.49 637.42 791.34 750.24 963.23 761.41
00006166 00000068 702.22 242.31 466.14 659.83 773.30 516.93 990.73 529.86 842.07 638.75 790.69 753.39 958.93 764.74
00006167 00000069 703.92 233.80 467.04 672.92 773.02 518.46 987.48 530.91 838.88 643.95 791.84 760.13 956.39 771.11
00006168 00000070 703.64 239.96 468.71 675.39 772.07 520.36 989.02 533.59 838.36 648.15 791.19 765.85 955.09 777.66
00006169 00000071 704.31 229.37 465.49 697.71 773.45 521.91 988.67 534.17 836.88 649.44 791.61 770.07 957.16 780.95
00006170 00000072 703.52 233.48 468.38 701.65 774.43 523.17 989.88 535.45 837.75 652.11 794.36 771.75 961.41 782.62
00006171 00000073 704.29 234.71 467.93 704.85 775.23 523.94 990.15 534.98 837.38 651.22 794.73 770.53 965.35 780.06
00006172 00000074 703.11 235.80 466.43 693.81 775.72 520.44 990.69 533.42 840.42 648.60 795.10 763.03 965.90 774.33
00006173 00000075 704.77 247.60 467.89 674.42 774.36 520.29 993.00 530.20 842.72 645.98 795.59 759.88 971.77 768.42
00006174 00000076 705.44 250.20 466.35 661.28 774.01 518.35 993.21 529.54 844.18 643.37 795.39 755.77 969.83 765.53
00006175 00000077 702.95 248.64 468.89 658.99 772.76 516.98 993.79 528.41 844.98 642.06 793.24 751.26 970.56 761.06
00006176 00000078 702.27 249.89 468.35 649.71 772.54 514.60 993.47 528.42 844.99 640.19 792.40 748.40 966.60 760.32
00006177 00000079 704.29 239.26 466.40 656.83 775.39 513.00 994.57 528.37 846.65 639.10 794.68 747.40 962.80 760.67
00006178 00000080 706.57 244.69 468.04 645.22 774.29 510.22 997.70 528.15 847.00 638.70 790.75 741.69 962.62 757.06
00006179 00000081 706.60 241.80 467.43 651.25 775.95 509.58 996.76 527.99 845.79 637.64 791.96 740.92 963.16 756.59
00006180 00000082 706.28 241.18 468.92 657.31 775.64 509.76 994.88 527.36 843.67 640.32 795.28 744.49 965.27 759.41
00006181 00000083 706.72 237.01 468.54 668.02 775.65 512.34 991.71 527.70 838.61 636.43 794.03 747.50 965.40 760.51
00006182 00000084 703.04 240.21 469.90 672.58 773.86 516.68 987.45 530.76 833.77 638.51 790.71 743.05 976.39 753.69
00006183 00000085 703.39 230.09 468.57 684.42 772.59 516.35 984.45 529.68 828.89 637.72 787.09 741.33 976.48 751.13
00006184 00000086 703.18 229.57 470.61 687.27 768.89 514.91 981.60 529.10 823.84 641.18 784.93 742.64 977.48 752.79
00006185 00000087 703.28 236.69 470.63 680.52 771.00 512.73 982.60 530.31 826.22 642.30 789.07 743.92 976.42 757.13
00006186 00000088 705.56 239.02 470.32 658.40 772.68 514.35 987.06 530.97 832.70 642.43 794.72 742.80 971.38 755.99
00006187 00000089 704.69 239.30 472.27 649.98 774.36 508.75 991.34 525.87 837.19 640.34 795.75 740.48 968.18 754.55
00006188 00000090 711.23 239.85 467.84 654.20 777.92 508.93 993.50 525.12 837.54 636.80 795.89 740.35 965.82 754.17
00006189 00000091 710.56 241.89 469.30 651.09 779.30 506.55 993.76 525.27 839.45 636.93 797.84 742.56 961.79 758.35
00006190 00000092 710.40 247.77 470.76 646.47 778.24 503.87 994.33 523.32 840.41 639.51 799.39 744.13 961.87 760.61
00006191 00000093 711.28 250.90 469.89 645.57 778.94 506.26 994.99 524.83 841.96 639.99 801.29 748.52 959.53 764.38
00006192 00000094 714.30 244.61 466.97 651.38 779.92 507.42 993.16 524.66 841.79 637.49 799.91 750.27 955.77 765.36
00006193 00000095 713.31 250.91 469.07 639.72 778.76 504.45 994.11 524.56 840.93 637.52 797.57 744.35 954.90 761.53
00006194 00000096 714.01 246.41 472.14 640.37 779.62 501.15 995.65 522.42 841.17 636.14 795.48 738.50 957.98 756.89
00006195 00000097 717.93 237.29 471.08 643.30 781.43 496.55 996.79 519.36 841.85 634.74 800.10 733.38 963.61 752.80
00006196 00000098 717.22 237.73 471.71 638.84 782.60 494.92 997.96 518.27 843.16 635.21 801.19 730.66 966.72 750.36
00006197 00000099 717.17 242.61 471.91 641.47 782.15 497.38 998.10 519.17 842.44 638.71 800.74 735.00 967.39 753.68
00006198 00000100 716.94 239.80 472.12 658.61 782.41 500.48 996.61 518.04 841.07 638.34 804.14 741.38 972.53 756.79
00006199 00000101 716.79 228.76 473.40 673.00 784.85 494.51 998.32 514.30 840.46 633.80 803.83 737.00 978.21 754.19
00006200 00000102 716.95 225.87 476.15 675.36 786.92 488.62 999.49 504.75 841.93 624.80 803.27 729.94 983.74 744.06
00006201 00000103 721.88 221.71 470.80 664.29 789.50 483.38 1001.93 499.00 847.98 619.96 802.79 721.26 986.52 735.06
00006202 00000104 727.48 227.62 467.31 651.38 791.98 482.01 1004.51 499.29 850.42 622.14 804.63 717.52 988.38 732.62
00006203 00000105 728.06 231.27 468.59 646.24 792.80 485.17 1007.21 503.77 853.94 626.89 806.12 719.76 985.90 736.19
00006204 00000106 728.61 228.99 470.84 646.48 793.77 488.87 1006.71 509.15 853.40 630.74 809.60 722.83 983.24 740.59
00006205 00000107 730.72 223.44 469.43 643.27 796.99 483.50 1008.91 506.39 857.58 626.17 809.25 714.69 982.24 734.55
00006206 00000108 740.24 219.83 458.43 640.62 805.27 473.34 1025.65 494.16 867.03 605.34 810.84 708.61 983.30 725.75
00006207 DELETE   754.73 200.80 458.57 659.42 816.93 460.29 1026.75 473.99 874.74 586.45 824.37 698.52 993.04 711.25
00006208 DELETE   762.86 179.44 459.76 663.35 826.21 442.60 1047.99 460.65 887.40 564.21 832.30 682.11 1011.49 698.20
00006209 00000111 766.72 178.60 467.09 655.59 839.25 439.69 1058.05 452.89 895.55 556.62 841.43 669.52 1023.77 679.29
00006210 00000112 771.93 174.84 458.86 660.49 838.60 434.90 1061.10 444.48 900.07 553.64 841.51 672.53 1025.24 680.17
00006211 00000113 771.56 180.88 454.53 654.70 835.48 439.81 1058.71 451.85 894.60 558.76 835.75 676.55 1019.76 686.10
00006212 00000114 771.40 184.16 451.22 644.78 833.61 449.05 1052.53 461.96 889.90 563.91 831.75 676.77 1014.62 686.50
00006213 00000115 770.77 185.80 451.10 641.36 833.47 448.15 1052.29 460.86 889.68 563.47 831.90 675.73 1013.95 685.31
00006214 00000116 771.66 184.61 453.73 643.35 836.32 438.94 1056.78 453.72 893.48 560.94 835.61 673.24 1016.27 684.71
00006215 00000117 771.63 179.43 457.08 647.51 838.59 427.51 1060.35 446.45 896.23 558.16 838.53 667.26 1020.41 681.98
00006216 00000118 774.10 176.47 454.94 647.95 839.08 426.32 1057.97 446.86 893.63 556.97 837.31 665.83 1018.22 681.83
00006217 00000119 774.42 180.73 451.00 647.65 834.68 431.62 1054.05 453.35 887.62 560.62 829.74 670.45 1011.61 687.09
00006218 00000120 764.36 170.77 462.20 658.80 834.53 437.35 1052.80 465.47 890.36 565.94 834.58 669.06 1008.82 692.51
00006219 00000121 760.66 179.65 468.48 656.94 830.26 440.53 1053.02 471.06 891.26 582.21 835.15 678.57 1012.22 703.70
00006220 00000122 763.40 182.58 462.44 660.48 826.94 452.13 1046.30 479.09 894.56 593.85 836.97 688.69 1010.51 712.73
00006221 00000123 762.76 196.82 464.89 659.33 839.01 460.63 1061.02 489.56 910.32 605.63 854.02 700.11 1026.15 723.99
00006222 00000124 761.17 197.88 465.73 662.88 838.25 468.10 1060.50 497.43 909.54 612.96 852.23 705.82 1026.44 729.65
00006223 00000125 759.87 200.03 465.46 659.28 835.52 467.14 1057.05 495.13 905.82 608.90 848.15 705.54 1021.61 728.26
00006224 00000126 757.06 193.29 467.81 666.24 832.12 463.43 1053.04 492.48 899.80 606.00 843.66 703.50 1017.96 727.01
00006225 00000127 755.50 193.78 467.52 678.46 828.25 466.44 1045.46 492.92 892.00 611.53 840.93 706.14 1017.39 727.58
00006226 00000128 758.12 202.02 471.77 683.57 826.59 470.65 1040.26 489.27 886.55 617.10 840.25 714.20 1022.54 729.89
00006227 00000129 752.76 198.38 475.33 688.47 826.99 470.48 1046.52 492.50 891.83 616.43 844.46 706.89 1035.15 723.31
00006228 00000130 758.21 205.21 468.00 663.46 827.18 457.90 1049.17 484.19 894.71 604.59 840.07 695.37 1026.99 715.96
00006229 00000131 762.62 200.64 467.21 659.86 828.42 448.94 1047.09 476.76 887.41 594.59 837.42 687.59 1020.57 710.10
00006230 00000132 765.22 188.18 469.13 663.52 833.91 442.76 1051.37 473.54 890.26 585.51 840.25 680.43 1020.18 705.75
00006231 00000133 768.84 192.80 466.55 666.61 836.57 449.50 1057.41 476.73 899.66 595.77 849.00 690.10 1028.23 712.71
00006232 00000134 764.18 202.84 472.76 668.26 840.25 461.38 1067.01 494.51 910.63 610.28 854.04 702.68 1032.04 729.25
00006233 00000135 763.95 218.54 473.14 671.40 848.26 490.83 1064.36 513.57 911.99 629.17 860.97 727.68 1032.40 746.02
00006234 00000136 762.46 205.16 466.05 684.40 829.09 497.01 1044.61 514.14 894.64 636.19 847.96 734.81 1020.05 749.71
00006235 DELETE   752.99 216.61 467.00 647.87 822.10 475.56 1051.89 499.98 893.61 617.61 838.55 714.77 1011.66 734.81
00006236 00000138 758.20 213.52 463.86 637.06 820.15 456.38 1046.79 480.14 885.36 597.47 832.08 696.53 1007.07 715.88
00006237 00000139 764.58 189.95 464.81 648.21 828.84 451.66 1045.57 473.14 888.85 578.87 837.50 684.09 1007.93 702.16
00006238 00000140 762.89 197.74 464.82 654.75 827.69 453.97 1046.83 480.23 887.15 591.52 839.60 687.41 1013.57 709.07
00006239 00000141 760.06 202.36 466.89 667.49 826.82 473.11 1048.24 493.60 894.94 603.53 843.63 703.78 1026.07 720.09
00006240 00000142 759.95 205.04 471.73 682.97 828.15 477.39 1040.70 501.16 884.23 620.31 838.88 715.32 1022.21 734.78
00006241 00000143 760.31 204.86 468.25 682.14 827.24 475.89 1035.86 498.11 880.45 618.83 839.53 714.86 1019.23 733.06
00006242 00000144 755.33 198.92 465.27 666.81 825.84 470.56 1042.36 496.47 887.31 606.45 838.10 703.70 1017.85 724.34
00006243 00000145 757.13 202.12 464.44 654.81 822.51 458.85 1042.76 487.12 886.44 602.84 835.24 693.46 1014.97 716.32
00006244 00000146 757.29 206.66 463.41 650.91 823.25 457.70 1044.00 486.59 887.11 602.38 834.83 694.88 1009.78 718.46
00006245 00000147 753.95 199.25 464.38 669.54 822.42 466.12 1039.94 493.18 883.92 609.03 835.93 706.28 1008.45 728.29
00006246 00000148 754.95 202.81 466.53 681.12 817.48 476.76 1027.73 493.99 875.39 621.08 834.25 718.39 1009.59 733.16
00006247 00000149 753.10 211.65 465.18 666.68 815.87 473.70 1021.89 495.02 869.63 621.30 831.13 714.93 1001.40 733.52
00006248 00000150 747.77 209.67 462.07 651.96 813.60 467.72 1028.35 493.03 872.07 613.32 825.88 706.68 991.41 727.17
00006249 00000151 748.51 201.27 461.83 656.57 815.54 462.73 1032.26 490.30 875.70 606.76 826.52 703.64 992.69 726.12
00006250 00000152 749.09 204.72 461.83 652.61 814.83 462.93 1033.91 491.91 876.13 610.71 825.28 706.71 991.95 730.28
00006251 00000153 746.45 213.18 464.16 646.90 810.58 474.49 1030.05 499.92 870.52 621.17 826.34 713.33 994.85 733.67
00006252 00000154 751.86 210.03 463.07 656.42 804.96 478.07 1015.45 500.90 858.87 630.68 824.62 723.06 985.91 743.04
00006253 00000155 745.20 211.04 458.02 645.18 806.52 477.51 1023.79 499.68 862.49 620.91 821.88 717.24 986.21 734.62
00006254 00000156 742.69 202.79 462.25 651.41 805.74 473.23 1021.82 493.14 863.04 615.64 822.72 716.23 983.68 731.67
00006255 00000157 742.69 210.14 459.57 645.62 805.82 473.13 1021.50 492.91 863.28 615.48 821.32 715.05 982.67 730.51
00006256 00000158 741.66 210.81 458.92 644.61 804.94 474.85 1019.10 496.37 859.78 616.04 818.08 713.35 980.09 730.32
00006257 00000159 739.82 213.36 460.94 645.27 804.62 479.63 1020.92 503.02 860.73 622.02 818.09 716.00 982.43 734.55
00006258 00000160 746.06 215.08 458.37 652.28 805.52 481.52 1012.52 508.99 859.93 632.19 819.51 719.83 980.73 743.93
00006259 00000161 741.87 218.76 461.48 653.37 805.07 484.52 1015.24 510.79 861.37 634.88 821.70 724.22 984.28 746.90
00006260 00000162 742.13 222.57 461.61 653.60 804.52 484.86 1018.67 509.15 862.82 634.22 821.11 726.58 986.40 747.75
00006261 00000163 741.32 207.44 466.05 673.93 808.09 484.25 1021.45 506.03 865.31 630.16 824.74 728.45 992.45 747.81
00006262 00000164 744.05 209.36 466.29 677.08 810.85 485.10 1022.29 507.05 866.84 628.19 825.71 727.27 993.90 746.77
00006263 00000165 745.42 213.13 466.88 677.04 811.88 484.35 1025.46 507.62 868.52 629.85 826.59 728.50 998.46 748.93
00006264 00000166 747.67 219.28 466.69 675.64 812.83 487.62 1027.47 506.28 872.89 630.58 829.64 732.71 1002.82 749.28
00006265 00000167 752.28 221.28 465.40 675.57 816.65 488.58 1033.02 508.13 879.16 631.75 832.70 732.92 1008.37 750.20
00006266 00000168 754.01 210.82 464.51 685.15 821.52 487.50 1036.28 507.80 883.19 629.92 834.78 730.84 1012.35 748.67
00006267 00000169 752.59 208.28 468.08 689.70 824.03 481.86 1040.59 507.50 884.43 630.32 835.09 723.36 1019.79 744.94
