Video ID: 	6ULSP8VbYKg
H: 	1080
W: 	1920
FPS: 	29.97002997002997

FRAME INDEX X0 Y0 W H [Landmarks (5 Points)]

00036996 00000000 974.38 188.75 442.17 695.20 1026.78 459.60 1178.26 507.29 1020.89 610.66 1034.65 703.15 1157.77 744.47
00036997 00000001 968.13 198.08 436.96 688.56 1017.23 470.26 1170.01 517.15 1011.33 619.25 1025.93 708.00 1151.06 747.73
00036998 DELETE   960.82 208.64 437.40 680.97 1009.63 478.56 1162.88 528.20 1002.85 623.98 1016.43 709.55 1144.31 750.13
00036999 00000003 957.39 211.31 438.76 681.05 1007.50 483.71 1162.70 533.76 1001.36 626.51 1012.97 712.94 1142.15 753.46
00037000 00000004 957.98 210.71 433.82 688.51 1008.14 486.82 1164.58 536.25 1000.09 631.11 1014.59 717.31 1147.92 757.29
00037001 00000005 957.16 215.84 431.09 699.84 1007.59 495.14 1163.22 538.81 997.94 634.81 1020.66 733.88 1147.23 769.09
00037002 00000006 950.71 221.67 435.31 703.38 1005.49 501.06 1157.99 542.49 993.79 639.95 1020.51 739.23 1147.19 771.69
00037003 00000007 946.70 225.89 442.78 703.41 1003.34 504.74 1155.63 549.10 989.60 644.17 1016.30 742.33 1141.90 777.20
00037004 00000008 942.73 227.14 446.24 702.79 1001.46 505.17 1155.13 553.81 986.10 646.44 1010.73 741.02 1139.18 779.10
00037005 00000009 938.75 222.42 448.58 699.58 993.67 498.42 1147.90 552.18 984.47 658.01 1004.95 736.72 1132.12 782.65
00037006 00000010 939.01 221.31 445.62 692.96 991.51 494.66 1148.88 549.59 985.86 654.97 1000.65 732.48 1130.84 779.12
00037007 00000011 943.54 209.25 440.47 689.20 993.71 486.26 1153.78 540.39 993.77 647.50 1001.93 723.89 1131.07 768.78
00037008 00000012 945.80 207.40 437.09 691.52 1004.22 487.57 1167.37 539.78 1003.51 626.97 1000.26 719.64 1124.60 762.32
00037009 00000013 935.99 197.34 450.81 682.62 1000.95 467.65 1168.85 527.47 1003.88 627.55 996.97 712.75 1120.34 762.83
00037010 00000014 945.59 195.17 449.58 684.72 1006.06 467.07 1169.30 521.19 1005.78 611.27 1001.27 702.63 1126.00 746.82
00037011 00000015 944.70 184.03 453.93 687.34 1008.88 452.00 1172.81 510.00 1006.72 608.42 1001.88 698.37 1124.74 746.96
00037012 00000016 949.70 179.52 448.00 690.88 1014.57 447.97 1173.04 502.88 1013.23 599.57 1010.15 695.50 1126.09 741.78
00037013 00000017 954.61 176.03 445.33 696.27 1017.03 443.53 1174.29 498.04 1010.01 594.60 1011.26 692.12 1128.93 738.10
00037014 00000018 954.22 174.75 444.23 694.20 1016.43 443.28 1174.12 497.32 1010.59 592.75 1011.19 689.77 1129.25 735.22
00037015 00000019 952.33 176.34 446.75 688.48 1015.38 444.44 1172.80 499.67 1010.03 594.63 1010.67 687.59 1128.87 733.78
00037016 00000020 949.09 180.30 446.16 684.59 1012.17 445.59 1171.08 503.42 1010.56 599.46 1007.39 689.22 1126.25 737.59
00037017 00000021 944.84 183.64 449.21 682.15 1007.19 447.45 1165.32 505.74 1003.37 605.42 1002.91 691.62 1121.81 740.07
00037018 00000022 941.33 182.44 445.67 683.20 1003.01 449.47 1161.00 508.64 999.57 608.34 999.39 691.35 1118.60 740.49
00037019 00000023 935.99 181.04 446.43 684.78 999.71 449.15 1158.23 508.64 998.30 607.79 996.16 690.70 1116.38 739.98
00037020 00000024 933.49 176.60 445.02 687.16 996.59 449.91 1153.86 508.67 994.32 604.32 992.55 688.88 1112.40 737.59
00037021 00000025 930.78 179.69 444.52 680.41 992.37 449.85 1149.09 508.89 990.28 602.13 985.83 685.89 1105.46 734.86
00037022 00000026 928.14 183.81 445.13 678.10 990.37 448.80 1144.54 508.08 987.32 599.94 982.28 684.24 1100.28 733.44
00037023 00000027 927.24 184.39 443.17 676.69 986.81 447.08 1141.65 507.11 983.10 597.20 978.10 682.25 1096.64 732.02
00037024 00000028 922.70 183.36 448.46 673.28 982.07 448.64 1146.99 502.59 977.28 587.81 977.69 681.76 1103.66 725.22
00037025 00000029 918.06 182.56 447.30 672.22 977.49 446.23 1144.23 502.99 973.08 586.10 972.64 678.22 1101.03 723.96
00037026 00000030 914.12 185.36 448.85 666.18 972.06 443.28 1137.54 502.29 966.18 586.22 967.71 673.14 1095.94 720.38
00037027 00000031 908.76 185.41 445.77 667.32 967.65 440.80 1129.93 501.88 959.66 586.42 960.83 670.77 1087.99 719.33
00037028 00000032 900.97 180.63 450.71 670.51 961.93 440.20 1125.11 499.58 954.60 583.82 954.88 670.47 1082.25 717.42
00037029 00000033 897.29 168.99 456.18 674.69 960.23 437.08 1117.41 486.62 950.36 584.63 961.55 674.28 1082.04 713.99
00037030 00000034 895.89 172.12 447.73 673.51 955.35 438.94 1115.23 494.51 944.52 580.34 950.38 669.14 1074.13 712.65
00037031 00000035 893.52 175.44 447.60 669.21 951.70 436.60 1111.95 493.05 940.47 580.83 946.21 668.98 1069.49 713.35
00037032 00000036 892.60 169.82 450.47 670.44 949.35 430.51 1103.22 478.78 938.66 580.16 952.14 670.90 1070.73 710.07
00037033 00000037 890.06 171.72 450.81 667.38 947.31 429.73 1101.26 478.29 937.69 578.20 949.43 670.08 1066.86 709.43
00037034 00000038 887.97 168.87 450.50 667.82 945.62 427.48 1099.49 477.05 937.64 576.31 947.57 667.46 1063.84 707.57
00037035 00000039 888.31 164.49 449.46 670.59 943.17 426.78 1097.61 475.51 936.25 574.98 946.20 667.16 1062.28 706.83
00037036 00000040 887.66 162.27 447.12 672.33 940.44 426.58 1094.60 475.56 934.74 574.89 944.44 667.24 1059.00 707.39
00037037 00000041 880.48 168.66 450.14 667.33 934.89 435.00 1094.63 488.89 929.06 571.63 934.30 668.13 1051.70 712.04
00037038 00000042 874.99 165.20 451.31 667.25 931.36 434.71 1095.74 487.01 929.85 568.06 931.14 664.58 1050.67 707.54
00037039 00000043 871.48 160.57 451.94 671.96 928.26 433.27 1092.37 483.95 924.90 564.04 927.44 664.42 1046.62 706.16
00037040 00000044 874.04 145.53 439.38 685.16 928.11 421.20 1083.22 474.36 924.73 566.25 927.92 664.19 1037.23 707.77
00037041 00000045 872.72 142.80 436.53 688.09 924.84 423.84 1078.40 474.30 923.25 568.85 927.43 665.72 1034.42 707.71
00037042 00000046 874.00 143.37 433.76 696.70 924.35 425.08 1076.23 475.39 920.47 572.98 926.86 670.18 1034.57 712.91
00037043 00000047 874.25 142.69 432.51 706.93 926.08 427.89 1074.85 476.38 920.07 575.08 929.75 675.68 1036.10 717.09
00037044 00000048 871.91 150.62 435.80 700.31 924.84 427.78 1073.49 479.76 917.49 580.50 927.00 677.16 1033.51 721.35
00037045 00000049 871.72 151.69 436.45 700.63 925.42 432.05 1072.12 483.70 917.42 582.32 926.28 679.06 1031.89 722.98
00037046 00000050 871.26 155.67 433.98 697.29 925.64 433.14 1071.81 484.39 918.14 581.79 925.56 679.13 1031.51 722.86
00037047 00000051 870.28 156.51 433.56 696.92 925.00 431.74 1072.11 483.86 917.73 581.98 924.92 678.96 1030.86 723.52
00037048 00000052 872.88 158.63 434.43 693.87 926.74 431.69 1073.80 484.55 917.97 581.97 926.47 677.82 1033.62 722.79
00037049 00000053 875.32 155.37 432.86 694.64 929.04 429.61 1076.29 483.14 920.78 580.45 930.00 674.81 1037.64 720.30
00037050 00000054 877.83 150.90 431.75 696.37 931.38 426.85 1079.84 478.45 924.62 576.50 933.50 672.29 1042.04 716.09
00037051 00000055 882.96 148.77 429.61 691.04 932.92 424.45 1083.28 473.87 926.38 573.68 935.64 670.49 1043.60 712.84
00037052 00000056 885.65 151.39 432.70 687.73 932.83 423.01 1084.22 471.55 926.66 573.46 936.30 668.89 1046.45 710.28
00037053 00000057 888.82 149.57 430.39 691.46 935.05 424.25 1086.63 471.57 928.86 572.32 938.03 669.41 1050.13 709.61
00037054 00000058 888.99 148.61 433.20 692.74 936.67 425.43 1088.79 470.38 931.87 572.83 941.92 672.18 1053.67 710.29
00037055 00000059 890.08 148.90 431.11 696.67 939.69 426.89 1090.40 470.82 934.25 572.52 945.21 674.35 1055.54 711.66
00037056 00000060 893.27 147.87 431.47 695.75 941.67 427.59 1092.44 471.08 935.54 572.41 947.69 673.48 1059.65 710.51
00037057 00000061 894.90 149.24 435.95 690.88 942.81 428.65 1094.48 472.19 936.74 572.86 949.66 670.65 1065.87 707.13
00037058 00000062 894.93 151.18 438.32 687.32 942.81 429.27 1095.96 472.51 937.51 573.01 949.69 670.23 1068.48 706.18
00037059 00000063 895.58 151.56 441.95 684.58 944.55 428.93 1099.31 470.43 940.09 570.81 951.83 669.38 1072.03 703.63
00037060 00000064 896.34 151.44 441.18 684.15 947.31 427.05 1101.51 469.19 941.96 568.80 953.26 666.14 1075.06 700.73
00037061 00000065 896.16 153.75 440.38 683.39 947.98 427.74 1101.23 470.78 942.15 569.76 954.06 666.14 1075.70 701.38
00037062 00000066 895.68 153.81 441.16 685.02 946.95 428.20 1101.19 470.50 941.25 571.15 954.56 667.91 1077.03 702.67
00037063 00000067 895.28 155.70 443.26 683.07 947.53 427.65 1101.66 470.98 940.94 571.45 954.23 667.68 1076.85 703.33
00037064 00000068 895.05 156.04 445.48 682.73 948.55 427.73 1102.11 470.33 941.35 571.86 956.24 668.40 1078.09 703.23
00037065 00000069 894.84 158.89 447.09 680.86 948.89 428.46 1102.35 471.81 940.45 573.48 956.53 669.55 1077.73 705.01
00037066 00000070 894.55 159.28 446.76 680.60 949.05 426.95 1101.92 470.48 940.16 573.01 957.21 668.28 1079.18 703.71
00037067 00000071 894.80 158.75 446.68 680.75 949.25 425.99 1102.26 468.67 940.10 572.54 957.48 667.96 1079.54 702.62
00037068 00000072 893.67 158.43 447.23 680.39 948.47 427.02 1101.45 470.67 939.80 572.58 956.52 666.97 1079.05 702.52
00037069 00000073 893.36 162.22 446.55 677.77 948.37 427.24 1101.18 472.15 939.55 574.77 956.42 668.01 1077.98 704.62
00037070 00000074 893.26 162.89 447.86 676.80 947.72 427.56 1101.32 472.45 938.81 575.47 956.31 668.35 1078.53 704.94
00037071 00000075 893.33 161.21 446.66 678.02 947.54 427.76 1101.11 472.90 939.14 575.55 955.79 668.38 1077.71 705.09
00037072 00000076 893.99 161.18 444.66 675.99 947.79 428.45 1099.74 474.46 938.05 576.11 955.74 666.47 1077.15 704.05
00037073 00000077 893.46 163.74 446.70 671.74 946.79 430.09 1097.82 477.69 936.82 578.41 954.16 665.03 1076.73 703.49
00037074 00000078 893.06 159.60 447.22 676.68 946.60 430.19 1098.16 476.99 936.98 577.93 954.14 665.55 1076.68 703.46
00037075 00000079 893.75 160.47 447.08 685.16 947.49 429.33 1098.03 475.84 936.03 577.55 955.13 668.16 1077.66 706.51
00037076 00000080 892.07 159.64 444.30 697.83 948.51 430.13 1096.65 474.22 935.85 576.24 954.23 674.88 1072.78 711.69
00037077 00000081 891.55 160.97 444.59 696.68 948.24 429.93 1095.75 472.88 935.23 575.16 954.14 675.31 1071.30 711.07
00037078 00000082 890.54 156.91 446.08 693.76 945.15 433.45 1094.09 473.10 932.04 573.35 951.84 673.98 1070.16 706.55
00037079 00000083 891.06 159.60 447.88 681.09 945.04 437.28 1097.25 477.22 932.11 573.91 949.29 671.72 1070.10 703.85
00037080 00000084 890.34 160.19 446.49 676.05 943.29 436.86 1096.15 478.16 931.66 575.67 947.80 670.33 1068.52 703.37
00037081 00000085 891.28 160.68 443.38 675.65 942.49 435.13 1094.63 478.67 931.24 576.58 948.44 669.42 1068.37 704.37
00037082 00000086 889.49 158.79 442.85 686.98 943.16 431.82 1092.15 473.74 929.82 574.45 948.96 670.73 1066.96 704.63
00037083 00000087 889.58 155.59 443.30 696.35 944.10 429.92 1091.29 471.38 929.74 574.45 951.15 673.17 1067.77 707.00
00037084 00000088 890.00 158.21 442.73 692.14 944.21 430.66 1091.63 472.80 930.88 574.82 951.70 672.04 1068.65 706.48
00037085 00000089 890.21 158.29 443.59 687.46 943.27 431.68 1092.75 474.55 931.37 576.23 950.00 672.02 1067.42 706.80
00037086 00000090 890.26 157.63 440.84 680.44 941.27 430.75 1092.24 474.69 931.87 575.24 946.81 668.33 1064.69 703.81
00037087 00000091 889.95 157.16 440.00 676.61 939.47 429.34 1092.37 472.23 932.49 573.78 945.27 667.31 1064.16 701.89
00037088 00000092 891.12 154.04 436.96 677.98 939.91 428.63 1091.66 471.57 932.68 572.39 945.74 665.08 1063.86 699.64
00037089 00000093 893.08 149.74 433.73 677.58 940.00 427.18 1090.63 469.94 932.18 571.21 946.45 661.93 1064.22 696.19
00037090 00000094 893.65 147.19 430.27 680.88 939.74 426.30 1089.86 468.74 932.17 571.08 945.82 662.11 1062.99 696.29
00037091 00000095 892.78 149.99 428.49 678.87 938.94 427.39 1088.97 470.07 931.05 571.98 944.72 662.83 1062.10 697.11
00037092 00000096 890.22 152.39 431.98 680.88 938.82 427.64 1088.13 469.96 930.49 572.25 944.81 664.47 1061.52 698.65
00037093 00000097 886.70 155.22 436.54 694.73 939.13 427.15 1087.59 468.17 927.54 573.23 946.36 670.64 1063.15 704.31
00037094 00000098 884.34 154.85 437.08 702.53 938.09 426.97 1086.94 469.00 927.69 575.76 946.48 675.78 1061.53 710.93
00037095 00000099 881.73 153.66 435.89 703.26 935.44 428.07 1085.48 470.37 929.04 576.34 945.44 676.62 1060.03 712.24
00037096 00000100 882.36 148.83 434.13 706.34 934.44 427.46 1084.24 469.09 927.55 576.10 945.64 674.83 1061.10 709.85
00037097 00000101 879.94 146.40 434.98 703.14 931.97 426.37 1081.30 470.04 924.17 575.53 942.00 670.64 1057.13 707.29
00037098 00000102 879.79 145.80 434.37 692.62 928.13 425.07 1079.08 469.29 923.18 575.20 937.66 666.37 1053.25 703.30
00037099 00000103 878.53 147.92 437.28 687.29 925.93 425.25 1077.68 470.70 921.95 576.08 934.74 665.90 1049.79 703.79
00037100 00000104 876.84 152.52 441.69 681.00 924.42 425.70 1078.16 474.32 919.96 577.97 930.44 665.84 1046.52 705.95
00037101 00000105 875.61 153.61 440.85 679.68 923.04 426.01 1078.33 474.55 919.91 576.83 927.38 666.20 1044.41 706.44
00037102 00000106 873.85 155.95 442.02 676.67 921.61 426.19 1075.20 474.61 917.00 577.14 926.38 664.72 1043.29 704.80
00037103 00000107 871.17 155.37 439.71 676.31 919.53 426.30 1071.14 473.83 915.21 575.35 924.24 663.62 1037.45 703.33
00037104 00000108 868.28 153.40 444.12 676.77 917.12 425.49 1068.78 472.63 913.19 573.61 921.70 662.13 1034.65 701.42
00037105 00000109 868.43 153.31 442.13 676.92 917.56 425.58 1067.47 472.01 913.48 572.34 921.33 662.39 1032.69 701.28
00037106 00000110 869.33 148.40 439.44 681.58 917.53 425.30 1067.26 471.49 913.70 570.91 921.53 662.26 1032.46 701.15
00037107 00000111 868.51 147.50 439.81 680.49 915.61 422.71 1067.47 468.43 913.09 568.82 919.25 661.86 1029.98 700.58
00037108 00000112 868.59 146.19 440.42 681.79 912.97 419.20 1066.85 461.90 912.28 566.12 917.61 663.27 1028.59 699.99
00037109 00000113 869.43 150.28 433.05 674.12 915.56 418.00 1067.49 459.73 915.24 560.91 918.01 657.74 1028.70 693.95
00037110 00000114 869.61 151.37 437.85 672.92 916.95 414.87 1065.80 452.62 916.24 553.28 918.72 655.38 1024.61 688.02
00037111 00000115 866.36 151.42 433.04 675.22 917.21 413.49 1064.65 450.64 919.05 550.32 919.99 654.32 1024.67 686.93
00037112 00000116 866.67 148.05 431.11 682.97 916.78 411.93 1066.11 447.36 919.71 546.70 918.77 654.09 1026.19 685.64
00037113 00000117 864.17 154.62 433.41 680.38 914.40 416.24 1069.13 447.43 922.21 551.24 919.46 655.82 1033.50 684.14
00037114 00000118 859.41 158.98 435.93 681.28 911.36 423.34 1071.35 446.46 927.78 555.99 922.42 661.65 1040.96 682.85
00037115 00000119 856.97 155.57 436.19 680.74 907.58 425.52 1074.02 442.25 932.51 556.21 922.74 662.67 1046.43 678.36
00037116 00000120 851.01 154.64 441.46 672.91 902.54 425.36 1072.72 439.88 930.20 549.61 916.62 659.55 1041.80 673.40
CROP_BBOX: 551 0 1670 1080
