Video ID: 	lDPXeDh896E
H: 	1080
W: 	1920
FPS: 	25.0

FRAME INDEX X0 Y0 W H [Landmarks (5 Points)]

00006376 00000000 716.51 172.89 519.00 792.68 1065.22 513.25 1160.82 490.61 1242.29 638.57 1085.22 782.66 1162.17 767.27
00006377 00000001 716.48 171.37 520.98 795.07 1066.31 513.22 1161.64 491.28 1243.59 638.78 1086.75 783.01 1163.30 768.15
00006378 00000002 717.45 173.77 521.41 792.32 1067.33 512.45 1163.63 491.05 1245.16 639.06 1086.30 782.69 1163.56 768.42
00006379 00000003 716.20 173.78 524.61 792.01 1067.67 511.26 1164.92 490.60 1245.91 637.80 1087.80 782.21 1165.46 768.44
00006380 00000004 715.31 173.76 525.33 792.14 1067.66 511.64 1164.81 490.66 1245.90 638.03 1087.53 782.57 1164.90 768.55
00006381 00000005 717.79 173.57 524.45 793.11 1069.00 511.41 1166.38 491.36 1247.24 637.78 1088.46 782.33 1166.47 769.10
00006382 00000006 718.34 174.21 525.61 792.21 1070.10 510.88 1167.43 491.08 1248.15 637.37 1088.46 781.30 1166.99 768.33
00006383 00000007 721.05 174.38 523.74 789.85 1070.03 510.53 1169.26 490.82 1248.28 636.00 1089.86 780.08 1169.97 766.99
00006384 00000008 720.76 174.60 523.95 790.19 1070.62 510.26 1169.30 490.80 1248.79 636.49 1089.86 780.70 1169.02 767.94
00006385 00000009 721.17 172.27 524.42 792.00 1071.48 510.04 1170.10 490.67 1249.87 636.38 1091.66 780.25 1170.46 767.45
00006386 00000010 721.46 170.84 525.04 793.15 1071.86 509.31 1171.51 490.59 1250.48 636.16 1091.16 779.72 1170.88 767.44
00006387 00000011 724.14 172.00 523.45 792.26 1072.87 508.14 1173.11 490.35 1251.36 635.43 1090.90 778.88 1171.82 767.39
00006388 00000012 723.12 171.51 524.55 792.79 1072.94 507.78 1172.99 489.78 1251.86 635.48 1091.11 779.04 1171.77 767.40
00006389 00000013 728.26 171.34 520.43 791.47 1074.05 507.67 1175.65 490.02 1251.69 634.88 1091.91 777.64 1173.52 766.16
00006390 00000014 728.65 170.75 522.46 792.27 1073.86 506.65 1179.33 489.29 1253.60 634.56 1092.35 778.30 1176.45 767.01
00006391 00000015 731.13 169.84 520.55 792.89 1076.11 506.64 1180.95 489.48 1254.78 634.34 1094.64 778.53 1177.02 767.31
00006392 00000016 730.79 169.79 520.93 792.79 1076.24 506.54 1180.87 489.18 1254.74 634.37 1094.27 778.33 1176.32 767.02
00006393 00000017 734.96 170.95 518.61 790.45 1076.95 506.32 1183.80 489.25 1255.64 634.18 1095.50 778.29 1179.05 767.11
00006394 00000018 734.18 169.61 522.30 792.95 1077.67 505.31 1186.09 489.21 1257.06 633.52 1096.43 778.12 1180.74 767.77
00006395 00000019 735.18 168.95 522.59 793.90 1078.71 505.36 1187.49 489.20 1258.53 633.81 1097.17 778.26 1181.55 767.90
00006396 00000020 734.27 167.67 523.44 794.94 1078.35 505.23 1187.87 488.74 1258.67 633.93 1097.32 778.60 1182.18 767.97
00006397 DELETE   736.94 170.68 522.38 792.51 1079.54 506.49 1189.51 490.28 1259.02 634.77 1097.11 778.60 1183.05 768.16
00006398 00000022 735.89 168.96 525.01 796.28 1080.51 506.13 1191.23 490.37 1260.59 634.90 1097.60 779.78 1184.05 769.65
00006399 00000023 735.16 168.09 528.11 797.40 1081.76 506.39 1193.49 490.85 1262.56 635.87 1097.38 779.69 1184.97 769.78
00006400 00000024 736.15 173.22 527.74 792.94 1080.92 506.68 1193.25 490.86 1261.31 636.01 1097.45 780.18 1185.01 769.99
00006401 00000025 737.74 171.09 527.31 795.77 1083.49 505.41 1196.41 490.60 1264.03 635.64 1098.51 780.19 1186.70 770.79
00006402 00000026 739.78 174.94 527.26 791.89 1084.43 507.39 1198.23 492.34 1264.53 637.60 1099.56 781.35 1188.66 771.77
00006403 00000027 742.34 172.20 527.99 795.63 1086.25 507.27 1201.67 492.29 1266.92 638.35 1100.83 781.69 1190.54 772.27
00006404 00000028 743.65 174.34 526.47 792.78 1085.77 508.04 1201.82 493.05 1266.22 638.51 1099.94 781.39 1190.59 771.97
00006405 00000029 746.94 177.62 529.67 786.43 1095.51 512.16 1199.25 492.92 1274.87 636.00 1107.75 779.11 1191.73 765.60
00006406 00000030 747.35 176.23 532.09 787.21 1097.11 512.18 1202.55 492.90 1276.85 636.10 1109.87 778.99 1194.93 765.29
00006407 DELETE   749.51 175.58 532.09 788.23 1100.10 513.88 1205.06 493.52 1280.31 638.29 1112.76 780.33 1197.84 765.73
00006408 00000032 750.60 178.60 531.34 784.29 1099.45 513.88 1204.88 493.87 1279.24 638.37 1112.60 780.11 1197.51 765.82
00006409 00000033 753.69 179.54 529.59 784.12 1101.72 514.23 1208.25 493.41 1282.24 638.22 1116.05 781.86 1201.51 766.88
00006410 00000034 755.68 181.25 530.02 781.88 1104.02 513.73 1212.47 493.04 1285.08 638.84 1119.27 782.67 1205.48 767.90
00006411 00000035 757.43 182.30 531.37 781.87 1106.58 512.93 1220.24 492.94 1290.95 640.28 1121.91 785.33 1211.55 771.22
00006412 00000036 758.80 182.45 530.13 781.80 1106.34 513.27 1220.31 492.88 1290.59 640.72 1121.34 785.58 1211.33 771.20
00006413 00000037 759.44 181.51 530.93 783.01 1107.70 513.63 1224.93 493.70 1292.84 641.77 1122.25 785.83 1215.07 771.71
00006414 00000038 761.87 181.80 531.32 783.62 1109.87 514.25 1228.48 493.66 1296.03 642.80 1125.47 786.91 1219.79 772.33
00006415 00000039 762.76 182.49 535.94 785.99 1111.04 515.03 1232.74 493.97 1298.88 643.99 1126.90 788.57 1224.84 773.42
00006416 00000040 761.91 180.61 535.92 788.18 1111.97 516.53 1231.75 493.79 1299.69 644.71 1128.01 789.34 1224.01 772.91
00006417 00000041 763.04 177.98 538.45 791.08 1111.86 516.04 1235.58 493.88 1300.90 644.32 1127.68 788.90 1228.20 772.84
00006418 00000042 764.19 178.73 539.51 792.29 1112.34 515.83 1237.86 494.31 1301.29 644.89 1128.33 789.02 1230.56 773.51
00006419 00000043 764.50 179.54 541.11 791.11 1110.93 515.53 1240.64 493.62 1301.97 645.23 1128.30 790.63 1233.03 774.84
00006420 00000044 764.59 179.67 540.88 791.42 1111.14 515.61 1240.92 493.71 1302.27 645.24 1128.38 790.61 1233.15 774.79
00006421 00000045 764.36 180.19 543.13 791.18 1110.94 514.92 1243.40 493.89 1303.05 645.27 1127.72 790.59 1235.26 775.50
00006422 00000046 764.32 179.11 543.81 791.81 1110.24 515.71 1245.26 494.00 1303.58 645.76 1127.20 790.96 1237.38 775.09
00006423 00000047 764.09 179.01 544.09 790.59 1109.48 515.51 1247.06 494.25 1304.25 645.49 1126.76 791.13 1239.72 775.51
00006424 00000048 764.31 179.62 543.45 789.35 1109.60 515.72 1246.74 494.14 1304.05 645.53 1126.89 791.00 1238.97 775.18
00006425 00000049 764.63 178.74 544.63 791.10 1108.72 514.44 1249.84 493.73 1305.01 644.86 1126.14 791.43 1241.98 776.17
00006426 00000050 765.62 180.30 542.15 789.86 1108.26 514.90 1250.31 496.08 1304.16 645.85 1124.90 791.63 1241.92 777.77
00006427 00000051 763.76 178.67 543.49 790.82 1105.22 514.01 1251.04 496.71 1301.30 645.07 1121.90 790.59 1242.18 777.51
00006428 00000052 763.77 179.05 543.54 790.61 1105.07 513.77 1251.02 496.49 1301.13 644.89 1121.95 790.55 1242.19 777.51
00006429 00000053 760.79 174.78 546.50 793.19 1103.02 512.83 1251.85 494.39 1300.65 643.72 1120.23 790.34 1242.60 776.23
00006430 00000054 759.36 177.43 548.27 791.70 1100.31 511.89 1254.68 495.10 1299.18 643.73 1115.86 789.74 1243.45 776.69
00006431 00000055 754.66 174.56 551.36 794.75 1094.84 511.38 1255.28 495.51 1295.78 642.28 1112.25 789.75 1244.19 776.95
00006432 00000056 754.64 174.81 551.48 794.42 1094.65 511.35 1255.18 495.43 1295.61 642.14 1112.21 789.73 1244.16 776.88
00006433 00000057 751.94 177.56 552.13 792.46 1090.91 511.86 1253.91 498.03 1291.59 641.64 1108.19 789.41 1242.83 777.96
00006434 00000058 747.65 180.11 553.30 791.15 1080.39 512.29 1253.90 497.60 1284.82 637.66 1100.01 790.54 1243.93 777.75
00006435 00000059 740.77 180.60 556.90 792.86 1071.91 512.11 1251.94 500.22 1278.19 637.83 1090.44 788.93 1242.34 778.33
00006436 00000060 740.75 180.63 557.01 792.86 1071.93 512.08 1251.89 500.19 1278.19 637.82 1090.45 788.95 1242.22 778.36
00006437 00000061 733.09 176.65 558.35 799.24 1064.67 514.24 1242.27 504.95 1272.19 635.43 1083.69 785.93 1237.27 777.20
00006438 00000062 721.38 167.81 559.97 796.44 1053.77 503.51 1252.48 498.37 1259.85 634.77 1071.29 783.26 1228.72 779.97
00006439 00000063 713.01 168.13 555.69 803.25 1033.96 509.05 1230.54 500.50 1240.64 636.06 1053.34 786.53 1219.14 779.44
00006440 00000064 713.34 168.19 555.28 803.30 1033.97 509.08 1230.46 500.49 1240.60 636.47 1053.02 786.64 1218.87 779.53
00006441 00000065 706.99 167.05 556.91 801.54 1026.99 508.26 1225.43 502.15 1233.36 634.91 1044.99 783.77 1214.32 778.27
00006442 00000066 692.04 163.95 571.02 801.64 1013.18 509.90 1218.65 502.72 1220.93 634.89 1028.67 780.28 1203.95 773.01
00006443 DELETE   685.65 164.64 573.07 799.07 992.97 506.55 1206.90 501.75 1198.95 630.63 1012.42 779.74 1194.88 774.18
00006444 00000068 685.65 164.84 573.16 798.75 992.95 506.56 1206.86 501.86 1198.85 630.61 1012.21 779.69 1194.69 774.22
00006445 00000069 674.41 158.59 583.85 803.92 974.13 505.09 1196.20 492.90 1182.73 632.66 993.75 778.70 1184.27 767.44
00006446 00000070 661.37 160.17 590.78 797.68 946.95 500.52 1182.77 492.99 1155.29 629.62 979.79 775.97 1177.55 767.64
00006447 00000071 654.10 154.91 594.60 797.01 921.97 494.39 1171.23 486.11 1128.55 624.65 962.83 772.04 1168.95 762.62
00006448 00000072 654.07 154.95 594.43 796.94 921.98 494.41 1171.16 486.19 1128.55 624.62 962.85 772.01 1168.92 762.64
00006449 00000073 649.84 150.62 595.99 804.66 904.98 486.06 1159.48 474.55 1107.92 613.56 950.89 769.77 1155.16 757.63
00006450 00000074 648.28 153.01 590.74 792.28 901.33 488.90 1153.63 474.91 1096.96 617.00 933.92 768.92 1142.28 756.32
00006451 00000075 649.50 149.85 589.45 800.34 890.76 483.86 1148.04 472.24 1084.94 614.86 921.86 762.76 1134.18 752.74
00006452 00000076 649.75 149.62 589.54 800.12 890.39 483.67 1148.10 471.96 1084.61 614.52 921.68 762.60 1134.35 752.54
00006453 00000077 647.96 146.97 589.81 804.24 884.24 481.65 1143.00 472.17 1075.03 611.76 916.33 762.08 1128.84 753.50
00006454 00000078 645.62 140.75 593.19 810.25 876.44 481.05 1139.73 473.11 1065.40 611.68 910.10 763.39 1124.78 755.70
00006455 00000079 646.78 134.43 591.00 811.75 870.71 478.26 1135.44 469.76 1057.18 608.61 904.80 761.51 1119.13 753.34
00006456 00000080 646.72 134.49 591.17 811.74 870.75 478.21 1135.52 469.73 1057.22 608.60 904.83 761.52 1119.14 753.37
00006457 00000081 645.80 132.79 592.39 811.39 861.97 475.30 1132.08 468.01 1046.20 608.27 894.43 759.43 1115.94 751.64
00006458 00000082 642.00 127.66 592.85 815.73 852.67 472.58 1124.09 464.71 1035.70 604.31 887.59 759.96 1108.85 751.23
00006459 00000083 638.15 126.45 595.86 817.20 844.73 467.97 1119.90 460.57 1026.31 597.98 879.75 755.95 1106.08 747.35
00006460 00000084 638.15 126.49 595.87 817.11 844.64 467.89 1119.89 460.50 1026.23 597.96 879.59 755.91 1106.07 747.31
00006461 00000085 634.86 127.85 598.32 814.49 836.50 465.19 1113.80 458.02 1014.96 598.23 870.94 753.65 1100.54 745.12
00006462 DELETE   633.07 128.21 595.86 814.52 830.72 467.86 1107.37 463.69 1003.33 594.01 859.86 747.48 1095.59 741.26
00006463 DELETE   627.85 126.83 597.69 812.33 825.10 473.93 1098.79 472.93 992.38 587.18 848.11 740.01 1086.36 735.98
00006464 00000088 627.85 126.70 597.65 812.39 825.09 473.94 1098.73 472.89 992.38 587.15 848.15 740.00 1086.36 735.93
00006465 00000089 622.43 121.75 600.53 815.24 814.26 465.10 1089.50 461.47 979.87 583.57 840.67 738.79 1076.98 733.06
00006466 00000090 616.98 118.59 602.64 815.52 800.12 460.40 1078.04 454.30 963.19 579.76 830.95 738.76 1066.22 731.39
00006467 00000091 613.54 119.11 607.72 810.93 791.44 457.01 1073.97 449.58 952.73 578.02 823.40 738.04 1060.70 729.79
00006468 00000092 613.48 118.74 607.73 811.34 791.41 457.02 1073.87 449.61 952.62 577.97 823.34 738.03 1060.60 729.78
00006469 00000093 611.39 116.53 609.15 809.98 786.72 453.34 1069.21 444.52 944.75 574.48 818.83 735.37 1054.30 725.96
00006470 00000094 610.51 110.33 609.68 812.48 780.85 452.07 1065.72 441.16 936.07 572.46 813.40 734.48 1049.83 723.52
00006471 00000095 610.23 110.77 607.66 809.62 776.51 451.79 1064.10 439.80 931.60 573.52 808.47 734.47 1048.55 722.75
00006472 00000096 610.19 110.79 607.72 809.46 776.48 451.76 1064.13 439.83 931.57 573.59 808.47 734.49 1048.50 722.82
00006473 00000097 609.63 110.48 609.28 811.62 774.97 451.47 1063.05 439.55 928.77 574.13 806.30 734.39 1047.65 722.75
00006474 00000098 609.83 110.52 610.57 811.04 773.79 452.12 1062.52 440.39 926.82 575.79 805.36 734.27 1047.45 722.76
00006475 00000099 610.14 110.35 610.13 811.40 772.71 452.13 1061.64 440.38 925.42 577.18 804.09 734.42 1047.25 722.91
00006476 00000100 610.06 111.11 610.16 811.88 773.10 452.15 1061.38 440.22 925.48 576.64 804.43 734.36 1046.99 722.67
00006477 00000101 609.54 109.86 610.49 814.57 772.11 452.39 1061.21 440.93 924.22 578.36 803.16 735.09 1046.83 723.82
00006478 00000102 609.54 112.29 610.07 817.18 772.38 454.00 1061.86 443.04 925.19 581.63 803.99 738.08 1047.17 727.14
00006479 00000103 609.64 114.92 610.31 816.64 772.69 456.31 1061.71 445.61 925.02 583.42 804.22 740.01 1046.59 729.26
00006480 00000104 609.64 115.04 610.40 816.99 772.65 456.24 1061.78 445.45 925.16 583.51 804.23 740.04 1047.02 729.22
00006481 00000105 611.91 119.70 609.65 810.08 772.17 458.40 1062.36 447.66 924.68 586.43 805.39 743.15 1046.68 732.39
00006482 00000106 613.16 122.71 608.07 809.65 773.17 459.70 1062.11 448.95 925.58 588.19 806.03 744.53 1046.60 733.74
00006483 00000107 613.74 122.48 609.12 812.06 773.80 460.18 1062.51 448.58 926.86 588.83 808.81 746.84 1048.08 735.27
00006484 00000108 613.56 122.47 609.42 811.96 773.98 460.12 1062.73 448.65 926.97 589.07 808.70 746.71 1047.86 735.28
00006485 00000109 614.17 121.72 609.05 812.25 774.01 460.87 1062.62 449.09 927.04 590.93 809.03 747.19 1048.50 735.49
00006486 00000110 614.14 123.35 608.61 810.44 773.88 461.05 1062.56 449.49 926.98 591.48 809.09 747.57 1048.05 736.08
00006487 00000111 614.28 124.28 608.38 811.99 773.58 461.02 1062.23 449.12 926.46 591.51 808.89 748.63 1047.87 736.86
00006488 00000112 614.05 122.62 608.19 813.04 773.55 460.84 1062.02 449.16 926.26 591.47 808.45 748.08 1047.24 736.53
00006489 00000113 614.01 121.51 609.01 811.35 773.40 460.37 1062.33 448.48 926.18 591.52 808.81 747.46 1047.38 735.73
00006490 00000114 612.86 120.86 609.69 811.64 772.15 460.47 1061.79 448.65 924.98 591.98 807.94 747.35 1046.77 735.61
00006491 00000115 610.15 119.14 610.89 813.13 770.85 460.94 1060.01 448.73 923.67 592.16 807.20 747.29 1045.31 735.26
00006492 00000116 609.84 117.82 610.72 815.31 770.86 460.80 1059.66 448.48 923.28 591.54 806.67 746.88 1044.91 734.81
00006493 00000117 608.83 120.16 611.16 812.25 769.86 460.13 1059.66 447.95 923.01 591.95 806.31 747.15 1044.19 735.22
00006494 00000118 608.11 120.08 612.04 812.46 768.48 460.13 1059.03 446.83 922.09 592.67 806.33 747.35 1045.01 734.48
00006495 00000119 607.52 120.63 611.52 812.00 768.75 460.09 1059.06 447.03 922.70 592.84 806.84 747.85 1043.48 735.23
00006496 00000120 607.02 121.36 612.12 810.96 768.13 459.97 1058.89 447.22 922.23 592.79 806.11 747.40 1043.43 734.98
00006497 00000121 607.38 121.41 612.20 810.35 767.83 460.00 1058.57 446.88 921.70 592.85 806.05 747.37 1043.26 734.67
00006498 00000122 608.20 121.28 610.83 808.98 767.68 460.04 1057.88 445.89 921.49 592.62 806.79 746.82 1044.22 733.27
00006499 00000123 608.25 120.67 611.09 810.16 767.95 460.31 1057.95 445.79 921.82 592.26 807.23 746.86 1044.70 733.00
00006500 00000124 608.26 120.50 610.96 809.98 767.77 460.30 1058.16 445.57 921.93 592.61 807.40 747.06 1044.94 733.04
00006501 00000125 608.95 121.74 609.82 809.85 768.01 460.19 1058.59 445.29 922.58 592.43 808.11 747.56 1045.81 733.41
00006502 00000126 608.94 119.34 609.71 813.02 768.71 459.41 1058.90 444.51 923.22 591.95 808.47 746.71 1046.55 732.60
00006503 00000127 609.64 118.60 609.88 813.38 770.42 458.58 1060.05 443.57 925.31 592.24 810.96 746.45 1048.62 732.25
00006504 00000128 608.94 116.95 611.27 817.30 770.64 458.67 1059.96 443.44 925.48 591.53 811.25 746.60 1049.28 732.14
00006505 00000129 610.50 119.14 610.46 816.33 771.23 458.71 1061.37 443.33 926.78 591.92 811.81 747.17 1050.91 732.65
00006506 00000130 610.97 116.86 611.93 820.66 772.58 459.23 1061.75 443.84 927.39 591.27 813.01 747.18 1051.93 732.62
00006507 00000131 611.03 115.38 612.91 823.00 773.73 458.20 1062.61 442.70 928.64 590.07 813.82 746.56 1052.88 731.93
00006508 00000132 610.74 114.27 613.39 823.17 773.55 458.43 1063.09 442.77 928.98 589.92 813.87 746.45 1053.22 731.65
00006509 00000133 613.71 114.06 614.56 824.31 775.58 456.52 1064.64 440.31 930.81 588.08 816.21 745.74 1056.02 730.50
00006510 00000134 615.18 111.73 617.98 828.57 778.70 454.27 1067.83 438.96 934.14 587.96 819.54 744.80 1059.32 730.33
00006511 00000135 617.37 113.38 616.25 826.73 782.07 453.44 1069.78 438.42 939.11 589.98 823.46 744.03 1063.37 729.70
00006512 00000136 617.38 113.00 616.41 827.40 782.42 453.46 1069.95 438.46 939.32 589.72 823.76 744.01 1063.40 729.70
00006513 00000137 619.94 113.02 614.08 827.85 786.52 452.89 1072.68 438.39 944.43 589.34 828.30 743.30 1066.59 729.43
00006514 00000138 624.12 112.83 613.14 828.78 788.77 452.16 1075.59 436.29 947.92 589.62 832.51 743.75 1071.94 728.82
00006515 00000139 628.98 112.88 609.91 828.38 791.00 453.16 1076.55 436.00 949.23 588.98 835.29 743.83 1074.85 727.92
00006516 00000140 628.84 112.54 610.30 829.27 790.91 453.11 1076.57 435.88 949.05 588.89 835.22 743.79 1074.99 727.82
00006517 00000141 631.16 112.13 610.89 829.08 793.16 452.72 1080.05 435.48 951.73 588.84 837.48 743.56 1077.78 727.71
00006518 00000142 637.62 113.71 606.16 826.44 796.65 453.24 1082.26 435.72 952.85 590.01 839.24 742.59 1079.73 726.70
00006519 00000143 642.55 114.70 605.15 825.92 800.50 452.57 1085.73 435.89 955.90 590.65 842.60 742.69 1083.37 727.62
00006520 00000144 642.62 115.06 605.08 825.66 800.62 452.55 1085.73 435.97 955.92 590.74 842.59 742.67 1083.32 727.68
00006521 00000145 646.73 115.05 605.09 825.90 803.33 452.53 1089.88 436.81 957.92 592.21 844.69 743.83 1086.73 729.75
00006522 00000146 649.94 113.86 605.02 825.92 805.94 451.51 1093.17 436.49 960.27 592.48 847.23 743.55 1089.34 730.19
00006523 DELETE   652.43 111.76 607.01 827.49 808.98 448.81 1096.67 434.59 962.95 593.20 850.70 742.48 1092.85 729.88
CROP_BBOX: 419 0 1679 1080
