Video ID: 	42aRCSGU94k
H: 	1080
W: 	1920
FPS: 	25.0

FRAME INDEX X0 Y0 W H [Landmarks (5 Points)]

00001312 00000000 538.05 73.71 505.22 693.92 784.25 347.93 978.11 379.40 928.72 493.86 774.59 595.98 928.76 622.42
00001313 DELETE   542.00 78.13 503.11 690.66 785.71 353.47 979.79 385.13 929.76 496.74 780.19 600.61 931.53 626.83
00001314 00000002 545.58 80.10 500.12 689.84 788.12 359.45 980.41 391.02 931.66 496.76 784.79 600.78 934.36 626.76
00001315 DELETE   547.78 84.81 500.74 695.36 789.76 363.07 979.52 394.34 933.67 497.74 787.84 604.08 936.79 629.82
00001316 DELETE   541.28 93.24 508.19 701.68 795.35 366.01 982.93 403.18 933.59 504.47 793.75 608.68 937.41 637.27
00001317 00000005 541.40 97.87 508.97 701.90 803.38 372.38 985.90 409.61 941.89 516.22 791.02 616.23 934.30 645.88
00001318 DELETE   549.29 101.11 503.70 704.78 809.76 380.49 988.14 420.40 944.69 524.14 796.38 622.08 937.46 654.24
00001319 00000007 557.28 116.60 498.62 690.59 811.56 386.89 990.79 425.11 947.04 529.31 800.28 628.15 942.14 659.42
00001320 00000008 559.41 117.65 496.99 691.65 814.48 390.91 994.05 428.36 950.62 536.34 802.59 635.07 941.83 666.06
00001321 DELETE   556.66 117.50 498.07 690.42 811.84 392.82 993.51 429.60 949.24 538.12 802.45 638.28 940.57 668.48
00001322 00000010 552.83 117.44 499.81 692.92 809.00 395.55 990.98 429.50 948.80 540.58 799.45 641.58 938.15 669.66
00001323 00000011 547.05 111.68 503.45 700.61 804.56 395.28 986.69 427.11 944.01 541.75 795.73 643.91 933.78 670.06
00001324 DELETE   539.82 109.76 509.38 706.64 798.72 394.46 982.53 426.13 938.04 540.72 790.85 645.55 929.92 671.48
00001325 00000013 538.56 115.48 507.12 702.18 794.67 394.81 979.50 425.81 935.08 539.92 788.16 646.12 929.66 671.67
00001326 00000014 536.56 110.58 506.92 701.00 792.04 393.74 979.55 427.37 931.80 539.79 786.21 643.38 927.52 670.91
00001327 00000015 544.49 107.34 500.56 694.85 789.09 392.84 979.92 422.97 934.57 531.72 792.47 642.79 931.27 667.57
00001328 00000016 545.68 107.82 498.92 691.89 789.20 391.82 980.72 421.72 934.87 530.82 792.95 641.58 932.02 666.14
00001329 00000017 544.82 107.68 501.03 694.07 789.41 390.24 981.16 421.41 934.32 530.76 791.54 641.39 930.60 667.00
00001330 00000018 544.67 107.26 501.17 693.71 790.72 388.57 980.43 419.35 933.85 529.71 791.26 639.24 928.31 664.64
00001331 00000019 545.20 104.57 501.18 693.80 793.72 387.99 980.34 418.88 935.67 526.19 789.83 630.77 929.07 656.75
00001332 00000020 549.08 106.80 495.92 686.14 795.16 394.23 982.40 422.16 940.35 524.04 788.90 626.89 933.72 650.80
00001333 00000021 553.62 104.69 489.49 686.26 801.38 390.32 985.08 424.43 944.32 519.08 790.57 620.17 933.99 649.32
00001334 00000022 555.94 99.34 486.35 691.37 806.44 389.84 986.66 419.36 951.50 520.03 794.38 618.69 937.23 644.36
00001335 00000023 547.29 103.79 498.76 696.31 817.15 381.51 986.34 415.30 955.41 524.78 803.82 620.84 937.94 648.52
00001336 00000024 550.10 106.02 501.28 704.65 822.17 380.01 990.65 415.61 961.38 528.05 808.77 628.33 940.66 657.93
00001337 00000025 556.96 108.92 499.47 711.87 826.44 382.97 993.74 416.84 964.47 529.94 807.74 632.04 942.23 660.70
00001338 00000026 561.53 107.68 498.34 715.69 827.63 386.38 995.96 422.97 963.04 532.41 805.97 634.09 943.40 665.19
00001339 00000027 562.73 104.51 499.14 716.85 827.71 388.73 996.92 426.50 962.56 531.61 804.61 628.42 947.78 660.29
00001340 00000028 575.97 97.87 492.28 717.51 825.21 383.49 1007.33 420.18 968.84 527.72 803.15 626.99 953.54 656.98
00001341 00000029 577.47 95.07 493.13 720.30 830.37 382.39 1010.79 418.28 974.46 528.66 808.48 626.64 955.81 656.05
00001342 00000030 580.29 93.15 493.07 721.78 833.08 384.00 1015.38 418.81 977.47 529.67 814.92 628.10 961.72 656.30
00001343 00000031 584.97 94.08 493.95 721.18 837.09 385.98 1022.07 417.24 981.20 531.34 823.84 632.00 967.03 657.64
00001344 00000032 589.00 93.05 495.76 715.44 841.50 387.70 1029.29 415.77 987.01 533.31 829.41 631.22 972.06 654.90
00001345 00000033 591.30 93.43 496.65 718.91 844.75 387.89 1034.15 414.24 991.32 533.88 832.73 633.93 976.72 656.29
00001346 00000034 595.52 97.65 498.23 717.92 850.05 387.68 1039.12 416.68 996.47 535.45 840.97 639.95 982.04 664.16
00001347 00000035 591.02 106.11 506.16 720.65 855.07 391.33 1037.71 425.20 994.43 548.74 837.49 648.94 978.33 676.84
00001348 00000036 594.24 108.96 504.24 719.25 861.23 395.49 1042.34 429.97 1000.36 554.44 840.60 651.06 980.68 679.60
00001349 00000037 602.33 113.36 502.56 719.74 868.17 401.68 1045.09 431.09 1007.05 556.20 849.22 654.49 987.97 679.23
00001350 00000038 611.21 117.36 497.43 718.54 873.08 408.63 1048.80 432.15 1012.39 562.36 857.63 658.39 995.96 678.25
00001351 00000039 612.75 135.82 499.09 701.98 878.34 420.83 1055.85 436.04 1026.48 567.38 867.45 668.48 1003.65 682.34
00001352 DELETE   619.83 139.84 495.64 698.46 887.41 438.08 1062.56 451.14 1040.63 574.46 876.83 675.89 1011.88 688.52
00001353 DELETE   625.40 139.15 495.99 706.89 892.09 439.92 1074.73 454.58 1057.57 577.37 875.53 677.82 1023.92 691.34
00001354 00000042 634.10 134.95 487.92 709.62 902.43 442.98 1082.24 446.66 1067.65 580.93 889.93 684.45 1027.60 689.86
00001355 00000043 641.89 134.63 476.43 704.86 904.21 442.15 1083.13 443.25 1072.99 574.98 902.24 681.39 1041.67 684.26
00001356 00000044 643.15 122.56 475.48 712.26 905.98 439.22 1082.06 436.44 1073.75 570.30 906.80 677.22 1044.40 676.86
00001357 00000045 643.17 110.64 477.29 724.80 921.23 439.00 1078.60 430.44 1079.93 570.13 920.69 678.55 1040.97 673.57
00001358 00000046 643.39 107.43 479.80 727.08 922.14 429.96 1081.60 425.27 1081.23 565.94 923.10 677.09 1043.34 675.23
00001359 00000047 647.30 104.51 479.40 731.29 920.32 424.68 1082.58 420.16 1080.15 564.64 922.28 677.60 1044.78 675.93
00001360 00000048 651.02 106.93 475.49 720.09 925.71 421.59 1083.95 420.47 1081.20 561.14 928.18 672.24 1046.74 673.19
00001361 DELETE   654.04 101.98 471.59 716.51 927.16 415.64 1088.36 415.27 1084.14 551.93 935.58 666.45 1054.22 667.52
00001362 00000050 655.16 96.20 467.77 718.86 932.44 412.12 1090.02 414.81 1089.17 545.31 940.45 659.90 1056.66 663.18
00001363 00000051 656.09 93.01 468.79 722.96 934.36 408.20 1094.57 411.36 1094.48 541.44 942.57 658.35 1062.23 662.10
00001364 00000052 659.92 89.11 467.55 726.19 937.97 406.60 1098.87 406.63 1100.48 538.25 947.88 657.18 1069.11 658.25
00001365 00000053 665.65 84.17 463.84 737.51 927.46 405.36 1096.73 402.32 1098.69 526.11 954.10 655.34 1084.76 652.16
00001366 00000054 669.55 80.95 464.03 743.87 929.49 402.24 1098.63 400.81 1099.71 524.95 955.66 658.06 1083.99 656.29
00001367 00000055 670.60 78.11 468.34 747.46 929.34 399.66 1101.13 401.28 1099.70 524.20 952.29 657.52 1081.26 658.75
00001368 00000056 668.19 75.50 471.51 750.15 930.35 397.08 1100.08 400.54 1100.16 521.04 945.79 652.24 1077.61 655.07
00001369 00000057 666.84 74.85 474.18 750.97 930.07 392.47 1099.22 401.25 1097.04 518.61 933.77 640.62 1073.87 648.17
00001370 00000058 665.64 77.37 475.78 751.69 930.32 387.83 1098.51 408.52 1094.90 516.62 917.70 632.45 1064.87 650.26
00001371 DELETE   660.49 83.57 475.16 746.67 926.24 385.17 1094.11 411.42 1087.42 517.46 896.91 626.29 1049.80 648.80
00001372 DELETE   642.20 101.47 495.09 711.86 915.07 390.13 1082.58 416.51 1058.48 517.91 888.56 620.48 1036.00 644.44
00001373 00000061 636.83 102.39 506.58 710.94 886.71 380.96 1074.44 419.67 1035.34 514.33 863.88 617.20 1024.56 649.01
00001374 00000062 629.36 108.18 516.26 699.07 878.48 383.89 1073.72 420.54 1023.82 530.05 856.90 627.52 1015.90 658.04
00001375 00000063 628.66 112.34 518.00 697.38 873.75 384.26 1073.99 418.36 1019.76 532.57 857.72 632.20 1017.55 660.35
00001376 00000064 627.23 111.46 520.09 701.33 874.45 382.21 1076.61 417.34 1022.33 531.71 861.16 635.37 1019.45 663.90
00001377 00000065 627.02 106.06 520.61 710.89 876.01 379.00 1077.21 415.52 1024.02 527.91 863.68 635.31 1020.14 664.52
00001378 00000066 627.29 108.32 520.18 705.90 873.44 377.19 1077.21 413.67 1023.44 526.20 863.28 634.20 1020.72 663.23
00001379 00000067 629.49 101.73 516.67 709.60 875.18 377.19 1076.27 413.54 1023.23 524.64 866.74 635.10 1018.67 664.00
00001380 00000068 628.55 101.31 516.79 703.14 872.91 377.09 1076.38 411.91 1021.43 524.56 866.18 634.66 1017.95 662.30
00001381 00000069 627.38 102.78 517.09 701.25 874.02 375.89 1076.05 410.70 1023.24 524.51 866.72 632.62 1018.83 660.47
00001382 00000070 629.12 102.44 515.23 702.09 875.15 376.91 1075.11 410.00 1025.25 524.69 868.79 632.62 1020.05 659.21
00001383 00000071 629.95 102.17 515.25 705.54 879.71 376.47 1076.08 410.22 1028.13 525.34 871.14 631.78 1020.36 659.06
00001384 00000072 630.33 100.78 515.33 708.44 879.73 377.92 1076.92 410.30 1029.13 526.31 873.55 636.09 1021.58 661.92
00001385 00000073 630.29 100.89 515.27 712.08 879.24 378.84 1077.26 410.30 1030.71 526.22 871.95 637.38 1022.55 662.61
00001386 00000074 632.15 101.60 513.92 709.89 881.22 378.50 1078.30 411.35 1030.70 525.21 874.65 636.10 1023.39 662.32
00001387 00000075 633.72 100.45 512.90 712.96 881.57 379.29 1078.63 411.19 1031.00 525.36 874.48 637.17 1023.74 662.62
00001388 00000076 633.47 100.05 513.32 710.88 882.38 378.75 1078.34 411.20 1031.51 525.00 872.86 634.71 1022.08 660.88
00001389 00000077 633.84 98.13 512.98 713.46 881.14 379.48 1078.87 410.94 1031.63 524.14 871.28 633.73 1024.11 659.14
00001390 00000078 633.00 98.09 513.79 718.17 879.92 380.25 1077.93 410.37 1031.09 523.91 873.36 634.90 1027.11 658.82
00001391 00000079 630.81 99.86 516.55 720.45 879.97 380.51 1077.23 409.31 1030.21 524.26 879.64 638.43 1028.80 660.86
00001392 00000080 629.39 99.74 516.34 712.87 875.64 381.94 1076.93 410.51 1027.36 527.98 875.20 642.19 1024.50 664.49
00001393 00000081 628.01 100.17 515.79 713.59 874.50 380.22 1074.73 410.78 1025.69 526.35 869.61 639.78 1021.01 663.89
00001394 00000082 627.11 100.74 516.15 714.15 872.28 379.58 1074.59 409.40 1025.12 525.35 869.29 640.33 1022.06 663.71
00001395 00000083 625.96 109.08 510.17 704.85 876.30 376.52 1065.45 405.63 1018.32 520.72 882.80 634.22 1026.46 656.46
00001396 00000084 626.26 108.50 508.86 703.79 876.47 375.56 1062.25 404.66 1015.57 520.47 882.92 632.97 1022.71 655.10
00001397 00000085 626.74 110.63 506.54 695.11 876.52 376.93 1061.56 405.76 1013.29 522.53 882.91 631.65 1019.53 653.49
00001398 00000086 623.22 111.25 509.48 695.11 874.57 377.62 1062.09 407.59 1011.65 524.92 877.48 631.89 1017.61 654.87
00001399 00000087 623.41 113.03 508.85 693.78 873.94 378.32 1061.66 407.03 1011.66 528.14 876.03 634.10 1016.44 656.30
00001400 00000088 623.54 111.31 509.21 701.08 871.15 377.22 1061.65 405.21 1010.44 527.79 873.22 636.50 1017.13 658.15
00001401 00000089 622.93 112.98 509.87 701.67 869.13 377.00 1061.22 405.56 1008.33 530.98 867.48 638.13 1014.55 660.67
00001402 00000090 622.45 115.73 510.07 701.56 869.18 376.13 1059.82 405.23 1007.27 531.05 864.31 637.96 1012.52 661.32
00001403 00000091 622.69 115.08 508.37 698.92 867.83 375.83 1058.40 405.94 1004.69 530.92 860.52 634.62 1010.08 658.99
00001404 00000092 622.35 115.41 508.61 690.44 864.91 376.90 1058.40 408.19 1000.94 530.69 857.03 630.41 1009.31 655.51
00001405 00000093 619.76 118.48 509.93 680.99 864.56 378.87 1057.79 410.75 1000.61 529.00 858.65 625.83 1010.08 651.05
00001406 00000094 617.71 115.34 509.55 686.37 863.80 378.70 1056.56 411.20 1000.12 530.47 854.49 626.51 1007.25 652.50
00001407 00000095 617.29 114.11 510.37 692.74 862.43 377.80 1056.43 410.98 998.93 532.48 850.51 630.76 1003.98 657.69
00001408 00000096 616.48 114.16 509.60 692.85 861.44 378.49 1056.11 411.47 998.39 533.44 849.97 631.81 1003.78 658.45
00001409 00000097 614.24 115.55 509.20 690.30 860.64 380.99 1054.19 412.33 997.41 533.39 852.59 632.09 1002.84 657.12
00001410 00000098 617.50 110.71 506.73 692.61 854.85 383.44 1057.15 410.69 1001.91 529.83 856.18 639.37 1003.89 662.44
00001411 00000099 616.86 113.99 506.66 689.46 854.30 384.08 1055.96 411.75 1000.33 532.22 853.90 639.79 1001.09 663.38
00001412 00000100 616.45 110.61 505.80 692.68 852.93 384.99 1054.28 411.81 998.85 532.30 852.33 639.59 999.73 662.41
00001413 00000101 613.55 108.43 507.75 698.99 851.00 384.13 1053.35 410.04 999.85 532.29 848.65 641.63 998.83 663.93
00001414 00000102 612.52 106.72 507.81 707.46 850.38 383.28 1050.96 411.46 998.12 531.44 841.63 639.76 995.15 663.93
00001415 00000103 610.49 106.30 506.55 710.51 849.16 383.19 1049.75 410.44 998.20 530.95 839.02 640.36 994.11 663.88
00001416 00000104 608.36 106.95 507.21 709.01 847.86 383.89 1048.56 409.88 998.00 531.64 838.71 640.61 993.94 663.08
00001417 00000105 606.43 105.67 507.33 714.38 844.50 384.50 1046.57 410.76 995.11 530.05 836.30 641.55 994.03 664.05
00001418 00000106 605.69 105.55 505.20 713.05 842.03 385.41 1044.71 410.54 992.60 530.87 836.53 643.01 993.11 664.47
00001419 00000107 605.25 108.23 505.46 709.33 840.35 386.16 1044.10 410.83 991.26 531.29 835.66 642.67 992.77 663.78
00001420 00000108 605.16 107.15 505.77 708.87 841.09 387.13 1045.05 411.41 992.36 532.94 835.20 642.89 992.22 663.81
00001421 00000109 606.70 107.79 503.81 701.96 842.55 389.16 1045.47 410.70 993.93 532.33 840.17 640.35 994.70 659.21
00001422 00000110 604.95 109.06 505.01 699.53 842.62 390.14 1045.44 411.20 995.25 532.52 837.75 637.80 994.51 656.50
00001423 00000111 604.49 107.42 505.21 702.58 842.17 390.37 1045.34 411.50 995.05 533.03 837.68 638.90 994.38 657.55
00001424 00000112 603.87 106.24 504.76 704.78 839.94 389.95 1045.20 412.62 992.78 534.18 836.41 643.14 991.47 662.97
00001425 00000113 604.67 105.36 503.66 706.23 841.15 389.80 1044.95 413.22 991.84 535.04 838.81 644.52 990.55 664.90
00001426 00000114 604.13 107.33 503.19 704.13 839.07 390.70 1044.66 414.16 989.68 536.17 837.11 645.53 990.42 665.74
00001427 00000115 603.08 108.47 500.75 699.97 834.58 401.37 1040.20 417.18 988.27 536.99 834.65 648.02 989.05 662.23
CROP_BBOX: 305 0 1403 1002
