Video ID: 	gCd7-4f0SfE
H: 	1080
W: 	1920
FPS: 	25.0

FRAME INDEX X0 Y0 W H [Landmarks (5 Points)]

00032813 00000000 620.57 96.96 413.23 644.06 799.93 411.81 970.10 385.74 926.79 513.65 827.96 609.82 968.50 586.82
00032814 DELETE   618.22 98.93 412.54 651.11 796.43 408.81 966.42 384.78 923.26 513.98 826.36 611.05 968.75 589.47
00032815 00000002 613.99 101.53 414.69 652.15 787.40 409.12 961.14 383.01 916.00 516.85 824.18 614.20 969.16 590.73
00032816 00000003 612.96 104.64 415.55 648.78 783.54 410.96 960.95 380.77 915.03 519.86 824.33 618.08 969.75 591.79
00032817 00000004 608.66 107.95 419.02 656.01 778.43 406.93 956.15 378.79 917.68 518.26 821.59 621.96 964.27 597.52
00032818 00000005 609.28 111.56 417.38 655.36 777.07 410.79 953.69 381.63 913.43 522.51 818.10 623.99 962.50 598.74
00032819 00000006 607.65 114.25 417.91 653.08 774.87 414.10 952.59 384.08 912.16 526.54 817.06 627.48 961.78 601.66
00032820 00000007 608.65 118.80 416.39 650.71 773.17 418.94 951.02 387.09 910.22 532.05 815.01 630.93 960.91 603.88
00032821 00000008 611.30 120.36 415.48 647.32 770.80 426.57 956.40 391.10 906.45 536.00 816.33 632.22 970.87 601.55
00032822 00000009 609.39 119.96 417.61 648.55 767.30 432.50 955.10 394.42 904.73 540.60 816.02 636.59 971.28 603.74
00032823 00000010 609.04 120.52 416.11 650.56 765.57 437.92 954.29 396.40 904.63 545.53 817.11 642.17 972.71 606.40
00032824 00000011 606.38 121.56 418.47 653.24 762.99 439.98 954.22 398.29 903.68 549.19 813.14 644.09 971.42 608.17
00032825 00000012 604.33 124.21 420.98 649.99 760.09 441.74 953.83 400.42 901.94 551.33 810.84 646.00 969.17 610.60
00032826 00000013 603.98 129.20 420.75 647.18 757.82 442.80 952.10 400.38 900.94 552.75 809.76 646.69 969.91 610.22
00032827 00000014 600.45 128.04 424.04 650.54 755.11 442.60 950.33 400.04 899.59 551.76 806.61 645.76 969.42 609.23
00032828 00000015 599.01 126.52 424.24 649.02 752.57 441.61 947.61 398.07 897.22 548.77 805.78 643.05 969.48 605.54
00032829 00000016 596.28 122.63 426.08 654.42 749.62 437.52 944.70 393.84 894.68 543.26 802.76 638.82 969.26 601.08
00032830 00000017 591.99 120.97 424.42 653.01 753.28 434.86 934.40 395.83 894.44 535.84 805.00 636.61 957.10 603.40
00032831 00000018 589.89 121.32 423.61 651.78 754.64 433.36 931.58 395.78 892.67 532.18 807.11 637.89 950.69 605.94
00032832 00000019 593.19 114.48 419.39 657.54 750.19 430.47 935.51 392.00 888.99 529.74 805.26 632.67 958.46 600.12
00032833 00000020 585.89 111.85 421.61 654.11 748.57 422.91 924.71 384.77 889.80 520.84 809.67 630.05 951.41 597.40
00032834 00000021 585.34 107.41 420.44 657.75 745.37 421.45 921.43 382.25 886.69 516.29 808.21 626.71 950.94 593.15
00032835 00000022 583.69 111.24 422.22 654.09 742.18 420.27 918.83 382.40 883.07 516.05 802.64 624.02 948.76 591.58
00032836 00000023 581.44 112.37 425.01 652.54 739.16 426.37 915.64 385.69 879.40 519.11 795.40 623.55 945.84 589.19
00032837 00000024 579.68 116.31 424.60 646.22 741.52 434.09 913.20 392.37 879.02 523.27 795.64 625.33 942.66 590.53
00032838 00000025 582.55 115.34 419.06 656.69 736.53 433.55 924.02 392.60 878.16 529.41 790.44 628.51 948.25 594.53
00032839 00000026 581.76 119.07 415.33 652.76 731.71 438.98 921.24 396.23 873.48 535.25 786.78 630.87 946.62 595.37
00032840 00000027 578.85 119.87 419.23 647.94 736.34 439.21 910.92 400.09 870.95 533.73 791.56 630.95 940.22 597.93
00032841 00000028 578.76 124.51 420.83 644.62 734.44 440.30 910.41 401.02 868.82 536.47 791.17 632.84 940.62 599.79
00032842 00000029 576.72 131.17 422.57 638.14 733.04 442.36 911.56 401.92 868.70 540.20 792.02 635.29 942.10 601.50
00032843 00000030 575.76 132.61 424.06 640.31 730.81 444.39 910.72 403.88 866.36 543.23 788.85 637.22 940.69 603.54
00032844 00000031 571.96 133.63 428.20 643.41 727.80 447.84 908.22 406.28 863.88 547.70 784.71 638.81 940.69 603.90
00032845 00000032 572.61 132.72 426.89 646.07 727.72 449.79 906.77 407.82 862.88 550.44 784.06 640.55 939.71 605.38
00032846 00000033 572.00 131.23 426.54 648.94 726.86 451.55 905.97 410.01 861.96 551.36 782.54 640.99 938.82 606.15
00032847 00000034 570.58 128.55 426.62 656.54 726.15 452.32 904.99 410.98 861.47 552.67 781.28 642.72 937.16 608.11
00032848 00000035 571.33 129.02 424.68 656.08 725.35 451.93 904.40 410.93 860.66 553.48 780.23 642.89 935.84 608.62
00032849 00000036 568.49 127.40 427.36 653.44 722.54 451.18 904.54 409.79 859.17 552.99 777.73 641.64 935.72 607.02
00032850 00000037 566.86 126.15 428.08 653.98 721.25 449.93 903.58 408.68 858.35 551.68 776.55 640.79 934.89 606.31
00032851 00000038 558.41 129.50 426.36 643.11 714.04 448.46 897.40 403.71 849.74 550.16 768.03 646.32 920.81 607.02
00032852 00000039 557.36 129.40 426.09 642.79 712.04 447.41 896.12 403.70 847.59 547.51 765.87 645.28 918.79 606.80
00032853 00000040 555.51 125.12 427.10 647.09 711.90 446.29 895.15 403.00 847.15 546.63 765.83 644.91 917.73 606.81
00032854 00000041 555.12 126.49 427.74 646.64 709.58 446.12 894.83 402.55 845.45 546.91 764.29 645.15 917.66 606.86
00032855 00000042 552.25 129.07 433.65 650.31 711.67 451.38 894.99 406.15 847.17 551.54 765.87 650.52 915.14 611.74
00032856 00000043 552.05 130.00 432.59 649.21 712.31 453.81 894.68 407.40 847.74 554.12 766.34 650.64 915.82 610.98
00032857 00000044 556.20 128.97 425.08 645.45 710.51 451.69 894.54 405.33 846.84 553.38 763.69 646.80 918.48 606.10
00032858 00000045 556.66 127.13 425.44 647.54 711.27 453.47 895.41 406.34 848.00 555.05 763.96 646.63 920.62 605.38
00032859 00000046 556.68 127.38 427.19 646.38 713.28 453.29 897.13 407.67 849.69 555.08 765.67 647.03 920.77 607.04
00032860 00000047 559.12 125.59 424.80 648.72 714.67 453.45 897.06 408.28 849.87 556.03 766.27 646.83 921.89 607.01
00032861 00000048 558.90 127.34 425.62 647.62 714.09 454.44 897.28 409.17 849.56 556.93 765.60 647.26 921.89 607.46
00032862 00000049 558.10 128.22 427.35 647.72 713.64 454.62 896.95 408.92 849.35 557.57 765.38 647.59 921.83 607.52
00032863 00000050 558.14 127.09 427.67 648.58 713.94 453.48 897.96 408.58 849.80 557.59 764.98 647.13 921.97 607.74
00032864 00000051 558.98 125.76 427.31 650.89 714.85 453.60 898.80 409.33 850.75 558.47 764.57 647.55 922.50 608.68
00032865 00000052 558.19 127.33 428.46 649.46 714.33 453.60 898.65 409.89 849.98 558.54 763.65 647.12 921.53 608.74
00032866 00000053 557.69 126.91 428.53 650.87 714.31 453.22 898.84 409.18 850.39 558.49 763.92 647.75 921.73 609.07
00032867 00000054 556.77 127.43 429.55 650.90 714.31 453.10 898.52 409.15 850.29 557.94 764.55 648.22 921.40 609.54
00032868 00000055 558.42 126.89 427.32 651.91 713.79 453.00 897.76 409.19 848.59 558.53 762.40 648.00 920.30 609.48
00032869 00000056 557.78 126.53 427.30 653.80 713.06 453.57 897.03 409.09 847.97 558.79 761.68 648.11 920.17 609.06
00032870 00000057 557.81 122.96 426.92 656.25 712.85 453.03 896.32 409.00 846.98 558.04 760.44 647.06 918.17 608.46
00032871 00000058 558.24 124.52 427.00 656.54 712.71 449.75 897.36 406.44 847.17 556.41 759.60 646.27 918.78 608.30
00032872 00000059 554.40 129.45 431.67 655.24 714.15 452.88 897.07 409.29 848.43 556.87 760.84 649.43 915.37 612.13
00032873 00000060 558.19 123.72 427.64 656.47 711.62 447.39 897.26 405.99 845.60 553.99 759.13 645.06 918.39 608.36
00032874 00000061 559.90 122.90 426.07 657.57 713.52 448.44 897.82 407.80 846.33 556.63 763.61 649.31 918.42 613.21
00032875 00000062 560.08 122.57 424.63 658.33 714.54 451.87 897.80 411.47 846.74 560.80 762.08 650.03 917.59 614.13
00032876 00000063 560.71 123.05 422.87 658.99 714.43 452.37 895.08 412.59 844.53 561.33 762.66 651.39 915.64 615.74
00032877 00000064 555.51 125.65 426.33 663.20 715.82 459.98 894.26 417.21 847.72 564.62 764.17 656.32 912.21 619.66
00032878 00000065 554.77 125.63 426.74 664.06 714.18 462.66 893.37 420.09 845.46 565.70 762.61 657.64 911.93 621.33
00032879 00000066 555.09 127.78 426.82 667.57 712.58 465.29 892.00 427.62 840.93 566.60 762.17 663.42 908.16 630.86
00032880 00000067 554.74 129.51 427.26 661.82 711.14 468.34 891.56 431.38 838.75 570.45 759.28 662.09 907.56 630.39
00032881 00000068 555.06 132.11 427.91 658.09 707.79 471.75 890.90 433.18 836.24 574.70 758.80 664.83 908.26 631.76
00032882 00000069 555.91 138.64 424.60 659.05 708.37 475.34 888.71 436.97 834.19 579.44 756.40 668.02 906.24 634.99
00032883 00000070 556.67 140.62 424.42 661.75 707.61 476.82 888.86 439.86 833.11 583.47 756.87 674.49 904.51 642.69
00032884 00000071 557.08 141.27 424.10 665.94 706.46 476.19 890.89 441.31 832.95 585.83 754.06 678.21 903.54 648.12
00032885 00000072 555.46 141.32 423.40 665.43 704.75 475.99 888.83 440.54 831.54 585.17 753.29 678.30 902.03 647.75
00032886 00000073 554.13 142.44 424.66 665.19 703.55 476.20 888.94 441.09 830.19 587.71 749.52 676.75 901.14 646.72
00032887 00000074 552.98 141.42 425.94 663.99 702.34 476.94 887.95 440.84 829.28 585.96 749.50 674.68 902.12 643.74
00032888 00000075 552.31 140.31 426.04 661.31 703.54 477.60 887.50 440.45 829.48 584.40 749.06 671.12 902.27 639.46
00032889 00000076 553.92 140.57 425.63 657.05 709.04 481.29 887.21 442.56 833.31 581.89 754.78 667.45 904.21 634.11
00032890 00000077 554.88 141.71 425.81 654.32 712.53 483.12 887.38 444.19 836.31 580.30 757.74 665.73 905.24 632.05
00032891 00000078 557.08 138.39 425.92 658.13 713.09 481.74 890.32 443.49 837.28 579.80 757.54 665.34 908.27 632.29
00032892 00000079 559.37 138.79 423.59 658.40 714.01 480.19 891.60 442.47 839.33 580.17 758.17 665.02 910.41 632.29
00032893 00000080 560.61 139.81 424.40 658.94 714.75 480.01 893.17 442.84 839.96 582.26 757.97 665.70 911.41 633.62
00032894 00000081 561.52 140.67 425.27 661.18 715.69 480.70 893.93 442.77 842.07 582.81 764.38 670.84 914.09 637.76
00032895 00000082 562.51 138.21 425.59 664.65 715.65 481.00 895.76 442.87 843.46 583.70 766.39 672.20 916.87 638.97
00032896 00000083 562.63 139.16 425.79 661.56 715.20 480.40 896.12 442.81 842.86 584.79 766.43 671.58 917.19 638.83
00032897 00000084 564.23 137.98 425.70 659.58 714.18 479.79 896.21 441.67 842.63 583.74 767.07 670.57 918.40 637.45
00032898 00000085 564.70 139.63 423.75 655.56 713.56 479.12 895.32 441.12 841.26 583.85 766.23 669.32 916.98 636.46
00032899 00000086 564.61 140.70 424.74 654.54 712.71 478.69 894.91 441.17 839.91 584.26 763.48 667.86 915.72 635.53
00032900 00000087 562.11 136.71 426.79 661.20 712.51 478.02 893.53 441.21 839.25 583.33 763.24 668.41 913.43 636.60
00032901 00000088 563.14 137.55 424.93 660.53 711.78 477.28 892.21 440.92 837.50 582.10 761.60 668.59 910.94 637.19
00032902 00000089 562.68 139.55 424.03 658.24 711.41 476.64 891.98 441.20 836.08 582.52 758.54 667.75 909.13 637.22
00032903 00000090 562.52 139.97 424.11 660.33 711.14 477.07 892.33 440.35 836.92 584.90 758.26 667.99 911.01 636.52
00032904 00000091 561.61 138.45 424.89 659.56 710.65 476.76 891.36 439.77 836.29 584.06 760.49 668.86 910.29 636.99
00032905 00000092 563.70 141.79 423.43 659.07 711.38 478.28 890.93 441.60 836.64 585.40 763.12 671.56 911.25 639.76
00032906 00000093 563.37 139.69 425.57 663.48 712.85 479.78 893.50 442.93 839.30 586.21 765.54 674.01 913.23 642.19
00032907 00000094 576.59 131.39 419.06 676.32 712.37 477.81 906.78 445.23 844.04 590.27 764.91 667.57 929.53 640.21
00032908 00000095 577.74 137.05 420.71 672.21 712.36 479.83 909.26 447.51 843.70 593.82 762.01 668.81 930.45 641.78
00032909 00000096 577.32 136.07 420.97 677.03 712.26 480.81 909.02 450.02 842.30 596.34 760.34 670.91 927.77 645.25
00032910 00000097 578.27 136.89 421.21 675.93 713.50 480.29 911.43 450.31 843.94 596.43 760.62 670.54 929.10 645.50
00032911 00000098 578.62 138.59 423.03 674.94 715.20 480.79 914.52 451.14 845.99 597.73 761.09 671.33 930.56 646.58
00032912 00000099 578.08 138.56 423.02 676.96 715.40 480.99 915.34 451.72 846.34 598.11 759.41 670.64 931.21 646.15
00032913 00000100 578.89 139.49 423.59 676.75 715.48 480.47 916.41 450.88 846.94 597.54 758.75 670.72 932.13 646.04
00032914 00000101 580.40 143.55 422.10 669.96 716.09 480.60 916.92 447.87 849.93 598.21 761.09 670.67 935.68 643.41
00032915 00000102 579.63 140.95 422.87 666.79 716.88 480.15 917.71 447.14 850.88 596.83 762.19 668.74 936.31 641.29
00032916 00000103 580.05 137.35 422.64 673.72 716.99 478.59 917.18 446.45 850.89 593.93 761.06 667.92 936.05 641.09
00032917 00000104 579.84 127.45 423.03 687.90 718.32 477.06 917.22 445.14 850.94 591.14 761.57 667.66 935.64 640.82
00032918 00000105 579.41 127.25 424.47 688.73 718.90 477.49 916.14 446.74 850.15 587.12 760.18 665.43 934.17 639.33
00032919 00000106 582.47 124.25 420.59 688.08 722.01 477.14 917.28 447.56 851.68 584.45 761.26 662.27 933.49 636.90
00032920 00000107 581.70 124.58 420.26 689.13 721.86 473.32 917.13 445.25 851.29 582.27 761.65 662.29 931.04 638.48
00032921 00000108 581.14 122.76 419.01 685.61 724.00 468.67 915.76 442.22 853.46 575.45 763.76 658.15 928.62 635.96
00032922 00000109 580.12 121.32 419.05 683.04 723.69 462.97 913.66 438.15 852.52 569.91 760.66 652.01 924.39 631.41
00032923 00000110 577.81 117.38 421.03 678.67 722.98 455.44 912.22 430.64 851.48 563.90 760.09 646.30 922.34 625.72
00032924 00000111 575.90 116.40 423.70 675.21 723.14 448.52 909.62 423.82 851.95 555.99 761.40 640.58 922.06 620.05
00032925 00000112 575.76 110.79 421.61 677.29 724.58 440.66 908.57 419.16 852.43 547.73 762.23 636.43 919.10 618.53
00032926 00000113 568.29 115.95 424.08 659.99 717.41 436.84 905.03 407.13 845.06 546.00 760.77 641.81 917.25 615.12
00032927 00000114 567.84 114.02 423.26 661.56 715.97 433.59 904.16 403.28 843.84 542.20 760.05 638.87 916.81 611.95
00032928 00000115 568.49 113.56 421.41 657.36 714.97 430.13 902.93 399.37 842.28 538.77 759.84 635.21 915.54 608.23
00032929 00000116 566.49 113.85 421.63 653.91 713.87 428.30 900.01 396.85 841.53 536.32 760.32 633.06 914.12 605.37
00032930 00000117 564.89 112.43 420.18 654.86 713.29 426.34 897.87 394.31 841.22 533.40 758.19 628.89 914.24 600.89
00032931 00000118 564.09 112.30 420.60 655.67 712.59 423.75 897.56 392.12 841.08 530.68 756.30 626.84 914.34 599.12
00032932 00000119 559.88 108.68 422.72 657.64 710.31 423.47 895.70 391.64 839.45 529.25 753.30 623.90 913.31 596.08
00032933 00000120 557.55 105.69 422.75 660.75 710.35 423.58 893.81 391.11 838.98 528.57 754.03 624.19 911.06 595.64
00032934 00000121 556.66 107.35 422.08 657.48 708.47 423.59 893.31 391.02 837.39 528.81 752.47 623.90 909.80 595.20
00032935 00000122 553.77 106.97 422.52 658.86 705.76 424.11 891.32 390.69 835.71 527.51 749.31 623.26 908.02 593.95
00032936 00000123 551.63 104.68 423.16 661.55 703.78 425.65 889.75 391.36 834.30 528.24 747.95 623.79 906.89 593.80
00032937 00000124 550.66 105.72 423.72 659.86 702.85 426.48 889.90 392.21 833.69 529.28 746.76 624.40 905.76 594.61
00032938 00000125 551.99 107.58 422.73 655.83 703.22 427.13 891.30 393.85 833.64 530.79 747.93 625.78 905.85 596.54
00032939 00000126 552.10 108.61 422.38 659.17 703.81 428.87 892.00 396.26 834.02 533.19 748.14 628.26 906.38 599.32
00032940 00000127 553.37 108.99 422.01 659.94 705.10 430.92 892.31 398.79 834.39 535.31 752.13 632.32 907.58 603.57
00032941 00000128 553.89 110.85 421.94 659.23 704.24 433.02 893.93 400.59 834.64 538.55 748.91 633.78 907.32 604.87
00032942 00000129 555.33 113.73 422.73 659.26 702.76 434.60 893.89 402.13 833.47 541.92 744.53 633.88 907.53 605.27
00032943 00000130 556.76 115.11 422.70 657.24 704.52 435.58 893.95 402.83 833.88 544.15 746.49 634.63 907.32 605.89
00032944 00000131 556.35 112.92 423.32 660.47 704.88 436.75 893.05 403.90 833.05 545.19 749.11 636.75 906.40 607.70
00032945 00000132 560.64 115.59 422.97 660.15 708.09 437.77 894.05 404.17 835.12 545.17 752.99 637.46 909.99 607.73
00032946 00000133 555.92 114.01 426.94 664.52 704.09 440.69 893.11 408.23 832.10 547.09 747.01 640.04 907.03 611.36
00032947 00000134 554.93 116.55 425.48 663.78 702.76 446.23 891.77 413.29 831.05 552.21 742.06 640.56 905.51 611.18
00032948 00000135 557.37 117.43 425.17 665.48 705.92 445.22 893.10 412.11 834.52 553.15 745.12 640.04 909.16 610.36
00032949 00000136 555.95 116.56 424.74 662.69 704.49 443.39 892.48 410.95 831.88 551.04 743.96 638.87 905.54 609.91
00032950 00000137 557.43 118.82 424.86 661.61 704.58 445.07 892.91 412.14 832.63 551.45 744.30 640.37 906.94 610.95
00032951 00000138 556.43 118.03 426.18 664.12 704.55 446.64 892.36 413.06 832.95 551.72 746.28 642.16 907.68 612.03
00032952 00000139 556.65 117.65 425.77 663.39 704.48 443.15 893.62 410.64 833.19 549.99 746.16 641.76 907.20 612.71
00032953 00000140 556.84 120.64 424.64 658.49 704.84 442.35 893.81 409.79 833.53 549.21 746.34 641.07 906.14 612.16
00032954 00000141 556.55 121.42 424.01 654.90 704.71 442.74 892.96 410.48 832.67 549.63 745.91 640.53 904.70 611.90
00032955 00000142 557.27 121.43 423.12 653.92 705.26 440.73 892.72 408.62 833.10 546.81 748.00 640.05 905.00 611.37
00032956 00000143 557.58 120.23 422.00 654.82 704.89 440.27 892.89 408.07 832.66 545.90 748.41 639.93 905.34 611.28
00032957 00000144 556.86 121.23 421.71 654.51 704.84 440.54 892.90 408.68 832.81 547.97 745.91 639.30 904.28 610.97
00032958 00000145 556.84 121.93 423.42 654.21 704.62 441.40 892.40 409.41 832.30 547.84 745.85 639.18 904.22 610.74
00032959 00000146 557.04 120.89 423.86 655.11 704.87 440.72 892.82 407.94 832.64 548.10 747.22 639.20 905.73 610.09
00032960 00000147 557.27 120.15 423.74 655.60 705.49 440.58 893.55 408.08 833.35 548.94 747.15 639.05 906.01 610.06
00032961 00000148 557.73 122.00 423.62 654.30 704.78 442.45 892.82 409.60 832.50 550.34 745.86 639.13 905.85 609.80
00032962 00000149 557.74 121.36 424.43 656.84 705.77 442.34 893.36 409.86 833.31 551.02 746.25 639.71 906.52 610.69
00032963 00000150 557.30 122.26 424.92 656.12 704.64 445.03 892.60 411.09 832.50 552.77 745.07 640.81 905.82 610.67
00032964 00000151 556.50 125.72 423.94 651.40 703.63 450.97 890.52 415.23 831.66 555.71 745.18 642.83 904.91 611.08
00032965 00000152 554.97 124.06 424.84 653.63 703.20 453.40 889.98 417.48 831.68 557.58 745.06 643.98 905.40 611.97
00032966 00000153 555.48 126.26 423.84 652.25 702.12 455.48 888.32 418.76 830.24 558.49 744.88 644.89 905.16 612.21
00032967 00000154 555.30 126.80 424.69 653.26 703.79 458.86 889.21 420.32 833.06 561.90 748.38 648.11 908.44 613.72
00032968 00000155 556.22 126.01 424.19 654.64 702.17 461.62 889.10 422.46 832.08 565.24 747.34 649.21 910.86 614.26
00032969 00000156 555.40 127.12 424.87 655.64 703.67 463.43 889.82 423.09 834.83 565.18 751.44 653.17 912.75 617.02
00032970 00000157 555.18 126.54 425.18 656.22 703.31 465.26 890.89 424.58 835.67 566.85 751.30 654.39 914.16 617.91
00032971 00000158 550.56 131.05 427.68 654.83 709.31 472.30 888.64 429.73 839.44 569.41 758.75 656.93 910.42 620.92
00032972 00000159 550.80 131.85 428.28 654.10 710.52 471.62 889.26 429.79 840.00 569.27 758.98 656.99 909.83 621.56
00032973 00000160 550.42 130.11 428.81 659.77 710.46 471.85 889.73 431.21 839.86 570.45 758.44 658.32 909.37 623.82
00032974 00000161 550.87 131.89 429.43 662.64 709.80 472.21 890.10 432.36 839.00 570.62 757.39 661.17 909.17 627.22
00032975 00000162 552.00 132.98 429.18 664.08 710.67 471.81 891.43 432.69 839.78 572.19 757.34 661.56 910.82 628.09
00032976 00000163 555.08 132.59 427.36 663.20 710.99 472.19 892.97 433.89 839.82 573.78 757.04 662.21 911.17 629.38
00032977 00000164 556.77 134.86 425.98 665.25 712.32 472.03 894.26 434.77 841.34 575.97 758.25 665.50 911.88 633.34
00032978 00000165 557.36 134.69 425.37 666.90 712.87 473.13 894.51 435.86 841.81 577.45 759.56 667.16 912.07 634.88
00032979 00000166 556.59 133.50 425.81 670.04 712.29 473.46 893.57 435.83 841.15 577.76 758.83 666.80 912.08 634.31
00032980 00000167 557.26 134.16 425.49 669.66 712.05 473.81 893.60 436.17 840.58 579.21 757.86 667.21 911.43 634.76
00032981 00000168 558.69 137.90 423.89 665.43 711.74 473.99 894.66 436.51 840.88 580.35 756.36 666.94 911.92 634.67
00032982 00000169 559.16 135.76 424.31 666.71 712.80 475.96 894.80 437.49 841.30 581.85 758.71 667.41 913.20 634.31
00032983 00000170 558.80 136.89 425.25 668.64 713.12 477.60 894.67 439.46 841.79 581.91 761.77 671.14 913.34 638.17
