Video ID: 	7RhC7sbta4s
H: 	2160
W: 	3840
FPS: 	59.94006309148265

FRAME INDEX X0 Y0 W H [Landmarks (5 Points)]

00001588 00000000 1687.31 300.37 461.49 586.26 1760.94 521.18 1956.59 523.47 1825.17 658.93 1794.39 734.20 1953.89 733.80
00001589 00000001 1687.39 299.42 461.45 587.08 1761.00 521.24 1956.68 523.48 1825.39 659.12 1794.54 734.29 1954.05 733.86
00001590 00000002 1682.10 310.74 467.00 573.20 1756.76 524.79 1953.18 524.42 1822.47 663.49 1794.79 739.06 1950.12 736.26
00001591 00000003 1682.07 310.35 466.90 573.74 1756.68 524.75 1953.02 524.34 1822.31 663.48 1794.76 739.00 1950.14 736.13
00001592 DELETE   1682.16 310.18 466.70 573.83 1756.71 524.82 1953.02 524.39 1822.29 663.41 1794.78 739.04 1950.03 736.17
00001593 00000005 1677.83 311.85 461.52 577.80 1752.90 527.99 1947.49 526.36 1818.48 663.70 1789.49 740.27 1943.61 736.29
00001594 00000006 1675.26 316.46 463.82 575.92 1750.96 531.23 1945.31 528.50 1817.60 666.80 1788.59 743.44 1942.59 738.64
00001595 00000007 1673.83 310.72 463.60 586.69 1749.81 535.06 1943.45 529.24 1816.00 666.28 1787.10 748.66 1942.61 741.59
00001596 00000008 1670.78 311.63 463.13 590.00 1747.86 537.71 1939.09 531.57 1813.38 668.84 1784.10 753.93 1936.10 746.94
00001597 00000009 1668.48 318.31 461.96 587.75 1745.47 541.85 1934.44 534.45 1809.27 671.63 1779.95 759.74 1930.24 752.00
00001598 00000010 1667.05 322.24 458.31 587.22 1744.62 543.83 1930.82 537.72 1806.36 675.82 1776.23 759.67 1927.40 752.83
00001599 00000011 1667.14 321.11 457.96 588.57 1744.51 543.82 1930.63 537.70 1806.10 676.19 1776.14 759.68 1927.51 752.81
00001600 00000012 1667.29 314.70 457.60 594.95 1742.47 544.94 1929.72 537.61 1804.35 676.89 1775.21 760.90 1927.35 753.22
00001601 00000013 1666.43 314.63 458.39 595.08 1741.46 545.16 1928.37 537.96 1802.27 677.19 1774.14 761.75 1925.60 754.29
00001602 00000014 1665.73 312.55 458.17 597.47 1739.98 544.63 1927.44 537.98 1798.98 675.37 1772.53 760.37 1923.99 753.38
00001603 00000015 1663.17 314.69 460.46 594.49 1738.40 543.84 1925.99 536.70 1797.96 673.89 1771.38 759.63 1921.50 752.19
00001604 00000016 1661.18 312.51 461.27 596.47 1737.28 542.98 1925.67 536.61 1796.48 672.59 1768.64 758.13 1919.85 751.40
00001605 00000017 1661.13 312.25 461.07 596.23 1737.62 542.41 1925.53 536.11 1796.39 671.72 1769.43 757.77 1919.16 751.08
00001606 00000018 1662.04 307.74 460.70 599.34 1737.52 542.12 1925.36 535.41 1796.88 670.48 1770.85 757.15 1919.69 750.22
00001607 00000019 1662.22 307.94 460.61 598.89 1737.68 542.17 1925.27 535.45 1797.00 670.64 1770.99 757.18 1919.88 750.26
00001608 00000020 1662.94 306.75 460.80 598.66 1738.17 541.29 1925.22 535.32 1797.30 670.02 1771.42 755.68 1920.72 749.33
00001609 00000021 1662.32 304.88 459.34 599.76 1737.71 539.64 1925.18 534.37 1795.88 669.46 1769.31 754.28 1919.85 748.32
00001610 00000022 1660.61 307.32 461.54 597.11 1737.01 539.22 1924.30 533.56 1795.00 669.00 1768.50 754.73 1918.88 748.42
00001611 00000023 1660.28 304.12 462.31 599.68 1735.95 539.31 1923.73 533.87 1794.36 669.97 1767.45 754.42 1918.12 748.39
00001612 00000024 1659.11 305.94 462.33 599.48 1734.68 540.06 1922.60 535.10 1792.43 671.17 1766.80 755.06 1916.32 749.35
00001613 00000025 1657.04 308.72 464.19 597.11 1732.72 540.10 1920.82 535.99 1790.20 671.69 1765.00 755.03 1914.44 749.96
00001614 00000026 1655.41 310.18 466.54 595.88 1731.49 539.83 1920.84 535.28 1789.75 671.46 1764.13 755.26 1914.67 749.78
00001615 00000027 1655.55 310.20 465.88 596.34 1731.83 539.74 1920.72 535.21 1789.76 671.31 1764.26 755.62 1914.23 750.07
00001616 00000028 1656.39 312.35 464.71 594.38 1732.76 539.72 1921.18 535.27 1790.39 671.18 1764.98 755.79 1914.91 750.29
00001617 00000029 1658.35 308.48 462.19 596.36 1734.65 540.12 1923.69 534.83 1794.01 670.67 1766.91 755.15 1917.17 749.18
00001618 00000030 1657.87 305.52 462.82 597.32 1734.43 538.31 1923.79 532.93 1793.70 669.42 1765.66 754.30 1916.72 748.28
00001619 00000031 1656.89 303.41 464.24 597.94 1734.05 536.80 1923.96 531.39 1794.52 666.34 1766.56 752.21 1917.92 746.05
00001620 00000032 1655.45 305.26 466.09 594.69 1732.92 535.44 1924.20 530.09 1794.24 664.29 1764.71 748.75 1918.11 742.55
00001621 00000033 1658.13 306.02 462.89 590.59 1735.81 533.14 1925.20 528.31 1795.81 662.48 1765.67 745.99 1919.64 740.13
00001622 00000034 1658.09 305.64 463.07 590.91 1735.74 533.00 1925.22 528.15 1795.79 662.22 1765.44 745.99 1919.61 740.13
00001623 00000035 1661.51 303.11 458.66 590.22 1738.93 531.12 1926.22 525.89 1798.92 658.58 1768.67 742.52 1919.85 736.70
00001624 00000036 1661.77 298.32 460.98 592.54 1739.92 525.75 1928.58 521.68 1800.64 652.63 1769.93 737.25 1923.88 732.11
00001625 00000037 1658.26 297.25 465.82 584.83 1740.28 518.55 1929.41 513.55 1799.45 644.64 1776.42 735.79 1928.16 729.79
00001626 00000038 1659.57 296.06 467.95 580.55 1740.83 515.21 1929.99 509.04 1799.39 640.42 1778.03 732.71 1929.18 725.78
00001627 00000039 1661.37 294.96 467.17 580.36 1742.78 510.08 1933.42 505.37 1802.78 638.89 1777.29 726.57 1933.14 720.89
00001628 00000040 1664.12 298.84 467.06 572.99 1746.07 508.01 1937.33 502.73 1806.89 631.34 1779.28 724.16 1933.21 718.45
00001629 00000041 1666.49 291.18 465.72 577.52 1748.27 505.14 1938.85 499.97 1809.03 627.23 1780.42 721.83 1932.31 716.56
00001630 00000042 1666.56 291.78 465.58 576.95 1748.24 505.17 1938.95 499.99 1809.09 627.24 1780.47 721.79 1932.47 716.51
00001631 00000043 1668.42 283.99 462.41 582.19 1749.12 503.54 1938.72 499.05 1808.54 622.94 1778.27 720.00 1929.54 715.83
00001632 00000044 1671.65 288.91 459.80 575.29 1751.95 502.97 1940.45 497.78 1811.40 620.57 1779.90 717.92 1930.01 713.31
00001633 00000045 1673.95 286.24 459.59 576.19 1753.78 500.79 1942.15 496.97 1811.94 616.38 1779.52 714.49 1928.69 711.68
00001634 00000046 1678.47 295.09 456.24 566.90 1756.71 498.00 1945.75 495.18 1814.71 615.94 1780.24 714.03 1932.35 711.80
00001635 00000047 1680.29 291.00 457.75 570.50 1758.48 496.76 1948.01 495.05 1815.20 614.25 1779.89 714.12 1931.58 713.25
00001636 00000048 1681.30 291.89 456.84 570.30 1759.11 497.35 1948.25 495.97 1815.36 614.18 1780.45 714.49 1931.60 713.91
00001637 00000049 1681.59 295.76 455.60 566.51 1759.32 498.01 1948.25 497.93 1814.70 616.67 1780.55 714.40 1931.63 714.60
00001638 00000050 1681.64 294.99 455.49 567.20 1759.40 498.06 1948.02 498.05 1814.62 616.69 1780.56 714.19 1931.63 714.45
00001639 00000051 1682.53 291.90 457.94 571.16 1759.87 498.79 1949.34 499.64 1813.78 617.09 1780.78 715.48 1931.24 716.69
00001640 00000052 1683.63 297.68 455.85 566.31 1759.75 499.88 1949.75 501.54 1813.18 620.09 1781.55 716.11 1932.07 717.64
00001641 00000053 1683.52 297.77 454.54 566.22 1759.25 499.79 1950.06 502.28 1812.63 621.68 1780.92 717.07 1931.63 718.99
00001642 00000054 1683.40 297.80 454.64 566.38 1759.19 499.26 1950.23 502.22 1812.48 622.61 1780.63 716.89 1931.97 719.10
00001643 00000055 1682.61 298.86 454.67 565.37 1758.38 499.38 1949.39 502.57 1811.40 624.01 1779.41 717.44 1931.73 719.64
00001644 00000056 1681.81 302.18 455.21 563.97 1757.78 500.52 1948.62 504.09 1810.05 625.06 1778.88 718.72 1930.37 721.12
00001645 00000057 1679.57 300.71 458.01 566.55 1756.72 502.06 1946.39 506.13 1808.62 625.88 1778.86 720.46 1928.08 723.29
00001646 00000058 1679.22 301.27 458.42 565.92 1756.62 502.00 1946.46 505.94 1808.94 625.87 1779.07 720.55 1928.25 723.24
00001647 00000059 1678.49 302.45 458.04 565.59 1756.12 503.93 1945.38 509.31 1807.94 626.74 1776.88 720.22 1927.38 724.00
00001648 DELETE   1676.01 300.42 460.64 567.72 1753.85 506.34 1944.45 511.56 1806.87 628.53 1775.11 722.11 1926.86 725.64
00001649 DELETE   1676.42 302.85 461.37 567.03 1754.09 508.16 1944.80 513.32 1807.15 631.66 1775.18 724.60 1927.81 727.94
00001650 00000062 1676.95 301.95 463.89 571.56 1754.84 512.51 1946.51 518.04 1807.84 635.04 1777.02 729.16 1928.79 732.90
00001651 00000063 1678.02 305.50 457.13 573.90 1753.54 517.30 1946.33 523.37 1808.66 637.83 1772.16 729.05 1926.15 732.95
00001652 00000064 1676.16 306.30 455.98 574.14 1753.23 521.08 1943.92 525.95 1808.91 640.95 1769.99 732.19 1923.08 735.21
00001653 00000065 1674.23 310.61 457.57 573.45 1751.86 524.18 1942.87 527.33 1807.40 642.49 1769.77 736.79 1922.65 738.43
00001654 00000066 1674.15 311.84 457.87 572.38 1751.84 524.14 1942.90 527.49 1807.43 642.87 1769.72 736.74 1922.47 738.48
00001655 00000067 1672.29 311.50 457.01 574.19 1751.35 524.42 1938.92 529.60 1805.07 645.48 1766.92 735.97 1916.67 739.15
00001656 00000068 1671.11 320.37 459.44 570.83 1749.38 527.43 1937.43 531.68 1802.49 647.84 1766.57 740.55 1914.70 743.03
00001657 00000069 1670.80 321.43 460.12 574.42 1749.18 531.04 1938.24 534.83 1803.13 651.41 1767.98 746.29 1914.78 748.44
00001658 00000070 1669.77 326.50 461.40 573.51 1749.19 532.12 1938.81 537.46 1804.29 658.33 1769.47 751.55 1912.53 754.58
00001659 DELETE   1670.78 327.61 461.41 575.65 1748.25 537.48 1935.13 538.83 1803.46 657.54 1770.17 756.49 1914.00 756.78
00001660 DELETE   1671.34 327.52 459.72 580.23 1747.30 541.02 1931.76 542.24 1800.71 662.90 1769.34 761.22 1911.25 761.49
00001661 00000073 1670.10 336.60 460.51 575.78 1746.46 544.71 1929.77 546.89 1797.62 670.07 1767.87 765.62 1908.11 766.58
00001662 00000074 1669.95 336.40 460.61 575.75 1746.36 544.71 1930.04 546.84 1797.83 670.17 1767.72 765.60 1908.34 766.53
00001663 DELETE   1670.56 343.76 457.99 573.12 1744.83 550.50 1930.90 554.00 1798.06 675.55 1765.90 771.15 1907.98 773.37
00001664 DELETE   1672.00 347.00 455.14 576.76 1747.46 556.98 1931.25 560.09 1798.97 680.64 1768.32 776.43 1908.52 778.43
00001665 00000077 1672.88 352.66 456.53 575.59 1748.52 561.01 1933.26 563.29 1801.06 684.29 1770.42 780.54 1910.47 781.80
00001666 00000078 1671.83 356.94 455.56 574.26 1747.84 565.85 1932.58 567.78 1799.93 689.61 1771.76 784.90 1912.92 785.59
00001667 DELETE   1669.99 357.26 457.54 579.72 1747.77 569.61 1930.86 572.00 1797.33 696.15 1771.84 788.01 1915.07 788.63
00001668 DELETE   1669.74 365.36 458.60 576.54 1748.41 573.37 1928.57 578.16 1795.74 704.02 1772.46 791.00 1915.30 793.18
00001669 00000081 1672.49 376.01 456.08 569.93 1747.73 578.94 1928.67 583.28 1795.49 710.58 1774.09 797.13 1918.44 798.76
00001670 00000082 1672.31 376.68 456.71 569.00 1747.67 578.80 1928.82 583.26 1795.60 710.43 1774.24 797.16 1918.46 798.87
00001671 00000083 1673.19 381.03 455.26 568.98 1748.87 584.82 1930.39 589.51 1796.77 713.71 1775.85 802.68 1918.69 804.68
00001672 00000084 1671.89 378.77 455.87 573.96 1747.70 589.46 1930.03 593.94 1797.11 717.90 1775.53 805.27 1917.96 807.30
00001673 00000085 1670.11 379.80 457.94 575.88 1747.10 590.66 1929.65 595.68 1797.23 720.25 1775.71 807.89 1917.10 810.31
00001674 00000086 1668.83 376.96 456.29 586.38 1750.85 597.94 1930.38 602.18 1802.03 727.92 1773.44 809.47 1911.23 812.15
00001675 00000087 1668.13 375.32 456.60 589.65 1750.45 601.36 1929.34 604.60 1802.48 730.22 1774.14 814.30 1910.24 816.17
00001676 00000088 1665.99 379.82 458.13 586.94 1747.85 603.37 1928.74 606.06 1801.63 731.39 1773.55 815.66 1910.08 817.14
00001677 00000089 1666.03 380.06 457.79 586.88 1747.90 603.26 1928.83 606.06 1801.69 731.48 1773.50 815.83 1909.86 817.38
00001678 00000090 1665.49 384.85 457.79 582.17 1747.17 604.49 1928.39 606.77 1801.38 735.29 1773.57 818.19 1909.51 819.26
00001679 00000091 1664.87 387.66 458.10 580.79 1746.18 605.99 1926.84 607.79 1799.28 737.30 1774.70 820.28 1907.88 820.79
00001680 00000092 1662.36 387.61 458.65 583.79 1743.64 607.77 1925.96 609.70 1797.83 741.94 1772.30 822.45 1907.10 822.81
00001681 00000093 1659.38 387.47 460.46 586.42 1741.18 608.53 1924.17 611.06 1794.78 745.44 1768.30 825.16 1905.77 825.84
00001682 00000094 1655.91 388.96 463.16 586.80 1737.21 612.02 1922.31 613.92 1791.70 747.88 1766.00 828.99 1903.11 829.35
00001683 00000095 1653.86 391.88 465.84 586.67 1734.38 613.94 1921.64 617.47 1788.43 751.46 1762.45 830.91 1900.75 832.55
00001684 00000096 1652.94 403.14 466.66 577.24 1732.94 618.57 1920.11 620.86 1787.47 753.00 1764.23 835.36 1899.89 836.30
00001685 00000097 1653.07 404.23 466.39 576.08 1733.02 618.58 1920.10 620.81 1787.69 753.09 1764.29 835.47 1899.99 836.37
00001686 00000098 1653.91 412.78 464.65 569.87 1733.11 619.85 1920.39 621.67 1787.87 755.50 1764.72 838.16 1901.36 838.67
00001687 00000099 1653.01 415.02 467.84 569.10 1732.08 621.33 1920.90 622.50 1787.54 756.13 1764.36 838.72 1903.24 838.83
00001688 00000100 1652.08 414.48 467.93 569.45 1732.20 620.96 1919.44 622.42 1786.58 756.75 1763.92 839.00 1901.90 839.21
00001689 00000101 1651.07 414.98 467.69 567.88 1731.05 621.21 1918.73 622.58 1785.66 755.71 1763.05 838.27 1900.49 838.43
00001690 00000102 1652.33 419.58 466.07 561.30 1732.26 618.95 1917.80 620.09 1786.06 753.70 1763.87 836.48 1900.63 836.49
00001691 00000103 1651.89 404.31 466.58 575.17 1731.64 617.50 1919.57 618.90 1786.76 752.32 1763.90 833.38 1900.85 833.49
00001692 00000104 1654.54 402.58 463.55 574.60 1733.82 614.32 1920.57 616.08 1788.62 750.93 1764.22 830.77 1903.27 831.07
00001693 00000105 1654.72 403.80 463.78 573.44 1733.92 614.41 1920.88 615.94 1788.84 750.71 1764.28 830.94 1903.47 831.09
00001694 00000106 1655.30 397.31 460.38 575.73 1734.60 612.16 1919.69 612.76 1789.43 747.59 1765.76 826.32 1904.25 825.42
00001695 00000107 1653.83 389.19 462.53 579.74 1734.89 608.40 1918.83 608.85 1788.36 743.53 1765.74 823.79 1901.29 823.10
00001696 00000108 1655.59 381.99 463.02 582.32 1735.51 605.91 1920.00 605.23 1789.15 738.79 1768.35 819.57 1904.26 818.17
00001697 00000109 1658.49 380.96 460.86 577.66 1735.84 599.83 1920.12 600.03 1790.00 729.66 1772.26 817.37 1911.90 815.68
00001698 00000110 1660.55 376.07 460.80 581.89 1738.89 598.59 1921.89 597.96 1793.64 727.70 1774.89 816.41 1914.72 814.18
00001699 00000111 1662.34 377.70 459.88 577.92 1740.91 596.67 1923.59 596.19 1795.75 725.56 1776.81 813.59 1917.21 811.35
00001700 00000112 1664.14 381.38 457.63 574.07 1742.60 595.16 1924.30 593.94 1796.96 725.16 1778.19 812.84 1918.54 809.92
00001701 00000113 1663.94 379.97 457.96 575.53 1742.51 595.14 1924.42 593.91 1797.03 724.92 1778.10 812.62 1918.73 809.71
00001702 00000114 1663.71 378.01 457.70 576.60 1742.66 592.89 1925.01 592.17 1797.39 723.79 1777.51 810.68 1918.95 808.13
00001703 00000115 1663.72 377.39 457.88 576.53 1743.28 592.89 1925.63 591.25 1799.03 722.68 1778.98 810.32 1920.02 806.99
00001704 00000116 1662.85 378.34 460.67 574.65 1742.89 592.74 1925.86 590.82 1799.64 721.51 1779.91 810.36 1920.17 806.75
00001705 00000117 1662.89 378.25 460.48 574.59 1742.85 592.59 1925.88 590.75 1799.60 721.85 1779.81 810.37 1920.35 806.83
00001706 00000118 1662.58 378.38 460.83 573.78 1742.45 592.32 1925.63 590.15 1799.11 721.27 1779.42 809.68 1920.66 805.84
00001707 00000119 1660.24 377.67 463.91 571.08 1740.16 589.66 1924.35 587.07 1796.71 721.08 1778.60 808.49 1918.98 804.22
00001708 00000120 1656.76 375.39 463.16 574.27 1737.41 586.93 1923.22 586.80 1793.00 718.41 1772.43 805.40 1914.10 803.00
00001709 00000121 1657.19 374.35 462.42 575.50 1737.37 587.02 1923.14 587.03 1792.64 717.90 1772.27 805.15 1913.69 802.91
00001710 00000122 1654.14 372.48 468.55 574.29 1735.18 586.91 1922.17 586.72 1791.03 718.93 1771.35 803.46 1914.03 801.11
00001711 00000123 1654.12 371.24 465.26 576.88 1733.91 587.09 1920.46 585.80 1790.92 717.18 1767.67 802.57 1912.63 799.53
00001712 00000124 1653.69 372.39 463.88 571.01 1733.03 583.95 1919.90 583.03 1789.33 714.42 1767.92 799.34 1911.30 796.54
00001713 00000125 1652.59 373.21 463.90 567.69 1731.46 581.82 1919.27 580.58 1788.12 712.41 1765.02 795.01 1912.16 791.97
00001714 00000126 1653.18 366.79 463.38 570.51 1732.21 579.26 1920.09 578.49 1788.62 710.92 1764.70 791.81 1911.96 789.28
00001715 00000127 1653.21 366.47 461.86 567.54 1732.72 577.14 1919.83 575.37 1789.91 709.61 1765.73 790.88 1911.15 787.63
00001716 00000128 1653.00 365.41 460.89 566.01 1731.94 575.02 1920.05 573.89 1789.23 707.29 1764.73 788.01 1909.79 785.27
00001717 00000129 1653.01 365.19 461.26 566.47 1731.98 575.02 1920.19 573.91 1789.34 707.21 1764.83 788.08 1909.85 785.36
00001718 00000130 1651.48 362.44 463.15 567.16 1731.10 573.45 1919.90 570.95 1789.81 704.31 1764.66 787.14 1908.70 783.55
00001719 00000131 1651.23 359.60 464.67 568.33 1730.52 569.78 1920.63 568.04 1790.27 700.36 1763.10 783.82 1907.66 781.03
00001720 00000132 1652.38 354.38 463.84 570.24 1731.80 566.72 1921.40 565.82 1791.98 697.64 1763.79 781.21 1906.21 779.10
00001721 00000133 1654.10 353.10 463.49 572.16 1732.40 564.01 1921.17 562.35 1791.29 695.22 1763.76 779.60 1908.14 776.98
00001722 00000134 1654.64 352.10 464.00 570.15 1732.43 560.98 1921.66 560.24 1791.43 693.77 1764.07 777.51 1908.80 775.75
00001723 00000135 1655.15 347.14 462.88 571.43 1732.66 558.81 1921.48 557.00 1791.77 692.14 1765.54 775.51 1909.41 772.89
00001724 00000136 1655.29 350.73 464.74 565.62 1733.08 554.29 1922.02 552.98 1791.33 690.32 1765.83 773.72 1911.39 771.50
00001725 00000137 1655.28 351.44 464.93 564.77 1733.03 554.44 1921.97 553.07 1791.29 690.42 1765.87 773.71 1911.54 771.45
00001726 00000138 1653.94 340.45 466.91 571.72 1731.15 553.17 1922.68 550.94 1791.50 688.47 1766.50 771.12 1912.33 768.02
00001727 00000139 1654.05 337.88 465.65 574.19 1731.46 551.65 1921.46 548.44 1791.65 686.82 1767.42 770.42 1911.92 766.58
00001728 00000140 1653.26 332.32 465.76 575.86 1730.93 547.57 1924.03 544.65 1793.80 683.32 1766.89 766.48 1913.19 762.75
00001729 00000141 1655.39 327.93 462.86 577.65 1732.03 545.30 1923.64 541.60 1794.26 679.89 1766.54 763.40 1914.20 758.95
00001730 00000142 1657.88 315.88 460.08 585.22 1734.61 542.40 1924.46 537.96 1796.28 678.40 1769.93 760.83 1916.30 755.62
00001731 00000143 1660.88 316.37 460.34 581.92 1738.12 541.22 1926.65 535.82 1801.00 674.90 1775.67 758.69 1920.30 752.59
00001732 00000144 1660.89 317.20 460.30 581.01 1738.04 541.14 1926.81 535.70 1801.05 674.82 1775.46 758.72 1920.73 752.59
00001733 00000145 1663.87 313.27 457.46 583.80 1740.67 539.41 1926.34 534.05 1801.45 672.40 1777.82 757.06 1921.58 750.98
00001734 00000146 1663.24 311.78 457.77 585.18 1740.73 537.72 1927.32 531.91 1802.15 668.76 1777.72 754.81 1921.38 748.32
00001735 00000147 1663.31 309.20 458.33 586.70 1740.77 536.30 1927.36 530.74 1802.23 664.96 1777.03 752.03 1921.62 745.85
00001736 00000148 1665.89 308.40 457.65 583.42 1741.91 533.27 1928.57 527.80 1803.87 662.60 1777.99 748.79 1924.41 742.53
00001737 00000149 1668.67 303.74 454.29 584.66 1743.31 531.04 1930.04 524.43 1806.09 659.93 1780.26 745.29 1926.36 737.98
00001738 00000150 1668.39 305.71 456.72 581.20 1743.80 529.16 1931.49 522.85 1807.45 659.91 1781.62 743.59 1928.92 736.22
00001739 00000151 1668.93 306.43 456.75 580.02 1744.39 527.90 1930.32 521.28 1807.24 657.71 1784.29 741.92 1929.94 734.26
00001740 00000152 1667.92 305.47 458.49 580.42 1743.99 528.28 1931.30 520.80 1808.50 656.18 1784.65 742.35 1929.84 734.21
00001741 00000153 1666.96 308.95 460.42 574.27 1743.38 525.77 1930.95 517.99 1808.35 653.32 1784.64 739.81 1929.76 731.43
00001742 00000154 1668.13 305.72 460.26 576.50 1743.59 523.16 1930.48 516.28 1807.05 651.84 1784.66 737.25 1929.78 729.53
00001743 00000155 1669.41 302.90 458.56 579.71 1744.60 521.11 1932.17 515.09 1807.89 652.46 1784.53 736.92 1930.94 729.74
00001744 00000156 1670.35 305.53 459.29 576.47 1745.96 521.17 1933.56 514.90 1809.74 653.63 1787.18 737.46 1933.03 729.90
00001745 00000157 1670.50 309.07 460.29 573.49 1746.39 522.16 1934.29 514.93 1810.67 653.36 1788.65 737.80 1934.13 729.48
CROP_BBOX: 1409 45 2390 1124
