Video ID: 	BeU0kDUTUXo
H: 	1080
W: 	1920
FPS: 	25.0

FRAME INDEX X0 Y0 W H [Landmarks (5 Points)]

00002620 00000000 670.66 142.42 366.35 545.38 872.66 366.75 1007.67 358.53 1014.94 457.58 886.05 559.17 996.20 554.24
00002621 00000001 670.82 142.16 367.20 545.36 873.90 365.39 1009.78 359.61 1015.92 456.74 888.04 560.34 996.96 557.27
00002622 00000002 672.21 140.99 366.70 544.22 876.90 361.44 1010.51 360.74 1016.83 449.18 899.09 559.11 1001.86 559.24
00002623 00000003 672.91 140.59 364.89 539.88 879.69 359.89 1009.75 358.44 1019.04 446.98 903.39 556.80 1002.48 556.30
00002624 00000004 674.61 139.96 364.29 539.32 880.00 358.36 1008.82 356.99 1018.01 446.00 903.94 556.06 1001.83 555.72
00002625 00000005 671.71 139.36 364.81 543.09 878.39 358.14 1008.46 357.69 1016.71 447.67 898.53 555.56 998.82 556.18
00002626 00000006 670.18 140.71 366.01 543.88 875.27 360.06 1007.89 358.28 1014.61 452.70 891.36 556.80 995.79 556.88
00002627 00000007 668.68 141.77 367.17 543.52 874.24 359.31 1008.26 360.96 1013.43 453.10 889.17 557.51 993.35 560.56
00002628 00000008 668.42 140.95 369.38 544.48 873.94 360.62 1008.83 360.73 1014.69 454.79 887.91 557.90 994.06 559.78
00002629 00000009 668.72 143.71 371.39 544.58 877.68 360.36 1011.02 362.81 1017.99 455.29 889.20 557.93 994.77 561.73
00002630 00000010 670.49 141.90 374.62 544.87 882.52 358.21 1016.22 361.21 1024.57 454.23 895.59 556.98 1001.20 560.98
00002631 00000011 673.51 140.74 377.47 547.96 893.67 356.26 1019.01 362.06 1036.32 448.23 910.82 556.07 1007.89 561.96
00002632 00000012 676.97 142.10 379.29 544.88 919.23 356.06 1014.87 362.11 1052.35 445.79 941.90 548.22 1009.15 554.59
00002633 00000013 695.79 132.25 376.92 552.30 940.79 363.12 1022.69 366.95 1073.37 446.69 967.44 550.41 1030.36 554.81
00002634 00000014 706.64 130.48 375.74 557.65 951.16 359.51 1023.24 354.06 1081.54 454.04 982.29 559.26 1040.54 555.63
00002635 00000015 709.84 125.44 376.66 565.29 958.71 361.61 1018.99 352.72 1086.13 451.51 985.43 560.77 1034.95 554.65
00002636 00000016 708.43 129.80 378.31 563.45 956.88 362.33 1017.05 353.88 1087.23 452.90 983.94 563.26 1033.50 557.81
00002637 00000017 702.09 136.42 378.38 556.82 953.66 366.97 1019.64 366.63 1081.82 458.41 976.60 561.78 1033.59 562.85
00002638 DELETE   691.52 136.11 379.81 553.82 935.60 369.44 1016.79 370.04 1071.87 457.24 968.29 563.37 1032.35 565.57
00002639 00000019 682.01 144.91 378.39 542.55 911.11 369.24 1021.80 371.02 1056.22 454.73 947.17 560.93 1031.98 564.89
00002640 00000020 670.24 146.10 381.22 542.93 892.21 364.19 1008.54 363.40 1032.04 442.56 928.26 550.69 1016.96 549.86
00002641 00000021 669.70 143.59 382.78 546.15 879.94 366.61 1016.94 360.89 1026.50 451.12 901.85 560.98 1011.17 557.29
00002642 00000022 667.53 148.07 382.60 545.47 872.84 371.83 1014.68 364.56 1016.65 460.88 888.02 566.01 1003.69 560.94
00002643 00000023 667.65 152.74 383.19 549.59 868.42 376.00 1013.29 369.64 1012.04 463.05 881.55 569.58 1003.30 565.50
00002644 00000024 670.34 160.17 380.71 543.60 866.25 383.06 1013.69 374.99 1010.02 467.28 883.72 573.15 1007.66 567.36
00002645 00000025 669.86 160.63 381.83 543.99 863.65 388.23 1000.89 376.02 998.82 464.31 902.33 570.46 1010.44 560.83
00002646 00000026 670.88 160.29 383.36 547.56 865.85 387.75 1002.95 376.76 999.55 465.84 905.64 571.91 1011.33 563.19
00002647 00000027 671.89 162.61 382.27 546.55 866.49 388.40 1004.33 378.17 999.62 467.50 905.05 572.83 1011.25 564.70
00002648 00000028 669.35 162.68 382.20 547.72 866.05 388.85 1003.51 379.43 998.61 468.87 903.03 573.41 1008.89 565.95
00002649 00000029 670.53 165.75 379.97 548.10 866.13 386.98 1014.48 383.69 1006.44 472.86 884.61 580.53 1006.33 578.27
00002650 00000030 667.55 166.96 379.92 548.54 864.74 388.32 1012.22 383.96 1005.24 475.54 881.71 582.07 1003.16 579.26
00002651 00000031 667.30 166.49 379.68 548.24 862.92 389.35 1012.00 383.78 1003.48 477.81 880.68 583.44 1002.20 579.61
00002652 00000032 666.92 168.39 378.96 546.73 861.49 391.11 1012.23 384.78 1002.59 480.66 879.26 585.97 1001.23 581.76
00002653 00000033 664.28 170.01 378.51 546.40 860.05 393.79 1012.36 385.31 1003.07 485.67 876.37 589.60 998.65 583.93
00002654 00000034 659.59 172.49 380.71 542.84 856.45 396.11 1008.30 386.58 999.73 486.43 872.61 590.53 993.48 584.04
00002655 00000035 655.36 169.90 382.04 544.28 852.14 396.77 1005.14 387.04 996.46 484.80 868.15 589.01 991.01 582.39
00002656 00000036 650.29 169.95 384.86 543.19 849.09 396.54 1002.60 387.57 992.72 482.82 864.12 586.90 987.92 580.81
00002657 00000037 647.56 168.75 385.01 544.54 846.72 394.79 999.55 387.00 988.34 482.69 860.45 585.92 984.25 580.66
00002658 00000038 643.18 171.34 387.98 544.30 843.90 395.97 996.46 387.11 986.12 485.32 857.30 586.97 982.15 580.75
00002659 00000039 635.80 171.25 392.02 546.75 837.49 398.18 991.46 385.60 982.53 487.64 850.64 587.94 978.37 578.82
00002660 00000040 629.43 171.32 391.21 547.36 826.25 402.27 981.12 386.98 969.35 488.23 845.09 589.43 972.03 577.54
00002661 00000041 621.36 174.08 392.76 542.42 813.55 404.47 968.61 387.13 954.05 487.82 844.56 591.09 964.63 576.50
00002662 00000042 616.72 173.10 388.32 542.07 802.96 401.33 957.23 382.51 942.02 486.06 841.60 589.40 957.66 573.66
00002663 00000043 612.02 168.53 385.61 544.44 797.13 398.89 949.17 378.75 935.93 485.88 836.11 588.31 950.78 572.22
00002664 00000044 609.58 165.27 386.17 546.26 794.82 396.08 946.04 376.56 933.38 482.53 834.87 585.76 949.14 570.21
00002665 00000045 606.78 165.55 387.77 549.01 795.62 393.75 946.37 376.04 935.16 481.38 831.42 583.47 947.78 569.68
00002666 00000046 605.96 166.59 386.52 552.21 798.34 391.44 945.46 375.70 936.76 481.91 828.72 583.24 942.76 571.45
00002667 00000047 604.14 168.74 387.83 553.85 797.83 391.39 945.53 376.64 938.37 485.36 820.70 584.38 939.68 573.95
00002668 00000048 605.12 168.39 387.42 553.94 798.11 393.57 945.48 376.68 939.44 486.79 821.27 585.57 940.95 573.41
00002669 00000049 605.02 169.01 389.12 552.66 798.05 397.13 946.37 377.09 940.40 488.00 821.54 586.05 943.61 571.38
00002670 00000050 603.99 170.87 390.29 550.38 795.98 398.84 945.71 377.50 939.18 488.45 819.00 585.90 944.08 570.27
00002671 00000051 604.00 172.83 389.39 549.08 794.46 399.77 945.05 378.16 937.82 490.72 820.19 588.33 943.84 572.51
00002672 00000052 604.61 170.12 389.20 550.03 792.71 398.92 946.17 377.77 933.66 489.84 824.84 589.62 945.88 573.52
00002673 00000053 606.51 168.87 387.73 549.94 792.59 397.41 945.66 377.73 931.55 488.27 830.65 590.31 947.36 574.86
00002674 00000054 608.43 168.21 384.40 547.78 793.57 395.93 944.16 376.70 931.93 487.06 836.34 592.02 946.44 576.84
00002675 00000055 609.25 168.10 383.36 547.34 795.22 396.90 944.16 377.03 933.20 486.72 838.84 592.37 947.68 576.63
00002676 00000056 610.47 170.15 382.18 546.47 795.78 398.43 945.28 378.92 933.21 489.45 837.61 593.22 946.61 577.82
00002677 00000057 610.41 171.26 381.21 547.86 797.43 400.12 945.56 380.98 934.11 491.44 833.82 592.40 944.32 577.57
00002678 00000058 608.52 173.24 381.95 547.33 798.45 397.58 946.01 382.04 934.80 491.71 829.89 591.07 941.09 579.43
00002679 00000059 605.41 171.48 384.23 547.14 801.05 393.53 944.39 379.98 937.19 486.16 828.30 585.31 938.66 575.47
00002680 00000060 602.90 166.55 384.17 547.72 800.97 384.83 943.81 373.71 937.49 477.51 827.93 578.60 937.49 570.58
00002681 00000061 603.25 161.13 382.63 542.56 802.72 374.83 941.31 366.63 934.33 467.25 831.57 569.95 936.25 563.59
00002682 00000062 605.26 152.64 375.65 531.29 803.45 363.32 945.25 362.35 938.89 454.23 825.04 563.27 933.25 563.15
00002683 00000063 593.51 141.99 376.15 532.72 792.22 358.71 933.19 354.34 926.08 446.96 817.56 558.28 921.01 555.12
00002684 DELETE   583.98 135.08 377.04 535.11 780.91 351.81 917.50 344.76 911.80 434.98 811.14 550.96 911.53 545.61
00002685 00000065 578.49 132.33 377.02 537.86 773.00 346.03 914.02 343.61 904.09 431.99 801.63 547.03 906.11 545.14
00002686 00000066 576.53 131.04 377.83 543.05 770.48 342.29 912.99 340.98 903.46 430.58 798.85 546.00 906.30 544.62
00002687 00000067 580.93 130.27 374.69 544.47 774.92 341.39 915.54 340.25 908.43 431.34 801.16 545.94 908.56 544.85
00002688 00000068 587.12 129.10 373.16 541.22 787.39 340.18 926.52 342.16 922.33 427.92 814.67 537.50 921.33 538.65
00002689 00000069 598.99 130.28 367.95 538.47 799.33 342.54 929.72 343.32 930.74 428.53 823.37 542.41 922.05 543.49
00002690 00000070 596.85 122.36 371.16 546.88 795.86 341.67 935.64 342.66 933.73 428.90 833.80 534.56 937.96 535.38
00002691 00000071 598.15 122.24 373.62 547.88 800.71 342.44 938.36 345.34 937.10 430.67 836.68 535.93 938.61 538.08
00002692 00000072 599.89 125.97 375.48 544.93 801.16 341.01 941.28 348.14 936.72 428.11 834.44 532.16 939.34 537.78
00002693 00000073 599.90 124.11 377.52 549.40 800.27 337.92 941.29 346.47 936.32 424.02 830.48 529.86 938.85 536.66
00002694 00000074 602.91 123.80 378.63 546.90 801.04 338.75 942.88 347.17 935.59 422.28 831.90 528.19 940.53 534.79
00002695 00000075 605.30 126.35 381.40 540.65 805.62 344.93 947.45 352.46 936.54 424.73 838.95 529.88 945.43 535.40
00002696 00000076 615.89 136.38 382.37 533.42 819.50 336.38 957.05 349.91 951.01 424.79 857.27 534.99 954.77 544.04
00002697 00000077 622.24 140.24 382.32 534.71 828.39 344.90 964.37 355.81 958.93 433.97 864.83 543.70 960.77 551.06
00002698 00000078 623.71 147.36 384.82 532.95 836.92 353.77 970.55 364.88 965.65 444.89 870.11 552.41 963.76 560.14
00002699 00000079 626.85 155.52 385.87 535.35 840.45 362.49 976.01 373.33 969.02 452.48 868.05 559.98 964.68 567.49
00002700 00000080 625.05 162.32 386.64 539.23 841.06 369.62 975.93 382.67 965.71 463.24 856.80 564.87 956.75 574.92
00002701 00000081 621.43 167.75 386.92 544.39 830.45 373.73 969.28 387.78 953.48 470.80 838.06 568.04 946.35 579.91
00002702 00000082 614.11 170.67 387.78 547.30 822.45 377.57 961.45 389.31 952.17 474.60 825.17 569.01 937.73 580.04
00002703 00000083 611.66 171.74 386.22 545.91 815.34 379.35 957.79 388.09 946.86 477.04 819.67 572.08 933.76 580.74
00002704 00000084 605.11 173.48 390.72 542.47 809.99 383.37 956.85 388.02 942.15 480.36 819.38 574.48 935.64 579.44
00002705 00000085 604.46 172.21 390.25 541.98 809.61 385.04 956.34 387.50 941.44 482.03 819.57 574.93 935.17 578.18
00002706 00000086 606.34 170.70 390.35 545.39 813.91 384.43 957.82 388.87 944.65 479.26 824.03 574.31 938.01 578.96
00002707 00000087 612.51 169.05 388.22 548.92 820.10 387.15 963.16 391.05 950.62 479.01 830.81 576.57 943.75 580.67
00002708 00000088 619.50 168.90 385.54 550.30 827.29 391.56 968.48 393.62 953.97 483.19 839.39 581.32 949.24 583.33
00002709 00000089 624.94 171.53 382.21 545.70 829.56 395.87 971.77 393.63 959.40 486.94 854.05 590.00 959.92 587.86
00002710 00000090 624.37 176.59 381.46 541.91 828.57 400.06 970.94 395.32 959.59 491.76 856.35 595.03 960.08 591.06
00002711 00000091 616.81 179.69 380.43 542.13 818.15 403.02 960.81 396.22 948.69 497.08 849.26 598.31 950.98 592.80
00002712 00000092 604.81 181.20 385.12 541.15 810.09 401.74 950.05 393.06 940.13 498.44 838.39 594.87 939.80 588.13
00002713 00000093 597.73 180.66 380.90 539.47 802.54 396.37 941.92 390.11 934.66 493.33 823.63 585.91 930.65 581.65
00002714 00000094 599.02 171.70 375.14 543.94 800.64 388.75 947.07 389.36 938.99 486.03 808.51 582.63 928.75 584.47
00002715 00000095 595.31 170.65 375.79 543.28 796.26 385.68 942.87 385.95 934.58 481.60 799.18 577.89 922.92 579.91
00002716 00000096 593.55 170.50 377.28 548.17 798.34 383.65 941.99 384.76 937.15 480.75 797.77 576.32 922.59 579.23
00002717 00000097 595.39 170.74 377.36 548.18 804.14 381.23 945.00 384.16 941.49 481.45 800.83 576.02 922.36 580.52
00002718 00000098 599.94 172.34 376.86 545.38 809.36 381.54 951.74 385.63 947.79 483.20 807.06 576.06 928.19 581.43
00002719 00000099 592.08 172.53 386.47 545.44 806.20 386.17 942.62 384.60 941.28 487.01 818.58 577.88 926.29 578.04
00002720 00000100 597.79 175.74 385.06 542.06 810.39 387.12 944.88 385.79 942.49 487.72 824.31 580.87 926.89 580.84
00002721 00000101 603.75 174.18 382.64 542.75 814.73 390.71 948.69 387.22 942.32 488.28 832.81 583.05 931.63 581.05
00002722 00000102 604.80 172.29 385.15 545.01 813.62 393.46 949.73 388.35 941.50 487.19 836.32 584.45 935.95 580.76
00002723 00000103 605.98 171.25 384.26 544.07 811.90 392.64 947.62 386.19 939.96 484.12 837.53 583.26 936.28 578.39
00002724 00000104 605.85 169.14 385.33 544.72 812.42 389.99 947.96 382.65 940.85 480.06 842.39 581.29 940.63 575.29
00002725 00000105 609.05 165.77 386.24 546.13 814.02 382.93 952.03 378.16 943.87 473.49 845.55 577.98 946.13 573.77
00002726 00000106 611.67 162.86 384.37 543.25 817.59 377.68 955.98 376.77 947.48 467.18 847.77 572.24 948.68 571.04
00002727 00000107 608.98 159.84 388.20 543.29 823.89 371.62 959.45 372.93 952.80 464.24 851.19 568.25 949.17 568.67
00002728 00000108 611.38 153.19 387.69 546.89 831.23 363.99 961.77 366.67 959.09 458.53 857.71 563.95 951.36 565.29
00002729 00000109 613.60 148.70 390.04 545.67 836.58 358.65 964.75 364.18 964.09 453.87 863.41 560.10 954.29 563.72
00002730 00000110 613.76 145.38 390.45 546.69 839.15 356.94 966.07 363.95 967.69 451.66 866.96 558.34 956.67 563.37
00002731 00000111 614.73 145.64 390.38 545.91 838.64 357.30 967.98 364.55 968.62 450.89 867.24 558.05 959.10 563.23
00002732 00000112 614.85 147.77 390.18 544.01 840.10 357.78 968.42 366.66 968.40 453.02 866.83 558.67 957.74 565.25
00002733 00000113 616.12 147.95 391.48 545.22 842.82 357.68 970.87 367.25 971.83 452.60 867.17 557.06 958.78 564.43
00002734 00000114 618.52 146.73 390.78 547.05 844.65 356.18 972.44 366.94 972.52 452.37 864.58 555.11 957.48 563.75
00002735 00000115 617.47 144.78 393.84 549.91 846.83 353.54 973.63 367.27 977.55 451.53 860.88 552.73 956.03 564.56
00002736 00000116 620.45 139.09 391.54 553.50 847.93 350.07 976.23 363.74 979.13 451.51 859.51 550.44 956.54 562.44
00002737 00000117 621.36 137.18 392.42 553.33 846.12 347.92 979.45 363.89 977.41 450.32 853.81 547.14 957.20 561.18
00002738 00000118 622.47 136.99 393.46 551.59 846.93 349.51 981.52 365.61 979.23 445.74 857.83 545.63 962.25 559.46
00002739 00000119 621.69 134.52 394.27 549.15 847.86 349.77 981.50 366.08 978.92 441.93 866.50 547.04 964.60 560.03
00002740 00000120 623.34 131.87 391.94 547.93 847.25 346.24 981.84 363.71 978.74 438.87 868.42 545.15 966.37 559.07
00002741 00000121 623.11 129.50 391.34 549.29 846.03 342.16 979.46 359.34 978.58 434.22 869.35 542.83 965.95 556.46
00002742 00000122 620.77 131.08 395.04 545.23 844.37 336.95 979.97 355.70 977.31 431.17 868.75 540.23 965.91 554.68
00002743 00000123 616.75 132.27 398.91 545.31 842.16 333.47 981.96 353.00 977.09 431.38 864.21 539.48 965.30 554.37
00002744 00000124 615.00 133.86 398.33 546.82 842.24 332.91 979.18 353.73 976.20 431.46 860.86 537.78 962.25 553.93
00002745 00000125 608.65 134.48 403.06 548.27 841.11 330.39 977.19 354.59 976.25 432.51 853.37 534.16 958.73 553.56
00002746 00000126 607.79 133.35 403.91 548.38 840.04 329.07 976.94 354.39 976.80 432.52 846.20 530.54 956.50 551.74
00002747 00000127 606.27 130.10 405.78 551.84 837.47 325.79 977.06 352.96 975.17 430.93 842.50 528.50 955.84 551.12
00002748 00000128 608.73 126.80 397.84 551.57 826.77 323.35 979.92 346.03 970.28 440.38 829.28 533.94 960.07 554.27
00002749 00000129 606.18 124.11 396.60 552.84 826.06 320.36 977.17 342.62 969.17 439.00 827.59 531.93 957.20 551.83
00002750 00000130 597.75 120.83 409.82 559.88 834.66 316.68 973.09 349.52 971.40 426.68 837.10 521.14 950.62 547.97
00002751 00000131 596.30 119.11 410.15 561.26 832.12 319.19 971.39 350.43 968.33 426.72 836.69 522.23 950.39 547.46
00002752 00000132 593.52 118.79 404.49 556.70 821.17 334.21 966.11 353.92 961.75 428.07 830.26 524.97 945.28 541.73
00002753 00000133 591.29 119.86 404.07 555.29 818.22 334.40 963.50 352.83 958.69 430.28 827.95 526.10 942.89 541.84
00002754 00000134 590.26 121.53 403.30 553.59 816.43 335.41 960.79 352.89 955.79 432.17 826.85 527.31 940.36 542.17
00002755 00000135 589.66 120.74 402.10 553.99 817.14 337.36 961.21 355.85 955.63 432.04 826.28 526.76 939.82 542.44
00002756 00000136 590.03 117.36 401.08 555.75 821.09 340.71 963.24 363.27 957.71 430.38 826.44 525.28 938.49 544.32
00002757 00000137 590.25 115.76 400.55 555.24 819.61 339.26 963.82 361.74 957.52 428.11 827.12 524.34 940.45 543.14
00002758 00000138 588.91 115.96 402.66 551.28 819.84 337.79 962.93 356.84 959.50 426.24 832.71 523.28 943.44 538.89
00002759 00000139 592.04 117.36 400.43 547.41 821.31 337.29 965.10 354.95 961.76 423.41 836.54 520.82 948.26 535.17
00002760 00000140 597.09 114.30 398.63 552.75 828.67 336.65 968.48 353.41 968.22 424.21 845.93 524.08 952.58 537.67
00002761 00000141 605.76 118.67 395.44 551.72 841.82 324.92 970.94 349.82 982.05 421.58 868.04 529.04 959.92 548.50
00002762 00000142 626.27 120.98 381.98 552.14 865.01 333.76 980.32 354.11 999.55 433.63 887.51 539.04 966.62 556.49
00002763 00000143 633.25 123.04 385.83 552.09 880.55 336.96 990.52 358.28 1016.80 439.46 906.33 540.00 988.09 557.34
00002764 00000144 632.02 121.14 393.44 554.31 890.05 339.24 993.37 356.69 1026.46 437.55 917.47 539.37 994.01 553.46
00002765 00000145 637.71 120.55 396.83 558.14 896.53 341.73 998.51 356.15 1030.18 440.57 918.41 540.09 994.21 552.37
00002766 00000146 643.48 121.00 395.29 560.45 898.42 344.11 1000.47 358.01 1029.45 442.51 915.55 540.97 991.95 553.14
00002767 00000147 647.09 126.62 392.24 558.86 899.70 345.67 1002.86 358.70 1030.53 445.29 914.94 542.12 993.86 553.79
00002768 00000148 650.41 127.10 395.29 563.27 902.56 349.52 1010.03 361.36 1031.57 450.61 914.13 545.73 995.89 556.58
00002769 00000149 658.16 132.52 399.93 575.08 915.58 346.89 1017.92 374.83 1035.87 456.42 914.98 551.89 989.12 575.18
00002770 DELETE   661.72 138.71 399.52 576.76 918.72 353.05 1023.98 386.10 1041.24 466.50 909.27 556.92 988.64 585.24
00002771 DELETE   665.66 149.51 402.33 572.97 920.88 361.22 1029.25 390.09 1045.59 475.56 907.26 564.84 989.60 590.21
00002772 00000152 667.52 152.60 403.91 573.90 921.12 372.30 1033.84 395.04 1049.29 481.61 909.98 572.38 994.80 592.76
00002773 00000153 672.04 159.13 401.78 569.59 921.98 382.87 1040.72 401.67 1051.57 486.90 914.45 579.44 1003.93 596.18
00002774 00000154 676.34 167.71 400.87 565.60 927.46 388.32 1045.47 408.76 1056.55 491.15 920.57 582.57 1010.13 600.32
CROP_BBOX: 396 0 1266 860
