Video ID: 	g3S7TuQTDLU
H: 	1080
W: 	1920
FPS: 	29.97002997002997

FRAME INDEX X0 Y0 W H [Landmarks (5 Points)]

00043306 00000000 480.06 58.25 437.62 675.77 672.61 375.76 858.24 333.64 834.96 480.38 720.64 591.79 877.37 557.33
00043307 00000001 479.26 62.28 436.62 673.26 670.74 378.53 860.07 338.25 835.12 482.22 720.68 596.30 876.89 563.26
00043308 00000002 479.18 62.32 436.62 673.32 670.60 378.91 859.97 338.27 835.21 482.24 720.77 596.48 876.99 563.16
00043309 00000003 477.95 65.59 438.43 671.11 671.14 380.52 860.20 339.93 835.05 483.22 721.86 600.02 874.09 566.97
00043310 00000004 479.09 64.32 438.99 667.74 671.04 381.80 862.22 339.94 835.54 483.62 725.45 602.34 875.76 568.27
00043311 00000005 480.52 67.62 442.88 664.61 672.60 382.59 865.91 341.36 836.28 486.36 729.16 605.94 878.74 572.63
00043312 00000006 483.51 68.98 443.38 664.41 674.58 382.10 867.82 340.12 838.30 486.92 730.26 605.54 881.06 571.86
00043313 00000007 483.17 68.52 443.52 664.63 674.52 381.95 867.88 340.26 838.12 486.98 729.93 605.52 880.59 572.09
00043314 00000008 482.53 70.50 446.22 667.43 675.41 381.77 870.19 342.05 839.63 488.41 724.38 604.19 878.58 572.75
00043315 00000009 483.20 73.84 448.73 670.35 674.98 384.18 866.63 340.91 840.79 489.59 721.57 603.86 878.90 569.56
00043316 00000010 485.06 73.58 451.37 672.34 674.39 387.75 865.26 340.46 841.44 489.87 717.44 600.42 880.57 563.19
00043317 00000011 486.18 78.60 451.64 668.24 673.68 392.40 866.42 340.63 842.82 490.54 715.97 598.09 884.59 557.17
00043318 00000012 486.17 78.15 451.44 668.85 673.74 392.28 866.39 340.58 842.94 490.28 716.10 598.06 884.79 557.15
00043319 00000013 488.68 87.73 451.46 662.79 671.78 400.06 867.86 347.87 841.54 496.16 712.48 600.76 886.72 559.95
00043320 00000014 490.96 97.38 449.18 655.71 671.73 405.36 868.48 351.22 841.36 502.65 710.23 603.04 887.69 561.10
00043321 00000015 482.93 109.09 458.79 646.33 673.96 407.13 861.84 355.12 841.21 508.47 706.20 603.08 885.38 560.98
00043322 00000016 489.33 100.38 446.92 656.29 668.78 408.61 866.02 352.09 839.36 505.80 707.37 605.71 886.66 561.59
00043323 00000017 489.04 100.47 447.23 655.98 668.73 408.45 865.88 352.02 839.39 505.54 707.39 605.46 886.54 561.44
00043324 00000018 478.87 102.92 460.12 651.33 671.85 406.14 859.80 353.79 840.00 507.36 705.28 603.00 883.53 560.54
00043325 00000019 478.44 102.39 458.76 652.08 672.03 406.55 858.86 354.46 840.23 505.09 705.34 604.34 880.68 562.22
00043326 00000020 488.38 98.43 439.16 662.17 672.37 411.32 858.32 355.53 842.49 499.66 709.77 605.88 882.59 561.97
00043327 DELETE   487.47 98.12 440.48 660.32 669.69 410.32 859.27 354.54 840.00 501.45 711.83 608.02 883.39 564.07
00043328 00000022 487.48 98.05 440.20 660.50 669.57 410.39 858.90 354.86 839.80 501.63 711.89 608.32 883.09 564.58
00043329 00000023 487.13 96.75 442.66 661.80 668.26 408.42 862.20 353.39 838.24 503.35 713.60 610.71 883.67 567.35
00043330 00000024 486.04 97.41 443.67 656.03 668.50 408.93 865.16 354.47 839.18 505.89 717.65 613.90 883.38 571.09
00043331 00000025 485.68 95.97 442.39 651.63 670.98 408.16 867.18 356.15 838.87 507.28 722.18 616.30 880.17 575.61
00043332 00000026 484.57 94.99 439.61 650.55 671.70 405.87 869.21 356.72 838.02 508.75 728.98 621.87 880.26 583.04
00043333 00000027 484.54 95.10 440.62 650.42 672.08 405.50 869.36 356.77 837.85 508.92 728.95 621.78 880.07 583.30
00043334 00000028 483.87 91.05 439.66 651.34 672.80 403.16 867.51 356.65 836.25 507.00 732.70 623.28 877.59 586.48
00043335 00000029 483.16 89.56 437.74 653.69 671.77 401.51 866.68 355.94 835.27 506.14 734.21 624.63 877.47 588.25
00043336 00000030 483.02 89.22 434.64 658.02 671.13 400.36 864.10 355.76 835.21 504.48 733.86 624.41 876.03 588.87
00043337 00000031 481.98 88.36 438.15 660.94 669.93 401.03 862.80 354.74 834.86 504.50 732.92 625.12 876.15 588.14
00043338 00000032 482.21 88.41 438.02 661.27 669.79 400.76 862.65 354.64 834.55 504.58 732.97 624.88 876.35 587.99
00043339 00000033 483.19 87.90 436.00 657.79 669.10 399.62 861.71 354.27 833.32 502.37 733.42 622.15 876.23 585.88
00043340 00000034 483.36 89.09 436.28 655.63 669.14 400.54 862.10 353.68 834.39 502.64 732.85 621.46 876.95 584.09
00043341 00000035 483.64 87.68 437.76 658.25 670.22 401.02 862.31 351.53 837.25 500.40 731.70 618.23 880.55 578.48
00043342 00000036 483.71 87.37 439.06 657.25 670.51 399.60 863.12 350.11 838.54 497.67 728.11 613.89 880.80 574.27
00043343 00000037 483.95 86.63 439.07 657.85 670.82 399.28 863.48 350.02 838.48 498.02 728.11 614.14 880.37 574.74
00043344 00000038 484.12 87.64 440.05 654.06 673.12 397.33 866.55 348.35 841.03 497.32 727.16 611.38 880.79 572.43
00043345 00000039 484.86 89.43 441.39 648.22 674.61 397.56 868.85 348.33 841.96 497.84 730.12 610.94 883.19 571.93
00043346 00000040 485.49 87.58 438.27 651.53 675.47 397.49 868.39 348.34 843.57 497.91 730.87 611.88 883.71 572.66
00043347 00000041 485.97 85.91 438.74 655.99 676.15 396.00 865.88 347.70 842.44 495.54 733.17 612.21 882.52 573.65
00043348 00000042 485.61 85.89 439.57 655.89 676.11 395.90 866.08 347.50 842.57 495.52 733.21 612.32 882.48 573.71
00043349 00000043 485.45 87.24 442.96 655.73 675.99 395.19 865.07 345.67 843.70 495.01 730.77 609.53 883.71 570.10
00043350 00000044 485.66 87.19 445.38 653.82 675.85 394.16 865.28 344.87 843.34 492.72 730.39 606.43 884.37 567.28
00043351 00000045 485.57 84.27 445.28 647.26 677.14 394.23 867.44 346.00 842.95 491.94 731.91 604.13 883.12 565.80
00043352 00000046 487.68 85.09 445.54 645.23 676.97 394.94 870.62 346.17 842.31 493.56 732.55 604.60 885.68 565.79
00043353 00000047 487.51 84.69 445.69 646.01 677.25 394.78 870.52 346.39 842.37 493.58 732.63 604.84 885.33 566.33
00043354 00000048 490.31 89.41 445.58 652.89 676.31 395.71 868.39 347.65 841.99 493.81 730.56 606.71 886.85 568.56
00043355 00000049 492.43 87.80 445.59 665.21 677.25 398.92 868.72 350.27 842.56 498.29 728.33 610.56 888.44 571.87
00043356 00000050 493.74 92.10 444.40 671.72 678.71 401.60 869.05 353.17 844.42 499.88 727.12 613.40 889.27 574.83
00043357 00000051 494.58 94.85 444.14 665.33 680.84 404.53 871.13 354.52 846.30 503.08 728.19 612.43 889.92 572.73
00043358 00000052 494.43 93.50 443.97 666.94 680.62 404.27 871.12 354.53 846.16 502.78 727.67 612.41 889.71 572.90
00043359 00000053 495.12 96.34 444.00 657.90 680.39 406.45 872.38 354.76 846.39 503.73 726.27 609.94 889.96 568.91
00043360 00000054 494.67 99.77 445.61 654.43 680.02 407.24 871.18 354.07 847.11 503.67 724.63 608.92 889.54 566.97
00043361 00000055 487.24 105.36 456.72 648.67 684.68 402.70 867.74 354.76 848.01 504.69 724.41 606.49 889.11 566.41
00043362 00000056 494.08 99.55 447.70 652.54 677.79 406.71 870.92 351.75 846.05 503.08 722.88 608.11 889.22 565.13
00043363 00000057 494.04 99.51 447.19 651.88 678.09 406.87 870.84 351.97 846.27 503.22 722.96 607.89 888.96 564.98
00043364 00000058 494.18 100.37 446.84 652.13 675.33 407.06 869.04 352.12 842.73 503.01 722.06 608.08 889.01 564.96
00043365 00000059 493.92 103.26 444.71 650.74 675.12 409.26 868.83 352.73 843.72 506.92 724.85 612.59 889.27 568.23
00043366 00000060 492.91 104.63 439.36 646.17 675.89 409.47 869.62 356.04 843.17 508.89 727.46 615.77 885.35 574.25
00043367 00000061 491.64 103.60 438.73 648.37 675.61 408.65 869.26 356.85 842.07 509.42 730.90 619.78 885.15 579.43
00043368 00000062 491.60 103.74 438.79 647.53 675.40 408.60 869.22 357.17 841.76 509.02 730.68 619.47 885.00 579.43
00043369 00000063 489.83 104.17 440.97 646.01 675.12 408.51 869.24 358.74 839.99 509.30 736.44 623.36 886.05 584.16
00043370 00000064 488.65 104.41 443.29 644.75 673.65 409.79 869.44 359.71 838.32 511.24 737.49 625.98 886.68 586.32
00043371 00000065 489.52 103.76 442.93 645.04 674.86 410.10 870.71 361.23 838.69 512.06 738.42 626.21 887.23 587.38
00043372 00000066 489.67 104.57 442.89 644.87 675.95 410.14 870.55 362.02 839.50 512.54 738.98 627.03 886.49 588.94
00043373 00000067 489.38 103.99 443.15 645.80 675.96 410.08 870.67 361.76 839.66 512.83 738.60 627.28 886.31 589.02
00043374 00000068 489.35 102.74 443.66 653.04 674.83 409.65 868.23 359.86 839.42 511.83 733.00 626.52 883.47 587.55
00043375 00000069 491.33 103.87 444.09 651.35 673.72 410.15 867.60 358.66 839.31 510.94 728.53 621.55 885.44 581.22
00043376 00000070 492.43 105.17 443.38 654.92 674.11 410.33 866.97 358.47 839.58 509.71 726.88 619.82 886.01 579.13
00043377 00000071 485.96 108.10 451.88 652.26 681.86 407.92 861.33 362.22 841.34 508.41 727.03 618.22 880.12 579.78
00043378 00000072 486.00 108.25 451.82 652.13 681.78 407.89 861.23 361.87 841.54 508.19 726.54 618.07 880.17 579.43
00043379 00000073 494.94 102.82 441.45 657.02 675.65 409.26 869.33 357.21 842.84 508.22 724.09 615.90 887.75 575.03
00043380 00000074 495.17 100.02 441.87 659.18 677.10 408.34 870.39 357.71 843.77 507.13 723.51 614.33 887.17 574.51
00043381 00000075 495.74 99.76 443.24 653.84 679.23 409.22 872.76 357.96 845.24 508.51 724.28 611.95 888.60 571.49
00043382 00000076 498.03 100.90 441.69 654.00 682.30 409.95 874.52 357.97 847.40 510.04 726.48 613.15 889.85 572.10
00043383 00000077 498.09 100.87 441.62 654.01 682.41 410.01 874.44 357.86 847.44 510.04 726.79 613.32 889.76 572.14
00043384 00000078 499.85 103.47 441.04 651.94 685.07 411.06 875.53 359.40 848.51 510.98 728.26 613.63 890.31 572.83
00043385 00000079 500.89 106.86 440.35 651.25 687.21 411.90 875.74 361.76 849.53 512.86 729.96 615.73 890.49 576.18
00043386 00000080 501.40 107.71 441.62 652.71 688.67 413.26 877.11 362.56 850.28 516.11 731.68 618.68 891.20 578.71
00043387 00000081 494.19 114.05 450.14 649.68 695.97 411.47 871.57 367.64 851.45 520.98 734.86 622.93 884.20 586.74
00043388 00000082 494.04 113.88 450.03 649.80 696.05 411.52 871.44 367.63 851.60 521.06 734.90 622.98 884.10 586.72
00043389 00000083 492.42 116.46 450.80 650.49 694.95 414.44 870.86 367.92 852.90 523.89 735.69 628.97 883.16 590.68
00043390 00000084 498.02 112.03 442.65 652.72 684.98 416.93 878.49 364.23 850.11 523.33 733.85 632.07 888.00 590.81
00043391 00000085 497.80 112.56 441.95 646.02 683.21 418.33 879.77 367.35 846.64 525.02 735.53 631.68 888.42 591.58
00043392 00000086 496.18 113.05 444.38 649.34 680.05 418.92 878.03 368.16 843.93 524.99 737.03 635.57 889.12 595.38
00043393 00000087 496.14 112.82 444.30 649.03 680.22 418.93 877.90 368.05 843.91 524.76 737.29 635.21 889.11 594.94
00043394 00000088 491.68 112.17 443.43 650.21 676.32 417.18 873.32 368.20 840.89 522.36 733.95 636.21 883.28 597.81
00043395 00000089 491.94 110.58 443.63 655.48 672.17 418.51 870.26 363.46 840.32 522.67 726.83 635.07 884.05 591.92
00043396 00000090 490.25 110.95 444.96 656.80 669.67 419.04 866.62 361.90 840.03 519.88 721.82 630.55 884.76 585.65
00043397 00000091 490.99 112.05 444.88 651.17 668.41 419.51 865.36 362.05 837.60 518.39 717.20 624.56 884.45 579.55
00043398 00000092 490.88 111.24 445.04 652.73 668.36 419.31 865.59 361.60 837.84 518.45 717.08 624.85 884.57 579.60
00043399 00000093 490.72 111.21 445.52 653.97 668.34 419.03 865.30 360.61 838.13 517.80 717.23 625.12 884.77 579.31
00043400 00000094 481.08 117.78 457.02 642.52 674.29 418.62 856.36 364.28 839.06 516.70 719.21 622.01 881.14 577.63
00043401 00000095 491.35 109.76 443.00 652.50 670.45 420.54 863.60 361.76 840.14 514.11 719.18 623.28 885.66 577.15
00043402 00000096 482.02 111.03 450.10 653.92 676.42 422.49 851.88 368.09 839.68 516.05 718.80 623.35 880.95 578.80
00043403 00000097 491.26 107.67 439.94 662.43 671.20 423.21 860.46 364.24 842.46 512.59 718.71 625.24 886.21 578.47
00043404 00000098 481.41 111.83 451.22 659.54 672.34 420.86 853.18 368.98 835.67 519.33 713.25 626.16 878.99 583.50
00043405 00000099 482.28 114.98 447.74 665.11 668.12 423.66 852.77 370.86 834.87 522.10 710.47 632.07 878.56 588.72
00043406 00000100 470.07 117.85 457.36 669.76 666.75 426.12 849.94 366.55 835.46 530.52 708.55 645.69 869.33 597.13
00043407 00000101 470.60 117.30 451.80 653.31 663.42 425.10 853.38 369.84 828.96 531.85 713.80 646.63 866.11 600.56
00043408 00000102 470.50 117.08 452.14 654.63 663.41 425.06 853.85 370.20 829.35 531.47 713.71 646.37 866.83 600.58
00043409 00000103 480.96 108.56 445.18 659.57 656.51 425.19 863.76 372.59 824.82 528.31 719.81 644.21 876.03 602.21
00043410 00000104 483.14 111.19 444.48 654.96 659.86 424.29 865.83 372.95 827.35 527.40 726.73 645.81 878.51 604.68
00043411 00000105 483.07 111.80 443.54 654.49 661.58 422.71 865.68 373.41 828.80 526.43 729.24 646.44 877.66 607.18
00043412 00000106 484.59 112.51 442.71 656.91 662.53 423.08 865.34 375.21 827.90 526.75 730.63 647.38 878.46 609.07
00043413 00000107 484.58 112.62 442.95 656.50 662.73 423.28 865.25 375.23 827.88 526.98 730.83 647.38 878.32 608.95
00043414 00000108 485.84 114.73 443.82 650.19 663.70 424.05 867.09 376.41 828.77 528.26 729.43 645.38 879.43 607.39
00043415 00000109 488.24 117.52 443.77 645.63 666.38 423.62 869.88 376.65 830.58 527.88 731.10 643.28 881.75 605.88
CROP_BBOX: 196 0 1217 933
