Video ID: 	B6ur6AX9JgI
H: 	1080
W: 	1920
FPS: 	25.0

FRAME INDEX X0 Y0 W H [Landmarks (5 Points)]

00006819 00000000 826.09 209.04 406.41 608.15 878.79 445.42 1061.12 428.11 932.71 560.42 926.72 679.63 1062.39 665.22
00006820 DELETE   812.45 202.44 413.61 613.56 867.64 445.33 1053.57 425.37 927.75 561.35 916.50 677.93 1058.81 661.42
00006821 DELETE   803.87 201.24 418.81 611.80 857.35 446.62 1042.77 421.62 923.48 563.61 911.90 674.03 1058.32 653.24
00006822 DELETE   792.97 208.33 424.21 607.17 846.86 452.42 1033.46 420.63 915.78 564.49 908.34 676.83 1056.05 650.26
00006823 00000004 793.03 222.79 413.26 594.60 850.32 461.18 1010.91 426.43 905.18 562.39 911.67 676.97 1049.32 647.29
00006824 00000005 784.01 223.25 417.11 601.37 842.91 463.04 1003.23 424.14 895.82 564.06 909.93 682.41 1046.52 649.07
00006825 00000006 774.63 224.35 425.34 602.19 836.09 463.22 998.06 425.17 889.89 567.95 906.08 685.64 1041.84 652.45
00006826 00000007 766.23 229.49 431.90 597.20 828.04 467.34 992.12 423.87 883.01 570.32 903.69 690.44 1039.86 652.18
00006827 00000008 760.74 225.08 434.03 601.80 822.60 468.72 986.79 423.80 879.32 572.62 900.35 691.89 1035.70 652.48
00006828 00000009 756.39 227.33 437.30 601.63 818.84 470.76 983.82 420.77 875.90 570.30 898.58 692.88 1038.02 648.94
00006829 00000010 750.28 225.04 442.72 602.46 815.71 475.96 980.08 422.91 875.43 571.35 897.54 692.20 1035.97 645.84
00006830 00000011 742.71 225.52 446.75 597.28 812.48 477.44 974.22 423.18 871.88 571.39 897.24 690.62 1030.75 643.08
00006831 00000012 741.37 224.26 446.01 597.42 810.35 479.56 969.85 423.85 867.28 572.74 894.70 690.25 1027.64 641.39
00006832 00000013 744.88 225.35 444.94 600.72 811.46 471.35 969.09 422.98 863.79 572.94 889.11 683.32 1023.04 642.45
00006833 00000014 753.30 220.02 439.41 608.64 814.54 469.46 973.47 422.60 865.67 572.08 888.42 683.79 1024.54 644.32
00006834 00000015 761.19 214.93 437.94 618.46 817.77 466.81 977.43 422.96 866.35 572.47 888.73 683.41 1027.42 646.45
00006835 00000016 763.86 212.30 439.32 623.05 818.30 464.73 980.22 421.91 867.17 571.19 887.78 683.34 1028.13 647.42
00006836 00000017 768.21 217.44 430.11 611.96 822.19 467.76 981.97 423.64 866.79 566.60 892.03 689.14 1029.33 650.00
00006837 00000018 769.78 221.51 430.60 607.95 824.04 465.16 984.97 423.57 868.80 567.63 893.30 689.21 1030.76 652.34
00006838 00000019 772.12 220.91 428.68 611.20 826.56 463.20 986.82 424.24 871.39 571.22 895.67 689.09 1033.72 654.38
00006839 00000020 772.19 223.02 433.00 609.49 827.03 464.35 988.55 424.41 871.86 573.36 897.51 690.38 1037.28 654.62
00006840 00000021 774.98 223.79 428.68 608.43 828.56 464.91 991.64 426.48 874.83 574.48 898.92 691.08 1039.68 656.95
00006841 00000022 779.58 222.09 424.53 603.59 832.49 466.14 994.52 427.75 879.50 572.84 901.37 688.98 1041.49 655.14
00006842 00000023 786.34 223.87 420.01 594.40 836.86 468.03 998.02 432.14 885.80 575.08 903.99 684.85 1043.86 653.47
00006843 00000024 790.41 222.63 418.83 592.56 840.66 469.45 1002.74 432.55 891.53 574.14 906.92 683.82 1047.56 651.88
00006844 00000025 782.99 212.58 430.40 605.14 834.80 461.68 1015.55 426.22 900.19 577.22 907.95 680.28 1051.79 649.65
00006845 00000026 786.35 211.00 429.11 604.28 837.85 458.45 1019.91 423.52 904.01 575.20 910.40 678.95 1054.05 649.22
00006846 00000027 790.52 212.70 428.55 600.38 842.92 455.52 1024.84 423.60 909.91 574.42 913.51 676.65 1055.40 649.64
00006847 00000028 794.15 212.95 428.97 600.56 845.76 455.48 1026.65 426.13 910.54 577.33 914.39 675.86 1058.07 650.86
00006848 00000029 799.14 216.88 425.60 595.36 851.14 455.27 1029.76 428.67 911.93 578.70 917.36 675.00 1060.52 652.23
00006849 00000030 802.26 216.33 425.38 595.39 854.86 457.05 1032.79 429.85 915.19 578.73 919.32 676.18 1062.35 652.92
00006850 00000031 805.16 214.71 423.59 594.71 856.99 455.93 1036.30 428.59 917.75 575.82 919.51 674.74 1064.63 651.39
00006851 00000032 807.67 214.51 421.46 592.46 859.37 454.23 1038.68 427.21 920.51 572.07 919.35 672.21 1065.10 649.36
00006852 00000033 807.87 211.11 421.24 593.69 860.43 453.25 1039.56 425.55 921.44 570.10 919.41 670.34 1065.95 647.15
00006853 00000034 808.35 210.58 420.78 593.02 860.87 452.74 1039.63 424.82 921.27 569.06 919.14 669.17 1066.17 646.00
00006854 00000035 808.64 210.42 419.89 592.05 860.60 452.14 1039.19 424.36 920.71 567.42 917.90 668.01 1065.00 645.10
00006855 00000036 810.95 211.45 418.08 590.20 862.40 450.39 1041.00 425.13 921.49 566.84 917.62 666.49 1064.53 645.77
00006856 00000037 812.01 211.75 417.12 589.25 863.71 449.95 1042.50 425.72 922.43 566.12 917.32 666.19 1063.98 646.47
00006857 00000038 813.27 212.64 415.69 587.28 865.12 448.98 1044.13 425.81 924.28 565.61 917.77 665.50 1063.87 646.73
00006858 00000039 813.44 212.42 414.82 586.82 865.59 448.88 1044.38 426.55 924.74 565.75 917.77 665.01 1063.28 646.96
00006859 00000040 812.74 214.31 414.90 585.26 864.70 449.27 1043.50 426.78 924.19 566.03 917.24 665.63 1062.73 647.41
00006860 00000041 812.44 215.65 414.89 583.35 863.25 450.68 1041.24 427.31 922.41 567.03 917.23 665.94 1061.86 647.06
00006861 00000042 811.82 216.44 415.07 583.06 862.10 451.23 1039.93 427.22 921.14 567.42 916.41 666.98 1060.99 647.53
00006862 00000043 811.75 217.30 414.38 581.99 862.20 451.35 1039.81 427.10 921.43 567.53 916.92 667.03 1061.45 647.33
00006863 00000044 812.03 218.32 415.00 581.60 863.16 451.52 1040.81 427.37 922.89 567.26 916.94 667.06 1061.88 647.45
00006864 00000045 812.82 216.81 413.80 582.62 864.72 451.39 1042.47 427.82 925.49 567.33 918.03 666.34 1062.25 647.23
00006865 00000046 814.17 214.20 412.69 583.70 865.57 449.94 1044.62 426.82 927.36 566.50 917.52 665.81 1062.96 647.28
00006866 00000047 814.86 211.71 412.27 587.17 867.42 448.87 1046.52 426.53 928.12 565.68 918.14 665.31 1064.24 647.32
00006867 00000048 815.91 211.72 411.16 586.56 867.77 448.24 1047.86 425.89 929.23 565.25 918.59 665.38 1065.84 647.39
00006868 00000049 816.50 212.56 411.03 585.77 868.43 448.48 1048.58 425.81 929.93 565.35 919.45 665.81 1067.41 647.52
00006869 00000050 816.68 212.46 410.82 586.49 868.56 449.19 1049.27 425.33 930.79 565.86 921.43 667.27 1069.44 647.89
00006870 00000051 816.25 214.31 411.98 586.89 870.87 449.71 1050.69 426.04 933.01 565.65 923.35 667.74 1070.45 648.35
00006871 00000052 818.09 214.11 410.61 585.65 871.97 450.18 1051.62 425.90 934.09 565.85 925.65 668.03 1072.25 648.28
00006872 00000053 818.09 211.58 410.73 590.33 873.65 456.39 1052.19 429.24 936.06 565.21 928.09 670.47 1073.54 648.27
00006873 00000054 818.57 208.25 409.92 595.07 875.97 458.05 1053.17 431.27 936.97 565.54 930.50 670.75 1074.87 648.66
00006874 00000055 820.38 208.03 409.24 597.98 877.54 455.62 1055.19 428.65 937.22 563.59 930.71 670.98 1075.88 648.74
00006875 00000056 822.62 211.29 407.29 596.03 878.13 451.34 1056.24 425.85 936.85 562.25 931.12 671.60 1075.23 650.46
00006876 00000057 823.07 212.80 406.36 594.21 877.66 449.88 1056.14 424.75 936.86 561.46 931.31 671.34 1074.70 650.50
00006877 00000058 822.69 212.57 406.03 593.77 877.17 449.32 1056.09 424.38 936.92 561.43 931.06 670.53 1074.67 649.89
00006878 00000059 822.94 212.55 405.60 593.62 877.01 448.81 1055.74 423.85 936.49 560.92 930.90 670.27 1074.21 649.66
00006879 00000060 823.35 211.76 405.11 594.69 877.13 448.80 1055.56 423.25 936.03 559.86 930.76 670.31 1073.14 649.24
00006880 00000061 823.83 211.56 404.05 594.55 877.70 447.97 1055.53 422.65 937.00 558.86 931.61 669.49 1073.31 648.58
00006881 00000062 823.45 211.92 404.98 595.20 877.92 447.54 1055.67 422.50 937.48 559.15 931.64 669.50 1073.67 648.82
00006882 00000063 823.60 211.93 404.52 595.86 878.49 447.10 1056.06 422.40 938.11 558.90 932.09 669.30 1074.05 648.86
00006883 00000064 824.22 209.97 404.81 598.23 878.67 446.33 1056.38 421.13 937.56 559.03 932.83 670.34 1074.38 649.57
00006884 00000065 826.58 208.88 403.22 598.74 879.61 445.93 1057.03 420.32 937.45 558.48 933.43 670.21 1075.48 649.19
00006885 00000066 828.54 208.72 401.96 598.20 880.32 444.66 1058.06 419.09 937.43 557.22 933.76 670.05 1075.49 649.18
00006886 00000067 830.28 208.02 401.35 596.64 880.62 443.76 1059.53 417.86 937.63 557.81 933.77 669.17 1077.85 648.12
00006887 00000068 832.18 208.43 401.54 595.07 881.89 443.19 1060.21 418.31 937.68 558.12 934.28 668.70 1077.58 648.41
00006888 00000069 833.20 207.28 401.17 593.19 883.06 443.47 1060.92 418.46 938.37 557.60 935.40 668.16 1076.93 647.76
00006889 00000070 840.85 211.61 399.98 591.73 891.35 444.25 1053.83 421.97 936.48 551.85 932.33 659.15 1069.53 640.81
00006890 00000071 841.07 211.69 400.65 590.03 892.14 443.32 1055.19 421.98 937.00 552.63 933.34 658.12 1070.82 640.55
00006891 00000072 843.18 214.14 399.38 586.94 893.19 442.84 1056.34 421.99 936.95 552.24 933.00 657.41 1071.00 640.16
00006892 00000073 845.81 220.21 393.88 581.28 894.47 448.03 1060.95 427.20 942.54 558.59 937.79 664.96 1077.12 647.16
00006893 00000074 847.69 219.18 393.97 582.78 896.04 448.36 1062.53 428.18 943.33 558.41 937.68 664.13 1079.29 646.81
00006894 00000075 847.89 220.45 395.00 580.23 896.96 447.38 1063.54 428.29 944.46 558.73 937.83 663.01 1080.36 646.55
00006895 00000076 849.02 219.76 394.85 580.31 897.95 447.68 1063.94 429.05 944.86 559.24 937.71 662.71 1081.00 646.68
00006896 00000077 850.14 219.00 394.97 580.09 898.83 446.93 1065.84 428.69 945.58 559.56 938.00 662.15 1082.26 646.44
00006897 00000078 850.69 219.07 395.23 578.97 899.91 446.62 1067.18 428.56 947.18 559.09 937.84 661.09 1083.21 645.58
00006898 00000079 850.90 218.82 395.17 578.91 900.35 446.35 1067.65 428.56 947.46 558.75 937.24 659.70 1083.70 644.36
00006899 00000080 851.27 216.83 394.56 580.60 900.47 446.28 1067.93 428.72 947.44 558.45 936.86 659.21 1083.17 644.08
00006900 00000081 851.49 216.02 394.12 581.04 900.66 446.16 1068.27 428.91 947.31 558.14 936.36 659.17 1082.62 644.35
00006901 00000082 851.57 215.20 393.74 580.68 900.56 446.08 1067.96 428.78 947.30 558.17 936.37 659.17 1081.71 644.41
00006902 00000083 851.75 215.20 393.64 579.26 900.47 446.25 1068.08 428.89 947.44 557.87 936.18 659.13 1081.16 644.38
00006903 00000084 851.82 214.40 393.11 580.10 900.49 445.95 1067.82 428.85 947.13 557.41 935.46 658.41 1080.64 643.83
00006904 00000085 852.01 214.03 392.78 579.96 900.68 445.21 1067.76 428.90 946.84 556.43 934.82 657.22 1079.68 643.28
00006905 00000086 851.91 214.60 393.36 579.04 900.34 444.74 1067.83 428.32 946.13 556.32 934.54 656.59 1080.00 642.49
00006906 00000087 851.25 212.63 393.47 579.19 899.47 444.81 1067.09 428.09 945.57 556.00 934.15 656.25 1079.44 641.90
00006907 00000088 850.23 214.25 394.27 577.41 899.27 444.22 1066.57 427.74 945.26 555.29 933.74 655.31 1079.44 641.07
00006908 00000089 849.88 214.13 394.15 577.80 898.54 444.53 1066.60 427.41 945.16 554.82 933.53 654.96 1080.64 640.03
00006909 00000090 848.94 214.71 395.25 577.90 897.89 444.85 1066.08 426.30 944.70 552.92 933.43 653.72 1082.18 637.34
00006910 00000091 847.36 210.59 399.73 581.49 895.17 439.56 1057.23 422.76 935.91 548.69 931.37 646.28 1076.52 631.30
00006911 00000092 847.48 216.57 395.91 576.74 896.58 446.17 1064.35 425.37 944.12 552.69 933.88 653.58 1084.32 634.99
00006912 00000093 845.13 211.27 400.54 579.99 893.41 440.84 1056.47 422.30 935.67 549.50 931.50 646.77 1078.22 630.32
00006913 00000094 844.55 211.75 401.29 579.10 892.76 441.30 1055.85 421.77 934.54 549.35 931.51 646.36 1079.44 628.95
00006914 00000095 844.50 212.66 401.14 578.44 892.97 441.87 1055.26 421.86 935.09 549.21 932.10 645.49 1080.53 627.54
00006915 00000096 844.43 212.80 400.73 578.38 892.97 442.12 1055.31 421.95 935.36 549.58 932.36 645.17 1081.48 627.04
00006916 00000097 844.23 212.73 400.63 578.53 892.95 442.25 1055.08 421.77 935.44 549.58 932.90 644.91 1082.29 626.42
00006917 00000098 844.17 212.58 400.49 578.65 892.72 442.33 1054.96 421.71 935.06 549.73 932.81 644.92 1082.48 626.30
00006918 00000099 843.97 213.42 400.88 578.62 893.07 443.09 1054.96 422.39 935.30 550.14 932.70 645.03 1082.32 626.39
00006919 00000100 843.76 214.30 400.76 578.27 892.69 443.94 1054.27 422.45 935.95 550.29 933.15 645.12 1082.78 625.82
00006920 00000101 843.25 213.65 400.16 579.67 892.58 444.29 1053.59 422.63 935.85 550.63 933.37 645.03 1083.14 625.59
00006921 00000102 841.96 211.41 400.39 582.35 892.10 444.65 1052.73 422.57 936.48 551.46 934.29 644.88 1084.28 625.05
00006922 00000103 840.37 212.08 401.97 581.85 891.90 444.92 1051.30 422.46 936.52 551.50 935.04 644.13 1084.77 623.90
00006923 00000104 840.90 213.75 399.18 579.34 891.60 448.01 1049.91 425.06 936.38 552.61 934.30 643.69 1083.68 623.11
00006924 00000105 840.30 213.41 400.73 582.32 891.22 447.57 1051.43 425.58 936.00 553.55 932.65 645.66 1082.89 626.02
00006925 00000106 836.41 213.58 399.56 579.20 884.42 447.38 1057.79 422.39 941.23 560.81 931.92 649.37 1086.30 628.59
00006926 00000107 836.01 215.59 400.82 577.61 883.63 447.98 1058.19 424.58 941.13 562.79 931.04 650.61 1085.71 631.16
00006927 00000108 835.46 214.83 400.64 578.41 883.55 449.03 1057.99 425.05 941.39 562.16 930.54 650.56 1085.31 630.62
00006928 00000109 835.00 216.61 400.61 578.01 883.20 448.60 1058.34 425.55 942.07 562.39 929.63 650.47 1085.53 631.30
00006929 00000110 833.41 216.94 399.73 576.81 881.82 447.69 1057.28 424.55 941.63 561.81 927.56 648.75 1085.35 629.57
00006930 00000111 831.83 215.69 400.30 577.23 879.75 446.41 1054.98 422.49 939.01 560.16 926.09 648.46 1084.31 628.71
00006931 00000112 828.72 214.04 400.82 579.06 877.11 446.12 1053.17 421.86 938.50 559.85 923.65 647.94 1083.46 627.95
00006932 00000113 826.36 212.20 399.75 582.14 875.60 446.16 1051.13 421.84 938.08 560.40 922.49 647.38 1083.15 627.23
00006933 00000114 823.29 211.92 402.27 583.32 873.71 446.58 1049.71 422.43 937.21 560.98 921.25 647.37 1082.95 627.25
00006934 00000115 820.48 213.23 404.77 583.26 872.06 447.26 1048.55 423.74 936.07 562.31 919.60 648.29 1081.43 628.61
00006935 00000116 819.29 214.28 405.24 582.98 870.86 447.97 1048.05 424.68 935.27 563.18 918.61 649.26 1080.51 629.73
00006936 00000117 819.14 213.40 404.93 584.40 870.34 447.64 1047.62 425.00 934.62 563.92 917.85 649.12 1080.31 630.08
00006937 00000118 818.63 213.88 405.13 583.57 869.67 447.54 1046.73 425.66 933.25 564.77 917.36 648.99 1079.43 630.58
00006938 00000119 818.41 212.14 405.11 585.90 868.76 447.69 1047.20 425.22 933.57 564.91 915.71 648.63 1080.74 629.73
00006939 00000120 816.42 211.25 406.56 588.17 867.83 447.56 1046.75 424.69 934.81 565.40 915.52 648.63 1080.64 629.29
00006940 00000121 817.35 210.23 406.02 588.79 868.11 447.20 1046.42 423.95 933.98 565.04 915.64 649.27 1079.75 629.71
00006941 00000122 818.02 210.09 405.34 588.86 868.61 446.32 1047.43 423.88 934.32 565.57 915.31 648.67 1079.59 629.77
00006942 00000123 818.66 211.25 405.34 588.20 869.16 445.26 1047.44 424.01 933.44 565.48 915.29 648.03 1079.20 630.05
00006943 00000124 818.74 211.14 405.31 588.69 869.29 445.46 1047.40 423.56 933.16 565.32 915.27 648.27 1078.99 629.74
00006944 00000125 818.95 211.71 405.40 588.76 869.75 445.59 1047.46 423.55 932.97 565.06 915.68 648.11 1079.45 629.40
00006945 00000126 819.51 211.27 404.86 589.84 870.37 445.50 1047.90 422.95 933.50 564.56 916.37 648.34 1079.34 629.20
00006946 00000127 820.38 212.65 404.84 588.58 871.41 445.78 1047.97 422.72 933.75 564.26 917.35 647.39 1080.78 627.76
00006947 00000128 820.49 211.84 406.88 590.17 871.95 446.64 1048.86 422.27 934.19 562.86 918.07 648.29 1081.44 627.62
00006948 00000129 821.54 209.65 406.20 591.23 872.17 446.02 1050.72 420.80 935.91 562.37 918.63 648.36 1082.91 627.10
00006949 00000130 823.18 210.47 406.12 589.35 874.12 445.43 1051.42 420.68 936.93 561.83 921.18 647.21 1084.07 626.36
00006950 00000131 823.76 211.25 406.94 588.18 874.92 445.43 1051.17 420.20 936.83 561.04 922.48 646.60 1084.80 625.33
00006951 00000132 824.39 210.59 406.29 588.27 875.44 445.46 1051.69 420.28 937.29 560.83 922.50 646.30 1085.01 625.10
00006952 00000133 824.10 210.32 405.86 589.35 875.52 445.33 1051.63 420.44 937.33 560.78 922.19 646.29 1084.22 625.28
00006953 00000134 823.87 210.84 406.42 589.56 875.02 445.76 1051.32 420.37 937.07 560.72 921.37 647.46 1083.86 626.13
00006954 00000135 823.22 209.70 406.42 591.70 874.24 445.46 1051.25 420.14 936.72 561.03 920.39 648.00 1083.45 626.69
00006955 00000136 821.50 208.25 406.64 593.86 873.03 443.89 1050.97 420.02 936.38 561.35 918.48 647.41 1082.65 627.25
00006956 00000137 819.10 206.22 407.12 596.88 871.48 442.61 1049.76 420.24 935.23 562.19 917.01 646.21 1081.58 626.98
00006957 00000138 817.17 208.67 406.81 596.54 868.48 442.06 1048.13 420.44 933.57 562.85 914.31 647.54 1079.01 628.73
00006958 00000139 815.08 206.49 408.56 608.73 868.78 441.59 1048.03 420.64 932.91 562.00 914.71 652.69 1076.63 633.97
00006959 00000140 813.82 205.21 410.27 613.91 870.04 442.18 1045.78 419.44 930.91 559.50 920.14 658.43 1072.05 638.03
00006960 00000141 812.65 205.66 411.08 609.43 867.92 440.95 1045.40 419.64 930.58 560.92 916.53 657.46 1071.12 638.50
00006961 00000142 811.29 203.36 411.82 611.93 865.29 440.19 1044.53 419.12 929.59 561.28 913.11 656.21 1070.94 637.45
00006962 00000143 810.97 201.62 412.23 614.05 864.54 439.60 1043.52 418.49 928.47 560.39 912.25 656.19 1069.01 637.42
00006963 00000144 810.74 203.32 412.51 613.62 863.34 439.66 1040.60 419.07 925.15 560.59 911.24 655.35 1067.84 636.76
00006964 00000145 809.72 203.05 413.13 612.38 861.57 439.78 1039.34 419.41 923.81 561.91 909.12 654.92 1067.36 636.67
00006965 00000146 809.04 204.06 412.44 607.68 859.37 439.44 1037.92 418.60 922.97 561.85 907.50 653.58 1067.70 635.17
00006966 00000147 809.05 203.89 411.82 605.59 858.88 439.18 1037.31 418.12 922.66 560.99 907.05 652.10 1067.89 633.62
00006967 00000148 809.18 203.10 411.09 604.96 858.22 439.25 1036.96 417.72 922.94 561.21 906.33 651.51 1067.81 632.72
00006968 00000149 808.28 203.60 411.87 602.68 857.22 438.84 1036.70 416.68 922.85 560.76 906.26 650.83 1068.92 631.64
00006969 00000150 808.31 204.82 411.30 598.74 856.14 439.86 1036.03 416.81 922.56 561.45 905.04 650.87 1069.42 631.22
00006970 00000151 807.59 204.45 411.56 599.50 855.14 441.00 1035.31 416.90 922.47 562.20 904.91 651.17 1070.14 630.58
00006971 00000152 807.56 205.04 411.11 599.50 855.51 441.50 1036.11 417.52 923.70 563.09 904.60 651.46 1071.17 630.96
00006972 00000153 808.28 204.16 410.41 600.09 856.63 441.01 1038.17 418.35 926.01 564.76 904.41 650.76 1072.49 631.28
00006973 00000154 808.51 205.25 409.48 597.47 857.94 440.52 1041.11 419.86 928.94 566.87 905.24 650.23 1073.23 632.29
00006974 00000155 808.32 205.83 409.67 597.28 858.88 441.25 1042.39 421.32 930.43 567.50 906.75 649.87 1073.29 632.26
00006975 00000156 807.76 207.37 410.07 595.63 858.19 441.34 1041.97 422.17 929.02 568.19 906.58 649.88 1072.10 632.74
00006976 00000157 807.78 206.93 408.74 594.42 856.42 442.65 1040.30 422.37 927.46 568.78 905.26 651.56 1070.25 633.65
00006977 00000158 807.56 208.52 407.92 591.60 854.83 443.82 1039.62 423.39 926.75 568.94 903.53 652.39 1068.44 634.64
00006978 00000159 807.93 208.92 407.77 590.76 853.79 445.47 1037.86 424.51 925.06 569.06 902.70 652.88 1067.73 634.79
00006979 00000160 808.12 209.89 406.41 589.27 852.85 446.08 1037.06 424.47 924.25 569.01 901.65 653.06 1067.24 634.40
00006980 00000161 807.16 211.88 406.18 588.13 851.86 446.68 1035.87 424.70 922.96 568.29 900.57 652.68 1066.72 633.68
00006981 00000162 810.20 221.61 404.01 574.15 864.03 458.36 1030.72 433.41 920.78 563.60 908.04 655.00 1065.83 632.70
00006982 00000163 809.05 222.50 406.14 572.77 862.75 458.94 1030.26 433.30 920.65 563.84 907.49 654.79 1065.81 631.93
00006983 00000164 807.99 221.72 405.98 572.94 862.03 458.03 1029.31 432.84 920.22 564.64 907.28 654.10 1064.99 631.65
00006984 00000165 807.45 221.79 405.93 572.82 861.10 457.72 1028.29 432.07 919.42 564.47 906.77 654.06 1064.24 631.30
00006985 00000166 807.61 223.14 404.93 571.37 860.69 457.42 1027.52 431.59 918.89 564.52 906.25 653.96 1063.76 631.07
00006986 00000167 807.28 223.01 404.70 570.97 860.42 457.51 1026.93 431.61 918.77 564.63 906.40 653.80 1063.34 630.89
