Video ID: 	nJvIbtoSVWI
H: 	1080
W: 	1920
FPS: 	25.0

FRAME INDEX X0 Y0 W H [Landmarks (5 Points)]

00053956 00000000 433.62 141.61 528.03 779.43 580.83 466.55 836.55 461.26 724.24 634.19 613.22 748.42 810.35 744.40
00053957 00000001 422.81 151.36 531.39 762.71 574.99 459.03 832.65 457.08 723.04 634.90 609.64 743.75 807.57 741.96
00053958 DELETE   422.57 148.21 529.86 772.05 571.53 458.61 828.66 456.31 716.14 629.63 601.87 746.31 804.83 744.31
00053959 00000003 420.58 147.80 530.98 771.08 572.11 458.44 824.54 457.31 712.64 627.60 598.76 740.01 804.32 738.99
00053960 00000004 418.27 149.53 530.51 762.36 571.77 456.06 821.26 455.93 710.72 625.30 596.29 730.80 803.36 730.64
00053961 00000005 422.17 141.90 530.21 764.06 569.26 455.58 824.01 454.99 708.21 627.23 593.03 725.88 806.78 724.73
00053962 00000006 422.40 142.23 530.79 760.90 570.18 453.26 824.13 453.40 708.28 624.83 591.40 721.14 808.70 720.52
00053963 00000007 422.25 139.63 530.25 761.33 569.51 451.36 824.38 451.11 708.88 623.23 590.92 719.30 809.54 718.28
00053964 00000008 422.14 139.84 530.74 762.07 570.85 452.36 824.24 451.60 709.95 623.44 591.83 718.53 811.53 716.95
00053965 00000009 422.87 143.88 530.72 757.86 571.78 454.33 824.94 452.78 710.97 624.34 593.48 720.38 811.90 718.23
00053966 00000010 423.79 144.42 531.13 763.55 572.14 455.99 825.48 454.00 711.13 626.41 594.03 723.65 812.48 721.23
00053967 00000011 418.25 149.79 532.92 758.41 574.30 455.07 823.85 452.65 716.45 624.75 597.60 724.69 810.12 722.33
00053968 00000012 419.09 151.59 532.67 757.91 576.31 455.60 824.50 453.09 718.70 625.80 597.73 724.44 810.80 722.19
00053969 00000013 426.35 146.08 529.21 763.03 573.17 459.00 827.27 454.92 713.57 630.20 596.79 727.73 814.53 723.70
00053970 00000014 427.66 145.96 527.52 761.98 572.72 459.72 827.76 455.57 712.94 631.04 597.23 728.68 813.51 724.69
00053971 00000015 427.34 146.50 527.86 760.60 572.09 461.08 827.68 456.96 712.53 633.01 599.21 733.05 809.81 729.31
00053972 00000016 426.20 148.71 527.23 755.60 570.43 462.81 827.84 458.03 712.54 637.44 600.78 737.40 806.72 733.35
00053973 00000017 424.05 152.81 531.90 747.22 568.89 460.67 827.91 457.88 714.03 631.46 603.92 739.78 800.91 736.44
00053974 00000018 423.63 155.68 532.75 753.48 569.88 463.69 827.33 462.09 713.34 633.15 604.34 745.49 798.67 743.44
00053975 00000019 425.73 166.58 528.01 749.70 573.35 468.14 827.03 468.25 714.37 638.77 604.76 750.80 792.63 750.69
00053976 00000020 428.51 167.64 522.60 745.18 568.79 478.46 824.86 477.26 709.66 650.50 599.98 759.72 792.35 759.46
00053977 00000021 423.02 180.70 525.09 729.32 568.77 494.15 825.07 488.57 711.57 656.70 598.37 762.61 796.61 758.28
00053978 00000022 421.74 179.72 527.20 740.26 574.86 505.17 827.48 502.84 713.07 664.91 599.76 767.64 795.65 765.82
00053979 DELETE   421.29 180.44 531.37 757.17 576.47 506.05 826.56 503.67 713.54 668.19 601.86 772.35 797.90 770.45
00053980 DELETE   422.41 189.61 530.69 731.31 573.93 505.96 829.57 499.60 716.20 672.81 604.77 771.98 800.93 767.12
00053981 00000025 422.90 192.58 530.49 716.32 569.56 504.12 829.59 497.81 713.54 676.58 602.34 770.96 800.12 766.01
00053982 00000026 423.94 193.80 529.13 711.20 568.76 505.11 830.21 497.82 713.42 681.28 601.89 768.94 803.11 763.03
00053983 00000027 426.07 197.76 528.36 712.51 571.70 506.57 830.85 499.88 714.33 683.18 603.91 767.81 806.36 762.28
00053984 00000028 425.11 195.90 531.01 737.85 571.01 506.71 830.24 499.91 715.17 684.12 603.39 769.79 814.02 763.98
00053985 00000029 425.06 197.82 531.79 748.31 573.55 506.12 829.41 500.62 715.28 685.47 600.05 767.44 815.36 762.76
00053986 00000030 426.27 200.47 529.66 741.49 574.67 505.24 831.36 501.62 715.86 686.45 598.17 764.94 816.94 761.99
00053987 00000031 426.15 200.62 530.71 741.32 575.14 505.26 831.57 500.88 716.59 685.60 598.56 763.74 818.71 760.20
00053988 00000032 425.80 198.58 532.17 739.81 574.51 505.30 831.40 500.42 715.66 685.33 600.15 762.50 818.49 758.56
00053989 00000033 425.26 199.55 532.37 739.17 574.55 505.56 831.20 500.51 715.84 685.65 600.11 762.17 818.75 758.06
00053990 00000034 425.20 201.43 532.04 738.29 574.58 505.67 830.63 500.22 716.14 686.11 600.63 763.58 818.69 759.11
00053991 00000035 425.08 200.97 531.51 738.71 574.40 505.88 830.64 500.70 715.88 686.25 601.49 765.09 817.46 760.83
00053992 00000036 425.58 201.58 530.58 736.76 574.43 506.28 832.00 501.03 716.51 687.42 601.89 766.96 816.44 762.77
00053993 00000037 426.03 200.65 531.12 736.89 573.84 507.10 831.37 501.94 715.16 690.43 603.25 767.47 815.01 763.46
00053994 00000038 425.75 200.83 530.72 734.58 574.18 507.60 831.46 501.91 716.41 690.53 605.52 768.29 815.24 763.91
00053995 00000039 426.10 202.22 531.50 732.49 573.47 508.94 832.65 503.27 716.12 692.42 605.77 770.21 815.54 765.85
00053996 00000040 426.44 199.04 531.77 734.46 574.00 508.90 833.11 502.70 716.78 691.99 607.81 771.20 815.09 766.43
00053997 00000041 426.78 198.37 533.14 734.70 574.82 507.13 833.66 501.32 717.03 690.30 607.26 768.59 816.08 764.22
00053998 00000042 427.41 200.32 532.07 734.10 575.64 506.17 833.35 500.30 717.54 688.60 606.79 767.70 817.07 763.23
00053999 00000043 427.95 196.65 531.32 736.42 575.96 505.36 832.80 499.24 717.41 686.42 606.08 765.97 816.75 761.24
00054000 00000044 427.92 200.32 531.27 733.52 577.00 504.81 833.66 498.73 719.12 683.47 605.44 764.84 819.46 760.11
00054001 00000045 428.90 198.46 530.29 736.84 578.03 504.09 833.55 498.31 720.05 682.02 604.17 764.14 820.19 759.56
00054002 00000046 428.58 198.85 531.96 749.29 580.75 502.40 832.93 497.84 721.28 679.24 603.99 765.75 819.49 762.02
00054003 00000047 429.64 197.05 533.50 751.87 583.44 501.46 835.28 497.75 723.19 677.74 604.32 765.33 818.87 762.51
00054004 00000048 430.66 195.93 533.44 751.44 584.89 500.93 836.77 496.54 725.21 674.98 605.12 763.49 821.20 760.08
00054005 00000049 431.54 194.42 534.10 747.29 585.43 499.07 838.62 495.30 726.28 673.91 606.57 761.86 823.10 758.85
00054006 00000050 432.71 190.57 534.87 754.01 587.78 497.39 840.11 494.18 727.67 671.73 607.60 760.06 824.21 757.54
00054007 00000051 433.74 190.09 534.70 760.03 589.84 496.45 840.48 495.28 728.45 673.45 605.76 759.73 824.72 758.92
00054008 00000052 436.92 191.54 533.13 757.43 591.33 496.57 842.35 494.62 730.46 675.12 609.33 760.98 826.37 759.56
00054009 00000053 436.28 188.88 536.29 765.70 594.27 496.00 842.16 495.54 731.01 674.86 609.25 758.56 826.65 758.28
00054010 00000054 439.82 193.63 533.09 750.81 594.54 495.23 844.52 494.06 733.23 673.89 611.40 757.18 829.12 756.33
00054011 00000055 441.48 190.79 533.68 761.46 597.68 494.09 846.62 494.30 734.74 671.05 610.87 754.87 830.26 755.18
00054012 00000056 442.53 190.58 534.24 758.70 598.80 493.34 849.23 492.88 737.60 671.39 614.85 756.42 831.99 756.26
00054013 00000057 442.19 187.95 534.26 754.24 597.55 495.16 851.54 492.04 739.95 671.48 621.58 761.29 832.10 759.00
00054014 00000058 447.38 186.10 529.10 737.84 596.99 496.02 853.97 491.13 741.82 674.68 632.36 770.22 824.10 766.98
00054015 00000059 448.62 187.85 528.68 737.27 599.54 500.33 850.59 492.06 743.34 674.76 644.52 774.69 824.00 768.93
00054016 00000060 452.88 190.88 526.56 743.10 601.83 501.29 850.88 493.99 744.11 675.59 646.35 777.27 826.34 772.16
00054017 00000061 452.61 191.71 528.70 755.08 603.55 501.05 850.64 495.09 744.88 674.53 647.56 778.82 828.96 774.58
00054018 00000062 451.19 190.32 529.99 761.15 606.15 500.12 851.99 496.13 747.28 674.21 640.99 775.39 831.48 772.88
00054019 00000063 450.96 191.78 531.95 762.59 607.39 499.45 853.17 497.73 746.63 672.53 638.14 773.32 829.56 772.65
00054020 00000064 450.40 193.51 531.94 757.91 609.14 500.45 853.10 497.96 747.04 670.80 639.23 771.03 829.73 769.79
00054021 00000065 452.49 192.69 528.14 756.54 609.34 500.46 853.73 497.62 748.35 669.95 635.94 768.42 834.72 766.73
00054022 00000066 451.95 193.04 529.75 757.11 610.66 500.86 855.48 498.12 749.49 670.93 635.64 767.51 835.09 766.03
00054023 00000067 452.66 193.52 529.46 757.37 611.58 500.55 855.79 499.52 749.52 671.44 633.47 766.45 835.46 766.29
00054024 00000068 453.61 192.97 528.38 755.98 612.06 500.26 856.60 499.72 749.94 670.82 633.90 765.92 834.52 766.22
00054025 00000069 452.90 195.86 529.93 752.84 612.41 500.15 858.07 500.02 750.42 672.99 633.10 766.64 834.88 767.38
00054026 00000070 452.75 197.81 532.12 751.40 612.86 501.68 858.56 500.31 751.04 673.62 634.34 767.08 836.65 766.75
00054027 00000071 452.31 196.47 533.17 752.16 612.97 502.12 858.92 500.42 751.32 673.49 634.84 766.57 837.15 765.92
00054028 00000072 452.53 196.47 532.75 751.74 613.68 501.87 859.50 501.27 751.52 673.77 633.47 764.95 837.19 765.19
00054029 00000073 452.99 198.09 532.86 752.61 613.46 502.36 859.89 501.63 751.62 676.31 632.21 765.88 839.51 765.95
00054030 00000074 453.55 197.36 532.04 753.83 614.34 502.98 860.52 501.92 753.05 676.47 633.15 766.48 840.66 766.22
00054031 00000075 454.03 197.10 531.51 756.18 614.56 504.72 860.61 502.42 754.19 678.05 634.56 769.62 841.09 768.34
00054032 00000076 453.76 197.59 532.18 755.41 614.78 505.06 860.78 502.67 754.36 677.08 634.81 769.48 840.67 768.22
00054033 00000077 454.45 197.68 532.23 759.17 616.64 504.61 860.85 502.07 756.54 677.59 637.44 770.89 841.51 769.47
00054034 00000078 454.36 200.41 532.98 762.51 619.21 505.71 861.39 502.96 759.10 678.52 639.87 773.78 844.88 772.03
00054035 00000079 455.81 203.41 533.60 766.63 619.22 507.90 863.01 504.35 759.70 684.54 641.06 782.58 845.11 780.27
00054036 00000080 459.07 206.27 534.48 767.69 620.05 511.97 865.43 506.53 762.26 690.71 649.44 792.85 848.43 789.12
00054037 00000081 459.36 215.30 534.86 759.11 621.71 519.16 867.27 512.12 764.64 696.92 650.80 798.55 849.26 793.61
00054038 00000082 458.47 226.92 537.55 746.97 623.45 529.00 872.92 522.85 768.20 708.90 650.61 803.93 851.49 799.81
00054039 00000083 460.53 240.72 537.72 739.69 624.05 540.16 873.84 534.65 768.24 722.41 647.01 809.29 852.91 805.10
00054040 00000084 454.85 248.63 543.25 758.79 627.80 550.04 871.43 549.73 770.13 729.70 642.99 813.86 850.77 814.26
00054041 00000085 456.10 263.63 541.89 746.15 630.00 559.63 873.47 559.78 773.22 733.32 641.20 817.62 855.50 818.07
00054042 00000086 455.62 261.97 545.31 742.38 631.95 560.10 876.19 558.55 778.60 730.80 642.87 815.07 861.71 813.55
00054043 00000087 454.43 249.90 544.74 741.63 633.80 552.84 877.24 551.54 778.82 726.06 647.77 804.72 859.63 803.22
00054044 00000088 457.24 244.48 542.82 741.87 634.86 542.13 878.91 541.60 780.09 716.01 653.80 802.38 859.02 801.45
00054045 00000089 458.97 237.95 541.58 745.70 636.69 535.45 880.37 535.21 781.15 714.35 656.86 799.01 857.92 798.33
00054046 00000090 456.85 241.81 543.69 750.48 636.23 537.11 879.93 538.08 781.02 716.33 651.97 799.39 859.54 799.71
00054047 00000091 455.55 250.99 542.41 745.83 635.08 546.33 877.46 546.62 780.19 721.21 646.04 803.23 860.18 803.22
00054048 DELETE   453.65 253.41 546.72 743.77 635.95 570.51 880.35 569.38 781.42 720.97 645.71 810.53 861.74 809.06
00054049 DELETE   451.28 253.33 549.15 740.25 634.75 566.77 881.89 564.49 782.23 721.43 647.24 809.18 861.63 806.97
00054050 00000094 453.35 248.71 544.52 732.50 632.42 555.61 877.63 552.34 779.34 719.98 651.25 802.99 858.07 799.95
00054051 00000095 463.79 241.36 535.03 730.57 630.35 548.54 876.15 538.44 774.78 718.22 658.84 803.87 859.79 795.74
00054052 00000096 462.71 237.29 535.52 732.38 627.81 540.82 876.45 528.50 775.40 713.47 660.91 801.44 862.78 791.78
00054053 00000097 464.07 237.46 534.43 732.44 627.94 537.59 876.25 527.69 774.36 712.31 658.45 798.72 862.41 791.31
00054054 00000098 460.83 236.57 537.97 736.64 627.65 538.50 876.43 529.22 774.40 715.98 655.50 798.80 862.43 791.89
00054055 00000099 461.02 237.47 538.58 740.81 628.53 539.82 876.68 531.67 773.69 716.72 653.81 799.81 860.77 793.77
00054056 00000100 460.36 237.33 538.23 736.92 626.43 540.39 875.93 530.70 772.67 717.21 654.29 800.45 860.96 793.04
00054057 00000101 461.37 237.70 536.08 734.15 626.18 539.32 875.34 527.85 773.12 715.75 657.98 800.79 862.00 791.81
00054058 00000102 460.86 235.06 536.56 737.64 626.69 538.00 874.54 525.65 773.59 712.22 660.31 800.51 861.84 790.76
00054059 00000103 459.81 233.82 537.66 740.56 625.87 535.83 874.21 523.82 772.88 709.87 660.06 799.11 862.91 789.62
00054060 00000104 458.39 233.05 539.23 741.89 626.11 535.15 875.34 522.51 774.17 710.47 660.13 799.63 862.49 789.67
00054061 00000105 457.59 233.47 539.30 741.99 626.67 535.20 874.80 522.67 774.14 708.98 659.87 798.27 861.78 788.52
00054062 00000106 459.71 233.38 537.29 729.53 625.49 535.41 875.87 523.98 771.81 711.69 653.03 791.99 861.02 783.61
00054063 00000107 460.08 233.07 535.40 726.68 625.01 534.62 874.93 524.76 770.28 712.31 650.08 789.79 859.58 782.73
00054064 00000108 460.99 235.64 535.07 725.46 624.14 534.09 875.94 524.44 769.97 711.98 648.02 790.41 859.50 783.55
00054065 00000109 460.88 234.01 534.57 728.37 624.56 534.41 875.13 525.23 769.84 712.14 647.70 790.33 859.55 783.84
00054066 00000110 461.38 234.07 534.05 729.05 625.44 533.92 874.31 525.44 769.62 711.09 647.79 789.64 858.64 783.70
00054067 00000111 461.66 235.08 533.92 729.88 625.48 533.62 874.35 525.08 769.75 710.60 648.00 789.86 859.27 783.83
00054068 00000112 461.31 232.63 534.67 731.36 624.88 533.57 875.32 524.51 770.65 711.28 648.95 790.77 860.48 784.39
00054069 00000113 460.03 230.66 536.94 734.17 625.10 533.72 875.87 524.42 770.89 711.63 649.13 790.82 860.83 784.29
00054070 00000114 461.69 231.90 535.12 732.54 624.75 533.17 876.08 523.85 770.48 710.98 648.97 790.67 861.48 784.16
00054071 00000115 462.06 229.74 534.61 734.21 624.97 532.75 875.83 523.17 770.68 709.61 650.02 790.78 861.68 783.98
00054072 00000116 461.80 229.61 534.25 735.56 625.32 531.77 875.80 522.92 770.87 709.19 649.55 790.32 861.02 784.16
00054073 00000117 461.79 230.80 534.70 733.08 625.54 531.41 875.77 522.81 770.71 708.61 649.53 789.97 859.88 784.03
00054074 00000118 461.83 228.25 535.07 739.09 625.06 530.24 874.98 522.01 770.18 705.97 650.26 791.56 860.18 785.68
00054075 00000119 461.64 228.95 535.10 740.13 625.14 530.55 874.65 521.75 770.34 705.91 651.38 792.29 860.43 785.88
00054076 00000120 460.96 228.75 535.26 741.07 625.10 530.52 874.57 521.68 770.41 705.63 651.03 792.51 859.78 786.05
00054077 00000121 461.13 229.14 535.17 739.64 624.62 530.30 874.22 521.23 770.04 705.89 650.92 791.82 860.37 785.18
00054078 00000122 460.53 226.55 537.32 744.62 625.04 530.03 874.14 521.08 770.21 705.44 651.10 791.83 860.53 785.17
00054079 00000123 461.09 226.85 536.77 744.54 624.71 528.32 873.71 519.62 769.70 703.25 651.45 791.92 860.06 785.46
00054080 00000124 461.10 227.49 537.03 741.72 624.71 528.78 874.51 519.81 770.23 704.36 651.40 792.02 860.16 785.38
00054081 00000125 460.53 227.39 538.86 744.64 624.88 528.37 874.17 520.15 769.61 703.49 650.50 791.79 859.63 785.73
00054082 00000126 460.95 224.92 537.86 745.53 624.68 527.45 874.57 519.39 769.65 703.16 650.88 791.65 859.89 785.80
00054083 00000127 461.05 224.51 536.88 750.85 625.80 526.94 875.07 519.89 770.32 702.53 649.08 791.28 859.73 786.24
00054084 00000128 460.76 225.67 537.62 750.82 626.53 527.15 874.90 520.19 770.32 702.76 649.26 791.26 859.00 786.32
00054085 00000129 460.84 226.01 537.09 750.03 626.93 527.88 875.26 521.24 770.46 702.89 648.94 791.20 858.72 786.54
00054086 00000130 461.78 226.48 537.15 746.64 626.87 528.48 875.90 521.95 770.88 702.39 648.95 790.77 859.56 786.19
00054087 00000131 461.20 221.99 538.65 749.60 627.72 528.87 876.36 521.83 771.56 702.86 649.05 789.44 860.12 784.45
00054088 00000132 460.58 221.75 539.08 749.84 628.41 528.72 876.88 522.00 772.76 702.79 649.67 788.88 860.76 784.11
00054089 00000133 462.65 222.75 537.83 750.94 629.21 527.78 877.20 521.64 772.59 701.78 649.52 788.82 860.66 784.54
00054090 00000134 462.19 218.59 539.23 755.53 630.21 526.98 878.22 520.92 773.88 699.80 651.69 788.68 861.69 784.46
00054091 00000135 465.46 218.77 537.65 750.84 636.12 538.27 883.20 534.08 776.51 698.99 650.25 785.17 863.60 782.63
00054092 00000136 465.94 217.38 537.12 748.58 636.29 535.37 884.30 529.87 778.28 694.22 654.64 787.05 862.59 783.54
00054093 00000137 466.48 212.20 534.20 743.28 633.18 530.03 882.34 521.80 777.63 690.91 658.51 786.90 861.83 781.08
00054094 00000138 466.10 209.17 534.77 749.18 632.82 525.53 881.53 517.10 777.80 688.87 660.73 787.82 861.84 781.77
00054095 00000139 466.51 210.97 535.04 748.30 632.66 524.14 881.66 515.80 778.09 689.46 661.19 788.39 862.37 782.46
00054096 00000140 467.07 212.94 535.00 741.84 631.52 522.72 881.55 513.88 777.49 688.89 661.53 788.12 861.93 781.83
00054097 00000141 464.54 209.36 538.58 747.57 631.50 521.59 881.86 513.38 777.75 689.09 660.56 787.31 861.32 781.42
00054098 00000142 464.83 208.18 538.25 751.05 632.21 520.14 881.37 512.25 777.91 688.00 660.80 785.93 862.32 780.27
00054099 00000143 464.41 207.54 539.22 756.89 632.76 518.69 881.00 511.79 777.61 686.09 659.69 785.61 861.81 780.75
00054100 00000144 463.85 209.87 538.49 759.65 632.37 518.53 880.17 511.57 777.14 687.28 659.26 787.53 861.10 782.76
00054101 00000145 462.76 206.48 540.21 763.95 633.37 518.85 880.52 511.93 778.01 688.56 660.78 788.20 861.17 783.35
00054102 00000146 463.73 207.86 539.40 763.16 634.07 518.73 880.94 512.20 778.17 687.97 660.57 787.62 861.18 783.11
00054103 00000147 463.96 208.83 538.89 754.68 633.01 518.81 880.37 511.23 777.79 688.61 662.42 787.32 860.53 781.87
00054104 00000148 463.96 206.71 538.88 752.76 632.86 519.37 880.64 511.15 778.01 687.76 662.98 787.06 860.16 780.98
00054105 00000149 463.67 208.72 539.23 756.02 632.57 518.60 879.69 510.89 777.75 687.42 662.46 788.06 860.43 782.44
00054106 00000150 463.25 208.85 539.02 758.87 632.33 518.19 880.00 511.61 777.57 687.17 660.45 788.31 860.34 783.61
00054107 00000151 463.45 210.33 537.60 763.18 632.39 517.51 878.38 512.16 776.25 686.04 659.98 791.47 857.07 787.91
00054108 00000152 463.82 212.68 535.31 762.00 631.41 517.92 877.38 513.07 775.73 686.65 656.13 790.61 857.08 787.45
00054109 00000153 464.43 210.62 535.48 761.47 631.26 518.07 877.65 513.53 775.34 687.51 654.06 787.64 858.58 784.63
00054110 00000154 464.18 213.32 535.32 752.80 630.07 518.19 878.24 513.16 775.43 687.06 653.20 784.67 860.79 781.17
00054111 00000155 462.92 207.69 537.42 754.60 629.39 517.91 877.56 512.46 774.39 686.95 653.95 782.78 860.60 778.85
00054112 00000156 462.90 209.06 536.55 752.80 629.39 517.14 878.08 512.01 775.30 686.35 653.79 782.54 860.96 778.86
00054113 00000157 461.55 206.37 539.16 762.44 631.00 516.35 878.35 512.52 775.40 684.73 654.04 784.06 859.06 781.45
00054114 00000158 460.23 201.02 541.13 788.82 637.39 522.24 878.96 520.98 777.47 681.85 656.83 790.13 855.83 789.63
00054115 00000159 463.28 199.41 537.37 794.57 638.62 525.34 879.66 524.15 779.55 678.51 661.57 796.76 855.42 796.41
00054116 00000160 463.11 200.17 536.42 792.15 635.36 521.15 876.90 518.04 779.69 676.97 669.44 807.09 850.52 805.51
00054117 00000161 464.40 201.59 534.46 785.62 635.41 518.96 874.97 515.15 778.87 675.89 675.00 810.29 846.54 808.25
00054118 00000162 463.42 199.59 534.66 791.66 637.16 516.71 874.18 513.42 779.41 672.79 675.41 809.40 844.84 807.75
00054119 00000163 466.02 200.08 533.58 783.07 635.20 516.26 875.21 512.25 778.49 676.37 675.87 808.95 846.20 806.71
00054120 00000164 468.05 210.40 532.01 767.15 631.08 519.25 875.59 514.68 774.52 685.61 671.24 810.53 847.23 807.91
00054121 00000165 470.33 220.68 526.00 757.94 630.01 525.75 877.80 522.37 774.50 695.66 668.48 818.45 846.24 816.95
00054122 00000166 466.69 224.50 529.71 758.13 633.10 532.08 884.18 530.04 784.52 706.39 670.70 823.41 848.19 821.24
00054123 00000167 475.37 233.71 527.07 741.54 637.08 543.80 884.42 537.61 783.12 712.55 673.89 826.16 852.18 822.19
00054124 DELETE   479.73 228.33 522.57 736.14 642.40 546.37 890.06 538.43 789.58 706.53 674.68 817.01 859.69 811.45
00054125 00000169 478.46 215.48 530.86 747.92 651.64 534.23 895.53 523.62 800.72 693.18 684.39 804.64 869.18 797.03
00054126 00000170 478.67 211.24 528.85 744.94 659.68 519.70 901.32 506.19 812.97 679.88 693.09 791.94 879.29 781.39
