Video ID: 	VQ8LPUql1Sc
H: 	1080
W: 	1920
FPS: 	25.0

FRAME INDEX X0 Y0 W H [Landmarks (5 Points)]

00009101 00000000 576.81 104.85 403.18 568.97 687.74 360.13 867.29 344.60 790.92 452.64 712.44 532.03 880.74 519.53
00009102 00000001 579.18 105.74 404.59 561.93 693.26 356.65 874.07 340.85 797.62 449.87 716.95 528.56 886.60 516.40
00009103 00000002 584.06 110.05 401.96 554.70 700.12 354.80 879.72 341.61 803.57 447.45 721.75 525.59 889.28 516.14
00009104 00000003 586.98 106.51 402.22 555.60 706.44 353.75 887.99 343.37 811.69 447.52 725.67 524.40 894.07 517.32
00009105 00000004 588.09 107.23 403.13 554.68 709.78 354.91 892.94 345.42 817.56 447.86 728.83 524.99 898.35 518.59
00009106 00000005 588.15 106.87 403.03 556.83 710.27 355.77 892.55 346.64 818.12 449.18 729.36 525.82 898.34 519.74
00009107 00000006 586.89 105.16 403.86 558.92 707.40 355.68 889.51 346.67 812.65 450.07 724.49 525.17 895.12 519.19
00009108 00000007 585.12 104.85 402.94 557.06 702.93 355.21 886.04 344.74 806.98 447.96 720.99 523.88 892.76 516.66
00009109 00000008 582.72 107.44 404.62 554.89 699.17 353.10 881.22 340.45 803.14 444.19 718.70 522.04 890.60 512.86
00009110 00000009 582.30 101.84 405.86 558.19 698.29 349.60 879.81 337.48 801.53 441.82 718.32 520.26 889.55 511.35
00009111 00000010 583.07 106.29 404.92 553.75 699.98 348.45 881.11 337.37 802.67 440.27 718.41 518.38 889.95 510.50
00009112 00000011 585.01 100.80 405.10 557.61 701.96 348.98 883.16 338.47 804.71 441.06 721.17 518.58 892.33 511.04
00009113 00000012 586.96 104.24 403.67 553.31 704.27 349.52 885.20 338.92 807.41 441.40 723.29 518.86 893.32 511.46
00009114 00000013 587.14 104.11 403.75 552.99 704.32 350.09 885.95 338.48 808.68 441.71 723.94 519.41 894.32 511.27
00009115 00000014 587.18 103.15 405.07 552.02 703.69 348.66 886.21 337.85 807.53 439.08 723.61 518.55 893.72 511.01
00009116 00000015 587.75 103.18 405.31 550.33 705.31 346.81 887.16 337.06 808.88 436.01 723.72 515.69 893.70 509.02
00009117 00000016 590.70 106.47 403.11 543.27 710.22 346.14 892.82 336.99 816.18 432.04 727.75 512.68 899.23 506.44
00009118 DELETE   596.01 116.52 403.56 537.66 723.20 343.26 904.61 335.85 834.21 432.46 738.03 510.41 907.83 505.65
00009119 DELETE   603.60 113.06 400.63 534.60 741.02 344.49 923.25 337.76 853.78 429.49 761.03 513.47 922.94 509.05
00009120 00000019 616.52 106.15 399.57 543.72 758.08 340.03 941.24 335.14 877.09 428.25 776.95 512.76 938.80 509.89
00009121 DELETE   621.57 103.21 396.67 548.72 766.72 338.08 948.74 334.68 889.51 424.57 787.90 513.58 947.27 511.57
00009122 00000021 625.36 103.43 397.72 550.98 773.11 337.84 952.48 335.77 895.78 424.75 795.32 514.93 951.64 513.99
00009123 00000022 626.19 101.53 399.36 557.01 775.34 337.73 951.61 334.50 896.64 425.71 799.02 517.68 951.47 515.68
00009124 00000023 626.01 99.01 401.01 563.90 777.49 336.48 951.85 334.20 897.55 424.55 801.30 519.76 951.79 518.06
00009125 00000024 627.26 101.21 401.31 559.62 777.69 335.24 950.74 331.65 897.70 423.67 806.09 521.43 951.56 518.46
00009126 00000025 628.08 98.76 400.33 554.53 775.79 337.26 950.18 331.27 898.28 422.65 813.74 523.48 954.57 518.28
00009127 00000026 628.43 97.36 400.50 557.67 776.31 337.48 950.91 331.46 899.10 423.89 814.18 524.26 955.39 518.87
00009128 00000027 629.58 98.34 399.03 559.73 779.65 338.42 950.52 331.63 900.67 426.10 818.62 528.97 953.72 522.77
00009129 00000028 631.72 100.55 395.41 560.62 781.20 339.69 950.12 331.72 902.23 427.81 820.00 530.66 954.50 523.61
00009130 00000029 631.85 98.07 395.10 562.07 783.92 338.03 951.81 331.61 904.41 425.91 823.10 530.88 954.53 525.07
00009131 00000030 630.16 95.11 395.95 564.30 783.25 335.27 951.69 329.70 904.76 422.90 824.52 531.81 954.47 526.71
00009132 00000031 629.92 97.41 395.70 562.98 779.34 335.86 951.24 330.39 902.67 422.25 818.21 530.23 954.74 525.61
00009133 00000032 631.22 100.20 393.75 562.34 776.34 337.50 949.36 331.58 898.77 425.76 815.03 531.57 954.14 526.68
00009134 00000033 627.88 98.02 396.46 561.08 774.73 340.95 950.65 335.00 898.94 430.77 817.63 533.72 955.88 528.54
00009135 00000034 630.92 101.62 393.07 555.98 774.61 343.11 953.82 336.03 901.98 434.13 815.52 533.52 958.22 527.55
00009136 00000035 627.46 102.67 395.19 555.76 774.40 344.76 953.22 337.03 902.46 436.52 815.02 534.23 957.46 527.68
00009137 00000036 624.69 100.00 396.68 560.28 773.63 346.12 948.33 336.25 899.66 440.90 816.76 537.24 953.99 528.69
00009138 00000037 622.99 99.44 397.12 564.53 772.30 346.85 944.08 335.59 895.62 444.34 816.91 540.34 951.01 530.60
00009139 00000038 620.67 103.09 396.87 566.58 772.39 348.61 940.08 335.36 892.79 448.43 814.74 542.44 946.91 531.12
00009140 00000039 617.49 101.13 398.80 570.55 769.01 349.74 937.86 335.96 890.50 449.17 811.49 543.07 945.90 531.38
00009141 00000040 616.90 104.81 398.39 566.47 766.79 351.69 936.70 337.95 888.71 449.90 809.38 543.64 944.29 532.11
00009142 00000041 614.76 103.29 398.29 571.07 763.98 353.62 934.25 338.11 886.73 451.69 805.94 544.96 943.12 531.86
00009143 00000042 614.65 103.28 398.41 571.52 762.68 354.25 933.96 338.34 885.96 451.22 805.20 545.02 943.41 531.69
00009144 00000043 613.88 105.62 397.63 566.14 762.53 353.11 932.34 338.18 883.52 451.26 804.32 544.06 939.42 531.89
00009145 00000044 612.75 104.61 398.77 568.96 762.18 352.59 931.78 338.58 882.81 451.03 802.56 544.16 937.53 532.89
00009146 00000045 612.38 104.17 398.63 570.15 762.27 351.85 932.39 338.50 883.29 450.82 801.70 544.55 937.11 533.90
00009147 00000046 612.12 104.49 398.87 570.02 761.69 351.97 932.53 337.81 883.73 450.89 802.30 545.12 938.32 533.75
00009148 00000047 612.90 104.03 398.75 568.50 761.64 352.34 932.89 338.51 883.41 449.74 802.88 543.98 938.89 532.82
00009149 00000048 614.32 105.19 397.94 560.92 762.57 354.04 935.30 338.73 885.77 450.34 806.49 543.87 942.05 531.26
00009150 00000049 615.51 105.76 399.29 560.38 764.73 353.82 937.19 338.20 888.56 452.17 811.86 547.62 944.21 534.71
00009151 00000050 615.61 105.70 398.93 563.30 767.34 353.68 937.99 339.82 890.60 454.88 812.00 548.63 943.05 537.01
00009152 00000051 615.93 106.42 400.60 563.49 768.67 354.95 939.13 341.12 891.07 456.26 812.40 549.36 943.15 537.75
00009153 00000052 616.65 106.32 400.26 564.70 769.44 354.41 939.64 341.44 891.46 456.55 811.59 549.16 943.02 538.38
00009154 00000053 616.02 106.32 400.50 566.63 769.42 354.38 939.23 341.62 891.22 457.49 810.97 549.59 942.24 538.96
00009155 00000054 614.70 101.25 400.66 574.08 771.02 356.26 937.68 344.36 890.76 458.83 809.99 549.92 939.15 539.90
00009156 00000055 614.24 97.13 401.49 584.08 772.05 360.59 939.49 347.35 892.01 464.52 809.41 556.30 938.25 545.07
00009157 00000056 616.35 107.90 399.22 583.90 776.17 369.64 941.02 355.91 896.35 473.20 807.85 562.45 939.99 550.90
00009158 00000057 616.05 110.25 399.73 586.85 777.68 373.98 943.49 359.78 899.68 477.59 807.02 565.15 942.93 553.07
00009159 00000058 616.15 109.08 400.29 587.12 779.85 370.97 944.38 356.62 901.25 474.92 810.29 564.55 943.84 552.35
00009160 00000059 615.46 100.34 401.44 587.56 777.49 363.17 942.22 350.91 897.92 466.30 809.85 557.08 942.94 546.58
00009161 00000060 615.45 96.40 400.18 587.45 774.22 357.20 941.80 345.34 896.35 460.66 808.09 552.53 943.91 542.35
00009162 00000061 615.71 98.02 399.71 583.08 774.03 354.71 941.40 343.75 895.72 457.95 807.61 549.70 942.76 540.44
00009163 00000062 616.53 97.43 399.13 584.13 775.05 354.45 940.34 344.41 894.57 457.25 808.46 548.66 941.27 540.13
00009164 00000063 618.07 98.24 399.13 579.71 776.19 359.71 943.71 346.76 897.44 459.71 811.76 550.29 946.17 539.18
00009165 00000064 618.51 100.20 397.79 578.45 778.73 364.87 944.66 348.86 902.03 464.87 818.35 555.90 949.44 541.92
00009166 00000065 617.20 106.29 398.25 578.63 782.93 371.01 946.14 354.79 906.18 473.09 819.09 563.63 947.88 549.61
00009167 00000066 618.50 109.97 398.40 597.34 786.94 374.17 946.50 361.61 908.68 475.21 815.30 570.33 946.31 559.09
00009168 00000067 619.73 108.55 398.08 603.45 786.76 372.39 948.22 360.76 909.95 474.95 813.33 571.34 947.76 560.67
00009169 00000068 617.29 106.13 398.63 594.19 786.58 369.88 944.48 354.45 909.68 471.78 818.76 566.01 948.47 552.56
00009170 00000069 621.26 104.78 393.09 573.13 784.57 362.42 943.28 344.75 905.87 462.48 826.67 555.83 948.93 540.75
00009171 00000070 622.18 106.06 391.88 563.79 784.04 360.56 944.02 341.29 906.17 459.16 829.34 552.32 949.61 535.89
00009172 00000071 622.35 104.63 391.53 573.55 787.43 364.54 944.10 344.60 908.90 466.12 831.56 558.23 950.83 541.06
00009173 00000072 622.00 102.56 395.95 591.18 792.51 373.46 947.68 354.02 914.14 474.05 832.93 570.11 953.52 552.91
00009174 00000073 628.85 111.63 391.66 594.08 798.52 382.35 952.88 364.63 919.85 480.93 832.75 576.08 958.80 559.80
00009175 00000074 632.13 111.51 390.88 595.67 800.29 385.74 954.31 367.39 920.51 483.71 832.57 577.58 960.21 560.62
00009176 00000075 632.28 111.28 393.68 594.18 799.03 381.61 957.26 365.91 919.40 479.14 827.48 571.74 960.15 557.00
00009177 00000076 629.45 107.16 396.20 588.84 795.28 374.56 957.76 359.45 918.03 473.74 826.64 564.92 961.86 551.05
00009178 00000077 629.34 104.34 395.67 584.56 793.20 369.32 958.25 355.53 917.17 469.63 821.86 557.18 962.08 544.93
00009179 00000078 630.01 101.32 395.42 585.31 790.15 365.47 956.62 353.17 913.50 467.40 819.23 554.58 960.32 543.66
00009180 00000079 628.76 102.06 394.80 581.54 787.68 365.38 955.93 352.05 912.20 467.02 816.07 551.92 960.43 540.47
00009181 00000080 627.20 104.28 394.56 580.55 786.02 366.23 955.08 351.97 911.74 467.13 813.31 551.79 959.85 539.69
00009182 00000081 622.11 103.58 398.37 582.62 784.46 367.17 953.92 353.06 911.10 468.96 809.97 551.97 958.17 539.97
00009183 00000082 618.75 101.43 399.49 582.29 782.06 367.84 950.29 351.37 908.99 468.89 808.97 551.25 955.91 537.37
00009184 00000083 619.33 103.29 397.86 576.05 778.46 364.66 948.02 350.29 903.78 464.68 802.86 545.48 951.19 533.70
00009185 00000084 617.08 105.37 397.68 570.07 774.26 361.85 944.66 346.26 899.76 461.95 796.75 539.05 949.28 526.83
00009186 00000085 615.02 106.27 398.58 567.15 770.55 361.98 942.22 344.57 896.90 461.54 792.36 536.67 949.51 523.16
00009187 00000086 613.67 108.49 398.66 566.61 769.44 363.87 940.76 345.44 895.06 465.04 791.05 539.18 946.26 524.97
00009188 00000087 613.99 107.03 398.70 573.16 770.07 366.46 940.61 348.82 895.02 469.79 790.48 542.91 945.78 529.12
00009189 00000088 612.50 109.59 399.74 569.26 768.13 369.80 939.55 350.81 893.65 470.59 792.01 544.90 946.56 529.74
00009190 00000089 613.02 110.66 399.84 569.73 770.10 369.64 939.35 350.16 894.10 471.46 793.40 545.77 945.24 530.31
00009191 00000090 613.95 108.31 398.45 570.39 771.69 366.83 938.24 348.12 894.23 468.45 799.77 547.97 942.50 532.86
00009192 00000091 613.99 106.06 398.39 572.62 772.16 365.11 937.22 346.33 894.33 465.90 805.24 549.74 943.04 534.09
00009193 00000092 614.98 106.60 398.64 574.50 775.26 366.00 937.68 347.05 896.95 467.00 809.71 551.37 943.88 535.32
00009194 00000093 614.43 106.23 399.16 576.50 776.20 367.14 938.16 349.31 897.94 468.78 813.98 555.70 942.76 540.36
00009195 00000094 615.93 108.72 397.47 578.81 779.66 368.30 938.37 352.02 898.22 472.66 816.96 561.96 938.47 548.20
00009196 00000095 616.15 113.29 398.65 583.87 780.91 371.78 939.09 355.58 899.46 475.99 814.73 565.56 938.86 551.76
00009197 00000096 616.65 111.90 399.89 588.19 783.08 372.55 941.09 356.21 902.06 475.70 818.13 567.33 941.59 553.11
00009198 00000097 618.26 111.93 399.46 584.77 784.06 370.44 942.83 354.50 903.07 474.33 819.57 565.52 942.97 551.70
00009199 00000098 619.06 106.73 399.99 585.66 781.34 365.16 945.59 349.93 903.00 470.05 816.86 561.11 946.49 547.84
00009200 00000099 620.72 107.06 399.12 581.23 781.06 364.34 945.77 349.60 902.42 468.58 819.12 559.80 947.74 546.83
00009201 00000100 620.09 103.97 400.89 586.36 780.34 364.54 946.19 350.17 901.38 468.37 816.75 560.66 947.01 548.10
00009202 00000101 616.30 103.31 403.10 584.12 773.62 368.49 944.55 353.87 896.99 469.58 811.43 561.19 946.91 548.17
00009203 00000102 615.21 100.65 403.43 585.17 770.70 370.42 939.05 354.78 889.98 470.88 807.93 560.04 940.45 546.46
00009204 00000103 613.86 100.92 404.97 582.27 768.59 366.95 934.73 354.08 883.85 468.38 804.05 555.61 934.22 544.46
CROP_BBOX: 364 0 1238 844
