Video ID: 	s-OK0JBfWok
H: 	1080
W: 	1920
FPS: 	25.0

FRAME INDEX X0 Y0 W H [Landmarks (5 Points)]

00000268 00000000 921.01 140.85 386.07 586.12 993.53 362.63 1160.77 354.27 1062.41 468.36 1032.06 578.36 1164.78 570.74
00000269 00000001 922.27 139.28 384.30 582.22 993.20 358.48 1159.04 351.69 1060.48 466.05 1029.70 574.63 1160.19 568.47
00000270 00000002 924.55 134.60 383.95 578.75 995.09 357.07 1161.56 350.88 1062.59 464.56 1030.17 572.56 1159.78 567.05
00000271 00000003 928.62 129.99 383.62 574.59 997.06 357.37 1166.24 351.46 1065.34 465.75 1030.80 569.78 1165.99 565.04
00000272 DELETE   932.59 128.52 383.04 575.30 999.49 356.38 1168.85 350.03 1066.44 462.83 1032.15 567.40 1168.39 562.53
00000273 00000005 937.26 130.62 382.00 579.61 1005.94 352.83 1167.93 345.61 1068.28 455.06 1039.48 561.37 1167.33 555.49
00000274 00000006 941.98 130.60 379.54 582.48 1008.63 353.54 1170.21 343.76 1069.29 452.02 1042.50 560.44 1172.84 552.55
00000275 00000007 945.52 130.22 379.63 581.13 1010.66 353.49 1174.02 342.23 1071.34 449.95 1042.82 559.45 1176.77 550.58
00000276 00000008 946.55 127.70 381.00 581.76 1011.34 353.18 1176.53 341.30 1073.22 449.32 1043.15 558.88 1178.76 549.78
00000277 00000009 948.45 126.70 380.22 581.60 1012.58 353.31 1178.24 341.16 1074.36 449.03 1043.69 559.00 1179.55 549.85
00000278 00000010 949.21 126.41 379.82 583.17 1012.63 354.33 1178.79 342.41 1073.71 449.82 1042.07 559.71 1179.53 550.79
00000279 00000011 948.72 128.76 379.91 581.58 1012.27 354.99 1177.31 344.36 1071.70 450.71 1040.26 560.13 1177.43 552.09
00000280 00000012 947.96 129.22 379.48 580.32 1011.38 355.25 1176.00 345.17 1070.40 451.47 1039.44 560.27 1175.61 552.73
00000281 00000013 947.19 129.50 379.27 579.78 1009.93 355.11 1173.79 345.49 1067.85 452.03 1038.75 561.15 1172.77 553.98
00000282 00000014 945.80 129.12 379.69 578.58 1008.65 355.29 1171.69 346.52 1066.04 451.57 1037.46 560.92 1169.79 554.34
00000283 00000015 943.56 129.16 379.63 576.85 1007.10 355.07 1170.29 346.97 1065.88 452.51 1036.77 560.54 1168.06 554.48
00000284 00000016 941.44 128.89 381.15 574.88 1004.99 355.05 1169.45 347.51 1065.23 454.35 1035.52 559.57 1168.02 553.88
00000285 00000017 939.85 128.45 381.96 574.01 1004.02 354.70 1168.38 347.85 1064.86 455.01 1034.82 559.01 1166.61 553.91
00000286 00000018 938.49 127.42 383.06 575.20 1003.05 354.68 1168.02 347.55 1064.83 455.59 1034.91 559.34 1166.92 553.86
00000287 00000019 939.32 127.07 382.97 576.45 1004.84 355.19 1170.53 347.73 1067.08 454.80 1036.20 560.26 1168.24 554.53
00000288 00000020 940.90 128.20 383.73 580.01 1009.89 357.53 1174.99 348.10 1072.14 453.53 1040.22 562.55 1172.70 555.24
00000289 00000021 945.31 125.23 386.06 588.19 1016.84 359.40 1184.13 344.62 1082.96 449.61 1048.11 565.52 1182.98 554.29
00000290 00000022 947.79 120.91 387.89 590.54 1024.68 360.02 1197.12 345.32 1099.49 450.99 1056.01 566.57 1194.19 555.06
00000291 00000023 949.74 122.26 390.51 591.97 1031.68 361.09 1205.51 345.05 1111.59 453.40 1066.10 566.73 1207.52 553.14
00000292 00000024 950.30 120.88 393.16 594.59 1034.46 361.68 1209.88 344.33 1117.87 454.64 1072.04 568.80 1214.19 553.74
00000293 00000025 952.25 121.81 392.51 590.14 1037.48 361.78 1213.77 343.99 1123.26 455.88 1077.30 569.17 1218.22 553.32
00000294 00000026 952.31 122.07 394.03 592.33 1040.33 362.45 1215.85 342.49 1128.47 454.83 1081.00 570.53 1221.27 553.05
00000295 00000027 951.49 119.80 396.71 599.31 1041.22 360.19 1218.39 340.21 1130.37 454.07 1081.22 571.36 1222.70 553.98
00000296 00000028 951.03 119.35 396.39 598.29 1040.94 357.96 1217.52 337.95 1129.85 451.85 1079.34 568.59 1221.40 551.36
00000297 00000029 948.47 119.14 397.92 600.99 1038.81 355.63 1215.99 335.61 1127.40 451.03 1075.59 566.07 1222.41 548.68
00000298 00000030 946.76 119.22 398.34 603.63 1036.31 355.04 1212.34 335.37 1122.67 451.24 1072.35 566.03 1220.27 549.19
00000299 00000031 944.79 118.06 396.43 606.60 1033.51 354.49 1208.94 337.09 1118.47 451.67 1068.21 566.51 1215.13 551.66
00000300 00000032 942.54 117.88 395.93 602.96 1029.49 356.00 1205.38 340.34 1114.42 454.27 1065.18 567.28 1209.73 554.12
00000301 00000033 933.49 114.98 399.75 609.00 1026.18 357.58 1202.81 349.25 1109.83 462.67 1060.12 567.05 1208.72 560.24
00000302 00000034 929.35 120.15 400.24 597.99 1023.50 360.47 1201.30 353.15 1109.47 464.85 1059.09 565.12 1207.63 559.16
00000303 00000035 935.36 127.34 393.39 594.93 1026.20 360.81 1200.77 352.87 1113.11 461.85 1059.89 570.92 1195.94 563.64
00000304 00000036 935.28 131.65 391.20 593.11 1024.63 362.38 1198.75 354.34 1111.32 465.54 1059.49 574.25 1193.93 567.02
00000305 00000037 935.50 135.21 390.52 591.90 1024.95 364.34 1197.60 354.96 1111.72 468.13 1061.15 576.76 1194.12 568.75
00000306 00000038 936.28 135.93 389.53 591.54 1025.25 365.54 1198.33 355.84 1112.58 469.56 1061.66 578.09 1196.21 569.90
00000307 00000039 937.96 131.12 386.99 590.17 1023.22 367.38 1200.73 357.27 1111.49 471.77 1059.78 577.58 1203.45 569.26
00000308 00000040 938.70 131.09 386.20 583.09 1023.27 365.67 1201.27 355.49 1112.03 468.60 1059.31 574.38 1202.48 566.24
00000309 00000041 936.94 130.39 388.57 588.00 1022.74 363.83 1200.50 351.52 1111.82 463.13 1060.19 575.54 1201.99 565.86
00000310 00000042 935.96 132.58 387.74 588.48 1023.77 363.87 1196.28 352.43 1110.24 462.79 1058.96 573.80 1196.81 564.58
00000311 00000043 935.93 135.74 383.69 589.78 1025.41 372.17 1194.50 357.78 1110.05 461.66 1058.31 573.63 1200.61 561.96
00000312 00000044 936.63 138.21 381.80 586.97 1025.62 373.27 1192.66 359.99 1108.76 462.25 1057.10 572.87 1198.81 562.10
00000313 00000045 937.31 140.03 381.10 585.63 1026.36 372.17 1194.08 360.06 1109.84 463.52 1057.08 572.85 1199.10 562.96
00000314 00000046 938.35 137.74 383.63 584.40 1027.04 371.35 1197.58 359.95 1111.90 464.67 1056.99 572.67 1200.27 563.19
00000315 00000047 939.73 134.39 384.16 584.03 1027.45 370.17 1198.84 359.84 1112.97 464.53 1057.55 571.36 1200.50 562.86
00000316 00000048 942.16 130.88 384.36 581.75 1028.72 367.13 1201.34 358.03 1113.91 463.25 1059.16 568.98 1201.58 561.32
00000317 00000049 943.16 127.65 385.70 580.71 1029.56 364.84 1203.20 355.33 1114.81 461.52 1060.30 566.73 1202.10 558.55
00000318 00000050 942.99 124.61 388.41 582.28 1030.35 362.80 1204.10 352.45 1115.80 459.73 1062.06 564.56 1204.18 555.30
00000319 00000051 936.61 122.32 392.49 586.87 1027.91 360.37 1201.44 353.94 1110.63 463.50 1060.04 560.49 1206.51 555.45
00000320 00000052 942.16 122.30 391.26 589.19 1031.10 360.67 1203.18 351.91 1115.35 458.97 1061.85 564.89 1199.62 557.02
00000321 00000053 943.11 123.36 392.31 595.35 1032.22 359.57 1202.91 349.85 1114.77 459.20 1063.90 568.04 1198.51 559.60
00000322 00000054 943.74 123.18 391.75 598.11 1032.66 359.66 1204.22 350.07 1115.78 459.91 1064.09 570.08 1199.28 561.99
00000323 00000055 942.39 121.94 392.14 597.57 1032.87 360.10 1205.69 350.37 1118.30 461.27 1065.39 570.46 1201.49 562.09
00000324 00000056 934.00 120.20 395.31 597.04 1028.53 361.43 1204.04 355.00 1114.83 467.22 1063.23 568.23 1208.19 563.27
00000325 00000057 938.92 124.91 393.15 593.16 1030.65 363.61 1204.86 353.62 1118.16 465.71 1065.34 571.89 1203.24 563.18
00000326 00000058 937.34 127.26 394.06 595.40 1030.12 363.87 1203.13 353.13 1117.45 465.43 1065.77 573.73 1201.45 564.44
00000327 00000059 936.79 129.73 394.55 596.39 1029.93 364.62 1202.93 353.17 1117.14 465.98 1065.65 574.89 1202.74 564.87
00000328 00000060 936.95 128.63 394.40 597.10 1029.66 364.83 1203.09 353.58 1117.46 467.09 1065.60 575.58 1202.89 565.68
00000329 00000061 938.21 128.68 394.14 594.69 1030.26 365.32 1204.00 354.08 1117.95 467.12 1066.06 574.80 1204.03 564.97
00000330 00000062 939.34 127.78 393.88 592.98 1031.01 364.57 1205.60 353.22 1118.92 464.95 1066.32 573.25 1205.32 563.41
00000331 00000063 941.30 127.07 393.24 591.59 1032.39 365.14 1206.82 352.86 1120.74 464.40 1068.20 572.87 1207.40 562.22
00000332 00000064 941.68 127.05 394.49 592.26 1033.50 365.08 1207.73 353.00 1121.82 464.89 1069.24 573.36 1207.14 562.79
00000333 00000065 943.60 128.36 393.37 592.49 1034.21 365.33 1207.95 353.09 1121.84 464.93 1070.35 574.34 1208.31 563.56
00000334 00000066 945.59 128.39 392.24 592.65 1035.11 366.13 1208.67 353.26 1122.09 465.32 1071.65 575.34 1208.87 564.08
00000335 00000067 946.46 129.59 392.73 593.24 1036.00 366.89 1209.42 352.87 1123.27 465.39 1073.86 576.79 1210.53 564.63
00000336 00000068 946.47 128.93 393.97 595.20 1036.79 367.87 1209.97 353.11 1124.50 466.42 1075.87 577.96 1212.05 565.18
00000337 00000069 947.68 129.13 393.18 593.37 1037.64 367.73 1210.88 353.17 1125.54 466.50 1077.18 577.80 1211.98 565.17
00000338 00000070 948.61 129.66 392.75 594.79 1039.45 367.69 1211.89 353.29 1127.16 467.33 1078.34 578.69 1213.05 566.26
00000339 00000071 948.33 129.88 394.18 594.87 1040.52 369.39 1212.62 354.62 1129.46 469.25 1079.72 579.10 1214.92 566.42
00000340 00000072 949.43 129.87 394.00 594.57 1041.48 370.30 1214.25 356.38 1130.82 471.28 1080.84 580.19 1216.54 567.93
00000341 00000073 950.18 129.88 394.90 597.23 1043.83 371.81 1216.83 358.81 1134.15 474.14 1082.11 581.53 1219.54 569.90
00000342 00000074 952.86 130.34 393.13 600.64 1047.05 374.00 1219.47 361.13 1137.27 477.17 1085.10 584.38 1222.76 572.74
00000343 00000075 955.58 130.38 391.96 604.24 1049.89 375.48 1222.85 364.10 1139.11 479.95 1086.54 586.66 1225.08 576.17
00000344 00000076 956.98 132.14 393.68 604.57 1052.25 375.96 1226.99 365.61 1141.95 481.81 1087.64 587.73 1228.55 577.96
00000345 00000077 958.85 133.99 394.26 608.89 1055.69 378.20 1231.21 367.31 1146.21 484.54 1090.82 591.38 1233.95 581.11
00000346 00000078 960.06 135.51 394.79 610.80 1059.21 379.63 1233.65 368.51 1149.62 487.41 1096.13 596.81 1234.82 586.45
00000347 00000079 960.86 132.81 398.71 619.52 1059.53 378.84 1231.69 371.40 1153.74 485.64 1097.25 598.46 1229.79 592.31
00000348 00000080 963.86 134.16 398.21 617.26 1061.34 378.31 1236.13 372.00 1156.43 487.01 1097.68 598.14 1234.96 592.68
00000349 00000081 967.43 135.62 397.70 614.12 1064.37 377.69 1239.56 371.20 1159.53 488.03 1100.67 598.06 1239.24 592.30
00000350 00000082 970.06 136.58 396.35 611.64 1067.49 375.82 1243.50 369.84 1163.53 485.94 1102.10 595.41 1242.65 590.01
00000351 00000083 973.09 136.16 395.03 611.17 1069.86 373.72 1244.77 368.64 1165.30 482.51 1103.35 592.80 1244.06 588.11
00000352 00000084 976.52 135.44 392.83 611.41 1072.04 371.45 1247.38 366.03 1166.88 478.66 1105.88 590.71 1247.42 585.63
00000353 00000085 979.92 135.45 391.46 610.32 1074.56 370.69 1250.02 365.52 1168.25 476.40 1107.14 589.82 1249.45 584.98
00000354 00000086 980.56 136.04 392.03 610.24 1076.42 369.77 1251.78 365.35 1171.10 475.76 1108.72 589.27 1249.71 584.97
00000355 00000087 981.06 136.76 392.54 610.30 1077.69 369.87 1252.17 365.70 1172.79 477.07 1109.63 589.83 1249.22 585.69
00000356 00000088 980.45 136.13 394.12 612.57 1076.96 371.06 1252.31 366.45 1172.67 479.68 1108.76 591.63 1250.28 587.05
00000357 00000089 979.52 135.82 395.60 613.12 1075.79 373.06 1251.15 367.04 1172.06 481.97 1110.05 594.34 1249.69 588.58
00000358 00000090 978.41 136.45 395.72 614.47 1075.32 373.75 1249.90 367.81 1171.10 484.51 1110.84 597.26 1246.82 591.76
00000359 00000091 977.41 138.28 397.29 615.12 1075.06 374.59 1249.71 367.62 1170.82 485.15 1112.59 598.88 1247.58 592.37
00000360 00000092 977.07 138.44 397.67 616.38 1075.81 375.52 1250.53 369.50 1170.82 486.47 1111.26 599.10 1247.32 593.35
00000361 00000093 976.14 138.51 398.36 616.53 1075.98 376.38 1250.96 370.84 1171.11 488.23 1110.56 599.60 1247.36 594.27
00000362 00000094 975.24 139.57 398.48 614.67 1073.92 378.42 1251.75 373.40 1169.22 491.77 1107.97 601.75 1247.78 596.89
00000363 00000095 973.03 141.33 398.93 610.54 1071.74 381.36 1250.99 377.00 1167.82 495.52 1103.66 599.96 1248.69 595.40
00000364 00000096 966.73 140.35 402.29 614.22 1068.28 382.39 1247.73 379.02 1164.31 498.13 1099.82 601.15 1243.93 597.50
00000365 00000097 962.54 137.46 401.79 619.00 1061.59 383.06 1237.58 378.05 1154.54 499.10 1095.70 605.06 1233.00 600.70
00000366 00000098 956.35 144.30 400.11 607.91 1059.15 385.10 1232.12 376.79 1147.07 501.35 1095.63 603.65 1231.34 595.20
00000367 00000099 952.14 143.00 398.53 604.82 1052.84 386.32 1225.03 377.22 1140.57 499.68 1088.42 601.34 1225.46 592.66
00000368 00000100 950.78 143.49 395.31 598.91 1046.40 386.02 1217.01 376.07 1132.06 499.70 1082.67 597.77 1220.12 588.43
00000369 00000101 948.86 142.57 392.98 599.05 1044.14 384.94 1212.23 375.26 1128.16 500.82 1078.93 596.90 1212.80 587.91
00000370 00000102 945.10 142.83 394.33 598.17 1041.47 385.94 1207.85 376.51 1124.90 502.63 1077.10 599.13 1205.73 590.40
00000371 00000103 941.23 143.63 395.74 598.85 1038.25 386.00 1205.35 376.20 1122.13 503.56 1076.09 601.29 1202.54 592.30
00000372 00000104 939.10 143.34 396.56 596.68 1035.66 386.71 1204.42 376.77 1120.65 503.77 1076.13 600.19 1204.80 590.76
00000373 00000105 938.53 142.99 394.62 597.80 1033.16 385.40 1203.01 375.12 1118.51 503.16 1072.30 598.70 1204.69 588.88
00000374 00000106 938.42 144.86 391.46 602.24 1033.73 383.88 1199.64 373.33 1116.88 499.37 1069.45 598.70 1199.22 589.03
00000375 00000107 938.13 145.45 387.66 600.00 1030.66 384.22 1196.91 373.78 1111.71 499.33 1065.56 599.52 1193.86 590.15
00000376 00000108 937.87 145.62 384.07 598.12 1028.47 384.11 1194.70 374.06 1109.33 497.57 1062.07 598.57 1191.13 589.72
00000377 00000109 937.54 146.87 383.46 598.00 1026.65 384.49 1193.75 373.54 1107.98 496.36 1060.02 598.05 1192.55 588.38
00000378 00000110 935.74 146.65 386.12 606.29 1024.61 384.11 1193.85 371.54 1106.72 496.77 1058.36 600.18 1197.79 588.70
00000379 00000111 932.45 146.69 388.61 603.07 1022.27 385.70 1193.91 373.89 1108.63 498.36 1056.63 599.71 1199.94 588.61
00000380 00000112 932.14 146.82 388.13 594.27 1020.70 385.68 1193.21 374.89 1108.19 499.65 1055.63 593.75 1202.71 583.41
00000381 00000113 930.18 147.45 388.93 592.82 1019.62 385.63 1191.62 375.80 1106.87 499.04 1054.69 592.03 1201.12 582.23
00000382 00000114 929.09 147.20 389.03 596.41 1018.14 385.63 1189.55 375.76 1104.52 497.29 1053.92 593.74 1199.18 583.84
00000383 00000115 926.47 145.49 391.42 606.78 1015.07 385.99 1185.58 374.89 1099.39 498.69 1052.63 602.10 1192.81 591.16
00000384 00000116 925.47 149.14 387.03 593.35 1012.30 386.49 1185.01 379.16 1095.46 498.61 1047.23 599.71 1188.73 592.39
00000385 00000117 922.62 147.74 389.80 599.09 1009.44 385.87 1180.75 378.69 1091.30 498.54 1046.42 600.85 1186.43 593.42
00000386 00000118 920.30 148.41 390.33 599.51 1009.15 385.14 1178.55 377.80 1091.67 497.41 1047.76 602.03 1179.17 594.79
00000387 00000119 920.60 147.47 389.88 602.20 1010.13 385.04 1177.29 376.05 1092.62 496.01 1049.59 601.63 1179.80 592.98
00000388 00000120 921.63 146.83 389.91 605.32 1011.98 384.74 1177.41 374.55 1094.22 495.02 1051.78 602.68 1179.53 593.01
00000389 00000121 923.17 146.12 389.64 606.21 1013.83 384.56 1179.53 373.62 1097.00 495.37 1054.43 603.16 1183.45 592.72
00000390 00000122 926.00 144.97 388.47 606.40 1014.71 384.76 1183.35 372.95 1098.85 495.41 1053.67 602.12 1189.76 590.84
00000391 00000123 926.27 144.05 389.11 602.82 1014.62 384.15 1184.34 373.15 1099.98 496.03 1054.78 600.33 1190.84 589.69
00000392 00000124 926.24 143.85 389.14 603.41 1014.98 383.61 1185.01 372.45 1100.24 496.93 1056.20 601.23 1190.46 590.53
00000393 00000125 928.22 144.82 389.30 605.65 1017.88 382.73 1185.37 370.18 1101.73 496.77 1059.71 601.65 1189.58 589.87
00000394 00000126 930.07 146.21 392.12 603.05 1020.12 380.64 1188.16 367.69 1104.01 493.36 1061.52 598.20 1193.85 585.92
00000395 00000127 934.50 144.97 389.16 603.13 1022.87 380.12 1192.38 365.99 1106.80 490.90 1062.66 597.43 1196.81 584.34
00000396 00000128 938.40 144.54 388.18 600.40 1027.55 379.61 1197.06 365.44 1111.04 488.75 1065.34 595.27 1200.39 582.25
00000397 00000129 942.33 142.53 387.95 599.36 1031.69 378.40 1202.56 365.32 1115.01 487.84 1067.86 592.18 1205.98 580.13
00000398 00000130 946.21 141.21 388.71 596.36 1034.61 376.95 1205.97 364.48 1117.32 487.03 1070.65 589.47 1210.63 577.95
00000399 00000131 951.79 135.98 386.66 599.01 1037.73 376.50 1209.14 363.79 1119.87 484.58 1073.30 588.18 1214.64 576.84
00000400 00000132 953.78 132.34 387.33 596.03 1040.83 375.18 1215.00 365.35 1124.15 481.86 1076.54 584.09 1218.11 575.09
00000401 00000133 957.57 130.52 390.13 596.01 1042.83 373.86 1221.50 364.08 1126.14 479.55 1077.78 583.65 1222.87 574.75
00000402 00000134 961.33 132.59 393.28 598.02 1047.93 370.91 1227.91 360.19 1132.00 476.03 1084.24 585.34 1226.97 575.06
00000403 00000135 964.39 135.53 394.02 598.00 1053.41 369.01 1230.63 357.51 1135.68 474.92 1090.90 586.00 1227.19 574.77
00000404 00000136 970.55 132.07 389.86 608.95 1055.51 365.40 1229.54 357.56 1140.45 472.28 1095.30 587.10 1226.74 580.73
00000405 00000137 977.86 136.72 389.10 602.83 1061.15 363.79 1236.57 357.48 1145.48 472.89 1098.25 587.57 1231.77 582.24
00000406 00000138 984.26 136.19 389.18 602.36 1066.35 364.18 1243.56 359.00 1149.51 476.47 1100.58 587.38 1240.20 582.73
00000407 00000139 987.42 137.79 391.25 598.20 1071.27 361.86 1248.01 358.43 1154.11 475.54 1104.28 583.66 1244.44 580.18
00000408 00000140 992.14 137.60 391.72 600.49 1076.49 359.22 1252.42 356.87 1158.14 474.61 1108.99 583.45 1247.81 580.65
00000409 00000141 994.72 138.07 395.63 603.04 1080.29 356.49 1255.45 352.80 1161.72 472.15 1115.80 582.87 1250.19 578.56
00000410 00000142 998.61 137.48 395.51 607.92 1084.58 356.85 1259.72 350.73 1164.44 471.50 1119.16 585.39 1255.65 578.96
00000411 00000143 999.67 136.40 397.09 610.97 1086.98 356.36 1262.18 349.99 1166.64 470.07 1120.48 586.11 1256.56 579.52
00000412 00000144 1000.10 136.43 398.56 609.04 1088.68 356.08 1264.21 349.87 1169.57 467.49 1122.26 584.82 1256.38 578.43
00000413 00000145 1001.54 135.54 398.02 611.53 1089.24 356.45 1265.27 348.95 1169.89 468.12 1123.99 586.23 1258.44 578.69
00000414 00000146 1000.95 135.88 398.80 612.83 1089.08 357.46 1265.31 349.04 1169.80 469.21 1125.18 588.85 1257.69 580.55
00000415 00000147 1000.92 136.69 400.27 610.65 1089.74 358.71 1265.58 350.45 1171.39 471.95 1126.19 588.48 1256.92 580.29
00000416 00000148 1000.10 137.19 402.90 602.54 1089.49 360.43 1264.46 351.41 1174.05 473.37 1128.31 585.52 1256.95 576.97
00000417 00000149 1000.91 135.75 403.42 601.25 1090.85 362.52 1267.59 353.47 1177.60 473.99 1129.15 582.67 1263.73 574.25
00000418 00000150 1002.94 133.21 403.08 600.28 1091.29 365.27 1269.23 354.83 1178.64 474.87 1129.95 582.82 1268.09 573.44
00000419 DELETE   1006.54 133.53 400.10 598.91 1095.14 371.06 1270.22 359.13 1180.16 475.98 1130.75 581.46 1272.47 570.91
00000420 00000152 1009.06 131.73 399.23 598.77 1095.72 369.85 1268.87 356.30 1177.33 469.42 1130.81 579.08 1267.93 567.74
00000421 DELETE   1008.89 126.96 397.70 598.22 1088.82 363.44 1261.22 351.53 1165.67 468.29 1125.14 576.46 1260.47 566.81
00000422 00000154 1007.43 124.55 396.19 599.63 1081.57 358.27 1249.46 347.25 1151.49 463.13 1118.31 574.62 1250.50 566.46
00000423 00000155 1004.83 125.04 395.88 600.01 1078.34 354.25 1243.06 345.65 1144.30 461.75 1115.46 572.34 1243.19 565.35
00000424 00000156 1002.52 121.79 397.16 603.57 1073.15 352.33 1240.70 343.79 1137.65 460.55 1108.26 570.98 1241.19 564.06
00000425 00000157 1002.12 121.05 395.69 600.47 1070.45 349.90 1238.20 341.84 1131.88 457.87 1104.21 569.15 1237.17 562.37
00000426 00000158 998.85 121.57 396.26 592.63 1065.89 347.66 1234.81 340.63 1126.27 455.38 1100.14 565.52 1233.09 559.27
00000427 00000159 995.04 117.46 396.51 595.53 1064.33 344.34 1226.24 338.90 1115.68 453.21 1093.42 562.52 1228.16 558.04
00000428 00000160 995.11 113.22 398.29 596.79 1059.41 343.10 1233.97 340.38 1116.19 458.94 1088.58 560.67 1220.31 558.98
00000429 00000161 993.44 112.42 397.89 598.24 1057.07 342.45 1232.14 339.41 1112.59 458.09 1084.92 561.25 1218.13 559.37
00000430 00000162 991.88 111.87 397.22 597.43 1054.16 341.16 1229.47 338.87 1108.60 459.17 1082.38 561.50 1215.73 560.20
00000431 00000163 988.77 112.52 396.80 593.52 1050.45 340.97 1226.95 338.53 1105.78 459.20 1078.92 561.61 1213.54 560.09
