Video ID: 	Coq3t2G_ldI
H: 	1080
W: 	1920
FPS: 	25.0

FRAME INDEX X0 Y0 W H [Landmarks (5 Points)]

00009741 00000000 567.97 230.53 487.40 615.84 615.21 483.39 768.33 478.16 639.36 637.93 695.06 717.43 808.59 711.91
00009742 00000001 567.74 230.41 484.62 623.19 613.73 481.56 769.93 474.32 637.53 632.31 688.67 717.15 806.35 710.11
00009743 00000002 565.97 228.51 483.39 620.48 611.97 477.23 770.53 467.95 638.84 627.38 690.81 712.90 808.95 704.23
00009744 00000003 569.13 239.56 469.96 600.88 614.98 467.75 772.90 462.60 638.08 628.70 698.42 706.25 816.52 698.46
00009745 00000004 569.87 238.44 467.08 602.32 617.98 464.56 773.28 459.75 636.75 628.07 703.84 703.11 825.45 695.03
00009746 00000005 575.52 240.37 468.53 608.58 624.76 463.03 776.09 455.34 639.89 624.46 712.20 706.74 832.03 696.27
00009747 00000006 580.42 240.59 470.77 614.50 628.85 462.33 776.83 453.84 640.68 621.58 715.20 710.03 832.18 699.41
00009748 00000007 583.88 216.46 473.22 640.71 632.00 465.50 773.01 453.50 645.64 616.78 719.56 707.69 833.78 695.53
00009749 00000008 586.25 215.45 471.61 639.20 635.59 465.26 775.95 453.99 648.19 612.72 720.17 706.53 832.09 695.12
00009750 00000009 592.72 224.26 474.44 635.48 634.13 465.05 781.43 451.83 647.79 617.48 724.86 714.33 836.53 699.35
00009751 00000010 604.46 211.99 464.93 641.97 648.60 463.85 787.81 456.06 656.04 613.20 726.98 704.56 839.24 695.86
00009752 00000011 612.98 221.39 467.58 635.93 651.20 458.74 792.80 455.02 656.61 618.62 733.90 705.66 844.84 699.05
00009753 00000012 613.89 200.23 468.04 642.91 655.04 446.10 816.07 446.84 673.99 611.81 732.90 702.35 849.55 699.88
00009754 00000013 621.07 177.04 473.73 658.93 662.10 439.76 825.33 438.65 680.13 600.79 732.22 696.84 849.71 693.66
00009755 00000014 631.19 164.97 477.87 665.53 674.58 425.63 825.34 425.88 682.03 581.27 739.41 677.42 849.98 675.26
00009756 DELETE   635.30 160.38 477.91 656.47 675.65 413.92 825.50 409.13 677.17 559.86 736.05 662.57 851.35 656.28
00009757 DELETE   632.22 131.92 477.39 669.94 672.38 401.51 819.48 399.69 669.60 545.16 728.28 647.74 840.81 644.52
00009758 DELETE   627.09 131.29 462.13 653.36 658.29 387.74 816.06 387.40 658.72 528.64 715.01 643.88 826.78 641.10
00009759 00000018 632.03 131.79 466.52 640.46 667.68 386.47 805.31 384.96 656.04 519.81 711.59 626.50 812.56 624.78
00009760 00000019 629.28 132.61 461.73 635.27 664.33 386.63 796.96 381.85 652.89 517.56 704.75 626.48 800.65 622.54
00009761 00000020 621.20 127.34 461.58 646.91 657.94 390.72 792.32 386.25 654.55 524.87 700.70 630.18 801.98 626.97
00009762 00000021 611.17 128.80 463.51 652.34 649.19 394.85 786.20 389.18 648.94 535.10 696.61 640.23 797.48 635.67
00009763 00000022 595.49 144.51 466.06 634.11 633.15 395.41 774.62 392.50 639.02 540.12 687.13 642.63 789.90 639.59
00009764 DELETE   584.27 126.60 467.75 654.22 625.93 390.23 769.14 382.21 633.05 529.52 676.61 639.65 783.71 632.55
00009765 00000024 578.99 106.89 476.38 660.82 613.55 375.71 770.34 364.78 618.86 512.22 672.27 632.75 778.46 622.85
00009766 00000025 583.24 83.52 471.99 673.11 619.02 361.16 762.84 343.55 615.59 489.85 668.15 608.44 773.55 592.71
00009767 00000026 585.02 64.20 471.01 680.61 617.15 350.33 764.21 328.18 613.91 473.13 665.42 595.05 778.64 575.01
00009768 00000027 580.91 63.93 471.49 672.88 611.36 341.68 761.66 320.62 610.10 463.27 656.57 586.51 771.75 567.53
00009769 00000028 578.19 62.47 469.51 684.16 608.11 343.68 751.81 319.20 604.55 465.61 656.21 592.91 764.32 571.44
00009770 00000029 571.12 64.69 472.52 686.46 607.44 351.72 738.31 328.81 597.91 478.25 660.69 602.67 754.29 583.03
00009771 00000030 564.33 77.62 472.45 683.76 604.79 365.03 737.99 342.57 599.06 493.08 666.60 615.10 760.61 595.63
00009772 00000031 563.53 92.67 470.39 682.38 600.49 376.36 730.72 353.38 591.60 512.28 673.84 623.83 774.96 602.33
00009773 00000032 557.57 108.28 466.15 670.18 595.05 395.62 719.47 366.02 589.36 524.01 678.17 629.84 780.10 601.86
00009774 00000033 552.34 106.67 463.20 671.59 594.00 404.22 716.44 374.33 585.41 521.99 674.57 630.37 778.03 601.70
00009775 00000034 549.29 117.07 461.89 655.55 589.46 401.73 712.25 373.77 583.33 522.55 670.39 627.62 773.05 600.93
00009776 00000035 552.60 111.80 464.28 653.25 588.97 390.10 716.75 362.36 586.48 516.70 670.25 621.96 773.85 596.05
00009777 00000036 554.34 113.51 460.38 651.78 599.33 386.06 726.01 356.02 595.96 506.45 671.63 621.98 776.20 595.58
00009778 00000037 560.49 110.86 468.31 655.37 600.68 381.23 726.62 353.40 594.71 511.50 676.73 617.85 776.72 592.01
00009779 00000038 560.05 107.76 467.56 657.64 602.10 387.37 725.96 360.54 595.55 518.47 679.57 620.32 776.77 595.47
00009780 00000039 558.91 115.95 473.67 653.36 603.86 389.46 731.04 371.28 600.15 530.89 681.44 622.01 783.44 603.57
00009781 00000040 561.79 119.78 470.15 649.02 599.38 390.44 747.17 372.03 610.88 529.60 682.41 634.16 791.98 616.35
00009782 00000041 565.03 128.50 472.70 643.43 602.01 397.94 754.46 371.47 618.73 527.88 684.52 640.72 797.40 616.36
00009783 00000042 570.66 126.42 479.00 655.07 615.86 398.93 754.81 370.60 620.19 530.32 691.56 637.44 799.87 610.86
00009784 00000043 580.57 124.06 474.86 654.29 618.91 394.09 769.47 373.26 629.52 527.08 695.97 637.96 810.81 618.11
00009785 00000044 594.05 140.98 475.27 635.99 631.85 396.57 781.98 376.05 643.50 529.14 706.06 637.35 821.75 617.62
00009786 00000045 607.31 138.36 470.46 644.21 644.29 398.44 789.75 380.15 652.70 531.73 719.11 639.38 832.57 621.34
00009787 00000046 620.03 144.09 460.78 636.87 660.08 397.88 794.05 387.47 659.39 533.02 725.48 632.33 830.93 622.44
00009788 00000047 626.11 139.89 466.57 651.11 666.61 400.47 806.33 392.33 665.30 539.80 726.22 638.20 837.32 630.37
00009789 00000048 625.95 158.97 472.20 636.68 667.67 409.99 814.27 405.05 670.29 554.74 731.99 645.75 843.63 640.15
00009790 00000049 638.21 142.39 473.18 670.81 680.89 426.22 827.55 412.15 684.50 560.52 742.49 665.23 857.13 651.31
00009791 00000050 639.64 161.17 473.01 665.90 685.42 424.18 829.03 417.54 688.67 574.79 750.29 671.23 864.36 662.88
00009792 00000051 646.39 178.91 469.03 649.36 688.43 425.76 836.85 422.11 691.32 579.50 750.21 676.21 867.19 670.49
00009793 00000052 653.78 179.47 467.34 651.35 693.61 433.37 844.39 425.96 697.56 580.04 750.89 680.74 870.04 671.96
00009794 00000053 656.66 183.50 467.97 655.73 696.50 438.24 848.73 430.19 701.89 583.66 753.37 685.31 877.08 675.73
00009795 00000054 656.60 200.30 466.57 642.15 696.65 446.23 852.00 444.39 707.12 592.47 761.46 690.21 882.91 686.97
00009796 00000055 657.59 199.89 471.66 648.70 700.27 449.41 857.46 445.48 712.74 593.54 763.83 693.32 885.94 687.89
00009797 00000056 655.93 203.97 476.91 646.41 699.18 452.48 859.24 448.31 715.93 598.20 764.04 697.66 886.51 692.49
00009798 00000057 656.19 202.87 475.36 647.75 700.13 454.46 860.40 451.41 717.46 600.51 765.97 699.36 887.29 694.97
00009799 00000058 657.17 202.32 470.46 641.90 700.61 453.21 861.07 453.79 718.60 600.87 765.07 696.91 885.30 695.59
00009800 00000059 657.87 205.35 471.90 640.38 700.44 454.10 861.26 454.38 717.77 601.03 763.72 698.15 884.48 696.55
00009801 00000060 657.51 207.69 475.68 641.37 700.51 455.98 861.39 453.79 718.42 602.23 765.48 700.62 886.89 696.83
00009802 00000061 658.23 209.59 478.30 643.15 702.09 457.91 862.07 453.57 719.63 603.53 769.09 702.47 891.32 696.31
00009803 00000062 660.01 209.60 478.63 646.17 703.72 457.75 863.32 454.22 720.73 603.52 770.24 704.43 891.33 699.22
00009804 00000063 664.63 208.70 474.94 649.61 706.94 458.34 863.11 453.79 720.93 602.80 772.72 704.95 892.46 698.85
00009805 00000064 667.42 203.23 472.09 649.58 710.35 459.88 862.30 454.60 722.74 601.49 775.64 702.55 892.68 695.83
00009806 00000065 670.55 202.39 472.43 645.64 712.28 456.56 865.07 453.78 724.18 600.57 775.27 698.74 892.14 694.39
00009807 00000066 670.84 191.97 469.80 649.65 711.71 452.97 867.26 451.70 724.77 597.01 771.37 698.16 887.03 695.78
00009808 00000067 667.82 180.08 477.38 663.13 709.98 453.27 866.12 449.80 722.90 593.23 768.73 699.30 885.84 695.37
00009809 00000068 661.77 177.71 467.20 660.90 698.57 445.48 867.74 443.87 718.22 594.15 762.87 697.84 878.67 695.14
00009810 00000069 657.42 174.74 470.25 666.92 699.23 448.56 859.47 450.22 715.68 594.61 760.30 697.17 879.36 697.46
00009811 00000070 654.95 179.03 465.14 659.97 694.68 448.82 853.91 449.24 710.43 596.75 759.28 697.71 877.16 697.34
00009812 00000071 649.11 189.78 464.87 648.94 690.08 456.54 850.35 453.97 707.30 603.16 760.25 699.27 878.91 695.21
00009813 00000072 645.35 194.68 465.06 648.58 690.34 457.18 844.74 452.33 706.14 603.46 763.53 698.33 882.25 691.76
00009814 00000073 648.22 195.67 466.10 653.61 691.82 462.65 845.09 450.35 707.43 604.43 766.84 697.32 893.33 683.64
00009815 00000074 649.58 195.09 461.66 652.81 694.67 465.69 844.89 450.26 711.06 603.17 772.01 696.26 900.04 679.83
00009816 00000075 651.16 198.18 467.25 654.62 695.62 467.42 847.46 452.21 710.85 606.98 772.63 698.93 903.09 682.47
00009817 00000076 656.42 201.95 472.28 655.53 698.60 467.72 852.40 453.63 713.75 607.36 774.25 703.70 902.80 688.20
00009818 00000077 660.23 211.38 476.71 650.00 701.35 470.88 856.83 456.16 716.44 610.48 775.83 707.63 905.70 691.43
00009819 00000078 663.70 209.86 477.17 648.03 707.43 471.47 860.26 461.43 721.82 613.65 780.61 706.75 905.65 694.61
00009820 00000079 666.37 213.90 478.84 647.92 711.79 474.46 863.55 464.08 726.04 617.98 787.77 713.52 909.24 700.94
00009821 00000080 677.33 209.09 462.90 652.75 723.11 472.47 868.57 467.29 732.30 616.41 789.54 709.09 909.78 703.03
00009822 00000081 680.59 215.50 463.61 647.83 725.59 476.33 870.81 472.82 733.51 620.57 789.88 711.49 909.72 706.90
00009823 00000082 684.91 216.35 460.13 646.28 728.67 479.71 872.03 474.86 735.72 620.26 789.98 712.17 909.00 706.53
00009824 00000083 686.52 218.44 459.10 645.75 730.70 482.82 872.64 476.63 736.91 622.34 791.15 713.20 911.45 706.29
00009825 00000084 686.72 217.83 459.34 645.59 731.77 483.43 874.15 478.35 738.55 624.37 791.97 713.52 912.04 707.55
00009826 00000085 687.42 218.90 457.46 642.08 732.27 484.02 876.70 480.06 741.34 627.03 793.21 713.58 913.12 708.59
00009827 00000086 687.79 220.17 461.68 644.92 732.92 483.49 877.37 483.52 740.42 631.63 794.97 713.57 915.11 711.77
00009828 00000087 687.18 221.47 463.66 647.05 733.38 484.40 878.86 486.15 741.27 634.84 797.36 714.77 918.59 714.22
00009829 00000088 686.18 223.81 462.22 639.36 731.40 484.19 877.40 486.82 741.55 636.31 797.02 712.23 918.05 712.45
00009830 00000089 685.74 223.01 458.82 640.67 729.75 484.71 874.75 486.16 739.48 636.19 795.81 711.83 917.65 711.13
00009831 00000090 685.28 221.24 457.16 643.33 729.62 485.79 873.30 484.80 738.42 634.32 796.57 712.94 917.89 710.18
00009832 00000091 684.22 229.30 457.62 634.75 729.21 488.68 869.85 488.15 736.55 637.32 798.75 713.59 917.74 711.01
00009833 00000092 679.99 232.37 462.41 635.90 728.70 488.00 870.51 489.76 737.61 639.97 801.09 715.43 919.66 714.67
00009834 00000093 679.81 234.90 460.28 636.22 728.43 491.25 867.56 491.42 735.13 641.57 801.91 717.80 919.74 715.65
00009835 00000094 678.21 231.60 462.54 639.34 726.34 491.59 864.27 492.61 732.59 644.37 799.82 718.63 917.52 717.11
00009836 00000095 677.10 233.56 462.35 638.43 725.62 491.97 861.41 492.28 732.44 645.52 801.05 718.85 917.84 716.78
00009837 00000096 679.36 235.26 462.26 636.71 726.95 490.15 864.03 491.97 733.45 645.41 802.33 718.07 918.94 717.13
00009838 00000097 682.25 235.78 459.94 631.62 727.64 488.90 868.50 491.07 736.59 645.46 803.32 716.81 921.74 716.25
00009839 00000098 685.18 230.80 460.76 633.94 730.36 487.59 871.64 490.66 739.72 643.84 804.74 716.09 922.45 716.39
00009840 00000099 688.52 228.52 461.77 638.80 735.16 486.93 875.33 490.11 741.85 642.43 808.88 716.18 925.58 716.39
00009841 00000100 689.04 231.37 459.40 633.75 736.64 485.39 878.13 491.64 744.35 642.90 808.68 714.54 925.50 717.39
00009842 00000101 690.33 232.54 460.42 633.39 736.93 486.28 880.20 490.54 745.47 642.62 810.08 716.49 927.71 717.67
00009843 00000102 691.87 227.76 457.98 636.89 736.79 485.81 882.60 488.83 747.18 641.45 808.29 716.58 928.44 716.73
00009844 00000103 692.11 229.37 458.31 635.97 737.42 485.41 883.84 487.38 748.04 639.27 806.72 716.06 927.85 715.37
00009845 00000104 692.17 219.68 458.84 647.38 737.49 483.88 886.22 484.04 748.29 635.22 803.44 715.73 927.99 713.72
00009846 00000105 690.91 215.06 461.91 655.63 736.97 482.51 886.23 483.87 748.00 635.11 800.65 716.72 925.33 715.86
00009847 00000106 691.17 216.44 461.74 658.51 737.51 482.63 883.77 485.06 744.50 633.35 799.00 717.61 919.93 717.80
00009848 00000107 689.55 216.57 460.36 661.89 738.14 483.72 881.45 486.55 742.77 633.01 798.27 717.87 918.57 718.34
00009849 00000108 688.45 222.36 458.04 656.70 735.25 486.34 877.31 486.58 740.07 635.39 799.37 721.63 917.84 719.96
00009850 00000109 688.29 223.97 455.80 656.75 735.64 486.76 872.14 487.81 737.36 637.62 801.96 721.60 917.75 720.37
00009851 00000110 686.11 229.09 461.34 653.12 735.30 484.86 875.88 487.77 737.89 638.17 804.99 721.49 920.63 721.81
00009852 00000111 684.92 226.08 459.72 657.23 734.45 486.33 875.30 486.71 738.38 638.02 804.41 723.64 921.32 721.92
00009853 00000112 685.85 224.35 457.70 659.20 736.24 488.76 874.74 489.97 738.59 639.05 803.83 723.36 920.53 722.21
00009854 00000113 685.33 224.22 456.02 658.92 734.31 488.11 872.97 488.73 738.08 639.78 800.65 722.93 919.51 721.37
00009855 00000114 687.47 226.36 454.89 656.09 736.55 488.39 873.86 488.95 739.43 638.40 802.43 722.70 919.39 721.02
00009856 00000115 688.63 227.34 458.66 654.20 738.23 487.29 877.28 490.90 741.48 638.55 802.37 720.84 920.11 721.63
00009857 00000116 689.09 227.52 459.79 652.76 738.35 485.73 879.11 491.56 741.84 639.82 802.07 720.23 920.38 722.84
00009858 00000117 689.65 223.74 460.55 657.62 738.91 486.53 881.56 490.41 743.41 638.83 802.69 721.94 921.75 722.98
00009859 00000118 690.13 226.02 460.36 654.93 738.09 486.04 882.00 489.49 743.65 639.48 803.26 721.45 922.95 722.11
CROP_BBOX: 308 0 1458 1048
