Video ID: 	W151JmyX2rk
H: 	1080
W: 	1920
FPS: 	24.0

FRAME INDEX X0 Y0 W H [Landmarks (5 Points)]

00011546 00000000 834.60 95.63 533.73 769.46 990.04 391.78 1234.42 413.54 1103.41 554.19 983.25 669.27 1190.88 688.38
00011547 00000001 838.94 104.94 539.14 770.79 992.90 398.38 1241.47 420.51 1106.42 563.98 987.49 677.43 1197.32 696.90
00011548 DELETE   837.98 111.71 561.30 804.28 999.99 415.64 1247.12 444.30 1105.85 591.75 996.58 707.70 1196.87 732.88
00011549 00000003 849.79 129.75 552.60 808.06 1009.05 431.88 1251.33 459.82 1112.79 606.53 1003.93 722.35 1204.72 747.15
00011550 00000004 859.02 123.42 543.63 808.72 1008.55 433.09 1257.74 461.62 1122.11 597.08 1005.69 719.14 1211.48 743.41
00011551 00000005 853.18 124.65 555.46 782.55 1014.97 418.50 1254.08 447.66 1115.51 582.48 1010.70 696.55 1205.58 721.98
00011552 00000006 850.98 107.80 553.95 784.78 1010.18 408.16 1251.92 436.65 1110.78 570.77 1004.52 681.96 1202.08 706.26
00011553 00000007 844.83 111.73 556.02 778.90 1004.98 408.84 1245.77 437.12 1105.06 576.45 1001.86 684.96 1192.91 709.54
00011554 DELETE   843.49 112.10 560.55 799.34 1000.55 426.16 1238.53 454.14 1095.34 595.57 1000.90 710.19 1184.20 735.32
00011555 DELETE   850.58 143.33 543.55 793.81 997.92 452.07 1241.20 484.92 1091.38 625.12 991.78 736.06 1184.63 765.53
00011556 00000010 857.53 157.24 540.27 792.01 1005.07 463.19 1248.96 489.95 1106.70 637.58 1000.93 746.00 1195.56 770.30
00011557 00000011 866.93 151.91 539.08 791.11 1015.74 455.94 1255.13 482.86 1113.65 624.62 1010.44 739.61 1200.73 763.98
00011558 DELETE   866.23 126.74 545.74 807.41 1008.78 441.68 1258.69 472.93 1117.31 614.19 1008.14 727.90 1210.94 754.65
00011559 00000013 857.73 130.50 555.17 786.40 1009.53 427.99 1248.50 460.03 1101.79 598.20 1006.37 708.89 1195.24 737.06
00011560 00000014 854.58 124.43 553.56 793.98 1004.86 427.50 1245.71 457.95 1099.31 602.71 1003.75 711.53 1195.83 738.27
00011561 00000015 862.30 116.14 546.03 823.23 1002.61 440.84 1250.56 470.29 1108.08 619.84 1005.69 731.67 1208.23 756.50
00011562 00000016 869.93 130.33 541.05 808.62 1010.36 445.99 1259.34 477.47 1117.84 622.00 1010.27 732.86 1213.38 759.71
00011563 00000017 876.06 126.86 544.28 803.08 1021.03 443.78 1269.94 466.29 1137.10 611.35 1029.44 729.37 1233.00 748.57
00011564 00000018 878.82 116.85 548.05 808.80 1029.89 432.32 1281.40 446.97 1153.82 596.03 1040.19 721.43 1247.86 734.09
00011565 00000019 880.94 106.21 543.67 806.98 1039.21 429.21 1280.87 439.65 1160.28 590.69 1042.89 706.18 1252.31 715.08
00011566 00000020 876.50 101.62 543.34 820.50 1034.35 430.89 1284.59 434.85 1167.03 591.45 1045.21 714.14 1259.94 717.37
00011567 00000021 876.77 107.02 549.76 817.42 1042.04 439.67 1284.81 442.03 1171.99 602.97 1055.51 717.96 1264.28 719.80
00011568 00000022 884.85 112.50 543.93 813.61 1048.66 443.25 1289.78 445.73 1180.12 608.18 1064.39 722.04 1268.41 724.14
00011569 00000023 886.78 110.87 542.58 804.35 1052.01 437.59 1291.39 438.54 1183.74 596.06 1067.93 713.44 1272.18 714.20
00011570 00000024 875.63 98.77 537.87 788.73 1049.19 423.61 1286.75 426.55 1184.08 580.90 1061.71 693.51 1266.95 695.84
00011571 00000025 867.71 85.37 539.67 795.07 1039.76 411.84 1280.84 414.66 1178.19 569.89 1053.73 687.13 1258.37 689.68
00011572 00000026 867.32 89.75 537.24 793.54 1037.33 412.51 1278.37 413.52 1177.29 570.42 1054.58 688.60 1259.97 689.64
00011573 00000027 871.36 93.40 533.72 788.14 1042.33 418.92 1279.75 414.80 1183.01 573.87 1064.84 692.78 1264.97 689.51
00011574 00000028 873.27 92.00 533.55 786.38 1046.26 419.19 1281.70 414.39 1186.67 573.87 1070.46 692.81 1267.51 689.02
00011575 00000029 872.12 90.24 534.72 783.95 1043.62 414.37 1280.62 409.94 1185.46 569.40 1070.22 689.14 1267.59 685.58
00011576 00000030 871.36 89.56 533.66 781.11 1038.19 410.82 1281.11 406.70 1183.28 565.87 1064.15 688.08 1266.76 684.91
00011577 00000031 876.10 79.72 534.18 795.35 1036.09 412.09 1283.94 399.54 1183.02 561.36 1066.57 692.76 1269.47 681.61
00011578 00000032 879.65 76.67 542.67 798.43 1050.07 412.53 1288.18 409.13 1190.79 564.74 1076.32 687.29 1278.70 684.06
00011579 00000033 906.95 81.90 536.39 804.37 1064.82 418.11 1308.61 412.00 1203.34 567.32 1090.94 690.73 1295.05 685.68
00011580 DELETE   928.54 93.81 538.08 799.05 1095.81 421.25 1337.13 425.63 1229.88 583.29 1107.91 693.20 1316.84 696.67
00011581 DELETE   956.91 95.13 541.61 816.41 1116.67 430.17 1362.87 442.60 1240.99 589.33 1115.51 698.29 1332.67 708.77
00011582 DELETE   977.85 103.39 546.41 814.73 1144.18 430.29 1386.36 456.34 1255.42 594.57 1132.82 699.28 1343.48 721.63
00011583 00000037 993.25 110.36 534.81 809.41 1151.47 428.56 1398.45 455.72 1269.88 599.07 1138.56 704.27 1352.04 726.93
00011584 00000038 984.26 121.30 551.37 790.24 1155.08 421.78 1393.15 456.21 1260.37 597.59 1140.40 696.53 1340.73 726.58
00011585 00000039 972.54 114.86 555.03 798.58 1145.73 422.46 1385.80 456.74 1252.05 598.68 1129.35 695.71 1333.81 725.94
00011586 00000040 966.56 127.30 549.14 791.73 1130.83 424.97 1370.05 455.35 1236.01 600.33 1116.53 698.19 1322.91 725.11
00011587 00000041 956.64 123.21 552.56 803.88 1115.95 428.12 1359.75 457.98 1220.66 606.33 1108.15 707.01 1316.33 733.25
00011588 00000042 947.67 126.93 549.65 805.00 1103.26 431.69 1352.56 465.70 1209.47 617.93 1092.64 712.06 1307.46 741.73
00011589 00000043 956.88 120.27 540.92 820.44 1098.01 438.34 1345.83 470.18 1204.00 616.63 1090.32 721.63 1303.95 748.88
00011590 00000044 952.42 123.36 541.37 819.34 1095.84 439.08 1341.73 475.23 1198.60 618.13 1083.52 722.33 1294.13 753.10
00011591 00000045 949.35 126.12 540.42 815.64 1092.37 438.79 1338.40 476.17 1194.07 617.49 1079.30 721.08 1288.91 752.94
00011592 00000046 942.74 119.14 540.83 828.67 1084.97 436.00 1331.91 472.33 1187.71 618.86 1072.65 720.58 1286.29 751.42
00011593 00000047 931.74 112.95 538.03 831.19 1074.90 438.97 1323.71 473.13 1181.74 622.81 1063.35 719.94 1280.27 748.55
00011594 00000048 917.41 126.92 549.72 805.23 1067.16 435.82 1311.88 469.02 1164.93 618.05 1054.51 715.88 1270.09 744.70
00011595 00000049 912.73 129.20 546.87 799.76 1058.94 435.09 1304.79 471.62 1153.74 619.75 1044.23 716.03 1259.83 747.66
00011596 00000050 907.86 135.36 546.51 792.59 1050.35 432.51 1297.51 468.03 1145.26 619.54 1039.93 717.19 1252.54 748.21
00011597 00000051 907.09 130.41 550.67 794.04 1049.85 429.98 1294.10 462.75 1145.11 615.10 1044.43 714.57 1249.72 743.28
00011598 00000052 913.04 127.89 551.19 792.55 1057.48 427.52 1300.06 459.24 1151.52 607.96 1053.98 712.38 1253.67 740.30
00011599 00000053 917.18 127.71 551.91 789.43 1062.53 425.05 1304.23 454.81 1156.56 600.84 1058.76 709.61 1255.26 736.01
00011600 00000054 922.87 127.56 548.59 791.04 1067.21 423.30 1306.82 454.68 1158.72 600.02 1062.68 708.24 1257.46 736.03
00011601 00000055 924.13 128.44 548.54 791.30 1069.40 424.30 1308.72 459.10 1158.81 603.17 1060.90 706.89 1258.41 737.37
00011602 00000056 924.31 127.48 549.20 793.99 1069.34 427.47 1309.01 462.21 1158.88 606.83 1062.70 709.75 1258.30 740.15
00011603 00000057 921.55 124.44 550.54 796.01 1066.82 427.24 1306.97 460.84 1156.06 604.14 1061.98 710.62 1255.50 740.11
00011604 00000058 911.56 123.60 557.40 792.42 1059.63 424.98 1301.44 457.08 1150.79 599.45 1054.79 707.55 1251.87 735.74
00011605 00000059 904.07 121.72 558.32 788.21 1052.14 420.92 1293.41 448.21 1146.63 593.53 1050.54 702.17 1246.31 726.53
00011606 00000060 897.85 117.50 557.60 786.72 1047.25 417.23 1289.67 443.10 1143.52 587.95 1045.75 697.25 1242.99 720.48
00011607 00000061 895.96 115.77 560.54 792.02 1046.91 417.73 1289.12 442.89 1144.02 588.76 1046.35 698.91 1244.74 721.46
00011608 00000062 896.60 117.36 560.14 792.21 1048.49 421.52 1289.88 445.98 1146.59 592.60 1049.20 702.26 1246.82 724.18
00011609 00000063 898.45 118.70 558.48 789.27 1049.66 421.21 1291.83 445.44 1148.96 593.04 1051.16 702.43 1248.43 724.21
00011610 00000064 898.78 117.66 555.20 777.33 1050.49 415.35 1292.83 441.74 1148.67 585.48 1049.45 690.77 1247.30 714.04
00011611 00000065 901.52 108.84 538.08 762.35 1044.26 402.61 1290.40 429.45 1147.21 573.99 1040.45 673.14 1244.27 696.70
00011612 00000066 893.71 90.25 534.96 772.21 1031.66 388.62 1278.70 418.47 1129.05 559.05 1026.94 662.54 1232.33 688.72
00011613 00000067 882.62 86.53 539.84 782.80 1017.39 381.50 1267.83 406.71 1115.75 549.66 1015.28 665.04 1216.10 687.72
00011614 00000068 873.48 79.43 551.76 815.19 1013.63 380.19 1257.46 404.42 1105.01 549.64 1009.52 673.53 1200.99 696.20
00011615 00000069 867.74 92.88 549.90 807.75 1011.34 399.21 1249.35 418.46 1102.97 565.61 1010.79 685.36 1199.05 703.24
00011616 00000070 868.69 97.51 547.12 815.21 1009.91 409.05 1245.45 429.51 1103.13 578.57 1015.56 700.28 1200.89 718.06
00011617 00000071 863.49 100.53 551.06 816.38 1010.30 416.98 1247.65 434.28 1108.51 586.10 1016.78 705.52 1205.30 720.65
00011618 00000072 865.51 96.37 543.01 819.05 1009.48 421.45 1257.27 432.84 1126.94 590.94 1021.86 713.09 1225.31 722.42
00011619 00000073 868.55 97.18 543.80 823.23 1015.05 423.62 1264.29 432.67 1137.74 593.08 1030.45 716.15 1235.80 723.53
00011620 00000074 872.40 100.99 545.69 826.07 1022.09 429.04 1272.08 436.16 1148.38 597.71 1037.15 720.99 1244.08 727.02
00011621 00000075 876.15 103.11 550.78 834.52 1027.02 433.31 1278.59 440.43 1154.34 601.45 1040.51 724.03 1253.53 730.16
00011622 00000076 882.65 106.29 548.51 831.00 1033.49 434.29 1284.47 444.55 1158.77 603.85 1044.29 722.77 1257.98 731.65
00011623 00000077 880.18 121.89 548.06 807.45 1040.26 435.41 1287.21 443.16 1164.12 609.77 1051.99 720.02 1261.59 727.27
00011624 00000078 883.52 119.57 548.34 807.49 1047.96 436.61 1291.51 442.51 1173.21 607.31 1060.24 720.07 1265.58 725.78
00011625 00000079 885.45 116.97 547.25 806.50 1053.18 438.17 1296.31 441.86 1181.49 604.90 1065.31 720.09 1271.22 723.93
00011626 00000080 901.37 109.19 540.95 818.24 1056.68 441.88 1297.28 447.37 1183.54 605.83 1069.18 720.59 1273.81 725.36
00011627 00000081 898.26 108.78 540.68 821.71 1055.18 441.80 1296.12 444.43 1184.93 605.57 1070.75 722.47 1276.70 724.78
00011628 00000082 889.34 104.44 545.36 829.02 1051.17 442.98 1292.88 442.14 1184.25 605.26 1071.45 725.14 1277.01 724.26
00011629 00000083 880.75 101.93 546.11 829.15 1042.37 445.08 1285.97 439.39 1179.59 609.42 1066.30 727.63 1272.03 722.92
00011630 00000084 871.82 100.46 542.79 831.06 1032.64 450.70 1278.73 439.13 1175.86 613.70 1059.97 732.44 1270.90 722.58
00011631 00000085 864.06 101.53 543.12 836.72 1026.17 455.67 1275.60 443.16 1172.89 621.32 1053.20 738.91 1266.40 728.11
00011632 00000086 846.20 110.16 548.96 822.95 1014.46 458.54 1266.70 446.83 1166.42 631.57 1045.63 750.33 1260.40 740.33
00011633 00000087 840.21 127.80 547.88 810.68 1011.27 464.71 1262.67 450.92 1167.86 637.68 1044.92 754.88 1259.93 743.27
00011634 00000088 837.75 137.22 547.38 804.81 1007.17 471.67 1260.98 456.48 1165.54 643.57 1044.35 759.90 1259.62 746.77
00011635 00000089 835.20 138.61 545.04 804.14 1006.98 479.50 1260.53 461.51 1168.88 651.54 1044.90 764.64 1258.63 749.36
00011636 00000090 833.97 141.94 546.38 801.66 1008.77 485.01 1261.38 466.49 1172.00 657.95 1044.48 766.43 1258.77 750.86
00011637 00000091 834.93 137.33 551.23 816.95 1004.84 493.21 1263.17 465.09 1170.92 654.57 1050.21 774.59 1265.50 749.99
00011638 00000092 831.43 141.83 553.07 807.04 1009.34 489.39 1264.77 469.54 1174.14 662.04 1049.34 774.58 1260.72 758.03
00011639 00000093 832.84 147.03 553.07 806.64 1008.93 491.25 1267.03 471.60 1174.17 666.17 1053.14 782.29 1259.79 766.24
00011640 00000094 834.59 150.11 552.98 813.59 1012.12 494.18 1268.57 473.98 1177.31 669.80 1055.82 787.14 1260.98 770.87
00011641 00000095 836.38 154.72 555.06 813.65 1014.95 497.32 1271.24 478.79 1178.38 673.82 1057.41 789.69 1262.95 774.54
00011642 00000096 837.46 155.04 557.72 821.15 1015.21 501.25 1270.64 481.60 1178.32 675.48 1059.41 792.75 1265.49 776.39
00011643 00000097 836.19 161.40 559.25 816.33 1011.19 504.12 1267.11 485.65 1172.41 674.08 1056.41 792.45 1263.27 776.49
00011644 00000098 832.48 156.86 558.88 815.16 1007.86 500.25 1262.39 484.01 1167.27 673.91 1047.69 787.10 1258.86 772.98
00011645 00000099 829.54 150.10 559.19 819.05 1005.16 494.59 1255.05 481.27 1157.42 671.02 1034.63 772.44 1250.42 760.64
00011646 00000100 825.38 143.71 560.35 822.23 999.35 490.33 1248.20 477.01 1147.70 667.49 1026.59 765.66 1245.51 753.75
00011647 00000101 825.87 143.03 555.82 814.19 993.21 482.86 1239.68 471.24 1135.14 656.21 1022.01 758.28 1239.46 747.59
00011648 DELETE   827.64 106.38 555.19 855.74 975.91 472.62 1228.97 464.83 1104.66 639.18 1001.04 751.17 1220.80 744.55
00011649 DELETE   815.55 106.80 566.08 821.25 960.70 446.43 1212.80 444.45 1083.25 617.95 988.40 734.63 1196.76 733.09
00011650 DELETE   820.09 100.63 562.53 811.05 951.66 430.51 1194.70 441.81 1049.48 601.47 969.14 713.29 1164.80 723.93
00011651 00000105 829.50 99.19 559.53 811.17 953.00 419.52 1186.74 443.38 1030.45 590.38 959.37 703.69 1147.32 725.15
00011652 DELETE   855.16 92.16 551.70 821.53 970.56 415.63 1196.35 450.08 1029.29 585.48 968.54 694.20 1149.29 724.08
00011653 00000107 875.50 89.29 553.59 819.89 985.00 411.82 1215.59 447.05 1039.40 584.45 979.65 688.26 1169.98 718.43
00011654 DELETE   882.55 84.88 554.76 827.67 998.19 411.68 1220.65 460.72 1045.03 582.24 982.24 676.65 1175.08 718.37
00011655 DELETE   892.54 94.04 559.77 820.19 1004.63 399.65 1222.14 455.60 1031.62 570.30 980.15 669.81 1171.79 716.88
00011656 DELETE   902.95 93.81 557.03 826.21 1014.28 392.80 1226.30 455.25 1030.15 563.43 982.99 667.77 1173.89 720.16
00011657 00000111 910.07 98.95 555.88 821.53 1024.62 388.77 1237.66 456.44 1038.68 562.46 989.83 666.63 1177.28 723.38
00011658 00000112 916.03 105.54 551.75 813.53 1029.52 389.56 1242.83 459.41 1042.84 563.41 991.70 666.44 1178.23 725.22
00011659 00000113 913.47 104.81 549.90 813.16 1026.11 388.25 1239.59 461.28 1039.01 567.24 986.00 664.60 1173.49 726.31
00011660 00000114 909.88 107.17 546.06 800.97 1017.90 388.01 1234.45 460.59 1034.25 568.07 978.98 664.86 1159.56 727.04
00011661 00000115 903.54 107.28 548.30 800.14 1011.56 390.12 1229.30 460.96 1029.94 568.82 974.12 669.00 1153.84 729.69
00011662 00000116 899.63 113.72 548.14 797.31 1008.47 395.76 1228.39 464.95 1031.39 574.27 971.21 671.21 1155.35 730.48
CROP_BBOX: 551 0 1850 1080
