Video ID: 	TAycZroVIeU
H: 	1080
W: 	1920
FPS: 	25.0

FRAME INDEX X0 Y0 W H [Landmarks (5 Points)]

00000214 00000000 564.96 129.77 466.67 653.04 792.11 396.09 978.63 377.83 950.56 520.47 817.13 622.41 973.99 607.14
00000215 DELETE   565.62 112.97 464.47 665.89 779.28 399.83 969.86 372.50 939.42 513.33 810.55 624.00 965.81 602.25
00000216 DELETE   548.42 118.60 469.33 660.51 777.15 392.48 958.25 371.70 932.68 509.92 806.10 620.20 956.37 601.77
00000217 00000003 545.08 108.82 464.89 668.62 758.95 396.50 952.13 367.42 925.64 505.97 798.22 617.20 955.17 594.44
00000218 00000004 535.35 121.43 462.47 652.06 754.00 386.56 945.69 362.29 920.41 502.54 790.97 619.51 947.43 597.86
00000219 00000005 526.87 116.85 462.53 658.95 748.55 382.33 938.65 357.78 914.79 499.38 781.80 617.36 937.98 595.74
00000220 00000006 521.14 115.45 463.59 659.30 742.24 378.71 934.06 355.44 908.80 496.53 775.81 614.98 931.56 594.07
00000221 00000007 510.47 111.78 470.08 665.83 737.44 377.21 928.87 355.54 904.84 497.74 769.70 614.33 924.99 594.56
00000222 00000008 504.98 115.17 470.49 664.99 731.23 377.15 922.94 360.06 895.73 500.21 759.89 610.90 920.37 594.98
00000223 00000009 501.00 114.06 470.53 667.66 726.90 378.22 916.76 363.56 887.28 503.92 756.03 611.77 913.30 597.59
00000224 00000010 498.99 116.44 469.73 667.64 724.47 381.72 912.57 363.86 884.83 508.17 751.83 614.54 909.53 598.16
00000225 00000011 498.09 119.96 469.36 668.38 723.61 387.53 909.40 368.13 882.38 515.34 749.24 620.78 906.43 603.59
00000226 00000012 502.46 123.44 467.86 666.96 725.67 392.66 914.22 371.09 885.15 518.75 753.11 625.82 911.05 607.20
00000227 00000013 506.42 121.08 468.27 670.61 732.97 392.54 920.29 370.11 893.96 517.04 760.12 627.13 916.60 607.65
00000228 00000014 513.47 118.31 467.17 673.63 739.59 393.27 926.29 369.20 902.76 513.83 769.58 629.95 924.26 608.91
00000229 00000015 524.10 121.01 464.25 667.58 744.65 393.95 931.78 367.85 906.12 511.40 778.92 629.42 934.52 606.46
00000230 00000016 533.79 122.62 464.16 663.98 753.15 392.76 941.90 369.68 915.32 510.69 787.61 627.94 944.95 607.55
00000231 00000017 542.16 113.83 469.38 673.88 756.93 397.74 951.21 370.97 922.60 511.89 796.15 624.58 953.42 603.30
00000232 00000018 543.50 119.48 469.01 669.19 773.44 393.39 951.19 374.70 924.81 515.12 798.19 624.22 948.46 607.90
00000233 00000019 547.12 119.22 470.29 669.92 777.48 394.06 956.01 375.35 929.68 516.26 804.37 626.55 953.26 610.26
00000234 00000020 550.28 117.66 470.56 673.13 780.91 395.63 958.71 375.77 933.58 518.25 807.84 628.55 956.08 611.42
00000235 00000021 553.87 118.02 470.80 673.76 782.90 397.92 960.84 378.65 933.72 521.24 811.45 629.96 958.69 613.25
00000236 00000022 558.73 122.73 468.20 669.19 783.72 399.32 964.19 379.19 935.21 524.92 811.82 631.17 961.90 614.22
00000237 00000023 560.28 125.73 468.99 670.77 784.24 402.93 965.02 380.88 936.63 527.73 812.68 634.16 964.68 615.96
00000238 00000024 562.37 130.06 468.62 673.34 784.70 406.83 965.91 383.09 938.68 532.86 814.07 640.14 968.07 620.67
00000239 00000025 565.59 135.22 469.03 678.14 787.49 411.92 969.44 386.00 943.81 537.06 816.64 647.55 973.04 626.52
00000240 00000026 569.73 140.07 466.03 681.05 792.00 417.38 972.86 391.35 949.16 541.26 822.52 656.03 976.47 634.64
00000241 00000027 574.12 146.76 463.06 678.56 793.39 424.52 973.81 400.00 948.85 546.58 825.64 661.10 979.44 640.75
00000242 00000028 574.83 154.34 464.42 676.79 792.80 429.62 975.14 403.91 949.45 550.83 825.87 664.65 981.47 643.54
00000243 00000029 571.00 164.99 474.21 673.71 792.34 424.57 985.65 406.15 953.78 551.49 830.98 666.59 991.46 648.30
00000244 00000030 572.21 168.61 475.54 671.00 792.61 426.48 987.13 408.23 954.16 552.93 832.43 668.98 992.60 650.74
00000245 00000031 571.66 169.74 477.25 672.91 793.16 429.50 987.87 410.28 954.92 556.01 832.27 672.10 992.36 653.13
00000246 00000032 572.65 172.86 476.15 672.07 794.85 433.02 989.32 413.22 956.82 560.29 831.73 675.33 991.35 656.12
00000247 00000033 573.22 173.27 476.10 671.59 794.88 434.19 989.34 414.66 956.49 560.93 832.06 675.94 991.02 656.95
00000248 00000034 573.81 174.44 474.29 670.85 793.68 435.20 988.59 415.27 955.34 561.83 831.40 676.94 990.26 657.55
00000249 00000035 573.81 174.05 474.17 671.81 793.03 436.40 988.34 415.88 954.90 562.86 830.34 677.45 989.63 657.69
00000250 00000036 573.44 173.79 474.26 672.01 793.12 436.96 988.22 415.99 955.24 562.89 830.35 677.53 989.50 657.41
00000251 00000037 573.97 173.41 474.46 671.11 793.38 435.24 988.63 415.08 954.85 561.56 831.02 676.32 990.44 656.75
00000252 00000038 572.75 174.23 475.63 670.39 793.40 433.55 987.88 413.17 955.13 560.55 830.98 674.80 990.97 655.05
00000253 00000039 571.10 172.68 476.79 671.46 792.86 431.87 986.62 412.38 954.15 559.01 830.13 672.45 990.48 653.32
00000254 00000040 569.07 171.68 476.89 672.44 790.26 432.62 983.37 413.34 950.40 559.33 826.60 670.55 987.80 651.57
00000255 00000041 567.69 174.53 475.26 667.00 786.20 432.53 979.83 412.75 945.18 559.39 821.95 668.76 983.95 649.56
00000256 00000042 565.49 173.36 473.99 667.53 783.15 431.33 977.35 412.62 940.59 560.24 818.18 666.61 981.88 648.25
00000257 00000043 568.13 165.94 465.92 669.97 780.17 439.50 966.60 410.14 935.22 561.63 813.50 671.75 969.84 648.59
00000258 00000044 564.91 166.65 467.87 668.97 779.10 440.34 963.65 410.35 933.35 561.49 811.78 671.30 966.80 647.81
00000259 00000045 563.51 164.62 468.03 670.17 777.79 439.85 961.85 408.39 932.49 560.70 811.05 671.83 964.93 647.17
00000260 00000046 562.19 165.29 468.06 668.85 777.00 438.48 960.05 407.13 931.75 559.71 810.26 671.19 963.06 646.69
00000261 00000047 561.72 159.96 466.00 671.03 776.82 437.00 957.73 407.28 929.82 556.61 808.79 668.29 961.07 645.05
00000262 00000048 560.04 156.75 465.61 672.27 775.58 434.99 955.11 405.60 928.56 554.17 806.28 666.05 958.52 643.15
00000263 00000049 556.46 157.64 467.60 670.67 772.94 433.01 952.82 404.04 926.95 552.66 802.79 664.26 955.67 641.88
00000264 00000050 554.63 159.99 467.48 668.05 771.10 432.17 950.91 402.73 925.88 551.76 800.81 663.31 954.13 640.64
00000265 00000051 551.76 159.82 467.37 666.89 766.90 431.86 947.75 402.75 922.40 551.12 796.18 661.09 951.46 638.64
00000266 00000052 549.43 155.65 466.77 670.73 764.20 432.04 944.76 404.01 918.28 550.20 793.12 659.46 949.04 637.58
00000267 00000053 548.18 154.40 465.23 672.59 760.42 431.47 942.18 403.54 914.13 549.53 789.14 658.26 947.13 636.37
00000268 00000054 545.13 155.83 465.71 672.10 756.83 430.19 940.65 403.60 911.89 548.64 784.65 656.91 944.83 636.14
00000269 00000055 541.59 153.91 464.80 675.12 753.42 428.77 938.05 402.48 910.97 546.57 779.69 655.19 943.27 634.72
00000270 00000056 535.97 161.22 467.20 666.91 752.59 421.05 939.22 393.71 919.31 544.72 782.43 656.55 945.17 633.83
00000271 00000057 533.63 158.33 466.65 671.61 749.66 421.04 935.90 391.56 915.94 544.54 778.51 657.30 941.72 632.94
00000272 00000058 532.71 161.16 465.70 668.99 746.81 420.46 934.59 391.89 912.18 546.19 775.98 656.85 940.03 632.99
00000273 00000059 530.85 161.73 467.78 669.99 744.28 422.31 933.35 392.18 909.61 549.05 772.80 657.58 939.04 632.45
00000274 00000060 528.80 162.30 468.97 669.80 743.79 424.23 932.65 393.82 908.69 552.46 770.04 657.64 937.29 632.39
00000275 00000061 530.29 161.06 470.01 669.59 743.62 424.26 933.41 393.67 908.33 552.93 770.24 657.37 938.18 632.04
00000276 00000062 529.95 161.02 470.26 668.41 744.19 423.66 932.65 393.20 908.22 551.95 769.92 655.14 937.84 629.94
00000277 00000063 535.49 151.60 463.41 669.82 745.64 431.81 930.27 401.83 904.00 549.24 764.42 648.65 936.12 626.00
00000278 00000064 534.80 148.33 463.40 670.59 743.76 431.48 929.70 401.32 902.56 549.19 761.42 646.84 934.87 623.99
00000279 00000065 535.27 141.50 461.93 676.23 743.86 428.15 925.61 397.81 900.48 547.06 761.55 645.27 933.63 621.81
00000280 00000066 535.77 139.60 461.44 677.69 741.80 425.69 923.21 396.41 896.68 545.86 760.51 643.57 933.07 620.75
00000281 00000067 535.29 139.43 461.30 677.70 741.70 424.29 921.71 395.70 895.37 544.10 761.09 642.95 931.71 620.61
00000282 00000068 525.36 150.22 469.40 670.55 737.43 420.32 922.05 389.77 896.07 542.98 761.22 644.62 930.06 618.68
00000283 00000069 526.13 152.62 468.85 666.56 736.05 414.86 923.64 384.80 895.44 540.72 758.89 640.89 931.77 615.50
00000284 00000070 525.98 152.17 469.22 665.98 735.28 412.22 922.97 383.19 893.17 538.42 754.20 635.56 930.09 611.23
00000285 00000071 526.78 156.62 470.16 668.60 732.94 413.61 922.01 384.92 890.75 540.03 747.48 634.98 932.08 611.24
00000286 00000072 525.28 157.29 474.07 675.86 732.82 413.41 922.56 386.70 890.76 541.83 740.18 635.29 930.15 613.57
00000287 00000073 525.12 157.84 476.07 679.70 732.34 413.05 923.83 386.56 891.20 542.02 737.31 636.01 931.01 614.69
00000288 00000074 525.45 154.91 477.39 682.09 733.62 411.28 924.20 386.38 890.93 539.77 736.12 633.67 929.98 613.79
00000289 00000075 533.94 135.88 467.92 690.51 741.20 406.36 918.61 382.76 895.51 527.12 740.16 628.07 928.09 610.76
00000290 00000076 538.00 148.12 464.28 682.67 744.93 403.80 924.68 383.10 895.40 526.76 743.52 629.45 931.19 611.91
00000291 00000077 541.02 139.55 464.03 691.42 747.15 401.14 924.93 378.42 896.67 521.55 747.40 625.91 933.43 606.48
00000292 00000078 541.06 139.10 465.74 692.26 747.82 398.08 925.26 374.20 897.01 516.23 748.01 622.57 934.50 602.11
00000293 00000079 536.19 126.14 470.24 695.75 747.60 398.10 921.62 369.63 903.24 515.18 743.06 617.56 934.21 595.70
00000294 00000080 539.74 128.29 469.27 688.59 748.20 404.17 925.81 371.49 905.03 519.32 747.92 618.78 941.13 593.51
00000295 00000081 544.45 130.59 467.32 684.46 749.04 409.98 929.09 376.38 906.63 526.90 753.28 622.60 946.44 596.90
00000296 00000082 547.20 139.35 466.17 679.70 751.23 417.24 934.17 381.63 914.67 535.79 755.89 630.10 950.05 603.66
00000297 00000083 550.00 137.89 465.74 687.96 755.65 426.60 938.27 387.74 920.34 545.33 761.13 638.67 955.53 609.64
00000298 00000084 547.39 151.33 472.70 690.64 761.96 425.64 946.32 390.47 926.04 549.98 766.00 646.32 958.30 616.92
00000299 00000085 547.25 155.07 473.60 689.27 762.54 426.73 947.14 392.03 926.00 551.94 765.07 645.74 959.78 616.85
00000300 00000086 546.24 155.53 474.13 690.70 762.18 433.24 948.46 399.67 925.03 563.17 759.09 650.80 956.51 623.25
00000301 00000087 548.77 152.33 472.09 693.36 756.09 440.22 946.49 408.07 919.32 566.08 751.35 650.54 951.45 628.03
00000302 00000088 549.41 157.26 471.42 689.56 758.34 440.85 948.83 413.18 918.17 571.08 749.06 653.01 945.93 634.50
00000303 00000089 549.37 156.09 471.51 687.79 760.58 439.92 951.29 413.41 918.92 572.63 747.94 652.33 943.56 635.09
00000304 00000090 546.66 158.56 472.47 685.07 756.04 438.81 948.47 415.67 912.29 573.38 742.01 650.42 939.01 636.01
00000305 00000091 543.41 157.84 472.29 681.06 747.90 436.73 944.12 414.84 904.46 572.23 734.17 646.69 935.26 633.24
00000306 00000092 540.62 155.86 470.30 677.58 742.87 432.05 939.08 408.10 901.74 566.88 729.48 641.35 932.20 626.35
00000307 00000093 540.28 150.80 469.58 678.17 744.26 428.94 938.37 403.16 904.06 563.09 731.09 637.11 933.71 620.74
00000308 00000094 539.87 146.08 468.99 675.21 744.03 423.91 936.74 399.50 901.12 557.21 729.69 628.74 932.77 613.40
00000309 00000095 538.31 144.46 466.36 673.45 742.53 418.84 934.19 397.26 897.53 553.25 726.08 625.17 927.47 611.99
00000310 00000096 537.62 146.91 465.71 665.95 744.14 414.18 934.18 394.84 896.87 552.09 724.88 622.84 921.50 611.79
00000311 00000097 535.64 144.97 465.84 664.22 745.72 409.56 931.48 392.23 895.26 547.16 721.22 619.39 912.94 610.10
00000312 00000098 534.94 143.62 463.77 662.14 743.83 408.45 928.39 391.10 892.11 544.45 719.05 617.45 908.95 607.91
00000313 00000099 532.43 146.61 462.79 657.82 741.04 407.63 924.74 390.50 890.40 542.06 718.18 617.13 907.14 607.55
00000314 00000100 526.10 151.51 467.00 653.70 737.38 408.41 920.86 391.11 888.11 541.08 716.47 618.47 903.72 608.72
00000315 00000101 524.01 152.08 466.22 652.23 734.32 410.10 917.97 391.40 885.51 541.51 714.63 617.68 901.65 606.63
00000316 00000102 523.10 153.31 465.27 652.48 731.05 413.72 915.64 393.79 882.58 543.72 713.59 619.61 901.71 607.28
00000317 00000103 521.02 152.61 464.77 656.29 727.63 418.21 912.88 395.03 881.09 547.16 712.19 623.32 902.45 608.28
00000318 00000104 521.59 154.24 462.95 655.71 725.98 421.87 910.88 396.14 879.89 549.10 713.83 624.87 904.22 607.65
00000319 00000105 525.73 156.53 461.43 655.60 726.65 423.74 911.72 398.81 879.13 550.17 715.50 625.26 907.28 608.61
00000320 00000106 531.10 161.84 459.43 651.66 729.52 424.28 915.92 400.89 882.03 550.60 718.88 625.82 911.87 610.75
00000321 00000107 539.81 159.48 453.87 656.35 732.71 425.89 918.75 402.62 883.00 550.95 722.42 627.81 914.86 612.99
00000322 00000108 542.17 161.27 453.83 654.26 734.76 427.03 922.47 403.66 887.02 551.93 724.53 627.90 919.20 613.24
00000323 00000109 548.03 160.43 452.67 656.01 736.45 429.44 927.02 405.25 888.21 551.66 727.72 628.31 926.34 612.86
00000324 00000110 551.70 159.56 455.98 656.45 738.60 430.80 931.98 404.03 891.67 552.73 732.63 628.32 934.14 610.85
00000325 00000111 556.01 157.75 456.30 657.25 741.48 430.90 936.61 402.77 896.09 554.85 737.43 629.16 940.93 610.54
00000326 00000112 559.91 159.10 457.45 659.39 748.32 431.64 939.47 403.56 901.80 556.46 743.63 631.47 944.91 612.84
00000327 00000113 564.89 158.58 457.17 659.25 757.67 433.34 945.97 403.83 910.85 558.98 750.28 631.95 951.12 612.27
00000328 00000114 568.71 162.85 456.44 659.02 763.82 434.47 950.17 403.46 918.48 561.50 756.20 635.52 955.01 614.79
00000329 00000115 572.05 164.31 455.99 660.10 769.63 435.51 954.90 404.12 923.84 564.92 761.05 637.92 958.25 616.73
00000330 00000116 574.38 165.08 456.30 659.50 771.11 435.28 958.05 403.73 925.83 565.11 762.56 637.81 961.75 616.40
00000331 00000117 575.36 167.21 455.72 656.67 772.18 434.80 958.78 401.89 927.85 565.22 763.66 637.41 962.47 615.08
00000332 00000118 576.24 162.63 455.03 657.06 773.00 432.70 959.74 400.21 928.49 561.01 762.93 633.21 962.71 611.28
00000333 00000119 574.70 160.35 456.56 651.72 772.65 430.62 959.43 395.74 928.65 560.02 762.79 629.97 961.20 606.57
00000334 00000120 572.36 156.22 459.39 651.20 771.78 426.19 957.35 392.60 925.79 556.67 761.23 626.86 957.42 604.66
00000335 00000121 569.62 147.38 460.60 656.20 767.97 419.98 952.95 389.89 919.70 548.86 757.51 621.17 955.91 601.14
00000336 00000122 567.07 136.42 459.90 662.31 762.75 411.66 947.28 381.08 914.62 537.26 755.08 611.87 956.67 590.21
00000337 00000123 564.86 127.14 460.80 669.25 763.09 402.57 946.85 373.98 916.68 528.89 755.21 607.13 957.28 585.94
00000338 00000124 564.90 126.52 462.77 670.76 766.24 398.92 948.60 371.38 922.00 522.72 758.74 604.68 960.58 584.26
00000339 00000125 569.52 128.45 461.84 669.40 772.94 400.13 953.61 372.16 927.69 524.83 767.01 608.50 963.03 587.81
00000340 00000126 575.14 131.74 460.50 671.37 777.98 405.60 960.32 378.29 931.95 532.24 770.24 612.42 966.36 592.81
00000341 00000127 578.97 132.83 461.25 673.94 780.67 408.40 966.30 380.33 935.12 537.32 771.63 614.65 971.57 594.65
00000342 00000128 584.72 132.39 461.66 676.26 784.59 410.55 972.35 384.32 936.84 540.01 776.31 615.60 978.28 596.85
00000343 00000129 589.67 131.31 462.60 683.18 794.65 410.82 980.83 387.54 946.04 541.71 783.72 617.86 984.21 600.84
00000344 00000130 605.93 130.22 459.10 680.35 803.72 408.75 988.35 386.71 955.72 531.01 791.70 617.64 988.46 602.30
00000345 DELETE   613.77 135.03 458.66 677.96 805.05 413.67 993.79 391.87 957.42 528.40 793.38 620.37 993.26 605.37
00000346 00000132 618.03 134.09 460.94 684.93 813.75 418.59 1004.31 394.15 967.80 544.91 800.26 624.10 1005.84 607.29
00000347 00000133 621.75 134.04 462.30 687.09 820.95 423.45 1013.53 399.25 978.08 551.34 812.31 631.08 1015.20 614.43
00000348 00000134 624.13 143.44 463.12 679.44 831.32 423.67 1017.96 398.28 990.53 551.95 820.45 634.39 1017.58 617.50
00000349 00000135 624.99 148.53 462.36 677.94 831.80 426.94 1019.29 400.60 993.71 556.81 821.01 638.71 1018.92 621.28
00000350 00000136 622.64 149.07 462.35 683.65 824.86 431.02 1014.94 405.78 984.12 559.64 816.32 643.33 1014.48 626.46
00000351 00000137 616.69 156.25 462.97 684.52 816.69 437.67 1009.82 416.16 975.12 566.63 808.89 647.80 1006.47 633.88
00000352 00000138 611.21 163.38 463.70 684.20 811.50 447.81 1005.74 427.31 967.07 574.01 801.59 655.88 996.54 642.73
00000353 00000139 605.00 168.51 466.55 682.00 809.51 452.62 1002.69 429.80 967.44 577.75 799.73 659.94 993.50 644.44
00000354 00000140 601.00 175.26 467.15 679.57 807.48 454.67 999.65 433.63 964.18 582.79 793.85 659.86 989.13 645.70
00000355 DELETE   597.61 175.54 465.30 686.43 796.32 450.30 991.84 436.87 946.89 585.06 777.12 658.84 979.84 650.24
00000356 DELETE   589.48 169.74 464.88 687.65 782.56 442.34 981.53 437.14 925.81 584.59 760.10 654.78 966.17 652.91
00000357 00000143 593.05 156.04 467.51 691.69 788.26 432.22 986.87 429.96 931.69 573.49 766.88 644.98 971.35 645.25
00000358 DELETE   606.47 153.43 468.85 692.20 812.63 430.15 1003.90 424.05 964.49 560.51 795.04 643.67 990.61 641.60
00000359 DELETE   623.89 150.66 466.39 690.60 842.55 428.35 1023.35 411.27 1000.09 559.25 826.48 645.17 1016.19 635.07
00000360 00000146 629.74 161.67 469.45 680.44 860.25 423.41 1040.94 410.12 1012.66 564.60 843.02 647.65 1026.36 637.12
00000361 00000147 629.35 160.65 469.99 683.90 857.83 423.70 1039.78 410.27 1010.47 566.28 835.23 647.53 1023.48 637.26
00000362 00000148 626.15 161.84 470.30 680.24 851.16 424.20 1035.34 406.95 1005.19 566.51 829.09 645.85 1021.89 632.74
00000363 00000149 626.56 164.88 468.88 673.80 848.23 424.71 1034.57 406.86 1003.30 566.48 827.99 645.69 1022.61 632.14
00000364 00000150 633.46 151.43 464.91 680.79 846.64 427.78 1031.92 406.76 1004.35 564.19 828.96 642.09 1024.70 629.29
00000365 00000151 638.63 152.64 465.36 677.10 853.05 430.13 1039.37 410.44 1007.34 567.16 835.29 642.81 1029.25 630.95
00000366 00000152 643.02 152.25 467.35 678.71 858.45 431.23 1044.40 409.35 1011.13 572.70 841.12 642.98 1034.54 629.31
00000367 00000153 650.99 156.51 470.52 677.29 868.48 434.00 1057.25 414.76 1025.44 569.95 848.05 645.91 1038.73 634.13
00000368 00000154 656.52 156.09 471.36 677.58 875.93 430.74 1063.51 415.02 1034.44 564.41 855.81 645.40 1044.07 636.46
00000369 00000155 660.28 153.14 473.87 680.49 877.81 428.53 1069.08 413.14 1038.05 562.03 859.82 643.35 1052.20 634.52
00000370 00000156 664.52 151.48 473.03 683.45 879.92 429.64 1073.72 415.14 1038.96 564.88 859.89 643.55 1054.16 635.55
00000371 00000157 670.57 150.74 469.79 685.48 882.32 430.49 1076.86 417.19 1039.01 566.33 860.12 643.63 1055.82 636.77
00000372 00000158 671.08 150.23 470.37 685.85 883.33 432.14 1079.19 418.52 1040.44 567.91 859.97 643.73 1057.02 636.75
00000373 00000159 671.79 148.24 471.15 690.15 883.67 433.44 1080.25 420.91 1039.88 569.95 861.04 645.20 1057.71 638.98
00000374 00000160 672.32 150.01 470.39 693.95 883.16 434.25 1078.96 424.45 1037.01 569.60 861.05 645.92 1056.65 641.47
00000375 00000161 670.63 150.90 470.54 692.19 881.96 435.12 1077.26 425.52 1036.80 568.97 861.19 647.25 1055.62 642.69
00000376 00000162 667.85 156.47 471.57 686.88 880.24 436.00 1075.38 426.15 1035.84 570.22 860.59 647.87 1055.26 643.10
00000377 00000163 664.00 160.84 472.62 685.64 878.64 438.90 1072.13 429.06 1033.72 573.65 857.51 650.30 1050.98 645.45
00000378 00000164 657.75 163.95 475.25 685.48 876.65 442.58 1067.69 431.01 1032.70 577.56 853.56 654.12 1044.80 647.85
00000379 00000165 656.82 167.37 472.11 687.17 873.80 445.83 1065.49 434.11 1029.55 581.41 848.55 657.82 1042.66 651.30
00000380 00000166 652.28 174.17 471.97 682.58 871.16 451.39 1061.54 435.70 1027.43 587.42 846.93 662.39 1039.68 652.75
00000381 00000167 650.82 176.19 470.80 681.84 870.82 455.05 1060.53 437.06 1027.75 589.67 846.56 664.53 1038.66 653.13
00000382 00000168 650.70 179.16 469.99 677.63 869.94 455.17 1059.10 437.92 1025.81 590.20 846.65 664.65 1037.61 653.91
00000383 00000169 650.47 179.81 470.30 678.12 870.35 455.75 1059.22 439.41 1025.84 590.87 846.39 665.20 1036.90 655.24
