Video ID: 	zQWGmWbs3Ac
H: 	1056
W: 	1920
FPS: 	29.674

FRAME INDEX X0 Y0 W H [Landmarks (5 Points)]

00000964 00000000 697.54 190.31 406.57 614.20 789.22 417.04 976.80 416.24 872.34 534.94 810.92 655.98 947.91 655.02
00000965 DELETE   699.02 186.24 407.42 616.48 789.34 413.28 978.93 411.54 871.70 532.40 813.17 653.18 952.48 651.06
00000966 00000002 700.29 181.24 406.51 622.99 791.49 411.25 980.37 410.03 873.27 529.13 814.60 649.97 954.65 648.21
00000967 00000003 701.27 183.74 405.19 618.33 792.63 409.74 979.61 408.09 873.69 527.37 815.37 647.32 954.27 645.28
00000968 00000004 702.53 185.70 405.41 617.02 793.50 408.49 981.13 407.24 874.06 526.46 815.57 646.79 954.46 645.08
00000969 00000005 703.46 184.33 405.78 617.07 794.12 408.93 982.10 407.87 874.28 527.29 815.96 647.10 954.73 645.52
00000970 00000006 705.11 187.75 405.44 614.04 794.80 408.41 983.52 407.35 873.89 526.88 816.87 647.05 955.27 645.46
00000971 00000007 705.62 190.36 405.30 610.91 795.43 407.67 984.04 406.78 874.15 526.89 817.30 646.23 955.85 644.83
00000972 00000008 706.92 191.99 404.58 609.78 796.61 407.12 985.35 406.40 875.40 526.02 818.24 645.35 956.94 644.09
00000973 00000009 708.12 191.57 404.82 610.76 798.09 406.95 987.74 406.02 877.09 525.04 818.74 645.07 959.01 643.62
00000974 00000010 709.94 194.51 404.01 607.75 799.60 407.15 989.55 406.68 878.45 524.74 819.69 644.04 961.10 642.88
00000975 00000011 711.00 194.72 405.02 607.52 800.35 407.32 991.86 407.03 879.22 524.64 820.16 644.15 962.78 643.18
00000976 00000012 712.96 193.49 405.23 611.91 801.98 407.82 993.07 407.24 879.61 524.89 820.91 645.29 964.56 644.05
00000977 00000013 714.88 195.61 402.35 613.38 803.40 406.84 994.39 406.27 880.58 524.20 820.98 646.54 965.66 645.31
00000978 00000014 716.04 193.36 400.34 617.41 804.37 405.50 996.27 404.70 881.27 523.78 821.51 647.46 967.62 645.96
00000979 00000015 716.44 194.50 402.32 609.77 804.04 406.21 998.01 405.83 881.76 523.04 821.85 644.46 971.27 643.20
00000980 00000016 715.77 192.41 406.28 607.68 804.60 405.01 1001.88 405.10 885.23 521.63 823.46 641.24 975.99 639.99
00000981 00000017 714.83 190.26 410.76 606.76 804.67 406.04 1004.17 405.00 886.94 519.92 824.26 637.84 979.26 635.41
00000982 00000018 715.10 193.16 411.35 604.54 805.43 405.53 1004.95 405.68 887.07 519.14 823.14 635.88 979.74 634.41
00000983 00000019 715.11 193.38 411.20 605.24 805.19 405.32 1005.46 405.91 886.19 518.86 821.24 636.74 978.66 635.71
00000984 00000020 716.12 194.30 411.32 604.21 805.70 405.38 1005.34 405.91 885.66 518.80 821.96 637.12 977.96 636.07
00000985 00000021 717.91 192.43 410.02 603.45 805.72 406.87 1004.64 406.37 885.22 520.11 824.23 637.88 978.23 636.08
00000986 00000022 720.09 186.90 407.20 596.46 805.15 408.71 1003.78 407.29 885.39 522.64 827.53 638.31 977.55 636.16
00000987 00000023 721.27 188.25 407.68 592.04 806.71 409.64 1004.20 407.10 886.38 521.50 829.86 637.86 977.20 634.59
00000988 00000024 723.36 190.02 407.30 590.54 808.63 411.60 1003.91 408.07 887.51 522.91 832.07 637.60 978.30 633.76
00000989 00000025 722.97 187.77 408.58 597.17 809.17 413.96 1005.32 409.06 888.66 525.28 834.81 641.15 981.65 636.12
00000990 00000026 725.48 181.24 404.93 606.74 811.40 407.64 1008.51 411.60 894.46 523.98 829.41 632.01 979.22 636.55
00000991 00000027 724.25 180.92 405.68 610.63 811.47 407.75 1008.32 412.56 894.44 524.94 827.97 632.99 976.94 638.50
00000992 00000028 724.42 181.23 405.10 613.55 811.36 407.87 1007.71 413.43 892.84 525.68 825.54 634.16 975.24 640.36
00000993 00000029 722.51 185.69 407.31 613.45 808.35 413.55 1005.69 411.74 886.21 531.83 828.10 648.03 978.94 645.58
00000994 00000030 723.93 180.12 405.29 617.61 811.02 410.75 1006.93 416.58 891.53 530.93 822.99 636.14 975.60 642.51
00000995 00000031 723.32 179.43 405.01 614.60 809.54 411.11 1008.06 415.85 892.06 532.30 822.94 636.13 978.45 641.43
00000996 00000032 722.88 178.80 405.82 617.86 810.88 412.61 1006.42 418.13 891.11 533.23 822.38 635.99 975.53 642.14
00000997 00000033 721.51 181.93 404.75 620.89 808.28 416.95 1004.24 417.08 884.84 539.21 825.03 651.62 977.26 650.87
00000998 00000034 721.03 183.84 402.89 616.55 807.36 420.52 1002.89 419.41 884.99 542.34 824.60 653.08 976.30 651.54
00000999 00000035 720.91 184.65 401.20 609.31 807.52 423.28 1003.27 422.60 886.83 544.78 822.90 650.12 978.13 649.47
00001000 00000036 726.70 181.01 397.46 612.19 811.04 424.42 1001.21 430.28 892.65 540.24 823.46 640.46 974.98 646.79
00001001 00000037 724.72 182.92 397.59 610.08 808.79 424.43 1001.52 429.71 892.57 539.91 821.78 641.51 973.95 647.46
00001002 00000038 717.19 179.23 400.36 615.86 803.69 427.56 998.39 426.21 884.90 545.86 820.69 654.05 974.14 653.07
00001003 00000039 722.25 176.40 400.46 618.92 806.26 423.35 1001.36 428.77 889.97 544.36 819.30 643.41 970.76 649.50
00001004 00000040 719.83 177.93 403.14 618.32 805.05 424.52 1001.63 430.34 890.20 548.13 818.03 644.72 967.98 651.37
00001005 00000041 718.50 176.54 404.03 618.67 804.64 426.89 999.42 433.78 889.89 552.65 819.62 648.48 962.09 656.16
00001006 00000042 716.68 178.09 405.51 621.11 802.36 427.61 996.30 434.98 888.33 555.76 818.81 652.06 958.76 660.16
00001007 00000043 709.40 178.78 409.66 626.97 798.54 429.74 992.15 429.56 880.81 556.84 820.60 666.77 964.06 665.59
00001008 00000044 709.08 179.01 409.10 634.80 797.66 426.81 989.68 427.32 877.61 555.63 818.33 667.20 962.81 666.35
00001009 00000045 707.08 179.13 411.26 635.51 796.48 426.36 989.27 427.54 877.10 554.69 816.44 666.40 961.71 666.22
00001010 00000046 703.85 177.33 414.70 633.16 795.52 427.19 990.41 428.79 878.48 555.56 814.36 663.06 964.01 663.04
00001011 00000047 702.62 175.80 414.65 632.21 793.85 426.89 989.02 429.56 876.53 554.52 812.11 661.49 961.99 662.30
00001012 00000048 701.46 176.25 414.89 633.56 792.28 426.50 987.61 429.27 873.97 552.93 809.79 661.44 960.07 662.41
00001013 00000049 699.43 175.89 415.85 633.03 789.54 426.05 986.24 428.80 872.63 551.90 807.00 660.99 959.89 662.15
00001014 00000050 695.03 175.72 418.67 626.87 785.10 424.60 982.16 428.28 869.35 550.59 803.14 656.53 959.29 658.33
00001015 00000051 694.95 174.85 418.02 627.32 785.11 425.11 982.33 428.66 870.11 550.85 803.33 657.04 959.19 658.77
00001016 00000052 694.49 171.24 414.52 628.61 782.26 432.06 972.79 432.64 864.92 549.60 802.86 655.85 956.59 655.29
00001017 00000053 693.58 170.26 415.00 630.53 780.85 431.79 970.40 431.13 863.39 550.11 803.43 656.36 956.18 654.66
00001018 00000054 692.25 174.32 414.45 633.53 777.90 431.69 969.95 427.93 862.06 553.36 803.34 665.31 955.07 661.26
00001019 00000055 692.44 173.01 414.98 630.24 778.37 431.31 971.55 427.92 865.05 555.06 805.13 670.58 950.12 667.00
00001020 00000056 691.94 172.23 415.99 632.34 776.96 429.72 971.06 425.91 863.78 553.98 806.31 672.80 948.87 668.75
00001021 00000057 692.06 174.48 416.57 629.55 776.58 429.52 971.72 424.56 864.49 553.03 806.51 674.45 949.32 669.72
00001022 00000058 692.14 172.60 416.22 636.96 777.82 426.99 972.03 423.16 864.36 552.35 808.53 675.09 946.69 671.02
00001023 00000059 691.09 174.15 416.49 637.37 778.31 423.45 974.48 418.92 865.94 548.58 811.50 675.47 945.82 670.80
00001024 00000060 690.81 173.05 415.03 638.36 778.61 420.76 975.59 415.99 868.07 544.29 812.78 674.87 948.09 669.84
00001025 00000061 689.62 175.70 419.45 637.57 779.43 416.06 976.79 411.82 869.01 541.78 812.09 669.45 949.62 664.84
00001026 00000062 691.35 173.28 417.75 630.08 780.63 414.04 977.39 411.76 868.72 539.60 810.98 662.46 949.82 659.80
00001027 00000063 691.51 169.74 418.23 633.01 780.10 412.63 979.13 411.04 868.69 537.22 810.01 660.22 952.79 658.11
00001028 00000064 691.87 167.37 418.00 629.86 780.00 412.24 979.64 411.82 868.70 536.95 809.02 657.18 954.84 656.17
00001029 00000065 692.37 169.21 418.05 623.95 781.06 412.06 981.63 412.75 871.30 536.16 808.99 654.09 958.26 653.92
00001030 00000066 692.89 167.56 417.94 621.94 781.72 411.28 982.58 412.52 872.09 535.83 809.02 651.65 959.72 651.72
00001031 00000067 693.24 166.92 418.65 622.16 782.82 410.55 983.45 413.04 872.41 534.92 808.37 649.66 959.38 650.71
00001032 00000068 692.91 167.64 418.39 623.08 782.34 411.00 982.79 412.70 871.98 534.68 808.41 650.92 959.23 651.45
00001033 00000069 693.27 172.71 417.21 621.42 782.85 415.28 980.55 414.91 871.04 537.40 809.41 655.45 955.02 654.65
00001034 00000070 693.41 171.18 414.47 625.45 783.39 419.84 977.51 415.68 871.23 538.37 811.24 657.57 955.21 653.97
00001035 00000071 692.50 165.89 416.05 636.34 782.66 420.98 977.47 416.25 870.62 538.72 810.40 661.38 952.65 657.31
00001036 00000072 690.20 169.72 419.18 639.11 781.66 417.25 976.62 413.89 869.80 538.76 809.01 663.01 950.31 659.76
00001037 00000073 688.06 171.25 421.25 632.74 778.54 416.64 977.43 414.85 868.80 540.24 804.46 661.98 950.53 660.00
00001038 00000074 688.89 169.90 418.70 630.90 775.73 412.57 977.09 412.58 863.72 537.83 799.83 659.38 949.60 659.20
00001039 00000075 688.08 171.33 421.61 627.62 773.25 409.77 976.60 409.96 860.09 535.21 797.92 655.57 950.23 655.37
00001040 00000076 688.23 171.60 422.64 626.47 773.29 408.68 976.50 408.89 859.68 534.02 797.67 652.95 951.22 652.70
00001041 00000077 687.99 171.61 422.76 627.81 772.86 409.73 976.61 408.76 860.31 534.68 798.05 653.91 953.17 652.60
00001042 00000078 687.72 170.46 421.77 631.57 773.33 409.24 976.81 408.76 861.10 535.57 798.55 656.80 950.17 655.93
00001043 00000079 686.09 171.44 423.06 635.86 774.51 409.86 977.55 411.29 863.60 538.05 798.05 659.94 946.03 660.67
00001044 00000080 686.08 174.82 423.15 639.31 774.77 411.88 979.12 413.22 863.94 539.22 795.47 661.51 948.53 661.87
00001045 00000081 685.63 173.90 423.78 641.12 773.85 413.95 978.98 414.79 863.64 542.40 795.35 664.38 948.70 664.42
00001046 00000082 686.20 170.42 424.60 642.90 772.40 416.28 978.38 416.38 862.13 544.39 795.34 665.74 949.87 665.09
00001047 00000083 686.45 170.67 424.37 643.54 772.01 417.94 977.71 418.07 861.43 545.33 794.77 667.17 949.82 666.58
00001048 00000084 687.03 170.95 423.95 641.88 771.69 419.16 977.03 419.05 860.97 546.53 794.09 667.77 949.79 667.00
00001049 00000085 687.45 170.48 422.84 639.56 772.16 419.74 977.00 419.72 861.28 547.33 794.23 666.63 949.66 665.92
00001050 00000086 687.69 171.57 421.21 637.01 772.45 420.04 977.14 420.07 861.58 547.76 794.37 665.99 949.37 665.36
00001051 00000087 688.07 170.98 422.30 637.60 772.84 420.14 977.44 420.30 861.79 547.44 795.69 666.18 949.96 665.63
00001052 00000088 688.31 172.14 422.87 636.50 773.73 420.52 978.32 420.71 862.50 547.51 796.23 666.22 950.27 665.74
00001053 00000089 688.71 172.43 421.72 634.62 773.75 421.55 978.88 421.57 863.03 547.82 795.53 666.23 951.22 665.54
00001054 00000090 688.10 172.91 423.49 634.08 773.67 422.45 979.58 422.02 863.33 548.10 795.96 666.67 952.64 665.54
00001055 00000091 688.34 173.22 423.49 633.11 774.47 422.81 979.70 422.35 864.10 548.31 797.23 666.46 952.76 665.26
00001056 00000092 688.57 172.04 423.58 632.45 774.81 422.67 980.34 422.58 864.90 548.61 797.57 665.59 954.12 664.58
00001057 00000093 689.62 171.51 422.85 631.62 775.72 421.96 980.78 422.27 865.58 548.10 798.86 664.04 955.65 663.30
00001058 00000094 689.70 170.32 423.26 631.64 776.44 421.61 981.22 422.15 866.36 547.49 800.18 663.16 956.44 662.61
00001059 00000095 690.31 170.04 423.62 632.65 777.73 421.08 981.87 421.91 867.12 547.85 800.16 662.22 956.01 661.93
00001060 00000096 690.40 170.40 425.04 633.95 778.47 420.48 982.30 421.52 867.66 547.75 800.37 662.33 956.16 662.19
00001061 00000097 690.82 170.57 425.35 635.82 778.60 420.83 982.88 422.28 867.62 548.01 799.35 662.13 957.05 662.30
00001062 00000098 690.12 170.35 426.11 637.16 777.54 421.41 982.53 421.97 867.14 547.77 799.70 664.12 957.38 663.50
00001063 00000099 690.17 170.85 426.17 637.28 777.14 421.58 982.16 422.48 866.09 548.54 798.15 664.23 956.51 663.86
00001064 00000100 689.72 170.27 425.98 638.30 776.98 421.16 982.18 421.97 866.63 547.68 798.16 664.58 956.43 664.18
00001065 00000101 689.26 167.76 425.98 640.19 776.20 419.65 981.25 420.64 866.13 547.58 798.50 664.22 955.31 664.02
00001066 00000102 688.83 168.56 426.28 639.42 776.66 417.09 982.45 418.31 865.87 543.73 798.98 662.36 955.04 662.35
00001067 00000103 688.87 167.44 424.54 638.51 776.92 414.98 981.45 415.73 866.36 541.48 800.08 660.19 954.21 659.89
00001068 00000104 688.79 167.96 423.33 635.94 777.32 413.60 978.90 413.40 866.50 538.68 802.63 658.15 952.79 657.23
00001069 00000105 688.11 169.23 423.78 635.08 776.93 415.86 977.54 412.14 867.24 534.83 803.70 657.31 957.80 653.27
00001070 00000106 689.02 174.27 420.64 627.37 779.64 415.39 976.50 410.96 869.09 533.13 807.35 656.10 957.75 651.53
00001071 DELETE   688.53 176.82 424.38 628.72 782.11 416.04 981.25 408.74 877.49 530.08 812.62 655.03 967.52 647.63
00001072 DELETE   687.69 176.31 424.55 629.77 783.46 414.87 983.84 403.23 885.43 531.20 821.68 655.20 976.09 643.74
00001073 00000109 687.08 176.31 424.14 625.74 781.66 417.51 983.15 402.65 886.45 535.96 826.32 658.09 981.07 643.96
CROP_BBOX: 374 0 1461 1056
