Video ID: 	oiTNCg-J15s
H: 	1080
W: 	1920
FPS: 	59.94006309148265

FRAME INDEX X0 Y0 W H [Landmarks (5 Points)]

00008546 00000000 537.31 150.97 525.92 776.63 687.60 498.18 913.34 469.11 821.53 652.27 746.92 750.62 930.78 724.86
00008547 00000001 537.58 151.61 525.64 773.64 687.30 498.52 913.35 469.23 821.41 652.50 747.24 750.37 930.93 724.42
00008548 00000002 537.31 153.34 523.82 764.50 682.42 496.97 910.09 467.45 815.53 650.16 741.65 745.53 929.49 719.26
00008549 00000003 537.71 152.61 523.83 765.14 682.55 496.66 910.07 467.45 815.26 650.06 741.56 745.41 929.42 719.38
00008550 00000004 537.34 152.35 523.96 764.90 682.46 496.83 910.10 467.55 815.33 650.27 741.54 745.45 929.16 719.36
00008551 00000005 536.55 153.73 521.48 758.29 678.42 494.30 905.12 466.28 808.54 648.49 737.63 742.47 923.89 717.56
00008552 DELETE   536.09 153.42 523.06 758.63 677.76 494.13 904.68 465.71 807.87 648.65 737.87 742.62 924.27 717.36
00008553 00000007 535.31 150.14 519.78 763.80 675.13 490.78 900.73 465.46 801.51 646.24 730.20 737.96 918.86 715.35
00008554 00000008 535.38 149.64 520.08 765.55 675.17 490.52 900.49 465.09 801.63 646.30 730.65 738.30 919.24 715.60
00008555 00000009 533.38 150.76 519.11 757.24 671.58 488.61 896.70 464.72 796.46 643.43 722.74 732.43 912.60 711.11
00008556 00000010 533.30 151.52 519.16 756.43 671.59 488.33 896.82 465.25 795.90 643.44 722.37 732.39 911.73 711.74
00008557 00000011 533.37 153.22 519.03 755.92 671.38 488.10 897.00 464.94 795.94 643.29 722.40 733.00 912.28 712.27
00008558 00000012 533.17 155.81 516.16 746.55 667.33 486.43 893.35 463.06 790.91 642.30 718.28 729.08 909.39 708.32
00008559 00000013 533.08 156.68 515.58 746.82 667.44 486.23 893.20 463.30 790.65 642.45 717.72 728.99 908.94 708.65
00008560 00000014 531.82 155.95 515.59 747.72 662.91 484.30 888.98 459.35 786.68 641.15 712.72 723.19 911.68 700.97
00008561 00000015 531.79 156.11 515.20 746.47 662.72 484.38 888.85 459.26 786.60 640.91 712.77 722.96 911.66 700.59
00008562 00000016 531.80 155.95 515.63 747.67 662.90 484.29 888.97 459.33 786.65 641.09 712.73 723.19 911.68 700.96
00008563 00000017 529.42 154.36 516.31 746.56 657.78 483.68 884.58 459.95 780.17 644.52 708.11 722.30 908.40 700.93
00008564 00000018 528.81 152.79 516.58 749.05 658.00 483.92 884.56 459.98 780.51 644.30 708.37 722.42 908.53 700.83
00008565 00000019 525.99 151.91 517.53 747.73 653.63 484.44 879.79 461.01 774.61 645.67 705.23 723.15 904.64 701.92
00008566 00000020 526.39 151.81 516.54 747.50 654.00 484.40 879.63 461.41 774.70 645.08 705.28 723.02 904.05 702.15
00008567 00000021 522.97 152.02 517.49 739.91 649.39 484.61 875.43 461.84 768.69 645.52 702.74 723.25 898.83 702.67
00008568 00000022 523.21 151.92 517.63 740.55 649.45 484.87 875.03 461.88 768.30 645.90 702.89 723.35 898.75 702.61
00008569 00000023 523.14 151.98 517.78 740.45 649.72 484.81 875.25 461.92 768.66 646.04 702.97 723.12 898.89 702.44
00008570 00000024 519.31 148.68 520.38 742.24 645.35 483.46 869.90 460.32 762.95 643.44 702.43 727.00 893.04 706.17
00008571 00000025 519.14 149.09 520.83 742.53 645.29 483.73 869.77 460.00 763.11 643.64 702.99 727.68 893.58 706.33
00008572 00000026 517.13 146.65 522.86 743.28 642.94 481.64 866.21 458.83 759.22 639.85 703.53 730.37 886.95 709.88
00008573 00000027 517.04 146.22 522.57 744.24 643.28 481.57 866.23 458.75 759.61 639.79 704.22 730.39 886.96 709.90
00008574 00000028 516.74 146.07 523.07 744.79 643.10 481.49 866.31 458.78 759.68 639.87 704.17 730.43 886.91 709.98
00008575 00000029 518.47 145.80 522.01 750.08 645.19 480.36 867.53 457.82 761.25 640.26 706.38 733.32 885.97 713.01
00008576 00000030 518.40 145.38 522.04 751.34 645.37 480.37 868.10 457.94 761.67 640.52 706.19 733.61 886.44 713.39
00008577 00000031 520.63 142.94 521.51 751.73 648.06 478.65 870.85 457.07 764.43 638.35 708.74 733.30 885.74 713.82
00008578 00000032 520.78 143.72 521.53 750.39 647.56 478.42 870.61 456.38 764.10 637.85 708.78 733.49 885.83 713.64
00008579 00000033 524.25 143.74 518.93 754.19 651.79 479.78 871.57 457.65 766.13 637.71 711.80 734.82 885.31 714.85
00008580 00000034 524.14 144.52 518.81 751.77 651.17 479.48 871.19 457.50 765.47 637.22 711.03 734.49 884.42 714.67
00008581 00000035 524.01 143.67 518.50 752.36 651.39 479.56 871.05 457.78 765.50 637.26 711.32 734.27 884.30 714.63
00008582 00000036 524.18 144.22 518.57 757.44 652.46 482.44 871.82 461.00 766.13 637.06 710.27 737.60 883.49 718.28
00008583 00000037 523.87 143.98 518.97 758.75 652.47 482.71 871.94 460.75 766.21 637.19 710.04 737.91 883.56 718.16
00008584 00000038 523.85 146.83 520.59 759.63 653.25 482.54 873.77 461.06 768.20 636.90 711.28 739.76 885.27 720.36
00008585 00000039 523.36 147.14 521.76 759.64 652.75 482.56 873.64 460.87 768.12 637.14 710.96 739.96 885.54 720.36
00008586 00000040 524.20 147.87 520.37 758.37 653.05 482.64 873.45 461.12 767.72 636.97 710.93 739.30 885.49 719.89
00008587 00000041 522.67 145.79 524.08 764.66 653.37 482.89 874.50 460.51 769.63 637.79 713.09 742.80 886.19 722.60
00008588 00000042 523.08 146.59 523.48 764.65 653.79 483.23 874.84 460.83 769.84 637.51 712.52 742.58 886.64 722.36
00008589 00000043 524.30 143.99 522.61 766.73 656.71 481.96 877.93 459.59 774.15 636.97 715.69 742.08 888.96 721.97
00008590 00000044 524.35 144.85 522.73 765.52 656.81 482.03 877.88 459.65 774.01 637.04 715.64 741.97 888.53 721.86
00008591 00000045 526.87 143.06 521.16 766.39 658.56 479.99 879.71 456.48 777.15 635.50 718.90 742.34 890.35 721.52
00008592 00000046 527.64 143.77 520.57 766.22 658.46 479.87 879.73 456.34 777.10 635.58 719.11 742.67 890.75 721.85
00008593 00000047 526.81 143.21 521.06 765.38 658.34 479.91 879.95 456.28 777.32 635.37 719.32 742.58 890.62 721.64
00008594 00000048 527.96 141.79 521.30 770.39 662.35 478.47 882.57 454.54 782.01 633.57 722.83 741.18 895.33 719.74
00008595 00000049 528.63 141.63 521.10 771.95 662.93 478.88 882.69 454.85 782.16 634.02 723.33 741.20 896.00 719.67
00008596 00000050 527.12 144.03 523.43 779.08 662.75 481.48 880.76 455.50 783.04 633.76 726.20 742.18 902.19 718.77
00008597 00000051 527.18 142.89 523.08 779.74 662.89 481.89 880.55 455.99 782.99 634.34 726.49 741.95 902.18 718.51
00008598 00000052 527.06 142.52 523.16 780.66 663.20 481.84 880.66 456.11 783.28 634.37 726.61 741.77 902.24 718.45
00008599 00000053 520.68 141.62 528.29 787.97 656.45 493.24 876.89 464.78 779.31 645.98 723.47 746.76 906.64 720.59
00008600 00000054 520.78 142.48 528.14 787.75 656.72 492.92 877.08 464.47 779.61 645.60 723.62 746.79 906.75 720.66
00008601 DELETE   513.81 139.44 535.14 790.00 651.93 508.11 873.76 479.27 775.42 658.37 722.65 752.45 905.87 725.12
00008602 DELETE   513.59 136.39 535.74 793.21 652.28 508.08 874.03 479.77 775.36 658.63 722.58 752.08 905.64 725.14
00008603 00000057 509.26 160.71 534.98 767.98 649.54 519.72 875.59 489.43 780.44 672.28 724.20 764.81 907.70 736.44
00008604 00000058 508.97 160.47 534.97 768.25 649.25 519.78 875.09 489.54 780.18 672.82 724.19 765.01 907.54 736.64
00008605 00000059 508.95 160.41 534.98 768.01 649.02 519.62 874.96 489.56 779.94 672.97 724.02 764.97 907.37 736.74
00008606 00000060 508.26 180.91 532.94 751.09 649.35 522.97 878.08 492.37 782.15 678.04 722.51 772.91 906.37 744.89
00008607 00000061 507.86 181.10 534.17 751.35 649.28 522.80 878.35 492.00 782.02 677.36 722.59 773.58 906.26 745.37
00008608 00000062 505.19 179.38 539.38 747.05 644.73 521.45 878.13 489.13 782.23 682.89 721.78 770.35 911.23 741.59
00008609 00000063 505.19 178.82 539.80 747.84 644.76 520.41 878.20 488.65 781.82 682.25 721.33 769.93 910.60 741.68
00008610 00000064 505.29 178.63 539.76 748.28 645.02 520.58 878.41 488.88 782.29 682.70 721.75 770.23 910.61 742.00
00008611 00000065 501.76 180.15 539.11 745.93 645.07 523.15 878.05 491.98 783.26 685.35 719.90 769.71 909.42 741.75
00008612 00000066 501.42 178.37 539.35 747.49 645.35 523.30 878.83 492.19 783.83 685.77 719.89 769.43 909.54 741.52
00008613 00000067 497.44 183.13 540.53 740.21 645.65 526.02 879.83 496.38 784.83 692.26 718.02 769.70 907.70 743.06
00008614 00000068 497.75 182.24 540.08 741.18 645.84 526.05 879.88 496.34 784.93 692.11 718.03 769.58 907.80 742.90
00008615 00000069 498.74 185.20 537.03 739.36 646.55 531.39 880.06 501.22 785.35 696.08 717.60 772.41 906.19 745.42
00008616 00000070 498.52 186.48 537.55 737.98 646.52 531.22 880.34 501.27 785.48 696.04 717.58 772.35 906.42 745.55
00008617 00000071 499.09 187.24 536.71 736.72 646.44 531.25 880.19 501.24 785.22 696.20 717.55 772.48 906.39 745.66
00008618 00000072 500.75 192.09 532.55 735.67 646.57 533.51 879.10 504.50 783.50 698.74 716.50 775.11 903.44 749.23
00008619 00000073 501.57 190.52 530.67 737.28 647.49 534.17 878.74 505.08 783.73 698.37 717.07 774.90 902.80 748.90
00008620 00000074 501.10 194.16 529.08 733.28 645.69 533.42 878.11 505.01 782.87 695.18 716.94 778.82 898.50 753.41
00008621 00000075 501.47 196.50 529.33 731.64 645.62 533.45 878.28 504.81 782.76 695.29 716.95 778.44 899.14 752.85
00008622 00000076 500.69 194.37 530.16 733.81 645.56 533.37 878.14 504.75 783.13 695.22 717.29 778.58 899.38 752.92
00008623 00000077 500.46 193.70 528.86 738.93 645.18 532.94 874.28 504.67 779.90 693.27 717.97 782.11 891.79 756.83
00008624 00000078 499.68 194.02 528.83 739.71 644.69 533.20 872.59 504.43 779.45 694.17 718.38 782.76 891.87 756.97
00008625 00000079 498.46 191.10 530.69 749.81 644.84 531.98 869.38 504.17 776.79 691.24 716.61 782.26 891.96 757.16
00008626 00000080 498.10 190.78 531.55 750.02 644.61 531.92 870.27 503.94 776.91 691.56 716.85 782.99 892.04 757.81
00008627 00000081 496.11 188.48 535.55 762.46 645.70 529.68 869.95 502.16 778.66 689.66 715.31 777.16 899.94 751.96
00008628 00000082 496.31 188.77 535.14 762.32 646.19 529.73 870.19 502.37 778.89 689.80 715.43 777.12 899.74 752.06
00008629 00000083 496.10 188.51 535.55 762.36 645.72 529.67 869.96 502.17 778.68 689.59 715.30 777.10 899.93 751.91
00008630 00000084 498.22 192.46 534.26 756.12 647.03 528.61 872.78 501.15 781.41 688.65 713.62 772.55 904.62 747.59
00008631 00000085 498.15 190.43 533.83 757.66 647.24 528.72 872.39 501.58 781.18 688.18 713.34 772.13 904.16 747.35
00008632 00000086 500.84 192.42 532.39 747.83 647.09 527.39 876.26 500.49 782.33 689.05 710.12 767.06 907.61 742.68
00008633 00000087 499.96 191.38 534.26 749.50 646.59 527.51 875.96 500.40 782.01 688.83 709.98 766.93 908.41 742.30
00008634 00000088 500.21 192.59 533.81 748.51 646.81 527.80 876.28 500.66 782.17 688.99 710.02 767.23 908.18 742.66
00008635 00000089 499.71 188.73 534.52 748.64 647.71 526.02 877.61 499.23 783.70 686.12 708.12 763.91 907.95 739.65
00008636 00000090 499.48 188.77 534.69 748.89 647.30 526.18 877.27 499.16 783.41 686.32 708.69 764.65 907.86 740.20
00008637 00000091 502.38 191.41 531.81 743.98 650.50 523.86 880.06 496.71 788.26 683.08 711.96 763.44 909.69 739.07
00008638 00000092 501.41 190.83 533.27 743.67 650.13 523.94 879.97 496.54 788.13 683.46 712.01 763.40 909.49 738.80
00008639 00000093 501.76 192.52 532.48 745.60 653.59 523.89 881.96 495.27 793.43 680.95 714.63 761.66 914.31 736.19
00008640 00000094 501.67 191.51 533.03 746.80 653.56 523.90 882.00 495.31 793.36 680.72 714.75 761.75 914.31 736.26
00008641 00000095 501.71 192.44 532.79 745.62 653.60 523.87 881.88 495.36 793.30 680.78 714.74 761.80 914.09 736.41
00008642 00000096 501.13 192.06 532.18 745.63 655.49 523.82 882.97 494.43 797.15 678.63 715.36 759.29 916.85 733.13
00008643 00000097 501.24 189.46 531.94 748.20 655.98 524.10 883.48 495.04 797.56 679.03 715.43 759.23 916.41 733.30
00008644 00000098 500.47 189.48 532.02 747.89 656.88 524.12 883.82 493.57 799.80 676.10 714.25 756.35 917.92 729.22
00008645 00000099 500.46 189.66 532.16 747.81 656.88 523.95 883.76 493.29 799.95 676.11 714.71 756.60 918.03 729.40
00008646 00000100 500.21 189.02 532.53 748.29 656.83 524.24 883.96 493.48 799.96 675.98 714.50 756.64 917.97 729.34
00008647 00000101 499.67 190.23 531.10 745.12 658.64 524.03 885.03 491.91 804.20 674.49 715.50 755.17 919.60 726.88
00008648 00000102 499.89 192.16 531.25 742.54 658.34 523.71 885.34 491.47 804.04 674.41 715.61 755.23 919.81 726.90
00008649 00000103 499.71 189.12 528.41 743.95 661.03 522.94 883.99 490.18 807.08 670.41 716.54 752.89 920.48 723.99
00008650 00000104 499.70 187.07 527.74 745.89 661.55 523.45 883.85 490.42 807.64 670.14 716.66 752.26 920.88 723.08
00008651 00000105 499.79 188.30 526.26 740.63 664.55 522.52 885.19 488.29 812.08 668.46 719.20 749.23 922.42 719.12
00008652 00000106 499.97 188.32 526.08 740.44 664.71 522.63 885.11 488.30 812.17 668.21 719.08 749.16 922.29 719.00
00008653 00000107 499.81 188.35 526.26 740.51 664.55 522.50 885.19 488.30 812.06 668.40 719.22 749.22 922.36 719.14
00008654 00000108 504.24 186.21 522.42 740.46 667.82 521.57 887.97 486.29 815.47 667.86 724.06 748.93 926.34 718.12
00008655 00000109 504.73 185.12 520.88 741.34 668.32 521.76 888.03 486.34 815.93 667.74 724.14 748.79 926.50 717.84
00008656 00000110 504.65 188.15 521.90 734.85 671.29 521.59 892.59 485.24 821.75 666.95 727.39 747.66 929.64 716.24
00008657 00000111 504.16 185.89 522.37 737.21 671.20 521.76 893.01 485.04 822.12 666.12 727.01 748.07 929.91 716.29
00008658 00000112 504.09 184.99 523.17 738.62 671.08 521.93 893.02 485.29 821.65 666.53 726.70 748.35 929.35 716.67
00008659 00000113 505.33 179.91 523.25 745.24 675.51 521.85 897.13 483.95 828.14 665.59 732.06 749.58 934.44 717.00
00008660 00000114 505.69 181.74 522.62 743.08 675.05 521.11 896.90 483.55 827.58 664.91 732.55 749.51 934.98 717.21
00008661 00000115 507.83 176.56 521.88 753.94 679.42 522.39 900.53 483.15 833.80 665.37 738.27 752.35 940.26 718.61
00008662 00000116 507.72 176.20 522.12 754.60 679.68 522.40 900.84 483.24 834.03 665.43 738.19 752.34 940.36 718.67
00008663 00000117 511.25 175.51 519.33 751.13 682.56 523.60 903.03 483.16 836.77 663.25 740.94 751.55 940.99 716.96
00008664 00000118 511.27 175.84 519.40 750.82 682.65 523.57 903.15 483.10 836.90 663.11 740.73 751.51 940.96 716.92
00008665 00000119 511.65 175.77 519.38 751.03 682.72 523.61 903.22 483.12 836.80 663.13 740.93 751.56 941.13 716.94
00008666 00000120 511.79 175.45 519.46 748.31 684.53 530.84 905.08 489.58 838.42 665.33 742.70 753.60 940.50 718.24
00008667 00000121 511.00 173.84 520.15 750.05 684.61 530.92 905.12 490.22 838.36 665.33 742.63 753.92 940.14 718.97
00008668 00000122 511.52 175.39 520.96 748.18 682.94 532.75 906.90 496.48 833.39 668.56 738.31 756.58 935.21 725.06
00008669 00000123 510.94 173.51 521.73 749.60 682.72 533.15 906.76 496.73 833.43 668.47 737.57 756.06 935.00 724.42
00008670 00000124 511.90 177.59 520.67 745.56 683.14 532.75 907.09 496.70 833.45 669.09 737.68 756.11 935.10 724.85
00008671 00000125 511.37 181.52 519.75 747.00 679.18 528.32 902.13 493.33 828.57 668.90 739.86 761.81 932.70 731.42
00008672 00000126 510.82 180.30 520.39 749.34 679.18 528.32 901.96 493.14 828.81 668.81 740.18 762.42 932.75 731.87
00008673 00000127 513.04 182.91 519.82 745.15 677.74 525.04 902.74 490.08 827.68 668.57 743.21 764.41 933.21 734.26
00008674 00000128 513.01 180.70 519.86 748.05 677.60 525.26 902.94 490.26 827.87 669.01 743.49 764.53 933.79 734.29
00008675 00000129 516.03 176.65 517.30 751.95 683.03 523.65 906.65 487.32 834.01 664.68 748.80 764.39 937.05 733.25
00008676 00000130 516.82 179.09 516.79 749.48 682.64 523.27 906.77 486.98 833.50 664.64 748.37 764.30 937.06 733.28
00008677 00000131 516.00 177.19 517.42 751.30 682.73 523.59 906.74 486.97 833.98 664.62 748.58 764.49 937.15 733.15
00008678 00000132 518.47 177.69 517.15 751.59 686.22 521.44 907.66 485.13 835.86 663.48 752.50 763.76 939.17 732.66
00008679 00000133 518.21 178.85 517.29 750.43 686.02 521.53 907.30 484.91 836.07 663.01 752.64 763.82 939.01 732.48
00008680 00000134 518.76 175.33 516.95 756.37 687.02 519.82 907.45 483.71 836.74 662.31 753.29 764.04 939.81 733.04
00008681 00000135 518.93 174.63 516.42 756.75 687.07 519.72 907.37 483.84 836.45 662.18 753.41 764.21 939.36 733.37
00008682 00000136 519.05 175.83 516.59 755.85 687.14 519.44 907.39 483.53 836.53 662.31 753.53 764.38 939.49 733.59
00008683 00000137 519.10 175.81 516.46 755.86 687.05 518.30 908.60 483.08 836.38 662.42 755.00 766.06 937.93 735.92
00008684 00000138 519.66 175.72 515.93 755.85 687.45 518.14 908.55 483.50 836.15 662.23 754.98 766.00 937.52 736.32
00008685 00000139 519.79 175.14 516.31 754.97 686.62 517.51 908.05 482.37 835.58 661.97 755.43 765.85 937.55 735.80
00008686 00000140 519.55 173.78 516.28 754.93 686.36 517.02 908.09 482.33 835.30 661.72 754.76 765.59 936.88 735.92
00008687 00000141 519.22 175.81 516.97 751.43 684.20 515.97 907.43 481.52 833.03 661.91 753.54 766.37 934.60 737.02
00008688 00000142 519.21 174.07 516.86 752.83 684.32 515.83 907.27 481.46 832.95 661.33 753.37 766.42 933.96 737.17
00008689 00000143 519.00 173.53 517.00 753.66 684.48 516.16 907.01 481.63 832.92 661.31 753.93 766.51 934.12 737.08
00008690 00000144 515.52 173.21 520.42 754.32 678.36 517.63 903.20 483.36 826.54 664.56 748.21 767.84 929.68 738.33
00008691 00000145 515.64 172.02 519.86 756.29 679.08 517.65 903.50 483.48 827.32 664.02 748.31 767.76 929.80 738.32
00008692 00000146 512.78 176.33 522.68 753.49 672.60 521.11 897.16 487.35 819.15 666.43 742.55 769.34 923.75 740.06
00008693 00000147 512.80 176.08 522.68 754.07 672.52 521.05 897.17 487.35 819.10 666.14 742.37 769.32 923.92 740.10
CROP_BBOX: 223 0 1364 1080
