Video ID: 	G5jHLeT9M3Q
H: 	1080
W: 	1920
FPS: 	25.0

FRAME INDEX X0 Y0 W H [Landmarks (5 Points)]

00001475 00000000 891.05 87.97 614.07 893.10 975.90 403.96 1228.93 415.31 1020.97 602.22 996.11 750.15 1199.80 761.76
00001476 00000001 901.46 100.89 614.53 889.40 985.21 411.43 1239.61 419.29 1038.61 613.60 1013.17 756.28 1216.74 765.05
00001477 00000002 903.33 104.69 613.97 892.90 991.83 417.23 1245.62 422.91 1049.73 618.27 1019.99 762.19 1225.44 768.82
00001478 00000003 902.34 110.32 614.56 896.27 991.09 420.99 1247.09 426.57 1051.13 624.00 1018.85 767.76 1227.07 774.22
00001479 00000004 899.10 114.30 617.34 895.52 988.19 425.64 1242.04 431.88 1046.17 627.96 1017.22 770.98 1223.49 777.88
00001480 00000005 893.05 118.88 614.61 891.06 981.22 424.50 1232.61 434.07 1035.75 628.83 1007.66 771.31 1208.55 780.79
00001481 DELETE   887.24 124.26 617.09 886.77 975.63 423.50 1227.99 439.43 1026.17 633.93 999.08 771.37 1201.24 786.17
00001482 00000007 881.96 127.01 618.02 883.71 969.93 423.16 1219.10 440.04 1015.79 636.72 994.10 770.99 1193.19 786.50
00001483 00000008 880.48 126.49 620.50 885.50 966.43 420.44 1214.84 437.08 1010.34 633.32 992.80 770.57 1189.41 785.80
00001484 00000009 879.68 125.69 617.57 877.84 965.74 417.16 1213.58 433.86 1008.81 628.03 991.77 765.36 1187.63 780.65
00001485 00000010 881.50 117.74 615.44 874.09 966.33 410.92 1215.36 428.74 1008.70 619.57 989.84 758.00 1185.28 774.52
00001486 00000011 883.08 112.43 613.98 871.48 968.26 406.25 1217.55 423.02 1009.52 612.40 990.34 753.52 1183.50 769.73
00001487 00000012 883.51 103.06 613.74 871.93 970.22 401.03 1219.78 417.46 1012.38 607.23 992.02 748.11 1184.07 764.34
00001488 00000013 880.50 98.03 616.61 882.02 972.13 397.68 1219.98 414.83 1013.59 601.73 992.65 743.75 1186.56 760.42
00001489 00000014 878.03 96.95 618.01 900.11 970.29 396.99 1216.02 413.92 1010.16 600.15 990.96 746.90 1189.61 763.01
00001490 DELETE   876.43 101.32 617.26 901.74 967.03 396.68 1210.92 415.03 1004.11 603.03 988.57 748.44 1188.17 765.35
00001491 00000016 874.14 108.11 618.28 894.09 963.44 400.39 1208.12 420.58 998.56 609.79 984.25 749.25 1184.49 767.59
00001492 DELETE   872.14 111.65 617.50 884.30 959.48 404.53 1203.81 427.03 993.99 614.75 978.54 750.59 1174.75 770.86
00001493 00000018 866.62 114.30 617.70 886.84 949.51 410.94 1194.67 430.67 984.72 621.02 967.87 758.10 1164.24 776.55
00001494 00000019 859.49 117.51 615.61 886.69 933.37 415.53 1175.52 433.60 961.46 624.02 954.13 761.84 1152.25 778.62
00001495 DELETE   850.73 116.38 617.86 889.00 925.72 414.51 1159.09 438.90 943.96 627.80 943.80 759.84 1134.04 781.52
00001496 DELETE   845.30 117.40 618.52 888.53 918.14 410.95 1146.24 441.92 926.12 627.55 933.74 757.45 1121.56 783.75
00001497 00000022 840.47 118.67 620.33 891.50 913.86 413.26 1141.04 441.58 922.24 628.46 930.57 761.96 1118.46 785.86
00001498 00000023 840.38 118.24 622.15 888.37 911.46 413.63 1143.24 441.97 922.60 630.96 928.26 765.71 1115.39 789.86
00001499 00000024 841.09 117.61 622.95 880.80 915.55 420.05 1149.20 446.02 929.08 633.59 930.42 767.55 1115.26 790.16
00001500 DELETE   847.78 120.29 619.46 886.38 920.07 432.51 1156.35 454.89 938.39 638.46 936.42 775.07 1126.80 795.06
00001501 DELETE   852.05 123.46 620.03 892.58 929.61 442.00 1168.33 457.22 958.11 643.07 953.31 785.08 1143.20 799.16
00001502 00000027 854.83 123.55 617.47 888.86 931.91 440.90 1180.33 453.46 973.73 646.04 959.58 787.00 1151.37 799.66
00001503 DELETE   856.82 118.63 623.65 887.30 937.15 434.69 1190.24 448.30 983.65 642.10 963.97 782.46 1158.42 795.92
00001504 00000029 860.21 116.73 623.50 877.78 945.26 428.75 1198.83 445.49 994.33 640.00 971.75 774.99 1163.97 791.07
00001505 00000030 864.29 114.12 620.65 875.97 952.31 423.71 1205.61 442.84 1000.33 635.14 976.72 768.07 1169.32 786.25
00001506 00000031 867.32 116.35 620.48 877.29 958.10 418.74 1208.51 436.97 1004.15 629.12 982.32 765.22 1174.70 782.43
00001507 00000032 871.70 122.97 616.89 878.96 962.88 416.27 1211.31 434.69 1006.85 622.72 981.73 762.89 1176.54 780.29
00001508 00000033 874.96 118.86 615.81 875.86 966.85 412.67 1214.80 431.84 1010.13 617.51 984.66 757.21 1178.90 775.30
00001509 00000034 878.30 114.97 615.01 873.57 969.37 407.23 1218.12 428.00 1011.97 613.82 985.68 753.02 1178.24 772.71
00001510 00000035 880.38 113.58 613.96 871.60 971.29 402.52 1220.26 423.43 1013.22 610.03 987.24 750.54 1180.55 770.34
00001511 00000036 880.48 103.12 614.54 876.12 973.52 395.06 1220.89 416.21 1014.21 603.44 990.60 743.46 1181.98 763.51
00001512 00000037 881.85 97.71 614.86 873.64 973.43 391.88 1222.51 409.48 1014.72 593.47 990.32 736.85 1184.63 754.13
00001513 00000038 885.20 93.98 616.35 865.93 972.26 389.43 1225.07 404.95 1015.35 590.54 990.36 732.69 1184.84 748.59
00001514 00000039 888.75 89.99 613.75 862.91 970.71 392.54 1223.09 404.09 1014.13 584.74 988.63 730.05 1185.33 742.83
00001515 DELETE   889.68 88.47 612.28 867.15 975.31 396.20 1219.91 406.69 1010.65 577.17 990.04 727.14 1180.88 739.20
00001516 DELETE   888.60 83.00 609.05 872.14 972.89 398.04 1216.27 407.71 1008.17 578.06 987.77 727.11 1181.81 738.49
00001517 00000042 885.01 91.09 607.35 862.99 968.60 396.13 1213.70 404.64 1007.06 578.02 984.92 726.75 1179.38 737.13
00001518 00000043 878.54 92.15 612.29 868.30 963.87 393.03 1208.28 397.35 1001.97 573.16 983.69 728.74 1172.74 735.77
00001519 00000044 872.74 87.34 615.56 878.70 960.39 391.83 1204.32 397.69 996.75 573.98 980.00 730.12 1168.18 738.51
00001520 00000045 869.10 90.81 623.08 882.13 956.88 388.39 1202.87 394.27 991.06 572.95 977.49 730.11 1170.89 738.17
00001521 00000046 867.48 88.95 623.03 886.31 953.28 382.71 1197.91 390.73 981.90 571.48 972.05 728.32 1166.98 738.00
00001522 00000047 861.74 88.90 625.75 889.34 945.92 376.91 1186.43 388.21 967.00 569.88 962.67 722.80 1158.02 734.78
00001523 00000048 859.12 91.89 625.50 883.30 940.26 375.55 1176.40 389.31 953.07 570.55 956.77 720.98 1148.56 734.62
00001524 DELETE   859.08 88.12 616.33 879.27 933.38 379.67 1165.57 394.08 942.91 573.75 948.77 721.64 1134.87 736.08
00001525 00000050 853.79 82.53 616.32 879.06 923.35 382.02 1156.25 398.00 934.70 580.44 939.61 723.50 1125.62 739.20
00001526 00000051 841.64 81.50 622.01 887.32 907.74 384.67 1144.64 402.60 923.15 585.65 923.43 735.90 1119.17 750.77
00001527 00000052 843.25 84.49 617.96 877.26 909.63 400.17 1134.83 415.62 917.52 587.48 926.09 730.60 1111.82 745.36
00001528 00000053 835.10 87.87 624.51 887.87 910.11 405.19 1129.46 420.58 914.10 590.08 927.12 736.45 1107.34 750.69
00001529 00000054 834.79 93.42 621.93 883.94 910.70 404.75 1130.08 419.18 917.43 590.76 930.23 737.21 1111.10 750.61
00001530 00000055 834.38 92.07 625.55 886.43 909.62 402.85 1133.15 415.72 920.05 590.91 931.44 737.35 1117.84 749.49
00001531 00000056 838.90 85.70 622.92 892.72 911.08 397.50 1137.61 412.37 922.92 589.18 931.35 733.19 1122.21 747.16
00001532 00000057 842.47 88.72 625.07 889.79 914.90 394.45 1142.99 408.78 925.03 586.44 934.94 730.96 1127.26 744.26
00001533 00000058 844.85 88.10 624.20 888.56 917.77 391.95 1150.14 407.29 930.47 588.38 935.41 729.98 1131.09 744.55
00001534 00000059 851.72 87.73 615.98 882.85 922.53 393.61 1155.04 407.86 937.67 590.30 940.86 730.64 1132.09 744.70
00001535 00000060 854.78 87.35 615.33 878.14 926.35 394.11 1162.44 407.71 945.97 591.15 945.07 730.38 1137.17 744.29
00001536 00000061 858.40 89.60 612.70 869.90 928.66 396.76 1169.23 408.83 954.51 592.47 947.16 731.46 1140.73 744.48
00001537 00000062 860.17 94.34 613.50 869.16 934.23 396.47 1174.79 407.05 962.05 593.29 955.20 731.71 1147.88 743.42
00001538 00000063 862.70 99.91 616.16 869.27 942.10 402.83 1183.23 408.14 971.79 586.71 962.25 738.85 1154.55 746.45
00001539 00000064 867.33 97.01 616.04 872.99 952.98 406.48 1192.71 412.11 984.58 586.46 972.32 740.15 1163.59 748.19
00001540 00000065 873.67 90.72 614.97 872.02 954.80 410.72 1197.80 410.83 991.65 584.49 978.95 743.96 1167.37 747.85
00001541 00000066 875.93 93.04 613.68 861.59 957.24 406.01 1205.72 404.96 1000.48 581.03 978.84 740.11 1172.28 743.32
00001542 DELETE   877.36 93.26 613.31 864.04 958.42 402.78 1209.56 398.99 1005.26 580.87 984.58 741.19 1181.87 741.57
00001543 00000068 875.72 91.80 618.62 870.67 962.15 401.20 1213.23 397.01 1013.38 582.79 992.37 741.47 1188.05 741.02
00001544 00000069 877.93 91.03 618.52 870.54 964.14 399.75 1212.71 398.21 1012.62 582.66 993.22 737.43 1188.28 739.07
00001545 00000070 879.17 94.67 614.12 865.36 962.10 399.37 1212.53 399.16 1010.20 585.50 989.47 738.91 1185.09 741.65
00001546 00000071 873.92 97.97 620.16 868.60 962.83 395.38 1210.04 399.33 1005.74 584.30 987.49 736.59 1181.01 742.62
00001547 00000072 869.84 90.19 622.49 878.59 960.20 395.98 1208.66 398.87 1004.96 584.64 986.04 738.90 1176.14 744.45
00001548 00000073 868.28 90.83 622.58 877.19 957.07 396.55 1206.02 398.22 1001.65 583.39 983.05 740.09 1172.18 744.86
00001549 00000074 865.10 85.24 625.52 884.04 954.50 394.92 1203.40 397.07 997.77 582.32 980.63 738.55 1172.33 743.86
00001550 00000075 864.23 83.86 623.68 887.93 953.05 391.06 1201.03 395.36 993.18 580.47 977.25 735.70 1172.78 742.56
00001551 00000076 861.81 83.13 621.24 891.00 949.69 389.10 1195.10 394.35 986.63 578.81 972.48 732.55 1170.42 740.00
00001552 00000077 857.39 84.13 626.64 898.52 944.21 389.34 1187.28 393.15 975.47 575.23 970.07 734.89 1167.96 740.42
00001553 00000078 853.93 87.41 616.20 910.96 928.81 388.02 1180.58 396.31 964.76 579.88 955.54 747.42 1158.19 754.64
00001554 00000079 848.59 85.43 614.97 920.04 923.45 386.36 1171.56 396.82 953.11 581.19 947.06 747.83 1150.96 756.37
00001555 00000080 846.23 85.68 625.12 909.18 929.97 383.16 1163.90 394.51 945.81 578.20 950.97 736.76 1147.51 747.53
00001556 00000081 845.25 81.84 624.68 908.05 924.65 381.01 1156.17 394.09 936.87 578.01 946.46 731.99 1142.48 744.07
00001557 00000082 847.25 80.52 619.39 899.10 924.03 381.14 1154.37 398.78 935.02 582.23 941.90 724.23 1137.47 740.38
00001558 00000083 851.48 85.54 614.58 885.40 924.43 384.48 1154.61 403.00 936.33 584.80 939.31 721.15 1132.58 738.57
00001559 00000084 854.00 87.68 611.28 872.09 923.15 385.21 1158.31 403.90 939.07 585.14 936.25 719.66 1129.90 737.80
00001560 00000085 854.76 87.63 610.94 868.08 923.56 385.44 1162.24 401.92 944.07 583.77 937.01 720.91 1129.92 737.49
00001561 00000086 857.67 86.62 607.87 869.02 926.68 386.88 1167.45 401.48 949.83 584.48 940.81 723.30 1135.09 738.59
00001562 00000087 856.83 89.59 613.36 875.51 932.88 392.56 1172.60 401.06 957.71 584.44 950.10 731.43 1142.28 741.67
00001563 00000088 854.91 90.42 619.54 882.88 935.58 390.76 1175.86 398.33 961.46 583.37 955.57 731.27 1151.28 740.28
00001564 00000089 857.57 92.27 619.37 882.47 940.04 395.46 1181.60 399.75 970.09 586.20 963.85 736.63 1159.31 742.79
00001565 00000090 860.53 94.84 617.46 876.35 943.18 397.57 1188.40 400.65 979.87 585.99 968.04 736.26 1164.88 741.72
00001566 00000091 864.63 88.03 616.28 879.99 946.79 395.67 1193.37 399.29 985.32 586.02 972.37 735.43 1168.79 741.58
00001567 00000092 868.30 91.21 615.47 875.13 952.63 397.39 1199.83 401.39 993.53 586.14 975.78 735.40 1171.66 741.84
00001568 00000093 869.93 91.49 618.22 872.92 955.46 397.55 1203.42 401.14 997.57 584.78 978.34 734.46 1173.85 740.56
00001569 00000094 872.14 98.05 615.55 869.56 959.78 395.32 1206.47 400.40 1002.04 584.75 981.82 733.02 1178.47 740.03
00001570 00000095 872.09 91.91 616.86 877.92 962.31 393.52 1209.03 399.50 1005.97 584.92 984.66 731.43 1183.43 738.99
00001571 00000096 874.57 93.09 616.28 875.59 963.86 392.07 1209.59 396.61 1006.90 580.69 987.50 731.34 1185.26 737.62
00001572 00000097 875.68 94.61 617.02 875.57 964.62 393.47 1211.32 397.10 1009.16 581.42 988.53 732.35 1188.03 737.84
00001573 00000098 876.30 94.43 616.96 875.96 966.15 394.20 1212.56 398.64 1010.85 581.67 989.33 731.36 1190.40 737.34
00001574 00000099 876.27 98.86 615.83 871.17 966.42 394.94 1215.13 397.18 1015.41 583.55 991.67 733.80 1192.23 737.94
00001575 00000100 876.46 97.77 615.99 872.94 967.47 396.57 1217.43 398.32 1018.43 584.80 993.50 734.87 1194.63 738.72
00001576 00000101 876.99 96.76 615.33 872.92 967.87 396.71 1218.80 398.13 1020.12 584.77 994.65 734.83 1197.29 738.33
00001577 00000102 877.50 95.49 615.81 875.60 968.99 397.76 1218.18 399.87 1020.49 585.36 995.57 734.53 1198.32 738.54
00001578 00000103 876.99 91.28 615.11 879.95 967.99 394.88 1216.79 395.71 1018.16 580.03 994.72 733.34 1197.91 736.30
00001579 00000104 875.99 93.09 617.50 880.21 967.78 389.28 1215.79 390.91 1016.44 575.39 994.98 728.99 1198.30 732.35
00001580 00000105 875.38 92.48 618.40 881.67 968.71 389.26 1217.16 390.44 1018.54 574.01 996.05 728.68 1199.28 731.70
00001581 00000106 875.83 98.19 619.21 873.40 967.63 385.99 1216.15 385.41 1016.87 569.41 995.99 725.87 1200.78 727.14
00001582 00000107 873.88 98.23 620.54 872.10 966.57 384.70 1216.27 382.01 1019.40 569.19 997.67 726.26 1199.61 726.01
00001583 00000108 873.42 99.51 620.94 869.88 965.34 386.22 1214.82 381.56 1018.69 568.86 998.00 726.93 1198.99 725.02
00001584 00000109 871.59 101.59 623.42 867.87 963.36 384.11 1213.27 378.35 1017.07 567.49 997.25 726.66 1197.44 723.94
00001585 00000110 873.16 93.47 613.04 886.82 955.85 385.66 1214.26 388.16 1012.54 570.94 990.20 736.12 1192.93 739.40
00001586 00000111 870.04 99.30 625.41 872.21 961.55 385.23 1209.95 378.54 1013.41 566.03 995.76 727.46 1196.68 723.93
00001587 00000112 870.16 99.73 625.13 872.34 962.46 386.06 1209.43 379.53 1014.36 567.55 997.53 727.64 1198.73 724.11
00001588 00000113 870.20 99.61 625.53 873.17 962.92 388.24 1209.77 382.52 1013.80 569.14 996.87 729.02 1198.46 726.19
00001589 00000114 870.15 101.37 625.07 871.90 962.42 388.45 1208.20 381.69 1012.72 567.47 996.98 728.35 1198.59 724.59
00001590 00000115 869.95 100.46 625.34 875.59 962.12 394.78 1207.04 388.92 1009.38 570.05 995.07 731.92 1197.48 728.92
00001591 00000116 872.14 106.98 619.40 865.67 962.85 405.83 1204.56 398.20 1009.47 574.26 994.34 736.77 1193.75 732.53
00001592 00000117 872.48 99.97 616.00 864.96 961.88 411.93 1201.08 403.76 1007.76 578.98 994.28 739.33 1188.26 735.10
00001593 00000118 872.79 95.72 613.94 864.13 958.96 413.76 1199.49 407.87 1004.59 585.76 989.36 738.61 1182.17 736.64
00001594 00000119 871.13 91.22 615.45 869.28 954.99 416.77 1193.48 412.23 996.72 587.92 984.63 740.11 1176.83 739.29
00001595 00000120 867.47 95.89 618.77 875.77 953.44 417.73 1188.28 412.86 989.26 586.94 982.43 742.77 1174.78 741.34
00001596 00000121 865.79 94.20 615.52 876.91 949.45 423.08 1183.22 418.22 984.24 591.75 980.66 747.60 1169.80 746.27
00001597 00000122 861.30 96.50 618.04 873.94 941.16 423.57 1180.27 423.89 976.47 598.51 968.87 749.39 1161.09 752.20
00001598 00000123 861.54 93.83 616.96 874.57 936.38 426.66 1170.70 426.31 965.91 602.45 966.23 750.91 1154.09 753.11
00001599 00000124 857.29 88.81 618.37 884.77 931.94 425.77 1160.37 424.92 955.51 598.10 961.06 750.86 1146.70 752.39
00001600 00000125 851.96 88.34 623.11 886.91 926.55 422.76 1152.39 420.51 945.44 594.71 957.12 750.99 1140.64 751.01
00001601 00000126 838.98 93.24 628.85 883.08 915.54 418.66 1145.14 419.10 936.55 598.84 944.20 750.59 1132.29 752.63
00001602 00000127 829.87 102.11 630.82 877.09 907.71 416.28 1139.43 419.68 930.35 602.60 938.19 751.50 1129.89 755.44
00001603 00000128 822.32 100.21 630.82 885.05 902.02 414.56 1135.63 418.32 929.91 608.65 937.37 754.83 1128.69 759.04
00001604 00000129 815.13 103.17 628.94 882.82 891.57 410.47 1133.95 415.27 927.22 607.11 929.40 754.88 1119.62 760.57
00001605 00000130 812.10 101.80 630.28 883.57 889.04 409.89 1132.56 414.13 924.99 606.97 926.96 754.00 1118.39 759.35
00001606 00000131 813.12 101.11 628.63 886.04 890.07 406.85 1134.05 412.88 925.61 605.92 926.59 753.14 1119.01 759.84
00001607 00000132 814.98 101.06 628.90 885.76 891.14 406.24 1136.58 412.07 928.10 606.04 927.58 754.10 1119.66 760.67
00001608 00000133 819.84 99.74 631.96 887.53 898.79 406.09 1138.18 412.52 930.28 607.80 932.61 754.50 1126.67 760.99
00001609 00000134 827.06 102.63 631.90 884.68 903.98 403.22 1147.72 411.82 936.97 609.06 934.65 754.99 1126.91 764.05
00001610 00000135 834.35 98.69 630.09 888.48 911.00 404.36 1158.29 410.87 948.05 607.41 942.04 757.93 1132.94 765.67
00001611 00000136 839.37 96.12 631.52 891.65 918.57 406.51 1167.88 409.76 957.88 605.11 950.97 761.49 1138.81 766.72
00001612 00000137 847.59 99.22 626.59 884.80 928.46 405.69 1175.82 404.37 971.20 597.48 961.07 757.68 1144.57 759.57
00001613 00000138 853.26 98.45 624.45 880.74 934.56 404.39 1181.25 399.54 977.69 593.17 970.38 755.11 1155.14 753.80
00001614 00000139 854.52 87.74 626.08 887.24 937.58 405.45 1186.28 395.98 984.85 590.73 976.90 753.93 1165.60 749.03
00001615 00000140 855.76 81.44 627.09 891.14 940.44 407.02 1189.92 392.77 992.55 587.83 982.62 754.57 1175.79 745.71
00001616 00000141 857.82 87.07 622.51 876.66 944.80 401.85 1193.17 386.48 1002.81 582.17 986.81 744.40 1179.98 734.75
00001617 00000142 856.00 88.34 624.71 874.60 947.96 392.26 1195.57 378.70 1008.11 576.05 989.38 736.70 1181.85 728.32
00001618 00000143 858.68 91.63 625.59 866.48 949.99 387.22 1198.09 372.57 1011.22 570.69 992.38 731.27 1183.57 722.08
00001619 00000144 862.17 92.90 622.23 860.90 952.12 387.14 1201.24 372.58 1012.20 565.04 990.45 726.27 1184.56 717.22
00001620 00000145 867.07 95.00 620.87 853.53 955.64 387.76 1205.61 372.79 1015.39 563.04 992.99 725.70 1184.95 716.56
00001621 00000146 870.50 84.99 613.37 874.85 950.41 378.17 1213.20 373.72 1019.04 560.48 992.65 727.84 1189.92 725.89
00001622 00000147 873.90 94.00 619.99 850.01 961.06 382.51 1214.94 365.25 1026.51 559.81 1002.41 726.35 1194.01 715.06
00001623 00000148 878.64 97.74 616.90 844.38 966.20 380.81 1221.50 366.08 1033.92 560.28 1006.00 724.73 1196.63 715.38
00001624 00000149 882.32 99.04 614.90 845.15 969.37 378.71 1224.67 365.51 1036.40 559.46 1007.27 723.56 1198.82 715.31
00001625 00000150 884.61 98.15 611.34 845.33 970.48 378.88 1225.28 366.26 1037.86 560.20 1008.18 722.98 1199.58 715.23
00001626 00000151 886.89 95.48 608.48 843.92 970.67 380.11 1225.28 367.42 1036.67 560.28 1007.84 722.04 1200.59 714.39
00001627 00000152 888.17 96.34 606.31 838.11 969.94 380.87 1226.58 369.78 1035.83 562.93 1003.76 718.20 1203.90 711.82
00001628 00000153 886.40 80.89 600.62 861.63 962.07 375.75 1223.56 378.99 1030.99 564.22 995.71 715.57 1198.60 720.19
00001629 00000154 877.31 77.30 613.78 858.49 955.52 375.43 1218.11 374.27 1024.96 569.79 991.41 714.83 1200.10 715.36
00001630 00000155 877.45 84.34 613.44 857.42 954.48 377.03 1217.75 376.11 1022.60 573.30 990.83 719.25 1199.88 719.71
00001631 00000156 885.85 102.92 605.49 832.67 965.47 386.03 1222.90 378.59 1028.88 571.02 994.17 723.20 1196.43 719.75
00001632 00000157 885.15 98.84 610.01 841.67 970.36 381.40 1227.55 377.57 1032.84 571.75 1000.60 723.41 1197.02 723.22
00001633 00000158 890.11 96.38 608.42 853.31 976.51 377.66 1235.25 376.22 1040.02 569.77 1004.52 724.87 1197.68 726.84
CROP_BBOX: 511 0 1825 1080
