Video ID: 	BvaUzNBW3no
H: 	1080
W: 	1920
FPS: 	23.976023976023978

FRAME INDEX X0 Y0 W H [Landmarks (5 Points)]

00003358 00000000 500.57 152.95 466.13 684.28 732.31 441.22 887.80 401.52 906.06 496.20 812.84 667.95 940.42 632.64
00003359 00000001 499.48 154.41 466.90 682.31 729.27 448.54 884.44 401.50 904.81 499.04 815.98 671.93 942.84 630.73
00003360 00000002 496.07 157.04 471.58 677.58 729.54 451.28 885.05 398.77 906.68 505.96 809.55 674.10 937.94 629.68
00003361 00000003 493.06 158.02 474.45 680.36 725.99 453.58 889.35 397.62 908.48 511.10 809.56 681.76 940.35 634.43
00003362 00000004 489.77 164.75 479.31 673.40 715.77 474.75 876.03 397.66 901.72 521.97 804.32 690.28 935.98 626.40
00003363 00000005 487.22 170.91 482.98 669.88 711.13 488.34 874.18 406.38 893.36 537.47 795.86 697.77 928.57 630.61
00003364 00000006 483.49 178.92 485.02 677.21 701.27 492.75 870.40 426.82 874.58 544.45 785.71 704.59 923.04 649.66
00003365 DELETE   478.44 188.70 479.88 663.31 685.10 497.50 856.88 427.91 855.58 552.51 761.04 700.85 909.40 642.48
00003366 DELETE   476.40 184.49 480.18 657.11 674.28 490.04 848.93 417.85 847.47 536.70 759.70 692.17 909.38 631.74
00003367 DELETE   480.86 172.72 484.99 665.49 684.93 478.13 860.25 406.02 864.31 519.78 780.47 688.70 925.98 627.68
00003368 00000010 487.24 163.57 484.76 668.89 701.00 460.14 876.19 394.31 884.90 504.65 796.27 680.16 940.71 623.91
00003369 00000011 491.70 160.36 483.97 673.68 719.61 455.53 883.70 388.46 905.71 497.68 809.59 674.36 947.51 617.61
00003370 00000012 498.17 161.28 477.75 669.75 725.61 458.60 886.40 390.77 910.45 498.98 819.85 678.49 949.79 621.20
00003371 00000013 496.82 160.30 480.85 672.64 726.64 457.43 889.77 390.37 912.39 502.28 819.81 680.59 951.04 623.97
00003372 00000014 494.17 159.28 485.53 676.96 726.64 458.78 889.07 388.93 913.18 504.08 818.89 682.51 950.40 623.83
00003373 00000015 494.41 161.55 485.09 674.87 723.59 461.15 884.43 387.82 909.55 503.38 815.44 682.24 947.74 621.06
00003374 00000016 495.25 160.91 485.11 674.44 722.53 468.13 882.80 390.40 908.76 508.21 815.67 684.53 947.58 619.69
00003375 00000017 496.18 161.59 486.02 674.15 720.38 471.52 883.69 391.35 906.04 511.27 810.75 685.70 946.82 618.85
00003376 00000018 499.71 159.82 485.93 673.62 725.23 472.21 885.90 392.45 907.18 512.27 812.75 681.58 947.40 615.25
00003377 00000019 504.55 163.55 485.10 667.10 732.69 471.01 898.26 395.21 916.53 518.88 819.38 685.28 952.07 621.74
00003378 00000020 510.75 163.31 482.68 662.85 746.21 471.00 910.94 399.89 931.62 523.78 824.54 683.32 956.89 623.11
00003379 00000021 516.82 158.59 479.67 669.53 755.76 465.95 920.72 402.26 943.28 524.96 831.41 684.06 964.48 629.55
00003380 00000022 524.03 154.12 477.90 679.62 765.64 463.84 926.48 405.27 949.91 527.15 838.44 686.59 969.00 636.66
00003381 00000023 540.78 161.82 462.35 680.40 763.62 468.94 922.98 415.28 935.81 534.14 845.34 686.72 972.05 643.72
00003382 00000024 547.36 160.39 457.77 675.65 767.38 470.08 922.95 417.81 934.58 535.16 848.73 684.72 970.73 642.59
00003383 00000025 547.21 159.76 460.13 676.60 767.84 469.40 925.77 417.46 936.00 535.03 849.37 684.39 973.06 642.47
00003384 00000026 550.97 159.62 458.73 676.90 769.05 469.13 925.93 415.73 935.17 533.78 849.75 683.00 973.64 640.18
00003385 00000027 554.02 160.65 455.26 674.11 771.31 469.22 925.98 415.60 936.06 534.30 849.97 680.49 972.48 637.71
00003386 00000028 553.13 162.84 461.88 670.04 779.01 467.82 925.42 414.07 940.07 521.68 852.13 673.89 972.87 628.84
00003387 00000029 550.98 161.63 463.12 670.86 778.44 468.82 926.27 417.41 938.41 523.74 847.16 673.02 969.70 629.96
00003388 00000030 551.25 163.62 462.99 668.28 779.83 465.74 928.26 416.71 940.20 522.99 846.28 671.65 971.03 630.64
00003389 00000031 552.81 163.55 461.60 669.09 779.83 461.23 929.89 413.04 940.87 520.58 848.05 671.52 972.04 631.07
00003390 00000032 553.65 163.04 461.31 669.97 781.04 460.11 932.19 415.25 943.47 520.33 849.43 670.85 974.48 632.99
00003391 00000033 557.60 158.83 458.36 681.95 781.29 459.61 934.24 416.80 943.74 530.03 848.35 677.11 973.30 643.44
00003392 00000034 555.37 160.04 470.26 687.62 790.94 455.04 940.29 412.95 954.50 529.13 855.89 680.18 977.16 647.62
00003393 00000035 564.55 161.63 466.50 687.86 802.27 445.78 955.23 410.73 971.97 521.76 865.30 678.54 995.24 648.57
00003394 00000036 569.29 163.21 465.81 690.12 811.23 445.09 964.03 416.71 983.16 522.25 869.78 679.30 1000.89 655.02
00003395 DELETE   579.49 164.52 459.52 691.71 818.82 452.06 970.97 425.23 988.46 528.57 873.44 681.91 1004.18 658.96
00003396 00000038 586.13 166.21 455.50 690.12 829.34 456.55 978.04 427.65 998.70 538.16 881.46 687.25 1007.20 662.99
00003397 00000039 590.50 165.98 454.62 693.94 834.58 463.29 986.46 431.96 1006.30 547.16 886.73 696.28 1012.06 670.24
00003398 00000040 590.18 173.03 455.23 682.39 837.72 471.14 983.80 437.57 1007.73 555.27 889.39 699.91 1008.99 672.67
00003399 00000041 590.25 173.50 456.83 678.49 837.18 472.72 985.23 436.59 1009.78 558.67 890.72 701.14 1011.39 671.85
00003400 00000042 588.89 173.26 457.49 677.83 831.94 474.24 982.78 435.54 1005.04 558.21 886.42 701.54 1008.99 670.13
00003401 00000043 581.91 175.20 460.64 678.45 823.81 476.03 976.24 433.50 997.56 553.00 881.08 701.74 1005.39 667.43
00003402 00000044 579.47 175.13 463.49 677.49 817.31 471.42 974.81 426.39 991.06 548.71 877.94 701.28 1004.41 664.71
00003403 00000045 571.80 167.41 468.89 684.80 812.06 464.59 973.08 421.12 985.89 543.34 873.93 695.66 1003.06 659.93
00003404 00000046 569.28 167.54 469.26 682.00 806.62 459.31 967.36 415.00 980.89 540.33 868.95 692.53 1000.01 655.86
00003405 00000047 568.12 165.69 464.01 681.15 803.49 455.18 962.59 414.46 975.94 534.30 869.74 688.46 998.19 654.36
00003406 00000048 567.75 168.57 460.81 675.23 804.92 452.27 959.84 416.04 975.23 529.79 867.41 681.59 994.43 651.28
00003407 00000049 569.34 168.52 461.92 673.26 804.05 451.68 962.47 416.13 975.48 525.85 867.46 680.11 998.21 650.22
00003408 00000050 571.08 165.08 463.39 679.96 806.69 451.71 964.97 414.43 978.27 529.54 870.03 682.49 1001.09 651.24
00003409 00000051 571.59 163.80 463.38 684.55 807.24 453.33 967.46 413.46 981.72 534.20 872.33 687.65 1003.16 654.25
00003410 00000052 569.22 168.11 468.02 681.67 805.96 457.93 971.03 418.05 982.66 540.06 869.40 692.22 1002.98 658.92
00003411 00000053 566.92 167.69 468.97 681.95 805.29 460.48 969.18 419.74 982.17 540.84 869.43 693.60 1001.71 659.76
00003412 00000054 565.19 165.97 470.15 683.04 802.92 458.99 966.77 416.30 979.06 537.69 868.02 690.84 1001.36 655.12
00003413 00000055 566.15 166.56 466.96 685.03 801.18 455.18 963.04 415.91 974.67 533.87 866.19 689.20 999.03 656.33
00003414 00000056 568.15 167.56 465.54 687.51 802.38 451.32 960.77 415.42 973.81 531.04 867.50 688.20 998.91 658.03
00003415 00000057 571.40 165.42 464.52 687.33 804.45 450.53 963.80 413.64 976.15 531.06 865.82 685.45 999.95 654.37
00003416 00000058 573.17 164.41 465.92 687.09 810.98 451.85 969.42 416.94 983.73 531.09 865.78 681.27 1002.30 651.93
00003417 00000059 580.43 165.43 461.33 685.00 817.83 453.07 977.23 423.03 990.68 529.78 872.57 681.62 1009.11 656.09
00003418 DELETE   587.10 160.11 462.33 691.29 833.54 458.14 989.07 425.43 1007.95 540.51 885.63 688.93 1016.33 661.74
00003419 DELETE   596.77 178.09 456.38 673.36 846.30 469.23 993.04 439.58 1017.31 552.51 895.29 693.89 1017.19 669.34
00003420 DELETE   602.22 187.43 458.58 668.82 862.59 482.64 1003.12 455.78 1031.20 571.54 907.23 706.07 1020.38 684.30
00003421 00000063 615.39 198.81 453.67 659.67 853.75 489.38 1007.59 453.75 1018.54 579.94 900.29 714.21 1023.77 685.58
00003422 00000064 615.63 198.66 453.27 663.46 852.40 491.14 1007.62 454.63 1016.10 583.51 898.47 716.64 1023.11 687.12
00003423 00000065 603.16 196.47 458.03 658.77 855.48 488.03 1005.71 456.98 1024.48 579.40 900.55 711.60 1019.33 686.36
00003424 00000066 600.05 185.42 457.56 666.40 849.60 482.84 1004.55 450.17 1020.69 571.61 896.58 706.33 1019.10 679.80
00003425 DELETE   590.30 181.46 456.13 670.74 839.84 478.55 989.28 444.81 1011.25 562.96 886.06 700.58 1008.30 673.30
00003426 DELETE   585.16 173.44 462.18 679.70 827.63 473.07 988.05 429.99 1004.83 556.50 876.03 700.63 1008.13 665.91
00003427 DELETE   583.21 175.70 459.69 671.53 821.14 464.51 981.82 423.87 995.39 544.40 871.46 692.33 1003.80 658.98
00003428 00000070 574.28 168.10 465.35 678.71 814.48 455.32 978.04 422.38 988.97 534.87 866.36 682.20 1003.28 654.58
00003429 00000071 573.01 164.41 462.83 680.53 814.19 453.44 972.83 422.29 986.74 530.81 866.95 679.24 1000.58 653.05
00003430 00000072 572.63 164.87 461.67 679.45 814.41 450.42 973.50 422.75 987.60 530.06 867.18 678.89 1000.81 655.36
00003431 00000073 571.43 165.51 461.95 682.62 814.95 453.14 971.80 425.30 986.90 534.38 864.88 680.18 998.41 656.68
00003432 00000074 573.83 169.76 461.63 678.66 816.39 455.59 977.98 429.04 988.94 541.31 864.60 683.87 1000.30 661.68
00003433 00000075 575.15 173.22 461.25 678.06 818.53 459.07 976.43 430.85 990.19 542.51 864.48 684.56 998.39 660.95
00003434 00000076 576.47 172.99 460.73 680.17 818.64 458.93 975.33 428.53 989.56 542.50 865.20 685.13 999.76 659.71
00003435 00000077 579.36 170.94 459.29 685.84 821.92 460.04 977.34 428.01 992.15 543.89 863.95 685.55 1000.00 658.90
00003436 00000078 581.04 172.57 459.67 684.51 824.90 458.52 982.41 430.76 995.65 542.54 865.70 684.88 1002.90 661.64
00003437 00000079 587.45 169.28 455.22 689.27 830.45 456.54 986.05 433.77 999.27 541.17 870.79 684.03 1006.06 664.52
00003438 00000080 592.29 165.15 452.67 693.50 839.28 455.46 992.08 437.87 1005.51 541.82 879.44 684.70 1010.89 669.12
00003439 00000081 600.25 169.56 454.27 689.42 858.53 457.18 1005.15 441.62 1026.99 551.46 897.27 691.95 1018.43 678.22
00003440 DELETE   616.12 181.65 448.05 685.40 871.00 460.10 1004.27 448.80 1030.45 563.38 903.24 695.55 1017.39 686.30
00003441 DELETE   628.41 193.17 445.49 669.95 885.47 475.62 1023.76 462.69 1040.14 578.61 917.45 707.30 1026.77 697.87
00003442 DELETE   632.90 198.55 446.62 677.41 891.22 484.17 1032.75 462.84 1049.79 591.63 927.66 725.03 1035.38 709.14
00003443 00000085 637.18 207.13 449.32 669.34 885.14 488.33 1042.87 467.17 1048.52 598.32 926.06 732.45 1044.23 716.82
00003444 00000086 632.31 207.72 454.71 670.53 883.56 491.55 1038.88 468.19 1046.22 600.21 927.35 734.78 1041.85 717.29
00003445 00000087 628.00 203.28 451.92 669.86 877.29 488.88 1033.06 467.88 1039.95 600.24 917.80 729.53 1033.72 713.56
00003446 00000088 625.34 198.68 447.89 678.29 868.20 488.57 1019.33 465.58 1029.69 595.43 909.18 726.43 1026.24 708.60
00003447 00000089 623.84 190.67 445.88 686.31 866.14 484.84 1010.97 463.81 1021.39 587.73 901.95 718.08 1017.26 701.39
00003448 00000090 620.52 186.54 446.03 682.09 865.17 479.65 1007.37 460.31 1020.88 574.92 899.87 704.95 1018.02 689.43
00003449 00000091 610.83 184.56 453.57 677.71 866.11 470.86 1015.58 456.93 1035.86 564.72 905.48 701.56 1026.05 689.65
00003450 00000092 610.66 182.59 449.14 673.53 860.57 466.04 1014.58 451.16 1032.50 558.50 903.18 696.08 1027.69 683.16
00003451 00000093 608.66 182.40 448.21 676.40 860.62 463.32 1012.93 451.03 1030.77 556.91 902.08 695.37 1025.85 684.37
00003452 00000094 607.70 182.20 447.54 676.04 860.16 461.74 1012.03 448.92 1030.48 555.78 902.33 694.81 1025.60 683.35
00003453 00000095 608.46 183.72 445.93 670.91 860.59 461.28 1014.79 450.40 1030.37 554.11 900.94 691.98 1027.64 681.86
00003454 00000096 606.45 177.54 446.48 675.42 859.69 459.49 1009.54 446.47 1028.26 548.99 899.90 688.35 1025.51 676.60
00003455 00000097 609.06 175.98 443.88 673.97 860.01 455.09 1007.21 442.84 1026.37 544.44 901.41 685.69 1024.51 674.67
00003456 00000098 609.58 169.21 444.45 678.76 856.80 453.33 1009.29 441.66 1026.10 542.17 903.76 686.96 1029.19 676.20
00003457 00000099 609.64 167.03 444.48 679.03 855.68 452.92 1009.20 438.44 1027.39 542.48 904.51 687.41 1029.56 674.49
00003458 00000100 613.32 168.04 443.39 677.26 856.50 451.41 1012.93 437.14 1030.57 542.79 907.02 688.48 1032.49 675.86
00003459 00000101 617.44 170.22 444.41 669.96 860.53 449.83 1015.88 435.94 1035.19 540.96 911.76 685.46 1034.55 673.20
00003460 00000102 622.50 165.13 450.54 685.98 876.96 446.86 1013.43 441.31 1033.64 542.85 916.80 676.09 1031.71 670.35
00003461 DELETE   630.01 178.18 451.54 672.75 894.78 450.86 1033.25 453.54 1049.09 550.02 932.16 684.36 1043.72 686.09
00003462 DELETE   642.57 187.73 447.73 666.79 902.75 461.86 1041.97 460.20 1057.26 558.47 937.81 692.77 1049.91 691.64
00003463 DELETE   658.04 195.74 437.26 663.55 921.06 472.78 1050.06 471.80 1069.49 575.61 946.70 701.88 1047.99 701.81
00003464 00000106 660.99 210.30 444.28 667.93 919.19 478.48 1063.30 481.39 1076.12 583.33 949.80 709.81 1059.86 711.24
00003465 00000107 661.33 202.47 435.53 665.65 918.48 481.97 1055.76 477.67 1068.99 582.18 943.53 708.05 1053.04 704.90
00003466 00000108 654.49 194.99 439.95 666.02 914.19 474.12 1050.79 464.05 1070.35 575.00 941.43 702.85 1050.18 695.45
00003467 00000109 642.49 189.73 445.74 662.86 906.72 466.73 1048.38 464.16 1063.68 570.47 936.32 699.48 1043.95 698.31
00003468 00000110 630.46 181.31 453.94 679.93 896.69 457.76 1040.16 454.87 1058.26 560.95 928.29 694.77 1043.44 692.90
00003469 DELETE   623.99 180.94 451.77 678.63 890.96 452.30 1023.52 450.18 1046.79 551.49 926.22 686.29 1036.60 684.07
00003470 DELETE   623.93 170.62 451.01 698.30 880.42 440.00 1013.82 441.95 1033.88 536.90 921.26 679.87 1033.10 680.27
00003471 00000113 623.15 174.18 449.27 690.33 876.37 438.24 1013.28 438.97 1032.20 535.89 910.93 674.70 1029.87 674.36
00003472 00000114 622.29 174.52 446.40 685.93 875.30 439.29 1010.70 439.72 1030.44 538.24 905.14 671.98 1023.33 671.48
00003473 00000115 620.35 174.48 448.16 678.87 873.05 443.36 1009.98 437.83 1028.55 541.19 901.92 671.64 1022.28 666.32
00003474 00000116 619.21 174.97 444.33 670.88 869.91 448.05 1017.92 442.28 1039.59 540.05 908.19 681.63 1028.97 676.95
00003475 00000117 619.06 175.63 443.55 672.54 871.89 451.32 1018.11 445.68 1039.79 543.10 906.80 683.03 1026.70 678.60
00003476 00000118 620.76 181.22 438.57 667.04 874.47 454.46 1017.61 449.25 1039.22 549.45 904.82 683.88 1023.15 679.85
00003477 00000119 617.78 182.09 449.40 673.91 886.00 459.14 1016.75 464.06 1036.25 561.04 899.04 677.05 1015.35 680.63
00003478 00000120 620.26 192.29 452.92 664.83 889.07 462.82 1029.88 468.83 1042.11 571.49 902.52 688.03 1019.29 693.33
00003479 DELETE   620.04 200.97 461.90 676.92 890.18 467.33 1042.43 478.37 1043.27 591.46 891.08 702.23 1017.16 712.12
00003480 DELETE   623.40 210.60 471.24 685.28 889.59 469.47 1046.44 493.64 1029.45 603.93 879.93 707.53 1009.42 728.00
00003481 00000123 627.63 225.97 487.90 681.74 893.25 466.10 1064.68 511.90 1024.35 616.29 869.63 710.61 1011.53 749.36
00003482 00000124 640.43 236.57 501.38 675.53 904.61 467.73 1085.28 529.45 1029.53 628.60 866.72 709.95 1012.53 761.20
00003483 DELETE   669.60 248.55 492.01 666.80 937.05 481.97 1108.82 551.03 1055.96 642.51 890.86 719.29 1026.47 777.06
00003484 DELETE   697.16 249.52 486.87 669.04 959.93 493.97 1130.85 554.09 1079.09 661.31 909.99 732.07 1040.58 783.44
00003485 00000127 711.97 257.36 482.04 675.44 969.60 492.62 1138.20 556.15 1087.28 655.25 922.49 730.84 1055.92 785.08
00003486 DELETE   711.17 249.50 482.37 678.68 965.41 489.85 1137.08 550.44 1081.87 656.76 916.03 729.50 1051.83 781.43
00003487 DELETE   699.77 258.27 485.67 653.90 961.55 490.59 1123.00 552.67 1070.37 657.43 907.03 724.01 1028.98 777.33
00003488 00000130 687.51 265.97 494.59 648.03 949.78 480.04 1119.64 554.84 1056.64 647.56 892.94 716.98 1025.03 780.20
00003489 DELETE   680.25 256.20 501.83 665.75 956.52 473.75 1122.14 548.36 1066.18 644.69 895.67 714.38 1026.47 777.37
00003490 DELETE   689.67 257.01 492.14 656.67 974.65 474.31 1128.65 553.90 1081.68 635.66 913.49 699.32 1039.13 764.94
00003491 DELETE   700.41 251.24 483.88 648.84 991.13 471.46 1143.38 551.95 1101.40 629.07 934.01 693.30 1055.23 760.18
00003492 00000134 705.50 254.77 479.82 643.74 997.67 475.72 1148.64 549.92 1113.47 624.24 947.78 696.31 1066.27 757.90
00003493 00000135 710.13 253.50 478.42 646.25 995.18 475.32 1148.30 546.01 1112.66 624.56 948.69 700.85 1068.48 759.60
00003494 DELETE   708.36 256.86 466.68 645.95 993.77 482.37 1137.40 552.64 1106.74 631.17 947.24 705.85 1056.95 763.44
00003495 00000137 703.72 254.97 463.16 652.65 986.18 483.44 1131.30 554.73 1099.62 636.29 940.74 709.59 1052.38 767.93
00003496 00000138 697.22 255.90 462.86 645.51 980.80 476.18 1124.31 547.46 1094.58 628.15 938.57 702.59 1050.29 760.74
00003497 00000139 697.53 243.64 462.00 657.12 981.94 464.26 1124.08 532.54 1100.62 616.83 942.06 698.61 1053.54 754.60
00003498 00000140 694.67 239.53 461.83 663.08 981.24 463.54 1120.44 529.70 1102.24 613.86 942.36 696.17 1053.64 750.24
00003499 00000141 695.51 238.69 463.35 662.95 980.80 462.79 1120.74 523.59 1103.86 612.52 943.66 697.41 1055.63 747.56
00003500 00000142 698.90 233.44 462.94 671.68 983.41 464.37 1126.75 519.53 1109.17 613.91 949.63 704.99 1062.23 750.65
00003501 00000143 701.56 230.91 460.95 672.38 985.43 464.87 1127.59 516.92 1111.97 612.81 954.72 706.81 1065.19 750.21
00003502 00000144 703.85 233.15 457.57 668.15 990.04 467.90 1126.58 517.13 1117.44 611.14 961.72 706.43 1069.04 747.56
00003503 DELETE   705.17 244.55 461.51 659.54 996.40 484.28 1126.97 530.01 1123.55 622.30 965.27 712.82 1070.69 751.24
00003504 DELETE   718.80 234.93 456.69 678.37 989.31 489.65 1137.88 523.53 1127.79 634.28 961.47 726.98 1083.35 757.41
00003505 DELETE   734.64 251.55 448.61 673.57 997.79 496.97 1143.72 532.69 1137.87 646.57 965.07 735.95 1084.98 768.96
CROP_BBOX: 245 0 1424 1080
