Video ID: 	yc_cxd5SI7I
H: 	1080
W: 	1920
FPS: 	30.0

FRAME INDEX X0 Y0 W H [Landmarks (5 Points)]

00005249 00000000 904.75 199.60 459.12 632.59 1065.39 420.91 1273.90 419.83 1200.27 542.35 1096.85 671.42 1255.61 668.24
00005250 DELETE   913.69 201.51 458.86 626.61 1078.72 421.85 1287.77 419.81 1217.91 546.95 1110.43 673.11 1268.19 669.57
00005251 00000002 913.74 200.94 458.68 627.03 1078.95 421.91 1287.85 419.85 1218.09 547.15 1110.44 673.05 1268.08 669.51
00005252 00000003 925.71 212.04 460.18 620.22 1102.02 423.32 1310.17 436.52 1236.12 558.32 1129.06 671.31 1280.69 680.80
00005253 00000004 930.67 213.60 462.10 626.02 1109.33 429.49 1318.01 442.96 1243.50 566.73 1132.68 678.29 1287.89 687.86
00005254 00000005 934.53 220.95 464.42 627.93 1114.98 435.98 1319.60 447.67 1246.16 571.79 1136.09 685.78 1292.53 694.18
00005255 00000006 934.53 221.27 464.41 627.63 1114.89 435.93 1319.61 447.57 1246.07 571.84 1136.13 685.77 1292.50 694.14
00005256 00000007 936.76 219.20 465.84 635.94 1117.52 438.36 1320.32 450.75 1245.52 577.62 1136.77 693.22 1290.03 702.43
00005257 00000008 936.48 227.66 467.04 628.09 1114.45 440.90 1320.37 453.55 1241.34 580.41 1133.31 695.24 1288.88 705.03
00005258 00000009 934.84 228.04 467.37 629.94 1113.09 442.80 1318.36 456.47 1239.53 581.49 1130.92 695.91 1286.40 706.70
00005259 00000010 931.77 228.20 469.94 634.24 1110.93 442.38 1315.37 455.83 1237.58 581.33 1129.35 696.97 1283.33 707.70
00005260 00000011 928.54 226.89 470.08 640.63 1107.97 442.24 1311.25 453.83 1235.65 583.08 1127.77 698.16 1281.56 707.50
00005261 00000012 928.56 227.03 470.11 640.38 1107.95 442.17 1311.25 453.81 1235.57 583.08 1127.74 698.08 1281.54 707.47
00005262 00000013 922.63 224.62 474.81 646.42 1104.35 442.06 1305.78 454.99 1230.52 583.41 1122.13 697.20 1276.78 707.68
00005263 00000014 922.59 225.21 474.91 645.82 1104.28 442.09 1305.79 455.00 1230.43 583.46 1122.15 697.25 1276.83 707.72
00005264 00000015 918.95 229.62 472.92 642.54 1095.24 443.74 1297.17 455.78 1219.83 583.60 1114.65 699.15 1267.68 709.12
00005265 00000016 908.22 237.77 475.13 624.03 1070.93 450.72 1282.67 455.77 1199.65 589.36 1097.58 700.52 1251.23 702.14
00005266 00000017 908.16 237.34 475.31 624.66 1071.06 450.58 1282.88 455.68 1199.80 589.47 1097.58 700.58 1251.26 702.24
00005267 00000018 907.91 236.09 475.61 626.06 1071.23 450.58 1282.93 455.80 1199.90 589.26 1097.73 700.60 1251.34 702.34
00005268 00000019 892.45 213.15 464.31 633.39 1042.99 454.90 1248.91 455.44 1161.92 574.34 1070.83 693.38 1224.08 692.29
00005269 DELETE   884.34 211.82 458.96 631.95 1024.83 446.07 1234.09 450.02 1139.74 568.57 1050.20 685.87 1201.44 688.35
00005270 00000021 876.25 200.98 458.59 642.37 1006.19 436.53 1221.79 440.56 1122.23 564.55 1032.15 685.46 1185.13 687.97
00005271 00000022 866.49 203.50 459.04 639.65 994.75 430.44 1205.38 436.45 1103.75 558.39 1015.47 679.98 1164.70 684.62
00005272 00000023 857.91 202.58 460.09 638.90 985.55 425.02 1197.71 432.93 1093.39 554.75 1006.60 676.96 1153.91 683.21
00005273 00000024 857.83 202.17 460.14 639.17 985.58 425.14 1197.50 433.09 1093.29 554.98 1006.66 676.93 1153.57 683.23
00005274 00000025 852.97 200.25 459.60 636.72 974.80 426.04 1187.94 430.33 1077.45 546.41 997.86 679.71 1147.05 680.53
00005275 00000026 847.49 195.54 459.09 640.12 966.44 424.41 1177.06 428.84 1068.09 548.37 990.85 678.15 1136.20 678.93
00005276 00000027 843.79 201.58 457.36 634.93 960.08 420.79 1170.09 425.16 1061.55 544.35 984.39 675.29 1128.36 676.46
00005277 00000028 840.45 201.10 456.43 635.03 953.00 418.10 1165.98 423.10 1055.90 541.41 978.06 674.31 1124.89 676.19
00005278 00000029 839.53 197.35 455.84 635.69 947.73 416.09 1161.90 420.71 1049.74 536.19 972.18 671.71 1122.14 673.52
00005279 00000030 839.57 197.34 455.80 635.68 947.74 416.11 1161.91 420.72 1049.75 536.19 972.16 671.70 1122.14 673.50
00005280 00000031 838.11 195.04 456.62 631.81 941.78 412.58 1161.12 418.15 1043.01 535.52 964.28 668.87 1123.31 671.56
00005281 00000032 837.50 195.22 455.70 629.12 940.23 409.70 1158.96 416.13 1039.85 534.77 961.51 665.31 1121.27 668.99
00005282 00000033 837.46 195.30 455.57 628.85 940.14 409.73 1158.93 416.12 1039.79 534.77 961.50 665.28 1121.44 668.91
00005283 00000034 835.79 197.34 459.45 628.89 938.15 406.94 1154.78 413.07 1035.04 529.24 957.76 662.03 1113.83 665.73
00005284 00000035 836.25 199.31 457.86 623.54 936.54 406.69 1153.77 413.15 1033.04 529.12 954.95 660.15 1113.73 663.95
00005285 00000036 836.20 199.26 457.67 623.90 936.61 406.59 1153.64 413.15 1033.08 529.20 954.90 660.15 1113.45 664.06
00005286 00000037 835.10 199.90 458.06 618.09 933.82 406.86 1152.04 413.10 1030.31 529.15 952.99 658.50 1113.94 662.00
00005287 00000038 833.08 202.35 457.32 612.56 931.15 407.29 1150.11 412.58 1027.79 528.70 951.73 657.57 1113.95 660.23
00005288 00000039 832.12 203.23 456.55 609.79 928.25 409.63 1147.43 415.30 1023.24 531.57 947.91 656.72 1112.88 659.71
00005289 00000040 829.66 205.17 457.08 607.27 924.88 412.30 1144.00 418.40 1018.73 536.82 943.74 658.24 1109.55 661.82
00005290 00000041 826.76 207.70 455.63 606.09 921.32 417.81 1138.68 422.25 1015.31 540.60 940.98 661.76 1106.68 664.13
00005291 00000042 826.87 207.49 455.62 606.20 921.31 417.87 1138.54 422.33 1015.32 540.63 940.95 661.77 1106.49 664.18
00005292 00000043 823.93 210.34 455.48 609.14 918.17 419.71 1135.25 423.44 1013.04 543.03 937.53 666.97 1098.43 669.39
00005293 00000044 823.91 210.45 455.48 609.02 918.14 419.69 1135.24 423.39 1013.03 543.04 937.55 667.01 1098.46 669.40
00005294 00000045 816.25 214.05 456.29 607.17 909.44 418.41 1125.35 421.93 999.96 544.81 928.56 667.09 1085.62 669.93
00005295 00000046 813.27 216.74 457.00 606.88 904.97 416.45 1120.55 421.10 992.42 543.40 923.78 665.43 1078.83 669.39
00005296 00000047 810.80 216.96 458.14 604.86 901.49 415.50 1118.13 420.50 989.11 544.42 921.02 665.59 1076.19 669.73
00005297 00000048 810.81 216.80 458.17 604.98 901.47 415.55 1118.13 420.49 989.12 544.42 921.03 665.59 1076.30 669.68
00005298 00000049 811.58 217.73 455.79 599.02 900.45 416.05 1117.37 422.24 986.60 545.46 917.54 664.35 1076.18 669.45
00005299 00000050 811.40 218.23 455.51 596.46 900.57 415.43 1117.28 421.38 986.46 544.59 917.94 661.55 1077.96 666.35
00005300 00000051 810.73 218.48 456.87 597.47 900.94 414.77 1117.32 420.94 986.08 543.19 917.62 661.74 1076.67 666.80
00005301 00000052 809.42 216.70 456.50 601.61 900.07 414.67 1115.87 420.93 985.28 543.44 917.44 662.92 1073.54 668.29
00005302 00000053 808.03 218.12 456.35 597.47 899.18 414.58 1114.18 420.37 984.79 544.02 917.41 661.03 1073.55 665.89
00005303 00000054 808.22 218.34 456.10 596.97 899.15 414.47 1114.25 420.31 984.86 543.96 917.20 661.04 1073.45 665.94
00005304 00000055 806.23 218.97 456.38 595.59 897.38 414.31 1111.94 419.36 983.25 542.09 915.31 656.36 1074.60 660.57
00005305 00000056 806.21 218.95 456.42 595.75 897.40 414.33 1111.91 419.37 983.23 542.08 915.33 656.36 1074.60 660.59
00005306 00000057 803.57 220.73 456.05 596.41 893.99 416.62 1110.17 421.32 980.35 546.65 913.63 662.50 1069.55 666.31
00005307 00000058 802.95 220.43 454.68 597.91 892.07 418.05 1108.58 422.41 978.33 549.26 911.48 664.83 1066.38 668.43
00005308 00000059 801.70 219.72 454.08 599.76 890.28 418.66 1106.11 422.27 975.45 550.39 910.91 666.07 1064.27 669.23
00005309 00000060 797.71 215.61 461.82 604.02 892.88 421.56 1102.69 426.90 973.57 547.34 917.52 664.85 1063.18 670.15
00005310 00000061 797.72 215.58 461.80 604.06 892.96 421.56 1102.80 426.89 973.72 547.33 917.57 664.90 1063.20 670.19
00005311 00000062 796.63 214.09 462.34 606.95 892.01 419.81 1101.18 424.51 972.17 544.86 918.06 664.48 1061.30 669.20
00005312 00000063 796.51 214.55 458.82 601.46 884.12 420.33 1098.43 423.21 966.48 544.56 910.00 662.54 1060.41 665.59
00005313 00000064 794.03 213.83 460.38 599.23 887.09 415.91 1099.51 419.54 970.00 544.74 912.06 660.45 1061.10 664.70
00005314 00000065 794.90 212.57 461.17 597.52 889.63 415.69 1101.02 420.29 971.01 542.72 911.31 656.64 1062.54 661.64
00005315 00000066 795.03 212.12 460.76 597.93 889.75 415.75 1101.03 420.31 971.18 542.65 911.45 656.68 1062.70 661.67
00005316 00000067 795.61 211.34 461.04 598.21 890.06 415.04 1102.22 419.76 971.94 540.53 910.51 655.77 1063.15 660.84
00005317 00000068 797.05 209.51 459.75 601.75 889.87 414.64 1103.19 418.28 971.73 538.03 910.62 657.16 1064.56 661.18
00005318 00000069 797.58 208.40 460.08 607.04 891.54 414.46 1102.42 418.03 972.42 536.92 912.98 659.36 1061.36 663.69
00005319 00000070 802.07 215.68 456.46 608.64 893.81 413.14 1106.02 415.55 978.38 536.86 913.99 658.55 1064.11 661.13
00005320 00000071 798.51 206.87 463.53 622.56 895.94 418.65 1103.07 417.22 977.48 540.32 916.39 661.43 1069.44 660.67
00005321 00000072 798.54 206.90 463.56 622.37 895.94 418.75 1102.95 417.22 977.58 540.43 916.74 661.54 1069.41 660.69
00005322 00000073 799.20 206.06 463.38 623.82 895.97 418.50 1103.33 417.16 977.22 539.66 915.93 661.60 1069.90 660.85
00005323 00000074 799.19 206.41 463.19 622.92 895.90 418.56 1103.31 417.54 976.96 539.63 915.47 661.47 1069.90 660.95
00005324 00000075 801.83 210.12 461.65 612.79 899.57 420.84 1105.89 426.15 977.97 538.29 918.91 659.49 1067.02 664.71
00005325 00000076 801.16 212.33 462.58 608.98 899.40 421.46 1105.90 426.45 978.19 538.91 919.01 659.34 1067.44 664.26
00005326 00000077 798.86 208.40 464.57 618.31 897.64 423.12 1103.94 422.59 978.99 541.56 917.08 661.52 1070.98 661.38
00005327 00000078 798.89 208.41 464.55 618.14 897.61 423.14 1103.85 422.62 978.99 541.61 917.16 661.55 1070.97 661.43
00005328 00000079 798.70 207.54 464.61 619.00 897.68 422.94 1104.12 422.97 979.43 541.23 916.49 661.01 1071.16 661.36
00005329 00000080 798.49 207.46 465.43 619.73 898.17 423.25 1104.43 423.06 979.86 541.20 916.82 661.07 1071.99 661.15
00005330 00000081 798.71 206.93 465.43 619.29 898.48 423.68 1104.30 423.69 979.57 540.73 916.86 660.66 1072.13 660.92
00005331 00000082 798.67 207.33 465.87 619.90 898.64 423.69 1104.37 423.62 979.60 541.12 917.65 661.37 1071.70 661.62
00005332 00000083 801.84 212.24 463.15 609.52 900.04 422.60 1107.03 427.84 978.90 539.91 919.42 660.48 1068.01 665.67
00005333 00000084 801.91 212.36 463.08 609.28 900.03 422.53 1107.05 427.75 978.90 539.95 919.45 660.50 1068.10 665.67
00005334 00000085 802.03 213.39 463.22 607.95 900.03 422.51 1107.25 428.03 978.75 540.67 919.11 660.72 1067.86 666.18
00005335 00000086 802.30 214.34 462.58 605.64 899.68 422.93 1107.25 428.04 978.89 541.07 919.44 661.23 1067.51 666.33
00005336 00000087 802.36 215.07 462.56 605.19 899.44 423.06 1107.37 428.31 978.61 541.55 918.78 661.83 1067.72 667.05
00005337 00000088 803.39 219.16 456.84 601.62 895.36 422.18 1108.47 423.98 980.41 542.10 914.00 662.46 1070.02 664.29
00005338 00000089 798.53 212.94 459.77 601.95 891.41 419.42 1106.38 422.89 973.78 541.77 911.13 662.70 1068.03 666.69
00005339 00000090 798.55 212.85 459.78 602.13 891.40 419.39 1106.50 422.93 973.79 541.81 911.03 662.77 1068.01 666.83
00005340 00000091 798.72 213.04 458.36 597.38 888.27 417.03 1102.68 419.52 969.34 542.30 910.37 662.88 1063.36 665.92
00005341 00000092 798.05 214.43 457.71 592.03 884.08 416.25 1101.43 417.71 964.57 541.13 908.13 664.63 1059.86 666.44
00005342 00000093 801.10 213.70 455.94 595.79 879.73 419.61 1093.94 423.55 955.91 544.92 903.58 666.76 1053.54 670.43
00005343 00000094 799.47 210.58 456.64 599.13 876.45 420.39 1089.07 424.17 951.12 543.83 900.02 667.65 1049.65 671.13
00005344 00000095 797.76 211.24 457.58 599.84 875.77 419.27 1086.17 423.38 946.52 541.49 897.18 665.53 1045.45 669.44
00005345 00000096 797.77 211.23 457.57 599.86 875.77 419.26 1086.17 423.38 946.52 541.49 897.17 665.53 1045.44 669.44
00005346 00000097 796.35 212.23 459.66 598.63 874.70 418.60 1085.93 422.62 945.20 540.95 895.89 664.57 1045.16 668.37
00005347 00000098 797.29 212.68 458.33 598.65 875.75 417.85 1086.95 421.69 947.22 540.02 896.78 663.60 1046.59 667.27
00005348 00000099 798.49 211.88 458.73 601.25 876.85 416.87 1088.25 420.69 947.91 538.90 896.99 662.82 1046.83 666.63
00005349 00000100 798.91 212.83 459.27 603.43 879.29 416.73 1087.43 420.01 948.37 534.98 898.33 661.42 1042.76 665.01
00005350 00000101 799.04 212.38 459.78 604.29 879.95 415.98 1088.44 419.60 949.00 533.45 896.74 659.15 1043.29 663.17
00005351 00000102 798.93 211.98 459.86 604.87 879.94 416.09 1088.18 419.61 948.85 533.48 896.71 659.34 1043.17 663.28
00005352 00000103 799.20 209.81 459.83 604.17 879.83 414.98 1088.61 419.49 948.05 532.63 894.03 656.67 1042.64 661.48
00005353 00000104 799.09 209.83 460.04 604.18 879.84 415.01 1088.57 419.55 948.07 532.70 894.01 656.63 1042.70 661.47
00005354 00000105 799.74 210.33 459.46 596.32 881.64 412.84 1090.88 417.69 950.96 532.45 895.60 650.27 1046.48 655.38
00005355 00000106 801.40 207.93 459.39 596.05 884.52 411.38 1094.07 416.71 953.89 531.28 898.42 647.62 1048.13 653.26
00005356 00000107 801.33 206.24 459.54 595.24 891.50 407.47 1101.00 413.23 965.78 530.68 906.80 645.59 1057.22 651.16
00005357 00000108 801.37 206.28 459.48 595.22 891.35 407.48 1101.01 413.13 965.72 530.58 906.70 645.64 1057.34 651.10
00005358 00000109 804.31 203.58 460.19 599.01 896.23 405.92 1106.33 410.95 973.30 528.38 912.42 643.23 1068.39 648.21
00005359 00000110 811.32 198.25 458.59 607.41 901.40 405.52 1115.61 409.79 979.97 528.40 917.72 646.04 1079.82 650.44
00005360 00000111 822.49 206.95 456.59 609.30 911.13 409.57 1126.17 410.19 996.60 526.75 932.78 654.18 1090.09 654.77
00005361 00000112 827.16 202.91 457.53 618.86 920.28 408.22 1134.00 409.38 1010.65 525.83 942.17 656.72 1096.77 657.30
00005362 00000113 829.51 194.17 458.41 620.43 923.21 408.52 1139.18 408.57 1018.40 526.76 948.50 656.43 1105.45 655.62
00005363 00000114 829.29 193.94 458.65 620.31 923.12 408.72 1139.23 408.83 1018.26 526.67 948.33 656.27 1105.71 655.45
00005364 00000115 830.47 189.31 459.08 618.11 928.06 406.56 1145.17 407.39 1025.71 521.57 952.29 652.17 1109.75 651.69
00005365 00000116 832.95 187.76 460.35 617.73 932.84 404.48 1150.30 405.48 1032.78 518.42 958.16 650.37 1115.14 649.66
00005366 00000117 833.02 187.80 460.35 617.64 932.83 404.61 1150.32 405.56 1032.65 518.38 958.13 650.38 1115.16 649.63
CROP_BBOX: 580 0 1662 1080
