Video ID: 	cOz-UJ38c1E
H: 	1080
W: 	1920
FPS: 	29.97002997002997

FRAME INDEX X0 Y0 W H [Landmarks (5 Points)]

00002204 00000000 953.65 274.59 402.90 532.85 1083.73 475.76 1267.73 494.56 1176.41 615.99 1080.57 680.99 1203.70 698.06
00002205 00000001 955.86 274.51 400.00 537.50 1087.47 476.35 1272.64 493.37 1185.26 617.33 1088.50 686.44 1212.22 702.21
00002206 00000002 960.65 278.81 393.89 534.22 1088.27 479.69 1272.75 492.70 1189.04 621.35 1092.42 689.74 1220.20 702.24
00002207 00000003 961.96 283.10 392.50 531.34 1090.85 483.58 1273.41 494.79 1190.26 623.72 1093.96 688.40 1227.34 699.60
00002208 00000004 961.93 286.07 392.95 535.32 1092.47 486.46 1271.67 497.80 1190.15 622.98 1086.22 683.09 1229.20 695.01
00002209 00000005 960.17 286.80 394.28 532.35 1094.18 487.76 1272.87 497.57 1192.36 622.02 1085.66 680.00 1232.36 690.78
00002210 00000006 961.47 284.43 392.76 531.01 1094.91 486.44 1272.62 495.37 1192.61 618.86 1086.76 677.45 1233.21 687.45
00002211 00000007 960.77 280.93 394.28 530.63 1093.28 482.09 1273.50 490.34 1193.06 615.71 1086.58 674.99 1235.01 684.34
00002212 00000008 961.24 275.51 392.83 526.81 1092.31 478.06 1275.19 485.92 1192.29 613.43 1088.23 672.82 1233.89 681.49
00002213 00000009 958.93 272.94 389.60 520.27 1089.14 476.16 1273.88 481.60 1190.90 608.67 1086.58 672.60 1231.28 678.56
00002214 00000010 958.82 271.05 387.14 520.19 1083.21 474.47 1267.21 478.88 1191.25 612.01 1091.01 673.62 1235.20 679.96
00002215 00000011 958.61 270.93 386.08 520.39 1081.62 474.75 1264.44 478.87 1188.22 610.76 1089.10 671.42 1234.23 677.67
00002216 00000012 957.02 270.46 385.22 520.43 1081.27 475.98 1261.57 478.64 1188.11 610.21 1085.97 666.20 1235.42 671.81
00002217 DELETE   958.73 270.70 384.11 521.22 1081.38 478.12 1260.60 479.59 1188.43 610.61 1087.29 667.52 1235.87 672.08
00002218 00000014 958.70 272.94 382.90 518.09 1080.46 478.72 1259.91 477.73 1188.57 610.89 1087.57 667.13 1236.79 669.59
00002219 00000015 959.01 274.36 382.93 518.17 1082.42 479.71 1260.65 476.94 1191.32 609.93 1091.01 668.01 1237.96 668.85
00002220 00000016 962.36 278.21 379.29 516.93 1083.00 480.28 1260.35 477.00 1191.56 609.83 1092.75 666.71 1243.24 666.98
00002221 00000017 962.79 276.81 379.69 517.16 1082.79 481.16 1261.10 476.32 1191.70 610.41 1092.07 665.63 1245.62 664.76
00002222 00000018 963.82 279.65 378.00 511.89 1083.06 480.61 1261.55 475.11 1192.33 610.43 1091.82 663.76 1246.31 662.46
00002223 00000019 964.04 279.16 378.31 509.78 1083.76 478.36 1262.29 474.57 1192.60 608.76 1091.03 661.10 1245.33 661.18
00002224 00000020 962.52 274.67 380.39 510.35 1084.12 475.44 1262.73 472.89 1192.79 606.64 1089.33 658.09 1243.62 659.37
00002225 00000021 965.13 267.24 379.92 512.00 1085.46 469.56 1266.01 471.16 1192.87 601.04 1088.06 653.17 1244.79 657.70
00002226 00000022 963.71 258.32 382.25 515.15 1085.99 463.56 1268.04 468.25 1194.34 593.79 1085.29 648.27 1242.94 655.20
00002227 00000023 963.21 248.57 384.90 520.85 1085.38 459.78 1268.33 466.02 1194.49 588.32 1084.25 643.99 1243.64 651.89
00002228 00000024 962.39 245.07 386.12 521.98 1086.05 457.46 1267.84 461.85 1196.39 585.02 1086.29 640.01 1246.90 646.32
00002229 00000025 961.91 242.51 387.57 526.31 1087.57 453.09 1266.08 457.84 1197.87 578.30 1087.47 636.98 1245.72 643.75
00002230 00000026 961.48 239.26 388.56 531.02 1088.50 451.56 1267.44 455.94 1200.64 577.16 1089.28 636.04 1248.72 642.25
00002231 00000027 963.01 239.74 387.42 530.52 1089.14 452.03 1267.51 455.47 1201.21 576.69 1091.17 636.78 1249.49 642.37
00002232 00000028 963.17 239.49 387.47 529.24 1088.91 451.92 1269.00 455.20 1201.85 577.31 1093.02 639.28 1249.53 644.65
00002233 00000029 964.07 239.41 386.64 526.50 1088.46 453.33 1268.21 455.90 1201.17 578.82 1093.67 640.00 1248.38 644.85
00002234 00000030 961.71 241.44 388.40 530.68 1088.57 455.89 1267.39 457.54 1202.03 582.26 1093.95 642.65 1248.57 646.36
00002235 00000031 961.70 243.13 387.24 529.49 1088.20 457.78 1266.95 460.21 1200.40 583.91 1090.60 642.33 1247.35 646.97
00002236 00000032 961.13 244.64 386.91 528.36 1087.07 458.17 1266.01 461.96 1197.93 585.84 1088.76 642.46 1245.94 648.10
00002237 00000033 959.23 244.65 387.07 528.56 1085.30 458.95 1264.74 462.24 1196.26 586.88 1086.41 643.03 1244.49 648.37
00002238 00000034 959.76 245.05 385.41 525.53 1083.96 459.14 1264.68 462.76 1194.53 585.91 1084.94 642.44 1243.84 648.07
00002239 00000035 958.13 245.51 386.70 525.15 1082.99 459.21 1262.62 462.77 1193.27 585.37 1084.69 643.79 1240.44 649.31
00002240 00000036 956.50 246.31 388.19 529.46 1083.34 458.94 1261.99 463.45 1193.46 586.31 1085.24 646.88 1238.21 653.03
00002241 00000037 957.36 247.25 385.99 526.75 1083.16 458.50 1261.82 464.65 1191.65 585.81 1084.06 646.82 1235.69 654.47
00002242 00000038 958.91 246.73 385.97 532.91 1084.36 459.27 1265.99 465.87 1193.67 587.79 1084.73 648.21 1241.84 655.85
00002243 00000039 958.61 247.40 386.83 531.49 1084.61 459.63 1266.75 465.68 1194.48 587.98 1086.06 648.67 1242.42 655.80
00002244 00000040 958.45 246.73 386.66 530.56 1083.20 459.68 1265.26 464.87 1192.99 587.68 1085.50 648.68 1241.59 655.13
00002245 00000041 956.47 248.04 386.64 529.30 1082.81 459.20 1262.58 464.46 1192.72 586.50 1084.67 648.19 1237.96 654.98
00002246 00000042 957.54 248.53 385.77 529.46 1082.43 459.51 1261.99 464.99 1190.65 586.35 1082.66 646.22 1238.90 653.25
00002247 00000043 959.53 247.60 384.33 525.22 1081.37 458.82 1263.65 464.28 1189.38 588.11 1081.12 644.41 1240.59 651.52
00002248 00000044 959.68 243.02 385.29 527.84 1080.21 458.81 1262.04 461.50 1189.21 587.84 1084.58 645.22 1241.95 649.85
00002249 00000045 959.85 241.61 383.62 522.94 1078.28 458.70 1261.90 459.05 1188.39 587.84 1084.88 645.06 1241.91 647.81
00002250 00000046 958.74 240.57 381.93 523.15 1076.79 458.06 1260.11 455.80 1188.55 585.55 1085.52 644.45 1242.43 645.02
00002251 00000047 956.67 239.13 382.82 527.42 1074.11 456.59 1258.02 453.42 1186.59 581.86 1083.46 643.66 1242.45 643.23
00002252 00000048 954.20 237.08 383.60 530.06 1071.92 454.64 1256.68 449.41 1186.68 575.58 1082.87 643.73 1241.84 641.55
00002253 00000049 952.55 236.86 384.11 530.19 1068.17 453.76 1255.24 445.23 1184.71 570.72 1082.64 644.33 1244.15 639.10
00002254 00000050 952.41 234.11 384.03 532.62 1066.98 453.05 1254.50 443.69 1184.11 568.97 1082.22 643.50 1245.16 637.61
00002255 00000051 951.18 237.03 385.38 530.48 1068.22 453.25 1254.29 443.97 1185.20 569.68 1081.08 641.22 1244.91 635.08
00002256 00000052 951.38 239.59 386.49 529.49 1070.47 453.61 1255.19 445.54 1186.65 570.43 1080.68 640.16 1244.92 635.16
00002257 00000053 953.49 238.81 386.72 531.31 1074.20 454.85 1257.17 447.78 1189.87 572.81 1082.59 638.60 1247.36 634.72
00002258 00000054 956.13 241.10 386.47 529.82 1076.76 457.94 1258.93 449.99 1192.91 577.20 1084.34 638.33 1251.52 633.92
00002259 00000055 957.28 244.51 387.83 527.85 1079.66 458.45 1260.78 448.44 1197.17 581.05 1086.15 636.01 1254.66 630.14
00002260 00000056 961.06 246.47 385.77 523.97 1083.65 458.83 1264.63 450.92 1200.00 584.50 1088.26 636.36 1255.87 632.66
00002261 00000057 962.74 252.12 385.82 520.67 1086.23 460.93 1267.73 455.57 1201.47 588.64 1088.14 637.69 1256.17 636.27
00002262 00000058 966.03 256.73 384.51 513.87 1087.60 462.80 1271.17 458.64 1202.68 591.72 1089.11 638.50 1258.89 638.16
00002263 00000059 967.99 260.93 382.82 509.40 1087.76 464.45 1272.92 461.04 1203.29 595.36 1089.67 641.78 1259.12 642.20
00002264 00000060 967.49 265.78 382.91 507.27 1087.36 466.99 1271.75 463.54 1201.80 597.85 1088.69 642.84 1258.88 643.14
00002265 00000061 967.74 269.89 381.63 505.71 1086.87 469.36 1270.03 465.24 1199.34 598.11 1088.20 644.13 1257.05 643.98
00002266 00000062 965.40 267.58 381.36 508.50 1085.18 468.99 1268.19 465.33 1198.42 599.26 1086.85 645.40 1255.45 645.60
00002267 00000063 962.55 264.97 382.60 512.51 1083.45 467.57 1266.19 464.74 1195.55 598.05 1085.71 645.97 1252.75 646.73
00002268 00000064 961.18 261.68 382.90 513.60 1081.61 466.66 1264.89 463.32 1193.63 596.43 1084.16 645.58 1250.96 645.95
00002269 00000065 959.88 259.87 383.59 515.96 1081.23 465.55 1263.39 461.94 1192.87 594.80 1084.42 645.57 1248.88 645.63
00002270 00000066 959.33 259.93 383.95 516.15 1080.70 465.32 1262.28 461.17 1192.10 593.44 1083.96 644.57 1248.87 644.19
00002271 00000067 958.61 257.63 384.36 519.08 1080.55 464.49 1261.53 461.35 1191.46 591.54 1083.48 644.55 1247.29 644.93
00002272 00000068 959.43 256.79 384.71 524.19 1081.87 463.89 1261.94 460.83 1192.76 590.38 1084.89 644.82 1249.38 645.10
00002273 00000069 960.02 257.12 383.63 526.55 1082.94 463.32 1261.94 461.10 1193.63 590.67 1084.79 645.15 1249.19 646.18
00002274 00000070 959.61 258.95 384.30 530.15 1084.33 463.04 1261.27 461.16 1194.73 590.84 1084.78 646.90 1247.84 648.25
00002275 00000071 960.84 261.26 382.34 530.21 1084.99 463.33 1259.89 462.04 1194.38 590.72 1085.14 647.58 1246.63 649.47
00002276 00000072 961.22 262.42 381.89 531.46 1086.08 463.80 1260.76 463.48 1194.47 593.05 1085.60 649.67 1246.71 652.37
00002277 00000073 962.20 262.86 381.69 532.11 1087.24 463.15 1260.60 463.69 1193.81 593.10 1087.31 651.58 1244.55 654.71
00002278 00000074 963.10 262.16 379.30 523.81 1085.33 463.82 1261.54 466.27 1191.75 594.41 1085.90 649.47 1242.10 654.53
00002279 00000075 963.09 260.14 380.48 512.45 1079.37 466.52 1264.60 463.96 1189.64 598.39 1087.60 650.53 1248.43 651.24
00002280 00000076 963.16 259.66 380.67 512.89 1078.54 467.22 1264.34 464.46 1188.61 600.56 1086.13 650.30 1249.04 650.96
00002281 00000077 961.67 259.62 380.83 511.10 1077.11 467.54 1263.63 464.25 1187.79 598.94 1085.30 650.37 1248.22 650.58
00002282 00000078 961.18 260.10 380.28 508.76 1075.27 467.86 1262.14 463.65 1186.22 598.97 1085.00 651.89 1246.07 651.37
00002283 00000079 961.88 258.49 380.11 510.41 1074.46 467.61 1261.79 463.30 1184.79 600.61 1087.46 656.22 1244.48 655.30
00002284 00000080 963.02 258.08 379.72 509.43 1074.59 468.49 1263.64 464.13 1185.35 602.26 1089.56 658.89 1245.92 657.77
00002285 00000081 963.77 259.80 379.14 508.69 1074.58 470.07 1263.08 465.11 1185.22 603.23 1091.12 661.28 1245.26 659.66
00002286 00000082 962.73 264.66 378.98 508.23 1077.42 471.64 1263.48 467.47 1187.79 603.17 1090.96 659.26 1246.35 658.63
00002287 00000083 961.92 268.93 381.08 510.96 1077.79 473.96 1264.75 470.15 1188.98 605.38 1088.40 660.98 1248.38 660.90
00002288 00000084 960.26 274.58 381.37 514.86 1078.42 478.39 1263.88 474.68 1189.15 608.13 1085.64 663.51 1247.52 663.87
00002289 00000085 959.84 282.79 380.27 512.43 1077.81 483.57 1263.45 479.97 1188.56 612.82 1082.88 666.06 1245.84 666.72
00002290 00000086 953.34 287.45 384.68 524.66 1070.81 486.26 1256.25 480.86 1188.81 615.96 1079.34 672.70 1242.00 669.12
00002291 00000087 951.80 291.44 385.59 526.16 1069.79 488.89 1254.39 484.19 1186.65 621.25 1076.95 676.21 1238.85 673.60
00002292 00000088 948.72 295.35 387.37 523.54 1069.70 491.41 1253.11 487.06 1186.21 624.59 1074.78 678.76 1234.86 676.55
00002293 00000089 947.21 296.54 386.04 522.66 1070.74 493.09 1253.16 488.15 1186.84 626.35 1073.99 680.51 1233.43 678.04
00002294 00000090 947.05 297.24 384.19 522.68 1069.83 494.56 1253.14 488.38 1187.22 628.43 1072.83 680.83 1233.73 677.34
00002295 00000091 944.07 297.84 385.56 524.45 1070.60 494.48 1252.52 488.06 1187.20 629.04 1073.20 680.30 1234.11 676.45
00002296 00000092 944.27 295.93 384.88 524.18 1069.37 493.30 1252.15 486.26 1187.47 626.25 1072.92 680.04 1233.10 675.54
00002297 00000093 945.92 296.37 380.56 521.83 1068.54 493.54 1251.95 485.18 1187.68 625.18 1073.41 680.80 1232.73 675.24
00002298 00000094 946.60 295.98 377.49 520.85 1067.79 494.83 1250.13 485.28 1186.04 628.63 1073.89 682.31 1230.80 675.60
00002299 00000095 947.95 298.89 373.74 509.47 1070.16 497.85 1249.97 490.22 1183.88 631.66 1082.37 684.91 1227.54 681.35
00002300 00000096 947.80 300.29 371.84 513.87 1068.33 499.97 1248.59 490.70 1183.83 637.75 1086.61 692.58 1226.20 687.26
00002301 00000097 947.27 302.85 372.83 513.89 1066.21 502.95 1248.03 490.84 1184.03 640.07 1092.48 701.10 1226.43 692.82
00002302 00000098 946.73 303.61 371.87 509.17 1065.58 503.87 1247.58 490.26 1184.35 640.62 1097.58 703.92 1225.92 694.04
00002303 00000099 945.16 298.58 373.05 515.09 1063.42 501.96 1246.45 486.58 1183.34 638.32 1090.23 703.11 1228.61 690.80
00002304 00000100 943.45 300.00 375.87 520.62 1064.66 501.68 1245.94 486.17 1184.94 636.13 1084.94 697.72 1229.88 685.81
00002305 00000101 944.95 299.53 375.96 524.74 1066.10 500.40 1245.86 485.98 1186.05 633.57 1082.04 694.37 1230.84 683.34
00002306 00000102 944.49 298.86 380.07 520.86 1069.16 496.39 1248.88 484.87 1188.56 629.16 1080.37 687.67 1232.22 679.27
00002307 00000103 945.26 297.38 382.97 523.93 1071.58 494.22 1250.65 485.18 1190.60 624.53 1079.98 684.64 1233.42 678.26
00002308 00000104 948.98 295.81 383.35 522.83 1073.89 491.59 1254.18 483.22 1193.21 623.11 1080.97 681.30 1236.60 675.84
00002309 00000105 951.39 294.42 382.44 522.27 1075.48 489.80 1256.47 481.37 1194.57 622.22 1081.55 678.48 1238.93 673.19
00002310 00000106 949.29 293.24 384.09 521.86 1074.59 488.16 1257.29 480.35 1194.24 621.90 1080.86 676.58 1239.48 671.55
00002311 00000107 948.65 291.57 382.91 522.88 1072.38 488.05 1255.39 479.73 1192.02 621.41 1079.84 676.68 1238.24 671.09
00002312 00000108 946.66 291.33 383.68 520.75 1070.96 486.86 1254.04 479.01 1190.15 619.76 1078.18 676.12 1235.32 670.79
00002313 00000109 945.39 288.99 384.34 521.95 1070.72 486.42 1253.22 478.74 1189.28 619.26 1077.55 675.11 1234.19 669.76
00002314 00000110 949.30 289.27 379.17 513.77 1074.67 489.37 1254.30 480.85 1189.58 621.46 1080.58 673.27 1234.90 669.82
00002315 00000111 949.45 288.12 378.95 513.81 1075.56 489.25 1253.95 480.57 1190.35 619.21 1082.08 673.82 1233.72 670.27
00002316 00000112 949.09 285.45 379.46 516.87 1075.14 488.44 1253.20 479.78 1189.92 618.16 1082.47 673.47 1233.82 669.84
00002317 00000113 949.58 283.09 377.85 517.47 1074.40 488.32 1252.43 479.34 1189.13 616.25 1083.31 673.41 1234.00 669.44
00002318 00000114 949.90 285.71 376.75 513.88 1072.88 486.98 1250.18 478.13 1186.55 615.82 1083.21 671.96 1232.69 668.03
00002319 00000115 948.75 284.20 377.03 512.96 1072.12 487.07 1250.61 478.36 1185.78 615.91 1083.02 672.54 1231.85 668.66
00002320 00000116 949.05 283.71 376.63 511.89 1072.10 486.60 1251.69 478.44 1185.85 616.46 1082.86 672.64 1232.03 669.23
00002321 00000117 949.44 282.37 375.67 511.00 1071.73 486.43 1252.03 478.64 1184.84 618.54 1081.80 673.00 1230.58 670.07
00002322 00000118 949.42 282.76 376.35 506.00 1071.13 488.41 1253.11 479.23 1184.48 619.99 1081.79 673.23 1231.17 669.23
00002323 00000119 948.29 281.44 378.35 508.19 1071.17 488.37 1253.60 479.49 1184.34 620.30 1080.54 671.77 1232.60 668.09
00002324 00000120 947.59 280.68 377.81 508.59 1070.22 487.61 1253.10 479.47 1183.45 619.26 1078.90 671.36 1231.62 668.38
00002325 00000121 946.90 281.66 376.62 504.78 1069.06 486.85 1251.10 478.57 1181.50 619.56 1077.50 669.66 1229.78 666.72
00002326 00000122 945.41 281.17 377.16 506.42 1067.85 486.48 1249.87 478.65 1180.26 619.32 1073.56 667.67 1229.07 665.35
00002327 00000123 944.33 281.80 377.93 504.35 1066.61 486.16 1249.39 477.94 1179.59 619.13 1072.76 667.33 1228.57 664.67
00002328 00000124 943.97 282.19 377.04 503.35 1066.46 486.09 1248.70 477.97 1179.23 618.71 1072.15 666.53 1227.55 663.99
00002329 00000125 944.13 281.47 376.78 504.55 1066.09 485.92 1247.53 478.00 1178.25 618.23 1071.49 665.69 1227.43 663.40
00002330 00000126 944.32 281.60 376.57 503.93 1065.92 485.81 1247.94 477.55 1178.87 617.54 1070.72 664.90 1228.27 662.40
00002331 00000127 944.95 279.86 377.12 505.87 1066.83 485.79 1248.16 477.96 1178.59 617.55 1072.91 666.14 1228.18 663.83
00002332 00000128 945.24 278.52 377.15 507.92 1066.96 484.61 1248.99 477.22 1179.17 617.68 1075.64 669.19 1227.67 666.95
00002333 00000129 946.96 277.68 376.15 507.90 1068.17 482.95 1250.38 475.36 1180.22 617.60 1085.54 678.33 1224.20 674.94
00002334 00000130 948.18 275.67 376.08 510.12 1068.36 482.04 1249.48 474.68 1179.70 613.64 1094.27 687.25 1219.02 683.20
00002335 00000131 949.29 274.72 376.65 509.54 1068.62 481.55 1248.72 474.29 1178.81 610.70 1096.23 688.24 1216.43 684.04
00002336 00000132 948.47 272.07 378.22 512.56 1068.43 480.22 1248.69 472.53 1178.84 609.33 1097.26 688.25 1217.79 683.53
00002337 00000133 947.43 271.15 378.82 515.43 1067.50 479.82 1249.32 472.07 1179.25 610.16 1094.48 687.10 1219.97 682.30
00002338 00000134 945.46 270.95 379.03 522.53 1066.75 480.55 1248.12 474.22 1178.76 613.87 1083.51 680.63 1221.85 677.99
00002339 00000135 944.07 272.52 380.53 527.76 1067.87 480.33 1247.90 475.82 1180.08 613.39 1079.04 677.77 1222.25 676.98
00002340 00000136 944.69 274.33 379.20 522.71 1067.35 481.24 1247.26 476.30 1179.14 614.53 1079.72 678.08 1220.54 676.97
00002341 00000137 945.99 276.28 377.30 513.78 1066.60 481.74 1248.96 476.36 1178.76 616.13 1080.86 678.24 1220.48 676.82
00002342 00000138 947.86 277.65 375.61 506.73 1068.16 481.40 1249.26 477.80 1177.84 616.57 1086.56 681.67 1214.42 681.38
00002343 00000139 948.32 275.40 376.09 508.86 1067.62 480.86 1248.35 476.33 1177.15 614.49 1089.39 683.52 1215.57 682.07
00002344 00000140 948.53 275.35 375.97 507.92 1067.17 480.84 1248.48 475.77 1177.40 614.87 1088.83 682.43 1217.62 680.64
00002345 00000141 947.19 275.71 377.01 512.71 1066.73 480.78 1247.39 475.36 1177.69 614.60 1084.69 679.00 1220.15 677.19
00002346 00000142 946.28 273.89 379.05 521.11 1067.18 480.38 1246.46 475.83 1177.50 613.75 1078.81 673.49 1224.36 673.00
00002347 00000143 945.90 273.02 379.93 518.61 1066.46 479.07 1247.23 475.99 1176.21 610.77 1072.50 666.99 1225.36 668.18
00002348 00000144 947.11 274.64 379.36 514.77 1067.37 478.45 1248.19 475.36 1176.32 611.09 1070.82 663.24 1226.99 664.81
00002349 00000145 947.86 275.94 378.48 508.69 1068.27 479.59 1249.21 475.52 1177.92 611.27 1070.50 660.17 1229.17 661.19
00002350 00000146 947.75 275.82 380.02 509.52 1068.36 479.28 1250.33 475.12 1178.41 610.63 1070.45 659.06 1231.95 659.96
00002351 00000147 948.40 274.86 378.87 509.68 1068.36 478.55 1250.48 474.09 1179.45 609.73 1070.94 658.90 1232.56 659.61
00002352 00000148 947.59 273.59 379.55 510.29 1068.63 478.74 1250.46 473.11 1180.07 610.15 1072.22 659.49 1232.64 659.16
00002353 00000149 948.40 273.33 379.26 509.67 1068.62 478.77 1250.85 473.41 1179.70 610.19 1073.81 660.42 1232.98 660.16
00002354 00000150 948.09 273.61 379.41 510.18 1068.36 478.42 1249.94 472.94 1178.93 611.67 1074.15 661.78 1230.77 661.37
00002355 00000151 948.71 272.76 379.24 512.60 1068.60 478.70 1250.25 473.24 1179.13 612.59 1075.28 663.96 1231.00 663.46
00002356 00000152 949.56 273.24 378.33 511.16 1068.15 478.65 1251.14 473.68 1178.67 614.24 1076.18 666.41 1230.66 666.25
00002357 00000153 949.42 272.65 378.60 513.05 1068.17 479.57 1251.60 474.18 1178.67 615.69 1078.96 671.22 1228.82 670.23
00002358 00000154 948.98 272.53 381.13 511.36 1067.10 480.96 1252.01 474.70 1178.55 614.72 1084.29 675.22 1229.78 672.72
00002359 00000155 947.87 272.26 382.20 512.92 1066.83 480.49 1252.89 474.69 1178.64 614.70 1083.66 675.33 1229.82 673.29
00002360 00000156 948.08 272.53 381.57 512.29 1066.88 480.39 1252.02 474.40 1178.46 612.86 1079.40 670.35 1231.46 668.60
00002361 00000157 944.15 267.94 385.25 527.21 1066.65 476.93 1250.31 474.25 1178.12 607.77 1076.02 669.62 1229.10 670.27
00002362 00000158 944.56 264.26 383.88 530.67 1067.93 474.11 1248.18 470.57 1179.57 605.55 1076.22 667.48 1226.62 667.62
00002363 00000159 943.65 257.49 385.99 535.26 1065.65 469.55 1246.54 467.68 1176.96 600.33 1075.26 664.51 1226.18 665.48
00002364 00000160 945.05 253.24 386.03 529.74 1066.39 465.46 1247.39 464.44 1175.86 596.28 1078.01 659.34 1225.58 660.94
00002365 00000161 946.55 246.84 385.23 530.93 1065.95 463.01 1249.67 464.15 1175.37 593.62 1076.75 658.25 1225.20 661.33
00002366 00000162 947.67 245.53 383.96 530.58 1066.58 461.13 1249.10 461.94 1175.28 590.25 1081.18 660.33 1221.92 662.79
00002367 00000163 948.40 248.85 384.08 529.50 1067.64 462.51 1247.36 461.50 1175.23 591.55 1084.58 662.43 1220.28 663.38
