Video ID: 	3D5FOKEiY30
H: 	1080
W: 	1920
FPS: 	25.0

FRAME INDEX X0 Y0 W H [Landmarks (5 Points)]

00004325 00000000 485.02 133.68 581.29 778.06 659.25 512.27 920.34 438.98 851.71 620.80 768.83 783.11 966.18 720.87
00004326 DELETE   495.93 123.70 582.37 785.55 670.01 483.88 929.78 420.02 861.93 596.38 783.63 775.82 968.03 722.43
00004327 DELETE   493.49 102.54 588.21 831.87 680.84 467.87 941.39 405.48 873.06 566.26 777.65 740.67 993.26 687.06
00004328 00000003 505.51 96.42 585.65 808.54 689.71 446.58 948.79 402.22 874.88 556.18 760.62 712.94 991.66 674.64
00004329 00000004 519.01 87.19 580.48 804.43 697.53 431.35 959.44 385.94 879.35 544.35 765.41 703.56 996.31 661.27
00004330 00000005 521.20 73.76 583.04 830.65 702.21 419.54 971.30 378.01 886.01 527.22 764.72 697.45 1004.14 659.40
00004331 00000006 542.33 78.08 567.05 815.17 715.23 408.39 974.65 379.33 885.99 528.33 763.75 686.79 994.80 658.83
00004332 00000007 543.93 60.55 571.97 825.29 721.68 404.84 986.59 374.03 899.19 515.33 773.53 676.58 1012.15 648.06
00004333 00000008 550.19 76.45 571.93 812.86 730.01 400.69 985.90 376.92 898.50 519.00 779.67 677.90 1002.49 653.82
00004334 00000009 557.54 78.37 571.39 801.52 738.60 398.76 994.02 376.82 906.75 519.78 796.19 674.84 1012.12 652.36
00004335 00000010 558.25 74.51 575.16 802.36 744.65 399.23 999.78 384.52 912.06 518.31 796.62 666.23 1017.22 649.96
00004336 00000011 567.86 62.53 564.29 806.52 747.13 397.68 1006.90 375.21 919.53 517.88 795.82 673.06 1022.30 652.27
00004337 00000012 576.56 65.59 557.67 792.70 749.50 397.84 1010.60 373.01 921.54 519.46 803.20 674.14 1024.65 651.48
00004338 00000013 573.90 78.14 562.26 791.39 744.92 401.01 1005.83 381.88 914.31 520.67 809.60 689.92 1019.95 671.52
00004339 00000014 573.34 81.62 564.63 815.62 748.66 401.58 1009.09 385.54 918.63 533.05 813.02 708.25 1015.69 693.78
00004340 00000015 573.19 78.85 561.89 805.98 748.61 409.16 1007.33 390.44 916.90 526.11 810.20 706.04 1009.28 687.93
00004341 00000016 575.84 85.08 555.37 777.55 738.43 415.83 1002.41 389.88 914.51 536.78 816.06 710.27 1014.74 685.61
00004342 00000017 575.34 89.94 552.48 755.73 732.70 417.72 1003.30 395.94 904.52 549.30 793.25 705.11 1001.58 685.08
00004343 00000018 572.21 84.86 551.47 765.01 731.22 426.06 1000.30 400.70 904.15 551.06 789.23 703.47 1004.39 680.31
00004344 00000019 570.28 87.86 552.46 760.99 729.37 430.17 1000.09 403.05 904.99 556.33 792.38 710.26 1004.52 685.36
00004345 00000020 567.97 88.46 557.35 780.62 728.70 431.77 1001.25 406.22 905.80 557.75 790.12 713.99 1009.27 690.23
00004346 00000021 566.68 94.13 558.28 773.74 727.75 433.79 1001.34 406.77 907.54 561.21 797.53 720.58 1010.94 695.55
00004347 00000022 562.29 97.81 562.63 795.27 735.69 436.41 999.61 409.20 910.34 566.86 796.55 728.05 1013.47 703.49
00004348 00000023 563.34 101.57 560.76 794.76 733.75 439.46 999.63 412.06 909.89 571.17 797.45 732.85 1014.26 707.87
00004349 00000024 561.55 105.77 559.04 781.09 733.29 443.60 999.26 416.39 910.63 576.53 795.68 734.50 1008.74 710.00
00004350 00000025 558.28 105.65 559.22 794.16 728.89 446.23 997.34 418.62 907.46 582.16 791.34 742.92 1007.28 717.84
00004351 00000026 557.43 104.83 555.72 768.70 726.51 451.93 992.04 421.32 903.66 585.71 787.81 734.97 999.82 707.66
00004352 00000027 550.68 104.85 558.00 750.96 723.23 455.52 989.36 420.81 904.05 588.30 790.96 736.01 996.31 705.46
00004353 00000028 549.54 104.95 550.87 759.48 716.08 453.21 989.64 425.30 890.90 585.94 778.47 720.62 996.57 694.91
00004354 00000029 543.20 99.92 560.76 804.93 716.84 459.09 990.17 437.39 889.47 584.94 769.13 731.15 991.90 710.96
00004355 00000030 548.35 112.35 553.42 787.40 716.30 463.09 981.59 438.90 884.37 593.06 760.41 733.33 980.06 713.88
00004356 00000031 546.17 114.06 553.18 786.82 718.91 463.02 982.12 435.63 891.93 592.06 769.65 735.07 987.32 712.70
00004357 00000032 544.33 112.47 553.90 788.18 719.45 462.33 979.16 433.85 892.52 594.43 773.06 733.88 987.64 710.37
00004358 00000033 540.74 111.25 562.90 783.29 716.54 454.73 981.83 428.38 896.15 588.50 780.89 737.67 994.71 713.00
00004359 00000034 535.26 109.64 567.51 789.83 715.29 457.91 980.60 426.80 897.62 589.46 778.87 734.62 1000.82 705.69
00004360 00000035 532.26 110.58 568.83 796.62 712.34 457.42 976.19 427.33 893.34 587.36 773.46 731.02 999.41 702.83
00004361 00000036 529.02 108.64 569.78 788.58 708.34 457.49 975.36 427.98 889.34 590.33 766.11 726.27 996.37 698.11
00004362 00000037 527.02 112.69 565.79 798.92 708.40 464.38 971.80 431.41 889.74 594.68 760.84 728.73 993.82 699.90
00004363 00000038 520.25 111.24 574.27 808.15 706.35 458.70 969.30 428.17 887.99 587.66 768.44 735.18 994.08 706.43
00004364 00000039 522.86 112.98 567.04 793.50 710.85 463.59 972.64 430.15 894.30 591.96 768.89 732.27 993.14 703.15
00004365 00000040 521.85 111.95 572.24 789.12 710.66 455.07 971.21 425.86 892.30 583.17 783.37 739.06 990.77 711.71
00004366 00000041 518.91 110.80 577.97 812.55 713.75 460.79 976.37 431.94 903.06 586.85 792.28 757.24 991.50 732.58
00004367 00000042 524.99 114.40 575.85 809.78 707.06 449.81 971.84 431.62 881.41 584.87 752.37 720.71 994.50 701.87
00004368 00000043 517.73 118.80 577.49 806.86 720.83 445.04 980.29 433.70 898.67 582.95 754.56 712.71 994.70 700.71
00004369 00000044 513.49 118.19 575.73 794.71 717.18 451.03 976.55 428.32 902.60 573.76 771.56 714.81 1003.03 692.79
00004370 00000045 514.60 117.39 579.05 797.75 713.34 449.56 980.77 434.92 897.25 582.39 745.82 710.86 995.39 696.27
00004371 00000046 510.56 116.25 578.30 807.25 714.76 449.15 979.14 435.84 899.15 581.16 753.43 717.63 993.69 703.97
00004372 00000047 509.48 113.01 574.34 809.46 719.04 448.76 977.69 432.56 906.48 579.43 781.32 730.41 995.84 713.07
00004373 00000048 507.56 114.22 575.18 815.64 716.42 447.46 979.81 433.24 903.76 579.85 768.71 732.96 992.50 717.61
00004374 00000049 504.72 112.84 572.69 808.70 717.81 445.25 975.46 429.99 906.50 575.09 786.22 734.80 991.78 718.52
00004375 00000050 510.83 111.62 569.75 811.38 715.32 444.15 979.40 436.14 898.33 582.41 766.82 731.14 986.09 721.10
00004376 00000051 510.69 115.31 563.31 803.02 714.81 446.23 968.13 433.06 893.81 579.92 778.00 728.90 984.19 714.61
00004377 00000052 508.65 109.39 565.18 824.46 709.55 447.93 964.71 437.69 886.16 580.68 766.76 735.74 975.91 723.76
00004378 00000053 512.58 110.88 558.19 817.30 704.42 452.23 963.42 435.09 884.67 583.58 763.61 741.81 975.62 724.28
00004379 00000054 504.89 114.11 559.73 818.47 695.64 454.28 958.34 434.86 880.72 590.36 757.97 760.08 962.85 741.45
00004380 00000055 510.30 117.24 554.03 771.97 693.28 466.29 955.78 434.03 877.90 597.01 762.25 749.66 964.43 721.27
00004381 00000056 509.29 124.37 552.33 768.11 690.11 467.91 956.20 437.23 873.77 603.42 749.54 748.66 962.23 721.80
00004382 00000057 506.86 122.92 553.73 781.68 686.79 467.31 954.61 440.05 869.45 606.71 740.25 749.44 962.28 725.12
00004383 00000058 506.59 125.69 552.74 769.21 685.18 470.55 953.37 444.04 866.19 610.98 738.12 752.27 954.55 728.77
00004384 00000059 504.68 131.10 553.10 770.27 683.50 472.34 951.84 447.34 865.01 616.10 733.09 753.41 954.27 731.22
00004385 00000060 503.60 131.13 552.97 779.12 683.12 473.55 952.04 449.97 865.55 618.39 726.33 751.69 957.57 730.32
00004386 00000061 502.68 129.35 554.18 786.60 680.80 475.19 950.85 449.96 864.55 618.41 725.03 753.15 959.75 730.31
00004387 00000062 503.94 132.92 551.55 774.92 678.89 476.30 945.04 448.48 860.16 618.45 727.52 750.16 957.05 725.23
00004388 00000063 503.74 130.47 550.26 767.71 675.64 477.73 941.62 451.07 853.37 619.90 727.71 752.92 946.16 729.28
00004389 00000064 501.55 125.16 553.67 771.81 668.47 480.45 937.42 450.15 844.64 618.96 726.00 754.65 944.50 728.21
00004390 00000065 500.24 126.02 554.40 776.09 663.49 480.40 932.10 451.56 836.56 617.76 718.98 756.05 937.06 730.78
00004391 00000066 499.45 124.88 554.29 778.50 658.98 480.75 929.25 452.90 830.73 617.75 712.86 758.14 931.99 733.51
00004392 00000067 498.82 125.02 554.14 775.11 655.74 482.42 925.63 452.01 826.78 618.57 711.07 757.65 930.91 730.66
00004393 00000068 499.36 125.53 553.44 772.88 653.41 481.62 924.32 451.77 823.55 619.70 707.74 756.79 928.24 730.36
00004394 00000069 496.59 123.97 558.04 782.37 650.87 479.09 922.71 453.45 819.33 619.20 701.46 756.11 925.94 732.80
00004395 00000070 495.53 123.94 563.27 797.40 649.51 476.31 921.25 453.14 816.12 618.18 690.51 744.36 936.14 722.59
00004396 00000071 492.70 125.69 563.83 788.57 645.65 479.57 918.19 455.21 812.25 619.72 683.74 740.01 935.88 717.12
00004397 00000072 488.09 127.29 566.60 784.40 642.00 482.35 916.18 457.06 809.21 623.85 680.87 741.70 932.57 717.87
00004398 00000073 485.99 127.07 567.00 779.64 640.68 484.12 915.38 459.12 808.17 627.65 681.63 745.64 928.86 721.97
00004399 00000074 485.01 128.25 565.62 769.55 640.79 487.23 915.71 461.21 809.78 631.50 687.46 752.00 923.46 727.45
00004400 00000075 483.85 126.88 566.37 769.36 640.48 488.02 916.35 459.74 812.17 630.77 693.43 757.98 922.09 731.71
00004401 00000076 483.69 127.64 564.10 768.49 638.36 487.18 914.88 459.19 810.05 631.20 692.27 758.71 919.71 732.69
00004402 00000077 482.94 127.64 563.71 769.86 636.63 485.39 914.74 457.82 808.81 630.43 690.10 759.11 919.14 733.42
00004403 00000078 482.21 127.09 561.70 772.56 635.72 483.84 913.34 456.19 807.72 628.57 689.26 757.96 918.59 732.20
00004404 00000079 478.98 126.63 561.55 782.60 634.45 481.43 914.35 452.41 805.04 618.87 693.31 752.57 921.79 726.93
00004405 00000080 479.71 125.72 564.08 767.96 633.92 483.22 911.97 453.84 807.70 626.76 694.96 763.06 914.46 736.11
00004406 00000081 477.45 123.82 562.72 785.08 631.73 480.24 913.07 450.39 803.36 617.37 693.27 755.35 919.43 729.15
00004407 00000082 477.48 121.63 561.51 785.69 631.28 481.12 911.74 450.89 801.95 616.21 694.52 756.60 918.02 730.10
00004408 00000083 473.86 117.89 564.83 805.60 632.41 477.93 911.99 451.57 801.28 613.27 688.28 755.37 916.32 732.29
00004409 00000084 473.07 121.43 565.03 785.70 628.24 480.01 906.19 450.24 800.05 617.67 683.48 759.52 911.39 732.55
00004410 00000085 470.50 118.07 566.47 798.15 624.62 478.75 907.81 448.62 795.19 612.77 682.07 753.02 915.54 726.88
00004411 00000086 475.97 123.80 562.23 779.61 624.58 475.56 901.37 448.49 787.98 622.14 673.46 745.87 907.35 723.59
00004412 00000087 473.28 128.69 564.48 779.43 622.15 476.39 899.06 449.82 785.15 623.61 668.15 743.45 906.78 721.67
00004413 00000088 472.29 128.12 563.46 780.40 620.40 477.35 896.84 450.42 784.25 626.44 663.66 740.85 906.87 718.93
00004414 00000089 470.41 130.03 564.50 783.62 618.79 477.50 895.69 450.81 782.63 627.32 658.36 738.58 908.12 716.74
00004415 00000090 469.51 129.36 564.35 782.79 619.67 477.51 896.23 452.02 783.47 628.80 656.44 735.83 907.41 715.04
00004416 00000091 469.16 129.93 565.46 782.75 620.28 478.98 895.88 453.12 784.04 628.10 657.88 737.50 906.74 716.32
00004417 00000092 469.62 129.44 566.48 784.63 621.02 480.76 896.25 455.75 783.78 627.25 657.61 738.31 906.29 717.68
00004418 00000093 471.64 131.62 563.70 775.67 622.67 481.68 897.59 457.16 785.04 628.52 659.65 738.78 904.14 718.69
00004419 00000094 471.97 128.39 563.27 775.80 623.89 481.86 897.70 456.30 786.71 626.68 665.55 742.20 903.02 720.99
00004420 00000095 472.61 125.90 561.79 774.17 626.54 479.55 898.82 454.74 788.76 625.70 673.05 745.31 900.83 724.81
00004421 00000096 470.39 118.98 564.95 803.46 627.03 482.04 905.04 455.58 790.90 618.55 678.21 753.18 908.83 730.03
00004422 00000097 470.82 118.25 565.61 805.00 627.88 481.47 905.96 455.98 790.96 618.55 676.37 752.48 908.41 730.23
00004423 00000098 472.52 119.73 565.27 806.34 629.41 481.06 906.94 455.69 792.81 618.20 679.14 754.30 909.17 732.24
00004424 00000099 472.52 119.25 566.86 813.14 631.08 481.05 908.32 454.51 795.86 617.18 682.20 754.90 913.66 731.82
00004425 00000100 473.84 122.87 565.79 785.00 629.77 483.32 907.14 455.64 800.77 622.10 680.73 757.81 912.92 732.49
00004426 00000101 474.74 120.52 567.54 789.50 632.38 483.10 908.88 453.41 804.18 621.79 683.19 753.48 921.80 726.03
00004427 00000102 475.88 120.88 566.65 785.75 633.46 482.78 910.28 451.91 805.94 621.03 686.56 753.63 922.37 725.33
00004428 00000103 478.50 123.24 565.39 780.12 635.06 481.96 912.25 451.84 807.22 622.32 687.49 752.14 922.97 724.41
00004429 00000104 477.08 119.55 567.44 789.79 634.03 480.38 914.46 450.35 804.53 611.98 689.17 746.03 923.52 719.71
00004430 00000105 478.16 117.77 567.65 798.60 636.04 480.20 914.54 451.74 804.68 611.41 689.04 746.53 922.90 721.56
00004431 00000106 479.39 121.51 570.06 782.04 637.51 482.23 914.55 451.95 809.73 620.73 690.24 751.42 926.46 723.56
00004432 00000107 479.75 125.25 571.36 783.44 636.59 484.62 912.16 452.37 808.69 621.47 689.02 749.19 931.46 719.40
00004433 00000108 482.24 126.05 567.69 785.05 635.43 484.13 912.10 453.81 806.59 623.92 680.49 744.32 933.74 716.23
00004434 00000109 484.81 126.97 565.80 787.26 637.16 484.72 912.37 454.90 806.75 625.07 679.15 742.43 934.30 714.85
00004435 00000110 486.28 126.62 565.65 787.64 637.72 484.93 913.45 454.49 807.47 625.53 678.28 739.83 937.29 711.73
00004436 00000111 487.09 126.93 565.50 787.25 638.01 485.02 914.27 454.59 807.90 625.91 676.18 738.26 938.54 710.15
00004437 00000112 489.37 126.05 564.08 789.70 639.62 484.77 914.39 455.16 808.40 626.58 676.78 736.33 940.25 708.90
00004438 00000113 490.20 123.42 564.14 792.69 642.95 486.19 915.32 456.72 811.65 627.97 679.15 734.45 942.42 707.13
00004439 00000114 491.94 125.80 563.65 791.57 644.34 486.49 916.73 456.97 812.82 629.33 679.17 733.95 943.87 706.50
00004440 00000115 493.46 127.97 563.31 790.30 645.38 486.47 918.78 456.61 814.68 629.93 679.41 733.38 946.76 705.78
00004441 00000116 493.79 124.68 565.09 793.82 647.11 485.51 920.63 456.25 816.83 629.67 681.39 733.00 948.65 705.81
00004442 00000117 496.79 127.62 564.46 792.82 649.41 484.14 922.21 454.23 818.91 629.09 684.33 731.80 951.77 704.26
00004443 00000118 499.50 125.59 560.18 785.35 653.55 481.83 924.83 452.50 822.31 623.10 686.08 729.42 949.16 703.09
00004444 00000119 499.56 126.76 561.61 782.34 654.45 482.01 924.89 451.54 823.95 622.82 688.16 728.45 950.48 701.22
00004445 00000120 500.22 126.15 561.69 782.50 656.66 481.86 926.97 452.06 826.65 621.74 689.01 728.45 950.79 701.89
00004446 00000121 499.89 126.55 562.47 778.28 657.29 482.22 928.36 452.80 827.64 623.45 690.18 728.40 950.74 702.19
00004447 00000122 499.62 125.59 563.69 780.32 658.49 481.16 929.40 452.91 828.96 623.29 691.95 729.69 950.62 704.48
00004448 00000123 500.77 127.55 562.10 780.66 658.56 480.39 929.71 453.07 828.80 622.03 691.78 729.72 951.11 705.20
00004449 00000124 501.69 127.19 560.75 780.51 658.71 478.19 929.90 452.85 827.72 620.04 692.91 729.34 950.05 706.39
00004450 00000125 501.37 129.40 561.67 787.40 656.52 480.42 926.75 452.95 824.24 623.50 691.70 732.07 951.70 706.90
00004451 00000126 501.01 127.59 560.95 787.78 655.78 479.74 925.61 451.66 823.52 622.23 694.20 734.34 949.02 708.64
00004452 00000127 500.59 124.05 560.06 785.08 655.43 478.10 925.02 449.54 822.91 619.43 699.13 740.32 943.27 714.40
00004453 00000128 501.62 124.34 557.81 778.63 656.20 473.67 926.72 445.32 823.26 612.61 706.38 746.11 935.14 720.92
00004454 00000129 506.50 126.62 556.72 771.20 658.91 470.89 927.64 435.74 827.01 605.36 724.55 753.62 939.02 723.02
00004455 00000130 511.25 130.75 560.50 767.23 669.79 462.16 936.04 435.93 835.54 592.90 733.26 751.81 934.58 729.03
00004456 00000131 516.06 128.60 559.76 758.92 680.27 453.46 944.57 434.53 846.86 585.56 739.89 742.82 938.68 725.70
00004457 00000132 521.97 115.99 570.96 832.95 702.38 441.25 961.09 423.76 872.26 566.21 766.36 752.96 960.37 736.19
00004458 00000133 531.38 108.27 569.70 824.26 720.26 439.34 981.76 430.06 896.01 574.00 767.70 732.32 983.56 721.94
00004459 00000134 563.03 117.93 551.68 823.56 736.64 438.41 991.73 434.16 895.55 589.20 777.94 724.12 979.72 716.90
00004460 00000135 556.13 113.87 569.66 825.97 754.65 440.08 1010.25 438.85 916.55 585.65 784.94 732.19 995.33 729.08
00004461 00000136 565.56 108.71 579.57 841.46 767.32 439.65 1026.45 442.24 928.57 590.19 794.43 736.44 1006.33 736.45
00004462 00000137 575.68 115.30 582.95 838.72 783.32 440.35 1043.27 452.49 943.24 596.58 800.68 736.47 1017.01 744.69
00004463 00000138 584.78 114.71 585.22 837.78 798.59 440.01 1057.99 460.94 955.54 600.47 803.33 733.17 1024.91 748.73
00004464 00000139 590.49 116.60 590.80 836.79 818.29 436.87 1073.76 463.49 975.24 606.76 820.64 736.85 1033.47 757.51
00004465 00000140 606.09 123.44 583.54 829.97 832.57 446.97 1083.21 474.58 985.43 621.56 830.56 739.99 1038.29 761.76
00004466 00000141 644.20 123.91 553.33 832.05 842.26 451.08 1095.49 478.87 988.27 624.89 831.82 738.16 1048.06 760.08
00004467 00000142 613.40 129.07 593.44 823.26 850.84 451.28 1101.72 485.72 1004.81 628.78 840.46 736.65 1052.92 764.32
00004468 00000143 629.37 130.41 582.54 812.57 855.30 453.26 1107.38 484.50 1005.42 630.05 852.43 741.39 1055.70 765.88
00004469 00000144 645.50 125.45 570.97 821.64 859.23 448.55 1112.11 483.98 1005.18 628.35 848.01 737.53 1059.92 765.58
CROP_BBOX: 217 0 1471 1080
