Video ID: 	xoC7D-ZrLDs
H: 	1080
W: 	1920
FPS: 	25.0

FRAME INDEX X0 Y0 W H [Landmarks (5 Points)]

00009385 00000000 533.10 166.71 479.07 650.99 692.69 407.01 911.89 459.79 788.24 568.43 641.04 606.01 869.39 650.33
00009386 DELETE   543.06 160.99 482.54 659.82 699.19 406.42 914.03 461.05 796.25 560.14 647.13 598.39 875.98 645.19
00009387 00000002 548.91 157.77 481.66 660.43 706.70 405.70 918.22 459.70 802.19 554.14 656.00 598.46 880.63 644.36
00009388 DELETE   554.59 156.35 479.83 660.80 715.91 404.58 923.65 458.23 811.30 551.41 663.93 595.62 886.47 641.27
00009389 00000004 558.06 156.41 480.19 657.14 722.25 400.01 930.67 453.90 818.07 549.62 667.56 593.28 887.83 639.45
00009390 00000005 559.90 156.12 482.13 655.92 725.50 397.60 935.92 451.67 821.57 550.26 669.62 591.62 890.66 638.08
00009391 00000006 561.66 156.85 483.43 655.17 727.40 397.06 938.15 452.24 823.00 551.40 671.91 591.35 892.63 638.82
00009392 00000007 561.56 158.46 482.74 655.82 727.19 399.56 937.84 455.80 822.26 554.04 671.23 593.53 891.29 641.90
00009393 00000008 561.55 158.33 482.78 655.95 727.20 399.56 937.85 455.80 822.24 554.02 671.21 593.51 891.28 641.86
00009394 00000009 556.94 164.24 478.07 652.23 725.58 397.72 938.33 458.75 819.47 558.80 667.74 597.89 885.91 649.17
00009395 00000010 553.30 164.84 479.02 649.27 722.06 398.94 934.20 459.99 814.69 556.64 667.87 601.64 880.40 652.82
00009396 00000011 550.67 156.86 486.42 651.38 716.00 408.93 924.97 458.31 811.89 554.83 670.17 605.83 876.25 647.88
00009397 00000012 544.44 155.44 485.89 658.24 707.76 408.86 920.03 455.09 804.09 553.53 667.43 614.06 867.74 653.36
00009398 00000013 539.93 155.49 480.74 658.18 700.95 407.10 911.22 453.45 796.68 552.66 660.51 611.85 859.52 651.44
00009399 00000014 533.73 156.03 480.44 655.84 692.89 407.87 903.69 456.70 787.08 549.59 650.51 612.20 849.01 653.87
00009400 00000015 527.19 160.40 478.03 650.34 683.73 405.49 897.72 460.41 775.26 559.07 641.49 614.84 840.98 661.24
00009401 00000016 520.37 161.02 478.63 649.58 675.52 406.43 892.10 458.76 769.79 558.38 634.54 614.51 838.15 658.53
00009402 00000017 513.80 164.35 479.57 645.42 668.56 405.93 887.25 458.38 763.22 559.38 627.02 612.99 832.97 657.15
00009403 00000018 512.06 165.47 478.80 642.69 665.34 405.15 883.52 457.51 759.30 559.08 625.26 613.27 828.54 657.37
00009404 00000019 512.39 165.73 479.00 641.56 665.66 403.84 883.95 457.67 758.49 558.59 624.60 612.00 828.28 657.29
00009405 00000020 514.04 166.60 478.26 639.82 666.71 403.40 884.35 456.59 759.21 558.13 626.22 611.45 829.60 656.28
00009406 00000021 518.65 157.42 479.79 647.29 672.29 400.49 889.71 455.21 764.05 554.13 632.52 609.11 836.44 654.55
00009407 00000022 523.92 158.93 477.21 643.27 674.71 401.31 892.78 455.74 766.36 556.37 633.38 610.12 838.32 655.68
00009408 00000023 527.46 160.91 477.69 642.42 678.02 400.63 895.85 455.57 768.01 556.76 636.60 612.19 840.88 658.24
00009409 00000024 530.00 162.78 476.51 641.42 680.14 401.48 899.04 457.98 769.08 559.67 638.45 614.49 842.52 662.04
00009410 00000025 530.67 166.27 477.84 638.63 681.30 401.85 900.76 459.08 768.93 561.12 638.26 614.06 844.04 662.32
00009411 00000026 531.77 166.01 477.76 639.38 682.45 401.68 901.92 459.74 769.64 561.07 637.77 613.80 844.68 662.80
00009412 00000027 530.84 167.71 478.24 640.16 681.58 403.07 902.02 461.42 768.65 563.70 635.77 615.08 844.99 664.36
00009413 00000028 528.77 169.53 478.71 639.65 679.50 403.26 901.03 462.09 767.21 564.98 632.90 614.84 844.18 664.55
00009414 00000029 526.30 168.78 477.95 640.55 676.18 405.54 898.26 462.71 765.52 565.40 629.66 615.96 842.11 664.32
00009415 00000030 524.02 169.03 476.12 641.04 673.29 406.87 896.83 462.35 765.04 566.41 626.35 616.62 841.71 663.57
00009416 00000031 523.80 170.46 471.32 639.70 671.08 406.75 895.53 462.33 763.07 567.09 623.61 616.18 841.13 663.29
00009417 00000032 520.60 171.09 472.36 640.98 668.75 407.19 893.54 461.69 761.64 568.67 620.74 616.55 838.83 662.89
00009418 00000033 520.73 170.82 472.35 641.10 668.78 407.00 894.02 461.83 761.93 569.02 620.67 616.66 838.97 663.27
00009419 00000034 519.81 172.74 472.76 639.29 667.69 406.59 892.96 461.25 760.63 568.54 620.04 616.96 837.50 663.46
00009420 00000035 520.61 171.53 472.52 640.39 668.44 406.78 893.18 461.27 761.28 568.08 620.77 617.03 837.87 663.35
00009421 00000036 521.42 171.17 472.10 640.73 669.06 406.72 893.78 461.57 761.51 568.18 621.74 616.64 839.20 663.18
00009422 00000037 522.03 170.97 472.37 641.53 670.10 406.32 895.24 463.04 761.46 568.88 621.48 616.25 839.98 664.33
00009423 00000038 522.49 173.36 473.93 639.63 670.73 406.66 896.12 464.69 761.01 570.45 621.21 616.76 839.89 666.05
00009424 00000039 521.82 173.31 474.69 641.17 670.47 408.82 897.40 467.43 761.26 572.96 620.21 618.68 839.75 668.44
00009425 00000040 522.68 174.46 475.76 640.49 671.16 410.42 898.25 469.75 761.08 574.35 620.61 620.50 839.48 670.82
00009426 00000041 523.02 175.90 474.77 639.59 671.19 411.22 898.30 471.95 760.39 576.25 619.63 620.73 839.00 672.27
00009427 00000042 524.02 176.08 476.35 639.55 671.85 412.18 898.48 473.26 759.86 577.22 619.78 620.94 839.10 672.71
00009428 00000043 524.07 174.48 476.99 641.18 672.15 410.79 898.22 471.66 759.98 575.40 620.82 620.20 839.24 671.72
00009429 00000044 524.17 173.48 476.52 641.10 671.72 409.53 898.13 469.16 760.52 574.15 621.52 619.26 839.91 669.73
00009430 00000045 523.12 174.06 474.75 637.67 670.63 407.04 896.98 466.41 760.16 571.53 621.60 617.55 839.02 667.87
00009431 00000046 519.79 168.45 470.67 636.27 665.42 404.36 889.84 456.10 759.68 561.90 622.94 614.38 836.82 657.90
00009432 00000047 514.58 164.82 473.33 637.33 660.87 400.09 885.12 451.03 754.25 556.45 620.04 611.49 831.34 653.92
00009433 00000048 511.37 161.96 469.41 640.01 656.80 397.47 880.79 445.72 752.37 551.35 616.53 609.13 829.90 649.24
00009434 00000049 504.22 156.04 477.08 639.19 652.86 402.41 875.73 443.28 750.26 547.72 616.24 604.49 829.86 639.14
00009435 00000050 503.96 155.36 470.09 639.32 649.23 404.55 872.27 444.65 748.83 544.35 613.72 603.63 830.05 637.68
00009436 00000051 501.29 156.96 469.38 636.27 646.38 404.74 868.90 443.05 746.10 543.44 611.20 603.58 826.15 636.30
00009437 00000052 500.33 158.31 469.91 637.84 644.87 405.71 866.72 441.20 745.42 544.39 612.54 606.56 826.07 636.59
00009438 00000053 499.91 158.30 470.57 639.76 644.84 405.57 865.40 441.08 744.82 545.88 613.36 608.48 824.27 638.49
00009439 00000054 503.14 162.90 464.05 638.42 646.88 401.95 871.53 443.41 746.40 550.34 614.29 614.15 827.49 648.70
00009440 00000055 506.22 165.38 464.29 636.61 650.32 402.94 875.03 447.30 748.05 554.44 615.23 615.08 827.28 652.28
00009441 00000056 509.22 170.54 467.67 634.68 653.95 405.56 878.69 451.33 751.37 558.54 616.40 616.67 829.98 655.38
00009442 00000057 509.30 170.24 467.66 634.91 654.15 405.43 878.83 451.35 751.53 558.43 616.63 616.61 829.98 655.44
00009443 00000058 512.20 174.38 472.23 635.46 659.47 407.51 884.36 459.59 754.58 564.76 616.50 618.62 830.27 662.86
00009444 00000059 517.12 177.58 473.70 636.51 663.36 413.11 891.64 467.13 757.86 572.93 616.95 622.80 834.96 668.94
00009445 00000060 520.83 180.53 471.97 635.05 667.15 418.00 896.08 474.00 759.41 578.10 619.54 627.60 837.02 675.41
00009446 00000061 523.42 184.84 474.53 632.51 669.70 422.60 898.52 479.45 760.47 582.50 622.08 631.77 838.81 680.10
00009447 00000062 525.00 186.36 473.14 628.55 670.08 422.33 898.97 479.17 760.10 582.20 623.84 630.87 839.88 679.12
00009448 00000063 524.76 180.71 471.65 632.44 669.48 415.89 897.75 470.69 761.11 576.67 623.13 625.58 840.69 672.32
00009449 00000064 522.81 173.51 469.36 633.50 665.59 407.15 891.60 459.34 758.90 565.54 622.56 618.58 837.60 662.78
00009450 00000065 515.68 168.19 470.02 632.01 659.76 401.46 886.68 449.76 756.12 556.49 622.50 613.23 835.26 653.58
00009451 00000066 508.34 158.35 472.02 633.32 653.26 402.23 875.66 439.77 751.91 547.89 619.76 606.05 830.90 637.88
00009452 00000067 501.90 150.43 467.77 638.42 644.91 397.85 866.81 433.59 743.81 541.81 611.60 603.08 822.09 633.90
00009453 00000068 494.37 145.80 468.40 643.78 636.78 397.64 856.97 430.58 735.97 540.17 604.71 601.29 815.07 630.33
00009454 00000069 490.45 146.24 464.32 641.63 629.35 394.46 850.47 425.99 729.86 534.72 600.65 599.31 811.00 627.21
00009455 00000070 483.68 145.35 464.65 643.36 623.75 394.03 843.10 424.42 725.80 536.02 596.86 600.17 805.38 626.94
00009456 00000071 483.52 147.10 465.05 642.42 623.60 394.99 844.02 426.07 725.76 538.95 597.32 601.76 805.97 629.16
00009457 00000072 486.07 148.16 465.77 643.73 627.27 398.15 847.41 430.70 728.51 540.60 599.67 603.29 808.68 631.66
00009458 00000073 490.10 149.62 466.38 644.34 632.13 403.97 852.69 435.68 733.62 545.16 604.54 608.28 813.69 635.68
00009459 00000074 495.22 159.85 467.85 638.51 638.17 407.32 858.03 440.27 737.51 550.68 609.82 612.79 818.47 640.86
00009460 00000075 505.65 176.47 461.34 624.71 646.15 406.68 873.74 447.85 745.60 559.79 615.70 618.81 829.24 653.77
00009461 00000076 511.26 179.65 466.09 630.23 655.66 412.17 881.77 457.50 754.74 568.37 617.25 622.80 831.96 661.91
00009462 00000077 517.98 184.08 470.22 631.21 663.28 421.19 892.38 473.52 758.07 580.63 619.95 631.75 834.65 676.69
00009463 DELETE   523.14 195.77 468.57 620.62 668.48 439.51 896.31 492.76 760.87 591.09 624.69 639.22 840.13 684.76
00009464 DELETE   526.21 200.44 470.99 618.68 674.43 446.41 897.08 500.29 764.49 596.40 631.22 642.90 841.60 688.71
00009465 00000080 526.97 199.17 470.94 620.90 674.18 446.15 898.50 497.30 766.02 597.10 632.52 644.63 843.72 688.12
00009466 00000081 525.73 200.34 474.14 619.96 673.45 441.79 898.07 492.79 765.69 595.21 633.16 643.68 843.17 687.20
00009467 00000082 525.55 200.24 474.11 620.36 673.58 441.74 897.93 492.90 765.73 595.30 633.17 643.44 843.14 687.07
00009468 00000083 523.29 197.85 474.24 621.50 671.14 435.57 897.36 488.41 763.93 590.80 629.63 640.18 841.31 685.34
00009469 00000084 520.27 195.17 475.97 621.82 668.58 431.67 896.08 483.84 762.63 588.10 626.99 637.44 839.11 682.15
00009470 00000085 516.68 190.83 474.83 625.70 665.29 426.92 894.56 476.60 762.48 583.08 623.29 635.42 837.22 678.46
00009471 00000086 512.30 188.16 471.64 625.73 658.52 421.49 888.54 469.34 757.25 578.96 617.90 630.22 834.65 671.79
00009472 00000087 508.23 184.91 467.09 627.98 653.72 415.47 881.01 459.69 754.37 572.24 616.51 626.13 830.74 664.60
00009473 00000088 505.35 182.76 462.58 627.74 648.44 413.63 875.50 455.23 750.25 568.04 615.28 625.74 827.88 661.84
00009474 00000089 503.66 182.59 459.72 625.22 645.38 412.45 872.08 452.39 746.96 565.95 614.12 624.28 826.92 658.86
00009475 00000090 503.55 180.03 459.21 626.60 644.72 411.99 871.96 450.86 746.82 564.94 614.45 624.40 827.35 657.99
00009476 00000091 504.34 178.91 458.38 627.83 644.87 411.44 872.42 450.79 747.36 564.58 614.71 623.55 828.81 657.43
00009477 00000092 505.15 178.02 458.18 627.02 646.13 410.13 873.38 450.21 748.26 563.25 616.13 622.17 829.25 656.60
00009478 00000093 506.86 177.58 459.25 629.26 646.95 411.03 875.03 451.21 749.37 564.26 615.86 622.94 830.24 657.49
00009479 00000094 509.00 180.63 459.49 625.38 649.96 412.17 877.71 451.31 753.23 564.22 619.53 624.31 831.92 658.15
00009480 00000095 509.85 179.85 459.30 625.71 650.89 412.40 878.39 450.89 754.75 563.42 621.05 624.72 832.64 658.02
00009481 00000096 509.61 179.04 460.02 626.02 650.79 411.89 878.57 449.69 754.89 562.48 621.92 624.60 833.67 657.23
00009482 00000097 510.15 178.73 458.86 625.76 650.92 411.53 877.44 448.81 754.66 561.55 623.42 624.64 832.84 656.80
00009483 00000098 510.82 175.11 457.56 628.41 650.85 409.74 876.85 446.83 755.03 560.17 623.99 623.37 833.79 655.11
00009484 00000099 509.59 173.63 458.41 628.11 650.44 409.06 876.14 445.12 755.07 556.50 625.56 623.30 833.06 653.97
00009485 00000100 507.55 173.16 456.98 628.32 648.69 407.90 874.11 443.46 753.14 555.23 624.44 622.37 832.04 652.51
00009486 00000101 505.91 172.80 458.43 628.03 646.73 407.59 873.39 441.77 751.72 553.63 623.52 623.59 831.60 652.46
00009487 00000102 504.41 170.75 458.71 630.10 645.06 407.79 872.15 440.09 751.02 552.24 622.52 623.54 831.83 650.80
00009488 00000103 503.24 169.76 458.09 629.99 642.90 407.35 870.11 438.82 747.97 551.24 621.56 622.89 830.79 649.33
00009489 00000104 502.23 166.44 457.88 633.61 641.93 406.09 868.95 437.81 746.44 549.54 620.23 621.94 829.35 648.43
00009490 00000105 501.21 166.48 458.07 634.16 640.10 406.66 867.82 437.06 745.38 548.54 619.53 622.54 829.44 647.93
00009491 00000106 501.07 165.92 458.21 634.55 639.89 406.49 867.67 437.19 744.99 548.94 619.11 622.19 829.56 647.78
00009492 00000107 500.37 166.07 457.79 633.71 638.59 406.85 866.32 436.57 744.13 548.56 619.32 622.49 829.52 647.21
00009493 00000108 498.67 166.23 458.07 633.33 636.97 406.85 865.81 435.56 743.42 548.53 618.82 622.69 829.91 646.52
00009494 00000109 497.67 166.48 458.82 633.53 636.95 406.47 865.44 435.93 742.73 548.32 618.41 622.38 828.81 646.81
00009495 00000110 497.54 166.29 458.07 632.72 636.77 406.37 865.36 435.87 742.61 548.06 618.60 622.84 827.86 647.22
00009496 00000111 496.10 165.08 464.25 629.30 637.83 411.14 857.55 436.97 741.67 550.31 619.15 619.26 819.19 641.34
00009497 00000112 495.92 163.68 465.10 631.22 637.78 411.34 857.24 437.12 741.46 550.18 619.00 619.18 819.02 641.17
00009498 00000113 496.60 163.64 459.57 635.36 636.41 406.72 864.68 435.88 742.37 547.74 619.19 623.71 826.68 647.76
00009499 00000114 495.94 163.29 460.17 639.42 637.95 406.68 861.70 436.40 742.81 547.41 620.90 623.98 823.23 648.54
00009500 00000115 496.32 164.29 459.56 638.56 638.54 407.10 861.41 436.73 742.63 547.14 622.00 624.98 821.69 649.52
00009501 00000116 496.62 163.58 460.27 639.45 638.86 406.39 861.40 436.89 742.04 547.10 621.60 624.16 820.94 649.40
00009502 00000117 496.15 164.66 460.49 639.30 637.94 407.41 860.61 437.23 741.31 546.60 621.62 626.00 819.98 650.67
00009503 00000118 495.52 165.10 460.04 637.10 636.71 407.55 860.90 437.34 740.51 546.55 620.74 626.09 819.87 650.76
00009504 00000119 492.59 160.25 461.33 638.96 630.24 412.89 852.87 438.73 733.66 548.31 622.72 631.51 820.14 652.37
00009505 00000120 491.11 159.67 462.02 638.97 628.44 412.57 851.98 438.18 732.00 548.40 621.29 632.12 819.11 652.69
00009506 00000121 490.25 158.39 462.46 639.94 627.49 412.15 851.52 437.82 731.12 548.08 620.24 631.77 818.91 652.39
00009507 00000122 490.11 158.19 462.15 639.65 627.57 411.62 851.80 437.85 731.20 548.08 619.70 630.94 819.06 652.03
00009508 00000123 490.08 158.07 462.50 639.13 627.88 411.17 852.20 437.80 731.29 546.95 619.94 630.30 818.84 651.68
00009509 00000124 491.53 161.65 468.31 633.53 635.16 411.17 855.63 436.10 737.81 546.61 620.26 623.56 812.25 644.61
00009510 00000125 491.97 158.90 462.00 639.16 630.13 411.21 853.11 437.88 733.72 546.94 621.93 629.38 820.79 650.81
00009511 00000126 493.49 161.25 466.53 634.09 636.45 409.88 856.04 435.17 739.24 545.27 620.55 621.82 813.40 643.16
00009512 00000127 491.74 156.55 462.20 640.34 630.58 407.63 852.90 435.09 733.83 543.78 620.68 625.00 820.93 647.00
00009513 00000128 491.13 157.04 461.62 638.00 629.66 404.74 853.38 432.42 733.17 540.65 618.84 621.51 822.05 643.71
00009514 00000129 490.72 151.31 466.35 642.07 632.54 404.87 852.80 429.60 734.70 540.28 615.49 615.95 811.41 637.35
00009515 00000130 490.66 151.39 466.21 642.04 632.48 404.97 852.80 429.59 734.75 540.36 615.57 616.12 811.39 637.42
00009516 00000131 487.39 149.94 461.63 640.87 624.34 401.02 848.32 427.31 728.22 536.25 614.52 618.17 817.86 638.99
00009517 00000132 484.69 152.76 460.71 638.82 621.66 401.08 844.82 426.68 726.19 535.61 613.89 618.11 817.16 638.11
00009518 00000133 479.39 150.36 464.07 640.41 618.32 399.14 840.49 424.45 723.14 532.72 611.47 615.72 813.32 635.47
00009519 00000134 476.48 151.20 462.77 638.78 614.07 400.20 836.71 422.99 720.67 531.31 609.15 615.90 811.68 633.59
00009520 00000135 475.61 149.38 461.75 640.58 611.61 400.25 835.01 422.21 719.15 531.99 607.83 616.39 810.90 633.37
00009521 00000136 474.70 151.59 460.83 638.92 609.90 401.82 833.89 422.84 718.04 533.56 606.69 617.57 810.62 633.83
00009522 00000137 474.40 153.36 460.94 639.09 609.59 403.68 834.33 424.76 717.89 537.28 606.05 620.63 809.52 637.04
00009523 00000138 474.77 153.08 462.36 640.74 610.71 405.03 836.27 426.28 719.21 538.70 607.30 623.08 810.46 639.59
00009524 00000139 476.86 155.37 463.03 639.37 614.35 406.80 839.11 428.50 721.61 541.03 609.91 625.64 811.23 642.69
00009525 00000140 479.20 155.07 462.86 639.86 616.46 407.27 841.57 429.56 722.81 543.30 612.62 627.08 812.95 644.65
00009526 00000141 481.35 155.50 462.68 638.98 618.39 406.70 843.65 430.67 723.86 544.02 613.27 626.70 814.09 645.61
00009527 00000142 482.92 157.57 462.45 637.72 619.77 407.11 844.89 430.91 724.75 543.75 614.71 627.44 814.77 646.16
00009528 00000143 484.05 161.22 462.59 635.90 621.81 407.95 846.89 431.85 726.35 544.69 615.78 628.23 816.32 647.09
00009529 00000144 483.94 161.30 462.07 635.86 622.50 409.19 846.93 433.16 727.18 546.31 616.99 629.72 815.55 648.76
00009530 00000145 484.87 161.35 461.91 638.31 624.42 410.37 848.80 433.67 729.99 547.21 618.62 631.67 816.95 650.25
00009531 00000146 486.13 162.40 461.84 637.34 625.71 411.23 849.40 434.31 731.09 547.83 619.59 631.64 817.74 650.09
00009532 00000147 487.17 162.63 462.09 637.24 626.53 410.86 849.99 434.03 731.72 547.50 619.74 630.80 818.27 649.40
00009533 00000148 487.59 163.20 462.23 637.42 626.88 409.44 850.46 433.06 731.88 546.27 619.45 629.59 818.81 648.54
00009534 00000149 488.15 162.54 462.65 636.09 626.77 408.11 850.68 431.35 731.72 545.17 620.27 628.67 819.10 647.20
00009535 00000150 488.01 161.91 462.57 636.90 627.94 405.32 850.96 429.86 732.13 541.77 618.63 624.14 820.12 643.76
00009536 00000151 487.39 157.51 462.41 640.58 626.74 403.48 849.87 427.72 731.25 539.91 617.80 622.70 819.77 642.01
00009537 00000152 487.72 157.79 462.18 639.27 627.26 403.13 850.48 427.56 731.90 539.88 618.34 622.52 820.00 641.99
00009538 00000153 485.85 163.13 462.25 636.25 626.56 404.51 849.83 428.09 731.66 541.01 618.36 623.86 820.15 642.65
00009539 00000154 485.80 163.75 461.92 636.36 626.53 406.27 850.14 429.87 732.47 542.31 618.84 625.46 820.19 644.30
00009540 00000155 485.99 163.79 461.43 636.04 626.26 406.29 850.08 429.87 732.25 542.47 618.75 625.71 820.28 644.48
00009541 00000156 485.39 164.49 462.81 638.04 626.42 407.56 849.73 430.71 732.43 544.85 619.38 628.12 819.24 646.70
00009542 00000157 484.20 164.04 463.52 638.71 625.60 410.95 849.34 433.81 732.03 548.55 620.18 632.31 818.11 650.61
00009543 00000158 484.79 164.44 463.29 638.17 625.72 411.44 849.41 434.04 732.13 548.88 620.01 632.35 818.11 650.49
00009544 00000159 486.17 164.74 463.25 636.79 626.46 412.19 850.43 434.99 732.77 549.34 620.70 632.71 818.66 651.06
00009545 00000160 488.37 167.05 461.89 634.75 628.29 413.10 851.81 435.95 734.29 549.56 622.35 632.97 819.81 651.39
00009546 00000161 490.42 168.65 461.48 633.85 629.87 413.27 853.04 436.12 735.41 549.65 623.96 633.07 821.21 651.54
00009547 00000162 492.17 174.09 460.23 627.03 634.41 407.63 861.54 434.37 740.74 546.95 621.22 628.83 819.87 651.04
00009548 00000163 490.44 166.78 460.28 632.34 628.59 410.31 852.75 433.87 734.06 546.55 622.95 630.49 821.44 649.44
00009549 00000164 488.61 166.08 462.29 632.36 627.35 408.61 852.30 431.57 733.14 545.16 621.53 628.94 821.08 647.33
00009550 00000165 485.52 162.72 463.93 635.68 624.83 408.09 849.59 430.80 730.94 545.13 619.12 628.88 818.85 646.87
00009551 00000166 482.32 162.41 464.35 638.78 622.60 408.89 846.82 431.24 728.79 546.28 617.68 630.72 816.06 648.40
00009552 00000167 479.95 164.95 463.72 635.48 619.59 410.16 844.50 431.28 726.93 547.28 616.89 632.16 814.93 648.82
00009553 00000168 480.34 164.91 463.38 636.52 619.99 411.58 844.86 432.71 727.62 548.46 617.24 633.72 814.84 650.37
00009554 00000169 483.16 165.73 463.40 637.65 623.28 413.09 847.75 434.44 730.32 549.64 619.00 634.64 816.59 651.59
00009555 00000170 485.79 166.27 462.39 634.52 625.90 412.11 850.33 434.05 732.92 549.35 621.13 633.09 818.94 650.56
