Video ID: 	BmaHAloklfw
H: 	1080
W: 	1920
FPS: 	25.0

FRAME INDEX X0 Y0 W H [Landmarks (5 Points)]

00135102 00000000 556.12 206.16 502.24 673.06 708.73 443.53 940.83 447.88 835.35 578.61 725.19 694.79 917.81 698.93
00135103 00000001 557.55 210.08 499.05 658.56 713.65 435.17 946.89 449.33 841.64 570.91 732.95 687.79 922.39 698.17
00135104 00000002 559.19 192.17 496.44 676.98 713.84 434.98 948.49 439.44 847.90 566.56 734.39 693.22 922.72 697.74
00135105 00000003 557.85 192.68 490.61 676.05 711.73 432.96 944.59 436.80 845.37 562.39 733.52 690.21 921.64 694.21
00135106 00000004 555.55 180.32 489.27 682.15 707.75 438.01 939.07 440.81 839.59 562.06 727.80 688.80 917.02 691.93
00135107 00000005 547.00 188.54 487.88 666.56 700.44 446.58 926.57 445.76 829.61 567.59 720.03 689.29 905.13 689.46
00135108 DELETE   541.42 187.74 484.20 668.56 692.96 453.48 921.38 448.53 823.94 574.91 712.08 695.10 901.22 691.74
00135109 00000007 535.16 189.36 486.19 670.02 688.63 456.31 915.43 450.87 820.00 578.90 706.37 693.59 901.01 689.33
00135110 00000008 528.08 197.95 488.28 664.84 683.17 457.85 909.29 452.07 815.68 579.67 699.45 691.63 897.85 686.52
00135111 00000009 524.52 214.02 490.71 642.77 675.99 456.35 907.88 450.62 813.07 576.73 697.93 685.79 901.97 681.15
00135112 00000010 522.65 211.73 491.47 647.41 674.01 456.31 905.89 449.59 811.85 576.62 695.71 684.67 902.97 678.98
00135113 00000011 521.57 212.32 492.01 648.30 673.76 455.31 904.84 447.51 812.13 575.16 694.84 683.90 902.90 677.30
00135114 00000012 521.47 205.19 492.49 655.24 675.05 456.41 904.42 449.04 812.81 575.05 695.58 681.90 903.96 675.54
00135115 00000013 522.54 186.45 489.98 677.43 680.05 459.84 901.08 451.44 814.08 576.07 695.10 684.05 900.35 675.86
00135116 00000014 521.92 187.98 492.21 676.54 679.18 461.00 901.43 451.38 813.89 576.71 694.89 684.96 901.80 675.70
00135117 00000015 523.88 190.22 490.48 676.00 680.26 459.30 902.99 452.13 813.59 578.81 695.16 685.64 901.52 678.56
00135118 00000016 523.66 193.08 491.38 670.26 681.00 459.89 906.47 453.22 815.18 580.18 695.82 686.67 901.99 680.22
00135119 00000017 525.55 214.49 491.89 643.88 676.72 460.65 909.34 453.14 815.61 580.52 699.21 686.97 907.97 680.90
00135120 00000018 527.41 216.24 490.26 643.26 678.27 461.56 910.14 452.41 817.04 580.61 704.87 692.56 907.00 685.21
00135121 00000019 528.30 216.51 488.45 644.35 678.82 461.66 910.00 453.06 816.96 580.83 705.54 694.97 905.00 688.20
00135122 00000020 527.67 216.18 487.86 646.13 677.34 460.48 910.73 454.69 815.56 580.49 700.86 695.17 903.13 690.84
00135123 00000021 526.67 214.70 488.11 647.22 676.00 458.66 910.70 455.16 813.56 577.49 699.34 694.58 902.09 691.96
00135124 00000022 525.94 213.89 489.02 644.03 674.26 457.55 909.52 453.27 811.70 574.27 700.01 693.04 900.30 689.66
00135125 00000023 523.02 207.68 492.55 651.22 670.35 453.46 905.76 448.43 808.56 570.36 700.13 692.42 899.19 687.77
00135126 00000024 520.05 202.85 495.63 651.06 667.08 450.93 902.70 445.52 804.80 567.03 698.88 688.65 897.07 683.10
00135127 00000025 516.91 205.42 496.75 647.24 662.73 447.42 899.93 442.64 799.57 562.19 692.47 683.39 894.53 677.83
00135128 00000026 515.83 200.83 497.33 647.76 660.49 440.35 898.92 436.20 795.82 554.97 688.75 677.26 891.80 672.07
00135129 00000027 515.99 189.72 495.73 650.56 658.75 437.19 893.85 434.15 792.44 550.10 687.74 672.59 888.13 667.85
00135130 00000028 516.48 186.64 495.71 650.74 655.25 431.29 892.76 428.23 786.69 544.76 686.32 669.76 885.35 665.23
00135131 00000029 515.74 186.59 493.70 647.07 652.84 425.62 894.52 424.82 785.03 541.40 681.28 666.09 884.12 663.52
00135132 00000030 513.31 185.61 495.29 647.35 650.21 424.45 893.09 423.15 782.12 539.40 679.41 664.77 884.51 661.70
00135133 00000031 514.27 182.40 495.04 645.63 647.67 423.66 888.69 419.56 776.67 540.62 675.86 662.10 881.48 658.28
00135134 00000032 512.93 183.40 494.05 645.55 646.38 423.36 886.90 419.70 775.29 540.99 674.93 663.05 878.52 659.72
00135135 00000033 510.85 185.21 491.46 661.39 648.52 422.45 884.75 422.83 776.37 540.13 678.28 670.11 873.03 667.96
00135136 00000034 508.86 181.62 489.71 669.42 645.52 421.97 882.89 425.30 773.41 542.92 672.80 675.86 867.01 676.32
00135137 00000035 504.57 181.13 492.10 669.15 635.42 422.98 876.95 421.25 763.80 543.07 663.44 681.20 861.98 680.00
00135138 00000036 503.68 178.84 488.15 654.32 632.64 420.59 867.76 417.32 756.25 537.14 663.05 672.98 853.00 670.76
00135139 00000037 499.63 164.56 490.09 662.43 629.80 415.08 861.92 414.07 749.32 531.30 655.16 661.70 847.40 661.31
00135140 00000038 494.79 157.02 497.64 667.48 625.83 409.14 860.84 411.46 741.68 521.99 646.61 652.72 845.60 654.59
00135141 00000039 490.68 144.77 501.48 677.44 625.40 402.20 855.63 408.38 737.73 511.65 640.64 642.24 839.65 646.60
00135142 00000040 492.89 142.39 496.07 669.94 623.97 396.83 856.88 401.19 735.66 501.35 643.05 639.74 837.14 642.73
00135143 00000041 493.41 143.35 495.56 658.53 623.47 393.79 857.37 399.35 735.04 493.31 639.21 632.11 838.83 635.78
00135144 00000042 487.29 136.53 503.30 658.68 616.67 396.36 852.25 385.96 732.23 491.62 636.69 632.25 835.75 623.37
00135145 00000043 486.11 139.57 502.55 654.07 612.02 394.75 846.36 383.19 725.45 486.34 632.52 629.17 832.58 619.16
00135146 00000044 483.61 137.39 501.81 654.82 607.57 395.10 839.61 382.93 719.51 482.78 628.76 628.40 825.64 617.95
00135147 00000045 481.59 136.76 499.89 656.23 601.57 395.58 833.34 382.43 712.01 482.09 621.59 628.24 820.44 616.91
00135148 00000046 477.81 136.83 497.71 659.23 594.14 398.29 827.30 383.05 704.42 481.59 612.64 629.42 816.27 615.86
00135149 00000047 472.12 132.52 493.79 664.38 584.94 399.29 819.00 380.91 696.42 483.77 605.67 631.26 811.30 614.79
00135150 00000048 467.31 142.95 487.87 648.40 573.11 396.58 809.66 382.49 685.89 485.86 605.17 628.58 809.21 615.49
00135151 00000049 460.70 150.54 485.87 646.09 562.38 402.46 796.73 381.27 670.65 490.96 598.32 632.43 804.09 613.54
00135152 00000050 451.49 148.77 490.70 645.52 551.62 405.87 785.78 384.57 655.31 494.37 586.52 633.33 793.12 614.18
00135153 00000051 439.34 150.73 498.07 643.30 541.38 409.51 775.22 384.54 644.32 491.98 577.43 635.94 781.39 614.02
00135154 DELETE   430.50 150.22 503.11 647.16 530.05 412.60 765.75 383.71 632.53 495.98 567.76 641.45 770.80 616.78
00135155 00000053 422.11 146.89 505.17 655.15 520.57 416.96 756.66 385.48 622.56 498.51 558.63 646.03 760.18 619.40
00135156 00000054 417.18 145.15 500.17 655.99 513.79 419.15 750.52 385.78 615.27 496.55 548.35 647.10 751.78 618.98
00135157 00000055 410.93 147.11 501.51 661.57 510.20 424.60 738.59 385.04 611.24 494.48 548.53 649.13 744.51 615.35
00135158 00000056 405.37 141.65 502.86 668.97 506.21 426.22 737.65 389.27 605.20 500.58 542.91 651.58 737.84 620.41
00135159 00000057 405.93 145.44 499.66 664.45 505.46 437.67 723.17 396.58 595.07 497.16 542.44 656.33 722.53 621.47
00135160 00000058 401.39 141.78 499.55 669.44 495.30 442.58 714.33 394.30 584.06 498.67 535.49 661.45 717.74 621.13
00135161 00000059 396.13 141.32 498.06 669.08 486.79 442.08 706.11 390.37 574.08 501.82 529.27 663.87 711.72 621.00
00135162 DELETE   387.92 152.76 496.14 652.81 472.10 440.09 700.72 389.86 569.09 509.50 524.76 657.53 723.78 614.59
00135163 00000061 385.64 153.00 495.93 653.34 466.20 440.83 697.31 389.89 566.01 512.59 521.03 659.79 723.56 616.16
00135164 00000062 379.51 151.91 501.82 667.39 463.02 441.55 691.97 391.17 563.32 518.69 520.93 665.11 720.08 622.37
00135165 00000063 374.21 153.11 506.03 674.65 458.55 446.52 687.25 392.61 560.05 520.69 520.03 673.29 717.59 628.33
00135166 00000064 370.33 154.37 508.33 680.18 454.98 450.99 684.05 395.01 557.17 522.47 516.67 677.23 716.71 630.59
00135167 00000065 375.22 149.26 511.68 688.82 462.66 457.70 685.35 399.99 556.34 520.19 510.11 679.40 701.76 631.22
00135168 00000066 375.88 146.88 510.64 689.53 462.72 457.92 687.91 402.23 556.90 522.07 508.27 679.24 702.73 632.85
00135169 00000067 378.90 145.28 510.04 688.23 466.58 456.60 691.30 402.18 560.45 523.58 512.47 678.16 705.41 633.02
00135170 00000068 380.35 143.39 510.50 689.96 470.10 454.92 695.11 401.60 564.75 523.23 515.79 677.10 709.20 632.83
00135171 00000069 382.69 143.22 511.88 690.63 473.32 450.17 696.74 397.73 567.84 523.64 522.23 677.32 710.70 633.95
00135172 00000070 384.08 142.60 510.98 690.04 474.62 449.11 697.00 396.17 569.03 523.18 525.97 678.71 710.09 635.05
00135173 00000071 385.09 142.04 512.43 695.08 475.06 449.51 696.33 396.32 568.45 524.10 525.82 678.66 711.01 634.74
00135174 00000072 387.24 144.83 511.45 693.73 474.51 450.77 696.69 396.78 568.24 527.78 525.88 683.21 713.24 638.84
00135175 00000073 389.26 147.53 510.98 700.55 476.83 454.46 696.45 400.62 567.81 531.50 527.38 687.47 713.45 643.16
00135176 00000074 390.04 146.50 514.70 700.65 479.13 457.07 698.67 403.95 569.62 534.46 530.04 689.43 712.65 645.58
00135177 00000075 393.59 146.86 514.76 704.35 482.81 457.63 700.84 405.89 571.21 536.80 531.49 689.79 715.60 646.83
00135178 00000076 396.53 148.55 512.71 705.42 485.56 457.15 703.16 407.74 572.66 538.00 531.33 688.85 718.57 647.71
00135179 00000077 397.51 149.71 513.59 705.72 489.23 454.84 706.51 407.93 577.11 538.87 535.20 688.76 719.12 650.09
00135180 00000078 399.41 150.63 513.77 704.38 491.11 452.36 709.43 406.63 579.30 539.83 538.25 688.42 720.45 650.74
00135181 00000079 401.02 148.74 515.25 703.26 494.81 450.69 713.79 406.89 585.03 539.62 542.87 685.83 723.44 649.72
00135182 00000080 403.82 147.01 516.71 705.11 499.29 445.75 720.49 406.83 590.45 537.08 546.71 683.75 726.67 651.54
00135183 00000081 407.10 150.26 516.86 705.65 503.87 442.25 727.49 406.19 597.92 534.96 552.03 683.88 734.21 653.91
00135184 00000082 410.96 154.28 513.00 699.36 506.43 441.26 730.58 407.22 601.50 535.32 555.48 685.20 736.19 657.33
00135185 00000083 410.40 155.18 512.26 701.79 507.84 441.21 730.47 408.15 602.18 534.53 554.92 685.08 734.98 657.96
00135186 00000084 409.35 155.73 511.61 695.41 503.99 441.53 729.01 408.12 598.21 535.79 550.03 683.72 732.83 656.13
00135187 00000085 406.93 152.92 511.77 695.62 498.09 442.69 727.10 409.69 590.20 536.95 536.75 680.06 730.67 651.97
00135188 00000086 402.34 150.99 514.62 695.86 493.92 443.25 722.92 409.67 583.96 537.04 529.36 676.31 727.24 647.64
00135189 00000087 401.34 149.39 513.84 693.10 491.84 443.43 721.94 408.93 580.38 533.24 524.97 674.23 724.91 645.05
00135190 00000088 401.13 147.94 513.43 694.29 491.59 441.39 720.83 406.49 578.02 528.44 523.23 673.10 721.39 643.84
00135191 00000089 401.26 146.05 514.35 694.63 493.97 441.44 722.19 408.22 578.15 523.51 521.88 670.47 718.82 642.76
00135192 00000090 400.53 146.61 508.76 681.47 494.88 444.67 718.44 409.40 579.77 520.36 524.77 666.29 714.56 637.16
00135193 00000091 400.50 145.18 508.89 676.09 493.61 436.92 717.25 402.52 579.27 517.31 527.72 661.97 709.79 633.38
00135194 00000092 404.89 145.77 507.18 671.31 496.83 429.52 721.86 398.50 581.87 511.31 529.10 657.48 711.45 631.06
00135195 00000093 416.74 147.39 499.67 655.12 501.44 427.90 729.86 396.02 583.76 502.23 530.52 656.48 716.71 629.68
00135196 DELETE   423.09 144.64 504.54 647.23 507.27 422.46 740.64 390.58 593.84 499.69 542.07 651.26 733.34 623.54
00135197 DELETE   435.41 147.78 502.00 647.92 515.79 414.95 751.16 387.63 600.14 499.43 547.88 649.71 742.29 626.33
00135198 00000096 447.40 146.60 499.45 656.74 529.90 408.30 764.25 390.21 610.06 498.48 557.51 650.22 747.34 634.76
00135199 00000097 461.83 148.08 492.64 656.31 543.34 409.87 777.71 396.13 624.92 502.47 567.22 651.79 756.06 639.70
00135200 DELETE   473.88 139.93 498.16 663.30 557.84 416.84 784.39 403.36 634.86 506.81 574.57 654.41 754.13 643.61
00135201 DELETE   481.37 144.80 496.43 661.49 569.04 412.40 796.67 404.47 645.25 505.01 579.07 651.01 762.82 644.57
00135202 DELETE   486.83 146.26 500.77 663.60 572.24 409.36 805.42 400.96 654.13 510.80 586.52 649.40 776.76 641.95
00135203 00000101 489.29 154.99 504.60 655.88 576.42 408.32 812.06 402.85 658.70 515.00 591.98 649.87 785.35 644.56
00135204 00000102 498.41 155.95 496.41 651.92 585.71 406.88 821.16 404.90 667.41 516.90 595.61 647.36 793.99 644.87
00135205 00000103 501.29 160.68 497.04 647.21 594.94 404.02 829.59 407.99 674.64 518.70 600.11 645.42 797.42 647.97
00135206 00000104 504.95 159.68 495.68 647.61 600.96 402.32 834.28 409.92 680.96 520.80 605.01 645.77 797.83 651.61
00135207 00000105 504.20 156.93 498.55 652.34 605.16 401.62 838.28 411.06 686.18 521.94 609.90 649.10 796.12 656.69
00135208 00000106 506.44 157.61 496.29 649.91 609.97 397.85 844.85 412.26 691.34 520.29 607.87 643.03 799.85 654.55
00135209 00000107 511.30 154.75 491.20 658.29 616.93 394.86 847.56 412.52 697.22 517.44 608.79 638.77 802.12 653.23
00135210 00000108 513.78 155.63 489.68 654.40 624.84 390.75 850.88 412.63 704.54 514.00 616.05 631.87 805.60 649.66
00135211 00000109 519.47 160.06 487.97 645.45 631.84 388.20 860.67 410.11 715.22 507.61 624.85 629.73 812.06 647.77
00135212 00000110 523.08 163.82 489.72 643.27 639.19 383.43 873.50 410.09 724.54 505.15 626.52 628.64 822.31 650.49
00135213 00000111 528.89 157.68 493.72 653.58 645.70 383.05 883.78 410.29 739.62 496.76 635.32 627.72 838.42 649.90
00135214 00000112 540.43 150.97 491.09 651.99 655.38 383.85 891.41 408.21 755.17 492.04 656.29 626.87 850.54 646.69
00135215 00000113 545.79 147.35 491.28 646.79 665.05 382.02 902.13 408.24 767.89 487.72 665.79 624.99 859.91 646.22
00135216 00000114 551.11 143.54 501.45 655.78 686.85 390.48 916.75 409.99 784.05 497.22 675.42 628.19 866.21 643.94
00135217 00000115 563.30 151.85 503.79 642.25 699.01 383.57 933.76 411.97 798.65 503.07 690.58 625.17 885.99 647.96
00135218 DELETE   577.83 162.93 495.11 639.26 710.94 386.97 946.05 416.04 809.99 510.24 704.14 631.60 895.28 655.51
00135219 DELETE   591.78 164.34 493.44 643.52 721.51 391.38 959.10 419.90 824.04 520.52 715.56 637.82 908.19 662.00
00135220 DELETE   599.17 165.90 489.19 647.30 728.46 398.93 965.18 424.81 835.40 526.85 725.39 643.64 921.08 665.11
00135221 00000119 605.82 175.42 487.14 641.99 736.34 406.43 973.13 430.33 844.25 534.67 736.85 652.25 929.22 672.06
00135222 00000120 610.79 178.56 493.68 643.14 745.42 413.01 983.38 436.15 853.80 542.03 749.17 658.75 939.80 677.28
00135223 00000121 610.67 171.05 500.75 664.19 758.97 413.00 988.67 434.58 868.78 542.33 755.05 661.48 940.02 680.00
00135224 00000122 613.68 176.40 504.23 665.15 763.55 421.77 994.70 442.76 874.86 554.05 757.87 670.73 944.31 688.82
00135225 00000123 614.27 188.59 503.12 662.00 765.16 427.98 994.62 450.86 876.07 566.05 759.31 680.83 942.64 700.48
00135226 00000124 616.28 196.57 498.37 662.07 763.52 434.69 992.76 458.76 873.29 578.96 758.60 690.68 940.11 711.18
00135227 DELETE   615.52 212.05 502.15 654.70 764.55 443.82 993.79 470.45 871.37 590.42 757.81 698.23 939.87 720.50
00135228 00000126 611.15 217.45 504.10 676.27 764.39 457.23 990.24 487.88 870.30 604.94 757.92 705.39 942.02 730.54
00135229 00000127 609.52 214.75 505.88 688.25 763.11 457.31 989.46 487.47 870.73 608.81 755.96 709.59 941.17 734.63
00135230 00000128 612.02 222.10 505.16 675.22 763.01 457.22 992.79 484.74 872.96 609.54 757.90 710.12 944.63 733.23
00135231 00000129 617.80 222.87 501.80 667.71 767.33 451.72 997.63 478.63 877.44 604.23 764.94 707.84 947.49 730.55
00135232 00000130 622.44 220.65 499.99 664.52 774.81 448.15 1006.89 477.93 886.26 600.79 770.87 702.44 956.10 727.25
00135233 00000131 626.12 219.37 501.86 663.08 778.81 446.96 1013.37 478.15 890.18 597.82 773.28 700.58 961.05 726.29
00135234 00000132 626.67 222.37 502.09 659.32 779.82 447.51 1013.69 481.13 889.76 600.55 772.09 703.49 955.11 731.67
00135235 00000133 621.88 229.94 501.16 658.10 773.79 452.38 1008.35 485.23 885.84 605.42 765.63 712.03 947.02 740.33
00135236 00000134 615.22 239.66 502.61 654.53 764.64 457.75 997.67 483.24 877.79 605.44 770.42 716.14 947.07 737.71
00135237 00000135 612.84 233.75 504.23 652.46 758.41 461.80 990.95 483.67 871.16 605.83 767.83 713.05 945.44 731.49
00135238 00000136 605.39 228.40 510.58 660.45 752.07 457.59 987.64 485.58 861.09 612.67 757.09 707.66 939.70 731.25
00135239 00000137 600.58 218.39 514.20 679.98 742.50 451.64 984.27 485.95 848.60 622.54 748.57 707.19 934.64 736.37
00135240 00000138 598.96 233.72 503.84 650.96 734.41 454.85 970.60 482.15 836.14 611.13 734.94 702.19 930.38 726.11
00135241 00000139 590.00 220.52 507.19 656.98 728.01 446.40 965.44 469.08 833.87 593.40 736.23 696.69 922.68 716.25
00135242 00000140 587.75 219.58 501.56 653.90 721.31 438.90 958.84 462.68 827.17 589.68 731.00 694.09 912.70 714.92
00135243 00000141 580.96 215.11 504.06 655.07 716.70 437.78 952.56 464.24 819.42 584.91 726.28 692.60 902.84 715.17
00135244 00000142 571.34 198.58 511.85 684.12 708.30 439.40 944.26 461.63 811.64 582.50 723.00 701.76 905.47 721.80
00135245 00000143 568.10 189.76 505.96 683.97 701.18 442.82 933.62 464.84 803.44 580.29 711.11 694.58 896.44 714.28
00135246 00000144 559.19 184.67 511.67 678.02 693.29 437.54 931.80 457.38 798.67 575.71 700.93 684.35 894.10 702.55
00135247 00000145 558.60 187.84 505.03 667.19 690.09 431.97 927.25 452.29 796.53 571.67 699.26 682.93 888.86 701.57
00135248 00000146 558.07 191.51 502.78 653.38 687.56 430.86 922.87 449.44 792.89 568.68 698.86 679.83 884.22 696.89
00135249 00000147 556.88 197.79 498.74 650.14 686.34 429.59 919.53 447.58 791.89 571.81 699.68 684.25 880.23 700.67
00135250 00000148 554.02 191.45 500.43 654.39 685.84 428.36 917.92 448.17 789.05 568.80 692.19 675.56 877.22 693.33
00135251 00000149 553.60 187.85 497.17 651.54 686.02 427.36 915.47 447.13 789.62 575.38 694.77 670.09 879.73 687.95
00135252 00000150 553.04 192.94 499.67 665.56 686.95 431.27 908.95 451.01 785.04 580.11 697.45 679.68 869.85 697.49
00135253 00000151 557.49 205.44 487.88 647.54 690.46 435.94 910.74 449.84 792.41 578.65 718.51 699.09 863.26 711.82
00135254 00000152 556.63 196.71 489.62 661.05 681.05 435.86 912.48 448.10 790.52 579.63 705.45 705.73 865.75 717.19
00135255 00000153 552.77 202.68 493.37 658.93 678.85 438.22 911.91 453.70 785.91 584.76 691.05 707.00 859.12 720.90
00135256 00000154 547.52 202.33 496.52 667.85 676.86 438.35 907.40 456.01 782.21 588.56 688.40 709.73 853.84 725.43
00135257 00000155 543.18 210.26 492.23 648.08 662.62 439.47 902.97 452.51 773.26 580.04 684.11 705.98 858.90 715.16
00135258 00000156 540.82 209.31 489.25 645.14 659.38 439.36 901.24 452.40 772.05 576.18 681.04 703.32 861.60 712.36
00135259 00000157 540.36 210.14 484.02 644.77 655.94 436.51 898.48 451.41 766.95 573.32 675.06 699.31 860.69 710.09
00135260 00000158 539.80 210.08 483.12 642.88 654.52 437.25 896.85 451.59 766.42 572.56 674.00 698.64 860.70 708.98
00135261 00000159 539.22 210.53 483.11 639.89 653.28 436.40 896.31 450.91 765.50 571.72 672.72 697.74 860.46 708.12
00135262 00000160 539.26 206.47 485.23 649.99 654.00 434.09 896.74 448.56 765.01 568.43 670.69 694.82 860.34 705.07
00135263 00000161 539.77 207.54 485.69 648.44 654.82 429.77 898.60 446.07 765.11 565.37 667.91 690.72 860.32 702.37
00135264 00000162 541.25 207.07 485.83 641.37 655.70 428.70 899.53 443.71 766.55 562.18 672.67 690.73 860.63 701.22
00135265 00000163 541.44 204.29 487.64 641.08 657.36 432.65 901.67 447.72 767.98 563.42 674.34 689.85 864.38 700.28
00135266 00000164 541.68 194.28 488.31 656.36 671.72 439.98 899.01 454.79 777.62 572.72 679.72 690.51 859.84 703.06
00135267 00000165 542.76 193.70 487.32 658.70 668.38 440.58 900.15 453.04 777.69 575.01 680.94 695.29 861.71 705.98
00135268 00000166 540.46 202.74 488.42 643.44 656.24 436.08 900.48 449.32 768.00 568.55 676.02 693.25 865.58 702.28
00135269 00000167 539.58 207.71 486.98 641.03 653.38 435.99 897.97 448.90 765.41 568.47 672.03 692.71 865.20 701.61
00135270 00000168 539.82 212.38 484.02 642.54 653.42 437.32 896.39 450.33 764.38 570.58 671.40 695.61 862.48 704.96
00135271 00000169 537.86 216.19 482.85 644.26 652.88 440.61 892.44 450.58 764.50 578.84 676.99 699.47 861.86 706.55
00135272 00000170 540.16 220.77 481.84 644.74 652.79 445.67 892.43 454.89 765.04 587.08 676.63 705.38 862.05 711.95
