Video ID: 	keJViVR7PCA
H: 	2160
W: 	3840
FPS: 	24.0

FRAME INDEX X0 Y0 W H [Landmarks (5 Points)]

00007168 00000000 1488.00 506.64 480.09 695.83 1603.73 845.70 1807.43 788.96 1717.53 928.10 1669.25 1053.06 1842.49 1008.72
00007169 DELETE   1492.60 520.85 476.62 691.37 1606.61 854.80 1807.13 801.31 1716.13 944.79 1669.79 1064.70 1839.58 1022.76
00007170 00000002 1493.93 526.67 474.21 694.78 1609.24 858.67 1809.41 808.97 1716.03 956.47 1670.42 1074.01 1837.57 1035.11
00007171 00000003 1497.00 532.00 475.32 694.34 1613.25 857.06 1811.04 810.04 1716.69 961.06 1674.73 1077.82 1837.98 1041.02
00007172 00000004 1502.47 530.08 473.06 690.49 1617.73 853.25 1814.66 808.43 1720.51 957.04 1676.31 1072.83 1839.36 1037.95
00007173 00000005 1506.25 528.67 471.31 683.53 1619.38 850.21 1817.12 806.38 1722.46 953.83 1677.39 1067.99 1841.88 1033.83
00007174 00000006 1509.38 524.04 469.75 685.04 1620.72 847.21 1819.45 804.87 1723.26 950.54 1675.42 1062.96 1843.34 1030.10
00007175 00000007 1507.76 523.79 469.77 680.16 1619.78 847.72 1817.66 805.50 1722.79 949.34 1674.78 1061.69 1839.93 1029.01
00007176 00000008 1504.59 526.89 468.39 676.36 1615.77 848.15 1814.52 807.31 1718.11 949.72 1667.21 1059.43 1835.73 1027.76
00007177 00000009 1502.52 528.62 465.64 675.56 1611.37 850.01 1811.80 810.57 1711.84 948.56 1662.55 1058.49 1829.91 1027.72
00007178 00000010 1498.45 525.88 465.40 678.21 1602.94 853.26 1807.23 811.47 1703.80 944.07 1655.10 1057.94 1826.25 1025.32
00007179 00000011 1491.18 518.41 467.14 682.96 1596.96 852.24 1801.78 808.29 1699.24 939.35 1648.70 1053.62 1823.56 1019.36
00007180 00000012 1485.10 517.10 468.52 678.79 1591.98 847.89 1795.80 801.80 1695.79 934.60 1646.84 1048.29 1821.51 1011.76
00007181 00000013 1480.23 509.08 467.73 682.41 1587.54 843.45 1788.01 796.32 1688.57 928.78 1643.71 1041.18 1816.99 1003.54
00007182 00000014 1477.57 504.52 465.32 684.20 1583.00 838.98 1784.58 789.98 1684.13 923.52 1640.98 1037.50 1814.63 998.47
00007183 00000015 1467.85 494.20 475.57 697.06 1579.39 833.69 1775.16 783.92 1676.97 913.96 1636.43 1035.78 1807.96 998.20
00007184 00000016 1463.21 493.89 473.94 692.59 1573.30 830.17 1770.57 779.39 1671.98 910.06 1633.36 1034.65 1801.80 996.28
00007185 00000017 1458.69 492.30 473.79 687.72 1567.16 826.63 1763.67 775.99 1663.63 911.01 1626.64 1030.63 1795.24 992.27
00007186 00000018 1456.64 491.50 468.82 685.86 1562.02 824.84 1759.30 773.23 1658.91 907.22 1620.22 1030.21 1790.94 991.34
00007187 00000019 1452.62 492.77 467.04 681.11 1558.68 821.58 1755.16 770.73 1655.92 903.70 1616.20 1025.70 1786.55 987.11
00007188 00000020 1449.01 491.56 465.42 676.67 1553.49 820.78 1748.90 770.51 1649.03 903.69 1611.04 1024.99 1778.14 987.04
00007189 00000021 1444.88 488.71 466.06 681.01 1547.65 819.99 1744.47 769.35 1643.43 903.45 1605.29 1024.69 1774.29 986.33
00007190 00000022 1439.76 487.85 463.87 680.92 1539.60 821.33 1737.13 768.85 1635.47 902.09 1600.56 1027.09 1766.65 987.21
00007191 00000023 1434.88 486.50 465.91 681.52 1534.35 820.68 1732.75 768.55 1628.95 899.93 1595.69 1026.90 1761.29 987.43
00007192 00000024 1431.50 485.01 465.37 680.77 1531.68 821.17 1730.88 768.72 1628.16 899.13 1593.74 1026.30 1759.18 986.56
00007193 00000025 1430.39 485.05 464.79 680.00 1529.91 820.17 1729.22 768.76 1626.17 899.20 1590.77 1025.73 1756.86 986.83
00007194 00000026 1429.41 483.44 465.90 680.27 1528.43 819.43 1728.10 768.11 1624.54 898.76 1589.07 1024.96 1755.58 986.17
00007195 00000027 1426.86 480.66 466.10 682.85 1527.16 818.78 1726.91 767.78 1623.66 899.72 1588.09 1024.92 1754.53 986.27
00007196 00000028 1425.18 480.90 468.63 684.09 1524.69 818.32 1726.85 767.23 1622.55 899.59 1585.74 1025.17 1754.68 986.51
00007197 00000029 1425.01 483.65 467.31 680.05 1523.98 818.48 1726.64 767.93 1622.08 900.30 1584.39 1025.13 1754.08 986.77
00007198 00000030 1422.96 484.44 470.02 681.01 1522.66 820.85 1725.78 770.76 1620.84 902.36 1582.65 1025.75 1753.59 987.59
00007199 00000031 1422.94 485.11 469.24 682.48 1522.75 823.64 1725.24 772.41 1620.88 903.45 1582.78 1027.63 1754.29 988.64
00007200 00000032 1423.40 484.25 468.87 682.78 1523.55 824.40 1725.36 772.86 1621.43 904.74 1583.61 1028.22 1755.03 989.01
00007201 00000033 1423.56 485.80 470.25 683.87 1523.43 826.21 1726.30 773.97 1621.53 905.19 1583.36 1030.02 1756.21 990.39
00007202 00000034 1424.73 487.41 468.78 684.33 1524.88 828.39 1726.55 775.73 1622.99 906.32 1584.96 1031.29 1756.62 991.31
00007203 00000035 1424.96 487.75 469.70 683.03 1526.34 829.37 1725.99 776.46 1624.16 906.91 1586.57 1031.49 1756.68 991.37
00007204 00000036 1425.99 487.99 469.66 683.55 1527.47 829.99 1726.42 776.25 1624.50 907.71 1587.81 1031.69 1757.78 990.91
00007205 00000037 1427.08 490.24 466.66 681.37 1528.40 829.95 1727.23 776.46 1626.05 907.48 1588.74 1032.17 1757.80 991.49
00007206 00000038 1427.58 490.65 466.04 680.56 1528.57 829.48 1727.50 776.37 1626.21 907.60 1588.27 1031.57 1757.86 991.15
00007207 00000039 1427.18 490.36 466.46 680.16 1528.06 829.46 1727.52 776.58 1625.98 907.76 1587.81 1031.56 1757.46 991.32
00007208 00000040 1426.89 489.38 467.11 680.27 1527.69 829.27 1728.00 776.41 1626.04 907.20 1587.30 1030.84 1758.09 990.63
00007209 00000041 1425.97 489.79 467.26 680.64 1527.80 829.43 1727.92 776.48 1626.39 907.27 1587.11 1030.72 1758.20 990.40
00007210 00000042 1424.78 489.62 469.54 681.35 1527.27 830.28 1726.93 777.64 1625.47 907.73 1586.08 1031.17 1757.75 991.17
00007211 00000043 1423.06 489.72 471.59 682.09 1525.13 829.98 1726.12 777.61 1623.73 908.97 1584.60 1031.41 1756.83 991.49
00007212 00000044 1422.69 489.81 469.29 681.29 1523.76 830.69 1724.89 779.04 1621.50 910.03 1582.56 1032.14 1755.87 992.85
00007213 00000045 1422.76 491.83 468.17 679.44 1524.18 832.46 1724.73 780.67 1622.69 912.99 1583.45 1034.07 1756.01 994.50
00007214 00000046 1422.75 492.18 467.63 682.47 1524.40 833.76 1724.36 780.61 1623.24 913.80 1583.17 1035.42 1757.40 994.89
00007215 00000047 1422.76 491.98 469.11 684.08 1525.25 833.69 1725.25 780.54 1624.26 912.79 1583.84 1035.49 1758.09 995.03
00007216 00000048 1423.20 489.59 470.13 681.07 1525.89 833.73 1726.89 780.51 1626.27 910.99 1586.72 1034.12 1758.30 993.58
00007217 00000049 1424.24 489.78 469.76 683.27 1528.41 831.84 1728.26 778.43 1628.20 909.72 1589.72 1033.62 1759.48 992.98
00007218 00000050 1425.28 490.00 469.68 681.55 1529.74 830.12 1730.91 777.63 1630.65 908.11 1589.17 1031.79 1760.99 991.83
00007219 00000051 1426.37 489.94 468.56 681.51 1530.46 832.49 1730.72 778.79 1630.83 908.71 1590.99 1033.24 1761.68 992.51
00007220 00000052 1425.87 491.17 469.95 680.53 1530.28 832.45 1730.54 778.75 1630.57 908.90 1590.98 1033.28 1761.30 992.52
00007221 00000053 1425.14 489.82 470.24 681.55 1530.41 832.90 1730.57 779.24 1631.14 908.75 1590.89 1032.78 1761.98 991.98
00007222 00000054 1425.53 489.81 469.48 680.50 1530.56 834.28 1731.03 780.17 1631.75 909.26 1591.26 1033.80 1761.96 992.82
00007223 00000055 1426.50 491.36 469.96 680.23 1531.71 833.21 1732.43 778.45 1633.96 908.89 1592.64 1034.34 1763.51 992.80
00007224 00000056 1428.09 492.36 468.88 682.77 1534.01 831.92 1734.75 777.26 1636.30 909.25 1594.33 1034.14 1766.27 992.47
00007225 00000057 1428.04 492.50 473.01 684.82 1534.87 831.08 1734.69 776.29 1637.45 910.84 1596.75 1035.45 1766.75 993.63
00007226 00000058 1428.03 492.50 473.93 684.36 1535.15 831.60 1734.63 777.43 1637.17 911.81 1596.31 1035.61 1766.50 994.32
00007227 00000059 1428.20 492.39 472.76 684.77 1535.20 831.86 1734.65 777.87 1637.46 912.80 1596.03 1036.03 1766.35 994.80
00007228 00000060 1428.14 492.25 473.19 683.43 1535.24 831.43 1735.37 778.22 1637.84 912.45 1595.28 1035.20 1766.80 994.53
00007229 00000061 1428.13 491.40 474.30 684.16 1536.02 831.34 1736.62 778.18 1639.23 912.32 1595.83 1034.56 1768.18 993.88
00007230 00000062 1428.51 490.22 473.22 684.04 1536.38 831.46 1736.68 778.14 1639.46 912.58 1596.25 1034.30 1768.37 993.56
00007231 00000063 1428.84 491.36 473.28 684.93 1536.95 831.03 1737.75 777.85 1639.95 911.61 1596.03 1034.27 1768.82 993.63
00007232 00000064 1429.95 493.36 471.65 684.65 1537.78 833.83 1737.61 779.36 1640.87 912.85 1597.35 1034.82 1769.89 993.12
00007233 00000065 1430.50 492.68 471.21 684.75 1539.69 833.21 1738.42 779.71 1642.86 914.21 1598.08 1034.69 1771.16 993.62
00007234 00000066 1432.18 494.31 471.11 684.69 1541.36 832.34 1739.78 778.95 1643.79 915.30 1599.72 1034.45 1772.13 993.28
00007235 00000067 1433.05 492.05 472.32 688.61 1542.73 833.97 1739.35 779.78 1644.05 916.12 1601.34 1034.28 1773.72 992.64
00007236 00000068 1434.42 491.54 470.34 688.96 1544.02 833.67 1739.76 779.65 1645.19 916.08 1602.42 1034.14 1774.60 992.70
00007237 00000069 1435.60 491.69 469.49 689.30 1544.55 833.64 1739.68 779.67 1645.15 916.34 1602.99 1034.45 1775.01 993.10
00007238 00000070 1435.83 493.05 470.04 688.22 1544.46 833.39 1740.22 779.37 1645.22 916.04 1602.56 1035.47 1774.64 994.04
00007239 00000071 1435.65 492.90 469.51 687.59 1543.99 833.73 1740.06 779.60 1644.98 915.35 1602.23 1035.07 1774.07 993.57
00007240 00000072 1434.53 490.80 470.07 689.70 1543.04 834.36 1738.97 779.98 1643.73 914.92 1601.96 1034.15 1772.95 992.57
00007241 00000073 1433.97 491.05 470.24 689.80 1542.01 833.88 1738.71 780.03 1642.35 915.33 1600.70 1034.97 1772.59 993.77
00007242 00000074 1433.03 492.61 469.85 689.43 1540.39 834.88 1737.62 780.56 1641.15 915.24 1599.35 1037.04 1770.76 995.48
00007243 00000075 1431.88 493.12 469.64 686.29 1538.57 833.73 1735.94 780.33 1638.92 914.89 1598.00 1035.79 1768.43 994.79
00007244 00000076 1430.99 493.43 469.47 685.99 1537.42 833.02 1734.95 779.72 1637.77 914.93 1596.41 1035.90 1767.91 995.03
00007245 00000077 1430.00 491.22 469.52 685.70 1535.62 834.48 1733.77 780.69 1636.10 914.55 1595.38 1037.02 1765.65 996.09
00007246 00000078 1428.58 493.25 469.48 683.71 1534.07 836.65 1731.75 782.83 1634.22 914.52 1593.69 1038.02 1763.99 997.15
00007247 00000079 1427.67 497.04 468.93 681.93 1530.37 838.29 1728.43 782.35 1630.57 915.21 1592.31 1039.84 1762.61 997.46
00007248 00000080 1427.09 498.27 467.05 681.45 1527.89 838.09 1726.83 783.19 1626.47 916.22 1589.30 1040.45 1760.61 998.76
00007249 00000081 1425.41 497.10 468.96 682.96 1525.81 839.13 1725.09 784.04 1624.73 916.56 1588.82 1040.98 1759.24 999.13
00007250 00000082 1424.89 498.96 468.22 682.84 1525.51 840.25 1724.78 784.90 1624.02 917.31 1587.42 1041.38 1759.54 999.30
00007251 00000083 1423.77 497.10 468.66 683.53 1525.21 840.43 1724.25 785.89 1623.72 918.78 1586.48 1041.50 1758.95 1000.03
00007252 00000084 1422.66 497.37 468.16 682.67 1524.61 840.34 1723.50 786.51 1623.31 920.65 1585.38 1042.40 1757.70 1001.36
00007253 00000085 1422.64 498.87 467.38 683.27 1524.15 840.57 1723.42 786.65 1623.19 921.81 1584.78 1043.20 1757.92 1002.07
00007254 00000086 1422.61 498.34 467.29 683.23 1524.04 841.37 1723.22 787.18 1623.17 921.59 1584.38 1043.11 1757.99 1001.84
00007255 00000087 1422.61 501.47 468.33 679.15 1521.36 842.81 1724.10 790.17 1622.24 921.62 1582.05 1043.81 1757.18 1003.59
00007256 00000088 1423.19 501.45 467.35 679.15 1521.37 842.13 1723.70 791.59 1620.41 922.57 1581.02 1042.70 1756.03 1003.85
00007257 00000089 1421.92 500.90 467.66 682.79 1521.05 842.35 1724.07 790.43 1621.53 923.01 1582.31 1045.03 1756.22 1005.26
00007258 00000090 1421.76 502.56 467.12 687.00 1523.24 842.85 1724.65 788.41 1624.96 923.18 1584.53 1047.40 1757.66 1005.88
00007259 00000091 1421.73 506.00 466.96 685.58 1523.83 843.72 1723.29 788.92 1624.16 925.40 1585.91 1049.86 1755.71 1007.97
00007260 00000092 1422.36 506.94 466.18 684.59 1524.23 842.24 1723.09 789.12 1623.81 926.32 1585.82 1049.17 1754.66 1008.41
00007261 00000093 1421.04 503.96 466.41 684.96 1522.02 839.97 1721.48 787.95 1620.76 926.97 1584.37 1047.51 1753.46 1007.51
00007262 00000094 1419.88 498.05 466.41 685.67 1520.35 837.71 1720.16 786.47 1617.90 923.73 1584.56 1046.05 1749.80 1006.71
00007263 00000095 1414.74 495.80 469.44 680.67 1516.72 833.09 1718.03 783.99 1615.47 920.88 1582.81 1042.49 1743.45 1004.76
00007264 00000096 1405.87 487.44 481.03 694.18 1504.74 828.99 1703.63 779.39 1602.76 912.45 1577.95 1044.71 1731.02 1007.96
00007265 00000097 1398.68 481.59 483.70 697.74 1494.09 826.26 1693.84 777.76 1589.01 910.19 1569.29 1046.82 1716.39 1011.54
00007266 00000098 1389.24 488.01 481.06 686.39 1487.01 824.60 1681.64 776.08 1579.30 910.16 1560.06 1040.02 1704.03 1003.94
00007267 00000099 1387.41 484.34 478.57 690.20 1484.37 825.59 1677.18 776.77 1576.25 913.05 1558.58 1041.73 1700.21 1005.36
00007268 00000100 1387.08 485.58 476.11 692.74 1484.12 826.40 1675.61 777.45 1576.25 913.06 1559.75 1044.41 1698.21 1007.86
00007269 00000101 1386.63 486.04 476.91 698.98 1485.90 828.91 1675.95 779.35 1578.22 913.69 1563.50 1047.99 1700.47 1011.07
00007270 00000102 1385.96 487.22 475.32 702.14 1486.99 830.88 1675.83 780.51 1579.33 913.87 1565.68 1050.11 1699.98 1012.59
00007271 00000103 1386.31 490.51 475.17 700.97 1486.43 831.40 1675.88 782.32 1578.63 916.17 1563.53 1051.08 1699.15 1014.26
00007272 00000104 1385.14 489.67 475.76 704.27 1486.48 833.18 1675.16 783.81 1578.39 917.51 1563.42 1052.04 1699.46 1014.98
00007273 00000105 1384.02 488.81 476.80 704.45 1485.14 834.05 1674.10 785.10 1577.03 920.11 1560.50 1051.62 1698.96 1014.82
00007274 00000106 1383.16 490.86 473.44 702.40 1484.02 834.31 1672.47 785.09 1576.42 921.05 1559.83 1051.89 1697.19 1014.79
00007275 00000107 1383.50 491.45 473.56 700.57 1484.12 834.42 1672.90 785.26 1576.60 921.86 1560.44 1051.87 1697.14 1014.72
00007276 00000108 1385.08 491.22 474.52 699.79 1485.14 834.12 1674.38 785.80 1577.02 920.77 1560.12 1051.37 1697.39 1015.01
00007277 00000109 1384.59 490.59 475.00 699.41 1486.53 834.69 1675.71 786.25 1579.21 919.83 1562.53 1052.21 1697.78 1015.84
00007278 00000110 1388.30 494.04 476.89 694.54 1489.17 833.45 1680.03 785.92 1582.32 919.62 1564.01 1051.92 1701.53 1016.29
00007279 00000111 1390.97 495.61 479.37 692.99 1492.74 835.18 1687.16 786.42 1589.62 919.77 1570.29 1056.32 1707.98 1020.07
00007280 00000112 1393.93 493.30 481.27 694.87 1497.03 836.38 1693.92 787.70 1597.22 921.04 1574.78 1057.43 1714.51 1021.30
00007281 00000113 1399.61 493.95 479.55 695.81 1502.77 834.55 1701.10 786.93 1603.10 920.55 1577.88 1055.36 1721.87 1020.01
00007282 00000114 1410.10 495.87 467.55 686.33 1513.08 834.52 1716.81 789.11 1615.00 922.46 1585.04 1055.50 1732.41 1020.66
00007283 00000115 1415.11 496.17 469.86 686.23 1519.51 833.52 1723.78 787.76 1621.16 918.47 1588.23 1051.81 1738.46 1017.15
00007284 00000116 1422.44 492.56 469.45 688.01 1527.97 830.91 1733.10 785.60 1631.16 910.40 1594.42 1047.65 1744.15 1013.60
00007285 00000117 1425.53 491.47 472.40 688.25 1535.21 826.43 1740.43 781.85 1640.87 906.47 1600.11 1043.62 1749.83 1010.20
00007286 00000118 1433.34 489.52 468.54 692.91 1545.77 822.35 1747.17 777.97 1650.86 906.98 1607.45 1041.33 1760.21 1007.87
00007287 00000119 1438.48 487.48 471.11 698.66 1552.55 820.33 1756.52 774.30 1660.22 904.04 1613.98 1042.15 1769.89 1007.79
00007288 00000120 1442.17 487.38 474.39 699.82 1556.47 819.81 1761.25 773.12 1665.38 901.15 1620.66 1041.61 1775.75 1006.68
00007289 00000121 1443.96 483.26 474.02 705.11 1558.02 817.38 1762.69 771.55 1665.62 898.85 1622.17 1040.19 1777.27 1006.07
00007290 00000122 1443.58 485.28 471.53 704.35 1557.37 816.13 1763.07 770.45 1665.27 898.02 1619.92 1039.34 1777.13 1005.21
00007291 00000123 1443.21 485.42 471.27 701.81 1556.23 816.38 1761.45 769.90 1663.15 898.24 1618.33 1037.88 1776.16 1003.20
00007292 00000124 1443.40 486.12 469.97 702.36 1555.10 816.77 1760.20 770.18 1661.16 897.12 1614.81 1036.95 1775.05 1002.21
00007293 00000125 1444.29 483.32 468.56 704.65 1553.91 816.86 1759.23 769.39 1660.10 895.72 1613.10 1035.29 1775.74 999.85
00007294 00000126 1443.51 483.79 468.01 706.85 1551.81 815.69 1757.76 768.48 1656.68 894.22 1609.52 1034.60 1774.70 999.28
00007295 00000127 1442.93 482.96 466.99 700.60 1549.31 813.83 1753.39 767.52 1651.65 895.66 1609.11 1033.74 1769.88 999.16
00007296 00000128 1440.25 482.33 466.44 694.54 1543.85 812.65 1747.16 767.63 1643.31 895.28 1604.28 1031.03 1762.73 997.47
CROP_BBOX: 678 0 2195 1650
