Video ID: 	HY9jXkPRDRc
H: 	1080
W: 	1920
FPS: 	25.0

FRAME INDEX X0 Y0 W H [Landmarks (5 Points)]

00005049 00000000 945.93 171.09 433.78 598.47 1049.64 381.94 1111.41 413.50 952.05 471.21 1011.86 594.08 1064.31 615.82
00005050 00000001 942.19 169.03 426.92 602.75 1046.37 380.96 1105.84 415.02 947.36 469.83 1007.89 592.15 1061.83 616.22
00005051 00000002 939.65 173.80 431.06 599.40 1042.18 380.65 1105.74 413.66 945.94 471.66 1004.48 594.33 1061.59 617.34
00005052 00000003 940.02 170.66 427.72 606.15 1043.28 380.09 1104.21 412.51 945.35 471.50 1005.97 595.43 1061.47 617.99
00005053 00000004 941.34 167.50 435.96 608.87 1040.21 379.53 1107.90 409.70 947.21 473.60 1005.73 597.73 1064.20 618.71
00005054 00000005 942.49 171.37 429.37 608.99 1041.38 378.16 1107.69 407.84 947.10 475.06 1005.77 599.71 1062.94 620.30
00005055 00000006 943.85 166.62 445.59 612.95 1040.90 380.25 1112.30 408.16 950.16 477.97 1007.05 602.17 1064.82 621.16
00005056 00000007 947.07 164.00 444.57 610.34 1040.98 379.72 1116.01 409.95 952.52 474.07 1008.40 596.64 1071.98 617.59
00005057 00000008 949.74 156.02 438.68 617.70 1041.66 379.02 1119.33 408.98 956.01 471.55 1005.86 594.86 1071.70 616.22
00005058 00000009 941.68 156.91 449.78 616.70 1033.50 378.17 1127.21 408.93 950.86 469.67 998.80 594.21 1078.40 616.52
00005059 00000010 946.92 152.23 439.52 617.55 1032.73 373.67 1133.56 406.92 956.86 468.18 1002.01 590.20 1087.09 614.81
00005060 DELETE   949.74 160.74 437.54 605.67 1033.01 375.18 1136.71 406.48 960.54 468.81 1003.29 589.35 1091.58 612.59
00005061 00000012 953.61 153.50 441.46 610.75 1031.66 379.99 1137.30 407.57 963.86 470.04 1006.12 589.07 1098.27 609.62
00005062 DELETE   957.10 153.54 442.37 612.20 1035.04 380.57 1140.97 406.93 967.37 469.53 1008.92 590.08 1099.66 609.40
00005063 00000014 957.82 140.64 445.29 637.45 1037.16 380.80 1142.15 406.36 968.90 470.59 1015.45 593.80 1109.50 612.71
00005064 00000015 961.84 140.60 445.53 648.65 1039.85 382.65 1145.91 405.57 972.62 472.72 1021.96 598.34 1120.30 615.01
00005065 00000016 962.71 143.66 448.50 641.69 1038.89 383.38 1145.92 405.89 972.78 472.76 1022.10 598.30 1119.82 614.64
00005066 00000017 962.32 144.94 444.75 629.15 1040.00 381.71 1145.40 406.20 973.34 471.93 1020.39 593.80 1115.48 611.90
00005067 00000018 961.52 149.55 442.51 617.11 1041.23 378.45 1145.90 404.43 972.91 469.49 1018.03 590.63 1109.64 610.10
00005068 00000019 959.01 145.86 445.60 618.92 1038.47 378.81 1146.01 405.44 972.94 467.66 1016.79 588.22 1109.41 608.31
00005069 00000020 956.78 140.46 438.28 625.83 1041.46 377.63 1143.71 407.61 969.85 467.55 1013.91 586.36 1104.53 608.85
00005070 00000021 954.50 145.22 442.88 618.16 1040.60 376.18 1141.48 407.16 968.07 466.90 1013.24 584.66 1101.79 607.92
00005071 00000022 951.49 156.69 443.49 603.94 1039.69 373.03 1139.30 404.87 966.43 465.91 1011.52 584.36 1096.18 608.24
00005072 00000023 959.75 149.15 431.42 611.29 1052.42 370.31 1135.12 404.12 973.17 464.10 1015.38 581.41 1083.38 606.99
00005073 00000024 956.47 149.12 439.56 611.07 1050.64 368.63 1131.59 401.14 969.73 464.16 1014.72 582.40 1079.83 606.30
00005074 00000025 954.94 158.31 443.25 604.24 1053.79 368.45 1127.95 400.26 968.39 463.43 1015.78 583.61 1076.40 606.58
00005075 00000026 952.49 158.59 444.79 606.89 1052.82 367.53 1126.12 400.07 965.65 463.64 1015.21 585.12 1076.05 608.41
00005076 00000027 949.71 156.99 449.96 609.92 1054.23 366.70 1121.89 397.15 961.99 462.81 1015.77 586.33 1071.18 607.68
00005077 00000028 949.28 161.66 442.65 602.87 1055.21 365.61 1121.45 396.47 962.06 460.05 1013.37 584.52 1067.84 606.47
00005078 00000029 950.36 163.51 441.16 600.42 1054.93 366.12 1121.23 397.72 961.33 461.32 1013.84 584.72 1068.18 607.15
00005079 00000030 950.48 163.02 446.55 599.93 1052.70 363.99 1120.56 396.30 960.16 462.77 1014.27 584.67 1069.04 607.44
00005080 00000031 950.24 149.82 443.29 614.27 1048.30 362.42 1120.82 395.61 959.91 461.95 1012.38 583.77 1069.78 607.95
00005081 00000032 950.74 144.88 444.27 617.89 1046.30 363.50 1122.32 398.13 961.50 464.24 1012.14 582.79 1072.86 608.43
00005082 00000033 950.50 137.54 442.27 626.42 1045.68 363.71 1123.92 399.07 963.05 464.06 1011.32 582.34 1074.08 608.91
00005083 00000034 951.74 152.40 438.46 608.58 1044.09 362.87 1126.93 397.66 963.52 457.89 1008.26 579.23 1076.28 605.46
00005084 00000035 944.64 151.18 444.98 609.10 1036.62 362.64 1132.06 395.41 955.98 455.66 1005.42 580.12 1083.97 604.28
00005085 00000036 955.52 149.44 435.12 609.63 1042.91 363.01 1132.83 397.15 967.58 457.19 1008.08 577.85 1081.07 603.98
00005086 00000037 949.73 145.24 434.21 612.16 1025.31 359.56 1133.78 398.57 959.27 455.36 999.83 576.29 1088.35 604.73
00005087 00000038 953.35 145.10 440.98 611.41 1023.82 359.97 1136.11 398.63 960.99 457.51 1002.95 577.33 1094.32 605.55
00005088 00000039 957.00 143.26 442.07 616.01 1043.35 361.83 1134.34 393.10 969.44 456.83 1010.17 577.96 1084.15 601.49
00005089 00000040 947.43 150.97 436.08 614.56 1040.30 363.82 1132.58 393.21 960.90 455.56 1010.04 580.31 1088.40 601.56
00005090 00000041 952.79 143.17 439.74 627.57 1047.85 363.38 1130.96 392.74 970.06 455.61 1011.67 581.73 1081.34 604.23
00005091 00000042 947.03 150.70 438.92 627.24 1042.93 361.99 1127.40 389.00 959.58 452.71 1014.60 584.01 1089.21 602.97
00005092 00000043 951.97 147.10 437.31 634.20 1049.16 357.86 1126.29 386.45 968.57 453.03 1017.53 584.43 1087.43 606.09
00005093 00000044 949.64 146.05 438.21 634.89 1050.01 354.68 1125.10 383.82 968.23 453.17 1018.48 584.48 1085.69 606.51
00005094 00000045 949.41 142.58 432.40 638.92 1051.56 355.45 1122.89 384.47 967.71 453.53 1019.43 585.39 1083.06 607.57
00005095 00000046 947.61 147.63 440.80 631.58 1052.05 354.28 1123.45 381.86 968.42 452.43 1018.75 585.45 1081.99 606.30
00005096 00000047 946.21 143.90 449.10 636.01 1052.79 353.60 1123.61 380.89 966.91 452.69 1019.53 586.00 1082.01 606.37
00005097 00000048 946.95 145.82 445.00 633.93 1051.82 355.55 1122.53 384.53 967.27 453.71 1019.45 585.38 1081.53 607.22
00005098 00000049 948.02 147.72 444.69 628.46 1050.89 355.49 1124.08 383.31 967.24 454.28 1018.06 586.17 1080.80 606.88
00005099 00000050 948.06 142.09 445.11 635.36 1050.21 355.13 1123.77 384.24 965.95 453.87 1017.30 585.09 1081.23 607.04
00005100 00000051 948.36 137.67 442.90 637.39 1048.63 356.23 1121.65 385.36 964.94 456.10 1017.01 585.16 1079.05 607.21
00005101 00000052 949.89 139.02 440.95 634.95 1047.18 356.17 1122.11 385.26 964.41 456.65 1016.16 585.56 1079.81 607.42
00005102 00000053 949.83 142.00 441.98 631.76 1047.16 357.47 1123.57 386.20 965.31 456.46 1015.91 584.92 1080.72 606.64
00005103 00000054 949.84 136.11 442.56 635.76 1046.07 357.93 1123.00 387.21 965.10 456.36 1015.00 583.97 1080.27 606.15
00005104 00000055 945.56 140.74 442.24 633.50 1041.58 360.05 1125.19 387.93 957.03 452.97 1014.66 583.22 1087.33 602.81
00005105 00000056 945.90 141.31 441.15 631.72 1042.04 360.14 1125.87 389.74 957.50 454.26 1014.67 582.62 1087.89 603.79
00005106 00000057 951.95 138.27 436.72 632.78 1028.06 358.93 1126.41 396.16 956.64 456.66 1010.55 581.76 1094.72 608.28
00005107 00000058 949.51 138.60 444.94 632.94 1046.16 357.25 1122.46 388.33 964.95 457.63 1017.30 582.70 1083.41 605.95
00005108 00000059 951.28 144.47 429.57 624.63 1028.98 356.58 1121.91 392.21 954.28 455.77 1011.84 580.18 1092.12 605.07
00005109 00000060 950.12 144.25 438.25 627.84 1046.22 357.48 1119.93 387.29 964.95 457.56 1018.93 583.37 1083.63 605.31
00005110 00000061 948.64 146.66 434.37 626.00 1045.22 356.99 1119.68 387.72 964.68 457.22 1018.09 582.83 1083.09 605.96
00005111 00000062 946.37 144.88 439.34 625.55 1045.51 356.28 1117.02 387.99 962.18 457.32 1018.69 581.19 1082.16 604.94
00005112 00000063 944.43 142.11 438.05 629.25 1044.83 356.54 1116.48 386.32 961.09 458.68 1018.41 582.33 1083.22 604.69
00005113 00000064 945.69 145.96 438.43 622.61 1043.26 357.40 1114.96 391.75 957.52 459.69 1019.01 578.20 1085.75 603.82
00005114 00000065 944.88 149.74 442.37 617.04 1041.93 358.42 1112.40 390.97 955.88 461.87 1020.03 579.11 1084.83 603.00
00005115 00000066 944.91 147.69 441.10 619.30 1041.55 359.83 1109.91 393.20 953.92 463.64 1020.81 579.02 1085.51 603.68
00005116 00000067 944.39 139.72 441.42 628.10 1043.10 361.83 1108.37 395.39 953.14 465.87 1021.10 579.96 1082.36 604.70
00005117 00000068 944.96 141.38 442.56 625.58 1043.28 361.63 1109.63 395.02 953.84 464.60 1021.74 578.57 1084.24 602.99
00005118 00000069 948.48 140.03 432.31 626.12 1025.25 363.22 1107.72 395.10 944.98 457.51 1015.81 577.07 1096.20 598.40
00005119 00000070 948.85 139.68 432.94 624.79 1026.78 363.54 1106.42 395.97 944.59 458.02 1018.17 575.33 1098.59 596.85
00005120 00000071 950.38 136.16 430.39 627.01 1027.55 363.66 1106.92 395.64 946.98 457.85 1019.49 574.12 1098.71 595.52
00005121 00000072 950.07 133.35 432.69 630.95 1027.96 363.31 1108.04 396.22 946.51 458.13 1018.87 574.02 1100.01 596.14
00005122 00000073 949.80 130.93 430.15 633.23 1026.18 363.23 1110.09 396.56 947.72 458.69 1017.46 574.56 1099.78 597.12
00005123 00000074 949.72 129.98 436.76 634.52 1026.95 363.41 1111.75 398.35 949.65 458.15 1017.64 573.83 1100.81 597.78
00005124 00000075 950.37 132.34 437.99 632.51 1025.86 362.48 1114.08 398.77 950.25 457.54 1016.39 573.71 1101.95 598.73
00005125 00000076 949.93 135.80 437.52 629.15 1026.75 363.27 1115.55 400.91 950.60 458.05 1015.95 573.64 1102.69 599.62
00005126 00000077 949.82 137.35 437.30 626.17 1027.39 362.94 1116.24 401.22 951.43 456.84 1014.73 572.87 1099.57 599.47
00005127 00000078 951.01 138.20 439.11 626.53 1027.31 363.96 1115.65 401.12 950.91 457.08 1015.64 573.67 1101.09 599.40
00005128 00000079 950.99 136.49 435.50 628.06 1027.83 362.77 1115.63 400.79 949.89 457.43 1016.24 572.12 1102.37 598.38
00005129 00000080 952.13 134.54 437.74 631.15 1027.26 364.22 1114.01 400.02 949.33 458.45 1018.23 574.58 1103.35 599.12
00005130 00000081 951.44 133.64 436.58 630.72 1026.53 363.15 1115.07 400.19 949.66 458.40 1017.00 573.06 1103.94 598.72
00005131 00000082 951.15 131.23 437.30 633.38 1026.91 361.07 1114.26 398.20 948.59 457.29 1017.08 572.65 1102.58 598.41
00005132 00000083 950.86 131.89 437.46 632.69 1027.43 361.24 1114.45 398.70 948.96 457.48 1017.19 572.56 1102.27 598.57
00005133 00000084 952.57 135.72 438.21 628.07 1026.00 360.82 1115.90 398.52 948.96 457.46 1016.45 572.26 1104.18 598.52
00005134 00000085 952.59 139.82 435.74 621.48 1027.22 360.22 1116.62 399.96 950.58 456.09 1017.45 569.07 1105.63 596.70
00005135 00000086 952.68 138.91 438.06 625.23 1026.93 360.51 1118.99 400.29 952.49 456.02 1016.82 570.79 1105.94 598.61
00005136 00000087 952.47 140.43 437.33 624.00 1028.27 360.27 1117.65 399.68 951.32 456.44 1017.43 571.46 1104.18 598.84
00005137 00000088 952.27 137.67 439.85 627.59 1028.21 360.31 1118.53 399.80 951.97 456.06 1016.62 571.79 1104.57 599.46
00005138 00000089 953.10 139.40 436.58 625.71 1028.11 360.93 1118.61 398.91 951.09 457.57 1016.16 573.36 1103.46 599.84
00005139 00000090 953.58 141.16 439.57 623.75 1029.73 360.88 1120.20 400.38 952.64 456.99 1017.49 572.46 1104.93 599.88
00005140 00000091 953.36 135.29 441.24 630.87 1030.27 361.31 1118.69 399.41 951.45 456.65 1018.06 573.38 1104.42 599.71
00005141 00000092 954.18 132.98 442.23 635.51 1031.41 360.94 1119.49 399.89 951.02 457.73 1019.14 575.23 1104.63 602.09
00005142 00000093 954.16 127.68 443.47 642.65 1033.46 363.25 1120.08 399.86 953.63 458.69 1021.23 577.26 1105.83 602.68
00005143 00000094 954.90 130.67 441.15 640.79 1035.56 363.67 1119.81 400.55 955.45 458.70 1023.50 577.74 1106.54 603.20
00005144 00000095 955.39 128.70 442.74 645.05 1036.79 363.79 1119.17 399.71 954.36 458.48 1025.06 579.64 1106.21 604.23
00005145 00000096 956.26 131.09 443.33 646.93 1036.57 366.56 1119.68 400.62 954.81 461.22 1025.87 584.65 1107.70 607.84
00005146 00000097 957.46 133.30 439.49 644.67 1037.12 365.07 1120.01 399.61 955.97 461.90 1026.59 583.86 1108.55 607.33
00005147 00000098 949.59 135.61 444.89 640.64 1043.00 364.04 1124.78 391.04 960.36 460.63 1030.26 584.19 1108.18 602.48
00005148 00000099 957.64 139.93 433.31 638.74 1035.67 366.36 1118.60 398.98 956.90 462.75 1026.58 585.03 1108.77 606.85
00005149 00000100 950.36 131.62 446.45 649.16 1043.19 366.80 1123.82 393.47 957.71 463.44 1030.02 587.60 1107.25 605.46
00005150 00000101 950.48 137.78 443.42 644.50 1043.82 366.46 1120.91 390.78 957.29 463.81 1033.19 590.10 1106.36 605.83
00005151 00000102 952.04 140.18 442.22 642.20 1040.63 368.97 1120.22 390.96 957.17 465.83 1033.23 593.09 1107.35 606.84
00005152 00000103 954.52 158.36 440.85 628.40 1051.19 370.84 1111.35 395.32 960.46 473.29 1037.96 595.20 1098.42 610.90
00005153 00000104 952.76 155.67 439.13 633.77 1050.59 371.40 1112.31 396.82 959.70 474.01 1037.02 596.52 1097.91 612.98
00005154 00000105 950.67 154.10 440.16 639.77 1049.89 375.56 1109.46 400.86 957.94 477.80 1038.18 598.09 1098.23 614.56
00005155 00000106 947.97 151.84 440.05 639.44 1035.35 375.86 1113.03 396.69 952.88 471.53 1030.22 598.41 1105.59 610.82
00005156 00000107 948.79 154.68 437.64 637.25 1035.89 378.50 1108.74 395.81 953.92 473.38 1034.02 600.91 1104.87 610.21
00005157 00000108 951.26 146.99 426.57 642.65 1034.39 382.47 1106.16 397.22 953.43 474.38 1034.39 600.99 1104.09 608.31
00005158 00000109 952.88 154.62 425.82 624.20 1030.83 388.10 1105.21 399.68 953.33 476.02 1031.89 598.26 1101.47 603.85
00005159 00000110 954.11 154.75 433.86 623.83 1044.21 393.03 1099.05 402.68 953.56 480.56 1041.53 602.89 1094.73 606.95
00005160 00000111 955.99 147.31 432.74 625.67 1046.12 396.17 1098.75 404.17 955.28 482.10 1043.35 601.11 1094.57 603.69
00005161 DELETE   956.21 144.73 427.41 620.56 1043.73 395.36 1098.82 403.38 954.50 480.35 1038.12 598.49 1089.04 601.49
00005162 00000113 957.96 150.40 423.35 611.81 1044.28 397.07 1096.59 404.47 955.17 481.78 1036.35 600.29 1083.29 602.84
00005163 00000114 958.22 148.81 417.55 612.69 1047.91 397.03 1096.34 403.19 957.35 483.21 1038.04 601.00 1081.82 602.67
00005164 00000115 960.03 146.17 418.59 613.14 1047.43 397.95 1097.39 405.35 958.77 484.28 1038.79 599.96 1082.93 602.47
00005165 00000116 959.76 152.90 426.34 612.12 1050.40 400.65 1100.64 406.91 960.95 487.94 1041.23 604.97 1082.17 606.21
00005166 00000117 959.52 154.79 424.77 612.54 1046.58 406.66 1098.38 407.03 959.90 491.69 1040.23 611.01 1080.40 607.47
00005167 00000118 958.18 151.59 428.30 617.38 1045.63 405.95 1099.78 406.05 958.65 490.59 1038.54 611.74 1079.47 608.11
00005168 00000119 959.49 160.90 418.71 617.89 1047.19 408.59 1096.92 407.81 959.24 491.33 1045.13 614.85 1088.20 609.80
00005169 00000120 958.59 163.57 405.15 624.52 1036.16 409.93 1103.56 407.30 960.34 491.11 1037.43 617.57 1095.67 611.59
00005170 00000121 950.78 156.06 408.58 628.87 1037.14 395.26 1091.19 392.21 950.25 495.33 1041.24 620.11 1090.18 612.70
00005171 00000122 957.19 145.46 408.48 648.03 1033.34 403.35 1094.03 398.81 951.10 487.13 1039.78 618.75 1096.04 610.66
00005172 00000123 955.75 146.39 407.96 643.52 1032.60 402.72 1094.17 398.30 949.97 487.17 1037.76 618.29 1094.23 610.32
00005173 00000124 948.54 161.22 413.74 624.18 1038.53 391.23 1091.80 389.76 948.78 489.40 1040.05 617.21 1089.54 611.09
00005174 00000125 953.77 151.44 411.12 640.55 1033.96 399.22 1091.18 396.52 946.87 484.63 1039.31 615.43 1095.15 608.61
00005175 00000126 946.87 147.89 416.06 634.99 1039.90 387.81 1088.65 389.23 945.93 486.31 1040.28 614.60 1084.14 610.83
00005176 00000127 946.48 140.17 417.50 640.60 1040.78 385.66 1088.25 390.06 946.22 484.48 1040.46 611.04 1083.89 609.76
00005177 00000128 950.33 157.17 410.87 623.91 1035.29 397.17 1091.32 397.93 945.93 480.26 1033.50 609.31 1085.47 605.33
00005178 00000129 947.15 151.54 417.42 630.41 1031.84 397.20 1090.09 397.36 941.40 479.27 1030.05 609.07 1083.70 604.80
00005179 00000130 943.11 147.07 425.25 635.46 1028.49 393.49 1088.07 396.27 938.42 479.61 1025.97 607.82 1079.61 605.57
00005180 00000131 940.98 141.58 418.98 644.47 1028.74 392.02 1085.06 395.37 937.08 480.43 1026.47 610.29 1076.59 608.13
00005181 00000132 935.22 142.35 419.36 643.48 1022.29 395.86 1080.05 393.56 931.31 478.73 1022.09 612.50 1072.00 605.77
00005182 00000133 927.22 148.52 424.51 630.32 1020.85 382.89 1066.50 392.73 923.29 480.96 1018.08 604.26 1058.31 607.67
00005183 00000134 925.32 142.28 424.89 639.89 1021.23 383.25 1063.64 391.97 920.55 483.15 1019.14 607.43 1056.37 609.27
00005184 00000135 923.16 140.34 420.88 640.26 1017.63 385.13 1058.98 393.80 919.23 484.00 1016.88 607.12 1054.06 609.52
00005185 00000136 920.73 140.68 424.99 639.74 1015.58 384.13 1057.59 393.76 917.68 484.43 1014.51 606.17 1053.16 609.38
00005186 00000137 921.17 145.52 421.43 633.62 1014.62 386.27 1057.65 394.28 917.74 485.56 1015.03 607.47 1053.00 609.20
00005187 00000138 917.92 145.05 424.83 634.49 1012.74 387.89 1056.71 396.59 915.00 484.70 1011.09 607.67 1049.55 610.14
00005188 00000139 918.28 148.83 421.05 628.58 1011.43 387.97 1056.43 396.54 915.29 484.05 1009.95 606.05 1049.70 608.42
00005189 00000140 918.16 149.97 423.12 627.71 1012.90 389.09 1056.65 398.28 915.14 483.84 1009.77 606.05 1048.85 608.97
00005190 00000141 918.43 149.89 423.26 628.22 1012.88 389.96 1057.01 397.70 915.30 483.41 1009.26 606.79 1048.73 608.51
00005191 00000142 917.99 148.59 423.84 628.66 1012.86 388.96 1055.94 397.64 914.84 483.40 1009.55 606.47 1047.82 609.07
00005192 00000143 917.92 146.27 420.70 631.52 1012.92 388.23 1055.95 397.14 914.58 482.81 1009.04 606.11 1047.35 608.83
00005193 00000144 917.86 144.67 420.48 632.09 1012.99 387.46 1055.72 397.12 914.46 482.75 1009.33 604.75 1047.41 608.15
00005194 00000145 917.43 140.46 421.47 637.31 1013.62 386.34 1055.24 397.69 913.51 482.29 1009.25 604.27 1046.07 609.11
00005195 00000146 916.30 149.24 419.62 626.45 1013.90 386.96 1055.18 396.52 915.99 481.89 1008.81 603.69 1046.47 606.77
00005196 00000147 915.99 144.34 422.60 633.26 1013.32 385.77 1053.45 396.61 913.52 482.55 1009.18 604.59 1045.26 608.84
00005197 00000148 913.88 152.65 421.17 624.38 1011.68 387.07 1052.72 397.13 913.29 483.57 1008.23 604.57 1046.14 607.84
00005198 00000149 914.20 150.37 422.83 628.67 1012.48 385.13 1053.09 397.21 913.02 484.01 1009.41 604.46 1047.17 609.25
00005199 00000150 914.82 152.65 421.71 626.37 1010.89 387.03 1052.70 398.53 913.03 485.42 1008.72 604.66 1047.74 609.09
00005200 00000151 915.94 150.67 420.92 628.89 1011.51 386.68 1052.87 397.67 914.31 485.18 1010.34 605.70 1048.44 609.90
00005201 00000152 918.09 162.74 417.89 613.29 1012.51 389.74 1054.97 398.47 917.97 485.28 1010.74 605.27 1049.99 607.53
00005202 00000153 921.95 150.40 420.22 626.94 1015.14 387.90 1058.82 398.02 919.10 483.31 1012.33 604.92 1051.08 608.93
00005203 00000154 924.70 147.33 418.20 627.62 1018.22 385.52 1060.21 396.55 921.35 482.11 1013.89 603.37 1051.23 608.37
00005204 00000155 922.36 152.34 420.18 624.51 1016.93 385.42 1059.27 396.75 920.12 484.46 1014.26 604.11 1052.46 608.95
00005205 DELETE   924.02 150.69 416.61 625.20 1016.57 388.76 1059.51 399.47 920.74 484.63 1013.62 604.11 1051.68 608.66
00005206 00000157 923.55 149.63 417.63 627.27 1016.73 388.20 1058.88 398.91 920.13 484.58 1014.06 604.68 1051.34 609.13
00005207 00000158 922.18 153.03 418.13 623.14 1014.23 390.14 1057.26 399.89 918.04 485.18 1012.48 604.88 1050.64 608.47
00005208 00000159 922.13 155.88 416.49 619.55 1012.69 393.98 1057.41 402.49 917.66 485.39 1009.84 605.51 1049.33 608.02
00005209 00000160 919.10 154.57 418.97 619.53 1010.48 396.36 1055.22 403.80 914.72 485.79 1007.91 605.63 1046.47 607.09
00005210 00000161 917.08 153.61 418.73 624.12 1010.16 393.22 1054.25 401.83 914.83 486.98 1008.28 606.81 1047.23 608.99
00005211 00000162 917.46 156.55 418.33 619.86 1011.64 394.21 1053.35 404.02 915.02 487.37 1008.06 606.13 1044.65 609.33
00005212 00000163 915.15 160.43 417.58 618.15 1010.90 392.35 1053.33 402.34 915.77 488.19 1008.31 606.78 1047.12 610.02
00005213 00000164 917.01 157.13 418.51 621.06 1010.17 395.81 1053.14 404.56 915.48 489.66 1008.39 609.10 1045.64 611.71
