Video ID: 	5k-1yI9nxPM
H: 	1080
W: 	1920
FPS: 	29.97002997002997

FRAME INDEX X0 Y0 W H [Landmarks (5 Points)]

00028125 00000000 845.23 198.47 405.51 582.41 889.34 427.31 1024.51 448.85 866.47 528.16 879.98 642.99 975.08 662.44
00028126 DELETE   847.48 181.66 407.67 584.52 890.00 412.91 1028.87 431.61 871.55 513.94 883.53 626.71 978.35 643.90
00028127 DELETE   864.57 172.67 398.30 577.70 898.38 395.78 1024.30 414.77 887.72 500.66 897.15 607.52 980.87 624.07
00028128 DELETE   876.63 157.84 393.16 585.41 909.51 387.15 1034.13 400.16 899.23 487.77 903.95 600.49 991.18 613.05
00028129 00000004 887.69 149.66 396.19 585.45 923.32 381.00 1054.22 392.71 917.31 477.78 915.66 593.34 1006.79 604.90
00028130 DELETE   893.95 149.66 399.56 584.85 929.70 380.93 1072.12 395.30 929.81 481.28 920.51 592.85 1021.90 606.35
00028131 00000006 893.23 169.90 404.02 572.30 934.02 384.97 1085.93 406.54 926.36 486.97 924.55 600.84 1036.70 620.40
00028132 00000007 890.62 175.45 405.58 576.01 938.64 400.40 1084.13 424.03 932.76 501.89 930.89 608.38 1034.10 628.12
00028133 00000008 888.35 196.92 409.81 573.61 938.16 410.49 1088.47 438.39 938.52 520.16 930.44 623.64 1039.25 646.55
00028134 DELETE   884.18 210.77 411.07 571.74 931.19 425.77 1087.85 452.67 937.86 535.89 929.62 639.56 1041.39 661.00
00028135 DELETE   878.57 217.42 416.71 581.79 924.49 435.54 1083.54 461.47 929.74 546.59 926.71 652.60 1042.60 672.82
00028136 00000011 874.53 222.50 411.44 583.84 920.58 444.04 1077.54 466.02 925.72 555.43 921.64 660.66 1037.00 677.66
00028137 DELETE   869.20 222.68 412.11 586.73 913.86 446.30 1059.24 468.76 917.06 567.26 912.52 657.38 1029.48 677.19
00028138 DELETE   863.32 227.02 410.11 582.54 903.99 448.63 1044.04 470.76 903.02 568.55 905.04 658.36 1016.83 677.61
00028139 00000014 858.64 225.66 405.35 580.48 897.85 448.80 1037.34 471.50 896.37 564.52 898.27 655.94 1006.98 675.65
00028140 00000015 855.18 225.11 405.40 576.59 894.36 448.22 1035.90 471.79 892.89 562.09 892.27 654.64 1001.88 674.97
00028141 00000016 854.55 224.71 402.61 571.37 892.37 448.45 1034.92 472.34 893.77 561.68 886.78 654.07 995.12 675.03
00028142 00000017 855.83 226.11 402.98 567.73 893.83 448.87 1036.44 473.25 897.84 561.66 886.69 651.78 991.63 673.31
00028143 00000018 858.22 227.45 403.33 566.41 896.57 450.19 1040.71 474.87 900.93 562.70 887.90 653.30 993.01 675.40
00028144 00000019 860.16 233.53 406.38 560.68 899.38 451.48 1044.72 478.48 902.66 567.51 890.26 654.23 1000.43 678.24
00028145 00000020 862.94 234.38 405.51 561.68 901.85 451.86 1047.74 478.74 904.64 570.86 892.82 656.97 1006.59 680.75
00028146 00000021 863.35 231.74 408.33 566.43 903.23 451.04 1050.23 477.44 907.04 570.71 895.24 657.76 1010.24 681.03
00028147 00000022 865.93 232.38 409.29 568.29 907.20 449.86 1055.51 475.52 913.06 570.84 901.71 659.67 1016.43 682.15
00028148 00000023 872.89 230.35 410.96 570.43 914.26 448.94 1062.29 471.31 919.18 567.32 910.14 659.67 1024.03 679.33
00028149 00000024 876.20 229.81 409.73 566.76 918.73 445.12 1078.53 473.42 922.83 560.07 915.70 660.98 1027.30 683.27
00028150 DELETE   881.93 218.85 415.20 564.75 928.02 434.48 1085.07 459.54 934.91 543.41 929.88 649.52 1039.53 668.87
00028151 DELETE   895.85 204.11 407.40 560.26 942.42 412.84 1092.49 433.18 952.64 523.79 941.54 626.44 1046.23 643.04
00028152 00000027 912.71 178.79 407.11 562.38 953.19 394.04 1101.84 412.40 959.26 501.99 950.59 606.14 1055.57 622.05
00028153 DELETE   925.73 162.75 404.08 558.56 970.17 378.16 1117.03 391.26 975.65 475.54 962.39 581.73 1072.76 594.33
00028154 DELETE   937.11 149.66 403.34 566.55 983.46 366.87 1135.91 379.04 992.98 461.42 972.04 573.86 1087.90 586.14
00028155 00000030 946.83 134.46 402.99 574.99 1001.06 352.52 1153.71 379.12 1002.28 444.24 983.97 558.40 1097.83 580.71
00028156 00000031 950.00 133.10 402.57 573.99 1007.42 351.08 1159.46 377.42 1008.56 439.48 988.58 555.92 1100.77 577.79
00028157 00000032 952.71 134.18 400.80 573.66 1009.32 349.86 1161.30 377.91 1011.00 440.53 989.88 555.42 1101.94 578.62
00028158 00000033 953.10 134.78 400.72 573.62 1007.83 350.95 1158.97 379.55 1007.52 442.51 988.33 556.04 1101.98 579.75
00028159 00000034 952.81 136.69 399.63 570.02 1004.33 351.91 1155.88 381.33 1003.15 445.55 985.74 557.00 1100.87 581.20
00028160 00000035 951.21 140.27 399.78 566.86 1001.20 354.65 1152.90 383.15 999.99 448.65 984.20 559.79 1100.55 583.25
00028161 00000036 947.60 142.02 401.76 568.08 1000.29 357.23 1152.37 387.66 999.87 451.85 981.98 561.62 1099.50 586.66
00028162 00000037 943.55 145.86 403.24 569.35 999.31 363.56 1150.22 393.86 997.51 457.19 980.13 567.55 1095.08 592.32
00028163 00000038 941.86 153.02 399.68 567.61 995.95 368.59 1146.96 398.00 992.98 462.89 977.72 573.77 1092.07 597.59
00028164 00000039 945.94 155.64 396.06 559.55 992.92 374.68 1135.81 397.42 989.11 473.13 973.13 573.78 1087.78 594.34
00028165 00000040 940.64 160.70 396.58 552.09 989.34 375.96 1130.27 401.28 981.70 473.52 968.07 570.09 1083.92 592.60
00028166 00000041 936.19 162.54 399.39 550.31 985.54 376.83 1126.26 402.19 977.38 472.29 964.42 569.45 1080.87 591.92
00028167 00000042 933.10 163.52 396.27 549.59 979.80 377.66 1119.93 403.27 971.09 474.41 960.61 570.07 1076.50 592.64
00028168 00000043 928.81 166.19 396.26 549.05 973.93 380.18 1114.32 406.83 963.71 477.33 954.63 571.87 1071.23 595.11
00028169 00000044 926.27 168.74 394.91 548.19 968.05 382.57 1108.35 409.81 958.86 481.50 949.92 575.68 1067.05 599.08
00028170 00000045 922.70 169.26 396.00 552.86 963.05 385.88 1105.19 412.82 957.03 487.05 947.07 581.54 1062.71 604.57
00028171 00000046 916.90 176.89 397.95 552.04 957.58 387.55 1102.40 415.50 953.09 493.17 944.42 589.11 1056.30 612.87
00028172 00000047 907.01 188.84 401.31 547.69 950.65 395.21 1096.45 424.94 946.69 503.32 938.27 598.86 1045.61 623.48
00028173 DELETE   897.70 201.58 405.02 554.08 947.01 410.51 1092.53 441.99 943.26 519.92 936.66 612.99 1042.91 638.70
00028174 DELETE   893.74 217.08 409.18 576.49 934.56 433.13 1085.03 457.10 925.69 545.59 926.75 655.60 1034.11 677.10
00028175 00000050 887.41 241.72 412.48 571.27 929.98 447.53 1082.95 476.54 925.11 562.14 923.72 671.71 1028.42 697.41
00028176 00000051 884.30 248.08 405.25 569.72 925.09 454.53 1078.31 490.00 922.55 577.32 924.66 675.76 1031.53 706.51
00028177 00000052 879.30 246.74 410.22 569.17 927.96 459.52 1073.48 494.73 918.16 579.61 923.15 671.01 1025.70 700.21
00028178 00000053 883.95 242.13 403.56 564.05 921.72 456.16 1061.92 484.65 918.48 575.30 916.17 666.88 1019.35 690.44
00028179 00000054 878.15 239.28 405.44 567.51 919.53 452.62 1059.82 481.33 914.80 570.40 913.11 662.13 1020.62 685.87
00028180 00000055 874.89 239.68 407.30 563.92 916.34 450.72 1057.97 477.62 912.35 567.58 909.62 659.05 1020.13 681.59
00028181 00000056 871.71 234.86 407.77 563.30 913.21 448.91 1055.90 476.16 910.57 565.00 904.77 654.62 1019.09 677.79
00028182 00000057 869.90 234.94 406.19 555.42 913.04 446.25 1056.84 475.40 911.90 563.00 901.70 648.03 1021.05 673.07
00028183 00000058 869.07 234.80 406.73 552.42 912.43 444.98 1057.04 475.70 911.04 562.71 900.44 645.33 1021.57 671.58
00028184 00000059 868.30 232.30 406.77 555.14 911.47 444.93 1056.32 475.94 910.36 562.34 898.54 645.00 1020.06 671.69
00028185 00000060 867.15 231.62 405.78 555.43 910.06 445.15 1055.32 476.08 909.15 561.58 895.78 644.73 1016.96 671.52
00028186 00000061 866.56 231.23 405.41 558.08 909.57 444.47 1054.96 474.98 909.15 560.89 896.42 645.26 1016.48 671.75
00028187 00000062 867.63 230.55 405.80 566.10 909.18 446.52 1052.83 473.80 908.84 562.05 899.84 651.70 1014.98 675.46
00028188 00000063 867.35 229.15 406.68 570.24 910.08 446.47 1053.08 473.53 908.66 561.10 901.20 651.99 1016.36 675.49
00028189 00000064 867.09 228.88 404.48 571.85 910.01 447.16 1053.42 472.43 907.93 559.57 901.13 653.28 1014.75 675.46
00028190 00000065 865.96 229.36 403.94 569.79 908.87 446.85 1052.89 472.52 907.12 559.60 899.11 652.45 1014.25 674.94
00028191 00000066 864.72 229.11 405.04 567.54 907.22 447.18 1052.99 474.24 907.12 560.77 896.19 651.04 1014.17 674.78
00028192 00000067 862.38 228.37 404.93 563.08 905.20 447.00 1052.49 475.16 906.61 560.04 891.76 647.51 1010.59 672.40
00028193 00000068 861.95 227.49 403.51 562.99 905.67 447.00 1053.17 475.84 906.92 558.72 890.64 646.15 1009.14 671.67
00028194 00000069 861.91 228.18 403.39 561.75 906.49 447.06 1052.37 475.97 907.45 557.54 891.40 645.29 1005.90 670.92
00028195 00000070 861.92 228.17 403.81 561.37 906.57 447.16 1052.05 475.11 907.40 556.50 891.38 645.61 1005.73 670.51
00028196 00000071 862.40 227.90 403.66 561.77 906.35 446.90 1051.37 473.92 907.03 557.03 892.64 646.62 1006.95 670.76
00028197 00000072 863.32 226.88 402.70 564.03 907.53 446.39 1051.83 472.54 908.37 556.33 895.04 647.23 1008.23 670.63
00028198 00000073 864.28 228.26 402.64 564.37 908.02 445.95 1052.48 471.09 909.31 556.13 896.61 648.77 1008.51 671.39
00028199 00000074 864.65 226.70 403.02 568.44 909.53 443.55 1053.73 470.54 909.35 556.82 898.01 648.18 1012.40 672.26
00028200 00000075 863.35 225.44 404.24 567.70 908.66 443.18 1053.74 471.01 909.11 557.28 896.37 646.51 1013.13 671.26
00028201 00000076 863.66 224.06 404.67 570.69 909.00 443.13 1053.96 470.46 909.27 556.83 897.12 646.90 1013.71 671.27
00028202 00000077 866.04 224.80 405.23 576.51 911.49 443.61 1053.92 468.45 910.65 555.64 902.78 651.01 1014.59 673.14
00028203 00000078 866.82 225.61 404.52 579.71 914.36 443.16 1054.96 466.84 911.55 552.31 906.12 651.91 1013.35 673.05
00028204 00000079 867.28 222.36 404.53 579.47 913.63 442.40 1056.26 465.80 912.56 552.65 905.52 650.72 1017.32 671.68
00028205 00000080 866.51 223.25 404.33 569.78 912.41 440.04 1058.34 466.76 913.07 553.23 901.28 645.11 1020.61 668.80
00028206 00000081 866.09 221.42 404.03 569.28 912.42 440.06 1058.93 467.40 913.22 552.14 900.05 643.46 1020.74 667.61
00028207 00000082 865.93 220.87 404.86 568.59 912.23 440.83 1059.23 467.11 914.68 551.85 900.31 644.07 1020.59 667.36
00028208 00000083 865.63 221.17 405.67 566.57 912.82 441.51 1058.33 467.44 914.84 550.93 900.28 641.43 1018.33 664.41
00028209 00000084 865.49 221.01 405.26 566.07 913.02 441.37 1058.44 467.51 914.50 550.50 900.17 640.84 1017.64 663.97
00028210 00000085 866.06 220.58 404.75 570.55 913.17 442.65 1056.69 466.97 914.94 550.92 901.83 645.68 1012.95 667.57
00028211 00000086 866.32 220.14 404.01 573.80 913.57 443.24 1055.31 466.36 915.45 550.30 903.48 649.34 1009.69 670.40
00028212 00000087 861.57 222.46 405.32 572.39 912.39 443.91 1067.22 471.09 910.84 544.83 900.28 653.93 1010.60 676.50
00028213 00000088 866.64 219.31 407.75 574.88 913.43 441.24 1060.05 464.60 917.85 551.25 903.77 648.38 1019.01 669.55
00028214 00000089 866.57 219.37 408.33 572.78 912.95 440.63 1060.81 463.40 918.40 551.42 903.55 647.24 1023.48 667.83
00028215 00000090 866.05 218.17 411.15 577.00 913.07 440.22 1063.17 462.01 920.62 552.02 906.64 647.29 1031.96 666.78
00028216 00000091 866.07 219.40 411.10 576.21 913.63 440.68 1064.43 461.19 922.11 551.16 908.51 647.23 1034.52 665.58
00028217 00000092 865.01 220.05 410.14 571.01 912.79 440.50 1063.02 461.64 920.41 549.79 906.19 644.43 1031.24 663.27
00028218 00000093 861.13 222.36 408.97 566.01 915.71 439.18 1070.02 470.43 915.36 543.39 903.93 642.42 1022.01 667.68
00028219 00000094 862.12 221.81 406.95 563.29 916.26 437.32 1070.28 470.46 915.98 541.53 903.79 639.72 1020.30 666.74
00028220 00000095 862.56 223.92 405.64 563.17 916.10 439.97 1069.94 471.37 915.57 543.06 902.80 642.80 1019.00 668.36
00028221 00000096 863.35 222.59 405.02 564.87 916.02 440.65 1071.31 471.45 915.83 543.93 903.08 645.35 1018.81 670.55
00028222 00000097 863.58 222.75 406.72 564.98 915.67 439.85 1071.33 469.95 915.61 543.04 903.94 645.75 1019.42 670.39
00028223 00000098 864.35 221.05 406.97 568.38 915.73 440.23 1071.24 469.22 915.73 543.94 905.72 647.55 1021.01 671.22
00028224 00000099 864.70 225.24 403.28 565.86 914.19 445.93 1066.19 472.41 914.18 548.50 903.84 650.59 1019.17 672.10
00028225 00000100 862.47 225.60 404.24 567.50 913.28 450.21 1065.60 477.16 912.01 548.65 902.81 652.31 1017.84 674.02
00028226 00000101 862.29 226.63 404.24 568.22 912.92 448.72 1065.11 476.82 910.55 551.13 901.83 653.95 1015.59 676.71
00028227 00000102 867.18 225.09 404.44 569.26 910.28 446.84 1054.54 470.23 912.82 560.20 902.26 651.82 1016.65 672.80
00028228 00000103 866.59 226.06 406.22 569.03 909.36 447.92 1054.63 470.76 912.96 561.36 901.23 652.81 1017.02 673.32
00028229 00000104 866.61 224.69 405.90 571.11 909.46 446.88 1055.07 469.74 913.14 560.59 901.51 652.66 1017.90 673.19
00028230 00000105 866.59 224.96 406.78 571.64 910.12 446.11 1055.24 468.35 913.24 558.76 902.47 652.09 1019.07 672.04
00028231 00000106 866.60 224.10 407.25 571.87 910.40 445.13 1056.01 466.94 913.58 556.72 902.34 651.24 1019.59 670.91
00028232 00000107 865.86 223.45 407.65 572.82 910.55 444.06 1056.63 466.45 913.50 555.87 902.02 650.04 1020.84 670.19
00028233 00000108 865.18 221.83 408.81 573.92 910.82 444.21 1056.80 466.42 913.40 554.91 902.13 648.44 1020.90 668.53
00028234 00000109 864.79 222.66 408.74 567.84 911.66 442.40 1057.77 467.51 912.22 554.52 900.90 643.19 1024.20 665.45
00028235 00000110 864.33 221.96 408.05 563.58 911.25 442.36 1057.47 468.58 911.33 554.79 899.68 641.20 1023.89 664.23
00028236 00000111 863.81 222.95 408.86 561.70 910.80 442.23 1057.24 468.26 910.83 554.21 899.20 640.89 1023.79 663.74
00028237 00000112 863.77 223.31 408.70 560.16 910.66 442.02 1057.00 468.49 910.99 554.64 899.07 640.31 1023.38 663.50
00028238 00000113 864.02 223.56 407.82 559.27 910.46 442.19 1056.65 468.38 910.73 554.37 898.96 640.54 1022.60 663.50
00028239 00000114 864.19 221.95 408.12 561.37 910.48 442.78 1056.42 468.10 911.59 553.70 899.26 641.23 1022.85 663.51
00028240 00000115 864.68 222.09 406.72 562.41 910.03 442.40 1056.72 467.24 912.01 554.25 899.25 643.25 1022.94 665.23
00028241 00000116 864.75 221.66 407.81 566.66 910.06 442.53 1056.09 466.30 911.54 553.21 899.79 644.54 1022.30 665.68
00028242 00000117 866.11 221.55 409.25 573.97 911.93 444.13 1057.80 464.83 915.12 553.47 905.01 650.39 1024.12 669.05
00028243 00000118 866.94 220.40 408.34 581.15 914.23 444.71 1059.96 464.26 917.53 552.83 910.43 651.99 1026.64 669.50
00028244 00000119 864.28 225.32 413.30 579.75 917.38 443.68 1069.65 466.48 917.26 546.37 913.34 653.79 1028.04 671.42
CROP_BBOX: 571 0 1663 1069
