Video ID: 	H24b8ypFAtA
H: 	1080
W: 	1920
FPS: 	25.0

FRAME INDEX X0 Y0 W H [Landmarks (5 Points)]

00002887 00000000 457.04 142.50 435.29 625.54 588.63 384.38 797.49 386.95 707.75 521.72 616.37 621.02 771.54 622.67
00002888 00000001 459.96 151.70 437.07 621.58 589.86 387.72 799.14 391.48 706.47 527.39 615.48 625.54 773.79 628.33
00002889 00000002 464.25 151.25 437.47 625.59 591.76 389.64 799.12 394.49 703.72 531.54 613.00 627.93 773.40 631.72
00002890 00000003 468.52 150.77 438.50 624.20 596.97 388.80 802.79 396.58 705.65 527.57 614.70 626.05 773.42 632.14
00002891 DELETE   474.26 147.43 440.15 628.28 604.36 388.38 808.53 395.10 712.22 526.54 622.92 627.06 781.39 631.72
00002892 DELETE   477.82 142.62 440.77 635.08 613.13 388.47 815.69 393.12 723.26 529.78 631.42 626.43 793.77 628.88
00002893 00000006 482.19 138.80 440.19 639.88 619.88 385.43 821.32 391.41 726.85 527.39 636.33 626.52 796.45 629.82
00002894 00000007 482.96 137.83 440.07 638.37 620.51 385.55 821.89 392.66 726.34 527.13 633.90 623.35 796.93 627.65
00002895 00000008 482.58 136.06 440.63 634.71 616.04 384.62 819.22 394.59 722.16 522.98 627.63 617.32 794.44 624.19
00002896 00000009 480.93 136.76 439.97 630.52 610.41 380.48 814.31 392.46 716.02 516.51 622.16 613.81 785.80 622.35
00002897 00000010 477.93 130.52 442.62 633.51 609.05 371.84 812.44 387.32 712.06 511.44 618.46 608.91 774.88 620.47
00002898 00000011 475.95 124.83 444.61 636.14 607.51 363.56 814.23 382.34 712.02 507.22 615.23 602.44 772.40 616.74
00002899 00000012 476.52 122.88 444.82 635.22 608.91 359.91 815.91 377.77 716.34 504.40 616.95 598.63 775.71 612.02
00002900 00000013 477.37 119.73 442.96 636.96 612.30 354.35 817.06 372.76 718.80 499.31 621.71 594.34 777.58 607.82
00002901 00000014 476.44 116.38 443.96 639.57 615.57 349.43 817.12 369.02 721.02 490.08 623.38 588.26 776.74 602.55
00002902 00000015 479.30 113.53 443.70 638.85 620.50 346.05 821.78 368.75 723.26 485.13 624.43 581.83 778.62 598.57
00002903 00000016 484.36 110.54 441.13 631.33 616.32 339.59 822.23 362.28 715.48 480.90 621.26 575.63 778.02 592.77
00002904 00000017 486.61 99.95 438.26 630.95 623.22 334.34 820.01 353.96 714.03 467.87 626.06 568.23 781.39 584.16
00002905 00000018 487.97 89.41 441.61 638.56 625.90 328.48 821.24 349.92 716.45 458.25 629.05 562.77 781.60 579.92
00002906 00000019 490.86 83.70 444.16 646.82 631.65 322.06 824.36 345.76 722.36 452.19 634.50 558.42 785.44 576.71
00002907 00000020 496.19 86.68 447.07 634.14 634.04 321.48 829.24 347.26 727.16 449.60 632.53 546.79 777.05 569.35
00002908 00000021 500.09 87.64 446.90 629.76 637.27 318.69 833.25 345.63 728.80 447.96 632.56 543.06 780.48 566.62
00002909 00000022 505.02 86.99 446.33 624.91 639.25 318.05 839.03 345.61 730.53 446.90 630.22 539.84 787.02 563.51
00002910 00000023 507.53 88.61 447.08 627.55 642.88 316.51 841.44 344.69 733.15 446.74 636.07 540.81 791.73 565.07
00002911 00000024 506.54 84.74 448.59 646.06 647.24 315.36 841.49 346.12 735.04 448.19 632.36 543.15 792.88 569.44
00002912 00000025 509.96 87.80 447.59 638.61 647.88 315.58 844.16 346.21 735.97 447.90 632.54 542.86 795.48 569.00
00002913 00000026 512.45 89.08 447.61 627.84 646.50 316.22 846.57 346.98 735.92 446.93 632.15 539.77 797.75 565.83
00002914 00000027 512.87 88.82 447.92 623.65 646.19 316.28 847.16 347.12 735.41 446.75 632.51 538.17 798.34 564.18
00002915 00000028 511.38 88.17 447.89 626.79 644.97 317.39 845.08 347.80 734.46 448.97 630.89 539.15 796.41 564.85
00002916 00000029 508.18 87.24 448.88 635.36 644.12 318.56 844.44 348.67 734.81 450.36 630.03 541.82 796.91 567.32
00002917 00000030 505.56 87.58 449.85 638.99 643.64 319.43 844.00 349.48 735.49 452.27 630.79 543.87 796.50 569.50
00002918 00000031 505.47 88.96 450.09 637.27 643.78 320.15 845.76 350.61 735.94 453.61 631.33 544.78 797.81 570.71
00002919 00000032 505.76 90.07 449.76 636.46 645.77 320.77 848.57 351.68 740.12 454.87 632.53 545.85 800.17 572.17
00002920 00000033 506.76 90.51 449.07 635.45 648.02 319.97 852.09 352.03 744.48 456.54 634.75 546.54 802.38 573.93
00002921 00000034 507.38 90.63 448.35 636.59 650.45 320.18 856.72 353.23 749.63 457.07 636.83 548.61 805.23 576.83
00002922 00000035 508.67 90.58 446.39 641.47 654.30 321.01 859.56 354.63 755.82 458.44 638.98 549.77 808.45 578.61
00002923 00000036 511.93 92.90 443.46 637.83 659.12 321.79 863.07 355.81 761.43 460.92 643.78 552.33 811.05 581.62
00002924 00000037 514.24 93.03 441.60 636.61 662.31 321.17 865.73 355.59 765.24 461.74 646.24 553.06 813.07 582.82
00002925 00000038 514.35 92.82 441.56 640.21 665.64 322.68 866.58 354.93 771.01 461.48 650.43 554.62 817.72 582.47
00002926 00000039 519.00 93.52 440.45 637.47 667.81 323.16 867.91 354.15 772.71 460.13 654.12 553.50 821.47 580.33
00002927 00000040 522.85 91.59 441.48 638.75 671.20 322.28 870.77 354.11 774.93 456.82 655.35 551.53 826.59 578.90
00002928 00000041 526.58 88.69 442.40 639.40 676.42 320.31 873.99 353.53 778.25 456.33 658.39 549.12 829.43 577.62
00002929 00000042 529.70 87.95 442.52 640.18 679.96 319.67 876.76 353.49 781.11 456.63 661.37 549.58 832.04 578.40
00002930 00000043 531.34 86.68 444.40 641.48 681.67 319.73 879.64 353.92 782.78 455.16 664.18 549.97 834.24 578.95
00002931 00000044 532.68 87.00 445.94 643.78 682.27 320.04 881.20 355.12 781.55 456.14 664.90 551.06 834.97 580.64
00002932 00000045 532.06 88.17 446.08 644.19 682.07 321.15 880.69 357.62 780.66 459.03 664.53 552.41 833.87 583.04
00002933 00000046 531.37 90.13 445.87 640.54 679.42 322.22 880.45 358.53 778.24 460.60 661.50 552.93 832.69 583.50
00002934 00000047 531.37 92.78 441.97 633.41 676.24 323.90 878.85 359.28 776.42 460.80 659.61 553.00 830.87 583.03
00002935 00000048 528.43 99.10 440.21 626.16 671.26 324.00 875.87 359.18 771.88 460.51 654.57 552.57 826.49 582.73
00002936 00000049 525.71 102.61 440.58 625.60 669.06 326.04 871.41 360.88 767.20 464.59 650.81 553.47 820.64 583.67
00002937 00000050 520.66 112.17 446.30 619.81 662.86 331.22 867.80 364.82 759.44 470.47 644.92 557.52 815.98 586.99
00002938 DELETE   517.07 117.21 451.35 622.12 660.44 339.03 863.62 372.98 751.63 476.95 641.41 564.86 805.00 595.04
00002939 00000052 513.69 123.82 453.40 628.77 657.35 348.14 858.29 380.62 746.80 488.40 639.94 575.76 798.28 605.24
00002940 00000053 521.10 131.65 451.66 637.78 664.26 357.07 861.09 398.50 744.02 511.24 643.75 587.83 785.67 623.84
00002941 00000054 519.28 139.91 450.81 639.35 663.08 368.22 855.12 404.72 748.53 522.67 648.63 606.20 783.31 637.43
00002942 DELETE   519.77 149.36 449.55 634.47 661.55 379.38 856.27 414.37 748.39 529.28 647.69 613.63 789.48 643.88
00002943 00000056 520.28 156.66 451.19 628.71 662.32 381.95 858.71 417.39 749.35 532.83 647.95 614.38 793.03 645.08
00002944 00000057 523.36 157.97 450.30 629.06 662.76 382.12 859.86 417.36 748.79 534.69 647.35 614.74 797.28 645.30
00002945 00000058 524.56 157.56 449.84 630.43 665.56 381.94 861.38 418.94 749.80 534.23 646.63 612.36 798.24 644.32
00002946 00000059 528.34 153.57 446.80 628.46 669.30 379.23 862.72 415.32 753.13 531.35 652.37 611.49 797.53 642.54
00002947 00000060 528.55 146.67 447.19 628.61 669.44 373.78 865.97 411.10 757.21 523.65 654.64 606.01 799.16 637.68
00002948 00000061 532.13 143.25 444.50 624.40 671.43 366.87 867.96 403.77 759.62 516.09 658.54 601.34 801.76 632.43
00002949 00000062 528.97 136.72 447.41 636.79 675.94 358.53 869.68 396.56 764.50 511.47 660.05 597.19 801.23 629.01
00002950 00000063 527.42 127.52 450.37 645.58 676.91 353.09 869.79 389.44 766.34 506.19 661.30 593.16 799.34 623.50
00002951 00000064 526.02 124.99 447.91 642.41 675.21 346.32 870.63 381.47 768.00 500.21 660.14 588.82 798.64 618.24
00002952 00000065 526.26 130.13 444.49 629.02 672.23 341.07 872.36 375.79 765.27 491.09 659.39 583.85 799.81 612.79
00002953 00000066 525.64 125.88 444.07 629.83 670.34 339.87 869.23 373.35 763.12 486.76 658.77 579.43 796.58 607.34
00002954 00000067 525.57 126.26 440.77 625.43 670.42 342.17 865.92 375.63 761.69 485.82 658.67 576.62 794.41 604.65
00002955 00000068 524.48 129.33 440.29 622.41 669.35 340.88 864.45 375.53 759.49 484.34 657.42 575.76 792.37 604.68
00002956 00000069 522.27 127.51 441.34 627.32 669.15 342.63 862.47 375.70 759.48 484.73 657.93 577.59 792.19 605.50
00002957 00000070 522.32 120.89 442.46 637.64 667.75 341.12 863.63 373.41 759.87 484.95 657.38 579.34 793.65 606.54
00002958 00000071 522.66 121.51 442.85 633.90 665.23 337.68 864.14 370.85 757.57 483.38 655.62 574.70 795.38 602.53
00002959 00000072 522.64 123.15 443.76 631.79 662.41 336.47 863.22 370.48 754.77 481.78 651.80 573.17 795.30 601.65
00002960 00000073 521.75 123.48 445.73 634.46 659.21 336.27 859.73 370.24 749.94 481.43 647.11 572.65 793.87 601.19
00002961 00000074 518.08 118.72 445.38 625.78 654.70 339.77 850.35 373.68 738.72 478.34 638.27 569.58 786.72 600.25
00002962 00000075 516.61 123.07 446.68 623.49 651.81 341.49 846.33 375.36 732.75 482.55 637.11 572.80 780.85 603.54
00002963 00000076 518.40 129.98 447.08 627.55 649.45 348.58 844.13 379.23 731.71 491.49 640.10 583.05 771.71 609.48
00002964 00000077 514.84 132.77 447.57 633.29 648.65 354.28 841.43 386.65 727.21 499.88 634.46 592.63 764.60 620.61
00002965 00000078 515.70 140.92 447.01 632.07 646.77 358.80 841.10 395.79 722.43 508.27 626.62 594.22 767.34 626.07
00002966 00000079 512.80 148.70 452.77 624.49 644.33 368.57 842.15 407.82 722.31 517.69 626.41 598.52 775.00 632.07
00002967 00000080 512.51 152.98 453.54 625.46 645.46 377.86 842.15 416.87 722.24 525.69 627.05 603.93 777.29 637.13
00002968 00000081 513.44 158.98 453.62 626.53 646.02 379.54 843.62 419.50 721.52 531.02 626.61 607.68 779.06 641.78
00002969 00000082 514.40 160.51 451.63 629.50 645.82 381.35 843.15 421.04 720.58 532.77 624.81 610.09 781.42 643.94
00002970 00000083 517.08 162.60 450.64 623.36 646.01 381.45 844.90 421.57 720.91 531.62 624.58 608.23 782.41 642.44
00002971 00000084 519.18 158.51 449.46 623.38 648.62 378.82 846.96 419.74 723.63 526.36 625.62 603.49 784.29 638.24
00002972 00000085 521.17 152.48 448.32 622.25 650.68 373.94 847.62 414.79 725.74 521.16 629.90 598.96 784.57 633.61
00002973 00000086 521.89 149.87 449.38 618.71 653.17 366.94 851.03 408.54 728.18 515.27 632.70 593.22 783.22 628.40
00002974 00000087 521.71 144.91 449.26 621.84 653.09 360.79 851.97 403.49 729.40 509.28 631.58 588.11 784.32 624.16
00002975 00000088 523.05 138.04 447.33 629.32 653.43 355.83 853.29 396.73 731.47 503.67 632.17 586.74 787.45 621.34
00002976 00000089 520.33 132.81 448.47 636.28 653.27 351.50 853.75 392.85 733.13 498.77 629.57 583.46 785.79 618.36
00002977 00000090 519.58 130.92 449.13 635.88 652.92 347.12 852.86 389.94 731.03 492.44 628.76 578.68 785.80 614.73
00002978 00000091 519.60 132.93 449.98 628.26 650.60 345.46 851.48 386.41 728.99 488.91 629.24 576.18 786.58 610.76
00002979 00000092 518.67 132.67 449.89 624.96 650.40 344.29 852.01 383.17 731.21 485.14 631.20 573.50 788.45 606.26
00002980 00000093 519.24 130.32 446.55 627.89 650.42 342.21 850.86 379.90 731.84 482.40 631.59 572.77 787.88 604.62
00002981 00000094 513.92 124.97 450.04 630.87 647.95 340.47 847.66 377.16 728.52 479.07 626.26 570.78 787.84 603.21
00002982 00000095 514.88 119.93 449.19 628.82 645.43 338.49 847.06 373.96 726.23 475.70 625.18 568.55 786.48 599.88
00002983 00000096 513.00 119.60 449.83 628.96 642.81 336.65 843.54 372.18 723.32 474.46 623.70 565.71 786.07 596.96
00002984 00000097 510.37 122.61 451.34 623.11 641.62 333.60 842.18 369.09 722.94 472.11 624.16 563.21 785.33 594.40
00002985 00000098 509.70 123.35 453.18 619.76 642.24 332.70 842.44 368.21 723.34 471.61 624.95 562.34 782.09 593.60
00002986 00000099 510.36 122.17 452.34 618.78 641.87 332.23 842.07 366.77 723.76 471.74 626.30 561.61 781.73 592.12
00002987 00000100 512.20 123.44 450.15 616.05 644.03 332.74 840.38 366.33 723.74 472.66 629.70 562.04 778.60 591.93
00002988 00000101 512.69 123.98 449.75 615.98 645.53 333.56 840.09 366.29 724.82 472.88 632.77 563.95 776.77 593.29
00002989 00000102 512.81 123.76 449.69 617.46 645.48 334.87 840.04 366.52 725.01 472.41 632.48 566.01 775.77 594.54
00002990 00000103 512.52 121.91 449.67 620.89 645.50 334.88 840.39 366.12 726.14 470.13 633.14 566.81 776.41 595.01
00002991 00000104 512.55 120.00 449.89 623.70 645.39 334.37 841.35 366.28 726.24 469.42 631.58 566.07 777.60 594.80
00002992 00000105 513.25 116.25 449.03 625.29 643.85 332.13 843.64 365.14 725.89 468.33 630.01 562.86 782.90 592.16
00002993 00000106 512.16 115.94 449.94 627.32 643.18 330.09 843.82 364.08 724.92 466.82 628.29 561.25 785.03 591.25
00002994 00000107 512.94 114.55 449.38 628.44 642.88 329.69 843.37 363.85 724.54 465.96 628.37 560.60 785.26 590.64
00002995 00000108 511.18 112.31 449.52 630.54 642.07 328.50 842.39 362.79 723.69 463.81 626.88 558.95 783.89 589.09
00002996 00000109 510.85 107.64 447.52 633.59 641.25 326.77 840.19 360.70 722.59 462.16 626.20 557.11 782.49 586.80
00002997 00000110 509.88 99.35 446.96 643.27 641.08 321.76 837.58 356.75 720.31 457.73 623.91 554.39 779.48 584.76
00002998 00000111 509.85 99.85 446.46 639.85 639.53 319.29 836.53 353.77 718.55 455.49 621.90 553.00 777.72 582.94
00002999 00000112 507.89 98.85 449.31 642.90 638.67 318.55 835.42 352.58 717.96 454.30 620.87 552.67 776.13 582.28
00003000 00000113 508.88 98.75 448.59 641.82 638.44 317.88 835.02 351.61 717.66 452.84 620.73 552.24 774.78 581.61
00003001 00000114 509.41 97.96 449.10 636.83 639.16 317.04 835.65 350.39 718.07 452.20 621.46 549.15 775.69 578.19
00003002 00000115 512.19 94.81 447.49 629.81 640.06 315.54 837.13 350.12 717.56 449.12 618.51 541.56 777.16 571.25
00003003 00000116 512.88 95.09 447.18 626.09 640.79 315.22 835.38 348.84 717.19 448.05 622.58 539.25 776.64 568.17
00003004 00000117 513.11 94.90 448.80 623.51 638.73 314.32 836.31 347.79 715.71 444.98 621.12 539.38 776.55 568.01
00003005 00000118 512.90 94.38 449.00 626.82 636.75 311.92 833.17 344.27 712.46 444.33 622.10 539.59 773.91 567.41
00003006 00000119 511.22 95.08 447.42 632.55 634.35 310.84 829.50 341.71 708.98 443.43 620.92 543.71 770.63 570.44
00003007 00000120 505.37 96.09 449.92 642.41 629.28 308.24 827.01 340.48 703.86 440.59 610.19 546.05 767.60 573.79
00003008 00000121 496.72 95.15 455.34 651.71 626.20 305.98 821.26 339.46 700.26 437.39 605.25 545.60 760.83 574.53
00003009 00000122 497.97 102.03 451.67 649.93 623.68 301.69 825.70 337.68 696.12 432.02 602.55 542.42 768.05 570.02
00003010 00000123 495.09 100.89 451.15 651.11 620.02 300.76 823.66 337.41 692.83 431.08 596.80 539.60 766.94 567.91
00003011 00000124 494.27 102.24 449.57 650.23 618.28 300.85 821.51 336.24 691.15 431.63 593.82 538.74 766.13 566.11
00003012 00000125 493.97 103.88 447.91 650.28 617.42 301.38 820.44 336.75 690.34 433.55 592.86 539.69 764.81 567.07
00003013 00000126 492.77 105.17 448.04 650.27 616.04 303.22 819.02 338.06 687.86 434.98 591.45 540.73 763.51 567.77
00003014 00000127 492.16 102.71 448.20 648.54 613.88 306.30 817.95 338.96 686.40 437.77 592.57 542.81 762.98 568.20
00003015 00000128 491.79 103.15 449.19 641.87 614.70 308.68 817.68 342.22 687.91 441.89 597.50 541.97 763.85 567.89
00003016 00000129 493.81 94.80 442.28 626.28 616.63 311.32 815.57 343.16 688.36 439.90 603.53 543.76 764.07 568.93
00003017 00000130 495.34 88.69 439.69 633.12 622.84 313.84 818.79 343.80 699.19 442.40 611.51 544.20 773.17 567.85
00003018 00000131 497.21 86.55 441.76 637.43 627.86 312.94 822.93 344.27 704.62 440.85 615.38 544.45 774.82 569.41
00003019 00000132 501.26 85.39 444.68 638.83 633.48 317.17 826.81 348.07 716.20 444.96 619.99 540.29 769.98 566.97
00003020 00000133 501.74 90.36 446.35 636.38 635.33 318.79 830.07 348.95 719.63 447.68 622.21 542.63 775.83 568.72
00003021 00000134 503.27 91.53 446.27 637.74 638.50 319.45 834.71 350.11 724.63 450.30 625.36 545.41 781.79 571.77
00003022 00000135 504.82 91.09 446.46 641.21 641.19 319.41 836.07 350.52 726.16 451.72 628.09 546.54 784.05 573.43
00003023 00000136 508.47 93.23 446.10 637.09 641.82 319.22 838.56 350.58 725.80 451.36 629.21 546.44 786.30 573.40
00003024 00000137 510.34 93.53 446.42 637.41 643.16 318.31 840.13 350.89 725.88 451.31 629.10 546.39 786.78 574.30
00003025 00000138 511.36 93.27 446.89 637.81 644.76 317.82 841.27 351.09 727.17 451.20 628.95 545.75 787.94 574.21
00003026 00000139 513.43 95.12 446.27 633.52 644.43 317.94 843.49 351.13 726.71 451.90 629.57 546.07 789.53 574.41
00003027 00000140 513.83 95.19 446.28 631.46 644.24 318.02 845.21 351.66 727.56 452.08 628.64 544.59 792.15 573.18
00003028 00000141 516.07 95.97 443.96 621.77 644.67 318.33 842.93 352.19 725.41 451.97 628.10 541.12 786.73 570.19
00003029 00000142 515.67 96.52 444.42 619.85 645.16 318.45 841.93 352.34 725.05 451.99 628.91 540.24 785.59 569.40
00003030 00000143 515.22 96.01 445.47 619.14 644.40 317.67 842.97 351.09 726.20 451.33 629.56 539.38 787.29 568.11
00003031 00000144 514.00 95.94 448.01 621.74 644.74 316.60 842.97 350.56 726.73 449.89 628.58 538.37 788.35 567.42
00003032 00000145 513.93 94.11 450.18 622.31 645.81 315.71 844.38 350.26 727.90 447.76 628.82 536.71 789.52 566.05
00003033 00000146 514.25 91.99 450.59 627.29 648.90 312.93 845.01 345.90 731.17 445.99 635.84 537.76 789.30 565.89
00003034 00000147 514.67 91.42 452.91 634.29 649.60 311.89 845.14 344.25 730.44 445.72 637.30 541.15 789.23 568.83
00003035 00000148 514.51 90.48 454.49 637.46 650.59 311.73 847.46 344.84 732.30 445.45 636.96 542.40 790.93 570.68
00003036 00000149 515.54 90.69 453.53 631.15 650.34 311.79 849.77 348.04 733.05 446.01 634.33 539.04 792.39 569.89
00003037 00000150 518.04 92.16 452.07 623.03 650.68 312.08 852.19 348.08 734.78 445.74 635.56 537.58 793.39 568.34
00003038 00000151 517.08 92.33 453.16 628.05 651.31 311.96 852.52 347.83 735.73 445.92 636.06 539.45 793.86 570.20
00003039 00000152 517.33 92.43 452.89 628.65 651.79 311.21 852.76 347.25 735.73 445.03 636.64 539.51 794.17 570.36
00003040 00000153 519.75 92.58 451.26 619.96 650.74 311.03 855.46 347.55 735.87 444.80 636.12 537.33 796.14 568.42
00003041 00000154 519.20 92.92 451.97 618.92 650.95 310.97 855.07 347.83 736.47 444.44 635.27 535.61 796.50 566.89
00003042 00000155 519.90 92.94 451.85 616.98 650.84 310.91 855.39 347.47 736.24 443.77 635.31 534.98 797.65 565.89
00003043 00000156 519.23 93.07 452.30 620.10 650.57 310.73 854.38 347.20 735.70 444.06 634.33 534.95 797.31 565.79
00003044 00000157 518.87 93.03 453.09 620.17 650.45 310.56 853.98 347.07 735.30 443.50 633.78 534.66 796.72 565.51
00003045 00000158 518.72 94.66 453.34 617.47 649.95 310.46 853.43 346.29 735.07 442.73 633.42 533.92 796.78 564.29
00003046 00000159 520.17 95.76 452.92 613.36 649.66 310.43 854.80 346.05 735.02 441.64 633.28 533.73 798.12 563.81
00003047 00000160 520.11 96.29 452.85 611.60 649.60 310.08 855.22 345.47 735.49 441.34 633.68 533.55 798.33 563.48
00003048 00000161 520.29 96.45 452.95 610.92 649.73 309.85 854.95 345.09 735.32 440.34 633.65 532.83 798.56 562.56
00003049 00000162 520.06 95.73 450.15 613.68 647.35 309.06 853.11 343.45 732.55 441.01 631.68 533.56 798.68 562.39
00003050 00000163 518.06 97.24 450.91 616.47 645.10 310.29 847.14 343.82 727.43 442.18 628.65 534.84 792.75 563.14
00003051 00000164 515.26 99.86 449.10 616.23 642.88 311.69 843.03 346.52 722.37 444.33 623.81 535.79 786.07 565.33
00003052 00000165 514.35 100.42 449.39 618.45 641.99 311.20 842.75 346.98 720.61 445.04 622.55 536.38 785.50 566.73
00003053 00000166 514.94 100.55 449.06 617.73 642.29 310.62 842.35 346.02 721.02 445.81 623.68 536.39 784.84 566.54
00003054 00000167 514.32 99.22 449.23 624.96 643.21 310.13 841.54 344.89 722.18 445.42 626.06 537.82 785.82 567.50
00003055 00000168 513.43 98.55 449.92 627.45 644.18 309.49 839.62 343.00 722.50 444.69 628.94 538.43 784.84 567.13
00003056 00000169 511.01 96.44 449.64 629.86 641.56 309.35 836.85 340.75 721.15 442.39 630.28 538.84 784.87 565.74
00003057 00000170 507.80 96.07 448.52 630.24 636.35 308.91 831.31 339.81 715.82 441.93 625.08 540.06 777.02 566.75
00003058 00000171 503.06 94.69 449.84 630.56 631.37 306.17 828.41 337.00 710.34 438.22 618.94 537.84 773.28 564.42
