Video ID: 	qt72bjUeSgA
H: 	1080
W: 	1920
FPS: 	25.0

FRAME INDEX X0 Y0 W H [Landmarks (5 Points)]

00002055 00000000 1014.05 177.24 479.50 724.47 1101.44 456.20 1343.83 453.93 1210.92 594.63 1123.56 714.51 1340.64 712.27
00002056 00000001 1009.53 179.28 481.53 726.60 1105.79 459.44 1343.69 453.61 1212.58 590.26 1123.90 715.00 1339.79 709.83
00002057 00000002 1008.41 185.96 484.73 722.97 1105.97 466.29 1342.18 458.19 1208.80 587.23 1122.21 714.11 1340.89 706.72
00002058 00000003 1008.61 185.90 484.67 728.94 1105.80 466.41 1342.25 457.82 1207.94 588.36 1121.29 716.88 1342.35 709.12
00002059 00000004 1007.88 185.24 484.81 735.55 1104.45 467.47 1341.85 458.40 1206.64 590.73 1121.47 722.19 1342.39 714.23
00002060 00000005 1006.91 185.89 486.34 735.57 1101.59 468.71 1340.74 459.45 1204.15 592.37 1120.77 729.15 1334.79 721.60
00002061 00000006 1008.18 186.49 482.89 729.30 1102.76 468.89 1340.58 461.16 1204.48 593.39 1124.98 732.05 1328.41 726.16
00002062 DELETE   1009.71 182.87 476.58 722.38 1103.22 471.97 1339.38 468.78 1206.55 597.53 1121.82 729.60 1321.12 727.00
00002063 DELETE   1012.39 181.45 474.53 712.38 1103.13 475.78 1341.69 474.07 1207.54 597.37 1121.70 724.78 1322.22 723.64
00002064 DELETE   1012.28 184.08 472.71 701.95 1100.91 469.93 1342.22 470.65 1206.13 597.88 1119.16 720.72 1320.77 721.50
00002065 00000010 1013.83 184.80 470.40 693.78 1099.80 466.41 1342.92 467.06 1206.73 599.30 1118.60 719.19 1320.61 719.81
00002066 00000011 1013.83 185.76 471.09 689.46 1100.23 464.54 1343.19 466.36 1206.69 599.74 1118.32 717.03 1319.93 718.58
00002067 00000012 1013.33 186.45 471.42 687.32 1100.69 463.69 1343.22 466.30 1206.64 599.39 1117.95 715.78 1319.09 717.96
00002068 00000013 1012.39 185.47 472.56 687.27 1099.33 462.74 1341.86 464.99 1206.16 598.53 1117.75 715.11 1319.56 716.90
00002069 00000014 1011.48 182.18 472.50 689.39 1097.68 462.07 1341.82 464.18 1205.98 598.10 1116.16 713.61 1320.87 715.17
00002070 00000015 1011.01 181.13 473.78 689.45 1096.43 462.13 1340.38 462.66 1205.00 597.47 1116.48 713.20 1321.48 713.43
00002071 00000016 1010.79 181.37 472.52 689.05 1095.94 461.97 1339.98 462.33 1204.74 597.71 1116.25 713.09 1321.38 713.13
00002072 00000017 1011.03 180.86 472.22 689.82 1096.03 462.52 1340.15 462.51 1205.01 598.03 1116.56 713.56 1322.08 713.25
00002073 00000018 1011.55 182.12 472.72 688.95 1096.05 462.99 1340.44 462.82 1205.14 599.27 1117.15 714.62 1322.78 714.14
00002074 00000019 1012.15 182.65 474.00 694.41 1097.16 462.87 1340.60 462.97 1205.59 600.39 1117.25 715.01 1324.46 714.73
00002075 00000020 1011.36 181.35 475.73 709.78 1098.47 462.55 1339.30 462.27 1205.79 600.51 1119.77 718.03 1326.35 717.56
00002076 00000021 1012.89 181.37 477.08 718.14 1098.72 462.29 1339.89 460.90 1207.00 600.60 1122.50 722.06 1330.53 720.67
00002077 00000022 1013.84 180.90 475.29 718.25 1098.70 461.59 1340.43 460.39 1206.92 600.93 1121.06 720.53 1332.62 719.36
00002078 00000023 1014.95 182.26 472.76 704.65 1099.20 462.71 1340.48 460.78 1206.56 600.45 1120.24 713.96 1334.14 711.86
00002079 00000024 1012.74 183.37 472.28 689.57 1099.67 463.20 1342.01 460.58 1207.13 596.15 1117.55 704.60 1336.03 701.81
00002080 00000025 1011.63 181.32 472.75 688.46 1099.51 462.65 1342.30 459.70 1207.21 593.59 1116.18 701.07 1336.94 697.94
00002081 00000026 1011.88 181.06 472.79 687.19 1099.25 462.44 1342.30 458.90 1207.06 593.05 1117.29 700.83 1337.66 697.23
00002082 00000027 1011.92 181.30 472.92 686.81 1099.29 462.45 1342.39 458.54 1206.92 592.43 1117.38 700.76 1337.67 696.90
00002083 00000028 1012.17 181.25 472.21 686.70 1099.30 462.39 1342.40 458.37 1206.88 591.97 1117.28 700.78 1337.43 696.88
00002084 00000029 1011.73 178.93 471.90 689.56 1098.31 461.31 1341.53 457.81 1206.57 591.70 1116.25 701.18 1335.81 697.71
00002085 00000030 1014.65 178.09 469.40 708.05 1096.42 460.57 1337.02 458.49 1204.49 599.53 1123.15 723.60 1322.00 722.03
00002086 00000031 1011.98 173.93 473.81 729.58 1095.83 460.73 1335.38 456.18 1204.19 596.57 1129.49 741.26 1310.95 738.39
00002087 00000032 1009.55 174.10 471.57 731.28 1093.25 459.41 1332.55 453.82 1202.01 592.96 1130.22 745.43 1305.53 741.79
00002088 00000033 1008.55 173.88 467.42 727.14 1091.81 459.04 1329.13 453.42 1199.40 591.16 1126.88 740.51 1301.11 737.05
00002089 00000034 1007.91 173.84 464.21 717.23 1089.46 457.92 1325.95 451.16 1197.03 591.83 1126.15 733.83 1301.28 729.38
00002090 00000035 1008.07 170.34 463.34 712.72 1088.02 456.51 1326.14 449.63 1195.78 590.49 1123.61 728.52 1303.07 723.82
00002091 00000036 1007.59 171.52 466.04 713.99 1087.39 456.25 1327.18 448.40 1195.55 590.97 1120.79 725.56 1308.57 719.60
00002092 00000037 1007.75 171.19 463.85 707.25 1086.62 455.76 1327.29 447.69 1196.10 589.18 1117.79 719.14 1314.08 712.69
00002093 00000038 1007.25 168.41 462.20 700.14 1084.99 455.62 1326.47 448.35 1194.17 585.67 1112.39 710.57 1316.87 704.48
00002094 00000039 1006.20 168.66 461.64 693.21 1084.56 455.66 1326.02 449.28 1194.16 584.21 1110.24 705.68 1317.86 700.08
00002095 00000040 1005.73 167.36 461.64 688.33 1082.92 456.48 1325.29 449.05 1194.14 583.47 1110.26 704.41 1318.42 697.98
00002096 00000041 1005.84 168.11 461.90 692.04 1085.49 455.54 1325.75 448.16 1196.71 582.53 1115.28 708.55 1314.89 702.38
00002097 00000042 1006.15 169.17 464.08 693.09 1088.36 454.47 1327.96 446.02 1201.38 584.87 1122.82 713.00 1316.02 706.11
00002098 00000043 1006.22 169.50 467.85 695.94 1090.91 453.99 1329.72 446.44 1203.76 585.25 1126.44 716.28 1314.68 710.19
00002099 00000044 1006.86 174.43 470.00 698.38 1092.53 453.94 1331.95 446.79 1206.80 589.01 1130.27 720.09 1317.24 714.40
00002100 DELETE   1008.11 174.48 472.15 703.83 1098.48 462.06 1339.39 458.70 1211.29 590.29 1130.41 720.88 1321.43 718.26
00002101 DELETE   1009.18 175.29 470.65 702.36 1101.32 469.16 1343.20 463.83 1214.75 589.93 1129.06 717.76 1328.10 713.42
00002102 00000047 1011.95 173.92 470.66 698.39 1101.60 463.70 1347.12 460.72 1214.05 589.88 1124.64 710.03 1335.84 707.42
00002103 00000048 1012.93 175.68 471.19 692.42 1102.58 462.38 1346.70 457.62 1213.59 587.22 1123.44 703.81 1339.19 699.60
00002104 00000049 1013.48 175.25 469.54 684.50 1102.15 460.13 1345.71 455.19 1214.13 585.48 1124.28 698.32 1340.48 693.83
00002105 00000050 1013.64 174.24 468.65 682.16 1101.34 459.23 1345.15 453.49 1213.90 584.02 1124.51 696.83 1341.46 691.65
00002106 00000051 1014.44 172.62 468.05 681.44 1100.68 457.89 1343.99 451.33 1213.16 582.30 1124.93 696.10 1341.00 690.26
00002107 00000052 1014.59 170.78 468.25 685.15 1100.05 456.38 1342.62 450.02 1212.13 581.82 1124.76 697.10 1339.20 691.48
00002108 00000053 1015.82 171.59 467.38 685.86 1099.91 456.61 1341.60 451.18 1209.84 582.39 1123.80 699.56 1335.14 694.81
00002109 00000054 1017.13 174.60 465.04 685.45 1099.42 456.79 1340.06 452.31 1207.78 583.98 1122.56 702.65 1330.74 698.83
00002110 00000055 1018.07 174.91 466.57 688.49 1099.30 457.14 1339.28 453.39 1205.37 585.80 1121.90 705.48 1327.28 702.46
00002111 00000056 1018.58 177.03 464.65 688.47 1098.68 457.38 1338.09 453.93 1204.10 586.03 1121.33 707.24 1324.49 704.49
00002112 00000057 1019.21 176.26 463.83 688.37 1099.22 456.46 1337.69 453.14 1203.79 585.39 1122.30 706.95 1323.61 704.32
00002113 00000058 1018.83 175.11 464.23 689.46 1098.74 455.29 1337.75 451.47 1203.60 583.70 1121.83 706.16 1324.03 703.13
00002114 00000059 1018.32 174.15 463.86 690.36 1098.98 454.91 1337.58 450.76 1204.42 583.55 1122.58 705.52 1325.11 702.20
00002115 00000060 1018.15 174.12 464.78 689.31 1099.02 454.85 1337.81 451.04 1204.78 583.88 1122.55 705.07 1325.14 702.00
00002116 00000061 1017.79 173.40 466.13 688.69 1098.89 454.80 1338.37 451.31 1205.59 585.06 1123.69 705.86 1325.40 703.01
00002117 00000062 1017.26 173.67 466.48 689.30 1097.77 455.24 1339.07 451.96 1206.21 586.87 1123.45 708.71 1324.72 705.98
00002118 00000063 1017.86 174.17 467.12 689.31 1098.99 455.25 1340.88 452.28 1206.94 588.68 1124.15 709.28 1324.88 706.80
00002119 00000064 1016.39 176.34 469.49 694.69 1101.60 453.03 1344.66 451.83 1209.55 589.03 1125.66 712.76 1323.60 711.91
00002120 00000065 1015.48 174.30 474.75 710.88 1104.63 452.38 1349.32 451.13 1214.07 590.77 1133.72 724.95 1324.73 724.39
00002121 00000066 1017.45 176.57 477.89 699.94 1108.10 453.66 1355.27 452.27 1218.37 591.36 1134.41 721.13 1330.29 720.38
00002122 00000067 1018.57 171.84 479.66 700.50 1114.79 451.97 1361.96 450.69 1225.92 586.42 1137.37 714.49 1336.95 713.50
00002123 00000068 1018.16 173.02 484.90 695.23 1122.83 451.44 1371.32 448.98 1240.09 583.30 1145.37 705.76 1353.13 703.31
00002124 00000069 1018.54 173.08 487.18 689.45 1128.09 452.23 1375.62 447.63 1248.62 583.75 1154.05 701.14 1363.01 696.64
00002125 00000070 1019.61 175.17 484.34 684.83 1129.68 453.00 1378.25 449.66 1250.16 585.51 1150.42 696.26 1366.21 692.93
00002126 00000071 1019.34 173.74 484.01 691.80 1128.36 453.03 1377.31 450.73 1247.79 587.52 1147.02 696.62 1365.85 694.28
00002127 00000072 1019.72 176.76 485.39 689.31 1127.22 454.53 1375.92 453.30 1244.21 590.28 1145.20 698.92 1362.44 697.64
00002128 00000073 1020.18 175.21 483.61 688.56 1125.08 458.53 1376.08 456.86 1241.88 591.64 1141.60 699.42 1362.83 697.86
00002129 00000074 1020.99 175.07 478.62 687.77 1126.59 473.09 1374.66 470.25 1240.61 590.48 1136.33 697.42 1362.11 695.09
00002130 DELETE   1019.82 173.15 478.54 691.57 1124.38 468.92 1369.90 469.84 1236.35 589.15 1134.00 697.35 1355.93 697.82
00002131 DELETE   1021.09 168.87 476.13 701.19 1121.59 460.94 1367.52 467.45 1232.95 589.39 1135.29 707.22 1342.30 712.67
00002132 DELETE   1022.18 168.68 474.56 701.74 1118.36 456.92 1364.24 461.76 1227.88 588.96 1134.24 711.54 1335.78 715.85
00002133 00000078 1023.08 169.11 472.27 701.16 1118.11 455.85 1362.86 460.12 1226.39 588.22 1134.97 713.01 1332.26 716.91
00002134 00000079 1022.92 167.59 472.49 704.55 1117.48 454.35 1361.19 457.91 1225.33 587.71 1135.74 713.79 1330.85 717.08
00002135 00000080 1022.00 169.50 475.38 705.96 1116.82 453.47 1360.02 455.03 1224.91 587.11 1136.73 714.98 1331.95 716.51
00002136 00000081 1021.70 169.16 475.87 710.43 1116.07 452.93 1360.06 454.07 1223.34 586.62 1133.78 713.96 1333.61 715.42
00002137 00000082 1021.21 170.21 476.95 715.75 1115.81 453.31 1359.57 453.16 1222.84 586.57 1133.41 713.02 1339.25 713.46
00002138 00000083 1022.14 169.50 477.00 715.97 1113.78 453.16 1359.11 452.16 1220.74 586.49 1130.42 709.30 1343.94 708.72
00002139 00000084 1022.02 172.71 476.09 711.82 1112.72 453.19 1358.91 452.18 1219.55 587.28 1129.13 707.69 1344.69 706.93
00002140 00000085 1022.83 174.23 473.23 704.01 1112.79 453.27 1360.20 452.73 1220.32 587.45 1128.72 705.08 1345.41 704.52
00002141 00000086 1022.36 175.00 473.74 692.72 1114.01 454.13 1361.98 453.79 1222.63 587.60 1131.04 702.23 1346.70 701.65
00002142 00000087 1021.88 175.17 474.72 690.33 1117.09 454.44 1366.02 453.49 1228.06 587.12 1134.13 700.97 1351.19 699.58
00002143 00000088 1021.71 174.06 477.72 690.11 1119.31 452.65 1369.74 452.03 1232.85 587.14 1137.23 699.63 1355.79 698.65
00002144 00000089 1024.53 176.48 477.92 687.87 1123.73 451.55 1373.04 452.07 1236.66 586.11 1140.83 701.66 1354.35 701.48
00002145 00000090 1025.51 176.36 480.90 692.31 1127.84 451.05 1375.16 453.21 1240.09 584.21 1145.45 706.67 1349.41 708.00
00002146 00000091 1027.57 173.05 480.05 691.13 1129.04 450.40 1377.57 454.12 1242.04 585.47 1147.04 706.88 1349.36 709.46
00002147 00000092 1027.31 173.60 480.11 692.19 1128.76 449.97 1376.58 453.57 1241.36 584.90 1145.99 706.01 1349.73 708.36
00002148 00000093 1025.81 175.26 479.78 697.86 1125.95 450.61 1373.08 451.51 1238.01 585.06 1144.96 707.50 1351.51 707.72
00002149 00000094 1025.30 175.31 478.94 696.50 1123.26 450.96 1369.74 451.58 1233.90 584.52 1141.94 707.75 1347.52 708.08
00002150 00000095 1024.02 173.35 476.40 698.09 1120.43 451.20 1366.06 452.34 1229.96 582.78 1137.39 709.29 1339.95 710.18
00002151 00000096 1022.85 172.27 473.12 700.19 1116.08 451.65 1361.64 452.01 1224.65 585.00 1134.82 711.45 1336.12 711.72
00002152 00000097 1022.09 168.82 470.35 697.51 1111.85 450.61 1358.30 451.99 1219.39 585.71 1129.93 708.88 1332.09 710.10
00002153 00000098 1020.08 170.74 471.38 696.83 1109.31 450.95 1356.75 452.89 1218.21 588.33 1127.71 708.45 1333.42 710.03
00002154 00000099 1019.56 171.89 472.80 694.63 1108.75 453.64 1356.84 453.12 1219.37 589.85 1129.32 709.26 1337.04 708.85
00002155 00000100 1019.47 174.68 472.58 688.00 1109.89 454.58 1358.28 453.95 1221.02 589.66 1129.72 706.76 1338.57 706.33
00002156 00000101 1019.19 174.82 473.46 687.84 1111.06 454.76 1360.18 453.36 1223.16 588.71 1131.28 705.51 1341.47 704.43
00002157 00000102 1020.45 173.08 474.34 690.76 1112.79 454.47 1361.14 453.72 1224.19 588.43 1131.50 704.89 1341.83 704.23
00002158 00000103 1020.26 172.58 476.11 693.91 1113.62 454.57 1362.37 453.09 1225.31 588.23 1131.85 703.92 1345.05 702.49
00002159 00000104 1020.48 171.50 475.55 696.01 1114.55 453.61 1363.00 452.47 1226.49 586.76 1131.45 702.20 1346.76 700.92
00002160 00000105 1019.84 170.29 475.35 696.75 1114.63 452.76 1362.92 451.84 1226.25 584.95 1130.95 700.58 1347.05 699.52
00002161 00000106 1019.78 171.31 474.79 696.10 1114.64 452.21 1363.07 451.11 1226.35 583.76 1130.48 699.35 1347.92 698.09
00002162 00000107 1020.45 168.04 472.61 698.34 1116.47 457.74 1363.42 459.19 1227.17 584.07 1130.29 699.27 1346.90 700.08
00002163 00000108 1019.11 169.22 474.16 698.81 1118.84 467.81 1366.08 467.93 1230.53 584.49 1129.06 699.65 1350.06 699.37
00002164 00000109 1018.91 165.62 475.88 701.96 1116.02 460.05 1365.79 461.28 1229.91 582.59 1129.96 699.41 1349.65 699.92
CROP_BBOX: 724 0 1788 1073
