Video ID: 	P5PqGap5CZ4
H: 	2160
W: 	3840
FPS: 	25.0

FRAME INDEX X0 Y0 W H [Landmarks (5 Points)]

00003081 00000000 2564.47 524.47 479.90 584.62 2665.84 710.27 2863.28 781.41 2676.26 872.36 2619.33 931.08 2781.86 987.41
00003082 00000001 2570.41 524.92 470.33 590.73 2664.06 712.77 2861.98 783.25 2681.12 875.91 2628.31 934.76 2788.41 989.24
00003083 00000002 2568.60 528.75 472.05 586.63 2663.46 714.41 2861.83 785.63 2681.79 877.89 2628.02 934.98 2788.23 990.24
00003084 00000003 2566.94 531.95 473.40 584.33 2661.38 715.50 2860.68 786.24 2680.84 878.00 2626.31 936.70 2786.70 991.67
00003085 00000004 2565.29 532.39 474.27 584.68 2659.76 715.00 2859.68 785.61 2679.10 877.77 2624.20 936.21 2787.37 991.07
00003086 00000005 2563.75 533.85 475.34 585.62 2659.09 715.65 2859.38 787.26 2676.92 877.65 2622.12 936.23 2786.02 991.91
00003087 00000006 2560.32 533.56 475.18 589.05 2656.97 715.63 2857.75 786.50 2675.28 879.15 2620.87 940.14 2783.24 995.35
00003088 00000007 2557.53 530.34 476.02 593.35 2653.62 716.27 2856.06 786.98 2672.50 881.25 2618.07 942.79 2781.52 998.11
00003089 DELETE   2554.20 529.32 476.98 596.76 2651.97 716.81 2853.56 787.00 2671.91 881.24 2615.54 942.49 2780.22 997.75
00003090 DELETE   2552.20 527.49 477.98 599.63 2649.96 716.83 2852.29 790.65 2667.24 882.52 2610.42 939.42 2778.67 997.65
00003091 00000010 2548.15 526.77 478.90 601.41 2647.59 715.07 2849.91 790.94 2663.89 883.41 2605.91 936.64 2776.25 996.61
00003092 DELETE   2546.47 526.90 475.82 600.18 2644.91 714.61 2846.55 793.19 2660.37 885.11 2601.33 931.80 2776.05 993.77
00003093 00000012 2547.69 529.06 471.68 597.32 2642.34 716.90 2843.14 793.54 2656.38 887.77 2600.09 933.14 2775.74 993.43
00003094 00000013 2542.78 531.68 473.27 595.61 2638.87 715.62 2837.80 792.45 2651.76 888.67 2595.78 931.09 2773.58 991.59
00003095 00000014 2537.91 529.97 473.88 598.19 2636.65 715.51 2836.02 794.45 2650.05 890.80 2592.01 930.44 2770.92 992.44
00003096 DELETE   2537.59 534.14 472.45 594.91 2634.34 717.91 2830.74 795.58 2646.70 891.51 2590.77 932.67 2768.44 993.44
00003097 00000016 2535.97 534.77 474.95 595.53 2631.40 720.83 2828.95 795.93 2643.83 894.02 2590.29 936.40 2768.01 995.12
00003098 00000017 2536.34 534.42 475.51 598.03 2630.64 721.88 2828.33 795.82 2643.64 895.47 2590.54 938.41 2770.44 996.16
00003099 00000018 2535.79 537.58 477.53 595.66 2630.55 722.08 2829.39 797.05 2643.52 897.77 2589.29 937.85 2771.21 996.41
00003100 00000019 2536.46 537.34 479.93 597.57 2629.23 725.31 2828.84 797.29 2642.72 897.99 2590.26 942.05 2772.25 998.27
00003101 00000020 2535.63 542.27 476.48 593.47 2627.85 727.40 2824.58 798.71 2640.62 898.91 2589.56 943.88 2769.56 999.35
00003102 00000021 2532.27 549.22 476.31 586.90 2625.21 726.48 2819.96 797.66 2637.33 900.61 2587.03 945.36 2767.73 1000.40
00003103 00000022 2528.82 549.99 475.38 586.61 2623.56 725.66 2814.63 799.72 2633.40 903.16 2584.43 942.29 2766.87 999.42
00003104 00000023 2527.22 555.10 474.46 582.09 2621.68 726.78 2809.35 798.93 2631.09 904.91 2585.24 944.09 2766.71 999.42
00003105 00000024 2524.99 556.05 473.88 580.30 2620.09 727.53 2806.34 799.51 2629.19 905.43 2583.25 943.45 2765.03 998.66
00003106 00000025 2522.00 554.73 474.19 582.95 2616.53 728.75 2803.83 798.02 2626.26 907.52 2581.82 947.03 2764.59 999.90
00003107 00000026 2519.60 554.99 474.39 584.99 2613.99 729.00 2801.05 798.56 2623.52 910.10 2579.91 947.88 2764.40 1000.76
00003108 00000027 2515.73 553.67 477.35 588.84 2611.93 728.74 2798.37 798.87 2620.56 912.61 2578.33 948.22 2764.92 1001.57
00003109 00000028 2516.05 550.18 472.36 594.10 2610.27 729.43 2796.19 800.29 2618.84 916.85 2574.67 948.63 2763.54 1002.59
00003110 00000029 2516.14 549.07 468.65 595.64 2607.96 732.54 2793.59 803.06 2615.61 919.28 2573.23 949.55 2762.00 1002.93
00003111 00000030 2514.85 555.35 468.57 588.89 2605.14 734.32 2791.10 803.42 2614.20 919.95 2572.62 950.95 2760.82 1002.97
00003112 00000031 2514.53 554.90 466.03 589.51 2603.95 732.85 2788.74 803.86 2612.41 920.04 2570.85 948.61 2760.06 1002.00
00003113 00000032 2512.12 557.35 468.39 589.43 2600.98 732.10 2786.48 804.52 2609.86 921.25 2568.42 948.58 2759.72 1002.93
00003114 00000033 2510.30 556.76 467.95 592.46 2599.81 732.44 2784.58 806.07 2608.34 920.83 2566.11 948.36 2758.85 1003.77
00003115 00000034 2509.78 556.14 465.66 593.88 2597.44 732.66 2782.55 806.94 2605.70 920.12 2564.49 947.29 2758.68 1003.07
00003116 00000035 2508.70 556.41 466.97 594.11 2596.21 731.01 2780.84 807.01 2603.57 919.98 2562.27 945.32 2757.59 1002.67
00003117 00000036 2506.84 554.75 466.67 596.22 2595.21 730.55 2779.76 808.36 2602.17 921.11 2560.24 944.43 2757.50 1003.11
00003118 00000037 2503.63 557.66 468.77 592.54 2593.41 731.76 2778.41 809.74 2601.09 921.28 2558.06 944.55 2754.92 1003.47
00003119 00000038 2502.76 555.85 466.75 595.13 2592.02 733.97 2778.24 810.77 2601.11 921.47 2556.45 945.04 2756.16 1003.00
00003120 00000039 2501.42 554.75 464.20 596.26 2591.90 734.73 2776.26 811.05 2600.81 920.69 2555.26 944.72 2754.15 1002.54
00003121 00000040 2499.41 552.93 465.35 596.92 2591.30 733.03 2774.53 811.22 2598.67 919.10 2551.72 942.14 2750.85 1001.77
00003122 00000041 2496.59 552.11 464.14 598.41 2589.76 731.46 2771.60 811.10 2595.66 917.75 2548.76 939.22 2749.32 1000.16
00003123 00000042 2494.71 555.33 463.62 594.28 2587.92 731.70 2770.28 810.46 2594.38 916.91 2546.81 938.27 2747.83 998.50
00003124 00000043 2492.81 554.84 463.44 593.35 2585.72 730.03 2767.25 810.82 2590.81 916.98 2544.20 936.22 2745.74 998.09
00003125 00000044 2492.76 554.30 461.85 594.49 2584.64 730.62 2766.15 810.78 2589.49 916.28 2543.08 936.92 2745.22 998.34
00003126 00000045 2493.56 553.24 459.49 595.15 2584.20 731.28 2765.45 810.99 2588.91 915.80 2542.53 937.36 2745.01 998.35
00003127 00000046 2493.27 551.71 459.77 596.45 2584.51 730.65 2764.86 811.62 2587.90 915.73 2542.42 936.40 2743.97 998.42
00003128 00000047 2492.42 553.20 460.97 594.88 2584.62 729.86 2764.46 809.76 2588.85 915.19 2542.46 935.81 2743.40 997.22
00003129 00000048 2492.89 552.76 460.85 593.67 2585.26 729.56 2764.50 808.23 2589.67 913.06 2543.63 934.69 2742.78 995.09
00003130 00000049 2493.57 551.34 463.19 594.55 2585.94 727.54 2765.69 806.82 2588.95 912.69 2544.32 933.72 2743.70 994.52
00003131 00000050 2493.76 551.29 463.40 594.00 2587.26 725.72 2766.77 805.53 2589.53 912.98 2543.56 931.43 2744.20 993.08
00003132 00000051 2495.07 550.80 462.30 594.04 2588.13 726.09 2766.53 804.98 2590.03 912.33 2544.84 931.18 2744.56 992.08
00003133 00000052 2496.01 550.18 461.12 595.07 2588.62 724.97 2765.18 805.44 2587.84 912.12 2545.52 929.25 2745.58 991.27
00003134 00000053 2495.28 553.34 458.06 591.58 2588.19 724.83 2763.31 806.12 2586.27 911.25 2545.43 928.15 2743.82 990.92
00003135 00000054 2495.29 551.25 455.99 592.31 2586.54 727.08 2761.76 803.87 2586.53 907.36 2546.45 931.64 2740.70 990.38
00003136 00000055 2488.63 547.14 454.30 593.81 2582.33 727.88 2758.22 804.26 2584.69 903.73 2542.34 930.08 2735.65 988.79
00003137 00000056 2484.26 549.06 454.83 591.21 2577.47 727.10 2753.76 802.78 2580.69 900.91 2538.92 929.74 2732.05 988.28
00003138 00000057 2482.10 547.36 454.36 591.87 2574.46 727.84 2751.47 801.85 2578.94 900.00 2536.89 929.84 2729.52 987.19
00003139 00000058 2482.39 544.54 452.17 599.11 2571.67 724.24 2751.35 796.50 2575.84 905.47 2533.93 930.75 2729.88 987.87
00003140 00000059 2480.14 545.00 454.63 598.89 2570.72 723.59 2750.63 796.18 2575.05 903.56 2533.47 928.07 2730.46 985.11
00003141 00000060 2479.30 545.33 453.52 597.91 2569.80 723.85 2749.13 795.34 2574.70 903.60 2532.50 928.01 2729.58 984.23
00003142 00000061 2474.59 543.37 455.18 599.60 2568.10 723.60 2747.50 794.57 2574.83 903.19 2528.96 928.07 2726.28 984.22
00003143 00000062 2472.43 544.65 455.75 597.85 2566.20 723.68 2745.41 793.67 2573.60 902.77 2527.66 928.32 2725.02 983.48
00003144 00000063 2469.35 543.49 457.15 599.39 2564.26 723.26 2743.30 793.10 2571.80 902.72 2526.18 928.10 2725.01 982.85
00003145 00000064 2465.37 544.41 457.01 598.51 2562.35 722.86 2740.94 792.83 2570.37 902.52 2521.98 927.48 2722.64 982.32
00003146 00000065 2463.85 543.48 457.09 599.37 2559.45 723.27 2737.47 790.74 2567.99 902.44 2521.16 930.18 2720.68 982.99
00003147 00000066 2459.37 543.58 458.73 599.66 2557.69 724.44 2736.46 789.67 2568.58 900.76 2518.16 930.92 2719.10 981.85
00003148 00000067 2457.00 544.91 459.09 597.86 2553.68 726.44 2732.49 788.52 2566.62 901.26 2517.26 934.64 2716.57 982.62
00003149 00000068 2452.87 545.12 459.85 598.18 2548.99 727.45 2727.23 787.79 2563.72 903.08 2514.35 935.72 2712.79 982.07
00003150 00000069 2449.26 546.38 460.14 596.42 2545.51 727.70 2725.53 787.28 2563.01 903.92 2511.80 936.42 2711.11 981.91
00003151 00000070 2447.18 541.70 459.78 599.84 2543.17 725.45 2723.04 787.35 2559.34 904.75 2508.10 932.91 2708.80 980.37
00003152 00000071 2443.66 541.03 463.27 599.45 2539.62 725.43 2720.26 787.57 2556.64 905.62 2505.12 932.81 2705.86 980.30
00003153 00000072 2441.94 542.65 465.08 596.23 2534.61 726.47 2717.61 788.36 2553.80 906.14 2502.75 933.09 2703.87 980.07
00003154 00000073 2438.66 541.35 465.41 594.02 2529.62 727.11 2713.76 789.20 2550.56 905.41 2499.56 931.73 2700.36 978.52
00003155 00000074 2436.15 537.92 466.47 596.10 2526.17 727.29 2710.21 788.57 2547.33 903.61 2495.27 931.18 2697.38 977.47
00003156 00000075 2435.38 538.00 466.01 595.37 2523.96 727.88 2707.36 789.40 2542.64 902.33 2492.98 931.07 2693.16 977.49
00003157 00000076 2431.75 537.50 469.40 595.91 2519.67 727.21 2703.16 790.10 2537.78 904.50 2490.96 930.92 2691.29 978.22
00003158 00000077 2427.90 536.79 471.60 597.35 2515.71 727.44 2700.21 789.45 2534.57 903.55 2488.00 930.88 2688.90 977.67
00003159 00000078 2424.57 538.90 471.72 596.33 2513.41 725.14 2697.74 789.60 2530.68 903.16 2484.10 929.77 2685.44 978.69
00003160 00000079 2422.79 537.56 470.24 598.00 2510.72 726.10 2695.54 789.47 2528.40 902.94 2481.12 930.78 2682.64 978.96
00003161 00000080 2423.55 537.87 466.42 597.19 2509.02 725.35 2693.18 789.60 2524.48 902.34 2480.27 929.28 2681.77 978.15
00003162 00000081 2421.89 537.81 467.06 597.16 2506.90 723.62 2691.34 789.58 2521.30 903.78 2477.56 928.16 2679.64 978.59
00003163 00000082 2421.74 536.95 466.93 598.77 2506.34 723.17 2689.90 790.21 2519.91 903.91 2476.95 927.57 2678.99 978.78
00003164 00000083 2421.29 536.96 467.85 599.74 2505.91 722.49 2689.22 789.45 2518.71 904.01 2476.93 928.01 2679.02 979.12
00003165 00000084 2421.63 539.12 465.97 597.11 2506.10 723.03 2689.11 790.91 2518.84 904.53 2476.61 928.09 2678.83 979.72
00003166 00000085 2430.65 542.46 457.00 597.63 2507.05 726.52 2698.10 791.90 2520.26 908.69 2480.06 930.91 2681.68 980.49
00003167 00000086 2421.37 542.76 467.71 594.12 2506.18 725.79 2690.25 792.23 2520.77 905.72 2477.28 929.57 2681.30 979.86
00003168 00000087 2420.09 542.07 470.30 595.03 2505.77 725.94 2690.98 792.41 2521.35 906.18 2476.94 929.63 2681.96 979.97
00003169 00000088 2427.99 543.78 462.46 597.27 2505.81 727.65 2698.61 793.02 2520.43 910.67 2480.56 932.16 2683.54 981.43
00003170 00000089 2426.80 545.71 461.80 595.17 2505.16 726.45 2697.44 793.35 2519.00 910.90 2479.20 930.91 2682.06 981.45
00003171 00000090 2425.50 545.88 459.70 596.36 2503.63 726.08 2694.78 792.40 2516.38 911.24 2477.01 931.49 2679.54 981.93
00003172 00000091 2424.27 545.39 459.52 597.63 2501.64 726.52 2693.03 793.04 2514.49 912.16 2475.96 932.00 2678.45 982.50
00003173 00000092 2425.09 546.72 459.35 595.66 2502.21 726.52 2693.36 793.23 2514.66 912.47 2476.36 931.67 2678.86 982.30
00003174 00000093 2426.66 546.03 458.54 596.33 2503.85 726.88 2694.37 792.97 2516.42 911.66 2477.53 932.63 2679.19 982.86
00003175 00000094 2427.39 547.88 459.12 594.70 2505.08 728.45 2695.78 793.22 2518.68 912.03 2479.70 934.20 2680.42 983.29
00003176 00000095 2428.25 545.57 462.94 597.43 2506.69 729.36 2698.20 794.07 2521.52 913.10 2482.04 935.51 2683.45 984.37
00003177 00000096 2421.08 548.51 471.93 589.64 2508.53 728.17 2692.18 792.92 2525.73 908.81 2481.91 932.81 2685.03 981.43
00003178 00000097 2423.20 544.87 472.81 592.30 2510.18 727.93 2693.75 793.17 2527.55 907.88 2483.17 932.35 2686.52 981.20
00003179 00000098 2423.68 543.11 474.35 593.65 2512.03 726.67 2697.18 792.70 2530.69 908.59 2483.28 930.70 2689.20 980.27
00003180 00000099 2423.94 541.46 475.27 594.57 2512.94 726.21 2698.04 791.94 2532.14 908.52 2484.20 929.71 2690.38 979.16
00003181 00000100 2424.19 540.94 474.91 594.68 2512.86 726.01 2698.58 791.43 2532.09 908.15 2484.33 929.41 2690.71 978.57
00003182 00000101 2425.80 539.51 472.51 596.30 2513.63 726.67 2698.63 791.18 2532.89 908.47 2485.70 930.72 2690.84 979.12
00003183 00000102 2426.13 541.48 472.19 594.41 2514.51 726.95 2699.18 791.53 2533.87 909.30 2486.11 931.30 2690.29 979.74
00003184 00000103 2426.89 545.87 471.39 590.03 2515.19 728.92 2699.00 793.03 2534.33 909.91 2487.10 933.62 2689.30 981.58
00003185 00000104 2425.40 542.98 472.21 592.61 2513.60 729.43 2697.66 793.04 2533.44 910.68 2486.61 934.08 2688.91 981.75
00003186 00000105 2424.30 544.20 471.62 592.09 2511.89 730.76 2697.02 791.94 2532.93 911.25 2486.51 936.33 2688.67 982.12
00003187 00000106 2424.08 541.38 467.62 595.38 2510.65 731.93 2695.23 789.51 2532.88 913.55 2486.91 939.32 2689.22 982.50
00003188 00000107 2432.47 543.52 459.41 598.52 2508.75 736.36 2702.37 791.47 2531.92 917.35 2490.12 941.84 2692.25 983.04
00003189 00000108 2431.49 547.87 457.22 594.00 2506.19 738.09 2699.94 790.53 2532.76 918.93 2490.75 944.77 2691.82 983.50
00003190 00000109 2428.47 552.32 457.37 590.11 2503.40 740.63 2697.03 789.50 2532.34 921.07 2489.13 947.32 2691.19 982.95
00003191 00000110 2426.55 549.33 455.27 593.46 2499.57 740.42 2692.44 787.98 2527.30 919.74 2485.67 947.59 2688.46 982.15
00003192 00000111 2423.18 550.58 454.23 591.63 2495.48 739.20 2685.89 785.30 2522.23 918.65 2483.04 948.29 2684.27 981.65
00003193 00000112 2417.64 552.21 454.41 591.03 2492.76 737.36 2680.89 784.36 2519.46 918.67 2480.11 946.32 2679.63 980.31
00003194 00000113 2411.12 552.58 455.29 593.07 2488.26 736.37 2673.29 784.05 2513.82 922.68 2474.98 945.17 2675.96 979.44
CROP_BBOX: 2151 142 3425 1542
