Video ID: 	ng5WSbZ9M08
H: 	1080
W: 	1920
FPS: 	29.97002997002997

FRAME INDEX X0 Y0 W H [Landmarks (5 Points)]

00003406 00000000 833.46 263.42 382.20 510.20 914.42 472.56 1082.57 456.82 995.26 578.60 958.71 658.87 1092.72 645.93
00003407 00000001 832.21 266.52 363.33 494.52 901.17 471.78 1061.73 465.82 977.03 582.62 940.68 655.91 1068.47 650.76
00003408 00000002 827.70 268.48 358.53 495.23 889.57 475.01 1048.90 473.35 958.48 584.20 923.09 651.81 1055.10 650.68
00003409 00000003 825.43 267.16 365.04 497.50 889.06 475.78 1047.12 472.05 949.67 582.61 915.04 652.67 1045.72 650.79
00003410 00000004 818.85 269.55 365.94 498.72 881.74 477.09 1036.22 474.99 936.90 584.60 906.25 655.62 1032.34 654.99
00003411 DELETE   815.33 273.40 363.74 498.14 877.24 476.87 1027.70 475.98 928.97 583.73 903.06 657.63 1024.16 658.08
00003412 00000006 812.57 274.91 361.21 496.97 874.13 477.15 1022.58 477.29 924.78 585.73 901.57 660.05 1019.26 661.36
00003413 DELETE   809.39 275.75 363.54 496.13 873.82 479.57 1024.95 478.66 927.28 586.64 900.39 659.33 1021.42 659.87
00003414 00000008 807.44 274.57 368.15 498.57 873.60 480.24 1026.94 475.80 931.30 585.79 903.10 660.02 1026.17 657.48
00003415 00000009 807.29 271.81 371.31 501.96 875.73 479.61 1032.12 471.37 939.06 582.69 909.77 660.58 1033.94 654.72
00003416 00000010 808.30 270.13 372.00 502.24 880.17 478.42 1038.01 468.28 948.13 581.52 916.01 659.53 1040.68 652.05
00003417 00000011 810.51 266.27 373.08 501.52 883.57 476.98 1044.00 466.57 955.31 578.35 919.82 657.59 1047.70 649.56
00003418 00000012 811.93 263.77 372.82 501.57 884.26 476.20 1048.10 463.85 959.53 575.74 920.66 656.40 1053.80 646.79
00003419 00000013 812.34 261.77 372.89 504.04 887.81 475.24 1049.94 462.29 965.46 575.45 926.31 655.88 1057.23 645.78
00003420 00000014 811.29 257.24 374.61 509.03 889.25 474.54 1050.97 460.20 969.71 575.29 930.87 656.75 1059.39 645.15
00003421 00000015 810.73 255.78 375.79 511.38 890.29 473.39 1052.04 458.63 971.97 574.52 932.56 656.37 1060.60 644.22
00003422 00000016 809.81 254.25 377.31 518.31 891.99 472.70 1051.99 457.78 973.54 573.99 933.56 655.61 1062.01 643.16
00003423 00000017 808.61 255.09 379.79 522.09 892.77 473.47 1050.57 456.52 974.36 572.77 935.75 656.27 1063.06 642.21
00003424 00000018 806.82 253.50 379.98 523.41 891.39 473.38 1050.01 456.86 973.65 572.08 934.69 656.70 1062.28 642.87
00003425 00000019 805.31 253.14 376.60 517.47 887.78 472.90 1048.90 459.06 969.66 570.92 928.78 655.07 1059.18 643.65
00003426 00000020 801.92 255.21 377.42 514.27 884.06 473.36 1046.63 459.86 965.77 571.80 923.02 654.40 1056.31 643.34
00003427 00000021 798.92 254.89 378.02 516.43 881.12 473.58 1044.39 460.58 962.54 572.23 919.86 654.63 1054.53 643.90
00003428 00000022 793.59 258.65 380.98 518.50 877.40 474.40 1040.80 461.40 958.41 573.93 916.79 656.11 1051.23 645.22
00003429 00000023 788.18 260.40 384.66 521.18 873.48 475.35 1036.67 461.68 954.78 574.72 917.40 659.65 1045.95 648.09
00003430 00000024 784.02 263.81 383.88 519.74 868.79 478.30 1032.54 463.39 950.44 579.59 915.59 664.74 1042.79 652.10
00003431 00000025 781.27 263.78 382.81 520.44 864.85 478.70 1029.86 464.34 946.93 581.39 912.12 667.60 1038.98 655.39
00003432 00000026 779.56 264.13 382.28 520.20 862.97 478.07 1028.12 465.00 944.49 580.94 910.21 667.51 1035.78 656.50
00003433 00000027 776.96 263.32 383.44 521.85 861.30 477.86 1026.03 464.66 943.39 582.13 909.55 667.85 1034.62 656.65
00003434 00000028 774.89 262.32 383.75 523.70 860.04 477.28 1025.97 465.04 942.63 582.83 908.18 668.13 1033.77 657.67
00003435 00000029 773.77 263.26 384.64 523.59 859.11 479.89 1025.79 466.94 942.45 585.01 907.75 669.42 1034.37 658.29
00003436 00000030 772.16 265.75 384.47 521.44 857.61 483.39 1025.21 469.20 941.79 585.84 906.89 670.68 1035.14 658.50
00003437 00000031 770.25 267.24 384.51 519.84 856.06 484.54 1022.70 469.31 940.09 587.52 907.02 670.66 1034.30 657.63
00003438 00000032 769.17 268.90 383.65 516.76 855.40 485.91 1022.92 469.87 940.46 588.95 905.29 670.71 1034.67 657.10
00003439 00000033 767.34 271.35 384.62 513.09 854.36 486.03 1022.28 469.57 940.10 589.34 903.56 669.93 1034.30 655.96
00003440 00000034 766.46 270.49 385.20 514.21 853.87 484.89 1022.26 468.64 940.24 588.93 903.46 669.52 1034.51 655.70
00003441 00000035 764.90 269.28 385.61 516.63 852.10 484.49 1021.31 468.39 939.19 588.04 902.27 669.22 1033.91 655.46
00003442 00000036 763.60 268.01 385.01 517.99 850.71 484.46 1020.31 468.47 937.71 587.18 900.57 669.04 1032.61 655.34
00003443 00000037 762.08 267.17 384.40 518.41 849.17 483.01 1019.70 467.58 936.47 585.16 899.86 668.42 1031.09 655.25
00003444 00000038 761.63 265.36 383.75 519.63 848.26 481.32 1019.49 466.05 936.05 584.39 898.70 668.12 1030.25 655.22
00003445 00000039 761.31 263.28 382.98 521.23 847.29 479.01 1019.53 463.71 936.33 582.92 897.04 666.93 1030.67 654.10
00003446 00000040 756.44 260.00 391.57 519.78 842.79 481.61 1018.92 458.44 933.69 586.73 895.97 673.42 1033.48 653.58
00003447 00000041 756.50 256.75 390.03 520.84 841.65 479.86 1017.89 457.23 932.74 584.85 893.79 671.65 1031.57 652.18
00003448 00000042 755.99 253.23 389.62 523.71 840.58 478.79 1016.81 456.10 931.69 583.76 892.55 670.49 1031.29 650.92
00003449 00000043 754.55 253.57 390.12 523.76 838.97 479.15 1014.43 456.26 929.91 583.98 890.62 670.29 1029.31 650.55
00003450 00000044 753.25 255.02 390.70 523.01 838.03 479.51 1013.22 456.75 928.58 583.65 889.15 670.22 1027.68 650.76
00003451 00000045 752.65 254.86 389.44 523.35 836.80 480.13 1011.54 456.68 927.38 583.40 888.27 670.61 1026.72 650.65
00003452 00000046 751.16 256.99 389.22 522.11 835.78 479.70 1009.87 457.14 925.52 583.45 886.47 670.96 1023.44 651.80
00003453 00000047 749.81 258.63 389.02 520.31 834.02 480.93 1007.61 458.11 923.92 585.08 885.36 672.07 1020.88 652.70
00003454 00000048 749.46 260.40 388.13 520.07 833.96 480.85 1006.56 458.51 922.54 584.99 884.52 672.61 1018.72 653.73
00003455 00000049 748.46 259.23 387.90 520.09 832.50 481.30 1005.44 458.89 921.32 586.34 883.57 673.06 1017.45 654.07
00003456 00000050 747.54 257.34 388.17 520.83 831.91 481.11 1004.92 459.34 920.99 586.93 883.26 672.87 1016.24 654.45
00003457 00000051 747.17 257.32 388.13 520.67 831.61 481.07 1004.63 459.30 920.47 586.63 882.82 672.88 1015.39 654.45
00003458 00000052 747.25 256.73 387.89 520.58 831.27 480.96 1004.37 459.00 920.37 586.23 882.41 672.80 1015.16 654.24
00003459 00000053 746.77 256.82 388.75 522.55 831.46 480.95 1004.15 459.01 920.21 586.34 882.22 672.93 1015.13 654.47
00003460 00000054 746.17 258.73 390.90 523.96 832.42 481.27 1004.63 459.96 920.50 586.58 882.20 673.26 1015.13 655.37
00003461 00000055 745.72 259.91 390.99 524.14 833.28 481.47 1004.07 460.98 920.06 586.84 880.98 673.03 1012.40 656.04
00003462 00000056 746.11 260.38 391.53 523.58 833.26 481.77 1004.78 462.10 919.98 587.42 880.22 672.80 1012.77 656.50
00003463 00000057 746.90 261.38 392.08 521.67 832.98 482.87 1007.15 461.78 920.94 587.01 879.11 671.90 1016.92 654.47
00003464 00000058 748.56 259.90 390.91 521.17 833.56 481.92 1008.32 460.93 921.69 585.64 878.52 668.73 1020.38 651.28
00003465 00000059 748.99 258.19 390.65 521.96 834.12 479.59 1008.13 459.56 921.94 584.17 878.14 666.82 1019.69 650.02
00003466 00000060 750.56 253.79 389.41 524.18 833.94 476.95 1007.71 457.20 921.90 582.92 878.20 665.14 1019.37 648.44
00003467 00000061 751.73 251.02 387.42 524.94 833.99 475.13 1006.76 455.94 921.23 579.89 878.13 663.60 1018.17 647.16
00003468 00000062 751.56 248.72 387.81 526.11 833.62 473.67 1005.80 454.11 920.77 578.25 879.80 663.86 1017.20 646.98
00003469 00000063 750.29 249.39 389.42 527.77 834.28 473.09 1003.71 452.41 920.68 577.15 883.36 665.13 1015.66 647.24
00003470 00000064 750.40 249.29 389.03 528.37 834.04 473.40 1003.69 451.98 920.78 577.60 884.30 666.21 1016.31 647.79
00003471 00000065 750.70 250.64 388.88 527.53 834.19 473.32 1004.21 452.24 920.68 577.97 884.07 666.77 1016.26 648.67
00003472 00000066 750.43 250.79 388.75 526.71 834.14 473.77 1003.75 452.95 920.04 578.46 884.15 667.38 1014.98 649.59
00003473 00000067 749.96 249.51 388.58 527.59 833.22 472.67 1002.91 452.31 919.05 577.76 883.27 666.76 1014.27 649.30
00003474 00000068 750.45 249.18 387.34 525.89 832.96 471.72 1002.50 451.48 918.49 576.00 882.99 665.58 1013.59 648.21
00003475 00000069 750.54 249.00 386.53 523.57 832.11 471.07 1002.06 450.92 917.79 575.49 882.29 665.09 1012.88 647.75
00003476 00000070 750.96 248.92 385.71 523.23 831.92 471.26 1002.23 451.22 917.61 575.37 881.25 664.68 1012.74 647.49
00003477 00000071 750.82 248.53 384.90 522.38 831.19 471.89 1001.26 451.69 916.95 576.18 881.58 665.14 1012.12 647.98
00003478 00000072 750.59 248.42 384.71 519.66 830.79 471.87 1001.68 451.88 916.93 575.41 881.30 664.36 1012.29 647.25
00003479 00000073 751.38 248.34 383.65 517.50 830.62 471.20 1001.88 451.63 916.59 575.03 880.91 663.68 1011.98 646.89
00003480 00000074 751.34 247.64 383.80 518.32 830.47 470.96 1001.54 451.37 916.35 574.67 880.96 663.33 1011.75 646.49
00003481 00000075 751.45 247.42 383.48 518.45 830.52 470.62 1001.32 451.15 916.21 574.40 880.98 663.26 1011.41 646.52
00003482 00000076 750.99 247.96 383.88 518.12 830.35 470.43 1000.95 451.11 916.00 574.59 880.92 663.27 1010.94 646.68
00003483 00000077 750.83 248.50 383.42 517.41 830.31 470.60 1000.40 451.69 915.64 574.86 880.56 663.40 1009.60 647.24
00003484 00000078 751.16 248.08 382.87 518.18 830.14 470.69 1000.51 452.06 915.26 575.85 880.12 664.34 1009.24 648.47
00003485 00000079 751.59 247.92 381.69 517.92 830.13 470.82 1000.12 452.43 915.05 576.26 879.97 664.47 1008.51 648.88
00003486 00000080 751.16 247.92 382.39 518.03 830.18 471.33 1000.23 452.54 915.09 576.12 880.01 664.50 1008.67 648.56
00003487 00000081 751.54 247.85 381.83 517.09 830.18 471.17 999.99 452.80 914.57 575.63 879.39 664.11 1007.93 648.50
00003488 00000082 751.13 247.91 381.68 516.20 829.50 470.38 1000.04 452.59 914.16 575.10 878.05 663.03 1007.32 647.80
00003489 00000083 752.06 247.07 380.58 516.61 829.86 469.38 1000.56 451.64 914.67 574.69 877.88 662.07 1007.89 646.95
00003490 00000084 751.79 248.58 382.62 518.65 829.82 469.95 1000.59 451.25 914.56 575.10 878.46 663.03 1009.06 647.09
00003491 00000085 750.35 249.70 386.78 524.40 831.47 469.23 1000.07 450.74 915.52 575.52 879.59 662.82 1010.17 646.89
00003492 00000086 750.90 249.45 386.03 524.76 832.20 468.82 1000.03 450.22 916.22 575.38 881.40 663.81 1009.70 647.79
00003493 00000087 752.42 246.84 382.13 520.75 830.32 469.04 999.15 449.79 914.49 575.31 882.04 664.64 1007.91 648.29
00003494 00000088 753.25 246.66 380.11 517.51 830.80 467.75 999.25 450.16 914.22 574.93 881.45 663.70 1005.57 648.85
00003495 00000089 753.21 247.30 382.40 520.22 831.53 468.57 999.77 450.47 914.47 575.52 883.17 665.32 1007.31 649.97
00003496 00000090 751.91 250.05 385.26 521.97 832.51 469.92 1000.79 452.50 914.73 578.74 883.03 667.82 1005.82 653.21
00003497 00000091 751.99 251.94 387.09 524.03 833.51 472.02 1001.68 453.81 915.39 579.73 884.02 669.26 1008.74 653.89
00003498 00000092 753.12 252.07 386.54 521.21 832.36 471.26 1002.48 453.19 914.81 577.17 881.30 665.56 1011.36 650.12
00003499 00000093 753.51 245.23 382.07 518.29 828.88 465.27 998.55 447.15 911.31 569.96 875.71 657.82 1008.31 642.30
00003500 00000094 755.34 240.57 376.52 516.96 826.16 459.43 994.73 442.42 905.91 562.62 869.87 650.88 1004.00 636.74
00003501 00000095 758.27 231.86 370.83 523.70 824.87 455.44 993.20 437.77 903.14 557.97 867.93 648.05 1002.33 634.11
00003502 00000096 758.71 227.59 369.53 522.97 823.25 452.64 992.45 436.09 900.28 556.63 864.75 645.86 998.47 633.20
00003503 00000097 760.32 227.90 367.22 519.90 823.81 451.73 991.46 437.14 899.50 558.03 863.51 644.19 996.05 633.22
00003504 00000098 761.45 235.86 362.61 515.30 822.65 456.50 987.27 446.78 897.67 562.97 866.44 640.86 992.64 631.19
00003505 00000099 759.20 236.97 371.43 516.54 824.68 457.78 992.84 445.17 899.86 565.44 864.70 650.24 996.58 640.38
00003506 00000100 757.92 242.42 373.20 515.44 825.91 461.21 993.17 448.92 900.49 569.41 867.28 655.17 995.82 645.30
00003507 00000101 757.13 241.43 373.85 518.07 826.09 461.01 992.75 448.12 900.07 568.59 867.90 656.00 994.52 645.81
00003508 00000102 762.12 240.97 360.67 513.95 821.65 458.46 985.41 449.24 892.97 564.29 865.08 643.13 989.40 634.15
00003509 00000103 762.42 235.09 355.87 511.92 819.10 450.88 982.33 442.66 886.20 555.41 857.65 634.99 985.87 626.58
00003510 00000104 754.34 225.85 365.68 517.77 814.85 439.72 975.08 430.97 877.42 542.92 853.05 628.42 976.62 622.11
00003511 00000105 758.28 230.30 357.69 510.72 814.51 436.92 978.60 432.90 876.32 538.60 846.92 624.65 973.06 619.42
00003512 00000106 758.35 229.56 357.15 508.45 813.31 434.54 976.47 430.93 873.56 536.62 844.36 621.91 970.09 617.01
00003513 00000107 759.14 228.36 356.07 506.45 813.89 430.96 975.56 429.57 871.84 534.26 842.36 618.70 969.10 615.69
00003514 00000108 759.52 226.62 357.65 506.01 814.55 428.41 974.85 428.15 870.27 531.74 842.69 616.36 968.50 614.26
00003515 00000109 761.31 223.91 357.78 507.93 817.15 427.02 975.53 427.93 871.82 530.92 845.88 614.33 968.05 613.25
00003516 00000110 765.26 222.28 357.93 510.28 820.50 425.55 978.17 427.03 873.87 530.89 850.51 613.53 968.81 613.06
00003517 00000111 770.39 219.62 357.41 512.31 824.22 426.44 985.03 427.01 878.51 533.92 854.07 615.89 974.55 614.84
00003518 00000112 774.52 220.28 362.51 510.72 825.61 428.12 989.65 424.56 884.42 534.89 860.88 619.12 981.34 614.97
00003519 00000113 778.27 223.44 365.33 506.76 830.59 429.02 996.61 424.26 894.89 538.81 870.91 621.41 992.07 616.28
00003520 00000114 783.15 217.92 366.14 512.43 842.19 429.69 1002.06 424.55 901.18 533.40 877.03 619.87 998.37 614.96
00003521 00000115 785.09 215.68 369.54 514.95 850.23 436.77 1012.24 430.90 911.82 536.04 883.90 619.04 1010.02 613.61
00003522 DELETE   788.43 221.11 371.99 510.33 857.69 440.71 1021.01 433.74 921.89 541.07 893.80 620.96 1020.19 615.01
00003523 00000117 792.38 226.29 374.84 507.77 863.64 444.57 1030.54 433.61 934.86 546.98 906.28 624.72 1034.63 615.56
00003524 00000118 797.18 231.61 375.06 502.86 872.27 446.40 1039.63 434.67 949.11 551.59 920.98 626.25 1047.81 616.51
00003525 00000119 799.46 231.48 377.47 504.68 882.05 449.78 1048.30 436.57 963.21 554.08 933.86 629.17 1058.59 618.39
00003526 00000120 814.38 232.18 371.80 505.91 891.06 450.74 1056.49 427.72 981.15 552.81 943.85 643.05 1068.04 623.24
00003527 00000121 815.31 231.71 377.67 507.70 898.00 452.03 1065.55 424.13 993.37 552.05 954.26 642.73 1081.60 618.31
00003528 00000122 820.94 233.47 379.12 502.91 906.28 453.37 1077.90 424.39 1004.82 553.97 963.27 641.62 1096.26 616.26
00003529 DELETE   827.67 231.85 377.59 502.13 915.21 451.37 1087.99 421.64 1016.40 550.04 973.40 638.69 1107.77 612.75
00003530 00000124 833.63 225.72 373.66 503.91 921.61 447.18 1091.86 419.80 1026.13 550.69 980.13 631.92 1112.22 608.83
00003531 00000125 832.83 232.38 382.27 496.45 931.48 439.94 1104.68 419.17 1027.93 543.58 990.78 624.32 1119.29 606.28
00003532 DELETE   834.53 225.68 382.74 501.41 933.12 434.42 1103.38 415.52 1026.61 539.90 987.74 620.48 1114.95 604.33
CROP_BBOX: 558 0 1406 908
