Video ID: 	8raFJwf8u54
H: 	1080
W: 	1920
FPS: 	25.0

FRAME INDEX X0 Y0 W H [Landmarks (5 Points)]

00007559 00000000 804.00 157.53 495.04 704.85 1055.24 418.42 1244.43 446.63 1208.81 564.78 1048.93 677.03 1202.57 700.75
00007560 00000001 810.60 153.84 488.42 700.02 1062.31 421.62 1244.94 444.67 1211.42 563.39 1070.95 679.39 1209.04 698.37
00007561 00000002 814.63 153.49 479.23 688.64 1062.72 420.45 1241.39 437.09 1212.32 558.46 1087.83 679.18 1216.12 692.81
00007562 00000003 812.40 149.59 481.15 691.34 1063.84 416.03 1239.92 433.27 1213.72 556.16 1090.14 677.84 1217.00 691.95
00007563 00000004 810.89 147.92 479.31 692.95 1064.38 414.88 1238.80 434.29 1212.67 556.94 1089.42 676.92 1214.05 692.67
00007564 00000005 808.75 149.48 481.91 705.63 1066.66 416.73 1240.27 439.73 1215.70 561.92 1079.02 677.64 1209.63 696.50
00007565 DELETE   803.34 163.26 485.56 705.81 1075.07 420.08 1246.10 446.53 1222.00 579.33 1069.11 688.52 1201.78 708.99
00007566 00000007 814.87 173.88 484.03 702.00 1088.35 430.09 1256.76 459.84 1233.48 590.99 1074.08 696.20 1204.61 720.18
00007567 00000008 824.56 169.64 485.01 694.68 1088.73 437.65 1262.98 461.84 1238.20 588.32 1090.93 694.28 1215.56 715.42
00007568 00000009 830.32 165.78 478.84 692.46 1095.08 435.04 1264.41 454.62 1245.95 585.77 1101.14 693.43 1220.44 711.19
00007569 00000010 827.89 164.37 478.61 689.85 1094.07 431.38 1261.08 450.84 1243.84 581.89 1104.73 690.49 1220.18 707.80
00007570 00000011 823.05 162.43 482.86 688.87 1097.25 434.11 1260.48 464.14 1243.21 583.49 1098.25 684.08 1211.78 710.04
00007571 00000012 821.70 157.69 481.45 692.75 1095.38 435.94 1258.53 464.08 1240.99 580.17 1095.59 682.41 1208.85 706.61
00007572 00000013 820.61 156.24 481.73 692.87 1093.23 425.82 1259.22 452.19 1240.07 576.18 1095.50 682.05 1210.71 704.51
00007573 00000014 817.72 153.25 478.40 695.45 1088.45 419.56 1256.00 447.35 1236.33 572.32 1093.41 679.28 1211.81 702.57
00007574 00000015 819.63 149.81 473.94 696.18 1087.17 413.89 1253.89 442.96 1231.88 567.74 1091.43 674.87 1210.69 699.02
00007575 00000016 817.17 146.71 474.15 697.77 1084.42 408.44 1251.37 438.82 1227.79 563.49 1086.76 671.42 1208.07 696.62
00007576 00000017 810.10 143.85 476.13 694.08 1077.71 404.92 1247.05 433.47 1225.55 559.05 1082.48 667.10 1207.46 690.59
00007577 DELETE   805.63 141.33 477.87 691.38 1070.90 401.76 1243.20 430.06 1219.23 554.77 1076.69 664.63 1205.67 687.98
00007578 00000019 795.05 140.53 486.38 694.48 1062.25 399.84 1238.48 428.86 1213.31 553.95 1061.40 661.97 1197.75 685.97
00007579 DELETE   793.06 148.65 486.34 678.85 1048.89 396.80 1239.59 427.65 1200.03 545.79 1054.72 662.26 1197.06 686.87
00007580 00000021 784.12 149.15 487.78 681.14 1042.42 396.98 1229.72 428.00 1193.49 545.63 1040.62 659.82 1184.98 684.68
00007581 00000022 774.48 144.71 491.68 687.80 1034.20 393.62 1223.13 424.14 1188.06 544.48 1028.59 657.11 1177.98 681.39
00007582 00000023 766.20 145.58 492.31 690.26 1028.28 391.06 1218.53 423.35 1185.54 542.30 1018.80 658.71 1169.98 684.19
00007583 00000024 764.97 134.72 493.03 704.20 1026.77 396.53 1205.32 422.43 1182.53 546.85 1011.91 658.97 1160.28 681.58
00007584 00000025 759.14 135.34 496.27 697.69 1018.85 397.54 1200.38 422.05 1176.14 545.38 1007.15 656.73 1158.52 678.13
00007585 00000026 753.85 133.31 496.86 695.56 1011.98 399.92 1196.58 420.33 1170.62 546.73 1003.92 656.35 1157.98 674.24
00007586 00000027 748.70 133.98 497.64 691.47 1005.75 399.01 1191.20 418.71 1164.05 545.48 1001.20 654.72 1155.03 671.85
00007587 00000028 746.21 136.69 497.64 692.89 1000.74 400.23 1187.96 419.88 1159.94 547.01 995.35 658.10 1151.17 675.25
00007588 00000029 743.45 138.02 498.78 694.39 997.91 398.79 1186.56 420.11 1158.12 546.60 990.27 658.75 1148.36 677.43
00007589 00000030 740.97 134.78 500.24 693.00 995.09 396.29 1184.46 416.76 1155.16 544.24 990.42 656.11 1148.25 673.91
00007590 00000031 744.60 132.86 497.41 691.38 995.57 397.24 1185.89 415.53 1155.79 542.56 994.65 654.98 1152.05 670.70
00007591 00000032 745.37 131.94 497.63 692.73 997.39 397.36 1186.21 414.98 1157.56 541.61 998.53 654.84 1153.92 669.84
00007592 00000033 746.54 132.18 498.21 694.48 998.25 395.71 1186.60 412.70 1158.53 539.92 999.01 654.81 1155.11 669.40
00007593 00000034 750.08 130.78 495.63 693.11 999.19 397.01 1187.40 412.35 1159.03 538.47 1002.38 654.05 1157.74 667.14
00007594 00000035 751.24 132.87 495.17 686.53 1001.12 398.00 1189.11 412.03 1160.31 538.80 1007.06 653.21 1160.30 665.09
00007595 00000036 754.59 131.06 493.57 687.10 1001.70 397.23 1189.20 411.52 1159.12 536.57 1006.72 650.22 1161.68 662.07
00007596 00000037 755.08 131.32 494.14 687.17 1000.72 397.12 1189.38 411.08 1158.40 536.01 1007.11 651.59 1162.19 663.18
00007597 00000038 755.85 131.05 496.92 694.21 1000.65 396.60 1190.50 410.41 1158.69 535.79 1006.70 654.66 1163.69 666.10
00007598 00000039 757.95 133.07 496.41 692.57 1002.68 398.86 1191.48 411.92 1160.13 537.44 1008.31 656.05 1164.66 667.01
00007599 00000040 760.73 132.32 495.83 692.11 1003.15 400.13 1193.19 412.25 1160.59 536.89 1009.92 656.02 1167.01 666.18
00007600 00000041 763.60 133.14 495.01 690.67 1004.45 402.21 1194.82 413.03 1161.70 536.78 1012.82 656.29 1170.14 665.41
00007601 00000042 769.42 136.04 490.88 686.89 1006.70 403.47 1197.11 414.11 1163.09 537.36 1016.36 657.18 1173.68 666.23
00007602 00000043 772.94 135.54 490.19 687.85 1009.33 403.35 1201.10 413.40 1166.61 536.99 1019.44 656.95 1178.63 665.49
00007603 00000044 778.83 136.56 486.92 685.69 1012.69 403.28 1204.69 414.66 1169.11 536.81 1023.03 654.99 1183.21 664.53
00007604 00000045 782.49 137.05 484.84 682.29 1016.01 401.27 1207.66 413.24 1172.01 534.68 1027.16 652.47 1185.73 662.38
00007605 00000046 784.54 135.16 484.45 680.84 1017.00 399.23 1209.25 411.21 1171.44 531.70 1030.39 649.16 1188.94 658.71
00007606 00000047 785.79 133.76 483.41 680.48 1016.92 397.87 1209.48 409.21 1171.19 529.67 1031.66 648.02 1190.25 656.97
00007607 00000048 786.69 133.88 483.36 680.04 1015.12 399.19 1208.34 410.44 1168.17 530.34 1030.08 647.25 1189.33 656.08
00007608 00000049 785.94 133.85 483.64 679.24 1013.02 399.68 1205.86 411.18 1164.22 531.27 1028.94 647.15 1186.62 656.11
00007609 00000050 784.63 133.48 485.33 682.21 1011.91 400.84 1206.79 411.95 1164.81 532.92 1029.77 650.06 1188.41 658.57
00007610 00000051 787.24 132.33 482.67 683.18 1013.37 400.39 1207.79 409.05 1167.51 533.15 1040.26 655.92 1194.30 662.20
00007611 00000052 788.77 136.46 481.98 680.45 1015.46 402.81 1209.05 411.42 1170.22 535.49 1044.59 660.03 1195.63 666.54
00007612 00000053 789.99 133.75 480.41 683.29 1017.72 400.17 1210.13 410.30 1172.01 533.44 1044.77 658.88 1194.86 666.67
00007613 00000054 791.51 132.79 478.50 681.80 1019.39 398.64 1210.06 407.85 1172.17 531.55 1046.99 658.10 1193.66 665.17
00007614 00000055 790.18 135.53 478.87 681.18 1015.97 401.06 1207.26 410.74 1167.43 534.54 1039.95 657.02 1190.63 664.62
00007615 00000056 788.36 136.62 480.02 681.26 1011.88 401.64 1203.88 410.90 1162.41 535.64 1035.22 657.06 1187.23 664.26
00007616 00000057 784.76 135.84 482.20 681.37 1007.56 402.53 1200.92 411.60 1157.85 535.99 1029.70 656.25 1183.67 663.31
00007617 00000058 781.15 134.16 485.67 683.77 1003.63 402.91 1198.46 410.12 1155.68 535.47 1025.26 655.89 1182.00 661.29
00007618 00000059 779.38 133.51 486.99 686.97 1001.89 401.63 1196.81 409.67 1153.50 535.24 1024.28 657.54 1180.69 663.54
00007619 00000060 780.85 133.85 486.21 693.86 1003.47 401.83 1197.22 410.63 1154.87 535.89 1027.09 661.21 1182.45 667.83
00007620 00000061 781.04 133.93 486.83 696.83 1005.05 402.35 1198.14 411.65 1157.02 535.65 1029.05 662.40 1184.21 669.49
00007621 00000062 782.31 132.75 485.71 696.36 1007.19 402.62 1199.94 410.64 1160.06 534.65 1034.51 664.29 1186.40 670.40
00007622 00000063 780.55 130.03 485.05 693.23 1004.35 403.02 1198.83 409.63 1158.11 535.41 1031.97 662.20 1184.34 666.87
00007623 00000064 781.36 131.43 483.82 685.79 1001.98 402.52 1198.43 408.59 1155.33 534.59 1029.21 658.65 1183.34 662.95
00007624 00000065 782.24 132.14 482.65 680.30 1001.72 401.61 1197.21 407.88 1153.79 533.11 1029.30 655.98 1181.86 660.48
00007625 00000066 786.21 130.76 481.20 681.82 1005.11 400.74 1199.74 406.22 1156.76 531.89 1033.10 655.36 1186.06 659.06
00007626 00000067 789.61 134.11 478.92 681.12 1011.58 400.65 1202.83 406.36 1163.44 531.48 1039.04 656.83 1189.18 660.99
00007627 00000068 795.56 135.94 479.43 684.84 1018.79 400.62 1212.12 407.50 1172.94 533.89 1043.03 659.73 1197.93 665.16
00007628 00000069 792.85 133.03 488.84 690.28 1019.28 402.96 1214.41 413.87 1175.85 538.11 1040.95 659.15 1200.32 667.84
00007629 00000070 796.30 132.69 488.66 692.28 1025.56 405.61 1219.48 416.60 1182.79 542.28 1042.99 659.37 1203.82 668.43
00007630 00000071 798.57 134.10 490.59 691.44 1028.63 407.03 1225.98 419.30 1186.76 544.66 1043.29 659.75 1207.08 669.95
00007631 00000072 801.85 136.31 491.48 694.06 1035.49 408.85 1232.14 421.28 1195.10 548.46 1048.11 663.39 1211.27 673.85
00007632 00000073 805.14 140.01 494.42 701.12 1045.54 410.81 1241.87 424.09 1209.60 550.15 1055.23 669.97 1218.70 681.10
00007633 00000074 815.87 144.12 489.61 700.52 1057.98 415.75 1249.27 424.98 1222.08 554.14 1070.70 676.82 1226.42 684.90
00007634 00000075 827.21 150.71 484.05 692.28 1069.34 419.64 1258.42 426.93 1232.24 555.06 1087.43 677.39 1239.11 683.31
00007635 DELETE   837.30 152.78 477.65 687.09 1082.52 419.02 1265.16 430.60 1242.17 551.99 1106.11 674.53 1247.03 683.73
00007636 00000077 839.64 156.81 479.46 683.80 1094.41 408.82 1282.97 427.66 1256.22 549.81 1113.19 670.70 1257.55 683.34
00007637 DELETE   849.29 152.55 474.28 690.48 1102.14 404.39 1285.94 421.28 1260.70 545.76 1123.38 672.41 1264.67 683.63
00007638 00000079 855.60 155.47 476.72 693.67 1109.80 407.43 1293.87 424.34 1269.09 548.95 1123.65 674.32 1268.61 686.20
00007639 00000080 858.90 159.69 475.36 689.64 1112.30 412.40 1297.84 429.95 1272.53 554.99 1126.94 678.07 1272.44 690.52
00007640 00000081 863.50 160.88 472.76 679.73 1113.46 413.63 1302.39 431.70 1273.63 554.04 1135.87 678.12 1279.02 690.84
00007641 00000082 865.62 158.32 470.56 677.93 1113.57 413.12 1302.19 431.99 1270.96 552.58 1140.27 677.20 1279.48 690.45
00007642 00000083 867.32 157.64 469.17 680.41 1113.67 416.41 1302.12 433.23 1271.64 554.60 1142.49 680.56 1280.99 692.04
00007643 00000084 865.60 159.47 470.10 682.84 1111.67 418.50 1299.62 435.04 1269.68 555.86 1141.47 681.86 1279.91 692.80
00007644 00000085 864.86 159.23 470.14 683.33 1110.03 418.20 1298.00 433.88 1267.91 556.01 1140.57 681.94 1279.03 692.03
00007645 00000086 861.27 157.37 472.84 685.33 1106.85 416.43 1296.03 431.67 1265.30 555.73 1136.89 681.33 1277.63 690.83
00007646 00000087 857.44 154.30 473.19 685.17 1103.18 414.15 1292.30 429.65 1261.42 552.58 1133.28 678.59 1273.96 688.20
00007647 00000088 859.07 145.79 469.90 691.19 1103.74 417.48 1282.34 429.69 1259.24 550.13 1129.49 675.56 1264.62 685.89
00007648 00000089 857.02 145.76 471.39 691.59 1101.84 416.36 1280.97 427.89 1258.45 549.23 1128.00 675.32 1264.27 684.99
00007649 00000090 855.33 147.35 472.52 688.00 1100.62 414.41 1278.46 425.39 1257.99 548.31 1124.67 673.28 1261.49 682.51
00007650 00000091 852.07 146.90 473.67 686.80 1097.69 414.18 1275.32 423.45 1255.64 547.22 1119.63 672.51 1256.95 680.25
00007651 00000092 846.34 145.39 477.98 692.45 1093.38 414.43 1271.74 421.84 1253.79 549.10 1108.88 671.89 1251.18 678.34
00007652 00000093 842.01 145.97 479.61 694.94 1089.38 415.47 1268.77 422.70 1250.87 552.88 1097.98 672.73 1243.60 679.57
00007653 00000094 839.28 146.25 479.27 689.74 1085.44 413.95 1266.21 418.88 1247.96 549.68 1095.88 669.79 1243.48 674.66
00007654 00000095 837.69 143.66 476.91 682.72 1082.38 412.26 1264.14 416.11 1245.53 545.71 1095.20 665.30 1242.73 669.08
00007655 00000096 835.07 144.45 478.12 683.34 1081.74 415.94 1262.32 419.28 1245.12 548.78 1091.94 665.80 1240.67 669.39
00007656 00000097 827.62 146.47 480.40 687.61 1084.89 427.74 1265.14 441.03 1249.30 556.64 1084.44 670.05 1232.56 681.91
00007657 00000098 825.63 147.37 479.73 692.85 1081.45 426.11 1261.50 438.66 1246.68 559.52 1079.31 671.88 1228.03 683.33
00007658 00000099 825.64 152.49 479.23 690.29 1081.66 422.45 1258.91 435.14 1243.68 562.21 1081.66 673.77 1226.23 685.58
00007659 DELETE   828.89 151.74 478.14 695.03 1085.01 424.18 1262.46 434.49 1246.56 564.57 1083.05 675.78 1229.31 685.98
00007660 00000101 835.14 158.15 475.64 693.15 1094.14 429.57 1265.73 437.53 1253.39 570.95 1090.41 680.36 1231.02 689.14
00007661 00000102 833.60 169.50 479.10 691.09 1105.09 425.40 1277.24 440.53 1262.79 578.45 1094.52 684.83 1235.98 696.48
00007662 00000103 841.15 174.11 475.40 688.84 1110.03 432.00 1278.73 444.87 1266.13 583.17 1102.41 689.43 1240.50 699.19
00007663 00000104 844.03 174.06 474.85 692.23 1111.89 436.70 1279.86 448.97 1268.33 585.30 1106.57 692.65 1243.74 701.87
00007664 00000105 844.83 175.94 474.28 689.59 1112.45 439.93 1280.40 451.41 1267.96 588.21 1110.03 695.09 1244.53 703.65
00007665 00000106 843.02 175.72 474.18 687.48 1110.78 440.39 1279.60 451.37 1265.97 588.65 1108.92 694.76 1243.09 702.91
00007666 00000107 842.98 167.30 472.95 688.68 1104.53 448.30 1273.18 451.72 1262.45 588.61 1105.15 694.71 1236.46 700.21
00007667 DELETE   834.89 164.65 474.35 686.33 1101.72 457.15 1272.80 462.89 1262.44 592.45 1096.15 693.70 1231.24 700.81
00007668 DELETE   830.08 164.96 476.74 688.35 1092.39 452.31 1267.07 458.00 1255.63 588.26 1086.76 691.55 1226.08 698.65
00007669 DELETE   821.27 163.49 482.67 699.20 1086.23 438.86 1262.23 451.12 1250.64 582.53 1078.51 689.06 1220.70 701.70
00007670 00000111 812.35 164.66 480.77 698.97 1079.28 432.21 1252.15 448.45 1242.80 578.12 1069.86 684.33 1211.94 700.17
00007671 00000112 801.99 159.28 484.85 701.03 1069.03 427.56 1244.74 444.82 1232.91 575.37 1057.33 680.60 1204.00 697.05
00007672 00000113 792.37 153.68 490.51 703.31 1059.82 422.99 1237.20 441.80 1222.72 571.18 1047.06 677.33 1196.02 694.66
00007673 00000114 789.30 165.85 490.37 687.26 1044.80 420.14 1236.00 434.37 1207.24 570.17 1047.20 680.56 1203.87 692.34
00007674 00000115 785.13 160.58 486.69 686.78 1033.74 419.61 1226.38 430.81 1195.18 565.30 1047.70 680.23 1201.81 687.79
00007675 00000116 782.74 153.22 479.65 684.47 1024.54 417.13 1219.35 429.03 1183.75 558.86 1056.28 680.21 1202.84 686.44
00007676 00000117 782.62 150.57 472.77 684.46 1023.56 423.04 1204.37 428.86 1179.70 555.24 1059.06 681.27 1189.89 686.05
00007677 00000118 779.61 151.43 474.59 678.88 1016.78 421.25 1200.76 425.50 1174.93 547.17 1059.49 679.65 1191.49 682.97
00007678 00000119 774.69 146.97 479.02 683.72 1012.57 416.03 1197.41 420.62 1169.73 543.56 1052.55 677.05 1187.74 680.64
00007679 00000120 770.64 141.69 481.91 688.85 1009.77 412.92 1193.71 416.14 1166.52 540.43 1050.79 677.26 1185.25 679.43
00007680 00000121 765.73 136.86 488.11 697.66 1006.12 411.86 1191.27 415.87 1163.25 538.62 1043.63 675.82 1182.39 678.59
00007681 00000122 760.47 132.33 493.59 707.89 999.33 408.41 1188.65 417.04 1156.11 542.56 1028.22 674.73 1173.76 681.09
00007682 00000123 761.18 132.92 491.69 709.41 995.47 407.25 1185.18 416.47 1150.52 542.75 1020.69 672.98 1168.46 679.97
00007683 00000124 761.52 133.22 492.51 712.59 990.58 407.03 1181.35 414.91 1145.80 541.57 1014.33 673.24 1165.83 679.32
00007684 00000125 760.02 131.42 494.47 716.56 989.44 407.16 1182.31 415.83 1145.41 542.97 1007.50 672.23 1164.18 679.26
00007685 00000126 759.59 131.74 494.58 715.56 988.43 406.89 1182.08 415.65 1144.33 543.36 1003.88 670.59 1163.01 677.84
00007686 00000127 760.82 132.15 494.50 711.39 986.73 406.77 1183.62 415.90 1142.58 542.45 1000.18 668.44 1163.28 676.07
00007687 00000128 759.84 131.49 495.76 708.96 986.44 405.73 1184.99 415.62 1143.73 540.55 995.49 663.28 1163.37 671.78
00007688 00000129 758.55 130.28 496.01 705.60 984.84 404.89 1184.98 415.68 1142.75 538.56 991.65 658.95 1162.32 668.28
00007689 00000130 756.86 130.11 496.91 703.43 981.83 403.16 1184.70 413.83 1140.70 537.93 988.53 658.28 1161.43 667.56
00007690 00000131 755.28 130.42 497.24 702.12 977.81 402.73 1181.88 413.61 1136.30 538.35 986.99 658.69 1160.28 667.97
00007691 00000132 754.22 129.63 495.68 703.83 975.43 402.86 1178.96 413.71 1133.48 538.86 985.93 660.18 1158.33 669.30
00007692 00000133 752.56 128.30 495.23 706.96 972.59 402.95 1176.95 414.01 1130.88 538.76 982.79 660.22 1157.35 669.45
00007693 00000134 750.85 127.20 495.40 708.10 970.32 402.25 1175.72 413.79 1129.06 537.02 980.55 659.01 1156.43 668.60
00007694 00000135 749.43 127.92 495.84 707.51 968.32 401.02 1175.42 412.73 1127.54 535.92 976.54 657.70 1155.42 667.46
00007695 00000136 748.06 125.24 495.92 709.26 967.26 398.11 1173.92 410.59 1126.50 534.00 974.24 655.75 1153.09 666.17
00007696 00000137 747.86 123.51 495.80 708.20 967.18 395.59 1173.54 408.44 1126.07 532.32 973.63 653.82 1151.72 664.54
00007697 00000138 747.36 121.91 495.66 708.12 967.63 393.12 1173.07 406.60 1126.66 530.09 974.57 651.33 1151.92 662.42
00007698 00000139 748.06 120.99 496.04 708.51 968.66 391.22 1173.75 404.06 1127.22 528.15 975.23 649.61 1153.12 660.00
00007699 00000140 747.97 119.62 496.25 708.91 969.84 389.58 1174.61 402.74 1127.64 526.77 974.46 648.16 1152.08 658.79
00007700 00000141 748.93 118.34 495.62 711.21 971.54 387.51 1175.26 400.03 1129.28 526.10 975.25 647.94 1152.22 658.03
00007701 00000142 749.30 118.04 494.49 713.18 972.36 385.71 1174.42 397.72 1130.36 524.75 975.63 648.51 1150.95 658.28
00007702 00000143 748.86 118.26 495.23 715.52 974.81 384.69 1175.62 398.16 1134.32 522.81 977.89 649.24 1152.06 660.24
00007703 00000144 750.77 117.78 499.10 710.92 979.79 393.10 1182.13 412.71 1141.10 519.43 982.22 646.76 1156.75 663.08
00007704 00000145 752.32 117.49 499.36 702.09 984.18 391.74 1185.29 410.12 1142.68 519.00 989.10 641.38 1159.24 656.43
00007705 00000146 758.23 117.90 490.91 691.73 981.27 391.76 1186.08 401.84 1144.42 509.01 1011.16 640.38 1170.11 648.50
00007706 00000147 760.71 120.60 490.43 689.48 986.27 391.36 1188.28 397.72 1150.36 507.39 1024.27 642.16 1178.54 646.94
00007707 00000148 760.72 119.90 493.50 694.25 1001.47 389.72 1190.11 400.69 1159.07 510.76 1029.30 644.30 1176.34 651.83
00007708 00000149 764.22 123.08 493.67 693.46 1005.70 393.26 1195.17 404.83 1163.86 517.14 1029.47 647.24 1178.54 655.15
00007709 00000150 770.70 124.41 489.89 695.75 1013.16 400.05 1199.46 413.03 1168.31 522.36 1033.33 649.75 1181.49 659.04
00007710 00000151 776.27 129.22 489.88 698.39 1017.68 401.31 1207.06 413.60 1176.41 526.53 1034.47 655.25 1189.79 664.55
00007711 DELETE   778.52 136.10 493.26 692.38 1018.97 397.51 1220.27 413.72 1180.64 533.11 1041.66 661.97 1199.70 672.82
00007712 00000153 790.02 138.08 485.70 690.35 1025.66 399.85 1225.00 413.63 1184.71 536.96 1058.28 666.81 1209.84 675.62
00007713 00000154 791.04 130.55 485.43 701.53 1030.65 409.62 1220.49 423.23 1187.98 540.73 1060.79 668.32 1206.56 678.67
00007714 00000155 793.13 129.77 486.73 701.68 1033.15 411.30 1222.81 422.43 1191.72 538.61 1070.23 670.65 1212.55 679.04
00007715 00000156 794.68 128.36 485.30 705.50 1036.13 408.34 1221.74 420.18 1192.09 539.26 1070.47 669.40 1210.04 678.50
00007716 00000157 795.37 126.78 484.93 708.24 1037.94 407.11 1221.49 419.98 1192.74 539.17 1071.18 668.72 1209.33 678.66
00007717 00000158 794.26 127.61 485.20 706.65 1037.94 406.33 1220.51 419.88 1191.97 539.68 1070.04 667.47 1207.83 677.98
00007718 00000159 792.13 126.36 485.64 708.64 1036.03 406.17 1219.44 420.78 1190.34 539.40 1066.83 667.27 1206.15 678.52
00007719 00000160 791.49 128.53 483.88 704.50 1032.88 406.73 1216.81 421.18 1187.23 539.62 1062.95 667.04 1203.27 678.21
00007720 00000161 789.07 128.99 483.64 702.33 1030.34 406.68 1214.31 420.57 1185.87 538.97 1060.84 666.47 1202.09 677.08
00007721 00000162 785.26 127.71 485.61 702.54 1029.61 405.11 1214.63 421.33 1185.66 539.99 1056.68 664.97 1199.84 677.31
00007722 00000163 784.16 126.96 486.27 704.25 1029.30 404.38 1212.83 420.39 1185.49 539.63 1055.55 664.19 1198.58 676.35
