Video ID: 	9K5mkIJOXx8
H: 	1080
W: 	1920
FPS: 	25.0

FRAME INDEX X0 Y0 W H [Landmarks (5 Points)]

00001259 00000000 958.92 205.40 392.90 565.56 1072.48 428.18 1255.53 445.81 1165.67 518.15 1070.57 617.02 1232.98 631.87
00001260 00000001 957.09 202.62 389.96 565.17 1067.91 427.23 1252.21 444.84 1161.84 516.41 1067.86 614.96 1231.10 629.61
00001261 00000002 954.60 201.55 392.36 568.74 1069.22 428.59 1259.95 447.32 1161.36 519.53 1068.67 619.41 1233.40 634.81
00001262 00000003 952.34 202.82 391.28 570.90 1066.34 429.36 1256.83 445.96 1159.56 521.42 1066.53 621.51 1232.20 635.17
00001263 00000004 949.63 200.34 392.66 587.75 1064.63 429.37 1256.68 445.04 1158.79 523.30 1062.50 627.72 1231.53 640.53
00001264 00000005 949.69 198.13 390.37 599.59 1064.12 428.20 1255.38 443.24 1157.15 523.16 1061.57 633.50 1228.63 646.16
00001265 00000006 948.41 196.76 390.89 604.90 1062.97 427.97 1254.93 442.59 1156.44 524.03 1060.67 636.02 1228.41 648.43
00001266 00000007 945.86 196.99 392.69 592.01 1060.60 427.09 1254.79 444.22 1155.54 521.96 1059.02 626.12 1230.43 640.13
00001267 DELETE   944.56 193.85 393.75 582.71 1058.74 425.26 1254.07 442.38 1154.51 517.91 1058.69 618.35 1232.27 632.25
00001268 DELETE   945.28 191.26 392.30 578.28 1058.92 421.94 1254.86 439.73 1155.74 513.95 1059.17 613.67 1233.04 628.12
00001269 00000010 947.21 188.35 392.66 580.68 1060.67 418.59 1254.86 436.52 1155.60 510.26 1061.96 612.60 1232.39 627.14
00001270 DELETE   946.87 189.25 391.98 580.25 1062.89 416.28 1252.24 432.78 1156.97 507.41 1066.67 614.47 1226.99 628.31
00001271 00000012 948.26 186.94 390.62 574.17 1064.43 414.03 1250.52 431.88 1156.32 505.62 1067.65 609.63 1223.94 624.56
00001272 00000013 946.45 185.16 393.59 566.22 1060.54 408.08 1253.20 429.38 1153.40 500.59 1062.06 602.76 1224.79 620.71
00001273 00000014 943.98 179.90 397.05 575.41 1058.34 400.05 1250.38 424.80 1149.75 496.06 1056.27 598.83 1220.14 619.79
00001274 00000015 939.02 173.46 403.74 590.90 1051.44 395.03 1247.13 419.36 1138.92 494.24 1044.92 600.11 1213.59 620.59
00001275 00000016 937.37 174.17 405.24 593.06 1047.84 394.37 1245.66 420.09 1132.19 496.72 1038.40 601.53 1207.64 623.24
00001276 00000017 936.59 178.64 404.07 585.07 1045.43 397.38 1241.35 423.37 1129.34 498.99 1037.12 602.39 1202.25 624.50
00001277 00000018 933.39 185.90 403.78 579.03 1043.70 401.74 1238.96 430.72 1126.69 508.11 1034.20 607.62 1194.55 632.56
00001278 00000019 931.03 195.81 402.86 575.09 1043.35 412.20 1239.50 440.34 1127.52 524.10 1036.50 619.18 1194.56 643.87
00001279 00000020 939.97 215.68 394.00 565.15 1046.87 420.55 1237.32 450.01 1131.17 530.76 1041.41 628.19 1193.45 651.80
00001280 00000021 941.29 216.44 397.71 578.52 1053.86 425.74 1240.33 450.10 1142.81 538.85 1053.01 636.70 1202.69 655.86
00001281 00000022 944.25 217.10 397.48 583.66 1062.12 425.49 1246.45 449.24 1153.61 537.80 1059.42 635.49 1211.50 654.60
00001282 00000023 951.00 210.05 395.29 583.77 1070.18 421.88 1253.86 445.65 1163.97 529.27 1065.12 629.03 1220.92 648.53
00001283 00000024 955.13 205.93 390.91 575.27 1073.59 420.48 1256.48 440.27 1170.74 521.69 1068.85 621.29 1229.11 638.31
00001284 00000025 957.56 200.08 391.97 572.21 1076.27 417.64 1259.21 438.10 1174.36 520.82 1075.27 617.68 1232.25 634.94
00001285 00000026 958.79 201.54 390.90 569.54 1077.37 418.71 1260.43 439.33 1176.13 523.46 1077.57 619.69 1233.16 637.16
00001286 00000027 957.21 209.02 394.25 568.56 1079.48 424.13 1260.77 445.45 1179.26 532.21 1079.44 626.74 1230.92 644.52
00001287 00000028 957.65 211.02 396.82 572.32 1082.95 425.59 1263.25 446.59 1183.77 539.87 1084.78 633.23 1232.09 650.55
00001288 00000029 958.13 209.15 397.92 573.40 1084.57 423.28 1265.30 443.64 1185.93 536.64 1086.20 631.86 1232.77 648.82
00001289 00000030 959.19 206.68 396.14 571.64 1084.89 419.47 1267.08 439.89 1186.70 529.56 1086.84 628.53 1232.63 645.72
00001290 00000031 961.48 203.95 395.01 571.41 1086.43 416.71 1270.06 435.85 1189.55 524.79 1089.19 626.67 1236.39 643.22
00001291 00000032 961.43 204.07 397.94 576.29 1089.63 415.42 1271.42 436.04 1191.51 524.48 1090.01 625.76 1237.73 643.46
00001292 00000033 962.92 204.63 398.20 578.14 1092.20 416.96 1274.42 437.80 1194.26 526.82 1090.95 629.22 1239.13 646.97
00001293 00000034 964.68 208.98 396.70 584.78 1094.80 417.69 1274.26 441.72 1193.34 528.64 1088.23 627.53 1234.86 647.26
00001294 00000035 965.90 206.71 395.56 586.43 1095.73 416.81 1274.63 441.32 1193.20 526.78 1089.27 625.92 1234.66 646.19
00001295 00000036 966.78 207.12 395.17 584.27 1095.47 414.47 1274.85 439.33 1192.80 524.33 1090.38 623.10 1235.88 643.51
00001296 00000037 966.33 205.67 395.61 583.24 1094.80 412.81 1274.55 437.49 1192.21 522.64 1089.75 621.46 1235.52 641.64
00001297 00000038 962.96 199.88 397.90 577.66 1091.38 411.94 1275.59 435.08 1193.19 522.04 1090.31 623.36 1240.51 642.66
00001298 00000039 962.09 200.95 396.89 574.97 1088.82 411.06 1274.46 434.16 1192.08 520.43 1089.23 622.13 1240.83 641.40
00001299 00000040 958.75 191.73 404.59 591.31 1093.36 405.73 1280.34 434.88 1192.02 519.26 1086.90 617.32 1241.29 642.95
00001300 00000041 962.40 198.40 392.75 575.27 1084.91 409.51 1271.49 429.61 1189.25 519.00 1087.94 621.57 1238.79 638.64
00001301 00000042 961.01 200.26 394.78 573.29 1083.98 410.99 1269.55 429.69 1187.74 517.43 1087.51 621.49 1237.60 637.31
00001302 00000043 960.73 200.31 393.54 573.96 1083.62 414.12 1266.92 432.16 1186.90 517.37 1086.12 621.49 1236.36 637.05
00001303 00000044 959.50 200.35 393.14 573.86 1082.13 414.83 1264.44 432.07 1184.27 516.06 1084.17 621.07 1234.91 636.03
00001304 00000045 959.00 200.69 391.94 574.93 1081.30 415.61 1262.33 431.26 1183.66 515.06 1083.60 620.41 1235.44 634.07
00001305 00000046 958.13 196.71 392.19 578.05 1079.84 414.22 1261.81 430.27 1182.68 513.30 1082.72 618.42 1236.29 632.35
00001306 00000047 958.49 197.58 391.63 576.77 1079.66 413.16 1260.75 428.36 1182.16 512.54 1083.42 617.10 1236.48 630.18
00001307 00000048 957.31 197.92 391.33 577.08 1078.07 412.47 1259.95 427.44 1180.71 510.31 1081.82 616.29 1235.94 629.09
00001308 00000049 956.52 198.30 390.32 576.15 1076.47 412.08 1258.68 427.51 1179.03 508.57 1079.83 614.32 1235.86 627.35
00001309 00000050 956.14 199.51 390.21 575.84 1076.00 412.11 1257.97 428.28 1177.65 508.47 1078.35 613.69 1235.21 627.31
00001310 00000051 955.78 200.89 388.71 576.43 1075.20 413.51 1255.98 429.11 1175.53 510.92 1077.47 615.15 1233.25 628.21
00001311 00000052 955.89 200.15 387.68 575.77 1073.62 414.08 1255.36 429.34 1173.92 511.48 1076.97 616.03 1233.12 628.70
00001312 00000053 955.27 201.16 388.18 575.13 1073.27 414.16 1255.29 429.21 1173.80 511.89 1076.24 615.79 1232.68 628.22
00001313 00000054 955.51 198.56 388.44 578.14 1073.20 412.71 1255.12 427.39 1173.87 511.86 1076.72 615.79 1232.59 627.83
00001314 00000055 956.11 199.42 387.97 575.98 1073.57 411.86 1255.56 426.66 1174.80 510.94 1077.02 614.67 1233.49 626.88
00001315 00000056 956.95 192.15 391.16 585.34 1076.28 407.92 1263.74 427.56 1175.87 509.42 1076.99 612.56 1240.83 629.19
00001316 00000057 957.61 191.03 390.69 583.73 1077.72 405.77 1264.04 426.05 1177.08 507.27 1078.18 610.07 1241.22 627.25
00001317 00000058 959.25 189.78 388.42 581.20 1079.22 408.49 1265.38 428.26 1176.73 506.59 1078.84 609.33 1242.31 626.16
00001318 00000059 959.71 190.39 387.01 580.37 1081.04 410.42 1265.34 429.72 1177.57 505.71 1078.80 608.48 1241.88 624.86
00001319 00000060 959.29 189.42 387.05 579.18 1081.16 410.63 1265.15 429.36 1177.75 504.61 1079.45 607.30 1242.31 623.13
00001320 00000061 958.11 187.44 387.74 580.58 1080.37 410.02 1264.57 429.13 1177.61 503.86 1078.91 606.54 1241.90 622.64
00001321 00000062 957.15 186.62 387.63 581.63 1079.20 409.92 1263.22 428.98 1176.37 503.69 1078.27 606.72 1240.75 622.80
00001322 00000063 955.87 186.75 387.10 583.22 1077.64 409.41 1262.28 428.77 1175.71 503.14 1077.45 608.39 1239.27 624.78
00001323 00000064 954.69 186.40 386.99 576.14 1075.52 409.01 1259.01 428.74 1173.56 503.06 1077.61 607.01 1234.66 623.97
00001324 00000065 953.38 188.39 386.12 571.57 1072.40 409.11 1256.91 428.09 1171.32 503.56 1077.22 606.97 1233.12 623.28
00001325 00000066 951.33 188.02 385.30 567.38 1068.92 409.54 1254.94 429.56 1167.52 505.55 1074.12 606.18 1230.19 623.32
00001326 00000067 948.18 187.28 388.64 578.65 1066.95 406.91 1252.68 428.03 1164.12 505.72 1069.38 607.17 1226.92 625.02
00001327 00000068 945.42 188.13 390.42 586.09 1065.08 405.45 1250.82 428.20 1160.15 508.11 1064.54 611.37 1221.58 630.94
00001328 00000069 945.08 188.09 391.44 577.21 1063.82 405.38 1250.92 428.52 1158.20 508.36 1065.04 607.74 1221.95 627.53
00001329 00000070 945.74 188.08 391.85 565.02 1064.23 402.13 1253.58 426.17 1159.82 502.26 1066.21 600.36 1225.83 620.69
00001330 00000071 948.56 187.80 391.87 560.93 1068.12 402.61 1255.35 424.40 1164.83 500.79 1073.00 600.02 1229.28 618.65
00001331 00000072 951.44 188.22 391.51 564.15 1073.48 404.41 1258.26 425.79 1171.66 501.72 1078.86 602.65 1232.17 620.94
00001332 00000073 954.06 190.12 391.08 567.73 1076.36 406.28 1259.25 427.78 1172.79 504.97 1079.93 605.77 1231.88 624.25
00001333 00000074 954.26 189.67 392.27 563.21 1077.95 407.83 1261.25 428.27 1176.68 507.03 1085.80 606.55 1235.60 623.88
00001334 00000075 956.08 188.42 392.01 564.93 1080.16 406.10 1264.72 426.15 1180.83 506.30 1086.36 605.13 1240.10 622.10
00001335 00000076 955.50 185.04 394.15 570.78 1081.10 402.57 1265.38 422.53 1182.80 500.75 1085.96 601.22 1243.06 617.93
00001336 00000077 954.24 181.50 394.78 576.45 1081.20 396.30 1263.37 419.39 1181.94 493.07 1080.87 594.01 1241.13 613.46
00001337 00000078 952.72 176.31 395.43 584.30 1077.84 391.53 1261.62 415.30 1178.21 486.26 1074.78 590.21 1239.94 610.29
00001338 00000079 950.82 174.84 395.38 581.38 1074.78 390.12 1258.57 413.91 1174.31 484.18 1073.30 588.54 1236.66 608.60
00001339 00000080 949.13 174.33 394.71 576.75 1071.01 389.41 1256.74 412.78 1169.73 481.53 1070.99 586.94 1235.08 606.58
00001340 00000081 946.18 171.99 396.17 580.94 1069.21 387.32 1255.35 411.84 1167.50 480.66 1067.92 585.96 1232.65 606.30
00001341 00000082 946.20 174.13 394.86 584.23 1068.55 386.32 1254.62 411.85 1164.83 481.57 1064.68 586.95 1230.74 608.18
00001342 00000083 944.57 171.35 396.30 595.39 1066.96 386.38 1253.72 411.52 1163.05 481.56 1062.51 590.48 1229.47 611.44
00001343 00000084 944.30 172.02 396.04 595.78 1065.34 385.57 1251.67 410.00 1161.33 480.52 1061.90 592.10 1226.34 612.74
00001344 00000085 942.79 170.50 396.95 592.58 1064.38 384.11 1250.25 408.07 1160.66 479.60 1061.77 591.18 1223.39 611.38
00001345 00000086 943.48 170.24 396.13 585.10 1063.88 384.36 1248.32 407.50 1159.54 478.42 1064.27 589.97 1221.34 609.38
00001346 00000087 943.46 171.54 396.29 579.66 1063.06 385.11 1247.73 407.79 1159.40 478.63 1065.80 589.22 1221.60 608.14
00001347 00000088 943.00 171.59 397.00 579.45 1062.11 385.96 1248.66 408.89 1158.84 478.98 1065.18 590.10 1221.71 609.19
00001348 00000089 945.32 173.09 394.93 576.72 1062.88 387.16 1249.19 409.89 1158.97 479.93 1066.23 590.69 1222.16 609.80
00001349 00000090 945.98 173.87 394.63 578.80 1064.05 389.14 1249.88 412.17 1160.02 481.63 1066.86 592.33 1223.14 611.74
00001350 00000091 947.79 174.59 393.76 579.49 1067.43 394.63 1252.39 418.12 1163.48 485.08 1068.77 594.09 1226.03 613.74
00001351 00000092 949.42 178.35 392.14 576.04 1070.83 398.16 1255.23 422.53 1167.04 487.67 1069.65 595.09 1228.04 615.45
00001352 00000093 952.12 181.00 391.14 573.74 1074.30 400.71 1259.18 424.99 1170.40 490.17 1071.80 595.68 1232.45 616.06
00001353 00000094 954.54 183.97 390.34 573.91 1076.46 403.40 1261.50 426.36 1173.46 492.28 1074.91 598.39 1236.35 617.73
00001354 00000095 955.09 182.49 392.73 576.10 1078.47 404.62 1262.76 425.96 1176.06 495.20 1077.70 600.44 1237.52 618.52
00001355 00000096 956.82 184.91 394.03 577.66 1079.77 406.79 1265.35 425.55 1177.86 498.22 1079.76 603.54 1241.14 619.51
00001356 00000097 958.82 185.95 394.31 581.80 1081.06 409.22 1267.33 426.99 1178.86 500.19 1081.32 606.97 1243.88 622.03
00001357 00000098 960.85 187.94 393.63 581.40 1082.60 410.58 1269.79 428.21 1180.60 502.78 1083.51 609.64 1245.63 624.61
00001358 00000099 962.18 190.03 392.84 583.77 1084.25 413.58 1270.75 430.99 1182.55 506.11 1085.21 613.30 1246.90 628.02
00001359 00000100 963.28 192.00 391.91 583.26 1084.73 417.93 1271.36 434.74 1182.88 510.27 1086.26 616.91 1247.12 631.08
00001360 00000101 962.72 195.01 391.64 579.77 1081.70 420.45 1263.34 433.49 1183.20 508.51 1085.40 616.14 1244.65 627.28
00001361 00000102 962.61 194.69 392.26 581.07 1082.62 419.81 1263.92 433.62 1184.09 507.70 1085.52 615.97 1244.72 627.66
00001362 00000103 962.83 193.78 393.00 582.08 1082.95 418.96 1265.25 433.86 1184.27 506.80 1084.81 614.60 1246.13 627.24
00001363 00000104 963.70 190.63 393.74 583.31 1087.51 417.77 1275.18 437.37 1185.74 509.84 1086.91 615.43 1249.03 632.04
00001364 00000105 960.71 189.79 395.21 582.58 1084.58 415.35 1267.84 435.05 1186.33 502.52 1084.09 610.00 1245.57 626.37
00001365 00000106 960.50 190.65 395.75 580.74 1084.48 416.13 1268.68 436.36 1187.44 502.36 1084.10 610.43 1246.78 627.24
00001366 00000107 960.46 190.07 396.15 586.14 1084.39 418.13 1267.87 436.92 1187.14 505.73 1083.74 613.68 1246.23 629.52
00001367 00000108 960.49 190.79 396.23 583.89 1083.74 418.47 1268.28 437.47 1186.47 506.00 1082.48 614.84 1243.84 630.90
00001368 00000109 962.34 189.78 395.00 584.53 1087.14 418.96 1275.71 439.59 1185.66 512.25 1085.82 617.89 1246.66 635.33
00001369 00000110 961.03 191.75 394.88 584.69 1082.22 417.45 1265.75 433.47 1183.60 504.47 1082.78 615.68 1242.43 629.45
00001370 00000111 960.56 191.89 393.08 582.37 1080.56 416.68 1263.60 432.06 1181.45 503.29 1081.85 614.31 1240.76 627.48
00001371 00000112 960.70 193.61 392.67 580.24 1080.46 415.49 1262.57 430.56 1179.92 503.27 1081.05 613.37 1239.37 626.19
00001372 00000113 959.85 191.74 392.70 582.14 1080.48 413.32 1261.22 429.31 1179.16 501.15 1080.22 610.49 1237.60 623.94
00001373 00000114 959.09 189.26 393.03 582.67 1079.51 411.99 1260.07 428.27 1178.35 499.71 1079.62 608.53 1237.20 622.02
00001374 00000115 958.75 185.46 393.74 581.20 1080.91 409.09 1265.86 429.28 1175.64 499.58 1078.05 604.92 1239.51 622.09
00001375 00000116 955.69 182.91 395.31 571.88 1077.93 408.17 1263.96 430.05 1172.59 497.79 1076.35 600.65 1236.49 619.12
00001376 00000117 954.95 182.40 394.32 565.01 1075.55 407.01 1263.22 430.19 1170.55 494.62 1075.17 597.26 1236.78 616.80
00001377 00000118 954.41 181.99 394.31 563.67 1073.92 405.57 1262.85 428.04 1170.30 492.22 1075.28 595.45 1238.30 614.22
00001378 00000119 953.02 180.54 394.13 563.15 1071.08 404.78 1260.56 426.95 1167.34 490.91 1073.39 594.29 1236.54 612.79
00001379 00000120 952.53 179.53 394.44 563.98 1069.84 403.68 1259.12 425.47 1166.22 489.16 1073.02 593.36 1236.07 611.42
00001380 00000121 951.77 176.36 395.21 568.77 1069.99 403.61 1257.80 425.50 1165.67 488.98 1072.97 593.52 1234.97 611.59
00001381 00000122 952.36 179.27 393.58 567.41 1068.93 403.45 1258.62 425.14 1164.36 489.94 1071.81 595.13 1235.16 613.08
00001382 00000123 952.48 178.44 394.23 571.56 1068.70 403.98 1259.47 425.93 1163.97 491.00 1070.64 597.12 1234.97 615.28
00001383 00000124 952.65 178.34 394.28 573.53 1069.02 404.52 1260.13 425.78 1164.76 492.16 1071.45 598.75 1235.40 616.19
00001384 00000125 953.16 179.45 393.73 574.16 1069.69 405.16 1260.38 426.33 1164.94 492.70 1072.22 599.96 1235.80 617.36
00001385 00000126 953.63 180.02 394.07 574.59 1071.09 405.78 1260.98 426.84 1166.82 493.48 1073.39 600.60 1236.15 618.01
00001386 00000127 954.85 179.81 393.84 574.41 1072.43 405.62 1262.30 426.46 1168.18 491.91 1074.97 600.71 1237.70 618.02
00001387 00000128 955.48 179.32 393.89 573.95 1073.07 405.57 1262.29 426.01 1169.02 491.10 1075.66 599.57 1238.45 616.59
00001388 00000129 956.31 179.96 392.78 573.75 1075.47 407.76 1262.26 428.00 1170.62 491.18 1076.65 599.30 1238.23 616.24
00001389 00000130 956.95 179.66 392.36 577.33 1075.50 407.66 1261.82 427.85 1170.12 490.94 1075.84 599.38 1238.41 616.16
00001390 00000131 956.58 179.54 393.43 578.16 1075.61 406.79 1262.48 428.05 1169.91 489.79 1075.04 599.39 1237.58 617.10
00001391 00000132 957.00 180.38 392.69 577.37 1074.66 406.96 1262.54 427.72 1168.63 490.15 1074.22 600.73 1236.79 618.15
00001392 00000133 955.64 179.81 393.72 583.12 1074.18 406.20 1262.05 427.53 1168.12 491.38 1072.50 601.74 1236.50 619.56
00001393 00000134 955.54 177.72 394.21 588.23 1072.73 404.78 1260.34 426.13 1165.46 490.37 1069.97 601.89 1234.31 619.70
00001394 00000135 953.63 173.54 394.38 597.77 1069.88 402.22 1257.96 423.46 1162.17 487.48 1066.97 602.53 1232.86 620.15
00001395 00000136 950.18 174.64 396.15 584.32 1065.52 400.43 1255.49 422.59 1158.61 486.67 1064.05 598.65 1228.94 617.07
00001396 00000137 945.52 169.98 397.94 581.94 1059.98 397.03 1248.85 417.07 1152.30 485.49 1061.52 595.10 1223.84 611.61
CROP_BBOX: 760 0 1671 931
