Video ID: 	t8D8AoC-5i8
H: 	1080
W: 	1920
FPS: 	25.0

FRAME INDEX X0 Y0 W H [Landmarks (5 Points)]

00018657 00000000 579.78 210.91 469.40 678.08 753.17 512.42 955.74 465.14 910.86 618.66 828.54 752.60 980.19 712.88
00018658 DELETE   576.09 191.66 478.23 676.10 757.63 491.57 956.24 444.09 918.89 584.60 834.17 727.29 986.03 687.03
00018659 00000002 574.54 177.74 477.54 681.52 751.44 474.36 953.75 430.45 912.67 569.07 832.69 706.93 989.63 670.53
00018660 00000003 570.47 173.63 476.47 674.15 744.57 465.75 946.23 425.24 902.56 560.86 821.07 695.41 980.63 661.89
00018661 00000004 567.24 176.11 475.85 682.72 738.77 466.93 943.51 429.19 897.39 564.01 808.13 696.77 977.75 665.51
00018662 00000005 563.66 188.30 473.55 697.45 739.56 478.13 934.93 437.67 900.71 574.57 804.95 719.09 969.67 684.54
00018663 00000006 561.64 194.39 479.84 697.04 732.21 490.13 943.35 448.39 892.49 592.89 805.70 729.22 972.42 694.87
00018664 00000007 561.08 193.53 481.51 707.08 733.27 494.94 945.81 453.03 891.82 596.38 805.09 733.50 973.07 698.54
00018665 00000008 558.81 194.29 481.88 704.52 730.57 492.13 943.52 451.15 888.98 594.00 801.92 732.01 969.74 698.07
00018666 00000009 559.17 195.32 479.44 700.84 726.10 490.79 942.82 451.97 885.87 595.53 795.20 733.77 966.15 702.00
00018667 00000010 562.60 197.99 478.99 689.06 726.09 496.53 944.24 455.74 885.28 601.63 798.10 735.49 967.85 701.94
00018668 00000011 563.64 200.57 478.82 684.60 727.02 500.17 945.83 458.76 885.68 604.67 799.56 738.22 968.39 704.00
00018669 00000012 563.16 197.63 476.63 702.43 726.85 502.64 935.49 459.25 884.88 607.04 791.22 737.38 970.15 701.45
00018670 00000013 563.36 198.61 475.99 709.19 726.16 502.48 936.47 459.32 885.30 608.37 786.50 736.74 972.79 700.92
00018671 00000014 563.87 199.71 474.82 713.35 727.51 502.83 936.36 462.00 886.05 609.19 786.68 739.83 970.24 706.07
00018672 00000015 564.44 201.79 473.61 713.64 726.43 504.47 936.82 463.84 886.51 612.08 783.10 740.76 970.83 707.25
00018673 00000016 564.23 201.31 473.41 710.14 726.57 506.58 939.30 465.65 887.07 615.73 781.07 740.65 969.61 707.17
00018674 00000017 564.71 202.45 471.86 696.53 727.71 506.66 939.94 466.28 886.11 617.39 786.56 742.02 965.41 709.11
00018675 00000018 565.45 201.94 470.30 694.97 727.55 505.47 939.02 465.78 884.78 615.15 790.90 745.17 962.82 712.89
00018676 00000019 564.20 201.39 471.27 694.97 726.58 503.48 933.87 463.60 881.73 609.05 794.24 745.11 960.47 712.57
00018677 00000020 561.27 199.39 473.03 690.48 729.25 496.30 926.49 457.74 881.39 595.82 797.39 736.51 955.95 705.30
00018678 00000021 564.28 192.63 468.38 691.44 728.52 482.41 936.71 449.62 878.48 581.19 797.46 719.23 960.42 692.35
00018679 00000022 555.11 181.76 469.54 695.72 720.81 475.28 919.90 440.42 867.35 565.56 793.04 712.22 946.38 684.02
00018680 00000023 549.12 169.40 470.47 692.53 716.43 467.10 910.68 433.72 856.68 550.64 787.48 700.73 933.08 673.56
00018681 00000024 538.61 158.21 475.95 680.92 708.37 456.56 906.31 427.55 843.59 540.96 771.13 685.00 916.68 661.61
00018682 00000025 526.61 159.61 472.73 677.86 687.58 450.24 897.12 417.99 834.95 546.85 762.36 697.92 911.62 671.79
00018683 00000026 524.41 165.83 474.51 679.31 682.66 457.10 890.28 423.39 827.40 556.12 755.74 701.93 908.46 674.89
00018684 00000027 530.27 180.86 476.50 686.59 681.34 471.08 893.82 435.53 830.57 566.33 747.39 718.44 911.14 688.33
00018685 00000028 536.54 198.22 476.95 677.45 692.40 483.41 903.83 450.88 838.36 587.87 756.11 732.09 915.13 704.17
00018686 00000029 535.77 211.92 471.28 671.67 694.64 503.30 905.52 469.54 838.87 615.88 760.13 752.16 914.45 723.64
00018687 00000030 547.56 220.38 475.64 674.84 705.48 527.04 918.04 497.79 844.82 637.99 759.49 754.54 924.73 731.51
00018688 00000031 554.05 237.17 477.42 689.72 713.58 540.61 927.08 510.21 855.78 662.92 774.34 780.46 935.45 756.63
00018689 00000032 564.36 258.78 472.56 687.31 723.69 553.97 936.71 525.12 868.93 670.46 788.71 800.89 944.21 778.05
00018690 00000033 564.70 264.12 477.56 680.74 727.42 563.41 947.92 531.86 877.34 684.19 787.26 804.49 952.13 779.12
00018691 00000034 563.14 261.96 480.82 691.15 728.02 564.73 951.96 531.86 880.13 686.53 783.39 802.40 958.80 775.74
00018692 00000035 561.07 259.76 483.75 702.31 728.69 560.63 948.97 528.45 880.96 681.12 783.67 800.44 960.30 774.37
00018693 00000036 559.89 253.60 481.53 698.26 726.54 552.76 943.48 520.23 879.25 672.66 777.55 785.61 959.22 759.21
00018694 00000037 560.78 241.81 479.77 692.40 725.87 541.67 943.86 507.92 878.28 664.23 782.37 774.90 961.22 747.58
00018695 00000038 558.47 233.80 475.66 676.95 718.88 533.43 931.27 496.21 869.90 647.43 781.99 761.74 954.81 731.99
00018696 00000039 557.02 225.68 474.33 674.86 716.00 526.85 926.01 490.04 863.99 634.83 778.33 754.08 947.69 725.08
00018697 00000040 555.11 213.87 475.93 682.33 714.85 518.68 925.09 483.36 860.49 627.33 772.80 746.54 943.72 719.42
00018698 00000041 551.17 208.97 478.34 689.13 713.65 510.87 920.48 477.40 857.69 619.65 773.82 745.08 938.11 719.28
00018699 00000042 551.65 205.67 476.49 691.85 711.33 508.77 920.70 476.11 855.22 619.29 771.41 745.42 937.09 719.74
00018700 00000043 553.22 204.98 475.73 689.52 710.17 507.24 922.03 475.03 854.82 617.45 767.39 741.42 939.21 716.21
00018701 00000044 552.08 206.13 475.66 697.99 709.51 503.45 920.14 473.12 855.05 614.09 767.79 746.18 935.83 722.61
00018702 00000045 553.35 207.25 472.55 699.80 710.74 504.47 920.96 474.83 856.38 615.43 765.99 745.71 937.16 722.71
00018703 00000046 552.44 206.59 475.75 698.09 710.46 507.30 924.31 476.86 856.45 621.69 761.99 741.17 942.32 717.06
00018704 00000047 552.67 210.03 477.18 693.94 712.16 508.34 923.17 476.96 857.85 622.12 764.93 741.27 942.64 716.69
00018705 00000048 553.89 213.57 475.79 689.15 712.15 510.45 923.70 480.06 857.83 624.94 765.78 746.59 938.97 722.99
00018706 00000049 554.35 215.73 475.40 691.35 711.04 512.97 922.86 482.22 856.54 627.96 764.60 749.39 938.55 725.56
00018707 00000050 554.34 216.99 475.42 693.17 711.59 514.44 921.89 482.74 856.90 628.02 767.17 752.10 938.03 727.60
00018708 00000051 555.86 215.41 471.73 691.83 713.76 514.45 923.55 482.34 858.48 627.63 772.32 753.12 937.48 728.17
00018709 00000052 555.92 215.70 468.68 688.28 714.51 513.39 922.58 481.90 858.52 627.31 774.56 753.12 933.56 728.84
00018710 00000053 554.94 215.67 468.56 686.07 714.12 513.23 922.85 482.65 858.14 627.83 772.34 751.87 932.31 728.42
00018711 00000054 553.60 216.04 470.08 691.72 712.31 514.54 920.88 483.88 857.04 627.40 768.68 753.08 932.18 729.60
00018712 00000055 554.92 217.85 468.85 684.84 711.84 517.19 922.56 485.20 857.69 628.53 767.95 752.32 936.38 727.68
00018713 00000056 556.38 217.40 467.83 682.34 715.78 519.41 926.83 486.65 861.67 628.44 770.81 750.04 940.03 724.47
00018714 00000057 562.50 214.17 467.20 675.49 724.80 512.97 934.84 479.01 871.83 619.88 780.73 745.80 945.20 719.40
00018715 00000058 563.31 206.77 465.72 674.67 733.90 490.96 932.60 460.48 884.89 590.26 792.59 730.29 949.80 705.33
00018716 00000059 561.55 187.87 474.26 679.08 734.59 473.40 936.93 439.34 889.72 554.88 806.99 705.02 964.90 677.73
00018717 00000060 551.85 164.49 479.32 685.69 729.65 452.37 927.97 415.22 885.89 524.40 802.50 682.90 960.90 653.72
00018718 00000061 540.70 149.35 480.47 687.64 725.03 430.83 915.62 397.55 880.94 495.14 796.25 662.36 951.02 635.98
00018719 00000062 537.50 125.76 474.73 688.64 723.12 409.74 905.25 374.62 875.92 474.27 795.21 645.22 944.89 615.67
00018720 00000063 531.10 116.26 474.15 666.34 710.57 393.83 905.01 354.39 869.09 450.28 791.65 629.34 939.58 595.15
00018721 00000064 522.78 103.68 473.41 669.96 697.98 382.13 895.01 339.41 857.76 439.59 782.32 621.33 930.76 584.24
00018722 00000065 512.41 96.97 484.77 669.79 689.37 375.84 889.04 330.96 851.36 429.61 776.53 611.64 928.48 572.47
00018723 00000066 507.55 98.29 491.58 668.44 685.69 375.17 884.89 329.52 847.43 424.30 770.14 607.38 925.79 567.62
00018724 00000067 508.71 98.89 488.70 666.73 686.47 377.31 881.77 329.53 848.53 425.31 774.00 608.41 925.67 567.06
00018725 00000068 514.24 102.01 480.90 660.43 688.60 381.11 881.71 330.01 849.69 430.05 777.98 610.62 926.29 566.80
00018726 00000069 519.24 110.48 479.27 649.21 693.00 393.16 890.58 340.71 858.82 443.85 783.88 620.51 935.08 575.50
00018727 00000070 523.87 122.40 480.20 642.67 699.88 405.85 898.43 352.52 868.12 456.98 790.27 628.75 943.02 584.24
00018728 00000071 529.26 127.18 479.56 666.50 710.36 420.05 894.99 374.64 870.09 481.26 793.90 642.14 943.72 603.95
00018729 00000072 533.75 142.12 478.44 672.53 710.07 439.34 900.69 391.77 868.06 502.37 799.80 666.00 946.18 627.84
00018730 00000073 540.88 154.66 475.50 677.68 715.92 453.34 907.80 405.39 873.02 520.54 804.68 680.96 950.79 642.86
00018731 00000074 547.07 172.48 477.87 680.68 721.53 464.86 915.26 421.67 877.96 542.72 809.65 698.00 958.03 662.73
00018732 00000075 552.02 185.68 478.93 678.03 724.51 476.73 925.54 435.37 884.26 561.48 809.30 708.55 965.13 674.92
00018733 00000076 557.43 196.01 472.48 676.13 727.14 486.64 935.32 447.60 886.11 579.53 806.29 719.81 963.78 688.30
00018734 00000077 554.85 204.19 476.09 675.56 727.27 504.40 926.97 459.53 883.94 589.52 800.85 730.41 961.56 694.23
00018735 00000078 555.90 207.83 475.98 677.51 724.77 508.85 928.23 464.33 881.15 596.87 797.98 737.20 960.35 701.43
00018736 00000079 554.63 210.62 474.33 669.49 721.23 508.95 926.81 466.49 876.57 597.58 792.95 736.49 955.97 702.64
00018737 00000080 551.61 205.63 472.68 669.33 717.12 501.02 918.17 461.43 869.03 587.97 785.59 725.65 949.87 694.23
00018738 00000081 547.02 192.63 472.87 678.21 714.35 488.18 910.85 451.81 863.36 575.41 778.09 711.41 944.67 681.27
00018739 00000082 542.18 181.33 472.22 673.37 704.00 476.85 911.82 436.20 859.02 557.52 782.85 705.23 945.16 671.87
00018740 00000083 528.34 181.79 481.62 642.26 693.42 464.43 905.09 416.60 855.20 532.29 775.42 694.63 936.76 652.63
00018741 00000084 519.20 162.02 480.87 647.56 686.35 444.89 892.95 401.92 843.55 520.60 768.33 673.41 922.08 637.96
00018742 00000085 514.13 157.23 485.80 645.91 681.10 436.42 888.56 392.35 839.19 506.43 763.49 665.34 918.66 629.38
00018743 00000086 509.52 153.15 486.98 645.60 679.65 428.31 883.64 384.48 840.26 495.96 763.79 658.25 917.26 622.45
00018744 00000087 509.94 151.87 483.92 647.06 680.53 426.23 880.11 384.23 838.68 491.41 763.28 655.66 913.43 621.19
00018745 00000088 508.26 150.66 482.52 650.42 679.47 427.80 879.89 386.24 837.37 495.18 758.03 655.29 911.25 621.17
00018746 00000089 504.07 147.79 488.76 668.30 678.02 428.65 884.34 387.58 839.08 499.54 750.51 656.80 917.35 622.79
00018747 00000090 503.10 149.30 490.53 669.60 677.25 428.32 884.17 387.95 838.28 500.07 749.10 658.28 916.70 624.87
00018748 00000091 505.95 152.68 487.11 658.20 677.30 428.64 882.17 386.94 837.48 499.33 757.30 662.66 914.16 628.43
00018749 00000092 505.74 153.97 487.13 658.47 676.76 431.61 880.03 387.55 837.29 501.44 758.23 664.25 915.47 628.09
00018750 00000093 508.84 158.75 487.26 663.20 680.34 438.58 881.62 389.12 839.04 503.57 764.13 673.05 918.73 629.28
00018751 00000094 511.60 163.05 483.63 664.29 682.26 444.25 884.07 395.75 841.04 512.29 765.03 679.14 918.02 636.54
00018752 00000095 517.59 170.26 478.50 664.04 688.01 451.95 889.46 406.61 845.47 525.17 766.23 685.56 919.38 645.69
00018753 00000096 520.64 174.53 478.65 666.75 690.44 460.07 897.21 416.34 850.80 537.48 768.51 694.17 927.80 655.99
00018754 00000097 526.79 184.39 475.11 662.10 693.89 469.54 901.45 426.50 854.84 543.86 772.93 704.44 931.29 667.60
00018755 00000098 528.18 186.04 474.68 663.07 694.34 473.01 904.32 430.88 855.10 547.31 768.47 705.43 931.28 669.14
00018756 00000099 525.56 186.08 475.28 663.27 692.39 472.23 903.45 430.61 853.94 547.75 764.94 704.35 930.40 668.46
00018757 00000100 521.25 185.85 478.84 659.92 688.60 469.81 899.23 427.06 850.23 547.66 763.44 701.74 929.17 664.89
00018758 00000101 514.11 180.65 482.91 662.73 684.23 460.57 896.12 419.27 847.67 541.88 760.87 695.02 928.21 658.43
00018759 00000102 511.42 172.44 481.73 663.67 681.54 453.91 888.28 411.34 841.33 529.90 757.14 686.06 920.73 648.09
CROP_BBOX: 152 0 1406 1080
