Video ID: 	whcqODEhUvQ
H: 	1080
W: 	1920
FPS: 	25.0

FRAME INDEX X0 Y0 W H [Landmarks (5 Points)]

00004452 00000000 462.39 121.26 530.57 801.17 718.57 448.34 935.74 448.80 903.69 591.00 724.32 729.50 912.84 730.60
00004453 DELETE   460.73 128.54 529.44 799.78 715.58 454.36 933.51 453.83 900.83 598.39 720.30 733.45 911.08 733.90
00004454 DELETE   462.10 133.35 526.26 792.52 714.43 456.99 932.45 454.96 898.91 603.73 719.22 735.45 908.17 735.06
00004455 00000003 460.99 135.01 524.00 790.75 712.34 459.00 931.23 457.32 897.31 605.38 719.08 736.86 908.06 736.49
00004456 00000004 458.53 140.76 525.87 790.97 710.95 462.55 929.43 460.72 896.74 610.89 722.40 744.06 906.60 743.63
00004457 00000005 459.79 143.57 525.42 791.49 712.87 465.69 930.18 463.16 898.37 614.18 730.83 751.78 906.79 750.85
00004458 00000006 458.99 141.13 523.06 796.35 712.52 466.20 929.70 464.26 898.11 615.68 734.16 756.58 906.48 755.75
00004459 00000007 458.90 142.33 522.92 796.77 712.22 466.98 930.93 463.57 899.62 615.98 741.61 760.99 912.06 758.56
00004460 00000008 457.01 138.82 524.53 801.03 713.10 466.19 929.86 462.58 899.52 615.50 741.92 759.78 910.47 756.97
00004461 00000009 456.91 134.28 521.94 803.80 712.52 464.61 927.79 461.08 897.27 613.03 740.91 757.59 907.57 754.66
00004462 00000010 457.61 135.95 522.39 800.43 713.24 464.78 927.52 460.59 897.88 612.27 742.11 757.22 907.48 753.88
00004463 00000011 457.59 134.27 522.98 798.57 713.37 462.07 928.11 461.12 897.14 610.73 734.85 755.29 901.55 755.26
00004464 00000012 456.74 132.67 522.88 799.46 711.53 458.73 924.83 459.14 896.01 606.07 730.54 750.27 902.18 751.15
00004465 00000013 456.20 132.45 525.02 800.58 711.21 457.50 926.80 458.41 896.95 606.29 727.67 748.91 903.79 750.20
00004466 00000014 457.23 133.66 525.72 795.20 711.11 459.55 928.09 458.77 897.19 608.76 727.91 748.48 904.71 748.52
00004467 00000015 457.23 132.93 526.43 793.06 711.62 458.82 929.83 458.68 897.63 609.26 726.47 746.23 904.58 746.68
00004468 00000016 460.34 133.28 526.92 798.15 715.60 461.94 932.66 461.17 901.77 613.20 728.29 749.27 906.72 749.64
00004469 00000017 451.41 129.42 546.59 815.33 719.76 466.38 938.87 467.47 909.88 626.54 727.51 756.30 914.76 755.90
00004470 00000018 452.10 129.01 546.91 816.08 721.62 466.29 940.46 468.42 911.63 626.09 728.35 755.24 915.58 755.78
00004471 00000019 454.23 127.09 547.67 818.88 724.99 466.77 944.35 469.23 915.04 627.93 731.21 755.49 918.46 756.40
00004472 00000020 456.05 129.84 547.51 817.66 726.55 467.04 946.00 469.29 917.27 628.43 731.29 756.15 919.76 756.99
00004473 DELETE   456.57 127.88 550.48 820.93 729.54 466.40 948.78 467.77 921.91 627.53 733.89 757.12 922.14 757.45
00004474 00000022 458.67 123.36 551.14 828.62 731.10 466.01 952.91 469.22 923.58 629.02 732.57 757.38 924.31 759.38
00004475 00000023 458.83 124.28 550.70 827.81 731.12 467.13 952.72 469.72 924.00 629.18 733.15 757.84 924.95 759.35
00004476 00000024 460.46 122.81 548.71 829.40 733.40 466.91 954.66 469.49 926.30 629.46 735.14 757.04 927.41 758.60
00004477 00000025 463.75 124.45 548.00 829.88 735.60 466.32 957.36 469.51 928.49 630.35 735.72 757.85 929.07 759.91
00004478 00000026 467.01 131.63 547.97 824.58 738.84 466.91 960.86 472.58 930.91 632.09 736.55 758.75 929.94 762.96
00004479 00000027 470.29 131.38 544.87 821.52 741.81 466.93 963.82 472.04 934.60 630.94 739.20 758.12 932.49 761.82
00004480 00000028 471.19 132.57 544.78 822.42 744.68 467.57 963.73 473.52 936.21 630.75 741.79 759.13 932.55 763.57
00004481 00000029 473.57 131.80 544.09 827.27 747.14 466.98 964.72 473.22 938.53 630.66 742.10 759.38 934.17 764.28
00004482 00000030 474.42 127.93 543.50 836.13 749.34 465.42 964.73 471.75 941.00 628.92 742.98 759.29 935.14 764.39
00004483 00000031 474.10 129.01 545.28 837.50 749.87 464.71 965.54 471.40 942.03 628.23 742.19 758.58 936.21 764.07
00004484 00000032 475.15 127.68 544.50 838.99 750.48 464.26 966.44 471.42 942.72 627.98 742.85 758.25 937.42 764.19
00004485 00000033 476.09 124.20 544.41 837.68 750.50 462.84 968.70 468.77 943.42 626.21 743.73 756.58 939.68 761.52
00004486 00000034 475.98 121.79 544.50 838.30 750.21 461.91 968.74 467.63 943.71 624.73 744.06 756.39 940.18 761.08
00004487 00000035 476.90 122.37 544.38 837.34 751.46 462.13 969.88 468.74 944.49 625.14 745.75 756.48 941.67 761.76
00004488 00000036 476.33 122.07 544.76 835.41 751.17 460.95 970.27 466.28 945.58 622.35 746.92 755.76 942.98 759.98
00004489 00000037 475.04 121.42 550.50 835.81 752.14 456.15 971.80 464.90 945.62 618.28 746.76 753.83 942.50 760.76
00004490 00000038 475.32 116.25 551.95 843.07 753.21 453.30 972.81 463.13 946.44 617.00 745.73 752.88 942.71 760.74
00004491 00000039 475.66 119.28 551.33 836.89 753.65 451.96 972.69 462.16 946.61 614.62 747.96 750.76 943.55 758.79
00004492 00000040 476.71 119.66 550.84 831.54 753.55 452.06 973.55 461.15 946.41 614.74 750.31 750.75 944.76 757.77
00004493 00000041 477.57 118.17 546.79 827.46 751.82 459.18 973.07 462.28 945.45 619.24 753.29 752.78 946.17 755.15
00004494 DELETE   481.42 125.62 544.58 811.18 756.80 472.30 974.68 473.88 947.27 626.94 760.91 754.29 946.81 756.12
00004495 DELETE   481.60 120.61 548.52 819.20 757.44 472.01 977.40 473.17 948.50 628.66 761.89 755.57 949.46 756.73
00004496 00000044 482.08 117.08 546.17 830.89 760.11 467.66 973.97 467.02 949.03 630.64 765.46 758.67 948.87 758.13
00004497 00000045 480.83 117.91 550.35 836.81 759.53 465.01 975.61 467.08 948.40 631.18 765.11 762.96 948.15 764.44
00004498 00000046 481.00 117.90 551.95 842.23 760.31 462.30 975.67 467.43 948.23 630.87 761.11 763.63 944.31 767.75
00004499 00000047 479.73 116.66 553.79 844.72 759.61 461.24 975.71 467.47 946.87 630.80 760.49 763.81 943.64 768.68
00004500 00000048 479.94 117.00 556.15 847.31 760.41 461.54 976.71 468.30 947.42 631.20 760.69 764.76 943.98 770.01
00004501 00000049 480.89 114.68 556.26 852.24 762.46 459.72 977.20 466.09 949.17 629.91 762.34 764.74 944.28 769.67
00004502 00000050 481.51 115.43 557.13 853.52 763.88 460.11 978.93 466.98 950.61 630.81 763.89 766.22 946.36 771.58
00004503 00000051 484.67 115.78 553.92 850.20 764.94 460.87 981.52 465.94 953.30 631.93 764.60 765.30 949.47 769.35
00004504 00000052 486.01 111.53 552.67 845.34 763.93 458.42 984.35 462.61 953.16 630.41 764.61 761.61 952.66 764.83
00004505 00000053 487.24 109.05 553.08 836.25 761.13 459.11 987.19 461.63 951.80 631.73 763.32 760.23 954.24 761.88
00004506 00000054 488.10 113.46 552.66 826.49 760.97 459.92 987.55 462.84 951.31 631.90 760.63 757.67 952.96 759.92
00004507 00000055 487.37 114.84 555.44 826.69 761.39 459.36 987.19 464.52 950.72 631.74 753.53 754.88 948.82 759.51
00004508 00000056 487.01 118.10 558.10 833.90 763.64 459.19 987.08 465.81 952.75 631.13 750.72 753.70 949.89 759.79
00004509 00000057 487.12 122.51 558.94 834.19 764.03 461.39 987.33 469.28 954.01 634.71 749.22 757.76 948.56 765.05
00004510 00000058 487.40 123.30 559.94 835.87 765.00 462.35 988.78 470.73 955.01 636.80 751.73 760.51 949.71 768.05
00004511 00000059 488.51 122.64 559.26 836.48 767.66 462.83 988.55 469.24 956.38 637.74 760.53 762.68 951.21 768.34
00004512 00000060 487.51 121.96 561.99 840.25 768.90 463.53 990.14 469.29 959.46 638.41 764.77 765.77 955.30 770.53
00004513 00000061 488.97 118.75 561.49 846.44 770.45 464.36 990.87 470.92 960.26 640.09 767.66 768.44 955.10 773.71
00004514 00000062 489.31 119.27 560.81 844.14 770.84 463.56 991.12 470.41 959.99 640.09 768.77 768.14 953.97 773.73
00004515 00000063 490.93 120.54 560.73 839.25 771.45 464.33 992.75 471.87 959.50 640.94 767.35 766.40 954.37 772.74
00004516 00000064 491.36 124.45 561.44 833.57 771.36 464.05 993.31 474.28 958.37 640.85 759.61 762.82 950.82 771.92
00004517 00000065 490.60 125.14 562.82 834.21 772.58 463.70 993.61 476.43 959.32 641.35 754.05 760.89 948.75 772.40
00004518 00000066 491.29 125.53 562.33 832.43 772.47 463.46 994.42 475.95 959.37 643.17 753.99 762.04 948.18 773.37
00004519 00000067 490.77 125.13 561.70 832.41 771.28 463.39 993.78 474.83 959.30 643.06 756.76 764.25 949.81 774.44
00004520 00000068 490.25 123.11 561.31 830.60 769.47 462.62 994.03 472.18 959.41 641.08 759.49 764.22 952.11 772.51
00004521 00000069 490.36 122.19 558.35 825.60 766.31 462.06 992.66 469.13 956.91 640.21 760.29 764.29 951.79 770.25
00004522 00000070 489.77 124.48 556.44 820.82 763.48 461.54 990.98 466.83 954.56 637.86 758.26 762.60 951.32 767.04
00004523 00000071 490.33 120.06 555.00 825.15 761.93 459.56 990.25 464.05 952.70 634.74 757.36 760.03 951.91 763.79
00004524 00000072 490.90 118.16 553.87 825.13 761.49 457.44 989.02 462.95 949.52 632.10 757.55 756.31 950.63 760.77
00004525 00000073 490.43 117.17 554.06 825.37 761.00 457.01 988.37 462.36 947.94 630.97 757.32 754.95 950.41 759.29
00004526 00000074 490.65 117.29 552.80 825.35 761.76 455.81 987.17 461.96 947.39 629.14 757.23 752.59 949.19 757.63
00004527 00000075 489.53 117.93 551.81 820.22 760.37 456.37 984.75 462.54 944.64 628.73 756.41 750.17 946.92 755.28
00004528 00000076 489.76 121.41 550.09 812.32 757.53 456.94 984.03 460.91 942.88 626.37 755.39 747.37 948.49 750.63
00004529 00000077 487.99 121.56 548.08 808.20 755.08 456.67 981.80 460.69 940.25 624.98 753.07 745.59 945.86 748.85
00004530 00000078 485.85 124.71 547.81 803.36 753.31 455.49 979.17 459.30 939.19 623.12 750.82 744.29 943.66 747.45
00004531 00000079 483.59 126.32 549.97 800.78 752.15 453.63 977.39 458.65 937.64 620.72 749.94 742.13 942.76 746.11
00004532 00000080 479.47 124.49 547.82 801.54 748.79 452.56 972.70 458.48 935.54 617.27 745.00 739.84 939.19 744.64
00004533 00000081 476.59 123.58 547.00 801.53 747.06 449.60 970.79 457.60 934.32 615.09 742.12 737.30 936.82 743.87
00004534 00000082 472.94 120.62 548.11 808.16 742.42 446.86 967.50 456.81 930.80 610.23 734.20 735.61 933.19 743.95
00004535 00000083 469.24 117.64 547.82 809.53 738.93 445.01 963.09 456.45 924.68 605.94 732.08 732.76 927.11 742.20
00004536 00000084 465.12 113.69 549.16 813.69 737.35 438.93 958.38 452.62 920.35 601.04 730.51 728.83 922.44 740.02
00004537 00000085 458.62 109.73 551.12 814.61 732.54 436.08 951.83 444.56 916.66 595.98 730.61 726.37 920.07 733.02
00004538 00000086 461.75 98.24 544.73 830.62 730.38 430.20 946.81 441.43 919.04 585.48 729.50 718.96 920.74 726.45
00004539 00000087 458.40 94.92 545.27 834.10 728.49 426.63 944.96 438.06 918.61 581.99 727.85 715.74 920.26 723.42
00004540 00000088 457.06 95.85 544.63 836.03 729.80 429.12 942.28 441.17 919.70 580.29 727.78 716.06 917.53 724.38
00004541 DELETE   457.32 93.64 543.68 845.10 731.85 434.64 944.62 448.83 922.43 577.17 726.17 716.35 920.24 726.39
00004542 DELETE   456.82 96.79 543.55 846.81 729.91 433.70 944.42 449.00 922.13 575.86 725.09 718.12 921.78 728.86
00004543 DELETE   459.55 97.98 540.25 843.84 733.32 431.38 942.02 445.38 922.48 578.31 726.58 717.44 918.42 727.46
00004544 00000092 462.04 98.72 539.25 840.44 737.01 430.20 944.57 446.28 924.97 578.70 728.69 716.72 919.29 728.41
00004545 00000093 463.31 98.89 538.69 840.40 737.40 428.96 946.14 445.08 925.56 578.23 730.08 716.82 921.18 728.44
00004546 00000094 464.17 99.19 537.64 838.55 738.30 426.89 947.01 443.54 926.91 576.46 730.24 714.74 922.17 726.82
00004547 00000095 465.37 98.88 537.21 837.50 739.27 424.26 947.18 441.83 928.01 573.90 730.90 711.85 922.90 724.74
00004548 00000096 465.80 99.59 537.31 834.80 738.96 422.60 947.23 440.03 928.48 572.50 732.05 711.28 923.36 724.03
00004549 00000097 467.64 100.02 536.45 831.60 740.16 420.63 948.05 438.25 930.46 570.58 731.50 708.43 924.03 721.54
00004550 00000098 469.39 99.95 535.78 831.73 741.77 419.81 948.66 437.97 931.31 569.73 731.17 707.39 923.75 721.01
00004551 00000099 469.88 100.07 534.74 829.47 742.33 420.18 948.80 438.01 931.60 570.21 731.25 706.08 924.12 719.44
00004552 00000100 471.32 99.47 533.94 830.00 742.56 420.36 949.45 437.26 932.31 569.77 732.38 706.61 925.40 719.16
00004553 00000101 471.59 100.51 533.80 828.48 742.47 420.58 949.53 437.43 932.02 570.04 731.95 706.02 925.49 718.53
00004554 00000102 470.66 99.63 534.41 828.63 742.09 420.65 948.99 437.47 931.66 570.27 731.42 705.82 925.00 718.33
00004555 00000103 471.11 99.46 534.40 828.57 741.97 420.25 948.81 437.63 930.76 570.01 730.89 705.44 924.47 718.38
00004556 00000104 469.84 99.17 534.75 828.41 742.09 421.58 948.97 438.54 930.51 571.35 731.32 705.71 924.81 718.30
00004557 00000105 470.06 99.37 534.82 828.40 742.19 422.03 949.53 439.12 930.41 572.02 731.83 706.69 924.92 719.32
00004558 00000106 470.59 99.01 535.85 828.37 742.90 422.91 950.79 439.57 931.35 573.28 733.43 707.77 926.40 719.87
00004559 00000107 471.90 100.25 534.87 824.91 743.45 424.43 951.70 439.45 932.02 575.29 734.81 707.68 928.54 718.35
00004560 00000108 473.02 99.45 535.71 821.67 743.88 424.64 953.73 439.02 932.49 576.49 735.78 708.29 929.51 718.45
00004561 00000109 472.28 100.04 537.44 818.18 743.90 424.90 954.69 438.18 932.83 576.57 736.86 707.73 930.98 717.00
00004562 00000110 474.24 100.50 536.43 814.89 745.25 425.00 956.25 437.35 934.65 576.32 737.66 706.28 932.91 714.87
00004563 00000111 475.82 101.25 534.97 811.62 746.45 424.72 956.76 437.08 935.35 575.92 739.97 705.31 933.73 714.01
00004564 00000112 477.21 99.74 534.06 812.42 748.33 424.53 958.45 436.42 937.56 576.63 741.71 705.74 934.80 714.25
00004565 00000113 479.15 99.23 532.63 813.32 750.95 423.80 961.86 437.84 940.03 578.00 744.34 706.87 937.60 717.11
00004566 00000114 481.80 100.84 531.34 813.30 754.09 424.64 964.88 439.38 941.87 580.15 746.94 708.84 939.30 719.71
CROP_BBOX: 83 0 1389 1080
