Video ID: 	X1tuONxoh6A
H: 	1080
W: 	1920
FPS: 	23.976023976023978

FRAME INDEX X0 Y0 W H [Landmarks (5 Points)]

00003786 00000000 977.97 154.88 373.08 575.64 1015.57 381.93 1133.16 379.36 995.24 481.06 1028.63 562.29 1162.75 556.54
00003787 00000001 985.45 148.95 379.87 592.08 1022.76 379.39 1142.47 381.54 1003.91 472.80 1043.52 564.18 1167.58 561.31
00003788 DELETE   990.25 148.63 377.75 586.14 1027.59 374.11 1145.47 378.18 1007.85 474.27 1052.91 560.24 1174.95 558.57
00003789 00000003 991.96 143.14 379.21 580.83 1028.64 365.62 1146.74 370.64 1008.66 467.19 1052.65 555.12 1174.75 554.24
00003790 00000004 992.12 137.60 381.16 577.37 1032.60 361.68 1145.39 364.44 1009.92 456.72 1052.51 550.17 1169.28 547.89
00003791 00000005 991.24 126.03 383.90 588.95 1033.30 355.83 1144.82 355.90 1006.47 450.29 1052.69 546.95 1169.35 542.40
00003792 00000006 988.14 123.47 386.93 590.99 1032.03 353.74 1139.90 352.75 1000.77 444.89 1048.41 545.35 1161.38 539.68
00003793 00000007 982.66 121.29 388.34 598.74 1028.83 353.60 1136.43 353.82 997.93 445.89 1044.74 544.91 1158.57 540.23
00003794 00000008 972.28 139.42 378.06 576.83 1014.39 361.95 1134.36 355.82 994.04 454.75 1026.86 544.72 1160.93 536.42
00003795 00000009 962.94 140.83 381.38 581.19 1006.50 364.42 1123.34 359.67 983.53 457.59 1020.39 551.64 1151.66 544.05
00003796 00000010 961.00 143.84 378.04 578.12 996.31 370.69 1108.63 362.07 980.33 461.13 1016.71 555.98 1138.88 546.72
00003797 00000011 957.67 145.11 375.98 580.20 991.64 374.58 1105.51 363.76 979.42 465.50 1016.30 561.14 1138.26 550.50
00003798 00000012 954.80 154.67 380.06 577.78 989.01 379.15 1103.37 366.11 975.54 468.40 1013.10 566.37 1136.29 553.73
00003799 00000013 951.61 163.28 380.47 573.69 991.54 385.05 1106.19 370.80 968.43 467.63 1013.53 569.56 1139.67 554.01
00003800 00000014 948.87 166.81 383.40 569.60 988.09 388.55 1107.14 372.27 970.45 468.72 1011.16 572.01 1139.90 554.99
00003801 00000015 944.55 169.65 388.42 567.06 983.10 393.29 1107.16 373.87 971.67 472.90 1006.91 574.57 1140.29 554.84
00003802 00000016 939.89 170.00 388.55 566.50 979.44 395.63 1102.73 375.86 970.97 475.11 1004.60 574.58 1136.87 554.33
00003803 00000017 939.27 158.49 386.15 573.34 970.89 395.72 1094.27 371.46 970.73 474.36 1002.99 572.70 1132.12 550.09
00003804 00000018 936.38 154.81 386.18 578.29 966.49 392.18 1089.06 365.89 966.66 472.27 1002.87 572.84 1130.85 548.43
00003805 00000019 932.63 154.70 388.25 578.73 960.84 391.79 1083.15 364.38 960.83 470.32 996.91 576.31 1121.37 550.94
00003806 00000020 928.00 152.45 387.05 586.68 956.66 393.43 1076.42 365.73 959.07 472.37 993.70 578.13 1115.80 552.40
00003807 00000021 925.44 156.46 388.92 590.88 952.77 398.27 1069.23 367.30 952.07 475.66 991.90 583.68 1111.22 555.22
00003808 00000022 921.70 157.85 386.65 597.55 950.57 404.45 1065.69 369.80 949.80 479.54 992.67 586.39 1110.90 554.62
00003809 00000023 918.12 160.30 384.06 597.86 946.81 407.31 1059.13 370.67 942.13 482.32 989.41 590.22 1104.81 556.96
00003810 00000024 905.68 152.89 386.53 607.43 931.92 412.35 1047.59 367.41 921.74 482.37 980.37 603.93 1097.66 564.40
00003811 00000025 905.17 162.69 376.83 591.89 941.09 408.07 1050.08 371.04 925.51 493.35 984.59 599.23 1102.16 564.06
00003812 00000026 897.41 164.67 379.42 592.51 939.51 404.47 1041.98 370.52 916.48 493.11 982.32 600.65 1094.80 568.19
00003813 00000027 894.29 163.10 378.57 597.33 940.80 403.86 1038.15 371.80 912.47 494.87 982.81 601.52 1092.13 570.28
00003814 00000028 891.59 165.96 377.38 596.15 941.00 402.35 1032.09 374.50 907.33 496.20 980.85 600.36 1085.01 572.44
00003815 00000029 892.02 164.70 380.07 595.40 941.25 404.14 1033.03 379.86 907.30 499.34 979.04 599.68 1082.54 574.75
00003816 00000030 896.96 170.39 379.49 582.91 943.60 406.91 1036.05 385.46 911.13 503.91 980.19 594.40 1084.65 571.87
00003817 00000031 904.99 165.15 375.00 580.68 944.85 409.90 1042.68 388.57 918.90 503.62 981.40 591.91 1090.30 569.69
00003818 DELETE   907.60 148.93 384.45 607.98 931.05 414.47 1046.95 383.86 916.70 496.43 975.49 599.69 1090.81 572.17
00003819 00000033 911.15 150.10 390.45 606.85 934.17 416.47 1057.76 382.03 928.64 497.26 980.68 600.40 1104.26 569.63
00003820 00000034 910.85 150.83 395.00 607.13 937.80 412.75 1063.72 379.26 935.43 494.85 984.05 597.41 1110.52 566.81
00003821 00000035 911.85 152.47 394.09 608.65 940.83 414.02 1066.58 378.58 940.24 495.98 986.27 598.41 1116.36 565.47
00003822 00000036 912.72 156.89 393.87 612.00 942.22 417.72 1067.94 379.95 942.20 498.52 988.71 603.29 1118.06 567.82
00003823 00000037 913.41 159.16 394.99 613.46 942.66 420.22 1066.90 378.42 941.52 497.12 991.66 607.63 1119.59 568.81
00003824 00000038 915.11 161.39 394.14 613.34 945.21 422.09 1068.21 377.79 945.84 497.85 995.19 609.31 1124.18 568.29
00003825 00000039 916.59 161.77 392.82 608.45 946.54 424.23 1070.23 378.70 949.04 499.08 995.56 609.64 1125.30 567.89
00003826 00000040 919.65 167.64 396.01 600.84 955.28 427.01 1073.47 386.60 958.85 507.27 1001.10 608.07 1125.05 570.62
00003827 00000041 917.76 159.43 392.82 607.79 947.46 424.63 1072.96 378.67 953.10 500.22 994.11 608.92 1125.93 567.23
00003828 00000042 914.87 160.55 395.57 604.86 942.71 423.65 1069.82 378.34 948.57 498.02 989.20 606.38 1120.45 565.51
00003829 00000043 912.41 162.67 395.84 601.28 939.82 423.45 1065.76 381.81 943.06 501.49 988.62 606.15 1116.67 568.32
00003830 00000044 911.42 161.73 391.94 600.22 938.16 421.78 1060.50 383.89 938.77 502.96 988.01 605.46 1111.12 570.56
00003831 00000045 910.21 156.77 386.03 603.77 933.05 423.50 1054.34 385.65 931.00 504.55 983.83 607.02 1105.63 572.81
00003832 00000046 909.40 157.07 381.21 601.23 932.88 423.15 1047.31 389.41 921.20 504.24 980.54 605.01 1096.72 574.35
00003833 00000047 906.93 160.49 378.60 597.55 932.33 423.91 1040.65 392.97 914.22 509.26 979.74 605.16 1092.55 576.39
00003834 00000048 904.59 184.46 371.06 561.44 941.86 419.02 1034.80 392.99 921.86 513.87 987.90 598.65 1090.42 572.58
00003835 00000049 899.11 188.11 371.43 565.50 941.57 418.02 1026.45 391.94 915.13 515.93 988.07 602.87 1084.09 576.23
00003836 00000050 893.41 184.06 375.57 577.29 942.71 418.90 1020.63 390.53 910.09 514.66 988.67 607.24 1078.08 578.65
00003837 00000051 890.78 182.70 377.43 582.82 942.08 418.50 1019.09 388.42 906.74 512.78 988.23 609.54 1077.75 579.33
00003838 00000052 892.87 179.13 376.90 583.78 944.56 413.93 1023.30 387.11 908.38 509.76 987.39 602.94 1080.25 575.68
00003839 00000053 898.77 172.59 375.37 585.93 947.52 411.07 1034.26 383.91 915.94 505.29 988.15 598.73 1088.65 571.35
00003840 00000054 904.42 167.26 376.67 583.71 948.27 412.33 1043.43 379.95 921.60 499.50 989.83 595.70 1098.03 563.87
00003841 00000055 910.30 151.39 380.05 613.44 939.78 411.70 1042.57 373.65 913.14 492.22 990.58 604.56 1098.55 569.10
00003842 00000056 914.08 151.82 380.96 614.61 946.08 409.59 1044.17 369.29 920.61 486.05 998.61 603.45 1103.45 565.86
00003843 00000057 920.30 166.23 379.99 599.99 960.86 414.55 1050.06 381.28 924.29 493.40 1003.51 600.79 1101.00 568.23
00003844 00000058 922.14 167.85 381.12 600.49 959.75 415.53 1054.57 378.87 932.17 495.15 1008.84 605.88 1109.27 570.84
00003845 00000059 921.42 168.70 386.44 600.33 956.26 420.61 1058.77 377.89 937.20 497.25 1011.33 612.42 1117.00 572.80
00003846 00000060 921.07 171.94 387.54 593.66 955.88 422.55 1059.43 378.71 941.90 497.27 1012.79 612.01 1117.96 571.70
00003847 00000061 920.67 173.01 387.16 591.37 954.86 426.35 1060.06 379.57 944.06 498.53 1012.73 613.57 1118.18 570.99
00003848 00000062 920.66 174.10 388.87 590.10 954.69 425.58 1060.63 378.51 943.29 498.51 1013.10 613.40 1119.37 570.50
00003849 00000063 921.29 173.56 386.71 590.89 955.21 422.57 1059.44 375.69 941.52 495.17 1012.43 611.58 1118.32 568.57
00003850 00000064 922.07 172.89 383.32 592.03 955.11 420.67 1056.78 376.80 936.83 494.55 1008.13 607.25 1114.00 566.33
00003851 00000065 919.43 172.52 383.73 591.23 953.09 425.43 1052.95 378.36 931.94 495.79 1005.82 608.76 1110.00 565.25
00003852 00000066 916.93 163.57 382.52 602.52 941.68 424.46 1051.14 371.39 932.43 492.04 999.58 612.05 1113.04 564.26
00003853 00000067 916.35 164.70 378.47 598.43 939.50 425.94 1049.69 372.79 931.44 493.04 998.18 613.06 1111.89 565.54
00003854 00000068 915.52 163.37 377.71 599.39 938.44 423.77 1049.18 372.83 930.58 492.29 995.38 610.17 1110.50 564.64
00003855 00000069 913.89 165.07 379.98 598.02 937.80 422.34 1050.11 372.09 930.08 491.04 994.06 609.41 1110.30 564.39
00003856 00000070 913.98 164.55 379.63 599.02 937.97 423.29 1049.55 372.29 930.37 491.34 994.66 610.06 1110.44 564.40
00003857 00000071 913.94 163.83 379.26 599.54 937.38 424.01 1050.28 373.07 930.64 492.11 994.11 610.58 1110.45 565.07
00003858 00000072 913.37 163.85 379.67 598.46 936.75 424.54 1050.34 374.21 930.75 493.29 993.24 609.93 1110.23 564.97
00003859 00000073 913.50 164.51 380.06 596.37 937.04 424.31 1050.93 373.91 931.85 492.87 993.49 609.56 1110.02 564.69
00003860 00000074 914.55 164.74 380.76 596.71 938.36 424.24 1051.22 373.35 932.27 492.82 996.11 610.16 1112.37 564.65
00003861 00000075 916.62 171.99 382.37 586.33 949.98 426.21 1052.69 381.71 934.20 497.85 1002.96 606.08 1109.00 564.98
00003862 00000076 917.65 174.00 383.99 585.50 950.14 425.98 1055.08 382.31 935.81 499.32 1003.67 606.75 1112.15 566.38
00003863 00000077 919.88 169.40 383.43 593.41 945.03 425.21 1055.86 372.37 939.35 493.58 1004.17 613.17 1118.68 565.75
00003864 00000078 921.18 174.97 385.48 584.33 955.61 423.14 1062.29 380.07 944.01 497.60 1010.33 609.66 1117.67 570.19
00003865 00000079 926.44 178.80 384.92 578.94 962.04 420.19 1066.67 377.22 950.61 495.43 1016.97 607.27 1123.47 567.94
00003866 00000080 931.22 178.05 387.31 580.79 967.58 420.31 1070.89 374.77 953.87 494.84 1022.87 607.67 1129.94 565.96
00003867 00000081 935.95 175.97 388.80 585.60 973.20 420.09 1074.71 373.81 956.11 495.04 1026.99 608.10 1135.01 565.57
00003868 00000082 937.77 176.60 389.29 585.28 975.98 421.21 1077.93 373.38 958.35 494.62 1029.22 609.83 1137.25 566.13
00003869 00000083 940.08 176.10 386.97 585.86 977.22 424.47 1080.62 375.06 962.76 495.83 1031.62 610.86 1140.99 566.27
00003870 00000084 941.53 175.50 389.47 586.28 978.36 427.60 1086.41 377.81 968.22 498.78 1034.12 611.84 1147.86 567.24
00003871 00000085 942.63 176.08 388.59 584.04 977.82 427.63 1089.52 379.05 971.03 501.04 1035.40 612.09 1151.54 568.63
00003872 00000086 942.21 176.92 389.23 582.01 977.97 424.72 1092.57 377.90 974.97 500.05 1036.00 608.91 1155.46 566.82
00003873 00000087 944.54 175.32 390.48 581.19 981.19 420.15 1098.82 374.67 979.14 495.29 1035.51 603.92 1158.80 562.89
00003874 00000088 946.26 171.85 389.25 580.43 983.32 414.36 1103.22 372.48 983.93 490.30 1031.10 596.02 1159.32 558.02
00003875 00000089 945.98 169.73 390.28 579.73 983.43 411.27 1107.31 371.33 985.54 486.51 1025.83 592.25 1157.90 555.82
00003876 00000090 947.66 168.06 388.12 579.43 985.05 408.55 1107.75 371.11 984.25 482.81 1023.49 588.65 1154.42 554.21
00003877 00000091 947.38 168.04 387.58 574.41 986.31 404.28 1105.98 370.29 978.81 477.20 1020.73 584.22 1148.40 552.49
00003878 00000092 949.48 166.27 384.77 571.61 988.51 395.51 1107.26 367.74 972.67 466.51 1013.80 580.02 1138.05 553.89
00003879 00000093 951.69 158.02 385.15 578.45 984.69 388.16 1107.65 363.25 979.63 466.28 1013.28 574.34 1140.68 552.09
00003880 00000094 952.14 150.37 384.95 586.40 986.93 381.64 1108.62 357.67 977.94 458.86 1011.73 571.77 1138.34 550.47
00003881 00000095 952.60 146.75 383.92 591.25 988.84 377.36 1108.71 355.56 976.61 455.66 1012.15 569.94 1137.78 550.43
00003882 00000096 950.54 147.01 386.52 597.16 986.96 375.23 1111.30 354.70 977.13 456.21 1010.72 571.29 1142.11 552.87
00003883 00000097 951.48 150.63 383.73 601.77 993.10 376.41 1110.32 356.68 970.36 455.44 1019.68 575.85 1147.98 555.31
00003884 00000098 947.24 155.60 390.70 606.63 990.44 385.22 1104.45 361.74 969.69 467.04 1023.35 583.84 1151.29 560.04
00003885 00000099 944.99 157.81 391.84 606.42 987.50 388.54 1102.59 365.90 969.77 473.79 1021.79 587.19 1150.94 563.77
00003886 00000100 942.49 161.39 392.74 599.02 984.18 391.90 1102.46 369.98 970.92 478.61 1020.17 586.52 1151.75 563.94
00003887 00000101 940.33 165.33 392.89 589.00 982.51 394.39 1100.19 374.51 970.24 481.98 1016.69 584.34 1145.83 563.65
00003888 00000102 939.76 167.67 391.16 584.54 979.94 399.55 1095.20 378.46 966.55 487.42 1014.88 585.69 1140.74 563.96
00003889 00000103 937.69 165.31 391.93 588.22 976.54 404.60 1094.72 382.95 967.20 492.35 1012.17 589.09 1140.91 566.98
00003890 00000104 936.58 165.31 393.92 590.45 974.84 405.28 1093.83 385.60 966.14 496.56 1010.69 589.93 1141.25 569.43
00003891 00000105 937.07 168.08 393.70 586.18 974.52 406.92 1093.68 386.58 968.54 501.58 1012.12 590.55 1142.95 569.76
00003892 00000106 935.47 170.08 395.68 578.81 972.35 409.13 1093.63 384.81 968.97 501.64 1011.45 590.87 1142.96 566.77
00003893 00000107 934.98 169.48 394.81 578.17 971.93 408.66 1091.94 382.76 968.97 501.24 1012.55 590.05 1143.33 564.52
00003894 00000108 936.78 167.53 392.29 586.73 973.61 410.73 1089.56 378.41 969.46 498.78 1020.65 594.65 1147.70 563.67
00003895 00000109 937.07 167.47 393.16 589.43 973.83 411.39 1088.28 374.83 969.06 496.58 1025.14 597.34 1149.48 562.83
00003896 00000110 935.09 166.05 393.37 591.13 974.29 408.80 1086.85 371.89 968.31 491.78 1023.58 595.65 1145.49 560.65
00003897 00000111 934.68 165.27 392.88 593.02 974.79 404.79 1081.93 369.04 961.56 488.43 1022.15 593.22 1140.04 558.65
00003898 00000112 931.30 163.05 393.26 591.80 969.64 402.63 1078.74 368.34 954.04 486.09 1014.55 590.52 1132.95 556.99
00003899 00000113 927.87 157.85 392.64 594.18 957.33 397.00 1070.28 367.37 953.20 486.09 1006.06 583.97 1127.08 555.79
00003900 00000114 921.42 151.24 395.67 599.62 952.08 395.14 1064.52 371.29 942.75 487.47 997.86 581.16 1116.41 557.29
00003901 00000115 908.21 137.75 396.45 616.36 933.48 400.31 1058.17 369.74 929.27 489.63 978.47 592.49 1104.12 565.59
00003902 00000116 905.83 141.15 393.45 612.51 928.17 405.83 1055.04 376.95 925.87 495.10 972.02 595.67 1096.75 570.80
00003903 00000117 902.59 140.91 392.02 613.61 924.90 405.40 1051.49 378.35 920.95 495.70 967.38 595.88 1090.59 572.49
00003904 00000118 901.61 161.77 384.31 581.21 937.10 406.83 1048.78 384.85 921.36 500.63 968.77 588.54 1091.35 566.27
00003905 00000119 896.14 160.20 387.50 583.73 934.40 404.67 1045.73 383.70 917.65 500.22 965.54 590.08 1086.62 568.93
00003906 00000120 892.46 159.87 389.24 588.55 932.69 403.59 1043.00 382.29 913.69 500.82 964.18 592.11 1084.95 570.38
00003907 00000121 890.37 160.24 388.27 591.86 932.46 402.03 1040.86 381.11 912.58 501.57 965.21 593.41 1084.78 571.87
00003908 00000122 887.33 163.19 390.37 588.48 931.08 402.80 1038.94 383.36 910.17 501.56 961.05 593.54 1078.77 573.61
00003909 00000123 886.82 164.09 389.81 586.42 930.61 403.13 1039.45 384.67 911.83 500.46 958.69 592.40 1076.55 573.69
00003910 00000124 886.52 164.92 389.84 584.41 930.24 402.13 1039.73 385.38 912.99 500.48 958.23 591.37 1076.26 574.15
00003911 00000125 888.64 164.55 388.70 583.46 931.42 403.73 1039.14 385.53 913.14 500.63 960.85 592.79 1076.12 574.41
00003912 00000126 891.25 163.79 387.68 585.31 933.36 405.73 1038.61 386.04 913.51 501.78 964.21 595.71 1075.61 575.95
00003913 00000127 894.99 163.11 386.52 585.91 935.49 408.07 1040.14 388.74 917.53 503.18 967.21 596.93 1076.29 577.45
00003914 00000128 896.61 147.05 389.72 607.90 923.38 413.44 1045.06 387.55 918.62 503.18 964.61 607.63 1072.29 585.57
00003915 00000129 900.26 147.07 388.84 606.70 925.83 415.01 1046.52 389.45 919.79 505.11 967.31 608.94 1073.31 587.04
00003916 00000130 901.32 146.97 390.24 606.76 927.31 414.80 1049.52 392.19 921.20 506.67 966.15 607.92 1074.59 588.70
00003917 00000131 902.53 147.15 392.43 606.43 928.20 415.19 1051.40 393.80 922.48 507.07 966.55 609.45 1071.87 591.24
00003918 00000132 901.77 146.25 394.02 608.32 929.26 413.38 1052.23 393.89 922.76 507.16 966.78 607.61 1073.00 590.82
00003919 00000133 902.37 145.99 393.95 611.06 929.83 413.88 1051.20 391.21 923.01 505.87 970.35 609.33 1076.83 589.27
00003920 00000134 900.92 145.85 393.57 618.50 931.25 415.68 1049.75 390.04 920.36 505.64 972.55 607.90 1085.59 583.63
00003921 00000135 903.02 146.56 391.45 619.13 928.19 422.10 1051.26 387.77 921.91 506.40 976.50 609.61 1099.40 577.60
00003922 00000136 907.48 146.86 391.55 618.21 930.93 423.12 1056.32 388.27 926.90 508.74 980.25 607.85 1108.33 575.49
00003923 00000137 909.31 147.26 392.05 616.29 932.99 426.10 1057.75 389.01 929.68 512.15 984.04 610.95 1112.92 576.83
00003924 00000138 908.96 150.03 392.23 614.55 933.96 425.57 1058.21 389.93 930.83 512.17 985.16 610.00 1113.07 576.50
00003925 00000139 910.83 150.10 393.38 615.17 938.48 425.49 1061.29 390.17 934.57 512.17 989.44 609.98 1115.97 576.37
00003926 00000140 913.45 149.92 393.84 617.59 941.59 426.84 1064.22 387.30 936.52 509.12 991.76 610.21 1118.70 572.85
00003927 00000141 912.90 148.31 394.38 617.26 941.00 426.43 1065.45 387.21 937.79 508.99 990.31 609.73 1118.96 572.94
00003928 00000142 912.97 148.17 394.73 615.01 939.84 426.62 1066.11 387.69 938.36 508.65 987.73 609.32 1117.92 573.21
00003929 00000143 913.11 148.35 395.43 614.45 939.90 426.25 1066.45 387.85 939.07 509.13 987.40 608.45 1118.66 572.87
00003930 00000144 913.47 150.29 395.10 612.72 940.22 426.47 1065.58 389.05 938.55 510.80 988.30 607.83 1119.53 572.85
00003931 00000145 912.99 152.32 394.07 610.46 939.78 427.56 1064.40 389.72 938.26 510.83 988.05 608.60 1117.85 573.37
00003932 00000146 911.66 148.99 394.02 613.95 939.74 424.52 1065.08 387.47 938.28 507.66 987.75 606.66 1116.99 572.03
00003933 00000147 912.53 148.15 394.51 614.89 940.84 421.47 1065.14 385.53 937.82 504.97 988.57 604.41 1116.50 570.67
00003934 00000148 912.70 148.04 394.59 615.48 942.11 417.46 1066.67 384.35 938.65 503.41 987.87 601.04 1117.24 569.50
00003935 00000149 913.01 147.67 395.33 615.59 942.41 415.71 1067.98 384.23 938.01 502.33 986.81 599.74 1116.69 569.63
00003936 00000150 911.58 147.87 396.55 612.63 941.03 415.84 1068.95 384.79 939.18 503.00 984.86 600.65 1116.25 571.46
00003937 00000151 912.09 149.75 395.42 610.16 940.84 417.29 1066.72 383.94 937.52 501.74 986.95 602.26 1115.10 571.10
00003938 00000152 910.19 147.64 395.32 613.14 939.63 416.15 1066.17 383.82 936.91 501.35 985.02 600.31 1113.16 569.96
00003939 00000153 909.53 148.35 394.80 612.62 938.16 417.04 1064.73 383.96 935.68 501.52 983.89 600.79 1112.07 569.84
00003940 00000154 912.06 150.89 393.41 611.58 939.98 420.74 1064.43 385.92 936.25 503.30 986.06 603.75 1113.26 571.26
00003941 00000155 915.06 153.70 394.05 608.89 941.29 424.78 1066.16 387.43 937.69 506.53 988.13 609.04 1115.87 574.71
00003942 00000156 919.46 154.80 392.56 609.27 947.80 425.43 1069.08 387.29 943.30 507.11 993.47 608.90 1120.23 573.56
00003943 00000157 922.64 166.85 400.43 599.75 961.14 424.38 1074.10 393.94 952.96 510.59 1007.05 607.01 1126.32 577.75
00003944 00000158 928.51 167.70 399.74 596.66 967.29 421.14 1080.88 391.14 958.21 505.46 1012.86 604.82 1133.28 575.97
00003945 00000159 933.52 169.44 399.40 596.22 972.09 418.04 1085.20 388.08 958.96 503.62 1016.79 605.68 1136.81 576.85
00003946 00000160 937.96 171.34 399.62 595.56 974.95 419.10 1089.35 388.28 963.22 503.36 1021.36 607.68 1142.64 578.37
00003947 00000161 941.08 171.28 398.12 595.68 978.18 416.84 1093.12 387.67 965.38 503.45 1023.40 606.40 1145.94 578.51
00003948 00000162 944.48 170.90 396.40 597.56 982.25 416.43 1096.10 388.11 968.99 504.36 1027.33 607.02 1149.18 580.03
00003949 00000163 946.57 170.90 395.39 598.43 985.47 416.76 1096.76 389.01 971.09 503.88 1030.60 607.54 1149.99 581.12
00003950 00000164 948.38 169.50 393.09 602.97 987.34 417.29 1098.24 389.86 974.38 505.36 1033.58 608.70 1153.73 582.47
00003951 00000165 948.73 169.08 391.78 604.07 988.02 416.84 1098.28 390.35 973.99 505.46 1033.81 609.60 1153.23 584.06
00003952 00000166 947.35 169.55 392.88 605.81 987.80 414.40 1098.00 389.04 972.32 504.30 1032.38 609.59 1152.72 584.88
