Video ID: 	5WyHiAj98ww
H: 	1080
W: 	1920
FPS: 	25.0

FRAME INDEX X0 Y0 W H [Landmarks (5 Points)]

00002308 00000000 883.97 208.32 397.93 567.93 920.68 469.38 1066.12 438.19 945.43 536.62 957.58 660.10 1065.78 633.46
00002309 00000001 879.53 212.05 396.98 561.54 915.00 469.96 1057.81 437.25 937.55 539.33 951.72 659.86 1059.03 632.13
00002310 DELETE   878.69 211.73 394.33 561.15 912.85 470.09 1054.70 438.10 933.13 540.45 948.69 660.81 1054.86 633.79
00002311 00000003 882.75 214.48 393.66 561.58 917.35 469.68 1058.76 440.00 937.11 541.27 952.43 663.39 1055.59 638.18
00002312 DELETE   887.87 214.07 391.51 562.33 923.14 470.91 1067.57 445.93 946.16 542.68 954.50 662.88 1060.75 641.49
00002313 DELETE   890.57 216.59 395.44 559.87 927.19 476.51 1079.72 454.44 955.65 543.04 955.86 661.53 1069.31 642.35
00002314 DELETE   892.27 218.87 399.22 557.17 930.94 479.06 1083.70 455.09 962.19 542.30 960.61 658.06 1077.12 637.45
00002315 00000007 894.00 218.47 399.50 557.77 934.54 477.08 1085.66 451.75 968.26 543.77 967.61 656.34 1084.68 634.81
00002316 00000008 896.42 220.12 397.78 557.70 937.09 474.67 1085.14 448.23 970.81 546.09 972.10 656.03 1087.88 633.78
00002317 DELETE   890.13 222.11 402.27 556.36 932.54 475.11 1080.91 444.81 968.90 547.13 972.89 658.91 1087.12 633.21
00002318 00000010 881.85 224.39 400.51 554.11 924.85 480.65 1071.60 443.29 962.34 546.14 970.53 667.11 1079.99 634.97
00002319 DELETE   873.80 228.43 391.66 547.10 914.66 485.13 1056.51 443.68 948.28 549.93 959.48 671.34 1065.93 636.07
00002320 00000012 858.05 235.75 391.80 542.11 897.05 490.07 1028.25 447.60 923.97 560.76 944.41 670.69 1044.65 635.27
00002321 00000013 847.95 231.42 388.82 546.49 888.08 493.56 1015.57 449.04 912.04 556.14 932.65 671.01 1031.39 634.36
00002322 00000014 841.38 230.84 390.55 546.79 882.11 491.80 1008.71 446.16 906.86 553.58 929.33 669.04 1027.85 631.37
00002323 00000015 838.58 230.82 391.22 544.44 879.66 489.64 1006.83 444.62 904.83 550.95 927.07 664.37 1027.74 627.04
00002324 00000016 838.25 228.40 390.80 544.18 878.49 487.28 1006.41 442.27 905.25 548.42 927.63 660.17 1028.96 622.78
00002325 00000017 837.84 225.31 390.40 544.98 877.66 481.81 1005.13 437.27 903.43 544.18 928.05 655.01 1030.30 617.78
00002326 00000018 836.49 223.24 392.82 545.07 876.46 479.16 1006.68 435.11 903.47 540.86 926.99 652.23 1030.72 615.34
00002327 00000019 837.72 219.69 394.03 547.57 876.38 476.69 1008.24 430.04 901.69 536.00 928.14 652.24 1032.35 613.21
00002328 00000020 838.82 218.60 394.08 551.20 876.99 475.70 1009.18 427.25 899.86 534.49 930.10 652.72 1038.40 612.09
00002329 00000021 835.22 218.32 397.01 552.38 883.41 471.10 1012.36 433.23 904.15 539.10 929.12 647.07 1037.05 614.23
00002330 00000022 838.86 212.92 396.31 547.21 879.19 475.90 1012.83 425.17 904.41 527.24 931.16 644.01 1045.51 601.45
00002331 00000023 840.06 211.79 395.37 543.29 878.13 476.14 1013.28 426.42 903.82 523.35 924.98 641.45 1038.58 599.89
00002332 00000024 839.65 212.05 395.99 544.59 877.87 475.68 1013.27 426.86 903.42 523.64 923.94 642.27 1036.66 601.49
00002333 00000025 838.82 213.38 396.26 545.12 877.29 475.27 1012.29 427.61 903.09 525.86 924.53 643.47 1036.53 603.59
00002334 00000026 838.07 212.58 397.91 548.13 876.51 475.49 1011.73 428.50 903.12 527.89 923.77 645.36 1034.98 606.08
00002335 00000027 838.33 213.64 397.45 548.45 877.52 473.86 1012.49 429.74 904.64 529.92 924.15 644.95 1034.71 608.02
00002336 00000028 839.74 214.41 397.33 548.29 878.67 473.42 1014.65 429.91 905.80 531.34 924.77 644.98 1035.82 608.66
00002337 00000029 841.32 214.36 397.77 548.45 880.86 474.54 1017.74 430.73 908.85 531.97 926.66 645.41 1038.59 608.84
00002338 00000030 843.84 214.30 397.36 549.49 883.29 474.46 1022.19 430.13 912.27 533.35 929.75 647.50 1042.14 610.62
00002339 00000031 845.60 213.19 397.08 551.01 885.51 473.83 1025.22 429.99 915.83 534.35 933.71 647.80 1046.06 611.18
00002340 00000032 848.47 210.82 397.44 551.68 887.59 474.69 1027.76 429.92 918.80 534.55 936.24 647.84 1047.89 610.49
00002341 00000033 852.03 211.29 395.12 549.45 889.74 473.03 1030.95 429.89 921.32 533.61 936.82 645.86 1049.60 609.90
00002342 00000034 852.56 211.12 394.92 549.21 890.17 472.61 1031.95 430.03 921.94 533.33 936.29 645.88 1049.07 610.49
00002343 00000035 850.65 212.39 395.32 548.76 889.16 472.49 1030.90 431.12 920.71 533.95 934.06 645.26 1048.07 610.81
00002344 00000036 848.34 212.55 395.88 550.28 887.07 473.96 1029.00 432.34 918.74 534.95 931.78 646.18 1046.62 611.52
00002345 00000037 845.85 211.72 396.12 552.96 885.70 473.36 1028.22 433.68 917.16 535.35 929.39 645.56 1045.44 612.42
00002346 00000038 843.75 211.79 396.72 554.02 884.99 473.73 1027.47 435.25 916.70 536.10 927.27 645.57 1043.70 613.54
00002347 00000039 841.97 213.53 397.48 552.30 883.46 473.73 1025.85 436.01 915.77 537.06 925.29 645.83 1040.97 614.51
00002348 00000040 840.92 212.98 396.51 553.91 882.14 473.00 1024.15 437.06 913.89 536.59 922.17 644.81 1037.91 614.97
00002349 00000041 840.40 213.73 396.19 553.29 880.66 473.52 1021.08 437.12 911.29 536.88 920.56 645.36 1035.72 615.12
00002350 00000042 839.63 214.10 395.20 553.50 879.56 471.91 1019.42 437.96 908.97 537.43 918.24 645.01 1032.67 616.73
00002351 00000043 837.17 214.94 397.17 554.52 877.66 472.05 1017.53 438.10 907.08 537.55 916.81 646.19 1030.68 617.91
00002352 00000044 835.52 216.27 396.68 554.44 876.51 471.90 1015.50 438.86 905.72 538.65 915.84 647.07 1028.69 619.50
00002353 00000045 833.84 217.63 396.50 554.11 875.34 472.49 1014.35 439.62 905.19 539.57 914.81 647.85 1027.60 620.44
00002354 00000046 832.22 219.81 396.43 552.71 874.46 473.04 1012.95 440.22 904.59 541.08 914.71 649.08 1026.62 621.67
00002355 00000047 831.59 220.85 395.45 552.96 873.07 474.72 1011.68 440.64 903.22 542.75 913.33 652.32 1024.98 623.95
00002356 00000048 830.78 221.66 394.91 552.40 871.68 475.56 1010.90 440.86 902.31 544.12 912.73 654.64 1023.57 625.76
00002357 00000049 830.42 222.34 394.31 551.94 870.49 475.36 1010.21 440.49 901.26 544.12 912.36 656.08 1022.28 627.01
00002358 00000050 829.30 222.16 395.17 551.65 869.47 473.62 1009.36 439.56 900.05 543.54 912.45 655.84 1020.82 627.31
00002359 00000051 826.74 222.27 396.60 551.13 867.06 473.92 1008.00 438.80 898.62 542.86 910.39 656.86 1019.07 627.46
00002360 00000052 824.43 222.77 396.96 550.40 865.21 473.71 1006.27 437.86 897.67 542.25 909.35 657.01 1017.53 626.96
00002361 00000053 821.88 222.38 397.47 549.41 862.43 473.46 1004.85 437.44 896.03 542.07 907.78 656.85 1015.86 626.49
00002362 00000054 818.74 222.80 399.27 547.77 859.44 473.40 1004.10 436.30 894.28 540.08 905.62 656.74 1014.46 625.40
00002363 00000055 816.54 221.31 400.15 549.26 856.87 473.59 1001.58 436.04 891.30 539.20 903.36 657.83 1011.19 626.00
00002364 00000056 814.74 221.11 399.67 549.73 854.87 474.06 999.80 436.03 889.40 538.01 901.69 658.91 1009.01 626.53
00002365 00000057 813.52 219.97 397.73 550.33 853.56 474.23 998.42 436.25 887.42 538.39 900.56 659.83 1007.43 627.40
00002366 00000058 812.36 219.84 398.56 550.70 852.27 474.04 997.32 435.90 886.35 538.89 899.63 660.32 1006.49 627.71
00002367 00000059 811.46 220.21 399.30 550.68 851.81 473.85 996.92 436.31 886.19 539.27 899.10 660.32 1006.24 628.18
00002368 00000060 811.53 220.65 398.37 550.58 851.62 474.44 996.95 436.60 886.37 539.87 898.72 660.98 1006.06 628.65
00002369 00000061 811.67 221.47 397.81 549.69 851.57 474.27 996.90 436.46 886.23 539.71 898.25 661.17 1005.36 628.87
00002370 00000062 812.02 222.90 396.61 548.19 851.81 474.26 997.50 436.99 886.69 540.37 898.06 661.18 1005.38 629.28
00002371 00000063 812.22 222.84 397.20 548.88 852.36 474.07 998.24 437.21 887.24 540.17 898.44 661.12 1006.00 629.57
00002372 00000064 813.50 223.57 396.41 547.63 853.37 474.94 999.70 437.77 888.04 538.96 898.34 660.84 1006.53 629.09
00002373 00000065 813.81 223.54 397.82 547.30 856.56 480.20 1003.38 442.85 892.06 536.03 898.10 659.46 1008.46 627.70
00002374 00000066 814.77 221.31 397.49 548.65 858.92 481.57 1008.05 446.16 895.42 534.64 898.86 657.28 1011.30 627.25
00002375 00000067 818.88 220.06 395.64 550.08 862.80 474.75 1010.91 439.40 899.29 534.93 903.47 654.27 1015.35 624.59
00002376 00000068 822.77 220.03 395.29 550.98 867.43 471.20 1015.40 438.94 903.90 534.80 906.72 652.10 1019.51 624.91
00002377 00000069 825.18 220.16 397.10 551.16 872.14 468.12 1021.04 437.09 911.40 532.51 910.65 649.20 1024.62 623.21
00002378 00000070 825.95 220.30 397.89 550.25 874.40 468.38 1024.23 435.80 915.83 530.20 913.85 647.97 1028.44 620.84
00002379 00000071 826.78 219.39 398.36 549.25 875.50 469.14 1024.62 435.07 917.25 528.87 916.28 647.59 1029.73 619.25
00002380 00000072 827.81 218.13 398.60 550.32 876.52 469.29 1025.02 434.50 917.59 527.55 917.12 647.00 1030.54 618.07
00002381 00000073 829.07 217.98 398.18 549.84 877.25 470.41 1023.10 435.55 916.72 528.12 918.25 646.56 1031.02 617.51
00002382 00000074 830.57 218.19 397.24 549.80 878.10 470.44 1022.12 436.15 915.75 529.28 919.11 646.87 1030.49 618.25
00002383 00000075 831.91 217.68 396.30 550.70 878.53 470.61 1021.69 436.78 915.31 530.65 919.13 646.99 1030.39 618.73
00002384 00000076 833.86 216.96 396.23 552.46 879.30 470.86 1022.93 437.65 915.23 532.51 919.46 647.39 1031.80 619.68
00002385 00000077 836.37 217.51 395.58 553.14 881.71 469.84 1025.95 437.39 916.98 533.31 920.70 647.58 1033.52 620.56
00002386 00000078 838.61 216.03 395.64 554.95 885.38 469.41 1031.32 437.98 923.23 533.84 925.35 647.86 1038.72 621.61
00002387 00000079 839.95 215.42 399.07 557.63 890.83 467.61 1040.86 436.35 933.21 532.70 934.38 649.14 1046.88 622.95
00002388 00000080 844.77 215.93 399.30 562.89 904.68 459.68 1058.06 434.26 952.04 532.09 950.39 648.98 1056.76 627.61
00002389 00000081 842.28 214.26 399.72 570.86 912.07 454.58 1060.59 432.42 959.27 539.16 951.72 655.71 1063.93 638.82
00002390 00000082 842.05 216.08 399.60 572.20 900.30 457.88 1053.82 435.03 944.53 541.20 946.28 659.71 1047.43 640.51
00002391 00000083 839.05 214.79 399.34 573.83 891.54 463.11 1041.78 435.82 931.30 541.45 935.02 663.75 1037.48 641.01
00002392 00000084 835.95 214.68 396.49 569.91 886.26 463.22 1032.35 436.05 922.04 536.25 924.95 658.34 1029.77 635.63
00002393 00000085 831.97 216.76 395.92 563.80 880.57 463.00 1027.28 436.24 915.21 534.91 917.19 653.01 1026.95 630.68
00002394 00000086 827.40 217.73 397.50 558.07 875.06 464.60 1021.57 434.29 910.37 532.54 912.79 649.85 1026.44 624.48
00002395 00000087 822.92 219.58 397.78 552.19 870.24 464.50 1016.96 432.97 907.35 531.47 910.74 647.36 1026.68 620.62
00002396 00000088 820.01 220.18 397.33 547.43 866.03 466.28 1013.02 430.83 903.71 530.26 908.87 645.38 1026.43 615.29
00002397 00000089 817.95 221.35 397.38 543.44 861.80 468.06 1009.28 430.47 899.16 531.35 907.14 645.12 1025.88 613.07
00002398 00000090 814.44 221.00 397.25 539.21 858.50 469.64 1007.02 430.03 898.07 531.17 906.42 644.05 1026.16 610.16
00002399 00000091 813.92 220.72 397.38 537.88 856.63 471.09 1005.61 429.33 896.28 529.89 906.06 644.01 1026.41 608.23
00002400 00000092 812.87 220.96 398.20 536.43 855.45 472.43 1003.19 429.28 894.68 530.26 905.91 643.55 1025.83 606.49
00002401 00000093 809.97 221.70 400.21 538.36 853.85 473.39 1000.74 429.38 892.82 532.24 905.64 644.11 1026.55 606.10
00002402 00000094 807.86 225.26 400.36 538.35 850.98 477.91 997.30 432.33 890.52 537.79 904.42 648.29 1026.84 608.76
00002403 00000095 804.80 226.09 399.03 544.89 849.33 481.08 992.71 433.83 890.05 543.94 905.63 652.99 1027.60 612.03
00002404 00000096 800.39 227.63 401.25 548.44 845.75 489.60 989.87 438.89 887.60 548.92 904.08 662.00 1026.73 618.01
00002405 00000097 796.54 237.89 402.84 542.51 843.68 496.96 989.68 446.90 888.45 557.01 901.37 669.26 1024.90 625.71
00002406 00000098 794.60 244.52 403.88 540.76 842.58 504.69 985.75 454.16 885.48 565.55 899.85 676.14 1021.82 632.32
00002407 00000099 790.63 252.33 405.35 541.27 840.49 505.70 984.65 458.78 885.37 576.76 899.53 679.76 1023.72 638.81
00002408 00000100 793.75 262.78 401.65 537.74 845.74 509.07 974.21 470.53 881.89 592.82 911.16 685.51 1021.80 651.96
00002409 00000101 794.64 263.72 398.65 538.36 845.78 510.84 971.50 472.85 881.37 596.54 913.29 687.49 1021.40 654.36
00002410 00000102 795.91 264.00 396.92 537.08 846.07 511.74 969.99 473.95 880.14 597.72 914.23 688.01 1020.07 655.05
00002411 00000103 795.23 257.20 399.73 541.62 844.90 506.00 982.05 464.15 888.89 586.65 908.85 684.48 1026.05 647.73
00002412 00000104 801.45 256.45 397.14 541.27 848.87 506.38 983.62 463.38 890.15 585.12 913.45 683.76 1029.92 646.12
00002413 00000105 808.66 253.12 393.93 543.30 855.65 504.84 987.79 462.95 894.72 583.37 919.94 680.77 1034.28 644.09
00002414 00000106 806.63 250.70 403.06 543.69 852.21 508.24 995.09 468.02 894.89 585.31 917.62 678.97 1033.25 645.46
00002415 00000107 814.69 253.96 401.02 537.92 860.36 506.32 1001.11 468.35 901.13 584.83 925.21 677.97 1037.53 646.35
00002416 00000108 820.37 250.40 398.05 539.65 868.27 506.04 1004.01 470.34 904.54 585.19 932.72 676.67 1040.04 646.33
00002417 00000109 827.53 250.46 394.42 537.39 875.67 511.02 1004.32 473.74 905.05 584.65 938.20 677.38 1042.09 645.35
00002418 00000110 839.97 249.75 385.32 535.46 884.43 516.82 1004.16 478.66 902.15 586.32 942.85 680.20 1042.94 647.26
00002419 00000111 851.19 248.50 379.62 534.28 894.79 509.57 1011.13 475.86 909.22 584.75 950.43 677.15 1048.15 647.80
00002420 00000112 859.04 248.70 382.06 529.28 909.29 499.03 1020.31 471.26 921.45 580.36 963.99 668.87 1057.43 644.55
00002421 00000113 870.61 242.89 384.68 533.56 913.90 492.22 1030.49 460.25 935.03 570.82 966.26 665.06 1068.62 635.85
00002422 DELETE   885.26 240.12 386.78 533.35 925.07 487.27 1045.14 457.21 943.69 563.76 973.13 657.05 1079.24 629.34
00002423 00000115 890.87 237.46 389.83 533.21 928.41 486.05 1058.02 457.88 951.96 559.92 975.49 654.75 1085.75 629.03
00002424 00000116 900.67 239.77 390.68 530.49 940.63 484.16 1066.06 457.25 962.99 562.79 988.95 652.66 1096.51 628.67
00002425 DELETE   916.80 236.85 381.53 531.16 953.35 481.25 1074.67 452.25 972.53 561.39 1001.11 651.38 1106.58 625.87
00002426 00000118 927.05 231.45 378.94 529.93 965.78 474.99 1090.73 447.64 987.75 555.51 1014.36 643.90 1120.23 619.69
00002427 00000119 942.98 228.00 383.63 527.16 980.15 467.35 1109.86 437.40 1004.34 546.89 1030.52 644.00 1135.69 616.45
00002428 DELETE   954.82 219.09 384.72 526.58 990.91 463.46 1122.20 434.63 1013.28 541.50 1040.95 635.88 1144.77 609.20
00002429 DELETE   960.79 213.37 387.20 525.04 993.12 454.25 1134.21 423.97 1018.86 531.26 1043.87 631.41 1154.58 606.99
CROP_BBOX: 662 0 1558 947
