Video ID: 	ubMjKaVMv2E
H: 	2160
W: 	3840
FPS: 	25.0

FRAME INDEX X0 Y0 W H [Landmarks (5 Points)]

00002425 00000000 2283.52 506.79 606.53 987.46 2591.13 905.05 2822.57 913.68 2857.06 1036.80 2660.73 1248.84 2859.15 1262.15
00002426 DELETE   2303.89 513.46 608.74 986.97 2609.74 929.95 2849.93 928.79 2873.06 1060.34 2670.95 1271.77 2877.34 1277.29
00002427 DELETE   2322.71 553.04 611.45 984.15 2623.85 956.90 2868.21 963.51 2888.34 1086.34 2678.96 1295.20 2892.52 1305.76
00002428 DELETE   2340.38 573.55 614.20 979.22 2642.19 993.87 2885.67 991.11 2904.08 1115.15 2696.32 1315.83 2906.53 1318.74
00002429 00000004 2357.93 597.80 611.02 964.49 2659.08 1009.98 2898.18 1002.49 2917.12 1128.46 2727.29 1339.99 2922.69 1338.67
00002430 00000005 2365.22 621.12 616.86 956.55 2667.19 1023.91 2908.02 1013.73 2923.98 1144.41 2740.58 1356.42 2936.58 1353.03
00002431 00000006 2366.58 628.65 617.83 958.82 2675.17 1033.59 2915.73 1027.52 2930.92 1160.62 2750.52 1370.64 2941.76 1370.46
00002432 00000007 2367.75 643.11 617.71 975.76 2678.33 1046.99 2918.54 1048.12 2937.89 1174.43 2752.42 1385.26 2946.59 1391.53
00002433 00000008 2384.19 656.94 605.93 978.66 2683.75 1068.04 2927.87 1067.52 2941.61 1185.10 2770.61 1408.16 2956.96 1414.06
00002434 00000009 2393.83 669.38 602.42 963.74 2690.56 1076.81 2938.99 1073.78 2950.36 1200.83 2775.82 1418.22 2966.40 1421.82
00002435 00000010 2402.22 667.50 608.92 967.23 2699.50 1076.33 2942.37 1071.47 2957.08 1211.75 2779.02 1422.04 2971.58 1422.17
00002436 00000011 2412.51 676.06 593.79 980.82 2702.15 1076.24 2942.00 1073.23 2960.75 1216.34 2774.68 1433.05 2964.40 1434.55
00002437 00000012 2416.13 680.76 595.70 987.49 2705.95 1070.59 2946.89 1076.32 2971.47 1209.27 2769.65 1427.58 2968.33 1436.91
00002438 00000013 2414.70 666.33 608.64 983.91 2710.75 1060.48 2952.57 1065.79 2978.76 1194.69 2781.71 1411.47 2979.70 1420.51
00002439 00000014 2415.65 661.73 605.93 979.49 2711.65 1050.86 2951.30 1056.82 2971.50 1188.75 2782.06 1402.08 2974.75 1410.93
00002440 00000015 2406.15 665.89 607.28 996.59 2706.36 1049.45 2953.50 1068.57 2970.89 1185.31 2778.37 1406.19 2973.67 1425.63
00002441 00000016 2414.02 654.93 613.42 1002.21 2713.67 1044.40 2953.66 1056.26 2974.42 1189.65 2775.02 1402.85 2970.11 1416.43
00002442 00000017 2421.23 648.16 615.53 1014.39 2727.14 1036.61 2976.55 1061.89 2992.38 1179.54 2784.64 1395.57 2994.11 1420.32
00002443 DELETE   2429.03 636.73 618.96 998.33 2740.12 1025.44 2990.82 1045.46 2999.00 1164.47 2797.84 1377.95 3003.48 1398.84
00002444 DELETE   2442.85 629.43 618.40 959.53 2744.93 1002.32 2997.81 1027.54 2999.48 1139.61 2809.29 1347.79 3012.37 1371.67
00002445 00000020 2439.52 601.29 627.78 959.52 2739.28 985.20 2997.25 1002.53 2995.43 1118.24 2807.81 1321.71 3016.64 1339.05
00002446 00000021 2436.44 581.47 635.55 963.13 2738.84 970.87 2999.48 980.03 3001.31 1097.89 2824.54 1309.04 3028.67 1318.64
00002447 00000022 2439.45 562.45 631.45 962.83 2748.07 957.80 3000.37 961.52 3009.16 1077.02 2852.31 1298.25 3044.72 1306.01
00002448 00000023 2436.86 546.60 644.00 961.40 2754.15 941.63 2999.73 945.42 3017.29 1065.49 2873.29 1287.19 3054.55 1294.09
00002449 00000024 2446.81 531.47 642.63 961.21 2758.49 931.50 3002.93 928.64 3013.93 1053.92 2881.25 1275.12 3057.80 1276.29
00002450 00000025 2446.77 518.00 645.67 964.16 2759.94 923.37 3005.59 921.81 3016.20 1045.45 2878.34 1265.77 3056.81 1267.76
00002451 00000026 2450.91 517.33 650.32 946.40 2762.12 913.77 3009.99 906.65 3014.48 1036.40 2876.93 1252.98 3059.14 1249.92
00002452 00000027 2447.71 509.03 648.98 954.68 2761.12 902.88 3014.09 898.29 3022.46 1020.82 2877.26 1251.64 3063.74 1251.33
00002453 00000028 2455.36 496.79 645.22 949.97 2767.26 890.51 3019.14 889.15 3024.91 1007.89 2880.04 1234.62 3064.31 1237.55
00002454 00000029 2457.22 491.71 649.37 934.37 2769.04 877.18 3022.39 878.47 3028.03 996.56 2879.92 1216.93 3067.09 1221.14
00002455 00000030 2455.02 487.08 650.51 934.48 2768.49 868.73 3020.93 874.94 3029.15 989.85 2874.56 1207.10 3062.85 1215.07
00002456 00000031 2456.48 483.80 646.67 931.99 2765.61 864.75 3018.56 870.21 3022.62 984.96 2865.79 1197.81 3056.62 1205.46
00002457 00000032 2461.39 472.16 649.72 938.96 2766.32 855.82 3020.98 861.27 3019.40 974.29 2858.91 1184.10 3053.99 1192.16
00002458 00000033 2460.81 463.29 642.97 947.70 2758.67 847.68 3018.28 854.45 3010.02 968.71 2847.04 1180.75 3045.63 1189.00
00002459 00000034 2454.27 457.15 642.46 945.52 2751.58 840.35 3014.65 845.11 3000.78 965.89 2824.67 1169.49 3036.27 1175.88
00002460 00000035 2446.97 439.11 645.82 943.61 2746.23 826.12 3014.58 836.82 3000.18 952.76 2811.97 1151.91 3031.55 1162.94
00002461 00000036 2447.65 435.83 640.31 937.05 2745.92 821.31 3014.72 832.94 2999.00 951.29 2807.42 1145.74 3029.29 1157.36
00002462 00000037 2442.99 434.70 645.24 935.51 2742.69 820.74 3013.39 832.11 2995.66 947.84 2804.12 1142.23 3026.96 1153.52
00002463 00000038 2443.32 434.32 644.63 936.48 2742.55 820.11 3013.34 831.75 2993.99 947.39 2801.78 1140.11 3024.96 1151.71
00002464 00000039 2443.25 433.54 646.95 938.44 2739.35 823.30 3013.28 834.52 2991.70 949.49 2798.94 1142.86 3026.51 1154.18
00002465 00000040 2439.69 436.45 646.84 936.74 2741.40 825.11 3012.64 841.18 2992.91 953.88 2800.36 1144.79 3024.54 1160.04
00002466 00000041 2441.29 442.41 647.50 933.45 2739.53 828.11 3012.08 844.33 2990.23 954.64 2799.95 1147.09 3024.85 1162.37
00002467 00000042 2442.26 447.45 645.54 933.07 2738.03 833.24 3010.86 848.68 2987.91 961.14 2796.69 1153.30 3024.16 1168.23
00002468 00000043 2443.77 457.16 644.31 934.26 2739.02 840.75 3010.67 857.50 2986.67 968.29 2793.48 1158.51 3023.02 1175.66
00002469 00000044 2445.33 455.27 639.27 935.80 2739.39 841.23 3010.18 857.31 2986.15 970.04 2793.47 1160.07 3021.58 1176.52
00002470 00000045 2445.61 456.40 638.28 938.87 2738.79 840.73 3007.85 854.18 2984.16 971.26 2790.39 1161.28 3018.96 1175.95
00002471 00000046 2443.08 458.15 638.08 949.56 2734.15 841.49 3005.38 861.47 2987.87 970.41 2784.00 1165.34 3017.73 1186.07
00002472 00000047 2440.19 466.00 636.94 959.86 2733.14 844.85 3002.64 870.66 2987.48 975.16 2785.10 1177.32 3014.61 1203.19
00002473 00000048 2444.48 459.02 634.99 960.42 2732.80 857.30 3003.09 875.05 2987.09 969.42 2796.26 1178.14 3022.13 1197.66
00002474 00000049 2438.56 458.02 643.73 940.04 2730.98 857.20 3005.23 871.13 2988.59 965.02 2801.92 1170.17 3031.87 1186.43
00002475 00000050 2436.84 466.63 646.06 924.04 2727.00 858.50 3000.02 866.12 2980.73 963.31 2814.26 1171.61 3033.23 1181.27
00002476 00000051 2428.63 458.93 652.75 928.95 2726.91 847.69 2999.88 862.92 2982.88 963.93 2813.36 1169.18 3032.23 1183.30
00002477 00000052 2426.97 456.85 654.51 926.79 2726.80 844.46 2997.43 856.64 2981.66 962.53 2813.02 1165.35 3030.88 1176.70
00002478 00000053 2425.48 466.20 651.99 929.13 2723.80 840.36 2992.93 858.90 2975.19 961.64 2803.40 1163.53 3019.41 1180.50
00002479 00000054 2426.16 460.92 651.59 941.78 2722.10 829.65 2993.52 856.67 2978.56 952.19 2799.60 1158.96 3015.91 1183.33
00002480 00000055 2428.31 447.93 649.34 939.40 2720.69 817.12 2993.26 842.47 2982.18 936.76 2802.01 1145.69 3017.64 1168.02
00002481 00000056 2431.34 443.11 650.03 918.72 2722.76 807.53 2996.30 827.49 2982.95 921.92 2812.07 1133.82 3019.44 1149.89
00002482 00000057 2431.03 435.98 655.21 910.32 2729.28 804.41 2995.62 824.52 2985.12 910.62 2820.08 1122.66 3031.14 1141.92
00002483 00000058 2429.40 429.74 668.12 905.39 2730.16 795.85 2998.72 807.55 2985.07 900.28 2822.74 1109.39 3041.61 1121.90
00002484 00000059 2430.72 427.58 672.04 896.65 2730.49 790.52 3002.45 800.66 2988.46 893.44 2830.67 1103.27 3049.50 1114.46
00002485 00000060 2431.51 421.72 673.17 898.86 2731.15 786.11 3002.75 791.89 2990.62 890.61 2842.22 1104.24 3053.93 1111.33
00002486 00000061 2430.65 414.78 679.72 898.91 2733.55 780.29 3006.47 789.36 2996.71 889.97 2843.61 1101.57 3058.32 1111.21
00002487 00000062 2430.89 413.00 676.06 900.53 2733.99 780.99 3005.32 789.17 2993.91 891.41 2839.80 1099.96 3054.08 1109.00
00002488 00000063 2427.73 409.96 676.99 912.15 2737.08 784.21 3005.45 793.37 2998.22 894.17 2840.23 1102.88 3053.55 1113.28
00002489 00000064 2432.87 410.30 670.34 922.27 2743.38 786.34 3008.22 798.18 3001.90 900.31 2841.00 1109.09 3051.22 1121.93
00002490 00000065 2437.91 405.21 662.82 932.92 2745.45 788.81 3009.39 800.43 3004.37 906.63 2844.83 1119.09 3050.45 1131.70
00002491 00000066 2437.74 397.67 666.75 940.07 2744.39 791.22 3015.06 806.72 3008.81 912.66 2840.29 1124.06 3054.65 1139.87
00002492 00000067 2442.10 400.18 667.75 932.56 2747.99 794.47 3020.41 805.65 3009.80 918.74 2838.72 1125.18 3056.50 1137.11
00002493 00000068 2452.24 408.19 668.36 931.99 2756.33 798.81 3028.90 806.77 3011.64 926.56 2837.25 1126.36 3060.39 1135.76
00002494 00000069 2459.53 409.27 664.56 949.75 2763.27 805.50 3036.89 816.46 3014.64 933.61 2838.29 1133.37 3060.99 1146.01
00002495 00000070 2471.57 418.37 649.85 954.22 2770.57 811.66 3039.94 819.42 3018.40 945.60 2833.48 1145.12 3053.62 1155.41
00002496 00000071 2479.70 422.87 660.49 963.31 2779.09 816.23 3048.29 816.92 3029.02 961.84 2838.55 1155.32 3056.84 1157.52
00002497 00000072 2486.25 427.76 657.61 970.14 2785.68 833.85 3055.61 831.40 3032.95 972.10 2843.36 1167.17 3062.57 1167.87
00002498 00000073 2485.62 429.99 650.32 971.12 2788.52 858.98 3052.24 858.66 3029.98 985.76 2853.55 1187.57 3058.05 1190.23
00002499 00000074 2489.62 431.34 648.75 974.35 2791.09 863.31 3056.40 859.85 3034.28 991.34 2864.33 1197.64 3062.47 1197.50
00002500 00000075 2495.38 428.50 646.87 980.91 2796.83 850.39 3060.69 849.25 3039.49 985.96 2876.45 1196.39 3069.20 1197.26
00002501 00000076 2498.44 433.73 649.56 981.21 2800.11 840.85 3064.15 843.04 3041.61 978.61 2880.50 1194.45 3071.55 1197.44
00002502 00000077 2501.62 431.82 645.24 987.35 2800.77 833.09 3064.13 837.27 3041.80 975.71 2878.75 1194.80 3067.34 1199.20
00002503 00000078 2497.30 430.15 653.16 989.81 2800.83 831.92 3065.89 837.88 3043.70 973.67 2876.23 1192.67 3067.38 1198.52
00002504 00000079 2500.31 440.27 649.72 979.67 2800.36 837.82 3066.63 846.86 3042.44 976.80 2877.94 1195.44 3069.05 1203.62
00002505 00000080 2497.56 449.72 654.79 973.53 2800.48 841.59 3067.85 851.75 3046.47 975.10 2885.70 1197.66 3075.84 1207.21
00002506 00000081 2499.16 450.34 658.65 976.75 2803.31 841.11 3072.75 853.65 3055.37 969.12 2894.65 1196.25 3085.94 1208.37
00002507 00000082 2492.81 453.37 664.58 982.10 2802.87 841.09 3073.70 858.96 3060.02 966.29 2898.47 1198.06 3089.85 1214.79
00002508 00000083 2490.93 450.08 670.01 963.88 2799.15 838.42 3073.43 855.92 3053.77 963.69 2891.33 1187.08 3088.20 1203.23
00002509 00000084 2489.92 444.64 683.26 958.40 2794.13 834.56 3078.45 852.71 3057.73 960.02 2887.16 1184.13 3098.77 1200.37
00002510 00000085 2491.67 445.44 682.17 955.81 2796.69 832.02 3079.66 847.98 3057.63 958.38 2886.12 1178.58 3097.56 1192.87
00002511 00000086 2492.21 445.99 677.66 955.46 2797.99 829.34 3076.42 842.88 3052.44 956.60 2886.80 1176.20 3090.20 1188.49
00002512 00000087 2492.09 443.84 675.62 960.46 2798.68 825.84 3075.21 835.42 3051.16 953.63 2883.99 1173.57 3086.58 1182.71
00002513 00000088 2490.47 439.26 673.56 964.92 2798.11 819.90 3073.72 833.35 3048.88 954.09 2870.16 1167.96 3077.31 1180.64
00002514 00000089 2494.70 436.88 665.43 966.86 2792.93 817.51 3073.89 835.38 3041.46 958.80 2852.46 1170.11 3068.41 1185.77
00002515 00000090 2492.46 438.95 659.46 966.29 2790.00 814.21 3067.45 833.19 3034.35 958.40 2836.95 1161.60 3060.94 1178.71
00002516 00000091 2491.60 436.73 657.55 972.37 2785.58 809.63 3065.76 840.14 3028.12 950.79 2824.99 1151.99 3062.19 1179.33
00002517 00000092 2488.50 430.95 660.13 982.65 2785.71 805.84 3062.98 834.44 3025.51 945.44 2825.58 1149.84 3060.10 1175.90
00002518 00000093 2486.29 434.66 662.01 990.74 2785.24 802.71 3060.53 833.25 3025.02 942.40 2819.37 1148.79 3058.26 1176.35
00002519 00000094 2482.95 423.93 662.57 990.89 2784.90 806.31 3062.86 838.72 3027.33 942.94 2815.38 1145.35 3057.46 1174.78
00002520 00000095 2477.57 406.16 667.90 989.93 2780.44 803.31 3062.13 828.61 3032.62 933.89 2811.66 1133.06 3056.82 1158.26
00002521 00000096 2475.27 394.59 666.87 993.81 2773.94 793.70 3057.43 821.59 3030.68 930.83 2813.85 1132.04 3056.27 1159.00
00002522 00000097 2466.96 385.29 672.89 985.46 2767.56 790.05 3052.14 809.12 3025.55 931.77 2819.28 1136.27 3056.99 1155.53
00002523 00000098 2459.75 375.56 675.47 979.46 2765.53 786.33 3048.35 801.31 3019.77 928.06 2828.14 1131.89 3059.51 1147.35
00002524 00000099 2461.78 366.78 668.71 972.97 2768.02 778.49 3039.21 785.68 3013.18 918.83 2842.93 1124.04 3053.17 1132.26
00002525 00000100 2459.69 355.27 667.57 984.91 2769.79 772.42 3033.09 776.11 3013.92 909.29 2860.64 1121.74 3055.13 1127.21
00002526 00000101 2454.70 346.47 660.83 999.85 2765.01 760.69 3030.59 768.13 3017.73 894.04 2865.80 1119.72 3060.44 1127.99
00002527 00000102 2457.88 340.70 654.98 991.84 2766.87 750.09 3034.31 751.87 3018.92 887.82 2863.43 1111.70 3059.93 1114.54
00002528 00000103 2462.19 337.06 650.11 979.08 2770.89 744.55 3034.45 745.15 3023.72 882.00 2869.63 1104.52 3061.73 1106.57
00002529 00000104 2462.15 334.72 642.51 984.60 2771.66 744.08 3032.24 744.88 3023.89 884.31 2866.21 1106.53 3055.94 1109.03
00002530 00000105 2466.66 332.97 632.82 991.88 2774.82 750.74 3030.88 745.99 3024.89 889.24 2866.29 1111.10 3052.88 1110.08
00002531 00000106 2480.47 338.33 617.13 976.54 2779.21 756.24 3033.03 748.80 3029.28 899.82 2857.21 1110.59 3048.90 1108.46
00002532 00000107 2481.93 352.46 607.87 1006.36 2784.70 765.50 3031.74 761.05 3040.20 918.02 2826.00 1116.91 3035.45 1117.43
00002533 00000108 2503.58 350.89 582.06 969.89 2799.20 784.17 3033.77 761.32 3054.10 936.84 2873.77 1130.76 3053.32 1120.37
00002534 00000109 2514.35 355.12 577.89 962.91 2809.21 782.97 3033.32 763.21 3052.91 926.42 2902.27 1126.29 3066.47 1115.05
CROP_BBOX: 1793 0 3663 1935
