Video ID: 	CDRsm8dW51E
H: 	2160
W: 	3840
FPS: 	23.976023976023978

FRAME INDEX X0 Y0 W H [Landmarks (5 Points)]

00005486 00000000 1596.37 410.65 634.34 987.26 1892.07 887.42 2150.67 879.61 2083.57 1059.51 1868.55 1153.23 2110.27 1151.96
00005487 00000001 1598.11 403.92 632.13 980.95 1900.12 890.23 2152.94 874.77 2094.94 1051.93 1892.54 1162.07 2116.76 1154.83
00005488 00000002 1599.19 395.94 638.19 986.23 1907.79 889.97 2162.18 867.18 2107.93 1046.58 1913.33 1170.73 2127.40 1157.21
00005489 00000003 1601.20 399.62 639.19 983.43 1911.11 888.70 2166.02 860.88 2115.08 1046.50 1914.27 1168.45 2133.18 1151.35
00005490 00000004 1602.29 394.55 631.66 986.92 1903.98 883.87 2159.31 865.11 2102.75 1040.06 1910.09 1172.50 2125.28 1161.83
00005491 00000005 1594.33 388.95 632.05 994.74 1894.93 880.73 2150.14 863.91 2093.94 1038.63 1891.40 1161.87 2116.93 1153.36
00005492 00000006 1587.27 380.92 639.38 998.34 1886.47 872.54 2142.60 862.32 2077.58 1033.23 1885.12 1157.06 2110.93 1153.27
00005493 00000007 1588.07 381.64 638.82 984.72 1880.79 864.18 2140.35 856.82 2072.04 1025.82 1875.74 1149.08 2107.19 1148.04
00005494 00000008 1587.44 379.94 641.19 978.01 1877.61 857.62 2141.41 854.51 2070.36 1013.20 1876.24 1140.09 2112.48 1141.96
00005495 00000009 1592.90 374.11 634.51 969.15 1881.20 851.89 2141.28 845.18 2072.90 1006.72 1881.71 1129.44 2111.53 1128.56
00005496 00000010 1607.40 362.16 619.92 958.04 1889.15 836.55 2142.87 827.61 2073.10 992.25 1887.28 1103.62 2116.78 1101.05
00005497 00000011 1616.54 352.06 625.54 952.16 1894.54 818.58 2145.80 814.86 2073.54 972.70 1883.97 1075.22 2105.90 1076.78
00005498 00000012 1642.76 354.46 612.81 895.88 1926.04 817.21 2167.67 784.03 2113.77 944.26 1957.81 1073.23 2143.84 1055.74
00005499 DELETE   1653.65 324.17 631.15 949.82 1955.14 778.98 2206.41 759.54 2162.13 920.61 2017.65 1081.81 2200.49 1070.77
00005500 00000014 1678.40 323.10 620.84 889.12 1952.53 753.81 2200.41 743.82 2138.21 875.90 2009.87 1025.28 2187.94 1019.20
00005501 00000015 1692.27 342.71 621.75 881.01 1986.08 759.93 2228.88 764.55 2175.77 905.68 2020.08 1042.33 2208.79 1046.73
00005502 DELETE   1706.90 324.61 625.07 943.94 1991.58 773.23 2258.67 783.72 2188.61 954.43 2024.58 1102.73 2218.56 1113.22
00005503 00000017 1723.12 331.34 627.67 928.39 2020.63 755.73 2261.19 778.63 2196.43 926.27 2029.67 1062.01 2216.81 1080.02
00005504 DELETE   1761.55 329.64 611.19 956.72 2026.28 756.10 2278.07 777.25 2190.86 936.25 1992.42 1026.35 2233.64 1048.01
00005505 00000019 1762.57 329.94 618.56 957.78 2036.05 751.68 2293.30 781.04 2205.43 935.22 1997.85 1027.69 2245.69 1055.19
00005506 00000020 1774.41 338.41 605.32 939.26 2038.36 752.12 2293.48 785.55 2209.42 936.26 1991.65 1017.52 2240.79 1050.38
00005507 00000021 1772.94 334.53 610.05 942.62 2041.25 750.28 2294.78 785.89 2210.68 937.27 1991.85 1016.15 2239.91 1050.82
00005508 00000022 1769.14 339.43 612.83 936.24 2039.15 747.76 2292.37 784.22 2206.65 939.35 1985.84 1011.25 2235.37 1046.93
00005509 00000023 1761.63 324.52 619.49 960.63 2034.37 742.82 2289.05 776.73 2198.31 935.62 1983.80 1015.25 2233.68 1048.27
00005510 00000024 1759.56 322.99 615.99 956.88 2023.29 736.54 2277.05 773.83 2183.90 927.30 1971.27 1010.69 2219.69 1047.17
00005511 00000025 1745.06 328.09 615.12 941.70 2009.38 734.72 2261.85 771.53 2171.69 922.92 1960.41 1006.94 2207.70 1043.02
00005512 00000026 1738.12 322.67 608.37 937.32 1996.43 732.01 2249.11 766.55 2161.56 919.08 1950.66 1006.47 2194.33 1041.16
00005513 00000027 1723.87 319.95 613.00 934.50 1982.82 731.18 2239.95 762.52 2152.57 913.40 1936.00 1005.56 2182.57 1038.17
00005514 00000028 1719.42 310.38 613.02 937.07 1976.33 731.17 2233.24 757.51 2147.89 910.35 1931.36 1002.30 2174.72 1031.41
00005515 00000029 1713.63 309.53 616.15 938.03 1970.98 731.67 2228.17 758.01 2141.74 911.16 1926.54 1000.95 2169.24 1029.98
00005516 00000030 1709.35 312.74 617.99 935.34 1969.03 729.71 2227.08 757.03 2141.13 910.59 1923.00 1001.84 2167.04 1031.73
00005517 00000031 1709.52 309.75 617.55 937.15 1967.69 728.53 2225.93 756.45 2138.44 907.60 1921.07 999.08 2166.03 1029.67
00005518 00000032 1707.83 303.37 618.99 939.26 1967.70 727.91 2226.35 754.49 2140.46 907.18 1922.21 999.79 2166.06 1029.07
00005519 00000033 1709.36 300.30 618.53 935.17 1968.29 730.79 2226.11 754.05 2139.40 908.39 1930.03 1005.21 2167.19 1030.98
00005520 00000034 1705.56 298.21 622.59 933.89 1968.05 731.86 2226.11 753.14 2138.74 908.73 1934.63 1007.00 2169.32 1031.00
00005521 00000035 1701.45 298.09 627.23 942.00 1968.45 729.99 2226.30 752.88 2139.93 908.52 1934.05 1009.96 2168.76 1035.21
00005522 00000036 1698.06 297.31 630.71 951.63 1969.90 729.78 2223.45 755.82 2134.55 911.81 1940.60 1014.12 2167.17 1037.62
00005523 00000037 1700.10 296.28 628.09 953.17 1962.07 729.53 2224.83 754.98 2135.39 908.49 1924.64 1008.76 2167.93 1036.48
00005524 00000038 1700.98 292.56 626.80 955.09 1959.57 729.62 2222.77 754.97 2132.02 908.47 1921.51 1007.25 2165.85 1035.02
00005525 00000039 1702.41 292.60 622.10 947.27 1956.60 728.17 2219.75 754.61 2128.05 907.82 1921.01 1006.66 2162.56 1034.53
00005526 00000040 1693.41 292.84 626.57 944.19 1955.07 725.26 2207.06 754.57 2115.59 910.31 1928.76 1007.10 2152.55 1032.73
00005527 00000041 1689.65 288.87 622.27 943.26 1948.29 724.16 2200.77 750.84 2111.69 907.47 1924.80 1002.21 2150.89 1025.57
00005528 00000042 1684.10 287.33 622.63 946.56 1943.17 721.99 2198.05 748.26 2109.09 903.57 1920.04 999.19 2151.66 1022.43
00005529 00000043 1684.03 279.76 618.52 950.77 1939.79 720.96 2192.34 746.63 2103.26 903.39 1921.38 998.21 2147.45 1020.90
00005530 00000044 1685.87 277.23 619.28 960.48 1934.00 720.34 2193.96 745.36 2102.47 900.04 1911.61 1005.05 2145.63 1029.02
00005531 00000045 1686.81 283.41 611.63 959.13 1931.10 724.30 2188.88 747.38 2099.13 902.45 1910.47 1007.14 2145.06 1029.46
00005532 00000046 1682.65 287.29 613.35 957.92 1927.11 726.41 2187.37 751.88 2095.57 903.06 1907.47 1008.21 2145.24 1032.13
00005533 00000047 1680.65 283.60 615.55 963.18 1924.45 730.82 2185.93 752.58 2093.86 907.06 1908.81 1011.11 2146.33 1032.01
00005534 00000048 1673.80 292.65 620.70 957.76 1924.21 733.60 2184.79 755.24 2093.86 908.01 1909.54 1013.82 2146.82 1034.38
00005535 00000049 1674.78 292.69 620.50 958.85 1929.35 736.44 2186.45 755.95 2098.57 909.87 1915.60 1016.74 2149.59 1035.61
00005536 00000050 1674.75 289.03 623.59 960.22 1930.77 740.21 2189.53 754.59 2103.18 913.16 1920.77 1019.55 2154.86 1034.45
00005537 00000051 1678.53 285.62 623.05 963.82 1936.03 744.27 2194.50 758.13 2109.13 914.48 1925.61 1023.03 2159.92 1037.76
00005538 00000052 1677.89 294.21 627.45 955.72 1940.90 744.66 2198.67 758.84 2115.16 918.60 1930.05 1025.29 2162.87 1039.92
00005539 00000053 1681.31 300.75 629.17 953.99 1946.18 746.05 2206.72 760.97 2121.75 920.09 1936.29 1030.46 2170.99 1045.25
00005540 00000054 1686.02 295.75 631.66 962.65 1950.64 748.75 2213.80 763.64 2126.42 922.81 1940.30 1033.95 2177.19 1048.73
00005541 00000055 1689.60 305.07 634.90 961.55 1956.45 751.52 2220.49 768.72 2132.06 923.65 1943.92 1037.28 2183.24 1053.35
00005542 00000056 1692.40 311.10 639.09 953.85 1963.99 752.62 2228.59 769.93 2141.98 927.04 1952.92 1041.71 2189.64 1057.22
00005543 00000057 1698.71 308.05 633.90 955.48 1965.49 762.36 2232.14 769.53 2149.90 925.91 1958.33 1041.85 2194.82 1053.67
00005544 00000058 1701.30 309.59 635.78 961.99 1970.28 765.04 2237.80 769.84 2157.21 930.22 1960.50 1040.96 2203.52 1050.86
00005545 00000059 1716.77 317.53 624.29 962.40 1979.64 761.34 2248.45 768.40 2164.43 933.80 1959.96 1044.14 2214.32 1056.59
00005546 00000060 1720.78 321.57 621.55 966.15 1984.16 762.12 2250.73 763.65 2174.46 933.92 1963.56 1044.96 2220.97 1053.31
00005547 00000061 1724.85 325.95 620.58 960.76 1987.26 765.30 2251.09 763.91 2179.07 927.88 1971.17 1036.57 2229.76 1041.82
00005548 00000062 1724.03 322.87 621.14 962.34 1988.29 763.88 2252.55 758.34 2183.86 925.89 1974.85 1036.08 2232.91 1038.07
00005549 00000063 1720.70 308.11 623.06 968.84 1984.68 758.87 2252.39 749.97 2185.86 919.69 1975.84 1032.87 2235.41 1032.53
00005550 00000064 1710.85 295.98 630.28 978.68 1984.86 750.84 2247.76 737.60 2187.28 915.37 1976.02 1027.56 2230.88 1024.17
00005551 00000065 1707.77 289.35 630.70 979.11 1984.36 742.00 2245.50 729.25 2192.61 902.30 1973.89 1021.14 2231.03 1018.48
00005552 00000066 1694.38 279.02 637.84 989.38 1988.48 731.92 2247.94 722.73 2193.72 896.98 1974.88 1015.59 2226.50 1011.97
00005553 00000067 1691.97 271.79 631.25 991.41 1988.49 729.12 2240.28 716.78 2192.92 890.14 1975.41 1013.78 2218.28 1008.78
00005554 00000068 1685.29 267.91 633.43 991.69 1986.88 721.68 2237.65 714.09 2190.40 881.65 1974.91 1011.62 2213.65 1010.53
00005555 00000069 1678.75 274.04 636.79 987.01 1985.33 715.14 2233.69 709.43 2191.78 878.28 1970.07 1007.38 2208.56 1007.77
00005556 00000070 1674.17 280.60 638.49 980.20 1988.54 710.96 2231.73 706.30 2192.52 876.37 1972.77 1007.67 2204.74 1008.63
00005557 00000071 1672.19 276.93 636.57 982.95 1993.72 711.38 2231.34 706.46 2199.21 874.22 1974.36 1005.84 2202.03 1007.03
00005558 00000072 1676.18 277.36 632.77 977.33 2001.67 712.83 2235.29 706.79 2206.87 875.46 1983.71 1007.70 2204.33 1008.04
00005559 00000073 1680.08 286.76 632.18 964.54 2009.46 708.42 2242.15 706.27 2215.32 870.03 1990.26 1004.32 2211.39 1007.12
00005560 00000074 1681.39 276.20 631.27 968.20 2019.28 708.29 2248.83 706.72 2226.70 866.46 2002.29 1002.77 2217.64 1005.98
00005561 00000075 1682.68 277.72 633.72 966.24 2025.77 705.11 2253.87 708.24 2230.87 863.51 2008.59 999.32 2222.32 1005.48
00005562 00000076 1678.58 274.70 640.63 969.08 2025.07 703.52 2254.78 708.92 2230.63 863.38 2016.49 1002.95 2228.29 1010.36
00005563 00000077 1683.94 280.37 635.85 957.19 2023.85 702.65 2253.87 707.95 2228.75 863.81 2023.52 1004.31 2231.10 1010.89
00005564 00000078 1684.82 276.32 636.23 967.36 2026.02 701.99 2254.81 706.04 2231.16 864.11 2030.29 1010.04 2233.25 1015.38
00005565 00000079 1689.26 268.99 636.87 972.30 2038.70 702.66 2261.62 703.85 2241.86 865.63 2049.46 1013.50 2239.49 1016.42
00005566 00000080 1701.54 270.39 626.22 965.74 2040.54 704.11 2272.58 699.55 2253.27 865.15 2054.96 1015.44 2254.05 1017.11
00005567 00000081 1711.28 269.47 626.57 967.59 2051.54 703.34 2282.54 701.97 2261.74 866.17 2069.19 1018.42 2262.10 1021.39
00005568 00000082 1718.18 264.80 629.26 976.42 2064.16 705.79 2291.70 704.86 2277.42 869.08 2074.13 1018.28 2266.09 1021.62
00005569 00000083 1728.80 280.00 628.91 965.24 2080.35 703.16 2299.38 704.87 2289.34 867.33 2090.19 1020.09 2272.82 1024.73
00005570 00000084 1735.19 276.67 634.01 978.68 2098.27 700.85 2307.15 699.55 2307.70 869.12 2100.83 1020.21 2273.98 1023.11
00005571 00000085 1752.48 280.41 624.77 981.94 2113.30 703.68 2316.33 699.95 2321.39 869.30 2104.23 1019.82 2276.29 1021.10
00005572 00000086 1758.25 286.44 623.70 980.94 2116.64 700.92 2321.65 703.32 2324.71 868.19 2096.76 1013.99 2278.26 1020.07
00005573 00000087 1752.88 288.88 629.90 973.37 2112.04 701.76 2320.67 702.57 2319.05 870.86 2092.02 1012.96 2276.96 1018.17
00005574 00000088 1744.90 272.19 634.74 973.97 2101.21 701.14 2317.65 699.57 2309.42 872.11 2086.44 1014.64 2271.06 1017.57
00005575 00000089 1737.51 275.56 636.86 960.21 2094.25 699.11 2313.59 700.39 2302.86 869.69 2087.97 1012.01 2273.47 1016.69
00005576 00000090 1734.93 270.89 636.23 964.93 2089.43 699.99 2310.42 699.57 2298.68 870.03 2085.68 1012.95 2273.49 1016.60
00005577 00000091 1735.22 274.99 632.02 960.92 2086.09 698.61 2305.71 701.04 2295.90 868.99 2085.98 1012.15 2272.28 1017.61
00005578 00000092 1740.02 276.07 625.88 960.09 2086.59 700.98 2304.63 700.40 2295.69 869.43 2087.76 1014.63 2271.13 1018.00
00005579 00000093 1732.11 274.06 635.63 967.31 2088.92 701.67 2305.74 701.71 2298.51 869.75 2093.41 1017.84 2272.94 1021.39
00005580 00000094 1734.93 280.63 634.51 964.18 2091.92 701.56 2307.09 699.75 2302.11 868.52 2098.53 1019.41 2275.87 1021.74
00005581 00000095 1736.62 282.76 635.32 968.00 2095.78 703.12 2308.01 699.39 2307.98 866.04 2101.54 1019.94 2276.81 1021.15
00005582 00000096 1740.17 275.67 632.99 977.40 2096.70 704.61 2308.90 698.84 2308.35 868.27 2101.46 1021.29 2277.08 1020.90
00005583 00000097 1742.03 286.76 634.41 969.10 2100.08 707.21 2313.42 701.09 2311.31 871.83 2099.30 1021.47 2276.79 1021.07
00005584 00000098 1746.21 286.29 629.50 974.81 2101.99 711.53 2313.98 705.75 2311.68 873.67 2102.73 1024.68 2280.99 1024.09
00005585 00000099 1745.30 278.19 632.10 976.48 2100.37 713.23 2315.77 705.17 2311.60 876.54 2097.49 1023.08 2279.64 1021.21
00005586 00000100 1743.83 286.42 634.07 960.49 2099.70 713.83 2315.61 705.45 2311.30 875.20 2100.50 1021.27 2281.30 1019.07
00005587 00000101 1748.12 280.49 628.28 968.86 2098.17 711.65 2314.32 702.61 2310.42 874.55 2098.22 1021.77 2279.44 1019.13
00005588 00000102 1743.93 280.67 630.34 975.69 2096.77 712.42 2313.36 703.44 2312.20 872.78 2088.60 1017.16 2277.96 1015.67
00005589 00000103 1744.87 283.84 628.47 975.73 2094.63 711.42 2312.14 705.33 2308.60 874.15 2083.56 1017.93 2275.86 1018.51
00005590 00000104 1741.58 282.37 631.98 980.69 2094.28 710.36 2312.87 706.64 2306.62 874.79 2077.70 1017.12 2273.82 1019.57
00005591 00000105 1741.32 286.80 632.34 978.33 2095.60 708.94 2313.00 705.72 2306.96 874.76 2074.92 1014.99 2271.34 1017.97
00005592 00000106 1749.76 296.36 622.44 964.43 2096.45 709.08 2313.48 707.33 2306.94 873.89 2071.11 1009.74 2271.47 1013.91
00005593 00000107 1752.40 291.33 621.27 972.30 2101.01 706.54 2313.62 705.88 2310.46 874.52 2072.70 1007.59 2269.35 1012.74
00005594 00000108 1757.24 284.76 617.65 975.80 2106.45 705.98 2316.74 705.90 2312.83 873.55 2076.31 1005.46 2270.75 1011.11
00005595 00000109 1763.58 296.01 613.85 959.98 2111.41 704.84 2321.30 707.17 2317.63 874.70 2077.50 999.10 2274.86 1007.32
00005596 00000110 1769.11 302.21 611.24 951.66 2116.00 704.73 2323.67 706.65 2322.59 874.42 2078.85 996.80 2275.73 1005.03
00005597 00000111 1774.62 309.66 611.24 936.62 2118.71 704.32 2326.59 707.80 2325.90 872.25 2082.58 993.30 2280.03 1002.18
00005598 00000112 1775.38 313.45 614.03 936.65 2122.70 701.08 2330.78 710.37 2328.83 869.13 2088.44 994.92 2285.04 1007.04
00005599 00000113 1781.54 302.14 612.17 940.34 2124.92 699.63 2336.42 710.46 2329.65 864.50 2095.21 992.38 2292.52 1005.02
00005600 00000114 1785.29 320.24 608.40 923.40 2128.64 698.85 2335.27 710.18 2331.99 865.05 2096.21 991.44 2294.82 1005.12
00005601 00000115 1782.21 296.76 613.64 931.79 2133.53 695.59 2338.97 706.68 2337.94 862.57 2110.85 995.02 2294.35 1007.55
00005602 00000116 1784.21 282.79 616.94 941.40 2134.25 693.49 2344.31 705.07 2338.85 859.79 2116.74 993.11 2301.85 1005.52
00005603 00000117 1784.77 285.12 614.44 937.94 2136.49 692.41 2345.56 705.29 2342.93 857.18 2122.12 991.10 2306.51 1004.03
00005604 00000118 1783.61 280.54 618.95 944.04 2140.47 687.12 2348.10 705.50 2342.13 852.42 2124.72 988.95 2308.05 1005.84
00005605 00000119 1781.46 288.32 621.95 933.28 2140.40 691.26 2348.53 706.49 2340.59 849.72 2129.08 987.49 2312.27 1001.98
00005606 00000120 1790.14 282.41 611.89 938.83 2143.97 703.70 2346.43 709.91 2348.01 850.52 2130.07 991.71 2310.85 1001.06
00005607 00000121 1790.72 286.66 611.28 936.54 2144.06 702.68 2348.54 711.26 2349.49 854.15 2126.91 992.15 2311.06 1003.33
00005608 00000122 1792.04 282.07 612.50 943.30 2142.89 700.64 2349.63 712.68 2346.52 855.92 2127.98 995.15 2310.24 1008.44
00005609 00000123 1791.53 297.64 614.41 939.02 2144.24 702.71 2348.71 715.43 2345.66 861.01 2116.79 995.85 2304.12 1009.68
00005610 00000124 1800.84 305.87 603.66 937.97 2145.01 704.08 2346.94 720.04 2344.73 866.25 2110.16 994.08 2301.44 1010.67
00005611 00000125 1800.47 314.83 604.13 929.07 2147.63 704.49 2348.30 723.77 2344.43 868.40 2105.92 990.24 2301.32 1009.65
00005612 00000126 1795.77 303.78 607.27 944.79 2150.93 705.64 2348.22 723.65 2347.15 871.57 2106.48 990.95 2299.77 1009.47
00005613 00000127 1798.64 315.37 610.04 930.33 2154.28 706.17 2351.14 727.42 2347.28 873.28 2109.48 990.15 2302.35 1010.74
00005614 00000128 1795.73 310.07 612.06 933.15 2157.57 708.08 2350.12 722.68 2352.75 871.71 2113.87 991.70 2298.99 1007.97
00005615 00000129 1796.86 309.30 616.37 935.56 2157.84 707.92 2352.43 721.78 2355.15 874.94 2115.60 996.27 2300.39 1011.98
00005616 00000130 1795.23 311.52 622.31 925.58 2155.78 710.38 2355.87 720.55 2354.55 877.22 2119.46 998.06 2307.35 1010.58
00005617 00000131 1798.24 307.21 620.76 924.39 2154.90 710.41 2356.33 721.24 2351.13 877.72 2119.70 996.51 2307.95 1009.57
00005618 00000132 1793.93 312.28 628.39 931.58 2153.77 710.10 2358.70 723.44 2349.19 875.22 2116.13 997.07 2312.25 1012.04
00005619 00000133 1794.76 312.50 628.68 936.81 2155.43 707.52 2357.27 725.46 2349.21 876.62 2117.11 1001.09 2307.18 1019.26
00005620 00000134 1797.47 311.78 625.96 943.77 2155.75 708.76 2357.32 727.44 2350.60 879.41 2113.12 1004.74 2302.82 1023.85
00005621 00000135 1803.28 309.87 619.17 953.36 2155.87 712.17 2357.87 726.03 2352.96 883.28 2111.60 1008.00 2304.09 1024.16
00005622 00000136 1806.72 314.74 616.40 951.24 2154.31 714.27 2358.41 730.69 2349.72 888.42 2108.76 1010.50 2303.79 1028.54
00005623 00000137 1802.53 318.26 620.29 952.21 2153.24 718.50 2357.67 733.61 2346.57 891.94 2109.01 1015.15 2301.84 1031.94
00005624 00000138 1797.50 311.13 618.24 963.91 2150.43 721.29 2352.05 737.95 2343.23 896.99 2103.80 1019.91 2293.21 1038.30
00005625 00000139 1791.53 313.98 615.01 965.65 2142.23 727.52 2344.08 738.12 2339.74 901.34 2099.10 1025.69 2286.73 1039.29
00005626 00000140 1795.60 318.56 602.08 965.45 2132.80 732.97 2334.60 737.50 2331.33 907.78 2089.26 1029.71 2279.84 1039.28
00005627 00000141 1775.70 294.23 613.76 996.52 2111.80 737.06 2334.83 738.10 2311.49 910.05 2078.71 1036.05 2283.49 1041.72
00005628 00000142 1760.23 294.00 617.19 1004.80 2087.70 736.22 2321.12 738.03 2293.20 913.31 2058.10 1042.91 2273.11 1049.32
00005629 00000143 1738.61 298.71 627.10 995.19 2072.58 739.35 2302.01 735.78 2277.12 911.85 2049.20 1043.90 2259.06 1046.52
00005630 00000144 1720.77 296.37 632.24 992.93 2058.17 739.48 2292.35 736.83 2266.72 910.85 2038.59 1044.46 2255.76 1047.98
00005631 00000145 1723.82 306.66 620.51 973.53 2045.57 740.03 2279.01 736.67 2256.71 904.28 2030.18 1035.44 2248.78 1039.64
00005632 00000146 1720.87 312.79 616.43 967.97 2033.81 740.16 2268.49 733.13 2247.13 902.42 2018.63 1034.50 2241.30 1036.27
00005633 00000147 1711.20 310.83 622.29 969.49 2026.48 740.87 2262.90 731.27 2240.90 900.30 2013.52 1035.50 2237.84 1035.23
00005634 00000148 1708.49 302.73 624.24 977.96 2021.60 738.09 2258.54 728.52 2234.92 900.69 2008.67 1033.97 2233.62 1033.78
00005635 00000149 1703.11 308.11 629.14 969.61 2017.82 738.63 2254.38 729.18 2228.92 901.39 2003.30 1032.41 2228.48 1032.38
00005636 00000150 1692.03 305.78 636.77 976.77 2016.88 734.87 2256.04 730.81 2222.53 906.59 1996.85 1031.96 2222.55 1032.22
00005637 00000151 1690.49 304.82 638.03 975.49 2013.50 735.17 2253.06 731.73 2218.04 906.72 1994.29 1032.17 2220.87 1032.96
00005638 00000152 1687.80 309.56 639.94 972.88 2010.98 734.13 2251.27 731.20 2214.56 907.73 1989.12 1030.77 2218.05 1032.11
00005639 00000153 1685.36 308.14 642.66 970.63 2009.02 733.95 2251.11 731.80 2209.24 910.08 1988.80 1030.21 2217.06 1031.93
00005640 00000154 1685.99 306.26 641.42 974.75 2009.69 732.70 2250.32 732.72 2209.51 909.91 1987.75 1030.54 2215.65 1034.04
00005641 00000155 1689.20 307.61 638.20 976.13 2010.61 733.51 2250.56 734.17 2211.89 911.01 1987.50 1030.91 2216.18 1034.80
00005642 00000156 1701.46 315.61 631.93 963.85 2012.00 738.30 2251.49 736.65 2218.11 909.54 1989.83 1030.70 2220.52 1037.44
00005643 00000157 1703.41 314.23 627.37 967.83 2016.69 738.35 2256.10 739.72 2226.88 909.04 1995.11 1036.40 2223.70 1045.39
00005644 00000158 1709.43 318.12 624.22 968.91 2025.83 739.91 2262.76 744.28 2236.30 908.59 2002.39 1040.05 2228.91 1051.41
00005645 00000159 1714.35 319.90 618.30 971.19 2032.99 741.79 2266.54 745.09 2242.48 912.70 2008.53 1042.10 2230.86 1052.93
