Video ID: 	WkPFaF2W_3Q
H: 	1080
W: 	1920
FPS: 	24.0

FRAME INDEX X0 Y0 W H [Landmarks (5 Points)]

00008213 00000000 764.42 195.07 464.09 611.80 835.04 446.95 1056.11 426.89 923.72 541.95 866.24 670.41 1044.51 653.16
00008214 00000001 755.05 188.96 465.58 607.17 830.04 436.39 1048.35 413.10 918.23 534.53 870.89 661.23 1046.37 641.41
00008215 00000002 745.02 181.86 467.66 614.31 822.98 436.09 1043.81 404.42 921.52 531.79 873.37 662.30 1053.35 635.53
00008216 00000003 725.85 188.18 477.25 629.34 815.22 446.21 1030.50 408.17 922.05 536.78 876.62 677.00 1048.51 645.95
00008217 DELETE   711.09 221.43 474.36 622.78 795.41 486.57 1008.49 439.98 899.63 582.58 866.09 714.67 1030.65 676.16
00008218 DELETE   703.68 240.21 480.84 619.22 787.26 503.15 997.73 457.15 884.49 602.35 854.15 732.70 1013.49 694.35
00008219 00000006 696.65 243.79 485.49 630.18 777.26 514.75 989.21 475.16 869.61 626.81 840.48 741.95 1005.80 708.89
00008220 00000007 697.84 252.92 486.21 627.09 774.64 521.66 988.99 482.54 866.95 637.29 840.23 748.93 1010.59 715.99
00008221 00000008 701.18 261.44 487.13 622.71 779.14 523.72 991.67 484.49 872.53 640.55 847.92 751.58 1016.23 718.84
00008222 00000009 707.66 262.55 492.03 623.53 788.42 522.17 1000.14 481.03 884.57 640.71 863.79 753.88 1030.43 719.82
00008223 00000010 715.88 260.84 488.73 621.93 794.28 519.11 1006.58 476.84 893.52 637.31 872.66 751.51 1038.78 716.57
00008224 00000011 721.85 260.64 486.03 616.83 801.30 516.01 1013.57 475.03 901.95 632.52 877.29 748.14 1042.24 714.40
00008225 00000012 725.14 259.78 486.65 616.42 803.40 512.16 1015.82 473.21 903.96 629.49 876.72 744.47 1042.49 712.40
00008226 00000013 728.46 254.79 486.11 619.06 807.13 509.62 1019.04 472.73 905.86 627.39 878.18 742.30 1042.83 711.78
00008227 00000014 732.31 253.34 486.51 622.18 811.74 509.25 1024.86 472.19 912.74 628.51 884.77 742.68 1051.12 711.67
00008228 00000015 738.62 256.67 484.47 621.52 817.64 509.96 1033.11 472.49 919.77 629.17 890.42 743.99 1060.17 712.27
00008229 00000016 739.63 259.74 487.13 620.10 821.94 511.64 1038.78 473.64 924.98 630.00 893.99 745.30 1066.35 713.09
00008230 00000017 740.88 260.75 486.52 621.19 822.95 512.16 1040.14 473.93 926.99 632.77 895.41 746.70 1067.71 714.33
00008231 00000018 739.33 261.61 485.80 618.49 821.98 511.94 1039.93 475.48 926.90 634.62 893.69 747.23 1065.81 716.46
00008232 00000019 739.03 260.77 486.51 618.48 822.60 512.13 1040.42 475.37 927.03 633.00 893.66 746.51 1065.85 715.52
00008233 00000020 738.39 260.66 487.38 618.36 821.60 512.30 1039.75 475.15 926.56 632.51 892.67 745.29 1066.00 713.76
00008234 00000021 738.15 260.14 486.01 617.14 820.06 512.03 1037.63 474.38 924.70 631.50 892.00 744.71 1065.27 712.70
00008235 00000022 737.68 260.03 483.68 616.03 819.37 513.27 1034.60 475.14 923.49 631.22 890.73 743.24 1063.52 710.94
00008236 00000023 735.27 257.90 483.27 615.50 817.06 513.26 1031.73 476.26 921.66 632.29 888.36 743.00 1059.60 711.73
00008237 00000024 733.04 257.58 484.15 615.93 815.25 513.07 1029.61 478.31 918.37 634.10 884.01 742.48 1054.92 713.21
00008238 00000025 732.85 259.14 483.26 612.06 814.60 511.04 1030.28 478.51 917.24 634.36 881.25 739.60 1054.27 712.13
00008239 00000026 734.39 257.46 483.38 615.58 815.95 509.73 1032.09 477.68 918.33 633.64 881.79 739.16 1055.71 712.07
00008240 00000027 739.61 260.02 483.00 614.41 819.46 508.98 1036.60 476.83 919.94 633.15 886.61 741.41 1060.07 714.10
00008241 00000028 755.62 254.82 477.79 616.80 832.14 505.49 1043.51 473.39 925.76 627.15 897.95 737.41 1067.46 709.56
00008242 00000029 769.71 246.73 482.05 611.66 844.31 507.78 1055.71 475.09 938.35 624.58 899.77 731.66 1066.94 705.23
00008243 00000030 775.36 244.26 482.14 613.04 850.82 502.97 1061.72 474.37 940.75 620.75 903.45 725.41 1072.17 702.33
00008244 00000031 783.05 239.32 479.82 616.54 857.40 499.83 1066.22 473.08 944.23 617.30 909.57 723.61 1076.01 702.10
00008245 00000032 793.04 251.77 474.27 599.90 869.60 496.22 1077.10 464.49 955.56 604.58 922.59 722.05 1083.31 695.04
00008246 00000033 798.34 246.12 473.63 610.89 870.45 488.09 1089.28 464.99 964.08 607.63 923.92 722.20 1092.57 702.47
00008247 00000034 801.68 242.76 474.01 611.11 874.50 484.60 1093.29 462.29 969.08 607.23 928.38 720.33 1097.89 701.09
00008248 00000035 802.54 240.97 473.87 610.55 876.02 481.02 1095.65 461.07 970.19 602.55 927.05 717.04 1098.20 699.47
00008249 00000036 802.69 235.69 471.72 614.73 874.45 477.59 1095.59 457.96 966.52 598.39 922.48 713.57 1095.77 696.23
00008250 00000037 807.10 231.39 461.38 608.72 875.46 473.27 1086.71 452.80 960.23 589.70 921.98 709.10 1080.32 692.72
00008251 00000038 798.86 224.59 461.55 610.94 868.08 471.68 1082.85 449.93 954.59 582.14 913.00 707.13 1071.36 690.02
00008252 00000039 792.55 218.17 464.23 612.22 861.36 465.56 1079.60 444.81 948.73 579.12 902.93 702.00 1065.44 685.81
00008253 00000040 786.50 215.72 467.74 613.89 856.49 462.95 1075.98 441.75 944.15 577.57 898.79 699.59 1063.12 682.82
00008254 00000041 782.70 215.11 469.45 612.97 854.17 463.97 1073.75 440.89 943.07 577.04 896.29 697.05 1064.25 678.55
00008255 00000042 777.19 215.41 468.81 611.43 849.93 466.36 1071.03 440.39 942.70 576.61 893.06 696.87 1063.22 675.78
00008256 00000043 767.19 218.13 468.20 613.13 844.74 465.97 1062.58 444.79 936.80 572.65 888.32 693.36 1065.64 673.06
00008257 00000044 762.92 217.63 468.67 617.47 840.77 466.98 1058.70 443.94 934.96 574.37 886.31 696.37 1064.60 674.73
00008258 00000045 757.76 216.73 472.20 622.65 836.69 467.75 1057.15 443.43 933.36 574.94 883.65 700.30 1063.17 677.47
00008259 00000046 755.76 221.12 470.95 621.26 835.60 470.31 1054.80 444.50 932.79 575.93 883.84 701.50 1062.66 677.60
00008260 00000047 754.54 219.39 470.42 623.21 836.59 478.72 1053.62 452.80 932.82 578.91 884.63 702.94 1063.99 679.26
00008261 00000048 753.72 220.02 471.84 621.82 836.60 474.61 1055.29 447.96 934.99 578.65 885.79 701.90 1065.14 677.69
00008262 00000049 756.00 216.33 470.95 624.07 839.33 467.91 1057.45 442.97 938.98 574.62 888.00 698.45 1064.55 675.56
00008263 00000050 762.18 212.74 467.55 622.21 842.76 464.65 1060.41 441.11 941.16 573.46 889.83 694.97 1066.95 673.31
00008264 00000051 765.93 208.70 466.50 620.35 849.18 461.10 1068.66 439.22 950.93 568.23 894.17 690.06 1073.83 669.65
00008265 00000052 783.60 197.96 466.20 623.98 862.59 453.22 1085.70 430.97 964.64 566.99 906.29 685.46 1081.55 666.58
00008266 00000053 792.02 198.63 464.76 623.53 871.84 452.44 1090.61 431.89 970.01 562.35 915.41 683.54 1084.94 666.13
00008267 00000054 797.42 202.44 464.76 619.20 880.95 440.72 1100.42 422.47 976.81 553.49 922.51 674.99 1097.03 660.32
00008268 00000055 806.80 199.74 460.73 609.32 887.57 432.50 1110.41 417.32 983.61 546.44 924.83 667.31 1104.87 654.79
00008269 00000056 809.52 195.01 459.95 608.00 888.80 425.33 1113.62 413.86 983.98 541.95 922.69 659.74 1105.56 650.24
00008270 00000057 805.66 193.45 460.72 605.46 886.11 420.68 1113.19 413.24 981.15 540.35 916.44 656.02 1099.90 649.90
00008271 00000058 801.79 196.58 456.15 605.12 882.00 422.87 1107.26 416.36 976.90 538.29 909.38 657.28 1087.93 652.22
00008272 00000059 789.38 195.28 456.11 609.12 871.63 425.94 1096.32 419.09 967.85 536.69 896.53 657.41 1072.62 651.86
00008273 00000060 775.80 196.37 454.93 611.18 865.12 429.67 1085.47 425.81 959.22 541.15 885.98 657.02 1064.04 652.56
00008274 00000061 766.65 195.73 454.60 609.74 852.08 429.78 1070.92 423.00 945.15 542.66 875.90 660.51 1049.20 654.02
00008275 00000062 753.90 201.98 457.87 604.22 838.31 428.37 1061.53 423.83 933.42 541.90 861.31 662.28 1037.32 657.55
00008276 00000063 737.19 194.08 461.30 611.00 826.14 432.03 1044.77 428.09 917.82 541.39 850.10 659.37 1024.42 656.69
00008277 DELETE   718.14 197.09 457.85 618.00 808.76 439.31 1029.43 431.53 906.09 536.18 834.50 664.15 1009.99 657.98
00008278 00000065 699.52 197.73 457.04 624.56 792.78 441.46 1013.11 433.54 891.57 539.37 819.29 669.68 998.24 660.88
00008279 00000066 684.29 202.10 456.96 626.19 768.54 448.53 991.77 434.10 867.15 546.16 798.34 677.65 984.02 664.35
00008280 00000067 656.90 209.68 457.60 615.30 745.51 444.24 966.62 427.78 845.22 550.61 782.05 678.39 960.09 665.24
00008281 00000068 632.63 206.21 459.50 619.63 722.43 454.31 945.65 435.41 827.89 551.73 758.42 678.93 945.67 661.03
00008282 00000069 619.43 205.43 457.14 621.32 700.42 462.74 922.12 434.70 805.84 556.93 743.47 684.99 937.27 659.62
00008283 00000070 602.65 210.61 462.11 615.96 686.25 466.76 907.22 433.20 796.64 562.09 735.22 688.53 926.27 659.20
00008284 00000071 594.18 215.83 464.45 616.06 680.11 467.12 896.18 432.22 783.58 570.43 730.58 691.14 912.51 662.26
00008285 00000072 587.36 220.19 469.22 617.40 672.98 471.94 892.40 435.31 778.93 573.71 725.58 695.38 909.56 664.88
00008286 00000073 584.37 219.86 474.54 621.19 671.08 475.01 889.72 438.44 776.51 579.11 725.49 699.05 904.33 668.76
00008287 00000074 586.19 219.88 471.30 621.55 674.03 474.93 896.26 443.43 784.01 581.49 727.66 701.56 902.55 674.79
00008288 00000075 587.28 223.24 472.30 617.66 675.55 477.47 895.95 445.56 784.78 584.45 729.79 702.70 903.92 675.74
00008289 00000076 594.56 226.70 470.59 614.06 680.72 481.25 898.40 450.45 788.24 590.89 733.55 702.55 912.76 675.83
00008290 00000077 598.82 230.43 472.12 614.79 686.24 482.68 903.32 451.72 793.98 593.27 737.79 701.71 920.65 674.44
00008291 00000078 604.89 234.13 472.95 616.55 693.08 481.51 906.34 453.68 794.60 593.75 747.37 705.05 922.36 680.64
00008292 00000079 607.06 235.64 474.96 621.72 695.63 482.39 909.96 456.25 794.94 595.02 748.59 709.33 923.45 686.56
00008293 00000080 608.63 234.09 474.04 624.09 698.46 483.34 913.35 457.98 797.86 596.47 749.87 710.31 926.71 688.30
00008294 00000081 611.54 235.13 475.83 619.18 702.34 482.72 917.53 459.55 800.76 594.62 749.80 705.37 929.29 684.64
00008295 00000082 612.41 234.79 475.58 613.13 704.49 480.78 921.33 461.41 803.80 592.46 743.54 696.34 929.55 678.73
00008296 00000083 614.29 233.52 473.93 608.34 705.95 481.35 921.93 462.70 805.92 593.28 743.41 694.48 928.08 677.73
00008297 00000084 613.77 235.93 476.48 611.16 707.45 482.59 922.82 463.17 806.53 596.22 747.13 697.52 930.27 679.95
00008298 00000085 613.92 237.96 475.26 609.99 708.22 483.56 923.55 464.57 807.90 598.59 751.19 702.65 930.46 685.63
00008299 00000086 617.19 237.49 474.46 608.69 711.36 484.59 927.01 464.72 813.06 597.78 755.43 702.68 936.79 684.90
00008300 00000087 623.23 237.92 473.70 605.70 717.35 484.37 932.86 462.62 821.59 599.53 765.42 703.46 945.18 683.72
00008301 00000088 628.60 235.22 473.61 611.37 722.81 486.65 943.42 461.27 834.42 601.85 772.64 706.12 958.69 682.83
00008302 00000089 643.39 235.94 466.07 612.63 732.78 488.94 951.21 456.30 838.85 599.91 781.98 709.59 964.10 681.50
00008303 00000090 647.67 237.48 465.11 613.94 735.61 490.36 954.60 457.43 841.40 602.01 784.67 709.05 969.86 680.57
00008304 00000091 647.98 234.15 471.48 615.55 733.03 488.31 960.77 459.83 843.99 605.74 783.07 709.73 979.52 684.70
00008305 00000092 648.62 236.81 472.81 616.17 733.19 488.37 959.91 463.10 841.62 610.22 783.48 711.70 977.68 689.49
00008306 00000093 650.97 241.66 470.19 611.86 733.12 488.20 959.69 465.91 839.37 614.61 781.56 712.43 975.76 692.75
00008307 00000094 654.14 241.45 469.97 614.29 738.76 487.81 962.90 467.45 843.33 617.32 783.38 712.87 975.50 695.20
00008308 00000095 656.80 243.98 471.68 615.89 747.26 487.67 970.41 467.43 856.02 617.52 791.91 714.05 981.11 696.89
00008309 00000096 662.86 244.33 472.29 619.61 752.95 489.22 976.80 467.35 863.38 620.09 800.09 717.00 987.06 698.52
00008310 00000097 669.89 241.77 469.25 625.57 760.46 489.20 980.64 467.67 868.91 618.84 808.43 719.07 990.80 700.77
00008311 00000098 673.77 242.18 470.52 624.91 765.48 488.70 983.89 467.81 871.16 616.28 811.46 715.95 993.08 697.98
00008312 00000099 675.71 245.04 473.79 622.70 766.75 488.01 984.78 468.56 870.29 617.18 814.13 717.32 991.78 700.46
00008313 00000100 685.41 247.58 472.13 615.02 777.28 490.76 993.97 472.10 877.31 614.43 824.57 718.34 1001.74 701.76
00008314 00000101 693.71 250.27 469.45 611.81 786.12 489.83 1001.84 471.64 888.92 609.36 832.03 715.38 1010.46 698.72
00008315 00000102 699.02 248.77 471.60 611.28 792.50 486.58 1011.56 470.18 896.74 609.38 838.76 713.12 1017.33 697.77
00008316 00000103 713.95 239.12 469.20 606.79 799.91 482.12 1015.97 460.86 897.89 606.88 846.97 712.72 1017.70 694.39
00008317 00000104 716.49 235.35 471.74 607.50 801.48 482.43 1016.51 458.64 899.97 605.10 851.29 710.01 1023.22 689.46
00008318 00000105 718.35 235.70 472.32 601.83 801.52 482.41 1016.02 456.60 900.46 603.21 852.31 706.54 1025.97 684.44
00008319 00000106 719.01 233.79 474.75 604.58 801.07 483.75 1015.97 455.18 900.69 603.83 853.75 706.06 1030.07 681.65
00008320 00000107 719.44 233.94 475.11 608.36 802.77 486.84 1016.86 457.93 901.88 604.91 854.33 706.14 1033.28 681.34
00008321 DELETE   719.92 240.25 475.07 609.60 811.70 503.01 1026.90 479.81 907.49 610.33 854.42 707.92 1041.02 686.72
00008322 DELETE   719.69 235.05 478.93 612.71 811.94 496.40 1028.28 471.25 913.47 604.61 856.36 706.56 1044.51 684.55
00008323 DELETE   722.99 240.38 481.70 615.84 815.80 492.33 1036.35 469.17 924.15 617.86 866.64 711.48 1054.68 691.38
00008324 00000111 725.57 239.26 481.08 620.68 818.43 489.59 1037.31 463.78 928.41 617.00 874.05 714.07 1058.04 691.81
00008325 00000112 726.44 237.98 479.64 623.81 817.21 488.75 1035.58 463.55 926.33 618.02 872.89 716.06 1055.13 694.50
00008326 00000113 723.60 240.92 479.08 619.69 807.36 490.19 1029.93 466.89 912.56 620.82 859.83 717.32 1045.13 697.01
00008327 DELETE   715.09 237.42 480.44 622.42 794.47 487.80 1012.97 468.58 888.44 627.61 843.55 714.65 1021.45 698.99
00008328 00000115 703.79 233.15 484.59 628.00 782.13 489.63 995.37 474.13 866.61 623.54 824.37 715.82 994.74 703.93
00008329 00000116 694.73 234.18 488.75 631.64 771.15 485.18 985.11 472.67 852.17 619.83 813.39 717.68 974.82 708.17
00008330 DELETE   691.48 231.80 488.42 639.51 768.48 486.65 980.22 471.92 849.61 618.14 814.63 723.72 967.69 712.39
00008331 00000118 692.33 234.18 489.08 638.62 772.16 488.71 982.07 472.06 853.63 618.55 818.36 724.84 971.40 711.99
00008332 00000119 693.67 235.92 486.27 638.56 774.76 491.00 985.38 472.74 858.85 618.56 822.52 727.90 975.27 713.78
00008333 00000120 695.68 238.98 480.22 636.55 773.94 490.88 989.60 470.79 859.94 619.26 819.40 724.93 981.85 707.97
00008334 00000121 693.06 246.25 476.29 626.52 773.22 491.80 985.06 471.35 861.94 616.10 824.94 724.79 992.15 706.62
00008335 00000122 689.60 248.54 478.67 618.73 777.60 493.44 990.31 469.23 874.17 611.14 830.91 718.70 1002.94 697.28
00008336 00000123 696.56 246.12 472.58 616.69 786.94 493.78 996.27 465.45 889.99 610.58 845.98 718.40 1015.66 693.00
00008337 00000124 702.97 242.59 472.83 615.88 798.65 498.59 1012.90 459.45 916.05 614.48 864.34 722.38 1038.77 687.83
00008338 00000125 705.15 238.25 477.58 619.85 793.20 498.77 1014.02 456.20 906.10 615.46 862.33 724.50 1044.49 688.02
00008339 00000126 701.04 242.73 480.87 616.49 788.53 503.46 1004.99 459.62 896.58 621.52 859.56 727.20 1036.97 689.93
00008340 00000127 697.46 247.21 482.80 616.56 784.13 505.53 1000.15 466.27 888.21 630.18 850.05 729.18 1026.05 696.03
00008341 00000128 698.39 247.65 482.20 614.06 780.68 508.28 989.98 472.51 880.46 634.01 849.69 724.97 1013.66 695.40
00008342 00000129 694.03 248.95 486.99 613.39 778.39 509.09 987.75 474.13 878.64 636.60 846.44 727.02 1012.26 698.02
00008343 00000130 696.33 248.30 485.62 609.66 779.79 510.63 988.66 469.96 883.15 632.02 846.26 723.51 1022.85 689.43
00008344 00000131 691.04 252.96 486.59 608.53 782.36 509.28 990.42 464.31 890.55 623.11 851.64 722.07 1031.26 683.28
00008345 00000132 690.04 245.54 483.94 615.37 779.89 507.14 987.79 459.12 888.56 618.77 851.57 721.69 1033.03 680.30
00008346 00000133 681.77 243.48 486.17 616.93 770.98 504.53 981.79 454.96 880.47 616.41 844.59 722.03 1029.84 679.11
00008347 DELETE   673.10 239.55 490.15 623.43 757.37 503.56 971.18 452.75 864.14 614.83 835.55 726.41 1020.46 682.17
00008348 00000135 661.94 250.43 493.90 617.55 746.19 507.10 960.84 463.53 853.58 624.82 821.54 728.67 1004.37 691.15
00008349 DELETE   657.03 255.10 494.59 619.03 739.86 513.98 955.03 475.28 842.03 638.90 809.75 736.06 992.86 703.09
00008350 DELETE   648.01 262.30 499.42 628.19 732.56 529.15 945.63 484.16 835.47 650.61 809.71 752.50 989.01 714.86
00008351 00000138 643.76 276.83 504.69 625.40 732.00 540.49 942.82 492.80 835.29 666.54 820.37 766.61 989.10 726.80
00008352 00000139 645.19 285.81 501.55 620.14 730.90 548.95 940.96 494.59 836.14 666.75 820.39 772.58 992.06 726.84
00008353 00000140 644.53 282.13 498.37 621.43 728.81 548.08 938.30 493.10 834.06 664.16 817.70 772.00 988.99 726.00
00008354 00000141 641.45 277.07 498.39 623.45 725.85 544.01 935.25 490.69 829.41 659.06 811.71 766.86 982.89 722.35
00008355 00000142 638.22 271.38 500.89 629.31 723.22 540.72 933.83 488.65 826.86 656.41 806.97 762.87 981.04 719.44
00008356 00000143 641.89 272.44 498.07 626.36 726.39 541.76 936.49 489.68 830.03 655.71 809.25 762.03 984.02 718.64
00008357 00000144 642.49 270.70 499.21 626.97 727.66 540.82 939.60 489.42 832.25 657.09 810.68 762.23 986.18 719.37
00008358 00000145 644.36 271.58 500.93 625.54 731.26 537.28 944.18 487.48 836.70 655.24 813.04 760.57 988.63 719.07
00008359 00000146 648.28 269.12 497.83 626.65 735.39 534.70 948.16 485.23 842.73 650.04 816.02 758.28 991.99 717.03
00008360 00000147 652.57 267.93 497.09 623.56 739.26 528.81 952.48 481.30 847.19 645.96 819.41 752.92 996.95 713.12
00008361 00000148 663.70 261.37 498.39 623.13 749.74 516.56 965.12 472.37 857.15 634.24 826.68 741.34 1007.33 703.53
00008362 00000149 670.79 253.11 498.01 624.84 758.80 521.56 970.85 477.39 863.62 631.62 832.59 736.53 1012.40 698.42
00008363 DELETE   687.57 245.72 484.81 621.69 772.63 519.12 976.22 473.83 868.14 616.86 840.33 726.93 1012.11 687.77
00008364 00000151 697.49 239.48 487.04 612.52 786.82 505.48 994.57 463.46 883.77 602.88 849.70 717.43 1018.37 681.24
00008365 00000152 711.70 234.88 477.37 606.26 796.65 490.52 1001.68 451.39 893.67 595.10 859.77 708.80 1024.57 675.41
00008366 00000153 723.86 228.22 470.37 614.51 805.03 479.88 1017.06 444.33 903.98 589.38 865.14 703.38 1039.15 673.19
00008367 00000154 727.89 227.38 472.08 610.60 812.76 471.94 1026.89 436.97 915.47 583.27 871.59 698.70 1045.73 669.20
00008368 00000155 735.60 220.59 466.83 614.68 821.10 466.37 1038.79 435.06 929.17 577.99 875.06 696.70 1052.50 669.32
00008369 00000156 743.98 222.40 461.00 614.45 833.05 460.84 1044.23 432.99 941.17 578.77 885.38 694.37 1051.82 670.05
00008370 00000157 748.40 223.04 456.11 607.82 839.19 456.52 1049.07 430.09 947.81 574.11 890.95 688.99 1053.48 665.94
00008371 00000158 750.66 217.00 456.23 613.11 841.23 449.26 1054.39 422.07 952.49 564.76 894.46 684.09 1060.97 660.51
00008372 00000159 747.55 209.13 458.85 612.24 841.92 442.64 1056.58 413.80 957.84 554.64 898.64 676.71 1071.36 650.96
00008373 00000160 749.65 202.69 459.85 601.80 843.08 437.65 1059.83 407.76 958.26 544.39 897.66 666.19 1076.94 639.39
00008374 00000161 753.56 196.54 460.99 597.47 848.60 427.37 1063.20 398.41 960.41 531.99 900.11 648.93 1079.57 623.72
00008375 00000162 763.26 192.27 457.96 596.71 856.57 421.60 1070.24 395.59 966.42 527.01 905.28 644.26 1082.43 621.17
00008376 00000163 772.38 187.46 456.87 605.03 871.50 419.71 1085.94 393.16 984.19 525.61 922.81 650.15 1094.42 624.87
00008377 00000164 788.11 184.37 455.83 613.87 879.85 413.60 1099.36 390.70 989.56 524.37 931.11 649.25 1101.94 629.95
00008378 00000165 802.18 186.11 448.78 613.53 891.23 414.04 1106.48 387.68 1002.10 523.78 946.93 651.43 1114.58 630.06
00008379 00000166 809.87 188.14 454.59 609.97 897.53 417.47 1109.38 387.56 1004.40 526.77 954.21 651.21 1125.79 626.61
00008380 00000167 807.79 187.79 464.98 609.24 892.59 424.22 1106.17 388.46 999.40 530.83 954.79 652.36 1131.98 622.20
00008381 00000168 801.52 194.19 476.15 610.39 882.84 437.38 1088.82 392.07 981.15 535.89 950.01 661.31 1124.90 623.62
