Video ID: 	pUxxCmpW88E
H: 	1080
W: 	1920
FPS: 	25.0

FRAME INDEX X0 Y0 W H [Landmarks (5 Points)]

00003167 00000000 783.36 221.38 473.49 669.29 816.42 480.21 973.59 510.36 813.17 660.33 856.44 735.78 972.87 760.12
00003168 DELETE   780.58 219.89 472.86 670.71 813.15 479.82 970.42 509.29 810.36 660.56 853.80 737.22 969.76 760.89
00003169 00000002 779.26 219.46 475.92 671.71 811.54 481.77 966.99 511.01 806.46 661.41 853.52 738.53 968.35 761.74
00003170 00000003 778.24 221.94 477.83 669.31 811.49 482.12 964.96 511.29 804.78 662.81 855.48 738.71 968.52 761.81
00003171 00000004 777.80 222.47 477.97 668.49 812.07 482.84 962.31 511.02 802.26 662.05 855.88 739.35 966.79 761.31
00003172 00000005 777.03 223.14 477.89 666.97 810.99 482.75 961.76 509.80 800.96 662.24 856.18 740.40 966.76 761.44
00003173 00000006 774.61 221.54 478.10 667.17 808.35 482.84 959.93 510.48 798.80 662.69 853.20 738.73 965.84 760.36
00003174 00000007 772.13 220.60 481.31 665.24 806.38 484.08 956.69 512.66 796.14 662.44 851.36 738.89 960.03 761.46
00003175 00000008 770.10 222.83 480.31 660.30 804.05 483.33 955.65 513.83 794.98 664.40 848.84 736.44 959.51 760.94
00003176 00000009 768.10 221.38 482.48 656.89 802.89 481.35 955.51 514.78 793.58 663.72 846.87 732.94 958.25 759.83
00003177 00000010 766.33 218.99 483.21 657.91 801.44 479.72 954.91 515.67 790.76 664.04 844.12 731.53 956.96 760.58
00003178 00000011 764.10 220.23 482.38 656.59 800.63 479.67 952.48 516.07 789.16 664.54 843.48 731.24 955.72 760.75
00003179 00000012 764.17 221.04 481.96 655.23 800.84 480.85 951.90 515.40 789.46 664.24 844.29 731.76 955.88 759.82
00003180 00000013 764.06 218.41 482.21 658.37 799.91 480.62 950.67 514.50 788.58 663.49 843.34 732.27 954.79 759.80
00003181 00000014 763.74 218.10 479.07 657.04 798.54 479.28 950.45 513.49 788.69 662.49 841.28 731.42 953.40 759.37
00003182 00000015 763.53 217.27 479.03 660.24 798.42 478.96 949.64 513.36 786.92 661.14 839.95 732.92 950.76 761.06
00003183 00000016 761.90 217.94 480.11 662.91 797.46 480.25 948.04 512.92 785.70 660.02 839.97 734.32 949.83 761.09
00003184 00000017 761.05 217.54 480.19 665.83 796.40 481.74 945.93 512.81 783.14 660.45 839.51 736.57 949.89 761.90
00003185 00000018 761.98 215.38 479.63 672.43 796.11 480.97 945.37 511.45 783.07 659.75 836.25 740.34 941.57 765.53
00003186 00000019 762.74 215.13 480.48 677.48 795.90 480.78 944.18 511.05 780.20 660.85 833.53 744.11 938.02 769.01
00003187 00000020 761.76 212.01 479.99 687.23 793.96 480.99 941.11 509.69 775.85 660.01 828.38 749.01 930.79 772.48
00003188 00000021 760.69 212.07 481.62 688.54 791.56 478.96 938.49 505.97 770.94 657.76 824.29 751.65 925.35 773.46
00003189 00000022 758.67 208.76 480.58 690.24 790.71 477.19 934.73 501.80 767.13 652.65 822.25 750.40 920.97 770.07
00003190 00000023 755.51 209.21 480.62 685.19 788.92 479.20 932.53 505.21 765.35 654.98 824.55 744.92 927.43 765.57
00003191 00000024 749.92 206.30 481.70 686.52 785.13 477.50 930.07 503.85 760.54 653.54 821.61 739.25 931.78 760.02
00003192 00000025 743.91 205.67 485.68 688.48 782.27 474.87 928.17 502.01 757.57 652.56 819.85 737.39 932.60 758.58
00003193 00000026 742.10 207.44 487.11 687.47 779.36 475.74 925.85 504.18 756.20 655.50 819.40 737.32 933.71 759.41
00003194 00000027 741.32 211.55 489.59 682.71 778.72 478.87 925.16 507.04 756.99 659.05 822.33 737.27 937.32 759.08
00003195 00000028 741.54 212.47 489.61 686.14 780.29 479.93 924.57 508.45 756.16 660.94 825.06 737.74 941.60 759.64
00003196 00000029 743.52 214.42 489.53 684.00 781.29 480.98 923.24 507.48 755.85 659.47 826.05 740.35 937.95 760.44
00003197 00000030 743.51 213.67 486.60 676.72 780.52 480.10 924.09 506.21 758.40 657.34 824.88 736.92 936.56 756.95
00003198 00000031 743.61 209.32 485.16 681.46 780.54 478.27 923.20 503.82 757.87 656.64 824.52 737.67 935.49 757.22
00003199 00000032 745.50 209.01 487.13 682.80 783.25 478.24 924.90 502.07 758.69 654.56 827.18 738.85 936.66 756.87
00003200 00000033 752.13 210.93 484.42 685.07 788.42 481.35 927.50 504.14 761.60 656.67 831.77 742.50 938.87 759.70
00003201 00000034 753.51 209.03 484.24 685.70 788.18 481.37 927.02 504.07 761.15 657.52 829.68 745.19 933.78 762.41
00003202 00000035 752.08 204.72 483.67 689.66 785.92 481.04 927.90 504.11 758.88 655.31 821.69 746.31 927.34 764.17
00003203 00000036 751.49 200.75 480.95 691.78 781.98 478.60 926.49 502.48 756.02 653.75 813.22 748.96 916.26 767.82
00003204 00000037 750.48 198.95 483.57 693.00 780.24 478.14 926.30 501.19 753.71 652.61 810.61 750.67 913.56 768.72
00003205 00000038 750.34 199.38 485.90 695.29 780.45 479.45 926.03 502.09 753.80 654.23 813.20 751.52 916.18 769.09
00003206 00000039 749.40 201.50 485.48 696.04 781.99 481.52 923.75 505.81 753.61 658.83 817.62 751.04 920.32 769.70
00003207 00000040 748.03 204.79 487.03 696.64 784.50 483.78 923.89 507.54 755.46 661.66 825.25 750.50 927.86 768.56
00003208 00000041 746.42 208.09 490.57 700.38 788.55 485.39 923.50 506.99 756.57 662.43 833.38 751.49 935.80 767.36
00003209 00000042 743.60 206.89 490.25 706.57 783.47 483.62 921.68 499.08 757.72 663.88 836.87 754.66 943.41 765.63
00003210 00000043 743.60 206.05 490.38 709.17 784.42 477.82 922.20 492.59 757.08 660.09 838.30 753.52 945.92 763.61
00003211 00000044 741.53 199.25 498.99 713.88 783.76 469.29 923.74 483.32 755.50 654.24 835.55 751.28 945.68 760.47
00003212 00000045 735.69 197.42 490.85 712.69 780.20 468.72 925.12 474.94 757.23 649.20 829.39 752.39 948.13 756.26
00003213 00000046 732.59 196.49 491.31 709.56 775.90 467.26 922.19 472.03 756.22 646.21 826.57 749.91 945.60 752.81
00003214 00000047 736.08 187.81 495.96 718.07 775.64 462.69 919.56 473.79 752.12 646.24 827.41 746.12 940.27 752.97
00003215 00000048 733.84 187.52 491.64 715.12 773.60 460.44 917.20 472.35 750.63 647.60 825.76 743.27 938.74 750.95
00003216 00000049 732.62 187.46 491.74 710.97 771.74 460.48 915.42 471.25 748.73 645.97 824.34 741.23 937.95 747.94
00003217 00000050 732.07 182.40 490.30 710.58 769.27 459.06 915.70 468.83 748.39 642.45 820.96 737.61 938.34 743.58
00003218 00000051 730.94 179.53 489.79 713.92 768.48 458.64 916.67 467.73 749.43 640.29 819.33 734.86 940.73 740.51
00003219 00000052 731.24 174.50 491.52 717.83 767.88 457.56 919.21 464.85 754.62 640.09 820.35 733.83 944.96 738.30
00003220 00000053 731.37 175.09 493.61 715.54 769.05 457.80 920.50 463.99 756.94 640.62 823.07 731.47 948.97 735.19
00003221 00000054 726.37 190.27 501.47 697.21 766.52 465.26 921.34 465.41 756.44 642.03 831.44 734.02 950.43 730.25
00003222 00000055 723.33 191.73 499.10 695.80 762.50 465.53 919.90 462.75 755.09 640.40 827.27 734.72 948.27 728.60
00003223 00000056 721.40 189.98 494.43 699.94 761.49 465.63 914.07 461.73 749.75 638.18 825.88 734.85 942.29 727.94
00003224 00000057 720.47 189.85 493.97 700.38 761.43 466.32 908.66 460.99 745.06 635.82 824.60 735.20 937.81 726.94
00003225 00000058 719.62 190.12 492.59 702.68 761.71 466.37 906.36 461.15 743.51 634.82 824.91 735.66 936.53 727.47
00003226 00000059 719.16 190.08 493.32 705.12 762.01 466.43 904.50 460.28 742.34 634.39 827.22 737.75 936.64 728.61
00003227 00000060 719.14 191.73 491.60 700.06 761.57 465.37 904.27 459.36 741.44 633.24 826.54 736.58 936.30 727.38
00003228 00000061 720.28 183.69 489.82 711.19 765.58 461.92 907.41 461.97 745.75 636.12 825.21 731.35 941.02 726.86
00003229 00000062 719.19 191.78 489.92 699.95 762.99 463.21 905.90 460.89 741.55 633.53 826.20 733.67 937.62 727.48
00003230 00000063 723.47 177.22 480.02 713.28 769.09 456.66 902.79 455.51 743.38 632.34 821.65 730.74 936.14 726.92
00003231 00000064 726.91 178.94 478.59 706.27 770.69 456.02 906.87 457.87 748.04 632.29 821.47 728.97 934.79 728.33
00003232 00000065 732.14 179.31 475.33 701.06 770.22 455.94 913.27 462.12 751.69 634.35 819.85 725.93 938.07 729.23
00003233 00000066 734.70 192.60 485.31 690.95 771.45 466.36 922.96 476.82 756.83 635.77 826.15 722.68 941.14 727.26
00003234 00000067 743.04 186.30 473.54 692.55 778.98 467.29 922.44 475.78 761.74 635.27 823.76 724.42 942.17 730.35
00003235 00000068 747.13 183.87 475.18 700.30 787.04 470.48 928.64 476.84 773.85 634.88 832.83 725.36 950.57 729.82
00003236 00000069 758.13 196.31 468.39 693.25 796.44 477.85 933.27 481.47 779.68 639.39 846.93 728.03 962.22 730.17
00003237 00000070 764.57 199.01 470.27 691.28 799.36 479.69 942.74 484.40 785.53 641.00 849.90 728.21 970.48 731.39
00003238 00000071 770.39 202.79 466.50 684.39 801.49 482.12 949.42 488.03 791.28 642.53 852.91 729.27 974.83 733.62
00003239 00000072 771.37 203.16 468.19 682.55 803.36 480.42 953.40 488.19 795.67 645.80 856.06 729.10 979.55 734.92
00003240 00000073 773.85 203.80 469.71 681.61 806.29 474.79 957.51 486.12 797.58 645.17 858.21 728.58 979.96 736.61
00003241 00000074 774.51 201.70 475.15 686.25 809.91 473.55 957.76 482.01 798.77 642.07 863.16 730.71 980.15 735.93
00003242 00000075 777.29 202.81 474.40 685.99 812.97 471.81 961.76 479.48 801.53 641.78 866.05 731.44 982.60 735.81
00003243 00000076 778.67 204.31 474.41 684.48 815.10 469.49 964.20 478.77 802.31 639.94 863.05 731.17 976.53 737.07
00003244 00000077 775.93 199.82 473.94 682.57 808.74 466.13 962.51 477.74 798.96 636.69 850.96 728.27 965.17 736.94
00003245 00000078 775.02 196.53 472.16 682.43 805.94 460.76 962.01 474.96 796.12 632.72 842.85 726.27 957.71 737.75
00003246 00000079 774.06 194.85 472.62 685.22 805.32 460.72 959.45 475.19 794.11 631.49 840.58 726.05 954.49 737.95
00003247 00000080 773.10 195.51 473.47 685.86 805.12 461.27 956.60 477.23 792.66 633.29 840.58 726.23 952.31 739.39
00003248 00000081 772.16 201.90 474.79 682.78 805.90 465.49 954.14 481.42 791.88 637.15 842.20 729.95 949.94 743.16
00003249 00000082 771.59 204.90 474.92 684.27 806.86 468.06 950.03 482.25 789.13 640.48 844.61 737.87 946.63 749.38
00003250 00000083 773.07 211.33 476.01 682.87 807.74 472.45 950.68 486.37 790.52 643.87 846.32 744.67 946.15 755.87
00003251 00000084 773.52 218.25 478.19 677.45 808.93 474.00 952.48 492.69 791.77 649.40 847.66 745.26 947.30 759.99
00003252 00000085 775.80 224.68 480.22 673.38 812.24 477.73 954.69 498.20 793.71 656.36 852.87 747.70 951.69 763.60
00003253 00000086 778.70 230.06 480.82 667.67 816.92 479.46 960.71 500.26 799.44 662.09 860.34 747.99 961.29 763.67
00003254 00000087 783.73 229.56 478.56 670.81 825.57 481.32 965.84 501.26 804.99 663.58 870.23 747.50 970.52 761.90
00003255 00000088 788.11 234.91 476.22 661.68 828.68 481.43 970.78 503.14 809.54 665.50 872.75 744.95 975.07 760.84
00003256 00000089 791.54 235.75 471.47 658.26 830.04 478.90 971.99 501.43 811.44 663.06 870.25 743.24 971.40 760.01
00003257 00000090 796.62 233.57 468.07 658.88 829.12 478.72 973.57 499.28 814.63 660.56 869.53 743.90 970.70 759.00
00003258 00000091 799.57 232.48 467.36 660.16 829.50 476.54 976.51 496.68 818.02 655.89 868.73 742.40 971.35 757.29
00003259 00000092 800.37 231.08 463.81 659.70 831.25 476.09 979.17 496.44 820.63 655.71 874.05 738.16 980.77 753.02
00003260 00000093 798.52 231.07 462.71 657.99 829.91 476.18 978.02 494.65 819.97 653.05 875.38 734.01 984.60 747.54
00003261 00000094 795.87 230.95 458.59 656.45 828.88 482.13 973.27 498.96 817.49 654.51 876.42 732.57 986.12 744.84
00003262 00000095 795.93 226.87 454.29 658.51 828.74 482.73 971.56 501.06 816.54 652.01 873.53 732.12 979.51 746.28
00003263 00000096 793.68 228.73 451.85 651.75 825.58 483.07 966.69 499.89 812.53 648.36 869.83 729.40 974.33 742.58
00003264 00000097 789.62 224.94 450.92 655.37 823.54 482.52 963.78 498.18 810.90 645.68 869.33 726.33 974.21 738.61
00003265 00000098 787.13 222.96 450.06 659.38 821.56 484.84 957.74 499.59 804.75 646.96 867.49 727.93 970.37 739.64
00003266 00000099 780.18 222.72 450.07 652.93 815.85 485.04 951.56 503.04 799.68 647.72 860.90 722.32 967.30 736.65
00003267 00000100 771.67 223.25 453.92 654.16 809.14 484.20 944.04 503.88 793.38 650.12 856.01 722.57 963.59 738.63
00003268 00000101 768.56 226.64 458.91 655.30 804.06 491.22 938.35 506.13 789.99 653.98 852.34 736.74 952.36 749.27
00003269 00000102 763.46 232.98 459.55 650.04 798.57 497.42 932.06 510.25 784.49 659.35 850.36 741.14 950.35 751.51
00003270 00000103 758.63 237.83 458.15 644.79 793.57 501.36 927.09 515.02 779.89 664.09 847.39 742.33 948.91 752.99
00003271 00000104 756.58 238.26 454.75 646.22 791.76 504.74 923.34 518.65 778.22 669.15 849.23 744.47 949.47 755.01
00003272 00000105 752.89 240.68 455.83 647.57 789.07 508.05 919.51 521.83 776.23 674.38 846.90 747.53 947.51 757.89
00003273 00000106 751.31 243.04 454.31 644.40 794.91 510.92 922.38 521.96 780.73 669.71 851.38 747.90 950.77 754.07
00003274 00000107 744.77 245.36 453.03 634.99 783.17 510.09 914.51 523.53 775.41 676.60 839.45 748.07 938.94 758.09
00003275 00000108 747.85 244.44 451.97 635.65 789.76 510.84 919.34 522.89 779.33 670.22 845.72 747.03 943.81 754.44
00003276 00000109 748.32 241.17 451.77 640.44 790.81 510.11 918.41 521.35 777.92 668.04 846.47 746.47 943.66 753.12
00003277 00000110 750.91 238.27 450.83 646.74 793.75 507.64 919.70 517.70 778.42 664.80 849.79 746.11 946.77 751.54
00003278 00000111 750.32 236.22 448.74 644.82 788.62 505.93 913.44 515.65 773.66 665.33 843.72 744.12 940.32 751.11
00003279 00000112 751.99 234.73 447.66 643.86 790.27 504.67 914.33 513.71 775.98 662.24 844.40 741.36 940.09 748.01
00003280 00000113 755.70 237.02 446.09 639.82 797.34 501.68 924.52 510.74 783.33 654.09 850.69 739.42 948.76 744.03
00003281 00000114 754.93 234.21 444.39 635.95 793.79 502.02 915.33 510.92 778.35 657.64 848.37 733.79 943.34 740.22
00003282 00000115 755.34 232.14 445.52 634.93 794.30 500.56 917.64 511.34 779.96 657.70 849.20 730.57 946.56 738.61
00003283 00000116 756.60 229.55 443.14 636.79 796.05 498.31 916.84 509.58 778.34 653.84 848.38 728.06 945.39 736.47
00003284 00000117 756.45 229.28 443.88 635.33 796.15 498.72 917.66 510.05 779.61 654.37 848.29 727.96 945.24 736.49
00003285 00000118 758.34 230.14 440.62 631.84 797.18 498.41 919.05 509.67 781.72 655.12 852.14 727.28 949.49 735.84
00003286 00000119 757.86 228.87 439.09 629.93 795.80 497.25 918.89 509.74 782.28 654.49 850.18 725.28 947.85 734.92
00003287 00000120 757.36 230.74 439.04 627.14 795.74 496.65 918.28 509.60 782.02 655.22 850.84 724.76 947.94 734.65
00003288 00000121 757.18 229.93 438.33 626.72 795.35 498.45 918.05 510.42 783.01 655.94 851.25 725.66 947.85 734.79
00003289 00000122 754.82 229.75 440.03 626.62 794.57 498.45 916.69 511.43 782.05 656.17 851.74 724.67 947.63 734.53
00003290 00000123 753.59 230.30 440.94 625.28 794.13 499.17 915.93 512.15 782.47 657.40 852.66 724.73 948.24 734.59
00003291 00000124 752.89 229.23 439.66 624.99 793.99 499.49 915.34 512.14 782.67 656.87 852.90 723.92 947.79 733.47
00003292 00000125 751.60 232.97 439.84 622.80 793.98 502.85 913.71 514.01 782.88 659.03 854.46 726.70 947.13 734.92
00003293 00000126 751.92 239.68 443.86 620.51 800.41 497.59 923.37 510.84 789.55 656.06 861.11 731.37 954.75 739.44
00003294 00000127 748.55 240.59 445.99 619.58 798.00 498.51 922.09 511.62 788.89 658.65 860.18 732.66 954.52 740.58
00003295 00000128 747.96 240.17 444.57 620.12 796.34 500.16 919.73 511.85 787.95 658.97 858.84 732.72 952.84 739.54
00003296 00000129 747.64 240.46 445.31 620.86 795.83 499.83 919.86 512.24 788.01 660.10 858.14 733.26 952.90 740.62
00003297 00000130 745.86 238.16 444.93 623.85 793.88 501.18 916.86 513.55 786.40 662.12 856.74 734.36 949.82 741.97
00003298 00000131 743.85 239.57 445.61 623.16 793.67 501.37 914.31 513.20 785.75 663.68 857.99 735.34 948.53 742.54
00003299 00000132 742.09 239.18 446.89 625.92 791.21 502.84 912.85 514.93 783.35 665.71 854.57 736.91 946.07 744.25
00003300 00000133 741.41 238.48 446.22 625.57 790.66 502.62 911.74 514.92 782.93 665.67 854.70 736.34 945.36 743.89
00003301 00000134 741.42 238.88 446.08 623.96 789.61 501.00 911.23 514.03 781.60 664.88 854.00 735.63 944.72 743.80
00003302 00000135 738.40 238.19 445.04 623.95 787.98 499.60 908.15 512.80 779.35 664.51 853.99 733.76 944.28 742.02
00003303 00000136 738.57 238.42 443.66 621.00 788.53 497.52 906.72 511.79 779.24 663.63 854.54 731.99 942.55 741.09
00003304 00000137 734.86 237.69 444.48 622.83 785.58 498.96 903.76 511.99 777.22 663.81 853.30 732.51 940.45 740.82
00003305 00000138 734.67 237.10 444.98 622.43 785.35 498.55 903.12 511.55 775.97 663.22 852.40 731.95 939.13 740.19
00003306 00000139 733.91 237.38 444.02 620.31 783.59 498.18 902.72 510.46 775.04 662.19 850.19 730.80 937.38 738.30
00003307 00000140 732.45 237.43 444.98 621.62 780.93 499.00 902.09 510.75 772.56 663.42 847.88 732.20 935.87 739.34
00003308 00000141 730.87 235.46 445.08 624.04 779.34 498.97 901.46 510.57 771.36 663.25 846.01 732.51 934.39 739.47
00003309 00000142 730.69 234.33 444.25 626.12 778.27 499.27 900.65 510.32 770.70 663.09 844.79 732.50 933.60 738.93
00003310 00000143 730.54 231.71 443.38 626.31 780.10 498.43 899.67 509.48 772.52 661.33 847.29 730.20 933.78 736.62
00003311 00000144 729.95 229.63 443.21 628.28 779.07 497.82 899.92 508.47 772.37 660.01 846.38 728.18 934.51 734.22
00003312 00000145 728.12 231.90 446.05 628.20 777.05 493.86 896.92 504.91 770.09 659.79 844.86 728.78 931.80 735.49
00003313 00000146 724.88 234.46 449.13 625.89 770.66 491.09 896.71 500.96 765.54 659.89 839.48 727.94 930.72 733.87
00003314 00000147 725.61 232.11 453.11 629.74 769.05 486.50 895.99 494.10 764.30 657.52 839.53 728.42 930.36 732.71
00003315 00000148 725.24 232.41 453.01 629.13 767.79 485.07 895.00 492.22 761.74 657.29 838.82 728.80 928.86 732.77
00003316 00000149 724.95 231.40 452.53 629.91 767.35 484.95 894.63 491.78 760.79 657.16 838.31 728.67 928.06 732.29
00003317 00000150 725.52 231.08 451.81 630.83 768.15 485.49 894.61 491.59 760.96 656.99 838.18 729.05 927.75 731.96
00003318 00000151 726.65 232.56 451.14 628.63 769.53 485.63 895.98 492.32 762.00 656.76 839.10 727.92 928.93 731.20
00003319 00000152 727.39 231.89 452.25 628.52 770.74 485.39 897.18 492.15 762.97 655.83 839.88 727.87 929.82 731.24
00003320 00000153 728.09 232.95 450.81 628.84 771.66 484.20 897.69 492.12 763.03 656.18 840.70 726.80 931.25 731.04
00003321 00000154 727.64 232.85 453.76 629.23 771.93 483.50 898.49 492.47 764.02 656.18 841.22 725.77 932.71 730.95
00003322 00000155 727.87 232.51 456.10 628.06 772.13 484.78 899.65 491.61 765.56 654.55 842.08 726.58 933.36 730.04
00003323 00000156 728.58 234.40 457.35 624.87 772.17 483.28 902.22 490.93 766.82 654.18 841.84 725.92 935.06 730.06
00003324 00000157 730.24 235.89 456.67 624.31 773.58 483.28 902.41 491.79 767.11 654.70 842.90 725.86 936.41 730.70
00003325 00000158 730.06 235.41 457.32 622.54 773.97 482.15 904.09 492.21 769.12 654.31 843.06 724.46 937.25 730.55
00003326 00000159 729.85 235.49 458.16 624.09 775.09 481.92 905.01 491.72 770.55 654.81 845.57 725.49 940.11 731.39
00003327 00000160 729.93 235.65 458.20 625.25 775.85 481.32 905.17 491.73 771.22 655.32 846.25 726.08 940.46 732.55
00003328 00000161 732.81 233.93 456.39 627.44 780.36 482.07 905.17 491.55 773.85 654.63 850.70 727.67 942.19 733.28
00003329 00000162 733.27 235.99 452.89 624.84 781.56 488.07 906.35 496.79 775.94 657.40 851.84 728.85 943.68 733.78
00003330 00000163 734.23 233.76 448.34 626.90 782.00 490.68 906.46 502.90 775.18 658.51 849.61 727.32 942.81 734.76
00003331 00000164 732.70 235.20 449.13 627.60 780.65 492.97 904.52 504.60 774.64 662.05 849.66 729.86 941.93 736.96
00003332 00000165 732.11 235.05 451.64 628.79 780.95 493.31 904.40 505.82 774.75 663.91 849.69 731.83 941.35 739.80
00003333 00000166 730.78 235.49 451.39 628.78 780.35 494.62 903.43 506.89 774.39 665.28 849.74 732.95 940.69 740.79
00003334 00000167 730.76 235.04 450.96 628.58 780.01 495.44 903.54 506.71 774.39 665.00 849.38 732.54 940.78 739.49
00003335 00000168 729.57 234.29 452.84 629.47 779.56 496.00 903.17 507.53 773.98 665.65 849.25 733.35 940.11 740.56
00003336 00000169 726.59 234.37 453.16 630.70 776.78 497.33 901.31 507.40 771.76 666.20 847.17 733.88 938.19 739.89
00003337 00000170 725.49 233.75 452.87 631.50 774.67 498.90 900.21 507.45 771.12 667.23 846.27 735.06 937.02 739.85
