Video ID: 	rA2y0Gl526U
H: 	1080
W: 	1920
FPS: 	24.0

FRAME INDEX X0 Y0 W H [Landmarks (5 Points)]

00000741 00000000 656.13 179.24 368.96 562.34 766.41 385.93 911.11 384.31 838.19 511.49 784.71 592.21 904.70 590.68
00000742 00000001 658.30 180.58 368.94 560.64 771.14 385.55 914.66 383.06 843.55 509.66 788.73 591.64 908.50 589.40
00000743 00000002 661.34 176.42 371.47 561.26 776.71 380.60 923.24 378.36 853.47 503.92 791.38 584.53 917.33 582.49
00000744 00000003 667.55 174.31 370.27 561.08 785.92 376.20 931.59 375.62 862.77 501.27 796.20 582.02 924.17 581.20
00000745 00000004 669.47 174.75 373.50 558.78 790.51 375.08 941.79 374.84 873.04 498.36 803.00 580.98 934.93 580.04
00000746 DELETE   674.98 171.79 374.27 568.58 802.99 383.75 952.10 387.87 885.21 502.04 809.32 581.12 946.53 584.06
00000747 DELETE   682.45 179.27 372.56 566.57 811.03 389.89 960.91 397.45 893.11 503.37 815.17 584.37 952.79 590.64
00000748 DELETE   684.44 178.53 377.79 569.57 818.28 389.66 967.54 403.87 896.92 512.13 817.54 583.62 949.29 595.81
00000749 00000008 690.38 186.99 379.94 562.92 830.19 390.17 976.45 409.48 904.82 515.78 823.98 585.10 952.68 601.37
00000750 00000009 696.92 196.74 380.18 554.47 839.22 390.09 982.53 416.21 906.64 517.24 824.91 586.15 949.44 608.53
00000751 00000010 708.12 217.28 383.07 543.25 840.18 390.94 992.36 418.30 909.20 518.93 826.75 585.83 955.87 608.26
00000752 00000011 714.09 223.92 382.58 539.22 846.94 391.25 1001.00 421.74 913.26 522.11 827.09 587.76 957.77 612.90
00000753 DELETE   718.85 224.82 386.59 539.32 856.81 392.71 1013.55 424.58 924.42 527.69 831.99 591.54 963.85 618.44
00000754 00000013 729.21 228.09 383.89 542.21 868.63 392.49 1027.67 427.95 937.73 530.70 841.47 599.23 968.56 629.19
00000755 DELETE   734.58 232.55 388.04 547.25 878.66 396.40 1036.02 430.61 952.93 535.05 851.52 603.51 984.12 632.20
00000756 DELETE   741.64 234.83 387.87 551.39 887.80 398.34 1042.84 433.23 963.82 536.21 859.92 605.15 995.48 634.46
00000757 00000016 749.03 234.86 389.85 552.79 895.65 401.22 1049.13 435.47 971.00 537.04 867.28 606.29 1002.54 635.35
00000758 DELETE   755.63 234.10 385.37 547.90 894.59 405.91 1050.36 440.23 966.58 543.89 870.19 605.47 1001.75 633.39
00000759 00000018 758.41 236.25 387.04 543.61 897.77 408.27 1054.59 442.78 968.95 544.78 873.75 605.89 1006.25 633.93
00000760 00000019 761.12 237.26 387.23 540.70 901.36 409.32 1057.40 442.39 972.02 546.67 877.03 607.09 1009.38 633.95
00000761 00000020 764.01 236.76 385.47 534.32 903.16 410.98 1059.01 441.31 974.92 546.19 880.06 607.53 1010.47 632.47
00000762 00000021 764.69 237.28 383.87 529.70 905.04 412.08 1060.06 441.37 977.97 546.35 881.66 607.38 1011.63 631.70
00000763 00000022 763.98 236.91 383.94 529.62 904.98 410.22 1059.29 440.57 976.44 546.93 880.11 604.22 1010.17 629.26
00000764 00000023 762.09 236.74 383.34 529.27 902.59 408.53 1057.02 439.47 974.01 545.48 878.18 602.29 1008.16 627.62
00000765 00000024 750.90 228.29 391.64 537.24 906.82 408.63 1051.23 443.97 970.83 544.90 876.98 597.96 1001.43 628.40
00000766 00000025 748.68 226.90 392.18 540.00 905.35 408.14 1049.55 442.62 969.90 543.84 874.79 597.61 999.95 627.58
00000767 00000026 747.78 225.01 391.91 540.09 903.68 408.34 1047.33 441.76 968.70 543.19 873.25 597.36 997.86 626.75
00000768 00000027 754.04 233.04 383.49 534.20 895.94 404.83 1050.35 433.20 973.76 539.87 873.11 599.90 1007.07 624.25
00000769 00000028 747.64 220.80 390.79 544.85 900.75 407.59 1046.15 439.09 968.50 541.82 872.24 599.77 996.79 627.91
00000770 00000029 751.91 231.18 384.52 542.26 894.71 402.43 1049.69 430.55 974.08 538.48 873.24 602.15 1008.07 626.18
00000771 00000030 752.37 231.81 383.30 542.17 895.90 400.89 1050.77 430.06 975.25 536.49 873.76 602.64 1007.44 627.58
00000772 00000031 751.42 231.18 384.64 543.53 895.66 400.66 1050.22 430.17 974.85 536.04 873.04 601.53 1007.52 626.65
00000773 00000032 751.78 230.00 384.57 543.96 897.40 400.01 1051.94 429.78 975.97 538.04 875.14 603.42 1006.40 628.63
00000774 00000033 755.07 227.50 380.33 543.27 892.78 403.27 1049.32 433.59 969.58 541.43 875.49 604.38 999.53 628.75
00000775 00000034 753.33 227.44 382.20 547.38 892.36 402.94 1049.16 433.48 969.82 540.76 875.05 605.33 1000.78 629.94
00000776 00000035 753.01 228.01 384.14 550.13 890.04 403.05 1049.60 433.41 967.77 542.18 871.39 606.72 1000.36 631.30
00000777 00000036 749.27 230.38 386.39 554.46 896.71 400.99 1052.54 430.66 977.33 537.36 871.24 609.95 1006.19 635.52
00000778 00000037 750.21 232.98 384.21 551.58 897.62 401.59 1052.95 430.95 978.95 538.55 873.05 609.61 1008.56 634.81
00000779 00000038 751.37 229.15 383.42 552.62 898.51 403.38 1053.69 432.40 980.07 540.30 874.84 608.00 1010.58 632.87
00000780 00000039 754.71 233.97 380.28 545.06 900.89 406.83 1054.41 433.84 982.70 541.42 878.84 609.85 1013.64 633.34
00000781 00000040 757.87 232.41 379.24 540.94 897.76 406.67 1054.87 434.55 977.04 546.04 881.18 611.27 1005.98 633.92
00000782 00000041 762.09 236.61 379.17 531.09 906.95 409.95 1063.17 436.45 987.60 548.66 890.03 613.45 1012.00 635.33
00000783 00000042 764.87 240.92 384.94 530.70 915.56 413.24 1070.37 439.27 992.36 554.63 894.22 617.86 1013.84 639.03
00000784 00000043 770.54 248.16 383.12 526.05 923.93 414.89 1076.87 440.15 999.70 560.13 902.63 622.31 1018.37 642.71
00000785 00000044 774.47 251.41 384.28 521.54 929.33 416.96 1083.64 442.15 1006.26 563.64 902.56 620.68 1026.16 641.73
00000786 00000045 778.59 251.35 384.05 514.23 934.71 421.04 1088.12 442.54 1010.84 562.61 909.84 621.20 1026.97 639.26
00000787 00000046 781.49 250.57 382.23 511.61 938.93 420.91 1089.91 441.37 1013.29 561.34 914.78 620.54 1027.02 637.51
00000788 00000047 782.95 248.22 380.24 508.29 940.86 418.09 1091.88 437.22 1017.20 558.05 919.52 618.11 1029.63 633.58
00000789 00000048 783.39 245.27 381.27 509.87 943.88 413.87 1094.45 433.42 1021.86 552.49 922.84 612.98 1034.90 628.99
00000790 00000049 783.57 240.94 381.42 515.00 943.37 410.53 1094.96 430.53 1022.86 549.55 924.09 610.22 1037.51 626.69
00000791 00000050 784.21 237.82 381.03 515.70 943.27 408.40 1096.47 428.22 1024.32 549.77 924.02 608.88 1039.43 625.28
00000792 00000051 784.87 239.11 380.05 513.96 943.26 407.87 1096.94 427.75 1024.49 550.59 922.09 608.30 1039.08 624.92
00000793 00000052 785.58 238.14 378.81 514.96 943.12 408.28 1096.42 427.62 1024.45 550.25 924.10 609.90 1039.03 625.94
00000794 00000053 785.62 238.41 378.99 514.13 942.63 409.78 1095.89 428.31 1023.96 549.26 924.85 611.16 1039.28 626.37
00000795 00000054 785.11 242.04 378.21 511.52 943.35 411.81 1095.13 429.70 1024.17 550.94 924.80 614.05 1037.37 628.74
00000796 00000055 785.38 245.59 377.13 510.17 943.56 414.13 1094.12 431.85 1023.45 553.84 923.71 616.17 1035.79 630.79
00000797 00000056 784.50 243.01 377.70 512.71 942.18 415.69 1092.75 433.84 1021.63 555.22 922.47 617.36 1033.84 632.31
00000798 00000057 784.19 244.38 377.91 512.56 942.15 415.86 1092.75 434.08 1021.21 556.98 920.62 617.54 1032.86 632.57
00000799 00000058 783.21 242.65 377.80 515.96 939.89 415.43 1091.27 433.63 1019.66 555.07 919.25 617.90 1032.57 633.03
00000800 00000059 781.65 239.37 378.25 517.81 938.39 413.75 1090.36 432.04 1019.38 553.39 919.22 615.46 1033.61 630.63
00000801 00000060 779.39 238.01 378.45 516.31 939.66 413.25 1089.09 431.55 1020.54 553.45 917.59 611.16 1034.39 626.71
00000802 00000061 778.04 235.78 378.86 517.18 937.66 412.60 1086.94 430.25 1018.88 551.22 916.98 609.72 1032.48 624.71
00000803 00000062 777.82 236.73 378.06 515.65 934.33 412.08 1084.13 429.37 1015.51 550.65 914.63 608.33 1031.01 623.04
00000804 00000063 777.25 235.16 376.76 517.88 933.55 411.47 1082.89 428.59 1014.23 550.60 914.44 609.16 1028.19 623.59
00000805 00000064 776.97 236.73 376.18 519.39 932.57 411.46 1082.94 428.71 1013.57 551.17 912.48 612.45 1026.86 627.02
00000806 00000065 776.04 239.07 378.13 520.95 930.95 409.92 1081.68 429.65 1009.95 551.99 909.25 612.18 1024.88 628.48
00000807 00000066 776.07 239.47 376.36 520.65 929.29 410.35 1081.14 429.90 1009.65 552.34 908.96 613.96 1024.80 630.07
00000808 00000067 774.86 239.99 376.66 517.92 929.42 411.17 1081.18 430.11 1010.34 552.54 907.84 613.89 1024.21 629.63
00000809 00000068 774.44 239.29 376.00 515.68 930.47 411.83 1079.67 428.69 1011.20 550.12 912.11 614.90 1022.37 628.72
00000810 00000069 774.06 236.22 377.04 517.94 930.46 411.84 1078.72 428.91 1011.20 548.72 915.41 614.64 1021.70 628.39
00000811 00000070 773.81 233.57 377.64 521.38 932.46 411.17 1078.53 429.41 1012.15 548.31 915.38 614.45 1019.49 629.24
00000812 00000071 772.58 235.19 378.46 519.77 930.72 410.26 1077.34 429.43 1009.50 547.11 914.05 614.21 1016.87 629.64
00000813 00000072 769.37 233.80 380.30 527.40 926.06 408.58 1074.61 430.38 1004.95 547.03 911.12 615.88 1014.38 633.11
00000814 00000073 768.73 232.88 377.62 532.34 920.42 405.13 1071.42 427.70 999.70 547.69 907.29 615.12 1014.20 632.83
00000815 00000074 765.79 234.37 376.60 532.61 915.30 404.67 1069.92 427.38 999.60 545.38 900.20 615.34 1016.73 633.61
00000816 00000075 763.34 233.57 376.32 534.30 911.51 404.76 1067.11 427.60 997.53 547.06 896.63 615.88 1015.51 634.27
00000817 00000076 760.30 234.20 376.22 535.17 908.28 404.82 1064.34 427.48 995.17 548.71 894.65 616.58 1013.90 634.76
00000818 00000077 760.48 235.41 375.71 533.04 909.18 406.84 1064.70 429.27 994.09 552.04 895.10 617.65 1013.15 635.60
00000819 00000078 760.40 238.92 375.68 528.70 908.84 408.27 1065.31 429.90 994.47 552.30 895.55 618.41 1014.74 635.70
00000820 00000079 761.31 239.36 376.03 529.21 910.91 407.86 1066.52 430.00 995.98 553.03 896.01 618.07 1015.25 635.76
00000821 00000080 764.82 239.41 375.35 527.86 914.28 407.35 1069.46 429.02 999.01 552.72 898.11 617.59 1017.44 635.01
00000822 00000081 767.34 241.42 375.64 520.09 920.58 409.26 1074.64 428.50 1004.52 553.92 902.23 613.99 1022.13 629.65
00000823 00000082 770.48 239.68 376.21 516.77 926.36 410.87 1078.64 427.26 1010.36 554.51 907.06 613.15 1025.97 626.92
00000824 00000083 775.64 238.07 376.08 515.09 932.11 410.20 1083.08 426.25 1014.44 552.93 912.42 610.68 1027.69 624.16
00000825 00000084 778.07 236.03 376.16 513.49 935.16 408.50 1084.77 424.00 1018.45 548.42 918.85 608.85 1030.95 621.97
00000826 00000085 781.60 235.51 377.89 515.80 939.50 407.94 1091.56 425.25 1022.92 547.83 923.40 610.51 1035.23 624.68
00000827 00000086 785.22 239.21 378.31 517.22 943.94 409.63 1097.61 427.40 1027.75 549.98 926.80 614.04 1039.84 628.65
00000828 00000087 787.39 248.14 378.54 508.58 945.74 413.58 1099.90 429.71 1029.06 554.01 929.99 618.11 1042.76 631.32
00000829 00000088 788.43 256.22 379.82 505.72 950.41 418.98 1101.95 435.88 1029.87 562.77 932.20 624.05 1041.31 637.95
00000830 00000089 790.07 261.21 379.12 500.80 952.37 424.44 1104.52 441.92 1030.86 568.72 933.43 628.74 1041.50 643.20
00000831 00000090 789.15 262.46 381.46 505.04 953.40 428.02 1104.88 446.23 1031.49 574.08 933.56 634.15 1039.19 649.23
00000832 00000091 787.12 261.65 383.30 506.81 953.56 430.20 1102.81 449.14 1029.36 576.44 931.78 634.94 1035.53 650.57
00000833 00000092 784.58 260.32 384.60 511.51 949.10 428.70 1100.50 448.36 1026.83 577.28 924.04 631.61 1037.11 648.51
00000834 00000093 780.25 257.87 383.91 512.71 942.13 426.38 1094.58 444.28 1020.12 574.14 918.90 629.67 1034.32 644.81
00000835 00000094 776.16 252.76 378.06 514.34 934.87 419.94 1086.91 439.06 1014.25 569.91 911.85 626.45 1026.26 642.38
00000836 00000095 772.26 248.80 373.90 514.61 927.13 414.06 1079.40 431.97 1009.40 563.33 909.36 622.68 1022.11 636.87
00000837 00000096 766.11 243.10 371.95 518.25 916.45 410.10 1071.71 426.03 1003.75 556.56 906.28 621.61 1020.92 633.85
00000838 00000097 761.72 231.80 371.24 522.27 907.99 408.12 1065.84 421.72 1000.52 550.18 906.59 617.96 1018.05 628.54
00000839 DELETE   751.92 211.02 379.52 537.14 910.84 407.41 1060.35 422.44 996.50 548.03 905.20 609.50 1019.08 623.43
00000840 00000099 752.80 218.30 374.49 533.29 896.13 409.25 1056.80 419.15 995.27 539.15 896.64 613.27 1021.79 621.56
00000841 00000100 749.14 219.31 376.70 545.49 892.90 408.56 1052.47 418.82 992.49 539.55 891.85 619.72 1016.63 628.33
00000842 00000101 746.26 217.49 375.96 548.55 888.84 410.10 1048.66 418.96 990.26 541.71 889.12 620.22 1015.13 627.71
00000843 00000102 743.44 218.98 375.51 541.65 885.39 410.36 1045.07 419.16 985.92 541.56 888.56 621.02 1008.02 628.46
00000844 00000103 741.64 218.91 374.32 540.03 883.11 408.01 1042.17 417.02 981.78 539.28 886.35 617.46 1005.61 625.10
00000845 DELETE   741.54 212.78 373.13 542.17 882.15 401.64 1040.83 411.31 979.33 534.55 884.61 611.14 1004.96 619.37
00000846 DELETE   740.58 206.61 373.72 543.73 879.10 392.64 1037.17 401.27 975.54 523.30 885.31 603.73 1004.50 611.23
00000847 DELETE   743.86 184.40 368.52 558.34 893.40 383.48 1041.44 394.60 981.43 505.04 890.98 589.78 1012.08 599.29
00000848 00000107 743.35 175.62 369.43 565.23 895.72 369.21 1045.46 384.91 983.66 496.47 889.35 582.25 1013.20 595.14
00000849 00000108 742.33 172.46 369.99 567.74 897.33 362.83 1045.37 379.60 986.30 490.06 889.50 579.53 1011.55 593.37
00000850 00000109 743.34 174.31 371.18 568.43 898.77 363.76 1046.50 381.51 987.11 490.71 890.12 579.87 1013.55 594.44
00000851 00000110 744.27 185.19 371.36 558.96 900.89 370.39 1048.37 388.93 990.15 495.15 889.51 581.06 1014.91 596.70
00000852 00000111 750.28 198.60 367.57 548.27 904.77 378.66 1051.39 395.74 995.32 503.91 894.95 588.07 1017.44 602.60
CROP_BBOX: 461 0 1363 916
