Video ID: 	FmRswLtvx5k
H: 	1080
W: 	1920
FPS: 	60.0

FRAME INDEX X0 Y0 W H [Landmarks (5 Points)]

00029344 00000000 785.98 305.69 461.91 606.28 853.05 573.11 1053.23 548.52 934.44 701.75 919.20 795.06 1062.41 774.09
00029345 DELETE   785.96 305.83 462.36 605.88 852.90 573.17 1052.89 548.44 934.04 701.58 919.07 794.89 1062.56 773.80
00029346 DELETE   784.73 301.05 465.84 608.95 850.03 570.08 1052.03 546.61 930.19 700.20 916.44 794.47 1059.66 774.53
00029347 00000003 786.96 297.60 464.43 611.75 850.47 568.21 1049.72 545.86 926.38 696.54 914.83 792.56 1055.78 773.55
00029348 00000004 788.03 296.87 462.80 610.13 850.02 566.86 1047.98 543.53 924.16 691.85 912.17 789.56 1051.99 769.94
00029349 00000005 789.09 291.89 463.29 612.47 848.83 564.44 1046.93 541.77 921.76 690.02 909.90 786.48 1050.48 767.38
00029350 00000006 789.89 289.68 464.31 615.62 848.91 562.57 1045.92 539.67 919.70 686.29 908.87 783.63 1050.01 764.45
00029351 00000007 789.78 291.39 463.33 613.78 848.79 562.63 1045.80 539.30 919.48 685.92 908.85 783.80 1049.84 764.21
00029352 00000008 791.51 289.96 463.13 614.03 848.41 560.23 1045.20 537.26 918.27 683.61 907.81 779.70 1051.62 760.46
00029353 00000009 792.51 295.76 454.08 614.77 852.30 559.39 1037.05 541.49 910.84 681.12 902.72 773.95 1047.33 758.84
00029354 00000010 793.42 296.07 454.84 614.63 853.18 556.86 1037.41 540.16 910.12 678.96 902.31 770.52 1048.62 756.40
00029355 00000011 794.72 296.03 453.61 614.91 853.38 554.53 1038.35 538.72 910.31 678.27 901.82 768.94 1050.39 755.52
00029356 00000012 796.14 296.24 452.00 614.60 853.89 552.89 1039.33 537.81 910.73 677.96 901.55 768.01 1051.25 755.23
00029357 00000013 796.27 295.77 451.99 614.94 854.02 553.26 1039.11 537.94 910.32 677.38 901.45 768.07 1050.58 755.09
00029358 00000014 797.94 295.24 449.19 614.09 855.31 550.91 1039.92 536.98 910.56 675.01 901.19 766.78 1049.39 755.09
00029359 00000015 798.28 288.80 453.41 612.76 851.62 551.12 1044.99 532.01 914.17 674.85 904.31 769.55 1050.91 753.76
00029360 00000016 799.71 286.77 451.50 613.73 852.57 550.08 1045.21 532.37 914.00 674.49 903.40 769.22 1048.22 754.74
00029361 00000017 799.64 287.12 448.38 612.48 853.20 549.06 1046.30 533.03 915.17 674.86 902.81 769.76 1045.84 756.94
00029362 00000018 800.99 287.08 446.75 611.00 853.63 548.93 1046.97 533.48 915.42 674.55 902.24 769.56 1044.69 757.28
00029363 00000019 803.29 291.60 435.59 610.02 857.82 546.86 1041.90 537.55 915.24 671.41 901.57 764.57 1042.38 757.20
00029364 00000020 802.03 287.28 447.29 609.39 854.42 548.89 1046.98 534.72 915.55 674.27 902.35 769.27 1043.22 758.13
00029365 00000021 803.40 289.24 445.01 606.91 855.02 548.70 1047.48 535.07 915.63 674.46 902.02 769.18 1042.65 758.58
00029366 00000022 804.18 288.77 444.54 607.27 855.29 548.13 1047.75 536.36 915.21 675.47 901.05 768.35 1042.14 759.29
00029367 00000023 804.93 289.55 443.42 606.01 855.80 547.58 1048.22 537.08 915.57 676.30 900.50 767.75 1041.78 759.79
00029368 00000024 805.72 290.14 442.26 605.42 856.76 547.57 1047.88 538.21 915.36 676.22 900.48 767.22 1040.83 760.15
00029369 00000025 805.85 290.08 441.80 605.58 856.84 547.37 1047.99 538.20 915.59 676.68 900.55 767.31 1040.79 760.41
00029370 00000026 806.37 289.91 441.58 605.76 857.36 547.48 1048.08 539.21 915.41 677.31 900.98 767.33 1041.24 761.12
00029371 00000027 807.31 292.37 440.13 603.24 857.74 547.24 1047.56 540.55 914.57 678.94 900.58 766.94 1040.63 761.93
00029372 00000028 805.42 282.71 439.32 613.60 862.08 545.44 1050.60 542.23 917.82 674.59 902.99 760.75 1045.04 758.10
00029373 00000029 806.12 283.55 437.69 612.74 863.23 545.46 1051.12 542.90 918.27 674.64 903.16 760.16 1045.13 757.99
00029374 00000030 807.35 283.52 436.08 612.88 864.61 545.42 1051.54 543.86 917.88 674.08 903.40 759.25 1045.07 757.78
00029375 00000031 807.40 283.71 436.55 611.84 864.65 545.31 1051.50 543.83 917.87 674.22 903.64 758.98 1045.14 757.61
00029376 00000032 809.89 284.62 435.51 611.52 867.17 546.05 1052.24 545.34 919.15 673.74 903.82 757.77 1045.80 757.04
00029377 00000033 811.84 284.71 435.67 612.17 869.18 546.62 1053.81 546.87 920.02 674.71 904.29 757.25 1047.27 757.28
00029378 00000034 815.25 286.26 433.87 609.65 871.29 547.79 1055.33 548.55 921.67 675.61 905.48 757.25 1049.02 757.79
00029379 DELETE   818.72 286.23 429.48 609.74 872.98 549.23 1057.72 550.74 924.14 678.15 906.02 757.81 1052.03 759.04
00029380 00000036 818.74 286.28 430.11 609.61 873.07 549.42 1057.86 550.52 924.37 677.98 906.47 757.94 1052.31 758.85
00029381 00000037 821.82 288.80 428.27 607.81 874.78 551.49 1059.54 553.43 926.38 680.40 907.21 758.53 1054.60 760.25
00029382 00000038 824.80 288.38 425.91 607.28 877.39 553.22 1061.49 557.69 929.55 681.54 908.54 757.78 1055.76 761.61
00029383 00000039 827.45 290.89 423.27 605.03 878.66 553.98 1062.63 559.67 931.45 684.74 909.33 759.05 1055.18 764.09
00029384 00000040 829.25 292.06 422.41 604.71 880.25 554.48 1064.22 562.97 932.72 686.35 909.96 759.55 1054.46 766.91
00029385 DELETE   830.46 290.01 421.64 608.31 880.89 555.93 1064.95 565.61 933.45 687.91 910.61 761.53 1053.12 769.82
00029386 DELETE   835.19 300.18 418.14 597.46 887.80 555.82 1067.07 565.21 936.72 689.01 916.90 765.79 1058.32 771.41
00029387 00000043 835.29 300.45 417.83 597.09 887.69 555.84 1067.50 565.80 936.76 689.33 916.55 765.63 1058.25 771.73
00029388 DELETE   835.91 300.00 418.40 599.69 889.42 556.75 1069.48 568.41 937.62 690.19 917.31 767.42 1058.85 774.83
00029389 00000045 838.61 301.28 419.04 599.69 890.63 557.88 1071.06 570.37 937.70 692.38 917.71 771.56 1058.19 779.77
00029390 00000046 840.27 301.19 421.41 601.09 892.32 558.37 1073.98 572.67 938.21 693.94 918.44 772.16 1059.31 781.86
00029391 00000047 842.59 301.61 423.47 601.07 893.54 558.72 1075.13 575.08 936.48 696.79 918.23 773.48 1059.76 784.79
00029392 DELETE   843.99 305.53 423.10 598.00 894.53 559.70 1077.15 576.49 937.59 698.20 918.17 775.22 1060.54 787.06
00029393 00000049 843.99 305.20 422.99 599.08 894.44 559.69 1077.36 576.75 937.78 698.75 918.17 775.54 1060.83 787.61
00029394 00000050 844.67 305.31 424.93 601.62 895.76 561.02 1079.72 578.64 938.87 700.31 919.33 777.45 1063.66 789.96
00029395 00000051 846.16 308.57 424.95 599.85 898.19 563.38 1080.14 581.39 940.18 701.80 921.21 778.67 1064.90 791.52
00029396 00000052 847.21 311.97 426.53 598.43 899.51 564.84 1081.27 583.19 940.28 703.03 922.08 779.16 1067.03 792.20
00029397 00000053 848.80 317.21 428.43 596.28 901.63 565.53 1082.53 584.79 941.69 704.43 924.40 778.72 1069.29 792.58
00029398 DELETE   848.05 321.15 436.66 592.48 903.33 561.83 1095.90 588.31 953.21 709.54 930.44 774.07 1073.09 794.77
00029399 00000055 848.24 320.69 435.86 593.09 903.22 561.99 1096.02 588.41 953.13 709.86 930.09 774.41 1073.22 795.05
00029400 00000056 849.85 322.06 435.76 591.62 904.82 562.05 1097.97 588.75 953.98 709.62 931.38 773.11 1075.72 793.96
00029401 00000057 851.56 321.84 435.01 592.77 906.66 562.85 1099.61 589.36 955.17 709.54 932.57 773.43 1077.16 794.03
00029402 00000058 853.31 323.06 433.97 592.16 908.38 563.97 1100.25 590.31 956.69 709.93 934.72 775.04 1076.68 795.51
00029403 00000059 854.04 322.01 434.20 592.84 908.18 564.57 1100.70 590.94 956.80 710.99 934.82 777.69 1075.50 798.34
00029404 00000060 855.83 320.36 433.35 593.73 909.39 564.57 1100.56 590.90 956.89 710.98 936.41 778.29 1075.36 798.92
00029405 00000061 855.82 320.69 433.44 593.36 909.46 564.62 1100.70 591.07 957.11 711.00 936.54 778.36 1075.21 799.08
00029406 00000062 857.84 321.91 431.15 591.09 910.83 564.97 1101.06 591.10 957.53 710.57 937.40 778.70 1074.56 799.24
00029407 00000063 858.99 320.78 431.39 591.78 911.97 565.39 1100.78 591.37 957.94 710.59 939.09 778.80 1074.62 799.16
00029408 00000064 860.76 320.24 430.85 592.13 912.68 565.76 1100.65 591.33 958.31 710.33 940.16 779.40 1074.40 799.44
00029409 00000065 861.55 318.28 431.05 594.57 913.29 565.09 1100.58 590.97 957.63 710.10 940.93 779.02 1075.38 799.31
00029410 00000066 862.82 318.89 430.39 594.03 913.78 564.98 1100.57 590.07 957.74 709.63 942.00 779.44 1075.79 799.16
00029411 00000067 862.68 318.73 430.74 594.44 913.55 564.76 1100.87 589.98 957.53 709.64 941.95 779.55 1075.97 799.39
00029412 00000068 863.38 320.37 431.25 593.99 913.67 564.51 1100.48 588.30 956.98 708.55 941.89 779.46 1077.13 798.30
00029413 00000069 863.61 319.89 430.94 595.07 914.44 564.54 1099.82 587.74 956.27 706.87 942.68 778.34 1077.60 796.62
00029414 00000070 864.28 319.96 431.86 593.65 914.48 564.38 1098.28 587.32 954.64 704.93 943.49 777.40 1077.43 795.47
00029415 00000071 864.04 319.35 430.41 593.14 914.22 563.67 1097.05 587.43 952.14 704.13 943.17 775.85 1077.38 794.50
00029416 00000072 863.92 319.32 430.68 593.21 913.67 563.68 1095.27 586.83 949.82 703.23 943.15 775.35 1076.61 793.52
00029417 00000073 864.02 318.32 430.15 594.26 913.58 563.09 1095.85 586.78 949.69 703.24 942.55 775.25 1076.66 793.88
00029418 00000074 864.52 313.78 430.79 599.54 913.25 563.40 1092.12 586.87 945.90 702.43 943.33 774.56 1076.36 792.80
00029419 00000075 864.16 313.10 430.63 601.78 912.66 562.94 1089.40 585.64 943.50 700.93 943.43 774.29 1075.32 791.92
00029420 00000076 864.39 311.37 428.56 604.50 911.43 562.42 1086.23 583.95 940.06 700.54 942.33 774.06 1074.72 790.77
00029421 00000077 863.29 308.94 429.16 608.09 910.30 561.18 1084.37 582.82 936.32 699.18 940.46 772.79 1074.24 789.53
00029422 00000078 862.34 307.58 427.09 610.54 907.96 560.32 1080.40 580.32 932.36 698.58 939.73 773.78 1071.67 789.03
00029423 00000079 863.00 307.37 426.65 610.95 908.02 559.89 1080.48 580.32 931.54 698.51 939.10 773.65 1071.49 789.28
00029424 00000080 861.73 307.64 425.81 609.43 906.12 559.50 1078.25 578.84 928.96 696.89 937.58 773.47 1069.01 788.27
00029425 00000081 860.60 304.80 425.53 611.33 905.91 557.93 1076.25 578.34 926.64 695.46 937.39 772.38 1065.57 788.22
00029426 00000082 859.71 306.97 423.97 611.17 900.58 561.02 1067.29 576.87 921.11 695.16 928.79 781.36 1062.38 791.72
00029427 00000083 858.55 304.61 426.26 612.14 900.46 559.95 1065.37 575.31 920.11 692.48 927.81 783.54 1056.65 793.55
00029428 00000084 858.16 303.23 424.75 612.86 900.27 558.03 1061.71 573.65 917.28 691.52 929.39 784.35 1053.78 794.56
00029429 00000085 858.61 303.27 425.34 613.18 900.15 558.21 1061.65 573.69 916.85 691.09 929.12 784.40 1053.63 794.43
00029430 00000086 858.23 299.46 425.83 616.82 898.72 558.29 1059.29 572.43 913.58 689.16 928.43 785.96 1050.59 795.00
00029431 00000087 858.47 299.78 424.96 617.76 897.52 557.72 1056.06 571.50 909.36 687.63 926.96 786.97 1046.48 795.93
00029432 00000088 857.57 300.16 425.70 618.91 896.57 558.83 1054.29 572.33 906.95 687.52 925.98 787.37 1044.65 796.15
00029433 00000089 857.11 299.27 425.28 621.67 895.40 559.74 1051.53 571.71 904.94 687.51 926.45 787.80 1046.21 795.13
00029434 00000090 857.01 298.80 425.94 620.94 893.63 560.73 1047.97 572.60 900.05 687.89 925.84 784.96 1046.86 791.77
00029435 00000091 856.90 299.73 426.19 620.26 893.49 560.81 1047.29 572.81 899.65 688.25 925.90 784.88 1046.65 791.82
00029436 00000092 856.19 299.68 425.87 618.24 891.79 560.68 1044.87 573.37 896.48 687.45 924.03 782.26 1045.80 789.57
00029437 00000093 852.32 290.22 424.09 623.19 893.47 556.68 1034.69 578.73 901.85 691.12 919.93 765.24 1032.79 783.24
00029438 00000094 850.99 291.68 426.63 617.83 892.62 555.18 1032.74 579.30 899.09 690.88 917.36 760.42 1030.88 780.07
00029439 00000095 850.39 292.51 426.13 616.27 892.04 555.23 1031.82 579.38 897.49 690.35 915.90 759.42 1029.98 779.12
00029440 00000096 852.88 298.65 425.67 608.19 885.31 557.84 1038.56 572.67 886.49 685.07 915.65 773.14 1038.91 781.73
00029441 00000097 849.36 289.42 426.46 618.65 891.30 554.61 1031.03 578.51 895.88 688.76 914.95 758.90 1029.03 778.40
00029442 00000098 853.48 296.17 424.67 609.92 885.27 557.57 1037.52 572.54 885.22 684.83 915.87 773.34 1037.90 782.04
00029443 00000099 853.28 297.80 422.53 607.96 885.11 556.61 1037.23 571.27 885.36 684.60 915.88 774.04 1036.32 782.75
00029444 00000100 853.31 296.36 423.89 611.04 885.19 556.36 1036.60 570.39 884.68 683.41 916.03 776.27 1033.31 784.64
00029445 00000101 852.94 295.35 423.83 612.31 884.89 556.32 1036.47 569.22 884.58 681.94 915.31 778.26 1030.04 786.02
00029446 00000102 853.46 294.37 423.59 612.40 885.85 556.10 1036.64 568.78 885.70 681.27 915.05 779.29 1026.52 787.10
00029447 00000103 853.27 294.27 423.68 612.48 885.56 555.89 1036.49 568.43 885.65 680.88 914.61 779.18 1026.05 786.91
00029448 00000104 850.37 282.93 423.61 625.41 888.83 552.46 1024.23 570.95 891.43 682.73 911.46 769.62 1010.90 785.49
00029449 00000105 851.23 282.81 422.81 625.88 888.38 552.89 1022.40 570.19 890.48 681.54 910.53 771.32 1006.60 786.38
00029450 00000106 851.83 283.92 423.65 625.62 889.02 553.95 1021.17 568.85 890.76 679.93 911.24 773.57 1003.45 786.81
00029451 00000107 852.29 285.91 424.16 623.69 889.16 554.19 1021.12 568.06 891.75 679.27 911.83 774.36 1002.26 786.76
00029452 00000108 852.29 285.27 424.99 624.25 890.70 553.61 1021.76 567.75 892.64 678.63 913.27 773.68 1002.93 786.34
00029453 00000109 852.47 283.98 425.03 626.02 890.83 554.06 1021.67 567.90 892.67 678.35 913.36 773.73 1003.08 786.18
00029454 00000110 852.26 284.04 427.08 626.88 893.64 553.27 1023.07 567.66 894.67 679.55 918.52 772.23 1008.36 784.89
00029455 00000111 853.65 284.20 426.78 631.28 895.95 553.77 1024.53 568.10 894.87 681.23 923.77 773.35 1014.94 785.69
00029456 00000112 856.65 294.38 427.52 623.85 889.01 556.68 1036.78 563.67 885.60 679.16 921.81 783.22 1032.13 786.66
00029457 00000113 856.03 294.26 429.65 625.49 887.90 556.24 1036.72 562.61 884.62 679.99 923.16 783.57 1035.73 786.27
00029458 00000114 856.24 295.48 428.49 624.19 888.07 556.00 1036.62 562.10 884.17 679.07 923.01 782.10 1037.08 784.50
00029459 00000115 856.24 295.09 428.68 624.04 888.35 555.78 1036.72 562.30 884.34 679.07 923.29 781.98 1037.09 784.66
00029460 00000116 856.88 293.85 428.65 624.54 888.50 555.41 1037.06 561.99 884.33 678.63 923.40 781.20 1038.45 783.81
00029461 00000117 857.55 294.09 426.61 623.60 889.17 555.49 1037.49 561.50 885.35 678.15 923.86 780.78 1039.75 782.90
00029462 00000118 858.10 294.11 426.75 623.33 889.29 556.51 1038.11 560.95 885.85 677.43 923.77 781.09 1041.44 781.93
00029463 00000119 859.82 293.42 425.70 623.19 889.71 555.59 1039.65 559.89 887.25 677.10 923.29 780.95 1042.64 781.66
00029464 00000120 861.65 293.34 424.60 622.75 890.78 555.77 1041.65 559.43 888.96 676.22 923.23 781.11 1043.58 781.37
00029465 00000121 861.63 293.60 424.46 622.40 890.79 555.75 1041.81 559.34 889.06 676.33 922.99 780.91 1043.57 781.12
00029466 00000122 863.28 291.12 424.14 623.38 891.58 554.64 1043.92 559.18 890.32 676.38 922.56 780.84 1044.27 781.85
00029467 00000123 865.15 290.18 422.43 623.64 893.62 553.91 1045.96 560.05 892.39 676.63 923.37 780.19 1045.14 782.44
00029468 00000124 868.38 290.04 419.13 622.91 896.98 553.06 1048.07 560.79 894.56 676.00 924.47 779.70 1045.95 783.32
00029469 00000125 871.01 291.19 418.26 620.60 899.45 551.99 1050.50 560.86 896.27 675.48 925.20 778.48 1046.23 783.27
00029470 00000126 873.52 291.22 415.70 618.71 901.65 551.10 1053.50 561.12 899.39 675.66 926.30 777.49 1047.35 783.41
00029471 00000127 873.72 291.53 415.42 618.47 901.89 551.50 1053.69 561.17 899.83 675.50 926.41 777.39 1047.56 783.05
00029472 00000128 875.17 292.19 414.78 616.07 904.68 550.77 1056.66 561.98 903.11 674.54 928.11 775.96 1049.24 783.00
00029473 00000129 876.07 292.03 413.63 614.27 906.71 549.46 1059.50 563.13 905.79 675.51 929.00 774.12 1050.76 783.10
00029474 00000130 883.91 291.20 407.26 609.74 916.06 545.59 1056.13 565.92 916.09 673.81 934.21 757.15 1039.48 773.71
00029475 00000131 886.08 292.19 407.73 607.89 917.49 543.90 1058.08 565.15 917.89 674.03 935.23 757.16 1040.26 774.37
00029476 00000132 887.65 293.13 408.71 606.04 917.47 542.09 1061.87 563.53 920.26 673.71 935.29 757.57 1042.61 774.76
00029477 00000133 887.68 292.71 408.02 606.33 917.60 541.95 1061.97 563.72 920.50 673.54 935.19 757.20 1042.57 774.70
00029478 00000134 889.02 295.25 409.32 601.97 918.78 541.15 1065.04 563.91 923.07 673.72 935.72 757.39 1043.65 775.58
00029479 00000135 890.18 292.43 411.03 605.20 921.15 541.60 1067.44 565.10 925.64 673.19 937.27 757.95 1044.88 776.74
00029480 00000136 884.24 297.71 416.73 608.37 920.24 537.50 1077.40 563.25 920.34 670.20 942.99 757.39 1053.23 777.17
00029481 00000137 884.90 295.77 416.80 609.85 921.23 537.48 1081.69 564.07 923.98 670.12 942.66 757.92 1054.66 779.04
00029482 00000138 887.98 296.37 413.10 610.24 922.24 538.10 1086.01 564.96 926.72 671.01 941.30 759.25 1056.62 781.07
00029483 00000139 888.11 296.58 412.79 609.95 922.36 537.85 1086.00 564.83 926.75 671.18 941.40 759.21 1056.66 781.13
00029484 00000140 888.30 293.10 414.13 614.04 923.05 537.43 1088.74 565.64 928.22 672.12 941.11 759.39 1057.99 782.45
00029485 00000141 891.33 294.67 413.12 613.03 925.99 536.45 1093.04 564.69 931.38 671.25 941.86 759.79 1060.28 783.12
00029486 00000142 893.60 294.28 411.20 613.25 927.96 533.95 1097.55 564.61 934.22 670.40 941.37 757.79 1062.79 783.13
00029487 00000143 894.64 294.25 408.20 612.67 928.50 532.07 1100.35 564.66 936.31 670.45 940.86 755.91 1064.87 783.01
00029488 00000144 894.65 294.99 408.79 612.14 929.64 531.25 1103.14 564.73 938.81 670.20 940.54 755.23 1065.97 783.17
00029489 00000145 894.60 294.74 409.04 612.37 929.74 531.19 1103.13 564.94 938.67 670.44 940.87 755.13 1066.20 783.29
00029490 00000146 895.37 296.10 406.42 611.33 930.93 529.56 1105.89 564.77 940.52 670.15 939.94 755.06 1066.52 784.58
00029491 00000147 896.60 295.80 409.38 612.51 933.11 530.21 1109.27 564.88 941.75 670.21 942.14 756.47 1068.36 785.48
00029492 00000148 897.53 294.70 411.85 614.10 934.63 531.09 1112.76 565.21 943.73 669.95 942.58 757.11 1070.12 785.67
00029493 00000149 898.81 294.27 413.45 614.65 936.32 530.75 1115.18 565.53 945.80 670.28 944.33 756.55 1072.31 785.65
00029494 00000150 899.93 294.64 413.09 615.22 937.42 531.03 1117.36 565.37 947.38 670.23 945.31 757.47 1072.90 786.31
00029495 00000151 900.03 294.23 413.61 615.59 937.41 530.87 1117.58 565.00 947.59 670.41 945.59 758.00 1072.72 786.72
00029496 00000152 900.78 294.48 416.46 615.78 938.71 531.50 1120.10 565.11 949.44 670.39 946.66 759.23 1073.70 787.67
00029497 00000153 908.19 293.47 409.24 611.74 944.79 535.60 1110.44 557.98 959.11 668.26 955.38 762.32 1076.94 780.38
00029498 00000154 909.23 292.57 408.33 612.92 946.17 536.24 1112.16 558.69 961.14 668.51 956.57 762.87 1077.96 781.07
00029499 00000155 909.31 290.66 409.72 615.95 946.58 538.07 1114.08 559.02 963.69 669.08 957.40 765.02 1080.15 782.04
00029500 00000156 909.61 291.53 410.23 615.33 946.83 540.04 1115.25 560.74 965.46 671.69 957.98 766.56 1081.51 783.42
00029501 00000157 910.09 291.42 409.01 615.04 947.06 540.57 1115.26 560.60 966.10 672.03 958.48 767.02 1081.64 783.32
00029502 00000158 909.51 293.06 409.47 614.93 947.87 543.42 1116.92 563.70 968.66 674.90 959.73 769.16 1083.40 785.57
00029503 00000159 908.38 294.96 411.82 614.05 948.50 545.32 1118.59 565.62 971.05 677.72 960.90 771.69 1083.34 788.12
00029504 00000160 907.36 295.98 415.30 614.77 948.28 547.06 1120.12 567.27 973.15 679.60 960.98 773.78 1084.32 790.03
00029505 00000161 907.12 296.65 415.53 615.70 948.22 549.10 1120.19 568.64 973.96 680.88 960.56 775.55 1084.19 791.29
00029506 00000162 905.98 296.97 415.78 616.59 947.57 550.35 1120.08 570.18 973.80 682.34 960.04 776.39 1085.12 792.32
00029507 00000163 905.99 296.39 415.55 617.43 947.70 550.66 1119.88 570.22 973.93 682.32 960.38 776.74 1084.91 792.50
00029508 00000164 905.67 297.13 416.93 618.58 947.61 551.62 1120.44 571.97 973.62 683.80 960.67 777.91 1086.05 794.30
00029509 00000165 904.74 298.04 419.38 618.46 948.27 552.20 1122.11 574.24 975.61 686.32 961.92 777.73 1088.71 795.25
00029510 00000166 904.38 299.42 421.05 619.25 947.30 555.44 1121.26 574.45 973.73 686.82 963.65 779.74 1092.25 794.68
00029511 00000167 904.71 301.84 423.01 618.48 947.49 560.59 1122.61 575.73 976.03 686.71 965.25 781.94 1097.29 793.57
