Video ID: 	K56RfGy6yFw
H: 	1080
W: 	1920
FPS: 	23.976023976023978

FRAME INDEX X0 Y0 W H [Landmarks (5 Points)]

00002849 00000000 210.83 63.30 247.67 357.24
00002850 00000001 213.19 68.00 247.78 358.17
00002851 00000002 215.56 72.70 247.88 359.10
00002852 00000003 217.92 77.40 247.98 360.03
00002853 00000004 220.14 81.58 248.15 361.06
00002854 00000005 221.78 83.76 248.53 362.49
00002855 00000006 223.43 85.95 248.92 363.92
00002856 00000007 225.07 88.13 249.31 365.35
00002857 00000008 226.71 90.31 249.70 366.78
00002858 00000009 228.14 91.82 249.90 367.53
00002859 00000010 229.25 92.35 249.81 367.28
00002860 00000011 230.36 92.88 249.73 367.03
00002861 00000012 231.47 93.41 249.64 366.78
00002862 00000013 232.59 93.94 249.56 366.53
00002863 00000014 232.55 94.18 249.38 366.17
00002864 00000015 231.80 94.23 249.15 365.74
00002865 00000016 231.04 94.29 248.92 365.31
00002866 00000017 230.29 94.34 248.69 364.88
00002867 00000018 229.53 94.40 248.46 364.45
00002868 00000019 227.89 93.74 248.70 364.78
00002869 00000020 226.04 92.94 249.06 365.28
00002870 00000021 224.19 92.13 249.42 365.79
00002871 00000022 222.35 91.32 249.77 366.29
00002872 DELETE   220.44 90.46 250.12 366.78
00002873 DELETE   215.80 87.72 250.12 366.77
00002874 DELETE   211.17 84.98 250.13 366.77
00002875 00000026 206.54 82.24 250.13 366.76
00002876 DELETE   201.91 79.50 250.13 366.75
00002877 00000028 197.02 77.07 250.20 366.77
00002878 00000029 191.25 75.69 250.46 366.90
00002879 00000030 185.48 74.31 250.73 367.03
00002880 00000031 324.33 170.08 356.15 567.27 465.40 398.97 619.55 396.23 587.98 483.47 476.33 578.21 628.51 577.43
00002881 00000032 319.86 171.02 356.29 567.53 457.94 397.61 614.37 398.38 579.06 485.55 467.14 575.85 622.14 577.79
00002882 00000033 317.73 172.11 354.76 572.48 454.50 395.27 609.45 399.11 572.69 486.71 460.16 575.93 615.51 580.35
00002883 00000034 316.17 171.38 355.08 575.32 453.45 393.87 607.23 399.90 568.84 488.99 456.71 576.60 611.03 582.76
00002884 00000035 315.89 172.27 355.52 573.84 453.51 395.56 606.33 403.07 566.44 492.91 456.30 577.39 608.73 584.69
00002885 00000036 315.67 176.15 357.29 566.62 452.26 399.21 606.72 405.66 564.97 497.67 455.51 578.01 608.35 584.60
00002886 00000037 155.81 68.92 252.42 369.51
00002887 00000038 154.31 68.80 252.52 369.43
00002888 00000039 153.87 68.85 252.56 369.02
00002889 00000040 153.43 68.90 252.60 368.61
00002890 00000041 152.99 68.95 252.64 368.20
00002891 00000042 152.55 69.00 252.68 367.80
00002892 00000043 153.28 69.40 252.79 367.60
00002893 00000044 154.23 69.87 252.91 367.45
00002894 00000045 155.17 70.33 253.04 367.29
00002895 00000046 156.12 70.80 253.17 367.14
00002896 00000047 157.09 71.27 253.28 366.98
00002897 00000048 158.60 71.76 253.23 366.72
00002898 00000049 160.11 72.25 253.18 366.46
00002899 00000050 161.62 72.75 253.12 366.20
00002900 00000051 163.13 73.24 253.07 365.95
00002901 00000052 164.41 73.72 253.06 365.71
00002902 00000053 164.99 74.16 253.17 365.51
00002903 00000054 165.58 74.60 253.29 365.32
00002904 00000055 166.16 75.04 253.40 365.13
00002905 00000056 166.74 75.48 253.51 364.94
00002906 00000057 167.35 75.65 253.60 364.85
00002907 00000058 167.98 75.50 253.66 364.87
00002908 00000059 168.61 75.35 253.71 364.89
00002909 00000060 169.24 75.19 253.77 364.92
00002910 00000061 169.87 75.04 253.83 364.94
00002911 00000062 170.40 75.16 253.82 364.92
00002912 00000063 170.87 75.42 253.78 364.88
00002913 00000064 171.35 75.68 253.74 364.84
00002914 00000065 171.82 75.94 253.70 364.80
00002915 00000066 172.30 76.19 253.65 364.76
00002916 00000067 172.56 76.42 253.57 364.62
00002917 00000068 172.78 76.63 253.47 364.46
00002918 00000069 173.01 76.85 253.37 364.30
00002919 00000070 173.23 77.07 253.28 364.14
00002920 00000071 173.45 77.26 253.19 363.98
00002921 00000072 173.47 77.09 253.18 363.80
00002922 00000073 173.49 76.92 253.18 363.61
00002923 00000074 173.52 76.75 253.17 363.43
00002924 00000075 173.54 76.59 253.17 363.24
00002925 00000076 173.55 76.46 253.15 363.05
00002926 00000077 173.52 76.45 253.10 362.82
00002927 00000078 173.49 76.44 253.05 362.60
00002928 00000079 173.46 76.43 253.00 362.38
00002929 00000080 173.44 76.41 252.95 362.16
00002930 00000081 173.44 76.43 252.91 361.93
00002931 00000082 173.47 76.47 252.88 361.70
00002932 00000083 173.50 76.51 252.85 361.47
00002933 00000084 173.54 76.55 252.82 361.24
00002934 00000085 173.57 76.59 252.78 361.01
00002935 00000086 173.49 76.64 252.77 360.87
00002936 00000087 173.36 76.70 252.76 360.77
00002937 00000088 173.23 76.75 252.75 360.67
00002938 00000089 173.10 76.81 252.74 360.57
00002939 00000090 172.97 76.87 252.73 360.48
00002940 00000091 172.93 76.98 252.75 360.51
00002941 00000092 172.90 77.10 252.78 360.56
00002942 00000093 172.87 77.22 252.80 360.60
00002943 00000094 172.84 77.34 252.83 360.65
00002944 00000095 172.82 77.43 252.85 360.67
00002945 00000096 172.87 77.24 252.84 360.34
00002946 00000097 172.93 77.05 252.83 360.02
00002947 00000098 172.98 76.85 252.82 359.69
00002948 00000099 173.03 76.66 252.80 359.37
00002949 00000100 173.07 76.56 252.81 359.16
00002950 00000101 173.06 76.68 252.85 359.21
00002951 00000102 173.06 76.81 252.89 359.26
00002952 00000103 173.06 76.93 252.94 359.31
00002953 00000104 173.06 77.06 252.98 359.37
00002954 00000105 173.27 77.04 253.03 359.61
00002955 00000106 173.70 76.90 253.10 360.04
00002956 00000107 174.12 76.75 253.16 360.47
00002957 00000108 174.55 76.61 253.22 360.89
00002958 00000109 174.97 76.46 253.29 361.32
00002959 00000110 175.35 76.10 253.23 361.49
00002960 00000111 175.71 75.65 253.14 361.56
00002961 00000112 176.06 75.21 253.04 361.62
00002962 00000113 176.42 74.76 252.94 361.68
00002963 00000114 176.78 74.32 252.84 361.75
00002964 00000115 176.94 74.40 252.63 362.17
00002965 00000116 177.10 74.54 252.40 362.63
00002966 00000117 177.25 74.68 252.18 363.08
00002967 00000118 177.40 74.81 251.96 363.54
00002968 00000119 177.66 74.78 251.71 363.90
00002969 00000120 178.74 73.53 251.28 363.59
00002970 DELETE   179.82 72.27 250.85 363.27
00002971 DELETE   180.91 71.01 250.42 362.96
00002972 00000123 181.99 69.75 249.99 362.64
00002973 00000124 182.91 68.87 249.57 362.36
00002974 00000125 183.52 68.78 249.19 362.16
00002975 00000126 184.13 68.69 248.81 361.96
00002976 00000127 184.74 68.61 248.43 361.77
00002977 00000128 185.35 68.52 248.05 361.57
00002978 00000129 186.45 69.39 247.73 361.18
00002979 00000130 187.96 71.11 247.48 360.63
00002980 00000131 189.48 72.83 247.23 360.07
00002981 00000132 191.00 74.56 246.98 359.52
00002982 00000133 192.52 76.28 246.73 358.96
00002983 00000134 192.89 76.14 246.59 359.15
00002984 00000135 192.86 75.33 246.49 359.60
00002985 00000136 192.83 74.52 246.38 360.05
00002986 00000137 192.79 73.71 246.28 360.50
00002987 00000138 192.76 72.90 246.17 360.95
00002988 00000139 193.88 72.51 246.04 361.07
00002989 00000140 195.09 72.14 245.89 361.18
00002990 00000141 196.29 71.78 245.75 361.29
00002991 00000142 197.50 71.42 245.61 361.40
00002992 00000143 198.51 71.13 245.49 361.56
00002993 00000144 198.37 71.30 245.47 362.08
00002994 00000145 198.24 71.46 245.45 362.59
00002995 00000146 198.10 71.63 245.42 363.10
00002996 00000147 197.97 71.80 245.40 363.61
00002997 00000148 197.57 71.93 245.43 363.87
00002998 00000149 196.67 71.98 245.55 363.66
00002999 00000150 195.77 72.04 245.67 363.44
00003000 00000151 194.87 72.10 245.80 363.23
00003001 00000152 193.97 72.16 245.92 363.01
00003002 00000153 193.11 72.15 245.92 363.03
00003003 00000154 192.29 72.08 245.84 363.23
00003004 00000155 191.46 72.01 245.75 363.43
00003005 00000156 190.63 71.94 245.66 363.63
00003006 00000157 189.80 71.88 245.57 363.83
00003007 00000158 189.37 71.78 245.61 363.98
00003008 00000159 189.07 71.67 245.70 364.11
00003009 00000160 188.77 71.56 245.79 364.25
00003010 00000161 188.47 71.45 245.87 364.39
00003011 00000162 188.16 71.35 245.96 364.52
00003012 00000163 188.45 71.11 246.04 364.38
00003013 00000164 188.76 70.86 246.12 364.24
00003014 00000165 189.07 70.62 246.20 364.09
00003015 00000166 189.38 70.38 246.28 363.94
00003016 00000167 189.68 70.20 246.36 363.78
00003017 00000168 189.95 70.38 246.38 363.53
00003018 00000169 190.23 70.56 246.41 363.28
00003019 00000170 190.50 70.73 246.44 363.03
00003020 00000171 190.77 70.91 246.46 362.78
00003021 00000172 191.01 71.19 246.47 362.65
00003022 00000173 191.20 71.63 246.43 362.72
00003023 00000174 191.39 72.08 246.39 362.80
00003024 00000175 191.58 72.53 246.35 362.87
00003025 00000176 191.77 72.97 246.32 362.95
00003026 00000177 192.07 73.15 246.37 362.87
00003027 00000178 192.45 73.15 246.50 362.69
00003028 00000179 192.83 73.14 246.62 362.50
00003029 00000180 193.21 73.13 246.74 362.31
00003030 00000181 193.59 73.12 246.87 362.13
00003031 00000182 194.07 73.19 246.79 362.46
00003032 00000183 194.58 73.28 246.66 362.93
00003033 00000184 195.09 73.37 246.53 363.40
00003034 00000185 195.60 73.45 246.41 363.88
CROP_BBOX: 94 0 901 862
