Video ID: 	i1lp5weUUGc
H: 	1080
W: 	1920
FPS: 	25.0

FRAME INDEX X0 Y0 W H [Landmarks (5 Points)]

00015330 00000000 352.53 166.54 339.65 487.37 523.89 379.37 654.71 364.59 642.15 450.80 549.27 538.78 657.05 528.97
00015331 00000001 361.10 166.28 324.92 488.35 525.67 384.03 656.57 367.96 641.06 453.03 548.32 541.86 654.11 531.98
00015332 00000002 361.90 163.85 325.23 492.62 530.43 383.22 659.10 368.76 647.62 452.81 552.04 543.95 656.26 535.83
00015333 00000003 363.65 163.09 324.66 496.31 534.28 387.91 660.80 371.21 651.30 455.85 554.80 547.90 656.43 538.62
00015334 00000004 368.27 167.50 322.16 491.26 537.17 393.56 663.24 372.26 655.58 457.16 561.65 550.41 662.34 537.74
00015335 00000005 368.71 168.61 324.03 495.78 540.83 397.85 663.68 373.08 660.45 457.83 566.09 552.62 665.23 537.67
00015336 DELETE   370.02 173.03 323.79 491.47 543.53 401.48 664.37 373.48 664.61 460.05 568.06 553.55 666.30 536.28
00015337 00000007 366.79 175.01 333.06 488.51 544.67 402.71 666.48 375.31 665.86 463.47 569.93 554.36 670.32 536.68
00015338 DELETE   365.98 175.05 333.46 492.36 543.96 403.18 665.51 375.28 666.18 464.83 567.98 555.46 668.96 537.35
00015339 00000009 363.50 175.66 333.04 494.62 541.09 402.88 662.35 376.69 662.54 466.21 565.71 557.23 665.36 540.50
00015340 DELETE   361.19 177.61 335.81 499.80 537.82 402.36 660.90 379.53 656.04 467.40 561.98 558.51 663.23 543.99
00015341 00000011 360.96 178.19 335.81 501.49 535.57 402.32 659.85 381.40 650.74 468.88 557.12 557.97 660.01 544.63
00015342 00000012 361.27 180.09 336.32 495.63 531.27 400.33 658.65 382.41 645.39 465.95 555.17 555.28 660.16 543.80
00015343 00000013 359.37 179.36 339.06 496.59 527.73 397.73 656.28 381.36 640.30 464.30 554.86 554.28 659.08 543.68
00015344 00000014 356.94 181.72 339.35 495.63 524.06 392.57 654.77 380.23 636.07 462.14 548.35 552.20 656.19 544.23
00015345 00000015 353.68 185.22 339.64 493.85 519.51 389.68 652.11 379.54 631.04 462.61 540.57 552.39 650.94 546.01
00015346 00000016 349.54 185.78 343.56 487.99 514.98 385.70 649.58 376.64 625.45 462.55 536.46 549.24 646.62 543.59
00015347 00000017 345.01 181.59 348.71 489.54 511.15 382.36 647.76 375.75 619.84 461.19 530.04 546.09 641.31 542.36
00015348 00000018 343.27 182.56 348.55 499.63 509.70 374.41 647.99 371.45 615.54 460.90 530.29 544.80 637.75 542.60
00015349 00000019 344.64 182.70 347.01 494.42 514.48 372.22 651.80 367.61 619.97 455.77 530.42 543.82 632.08 543.69
00015350 00000020 344.61 176.16 346.94 500.97 516.55 372.61 652.78 366.28 622.44 454.14 533.40 544.56 633.96 542.86
00015351 00000021 345.77 172.60 346.00 504.12 518.28 373.29 654.56 364.87 624.50 451.81 535.38 544.13 636.55 540.69
00015352 00000022 346.52 168.51 345.63 510.36 520.03 373.52 655.86 363.16 627.95 449.58 537.32 544.28 638.76 539.27
00015353 00000023 347.33 166.83 343.06 511.45 521.93 373.28 656.22 361.00 630.81 449.58 538.34 543.35 639.65 536.98
00015354 00000024 346.38 166.90 339.31 510.92 520.43 372.18 653.55 361.39 632.35 445.57 538.51 545.96 636.44 540.93
00015355 00000025 346.28 169.20 337.21 519.15 521.43 368.38 652.42 361.55 637.54 443.75 533.17 548.22 634.67 546.17
00015356 00000026 347.01 173.67 337.91 517.82 515.97 367.46 641.46 368.26 632.16 449.95 537.84 540.59 643.58 542.09
00015357 00000027 357.64 163.38 328.67 513.48 528.67 380.33 654.46 368.19 647.06 451.60 544.64 546.18 648.63 539.35
00015358 00000028 360.84 165.00 326.98 503.24 531.18 385.05 657.67 369.58 649.35 453.67 548.68 542.60 655.03 533.36
00015359 00000029 360.27 169.49 334.77 492.95 535.10 386.68 659.20 370.36 653.19 453.43 558.72 543.32 662.62 533.34
00015360 00000030 361.98 169.88 333.27 495.80 537.71 388.68 659.71 371.56 653.87 455.34 560.93 546.04 661.90 535.54
00015361 00000031 360.30 172.09 335.96 500.99 537.36 389.67 659.42 374.92 652.80 458.44 558.50 551.13 659.33 542.53
00015362 00000032 359.58 170.49 337.42 509.77 537.10 390.09 660.04 377.00 650.75 463.05 554.30 555.38 656.33 547.93
00015363 00000033 359.74 172.73 339.03 508.44 535.95 389.89 660.54 380.43 648.11 464.00 551.06 555.90 655.07 550.96
00015364 00000034 364.44 180.11 335.45 508.61 534.00 387.71 657.69 382.18 644.53 464.46 551.94 552.61 653.76 549.58
00015365 00000035 364.17 182.82 337.65 511.44 534.52 391.35 659.17 386.24 644.78 468.55 549.65 555.38 653.70 552.61
00015366 00000036 363.91 183.64 340.14 513.64 533.80 393.46 661.09 389.40 645.90 471.20 547.62 558.36 653.92 556.50
00015367 00000037 363.93 188.20 340.18 514.67 534.95 394.52 661.97 392.27 646.57 472.93 546.11 560.00 654.03 559.74
00015368 00000038 366.20 190.31 339.10 508.49 535.54 395.83 664.37 392.38 647.95 475.18 547.79 561.00 655.45 559.79
00015369 00000039 367.42 190.47 338.72 507.22 535.36 396.10 665.93 393.00 648.22 476.17 548.48 562.27 656.32 561.36
00015370 00000040 367.88 191.21 338.86 504.60 535.51 397.44 666.25 393.99 648.40 477.36 548.81 562.51 656.92 561.42
00015371 00000041 361.75 189.58 344.65 495.24 539.01 401.11 668.54 392.38 652.95 480.52 549.54 562.80 659.86 557.70
00015372 00000042 361.14 191.29 345.71 492.96 539.02 403.10 669.27 392.47 654.07 483.09 550.93 563.87 661.39 557.27
00015373 00000043 362.25 192.80 345.22 491.24 539.22 403.56 668.95 393.39 653.05 483.55 552.25 564.28 661.39 557.91
00015374 00000044 362.11 194.13 344.46 490.54 538.48 404.29 668.56 392.86 653.01 485.44 552.39 566.24 661.10 558.90
00015375 00000045 361.74 195.63 344.62 491.47 538.85 403.94 668.54 393.24 652.41 486.00 549.86 565.33 660.01 558.38
00015376 00000046 362.99 197.05 342.48 489.86 538.42 402.93 667.65 392.63 651.09 485.88 547.15 564.41 657.94 557.77
00015377 00000047 361.80 195.25 342.55 495.52 537.03 402.98 666.99 393.60 650.97 485.09 543.75 564.43 657.38 558.62
00015378 00000048 361.40 194.99 341.63 492.95 534.78 402.53 666.12 393.42 649.27 484.35 542.67 563.33 657.43 557.65
00015379 00000049 359.74 192.43 342.01 496.76 533.63 400.68 664.35 391.98 646.55 482.84 543.31 563.75 655.88 558.22
00015380 00000050 358.09 189.96 342.15 501.63 532.09 399.12 661.88 390.51 644.06 479.65 544.31 565.56 653.87 560.28
00015381 00000051 357.00 188.43 342.97 500.56 531.03 397.37 661.25 389.39 642.75 478.85 544.80 564.84 652.63 560.11
00015382 00000052 358.21 186.79 341.15 500.77 531.37 394.84 660.64 387.20 642.71 475.31 548.35 562.63 654.15 558.09
00015383 00000053 357.16 183.51 340.09 500.98 531.45 391.53 658.36 384.09 642.73 471.96 552.67 561.01 653.94 556.66
00015384 00000054 357.30 182.72 339.87 499.69 530.77 390.45 658.41 383.35 642.66 470.59 551.64 559.41 654.48 555.35
00015385 00000055 358.29 182.77 340.66 495.50 530.24 389.29 660.96 381.99 643.11 470.50 545.60 556.14 654.93 551.94
00015386 00000056 358.62 183.17 342.02 495.36 529.90 388.06 661.92 380.85 642.08 469.08 544.31 554.73 654.84 550.53
00015387 00000057 357.65 184.55 341.77 501.94 529.55 387.67 660.51 380.92 640.84 469.31 542.59 557.33 652.73 553.53
00015388 00000058 357.98 184.88 341.73 501.22 530.32 388.59 660.55 382.29 640.87 469.65 542.89 557.12 652.41 553.62
00015389 00000059 358.75 184.55 341.32 499.59 530.89 389.47 661.37 382.74 641.50 471.11 543.07 557.22 652.75 553.37
00015390 00000060 360.14 185.73 340.76 496.37 531.86 390.54 661.96 383.62 642.43 471.74 544.58 557.00 653.48 552.97
00015391 00000061 360.13 185.44 341.48 496.96 532.53 390.75 662.21 383.59 643.41 471.54 546.12 557.07 654.56 552.87
00015392 00000062 360.23 185.63 341.61 498.04 533.20 390.43 662.42 383.49 643.84 471.54 546.55 557.02 654.86 552.96
00015393 00000063 360.56 187.19 342.25 496.33 533.39 390.43 663.14 384.40 643.50 471.39 545.90 556.64 655.24 553.19
00015394 00000064 361.64 186.95 341.55 495.55 533.48 390.50 663.08 384.55 642.94 470.98 546.91 556.80 655.14 553.33
00015395 00000065 365.07 186.87 339.53 503.69 532.16 388.28 663.38 385.43 640.05 471.90 548.17 557.59 653.75 556.62
00015396 00000066 361.31 186.44 340.13 500.81 533.10 390.87 662.28 385.82 642.83 472.69 545.73 560.20 653.36 557.49
00015397 00000067 360.57 185.82 341.16 497.99 532.63 390.61 662.44 385.13 642.16 472.74 545.06 558.70 652.61 555.71
00015398 00000068 359.58 187.09 343.10 491.96 531.38 390.49 663.20 384.57 642.00 471.86 542.64 555.09 653.13 551.70
00015399 00000069 359.67 186.85 342.54 491.51 530.74 390.90 663.48 384.27 642.34 471.45 542.00 554.06 654.84 550.07
00015400 00000070 359.59 187.99 342.94 503.34 527.59 387.84 657.87 387.40 635.73 468.17 541.02 551.15 649.99 552.15
00015401 00000071 358.28 186.36 340.32 501.98 528.72 388.13 659.81 383.28 639.14 468.44 539.90 556.85 651.23 554.35
00015402 00000072 356.94 185.12 340.82 502.03 527.16 387.36 659.32 382.37 638.19 467.25 538.16 556.21 650.69 553.77
00015403 00000073 354.58 181.67 342.96 501.10 526.11 385.50 659.36 380.31 638.17 465.02 538.32 554.51 651.17 552.09
00015404 00000074 354.66 180.24 343.76 494.53 526.33 383.79 658.97 377.30 639.94 462.11 542.66 551.10 653.60 547.67
00015405 00000075 355.64 176.03 342.34 494.92 527.22 381.93 657.79 374.03 641.86 458.67 550.90 549.65 655.95 545.08
00015406 00000076 356.34 173.72 341.08 498.58 528.63 380.19 656.34 372.40 641.89 456.19 554.99 549.34 655.82 544.77
00015407 00000077 355.22 172.95 341.98 502.25 528.23 379.17 656.29 371.42 641.80 455.64 553.68 550.47 654.55 546.07
00015408 00000078 355.29 175.43 340.94 506.15 522.75 371.57 651.99 369.03 634.18 453.97 550.09 546.83 648.92 545.52
00015409 00000079 353.33 177.52 343.13 499.17 520.48 376.28 652.20 373.04 634.00 456.53 544.28 545.32 649.57 543.93
00015410 00000080 351.57 178.82 348.68 495.24 522.44 383.05 658.23 374.09 636.87 460.91 537.52 547.53 653.47 542.16
00015411 00000081 353.91 179.77 346.97 497.81 521.19 378.19 656.95 374.94 637.00 457.56 542.02 542.86 654.90 541.56
00015412 00000082 355.88 177.74 346.92 501.47 523.39 376.51 658.18 373.70 638.17 457.09 544.68 543.24 655.65 541.91
00015413 00000083 359.04 177.65 345.06 500.32 524.43 375.73 660.23 372.50 639.14 457.14 545.66 543.38 657.06 541.68
00015414 00000084 362.16 180.29 342.65 497.30 525.10 376.22 661.15 373.17 638.70 457.23 546.09 543.29 657.15 541.69
00015415 00000085 359.53 177.80 344.37 492.48 529.78 380.19 661.48 373.05 640.51 457.78 544.59 545.38 654.69 541.19
00015416 00000086 361.48 179.39 340.09 497.97 527.64 370.32 657.78 372.09 636.57 453.68 543.91 539.50 650.75 542.03
00015417 00000087 360.56 180.34 341.22 496.81 527.16 369.72 657.76 372.11 637.21 453.62 543.15 539.37 651.23 542.43
00015418 00000088 358.75 174.15 344.76 498.28 530.95 377.51 662.41 372.01 642.23 456.51 541.88 544.39 654.68 541.51
00015419 00000089 359.98 176.17 345.43 496.72 531.99 379.87 664.64 372.56 644.34 458.40 543.69 544.92 657.94 540.49
00015420 00000090 362.43 176.85 344.10 494.70 533.62 382.75 665.83 373.46 645.00 460.19 544.92 545.27 658.71 539.39
00015421 00000091 370.93 176.27 338.67 503.64 529.90 372.89 667.66 370.16 641.92 458.38 546.98 545.07 659.98 543.83
00015422 00000092 376.23 180.16 338.82 500.41 531.92 373.78 673.16 371.03 643.77 461.25 546.94 546.01 663.67 545.20
00015423 00000093 378.71 184.18 337.77 498.32 535.40 376.10 674.44 376.02 645.52 460.94 545.62 544.69 662.91 546.57
00015424 00000094 379.53 182.51 339.54 498.67 537.63 376.38 678.24 378.80 649.32 458.73 547.96 543.98 665.07 548.05
00015425 00000095 383.59 180.52 336.06 498.73 540.27 372.97 680.23 377.41 652.63 456.27 550.73 544.22 664.93 550.04
00015426 00000096 385.02 179.49 336.42 499.47 540.91 372.43 680.95 377.65 654.11 454.98 553.20 545.31 665.92 551.75
00015427 00000097 385.35 178.12 336.38 499.82 541.80 370.33 681.79 375.67 654.16 453.13 552.93 542.86 666.96 549.43
00015428 00000098 385.21 178.66 337.05 499.21 540.32 367.58 681.53 374.92 651.44 450.40 550.72 541.26 665.43 549.34
00015429 00000099 386.39 179.01 337.52 496.82 539.70 368.12 684.16 375.33 653.18 452.04 550.72 541.67 667.77 549.71
00015430 00000100 388.69 178.41 338.39 502.47 544.30 369.03 688.68 377.12 658.21 453.42 552.59 543.26 672.12 552.05
00015431 00000101 392.96 182.57 335.65 503.14 554.84 372.70 693.68 382.95 664.54 456.53 558.92 545.28 675.83 555.95
00015432 00000102 391.72 176.29 337.17 504.86 565.26 376.97 690.02 381.54 672.10 457.78 570.46 548.94 676.61 553.80
00015433 00000103 393.19 177.42 338.16 502.44 566.93 376.14 692.57 381.68 673.77 457.69 571.42 547.66 678.55 553.20
00015434 00000104 390.72 177.58 341.19 497.88 562.82 374.55 691.07 381.67 669.46 457.77 566.81 545.84 675.35 552.40
00015435 00000105 388.31 175.53 344.47 489.73 560.87 374.65 693.47 381.62 673.38 457.36 563.30 539.23 680.70 545.55
00015436 00000106 393.96 180.13 342.81 484.88 569.22 376.53 700.27 383.57 681.95 458.95 572.64 537.41 689.69 543.46
00015437 00000107 397.12 180.06 342.72 489.20 575.46 375.80 704.76 383.67 686.42 459.06 581.28 540.34 693.05 546.96
00015438 00000108 395.21 178.23 344.47 493.94 572.29 371.95 702.57 383.73 682.53 456.21 572.44 538.38 687.37 548.13
00015439 00000109 400.67 184.99 335.64 503.87 570.55 366.86 706.94 386.30 679.21 451.94 564.76 538.27 686.63 556.50
00015440 00000110 403.65 182.65 334.15 508.37 578.55 366.71 711.57 383.44 689.24 454.67 573.36 541.60 693.10 557.67
00015441 00000111 402.40 168.35 335.90 516.61 587.22 367.10 707.06 377.00 691.02 450.18 589.15 544.43 686.97 556.56
00015442 00000112 400.25 168.59 336.48 513.36 585.18 365.92 704.18 375.08 685.73 448.63 586.95 540.77 683.59 552.22
00015443 00000113 402.67 179.93 333.68 505.49 575.99 362.81 709.10 379.96 684.93 450.29 571.58 538.18 689.37 554.53
00015444 00000114 402.01 177.73 334.16 506.56 574.63 361.60 708.54 377.44 685.37 449.20 571.74 538.29 689.20 553.47
00015445 00000115 398.81 165.77 335.41 512.10 583.78 361.44 699.75 371.26 685.67 443.06 585.85 535.91 680.67 547.88
00015446 00000116 401.22 161.70 332.39 516.88 583.64 360.46 699.29 371.05 686.34 440.37 585.95 535.72 680.51 548.30
00015447 00000117 402.91 167.44 334.65 514.58 576.51 357.67 704.92 373.13 685.74 444.00 573.11 535.69 685.80 550.69
00015448 00000118 400.10 166.33 335.15 516.46 570.66 357.70 702.04 372.57 682.75 442.77 569.72 536.36 684.51 550.81
00015449 00000119 403.46 172.84 333.13 507.79 577.88 358.30 706.57 373.43 689.08 445.58 576.45 536.72 687.78 551.44
00015450 00000120 398.43 162.09 333.80 516.74 581.86 359.60 698.28 371.33 686.80 438.06 585.88 535.01 682.72 548.32
00015451 00000121 404.09 169.24 332.42 514.10 579.98 356.15 706.89 374.14 689.57 443.23 576.71 535.88 686.75 553.14
00015452 00000122 399.81 160.96 334.64 521.88 570.49 353.09 700.24 369.62 683.14 437.94 570.65 533.90 683.28 549.76
00015453 00000123 400.45 159.06 335.00 523.91 570.62 351.90 702.03 367.00 684.49 436.49 572.39 534.19 686.12 548.62
00015454 00000124 405.04 158.34 333.13 524.86 577.42 352.04 707.27 369.29 691.82 437.79 578.96 535.54 690.41 551.76
00015455 00000125 405.73 157.21 332.21 524.14 577.69 351.05 706.87 369.03 689.82 437.69 577.90 534.57 688.05 551.45
00015456 00000126 392.47 152.42 337.84 522.61 565.81 351.06 702.82 368.29 681.75 428.07 568.39 525.83 687.11 540.52
00015457 00000127 386.56 148.46 341.49 521.19 557.71 346.46 698.07 362.90 674.32 423.17 563.75 520.24 685.56 534.52
00015458 00000128 393.59 145.84 332.47 500.47 565.86 348.27 690.39 351.68 677.32 419.46 583.85 517.27 683.28 520.91
00015459 DELETE   397.81 139.66 332.29 508.74 578.66 345.32 697.61 347.23 692.05 416.63 595.98 516.41 692.11 519.32
00015460 00000130 399.36 137.75 333.39 516.03 587.33 346.75 700.93 348.79 700.73 416.08 604.03 518.42 696.35 521.85
00015461 DELETE   392.80 140.82 335.81 532.32 575.23 342.98 704.39 358.34 693.87 417.41 586.15 521.16 698.22 534.65
00015462 DELETE   387.96 143.93 335.74 510.64 563.60 348.55 687.55 354.31 675.58 421.05 582.27 521.71 678.83 526.74
00015463 00000133 375.66 145.97 342.74 526.90 546.68 345.11 686.88 362.09 662.63 419.03 556.16 517.35 674.91 532.04
00015464 00000134 369.95 151.23 345.96 518.68 540.13 350.78 682.83 368.53 654.67 425.77 547.95 519.58 664.72 534.83
00015465 00000135 368.69 155.49 347.04 510.91 540.08 357.89 682.18 368.28 656.15 433.84 548.00 521.46 664.61 530.89
00015466 00000136 371.57 156.80 347.50 510.49 543.44 364.12 684.31 370.78 661.89 436.26 551.42 522.99 670.99 529.31
00015467 DELETE   382.33 162.31 336.84 500.02 556.20 370.02 686.64 372.84 668.68 449.63 561.94 535.73 673.79 539.43
00015468 00000138 390.03 163.16 329.76 502.10 564.52 374.85 688.16 374.59 676.53 452.21 572.55 540.78 678.40 542.71
00015469 00000139 388.65 164.14 331.33 502.74 563.02 374.21 688.38 374.38 675.15 453.11 570.26 541.58 677.78 543.69
00015470 00000140 382.87 162.53 335.99 506.72 556.72 370.97 685.45 373.26 667.02 451.18 561.73 539.44 671.02 542.85
00015471 00000141 382.06 165.00 338.50 509.80 543.86 361.72 684.55 369.55 659.88 444.83 556.56 536.05 672.58 544.46
00015472 00000142 381.41 163.73 338.22 511.35 541.92 363.46 682.61 369.79 658.73 445.40 556.47 538.10 671.12 545.14
00015473 00000143 385.91 167.58 335.06 509.31 547.95 367.86 685.72 374.04 665.45 447.35 562.18 540.60 675.43 547.67
00015474 00000144 387.59 162.23 330.36 508.92 560.22 373.77 684.70 373.88 670.77 451.71 570.71 543.16 673.44 544.86
CROP_BBOX: 145 0 937 815
