Video ID: 	gFrLX3UMrC0
H: 	1080
W: 	1920
FPS: 	25.0

FRAME INDEX X0 Y0 W H [Landmarks (5 Points)]

00001682 00000000 498.31 98.05 468.79 663.31 668.66 398.67 875.24 365.82 818.23 506.24 719.78 615.02 888.23 588.80
00001683 00000001 495.30 96.70 468.88 661.99 665.45 395.63 872.90 364.91 814.85 499.96 715.31 609.34 886.76 584.59
00001684 00000002 492.12 96.94 468.40 661.71 662.92 398.08 867.20 367.09 811.10 498.05 714.31 609.21 882.68 584.32
00001685 00000003 489.98 105.52 465.74 659.52 658.86 400.99 862.16 369.34 807.85 501.84 712.75 614.00 878.71 588.64
00001686 00000004 487.21 106.27 464.11 667.33 651.75 408.73 858.02 373.69 801.27 506.28 706.15 620.82 876.01 592.31
00001687 00000005 481.80 107.97 468.25 671.53 647.07 418.28 858.28 380.13 798.89 517.81 702.63 629.34 875.04 598.05
00001688 00000006 478.72 113.78 469.65 673.39 644.48 427.28 856.08 387.67 796.94 526.54 701.09 637.48 873.29 605.10
00001689 DELETE   475.69 124.60 474.52 670.23 649.52 433.31 847.77 401.83 793.51 537.77 699.72 645.03 868.29 618.43
00001690 DELETE   478.19 132.91 473.56 671.72 650.70 441.02 851.36 410.02 796.14 547.77 705.46 657.75 870.08 632.09
00001691 00000009 483.49 145.15 469.51 678.90 650.85 453.80 854.43 419.21 797.53 559.72 708.42 673.81 871.55 645.99
00001692 DELETE   486.75 157.54 467.39 673.37 651.96 465.64 858.78 428.82 800.84 572.73 709.76 682.90 875.44 653.61
00001693 00000011 491.86 164.66 466.76 670.29 657.54 474.07 865.38 434.83 808.05 583.76 715.51 691.13 881.12 659.69
00001694 00000012 495.11 174.90 466.99 666.54 663.59 478.14 869.57 439.12 814.27 586.09 723.03 696.54 884.51 665.21
00001695 DELETE   494.73 184.33 471.03 663.10 669.76 481.69 871.94 440.16 821.40 587.60 733.04 701.93 888.83 668.52
00001696 00000014 496.25 185.88 471.37 663.93 675.83 478.64 871.98 442.58 826.25 588.33 737.15 706.15 892.98 674.24
00001697 00000015 500.12 187.20 469.36 664.68 681.82 476.40 876.75 443.56 830.63 589.37 741.25 706.79 893.98 677.50
00001698 00000016 503.41 181.23 469.81 670.26 685.65 475.99 881.34 442.83 835.16 588.15 745.23 706.74 896.99 677.15
00001699 00000017 507.79 181.37 469.81 670.32 690.66 475.72 885.28 442.18 839.89 586.85 749.21 707.17 899.19 677.38
00001700 00000018 512.44 180.80 469.60 668.78 696.72 474.20 895.11 441.58 847.61 587.89 750.81 705.31 905.39 676.29
00001701 00000019 515.72 169.93 471.65 676.36 699.31 471.89 901.07 439.22 850.81 585.39 753.47 703.78 911.35 674.48
00001702 00000020 524.56 181.53 466.23 664.68 703.62 470.02 907.20 438.21 856.16 582.53 756.54 702.22 917.40 673.76
00001703 00000021 531.35 177.72 466.93 665.84 710.65 468.45 913.51 438.11 860.83 579.47 763.65 701.40 923.24 674.00
00001704 00000022 533.39 176.84 469.01 665.83 714.79 466.99 918.83 437.40 866.87 577.80 769.10 702.59 928.84 675.53
00001705 00000023 542.83 163.99 463.64 682.97 716.46 468.73 923.92 442.05 867.04 577.86 768.64 692.45 930.92 670.93
00001706 00000024 545.21 162.53 461.77 681.91 718.25 465.70 923.97 441.08 866.01 574.57 767.79 688.46 929.37 668.77
00001707 00000025 546.94 167.37 460.50 675.14 721.10 464.63 925.04 440.84 868.10 572.42 770.39 687.54 928.58 668.70
00001708 00000026 548.41 165.81 459.99 677.58 723.06 462.86 926.42 439.78 869.22 572.79 771.30 687.55 929.15 669.25
00001709 00000027 547.58 164.83 460.64 678.52 724.40 463.02 927.14 440.11 870.17 573.09 771.59 687.21 928.69 669.05
00001710 00000028 547.91 164.13 462.20 678.68 725.84 464.87 930.07 440.88 872.37 575.64 772.92 688.61 930.08 669.63
00001711 00000029 549.97 164.11 462.57 679.67 729.72 465.68 932.25 442.23 875.46 576.53 775.09 688.84 931.82 670.35
00001712 00000030 551.94 166.24 460.71 678.47 731.84 466.81 933.22 442.88 877.93 577.05 777.22 690.13 933.43 671.24
00001713 00000031 550.72 171.20 462.80 675.80 732.91 467.39 933.87 444.22 879.34 579.25 778.37 692.14 933.24 673.87
00001714 00000032 550.92 172.56 463.63 675.20 733.46 468.93 934.77 445.73 880.15 581.29 779.30 693.88 934.30 675.54
00001715 00000033 552.80 174.22 463.05 674.79 735.42 469.08 936.46 445.40 882.22 583.34 781.07 695.51 935.99 676.81
00001716 00000034 553.27 174.61 462.67 674.65 736.94 470.26 937.22 446.46 883.37 584.73 782.24 696.34 936.57 677.54
00001717 00000035 552.63 177.74 463.21 672.35 736.74 470.90 937.28 446.64 884.29 585.50 783.20 697.34 937.14 678.22
00001718 00000036 554.00 177.08 462.38 672.44 736.97 471.07 937.55 446.57 883.75 586.00 783.05 697.28 937.20 678.02
00001719 00000037 555.01 177.56 462.58 671.41 738.05 471.26 938.30 447.14 884.56 585.96 784.13 697.27 938.12 678.30
00001720 00000038 555.51 176.47 463.25 672.32 738.40 471.52 939.11 446.63 885.54 586.59 784.85 697.93 939.62 678.27
00001721 00000039 555.23 173.64 462.66 673.53 737.85 472.99 938.88 447.43 885.07 587.24 783.81 697.24 939.22 677.06
00001722 00000040 556.10 174.55 462.64 671.98 738.58 473.81 939.39 447.58 886.12 587.65 785.78 698.07 940.70 677.35
00001723 00000041 557.20 177.30 462.54 669.64 740.36 475.32 941.12 448.60 888.33 589.08 787.58 699.33 942.49 678.11
00001724 00000042 557.07 178.21 463.46 668.87 740.09 477.80 941.16 449.56 888.65 591.69 787.53 700.78 943.23 678.20
00001725 00000043 556.03 179.44 463.86 665.53 738.58 481.14 940.82 450.99 888.29 593.96 786.11 701.67 942.57 677.64
00001726 00000044 556.05 179.97 464.20 665.21 737.75 481.35 940.85 450.84 887.94 594.64 784.84 701.18 943.09 676.87
00001727 00000045 556.96 178.41 463.94 666.33 737.35 482.20 941.45 450.87 887.84 594.95 785.32 700.95 944.87 675.93
00001728 00000046 557.38 177.77 464.66 668.42 738.28 482.72 942.63 451.49 888.13 597.13 784.50 701.42 945.48 676.43
00001729 00000047 557.12 179.11 465.42 666.08 738.99 484.47 943.57 453.00 889.55 597.20 784.59 701.35 946.25 676.15
00001730 00000048 556.90 178.27 465.75 664.51 739.78 484.68 944.10 453.14 890.27 597.12 785.98 700.96 946.73 675.71
00001731 00000049 556.04 179.68 466.18 662.54 739.07 484.83 943.88 453.59 889.90 597.91 786.59 701.65 946.33 676.70
00001732 00000050 557.05 181.83 465.55 663.50 739.95 484.29 944.05 453.20 891.39 597.15 789.32 704.05 946.98 679.21
00001733 00000051 557.32 184.51 465.48 668.30 741.93 483.37 943.50 452.77 892.84 595.66 793.33 707.36 947.51 682.82
00001734 00000052 558.81 185.16 464.71 671.27 744.50 482.52 944.97 453.28 894.26 595.92 796.43 709.84 947.81 686.35
00001735 00000053 560.31 186.56 463.29 667.18 743.81 484.30 946.22 454.87 894.49 597.36 794.25 709.32 949.02 685.58
00001736 00000054 561.45 190.47 465.74 662.87 746.52 485.25 948.91 456.68 896.27 599.88 796.23 710.27 950.88 687.19
00001737 00000055 561.94 192.81 465.97 660.81 746.97 485.86 950.88 457.01 897.96 600.41 796.61 711.97 952.32 688.65
00001738 00000056 563.20 195.82 466.94 658.44 748.97 486.18 952.38 457.72 899.84 600.25 799.11 712.89 954.34 689.82
00001739 00000057 562.74 195.24 467.84 661.42 750.06 485.29 952.80 457.11 900.58 599.78 800.97 713.64 954.54 690.87
00001740 00000058 563.79 194.45 466.30 664.10 750.60 484.71 952.62 457.12 900.41 599.47 801.56 714.61 953.53 692.36
00001741 00000059 564.15 194.70 465.38 662.81 751.39 485.65 953.14 458.32 900.89 600.69 802.03 715.09 953.68 692.98
00001742 00000060 564.99 193.30 464.15 660.82 749.87 488.96 952.40 460.13 899.35 603.35 800.18 714.44 953.59 690.98
00001743 00000061 561.72 194.17 465.39 659.23 744.52 492.49 951.79 461.87 897.32 606.23 796.18 716.99 953.60 692.12
00001744 00000062 562.39 199.41 465.93 651.81 743.66 498.40 952.90 467.15 896.89 611.72 793.12 717.99 953.53 692.57
00001745 00000063 562.39 193.82 465.07 657.02 742.17 501.47 952.82 470.10 895.87 614.23 788.73 716.95 952.98 691.43
00001746 00000064 564.29 194.72 464.80 655.79 742.45 502.83 953.13 471.53 894.83 615.05 787.33 715.93 953.40 690.36
00001747 00000065 565.33 192.09 465.15 657.30 742.71 503.88 952.90 472.38 894.71 615.88 786.47 713.89 954.55 688.07
00001748 00000066 566.16 195.29 464.75 660.55 743.03 502.16 952.69 473.07 894.20 614.56 785.14 714.66 955.00 690.63
00001749 00000067 559.03 200.24 468.41 669.64 749.52 499.53 942.86 477.06 894.40 615.77 786.17 718.53 949.06 699.80
00001750 00000068 559.51 204.50 468.10 665.53 747.26 503.40 943.03 479.28 893.38 621.29 780.25 720.47 947.01 701.09
00001751 00000069 558.54 204.00 468.81 665.91 746.77 504.55 942.26 479.36 893.16 621.92 779.19 721.12 945.88 700.98
00001752 00000070 558.19 201.15 469.09 668.04 746.46 505.13 942.41 479.58 893.20 622.97 778.69 720.54 946.36 700.01
00001753 00000071 557.71 203.96 469.65 665.70 745.52 504.74 942.43 478.76 893.12 623.33 777.95 721.68 946.19 700.99
00001754 00000072 557.56 205.24 468.80 665.68 745.54 503.96 941.65 478.72 892.43 622.64 779.16 722.53 945.52 702.42
00001755 00000073 558.05 204.64 466.57 665.84 744.99 503.61 940.49 480.15 889.48 624.46 779.92 723.44 943.14 704.47
00001756 00000074 556.59 205.99 465.73 663.62 745.05 505.02 939.35 480.29 889.44 625.62 782.37 724.23 942.51 704.19
00001757 00000075 556.32 205.30 464.99 665.66 744.61 504.75 937.11 479.32 887.89 625.01 785.19 725.50 942.00 704.68
00001758 00000076 552.34 205.68 466.97 670.60 742.82 504.54 934.47 478.75 886.49 623.17 784.41 726.42 940.04 705.19
00001759 00000077 550.91 208.42 467.10 666.51 741.47 504.28 934.34 479.94 884.10 623.34 783.85 726.55 937.63 706.47
00001760 00000078 548.97 206.01 467.58 666.02 738.14 503.39 933.61 481.09 880.84 621.77 779.43 724.54 936.46 706.02
00001761 00000079 549.02 206.48 467.56 662.28 736.46 502.10 934.18 480.10 880.11 622.00 777.68 724.27 936.67 706.07
00001762 00000080 549.09 208.97 466.22 658.21 734.92 502.59 934.15 480.85 878.78 622.01 777.20 724.76 936.11 706.79
00001763 00000081 548.36 208.00 466.53 665.70 733.57 502.76 933.90 482.26 876.96 623.11 776.21 728.48 934.89 711.43
00001764 00000082 548.70 209.28 464.73 666.62 734.33 502.63 931.32 484.00 874.85 622.16 775.38 729.45 929.67 714.23
00001765 00000083 545.55 211.54 463.07 664.36 729.90 503.00 928.91 485.46 871.47 621.65 770.65 729.75 926.62 715.46
00001766 00000084 543.46 210.01 462.03 663.86 728.39 501.91 927.49 485.46 869.94 619.07 766.91 726.39 924.47 712.96
00001767 00000085 542.58 212.20 462.52 660.86 727.48 501.40 926.99 484.88 869.32 618.66 765.62 725.36 923.92 711.91
00001768 00000086 542.33 211.20 462.73 660.93 726.38 502.06 926.74 485.09 869.08 618.83 765.46 725.74 924.53 711.85
00001769 00000087 542.67 210.17 461.85 660.04 725.72 502.07 927.08 483.93 869.42 619.06 765.40 724.28 926.17 709.30
00001770 00000088 541.21 211.95 463.91 655.77 723.40 502.87 927.68 482.47 869.62 620.75 764.50 724.98 928.75 708.06
00001771 00000089 541.47 212.85 462.79 654.39 723.33 502.36 927.41 482.59 869.06 620.59 765.84 725.59 928.61 709.10
00001772 00000090 541.62 211.89 462.36 657.53 723.65 502.66 927.04 483.24 868.99 619.38 767.00 726.56 928.34 710.27
00001773 00000091 541.53 213.03 462.32 661.24 723.86 501.63 925.53 484.19 867.82 618.80 766.46 728.00 925.67 713.46
00001774 00000092 541.38 211.74 463.35 669.83 727.69 501.18 923.54 485.73 868.08 619.03 768.69 730.35 921.36 717.87
00001775 00000093 541.64 209.13 463.09 676.03 728.72 503.38 923.29 487.75 869.06 620.48 769.04 732.41 921.78 719.79
00001776 00000094 539.99 211.11 464.57 675.46 726.95 504.13 924.14 487.11 870.18 622.59 767.44 733.39 923.61 719.66
00001777 00000095 538.10 210.40 466.63 672.87 724.73 506.62 924.74 485.38 871.94 623.98 763.04 731.75 925.66 714.62
00001778 00000096 538.05 211.45 466.54 672.87 724.19 505.92 924.57 485.80 871.06 622.26 759.96 730.46 924.02 714.32
00001779 00000097 537.92 210.38 466.64 675.06 725.07 506.86 925.19 487.32 871.87 624.19 761.64 733.09 924.23 717.44
00001780 00000098 538.42 211.73 466.98 676.45 724.68 508.82 926.16 488.98 872.11 625.02 761.71 735.38 924.89 719.56
00001781 00000099 539.72 210.98 465.09 680.44 726.80 508.57 925.76 490.15 872.19 625.01 767.82 738.11 925.13 723.24
00001782 00000100 541.08 210.12 463.46 685.65 730.38 509.79 923.56 492.16 872.19 623.88 774.62 742.90 923.67 728.79
00001783 00000101 541.63 213.98 464.13 687.35 732.64 508.36 921.11 492.93 870.39 620.84 777.65 745.44 919.39 733.31
00001784 00000102 541.51 212.09 465.34 689.22 735.46 503.88 919.94 490.46 870.67 614.85 778.55 742.35 918.53 731.65
00001785 00000103 544.03 206.72 467.36 694.18 732.32 499.53 920.08 486.45 869.41 609.35 773.62 737.14 922.36 726.17
00001786 00000104 543.48 209.88 469.48 690.84 722.22 513.62 924.78 496.37 864.16 627.16 762.21 744.34 924.48 730.59
00001787 00000105 545.59 226.60 468.59 683.19 725.51 528.60 930.83 507.21 870.86 641.11 768.65 756.45 928.35 739.70
00001788 00000106 550.01 244.01 466.39 673.31 728.36 537.19 933.03 512.15 875.64 649.40 778.86 766.41 933.87 746.75
00001789 00000107 552.61 238.03 463.85 674.68 734.16 533.40 932.89 508.94 877.21 644.89 785.45 764.56 931.60 745.50
00001790 00000108 550.75 228.63 461.16 677.56 733.07 528.75 930.84 505.25 875.40 639.63 782.49 758.08 928.00 739.87
00001791 00000109 546.97 224.20 462.56 675.68 727.26 528.62 930.33 505.20 872.03 640.97 773.28 754.59 926.63 736.47
00001792 00000110 545.40 229.06 464.21 668.65 722.69 532.19 931.84 507.66 870.19 646.39 767.98 754.75 927.81 735.75
00001793 00000111 545.61 230.35 463.87 666.88 721.85 532.21 932.94 507.49 870.86 646.37 767.21 754.03 929.41 734.82
00001794 00000112 545.74 229.30 463.27 667.10 721.54 532.57 932.41 506.96 870.73 646.93 767.59 754.07 929.81 734.01
00001795 00000113 545.97 229.24 461.45 669.20 722.50 531.92 931.11 506.63 870.52 646.51 768.17 754.51 928.05 734.74
00001796 00000114 551.59 233.31 452.40 668.63 727.76 528.03 924.86 506.54 869.19 641.77 779.34 754.36 926.71 737.52
00001797 00000115 542.98 231.33 463.51 666.09 722.39 531.76 931.31 507.18 870.86 646.04 769.18 755.96 926.93 736.70
00001798 00000116 544.07 230.75 462.44 663.03 721.68 531.61 931.98 505.96 871.44 646.12 768.48 754.87 928.44 734.69
00001799 00000117 543.96 230.01 462.21 663.58 721.68 530.30 931.47 505.42 871.06 644.75 767.64 753.49 928.28 733.86
00001800 00000118 545.29 225.56 462.28 669.31 723.99 527.80 931.30 504.75 871.21 641.71 768.94 753.89 926.01 735.88
00001801 00000119 545.03 226.71 461.25 670.37 726.33 525.11 929.34 504.20 870.54 639.24 770.21 753.14 922.49 736.97
00001802 00000120 544.98 222.06 461.71 673.24 725.97 523.42 929.45 503.01 869.72 638.17 769.71 751.40 923.08 735.52
00001803 00000121 541.66 219.29 464.37 672.38 721.75 522.57 929.09 502.30 867.70 638.67 764.83 749.06 924.10 733.13
00001804 00000122 539.65 216.75 469.14 675.43 719.30 523.57 931.42 499.89 870.07 640.67 757.61 746.05 928.45 727.30
00001805 00000123 538.36 215.58 470.12 675.33 720.49 521.60 930.64 498.53 870.91 636.82 757.14 743.62 927.63 725.35
00001806 00000124 535.99 214.53 470.51 676.46 720.12 519.74 929.57 497.18 871.16 634.89 756.01 741.72 926.72 723.80
00001807 00000125 534.95 211.90 470.54 676.87 720.43 517.84 929.53 495.01 872.03 633.27 756.46 740.84 926.10 722.77
00001808 00000126 534.99 215.05 469.53 672.80 720.43 516.67 929.37 494.54 871.87 631.99 757.08 739.37 926.16 721.84
00001809 00000127 533.97 216.49 468.15 670.56 720.60 515.30 926.57 493.63 870.78 630.25 756.50 737.24 923.19 720.04
00001810 00000128 532.52 219.40 465.12 661.58 722.70 508.05 921.13 485.00 868.13 631.01 759.13 739.68 917.90 720.33
00001811 00000129 532.38 222.99 464.29 658.15 721.91 508.36 920.00 485.18 866.82 632.14 758.47 740.61 916.06 721.06
00001812 00000130 531.57 224.34 463.17 657.21 720.26 508.20 917.35 485.51 863.78 631.50 757.90 741.24 913.36 721.95
00001813 00000131 529.52 223.09 464.36 658.54 718.78 507.48 915.53 484.96 861.87 631.30 756.11 740.43 911.34 721.34
00001814 00000132 528.00 219.17 464.40 660.00 718.60 506.26 913.97 483.02 861.44 628.82 755.68 738.05 909.88 718.24
00001815 00000133 527.47 216.03 465.01 663.71 719.09 505.49 913.69 482.86 862.38 626.75 755.26 737.16 909.50 717.79
00001816 00000134 526.49 216.59 465.73 663.86 717.55 505.51 912.85 482.26 861.32 626.50 754.43 737.91 909.35 717.96
00001817 00000135 525.50 216.81 465.92 664.30 716.84 505.39 912.67 482.13 861.07 625.59 753.41 737.33 909.47 717.30
00001818 00000136 526.15 216.66 465.87 663.56 717.00 504.84 913.34 480.95 862.19 624.88 754.00 736.83 910.67 716.37
00001819 00000137 526.21 218.67 464.91 661.17 716.01 504.48 912.56 480.42 861.10 625.17 752.79 735.97 909.99 715.37
00001820 00000138 525.73 217.32 464.67 661.15 715.65 505.42 912.88 480.32 861.38 625.76 751.88 735.39 910.18 713.99
00001821 00000139 525.71 217.35 464.33 659.34 715.49 505.77 912.70 480.18 861.08 625.91 751.75 734.53 910.21 712.83
00001822 00000140 525.81 218.25 464.23 658.79 715.33 508.92 912.58 482.68 860.10 629.11 751.87 735.86 910.89 713.65
00001823 00000141 527.14 221.52 463.44 657.27 714.51 511.64 912.90 486.43 858.34 633.76 749.83 738.63 909.27 717.40
00001824 00000142 527.66 224.60 461.13 657.30 713.93 515.63 913.61 490.39 858.28 640.57 748.34 741.59 910.14 720.40
00001825 00000143 528.02 229.36 458.67 656.90 713.40 525.09 915.39 498.07 858.99 648.67 744.65 746.04 909.76 723.71
00001826 00000144 525.84 237.93 458.64 654.91 706.92 534.04 911.76 504.45 854.75 657.66 739.60 751.42 909.02 727.60
00001827 00000145 523.26 245.28 460.09 652.55 703.72 535.93 906.90 507.27 849.37 658.63 739.58 753.81 906.22 730.53
00001828 00000146 522.74 245.63 460.10 651.39 701.77 536.29 905.53 506.58 847.71 658.45 737.66 752.81 904.77 728.63
00001829 00000147 518.93 248.59 469.85 649.04 699.29 532.18 907.41 498.18 852.01 652.46 739.97 752.57 911.37 722.55
00001830 00000148 517.96 248.10 470.31 650.70 698.84 529.92 906.30 494.97 851.87 650.37 740.00 751.56 910.71 720.71
00001831 00000149 521.38 244.49 461.68 650.64 700.69 529.09 904.70 498.80 847.62 655.73 736.63 748.58 905.29 724.27
00001832 00000150 523.09 243.62 460.74 646.15 700.78 530.44 906.35 499.34 847.60 656.54 735.06 746.73 905.39 721.90
00001833 00000151 522.86 246.60 460.82 641.95 700.15 533.93 905.91 502.77 846.46 659.03 734.35 745.52 906.45 720.62
00001834 00000152 523.35 245.07 460.53 644.23 698.89 535.66 905.87 505.20 844.77 661.65 733.23 746.93 906.56 722.54
00001835 00000153 522.36 244.66 460.98 651.91 698.94 537.78 904.34 509.06 844.16 661.44 733.40 751.98 904.65 728.87
00001836 00000154 522.10 246.43 461.09 648.93 699.91 537.15 905.49 508.46 845.14 662.72 733.72 750.85 904.65 727.83
00001837 00000155 523.03 243.88 462.08 645.23 700.57 533.99 907.42 503.29 847.27 660.41 734.70 745.93 908.14 721.40
00001838 00000156 524.38 241.87 461.60 641.96 703.84 531.75 910.35 499.79 852.34 655.90 737.48 742.73 911.31 717.15
00001839 00000157 524.48 238.68 462.18 643.01 705.75 529.93 911.24 498.16 854.83 652.51 738.36 741.50 910.89 716.07
00001840 00000158 526.58 240.09 460.82 643.09 708.00 530.56 912.84 498.64 856.50 653.25 740.24 743.01 911.59 717.32
00001841 00000159 527.42 239.34 461.26 645.15 708.82 531.72 914.13 500.86 856.66 654.33 740.25 744.22 911.63 719.45
00001842 00000160 527.22 238.42 462.29 647.54 709.30 532.04 914.24 503.06 855.78 654.13 741.42 745.66 911.33 722.16
00001843 00000161 528.07 237.24 462.43 652.77 709.88 531.29 913.70 503.14 855.82 652.36 742.30 747.02 911.61 723.92
00001844 00000162 528.06 238.72 462.73 651.93 711.56 529.85 913.40 503.07 856.28 650.47 743.62 745.46 911.33 723.25
00001845 00000163 529.84 235.66 460.56 649.05 712.29 529.36 915.11 501.65 857.15 649.16 745.39 744.79 912.06 721.85
00001846 00000164 530.98 235.17 460.00 646.62 713.10 528.45 915.92 500.91 857.45 649.49 746.79 743.91 912.77 721.01
00001847 00000165 530.63 237.04 461.03 646.87 713.39 528.31 915.89 500.77 857.81 649.92 746.67 744.43 912.27 721.54
00001848 00000166 528.69 242.16 468.99 644.50 710.92 527.60 919.14 496.23 862.01 645.31 752.12 749.74 919.01 721.43
00001849 00000167 529.92 235.73 461.84 652.42 713.84 527.76 914.48 501.90 856.81 648.88 746.58 747.12 909.14 725.57
00001850 00000168 529.91 235.64 461.86 652.68 713.61 528.04 914.05 502.52 856.27 649.20 745.88 747.14 908.87 725.79
00001851 00000169 529.97 234.52 461.63 651.65 713.36 528.92 914.93 503.05 856.64 650.55 745.31 746.27 910.23 724.82
00001852 00000170 529.93 233.40 461.19 651.53 713.45 529.92 914.90 503.10 856.89 650.23 746.06 746.36 910.74 724.10
