Video ID: 	4HlS17yQiyY
H: 	1080
W: 	1920
FPS: 	25.0

FRAME INDEX X0 Y0 W H [Landmarks (5 Points)]

00003074 00000000 781.48 167.06 392.00 581.38 833.63 415.36 997.33 404.14 881.41 516.38 862.96 610.04 1014.64 598.43
00003075 00000001 772.54 152.30 401.37 595.05 822.90 408.72 996.61 393.41 875.89 515.13 854.90 609.01 1010.07 596.26
00003076 00000002 763.96 149.90 405.04 596.55 815.77 409.49 987.27 393.18 868.10 513.23 849.70 607.99 1004.68 593.96
00003077 00000003 754.10 150.07 406.71 596.90 805.56 413.81 975.97 394.58 856.95 512.13 842.15 608.48 998.19 591.46
00003078 00000004 746.12 151.58 408.35 598.61 799.39 414.44 971.37 393.63 851.80 508.79 835.03 607.67 994.82 588.97
00003079 00000005 740.14 164.89 404.96 580.21 796.61 412.55 963.52 394.52 846.49 514.91 829.70 600.59 987.35 583.55
00003080 00000006 733.72 167.10 405.78 579.30 791.18 411.34 956.82 391.50 842.72 513.88 827.05 601.35 984.70 582.85
00003081 00000007 732.19 163.49 407.22 582.16 790.49 406.03 955.60 386.38 842.19 506.24 824.32 595.72 984.49 577.23
00003082 00000008 735.55 156.65 406.38 584.02 794.11 402.63 960.10 380.17 846.76 496.04 828.27 590.10 989.71 569.18
00003083 DELETE   746.83 136.01 409.57 595.45 798.55 393.36 973.14 365.54 849.02 480.39 830.20 581.95 994.03 558.29
00003084 00000010 760.58 125.51 405.07 590.32 809.74 369.90 987.61 353.65 855.53 463.53 831.50 564.11 996.76 550.77
00003085 DELETE   775.55 124.89 397.43 578.35 826.55 359.09 999.53 345.33 870.76 448.40 850.92 553.82 1013.61 540.46
00003086 00000012 783.70 128.54 399.96 566.11 841.64 353.87 1016.14 343.99 890.05 439.39 861.74 540.08 1028.68 530.78
00003087 00000013 792.38 125.18 404.64 562.45 855.98 345.48 1030.99 337.95 906.97 431.72 873.64 529.51 1040.48 522.40
00003088 DELETE   808.20 133.49 389.89 558.54 865.20 356.28 1040.50 336.97 915.12 431.88 880.09 534.11 1049.19 517.98
00003089 00000015 816.25 133.50 390.47 556.18 879.67 358.41 1054.19 339.48 935.06 432.49 893.83 535.65 1061.01 519.88
00003090 DELETE   834.91 130.02 393.66 558.25 900.09 350.15 1075.41 342.77 945.43 429.08 907.16 539.18 1075.49 531.60
00003091 DELETE   845.48 129.41 387.70 557.91 908.04 350.54 1086.52 348.85 959.58 431.28 920.73 529.53 1091.68 526.71
00003092 00000018 852.47 137.76 389.74 550.06 920.53 354.11 1098.60 356.50 973.11 434.22 929.00 527.57 1100.73 528.49
00003093 DELETE   861.58 144.66 386.63 549.94 931.83 359.71 1110.40 365.08 984.71 443.63 934.99 529.61 1110.52 533.47
00003094 DELETE   875.88 155.35 378.85 545.04 941.81 368.46 1118.66 369.99 997.08 449.39 943.71 540.10 1117.71 542.81
00003095 DELETE   882.93 165.09 377.07 540.15 949.56 380.86 1121.96 377.82 1006.21 459.88 953.54 549.34 1126.38 548.40
00003096 00000022 886.23 167.76 379.24 542.48 954.48 387.46 1125.73 388.18 1011.39 474.32 957.67 555.21 1132.56 557.26
00003097 00000023 885.17 173.43 381.34 538.63 952.88 395.09 1127.35 395.42 1011.56 488.43 958.79 563.34 1135.75 564.59
00003098 00000024 883.17 178.77 380.48 534.54 950.21 399.00 1123.71 398.69 1010.21 494.07 958.54 567.80 1132.07 567.76
00003099 00000025 878.29 181.87 381.90 534.68 945.24 401.92 1116.46 398.71 1006.82 492.45 958.00 570.20 1127.96 567.57
00003100 00000026 873.79 180.38 381.44 538.78 940.25 400.50 1107.91 395.08 1000.26 487.00 956.06 569.41 1121.63 564.68
00003101 00000027 870.37 180.09 377.94 535.08 935.47 396.57 1102.58 390.43 995.80 484.65 952.26 565.82 1118.45 560.14
00003102 00000028 867.17 174.29 375.96 529.91 929.46 394.51 1094.94 386.74 987.92 480.07 947.58 562.69 1111.28 555.11
00003103 00000029 860.03 166.14 379.65 531.30 918.22 393.51 1089.71 384.64 974.33 480.75 938.10 555.21 1106.79 546.63
00003104 00000030 856.87 162.63 380.54 534.84 914.04 392.97 1086.58 383.51 970.51 480.89 934.73 554.53 1104.99 545.18
00003105 00000031 855.01 161.28 381.34 540.78 910.23 396.26 1081.70 385.29 966.29 484.61 932.12 557.82 1102.99 547.21
00003106 00000032 852.41 167.73 381.93 540.44 909.29 401.29 1079.86 388.98 967.10 491.46 932.58 563.48 1102.38 552.01
00003107 00000033 853.27 172.66 382.30 547.28 907.38 412.18 1077.20 395.27 965.84 499.20 935.16 575.95 1101.55 561.26
00003108 00000034 854.35 170.77 385.19 556.73 908.87 420.87 1073.35 401.41 961.16 510.13 936.61 599.42 1090.82 581.55
00003109 00000035 850.55 178.75 385.51 555.50 908.35 426.78 1069.62 410.29 957.77 516.72 937.57 607.29 1084.02 591.50
00003110 00000036 847.47 183.02 390.31 563.54 909.44 428.28 1071.23 412.53 962.70 524.87 943.59 613.86 1085.90 598.14
00003111 00000037 845.73 186.85 387.46 560.60 904.79 427.41 1066.87 414.54 963.69 531.92 947.10 610.76 1095.99 597.45
00003112 00000038 852.44 188.97 382.01 550.50 910.15 431.42 1074.68 418.42 970.30 533.60 949.44 606.11 1104.61 592.80
00003113 00000039 855.61 191.86 382.15 542.19 915.56 432.22 1084.78 422.65 978.97 535.14 949.26 603.78 1106.36 593.69
00003114 00000040 860.31 193.48 382.57 542.46 923.91 433.01 1089.24 424.27 986.42 535.27 955.11 604.96 1107.03 595.92
00003115 00000041 862.74 198.26 385.51 539.34 926.22 436.35 1093.04 427.29 988.98 540.36 960.29 609.09 1112.57 599.56
00003116 00000042 866.37 198.62 384.25 540.50 930.66 438.13 1098.84 430.73 994.89 544.80 965.23 612.24 1117.92 604.23
00003117 00000043 871.96 199.61 382.22 538.13 937.87 439.66 1106.03 432.00 1003.72 546.49 971.83 613.79 1121.87 606.24
00003118 00000044 880.88 201.86 377.88 535.08 944.84 437.64 1112.68 429.71 1009.29 547.30 977.37 612.21 1127.36 605.03
00003119 00000045 882.79 197.39 382.59 538.97 951.34 434.25 1117.92 427.27 1016.64 545.12 984.03 611.22 1130.43 605.21
00003120 00000046 885.42 193.52 384.80 541.39 956.04 430.20 1123.79 423.13 1022.32 541.74 987.07 609.49 1133.13 603.81
00003121 00000047 886.60 191.74 387.54 542.30 959.63 427.76 1127.61 421.38 1026.87 540.59 989.18 607.66 1134.24 602.77
00003122 00000048 888.56 190.21 386.45 543.39 960.21 426.98 1128.24 421.55 1026.08 540.68 989.18 608.44 1132.30 604.47
00003123 00000049 889.37 189.38 385.60 544.93 961.22 426.79 1129.25 421.86 1026.59 540.54 990.66 610.53 1131.54 606.91
00003124 00000050 890.60 189.51 384.79 548.32 962.65 427.06 1131.18 421.07 1028.79 541.04 995.21 614.67 1133.22 610.23
00003125 00000051 891.84 187.94 384.64 551.48 963.77 426.45 1133.47 420.51 1030.69 540.95 997.80 616.86 1134.76 612.61
00003126 00000052 893.38 185.58 384.64 552.47 964.73 427.47 1134.01 420.55 1032.78 541.57 998.41 615.16 1137.35 609.89
00003127 00000053 901.01 179.70 380.36 561.46 963.44 430.96 1138.51 428.57 1032.77 543.89 991.26 611.11 1142.02 607.66
00003128 00000054 903.21 178.68 381.50 560.84 968.15 434.55 1142.37 431.96 1039.47 544.84 994.26 610.17 1147.71 606.68
00003129 00000055 903.03 182.41 388.41 559.42 975.02 435.07 1148.79 430.30 1045.63 541.55 1001.01 614.93 1150.87 608.95
00003130 00000056 908.79 186.38 388.19 560.88 982.54 439.21 1156.02 434.99 1052.77 547.29 1006.70 617.26 1157.76 611.62
00003131 00000057 910.78 193.40 387.02 555.46 986.02 443.58 1163.84 445.68 1060.91 551.46 1010.26 613.79 1169.45 613.86
00003132 00000058 912.68 199.20 386.82 558.63 990.32 447.70 1168.36 451.12 1064.95 555.14 1013.17 615.71 1174.60 616.79
00003133 00000059 919.25 204.47 382.79 558.08 998.23 451.09 1171.07 456.18 1070.08 556.42 1018.33 617.04 1178.02 619.56
00003134 00000060 923.12 204.81 381.59 554.70 1002.67 455.88 1174.33 459.81 1073.64 556.74 1022.13 618.68 1181.44 620.41
00003135 00000061 924.61 203.21 382.97 552.84 1003.70 452.99 1179.04 457.09 1076.03 557.03 1022.11 618.60 1184.23 620.52
00003136 00000062 926.91 198.56 383.82 555.06 1004.86 446.11 1184.25 451.27 1078.15 555.28 1021.69 617.41 1184.84 620.43
00003137 00000063 927.07 196.05 383.34 556.78 1004.38 443.74 1184.30 450.46 1076.62 553.47 1019.49 614.68 1184.09 618.85
00003138 00000064 927.75 194.14 380.25 555.23 1005.20 445.60 1179.72 455.45 1072.01 550.27 1018.21 609.63 1179.60 616.01
00003139 00000065 925.76 191.23 381.44 555.79 1001.87 441.76 1176.19 452.52 1066.68 547.89 1013.40 605.66 1175.16 612.63
00003140 00000066 921.09 186.92 381.48 557.63 993.66 430.88 1171.10 442.22 1059.38 543.64 1006.90 604.20 1168.23 611.54
00003141 00000067 920.76 188.03 380.23 562.26 988.09 422.29 1161.10 429.44 1046.56 541.02 1000.18 607.99 1156.58 611.73
00003142 00000068 914.30 184.00 384.87 567.77 982.31 418.43 1155.89 425.51 1040.47 536.47 997.25 610.41 1148.59 613.97
00003143 00000069 906.85 182.30 390.44 577.01 978.42 419.33 1150.90 426.23 1034.10 533.09 994.43 616.72 1137.78 620.11
00003144 00000070 906.35 180.96 384.57 581.80 968.01 419.15 1148.28 426.01 1024.51 536.41 984.59 618.39 1133.36 623.33
00003145 00000071 903.49 182.09 382.83 583.52 966.03 423.35 1145.53 428.08 1021.33 534.87 982.65 621.45 1129.50 624.53
00003146 00000072 901.74 185.54 383.92 587.71 963.24 424.60 1142.84 428.67 1017.63 534.59 980.53 624.14 1124.65 626.76
00003147 00000073 899.44 186.12 383.21 588.13 960.84 424.35 1141.39 427.26 1015.78 535.72 979.46 627.38 1121.52 629.09
00003148 00000074 898.27 184.28 382.26 587.01 960.21 423.92 1139.09 426.43 1014.75 534.90 979.72 627.13 1119.25 628.32
00003149 00000075 897.80 182.51 383.07 584.09 958.83 421.60 1137.47 423.88 1012.85 533.27 979.46 626.37 1117.04 627.37
00003150 00000076 895.26 179.88 384.87 581.24 957.94 419.17 1135.37 422.28 1011.49 532.15 977.60 623.98 1112.28 625.72
00003151 00000077 893.95 177.78 384.77 576.26 957.71 416.88 1133.78 420.60 1010.04 529.86 973.06 619.80 1107.48 622.09
00003152 00000078 892.71 178.63 385.42 573.56 957.25 416.73 1133.53 420.20 1011.57 529.91 973.31 619.11 1107.75 621.09
00003153 00000079 893.12 175.87 385.10 578.03 957.83 418.31 1132.67 422.50 1012.16 531.01 975.15 618.37 1112.25 620.85
00003154 00000080 891.95 179.38 381.52 566.87 963.19 429.35 1126.70 430.43 1017.18 536.91 985.82 616.32 1120.77 617.70
00003155 00000081 892.66 181.13 379.18 566.53 965.16 433.76 1125.73 434.52 1019.59 537.96 987.92 616.57 1122.43 617.57
00003156 00000082 893.40 183.25 377.76 566.07 966.62 436.19 1128.20 436.43 1022.70 538.66 989.33 618.55 1125.22 619.08
00003157 00000083 891.76 183.06 379.19 564.68 966.42 435.95 1130.44 436.24 1025.31 538.95 989.28 618.18 1127.59 618.47
00003158 00000084 889.13 179.82 381.17 566.23 964.73 433.16 1131.82 434.05 1026.67 538.88 988.12 616.73 1130.19 617.30
00003159 00000085 885.35 177.88 384.38 566.09 963.02 431.40 1134.36 433.59 1028.47 539.25 986.12 615.93 1131.15 617.40
00003160 00000086 883.40 176.46 385.19 564.63 960.80 428.09 1134.33 431.39 1028.20 539.12 983.55 613.88 1131.22 616.00
00003161 00000087 881.16 177.70 385.66 560.33 959.16 426.77 1132.98 430.66 1027.83 539.42 980.66 612.12 1129.22 614.69
00003162 00000088 879.67 178.12 385.63 559.87 958.39 426.63 1133.28 431.26 1028.58 539.84 979.28 611.52 1129.04 614.61
00003163 00000089 878.48 179.91 383.64 558.03 957.98 430.40 1130.90 435.01 1028.48 540.54 977.69 611.52 1126.68 614.67
00003164 00000090 879.27 180.71 382.60 558.09 958.34 433.93 1130.10 437.99 1027.54 541.20 978.05 613.10 1126.30 615.71
00003165 00000091 878.08 182.44 382.05 560.67 957.62 437.52 1129.78 441.46 1027.29 543.55 977.59 615.96 1126.91 618.39
00003166 00000092 873.26 181.56 386.04 565.18 954.58 435.86 1131.25 440.63 1027.17 546.68 975.13 617.73 1127.57 620.78
00003167 00000093 872.37 182.65 386.95 568.57 953.07 436.42 1131.14 442.21 1026.39 550.03 974.06 620.79 1126.43 624.73
00003168 00000094 870.82 182.91 388.49 571.71 952.73 436.08 1131.48 442.45 1026.43 551.50 973.27 622.76 1126.09 627.25
00003169 00000095 869.71 183.52 388.32 573.13 951.85 436.23 1130.40 442.88 1025.47 551.02 972.04 623.73 1124.18 628.54
00003170 00000096 868.57 183.04 388.07 575.18 949.43 435.53 1128.08 442.52 1022.06 551.38 968.01 623.39 1121.18 628.50
00003171 00000097 866.57 182.97 388.25 575.70 945.59 435.38 1123.62 442.53 1016.30 551.82 963.63 623.74 1116.33 629.11
00003172 00000098 864.21 182.30 387.71 578.38 941.74 434.36 1119.93 442.12 1011.82 551.08 958.21 624.31 1111.23 630.26
00003173 00000099 861.26 183.66 387.44 577.72 938.57 435.66 1115.87 443.70 1007.84 552.13 954.82 625.96 1105.41 632.35
00003174 00000100 855.63 182.58 389.74 581.39 936.08 436.95 1110.53 447.15 1004.15 552.83 952.01 629.75 1094.60 638.22
00003175 00000101 851.36 182.62 388.72 581.57 930.36 437.81 1104.94 449.33 997.19 555.00 946.56 634.74 1085.43 644.26
00003176 00000102 848.66 182.70 388.10 582.55 923.81 438.17 1098.21 449.71 988.60 554.53 940.69 634.12 1081.30 643.15
00003177 00000103 846.96 184.77 387.36 581.80 917.58 440.46 1089.77 450.34 978.43 556.77 937.60 633.96 1079.61 641.09
00003178 00000104 842.84 180.89 390.08 584.26 910.39 443.16 1078.95 451.91 966.15 554.40 931.45 631.59 1072.89 637.26
00003179 00000105 838.40 172.02 386.01 593.68 894.48 442.39 1068.41 451.04 949.92 548.76 912.09 630.95 1054.95 637.20
00003180 00000106 831.12 171.36 386.54 590.43 885.67 434.71 1055.67 441.53 935.49 540.84 904.40 625.64 1045.60 630.02
00003181 00000107 828.31 170.44 383.71 588.09 882.52 428.74 1046.52 436.70 925.26 536.25 902.82 620.88 1038.38 625.84
00003182 00000108 823.09 170.76 386.87 586.62 878.74 423.37 1041.75 431.69 916.04 531.99 897.46 617.84 1030.88 622.99
00003183 00000109 820.46 171.74 387.08 588.83 877.03 422.50 1037.81 429.24 912.12 528.20 895.22 617.98 1024.58 621.62
00003184 00000110 820.24 168.43 386.84 591.87 875.80 422.71 1034.91 429.02 908.15 526.80 894.08 617.07 1022.84 620.15
00003185 00000111 817.41 166.04 388.18 591.23 873.57 420.08 1033.43 426.76 905.98 524.27 891.46 614.68 1019.84 617.89
00003186 00000112 817.66 166.38 388.64 586.27 873.97 412.03 1037.45 421.19 909.08 524.76 890.08 611.77 1018.62 617.38
00003187 00000113 819.39 165.92 388.59 583.54 875.40 408.85 1039.46 417.85 911.12 525.32 892.15 611.38 1019.23 617.14
00003188 00000114 821.63 167.45 387.93 578.14 876.75 407.23 1041.45 415.53 913.88 523.30 891.66 609.16 1022.13 614.36
00003189 00000115 822.84 166.28 386.66 575.30 876.37 404.11 1044.96 414.15 913.51 522.47 888.93 607.80 1024.01 614.49
00003190 00000116 824.66 163.57 385.80 578.78 879.12 403.15 1047.28 414.23 914.55 519.54 889.86 607.31 1024.20 614.84
00003191 00000117 827.91 160.58 385.61 580.23 881.67 399.35 1049.71 412.02 916.98 519.75 890.33 605.82 1026.83 614.90
00003192 00000118 826.96 162.98 391.77 573.29 883.69 397.50 1061.66 416.70 923.07 520.76 895.77 609.47 1029.13 624.67
00003193 00000119 833.95 153.26 388.07 585.48 886.96 396.72 1060.02 410.56 928.39 517.97 892.22 602.70 1035.56 613.31
00003194 00000120 837.23 160.48 391.86 574.61 895.94 397.51 1070.73 413.21 933.16 513.53 903.23 608.04 1035.42 620.75
00003195 00000121 841.89 161.79 390.29 572.46 902.23 397.86 1074.22 413.74 937.76 513.63 908.65 607.54 1039.90 620.39
00003196 00000122 845.71 163.07 389.93 572.03 905.12 398.79 1078.77 415.31 941.28 517.00 911.94 606.47 1048.31 619.34
00003197 00000123 847.44 166.10 389.09 574.51 908.11 403.04 1080.79 417.91 945.60 520.52 917.14 609.47 1051.92 620.90
00003198 00000124 852.68 165.79 378.16 581.85 904.18 402.24 1079.32 415.98 949.46 527.73 915.26 611.94 1055.73 623.28
00003199 00000125 853.06 175.14 382.83 589.21 913.63 411.20 1077.62 423.79 951.70 529.55 924.87 616.01 1065.14 624.93
00003200 00000126 853.91 176.03 382.77 596.84 916.79 414.64 1077.83 426.67 954.67 533.37 928.51 620.17 1068.83 628.99
00003201 00000127 853.53 176.47 381.45 588.19 915.91 415.55 1080.65 430.66 955.90 535.34 924.34 620.68 1062.43 632.14
00003202 00000128 853.13 178.17 382.62 584.74 914.61 416.41 1081.13 434.37 953.17 540.97 921.53 620.88 1062.05 634.48
00003203 00000129 853.02 180.21 383.31 582.15 915.41 418.29 1081.55 437.18 954.12 543.21 921.59 620.99 1062.26 635.37
00003204 00000130 853.34 181.52 383.62 582.68 916.50 421.84 1083.14 439.77 957.62 545.71 923.82 624.80 1062.84 638.75
00003205 00000131 853.98 182.63 383.56 583.00 917.20 421.71 1083.26 440.48 957.94 547.03 923.81 626.32 1061.19 641.05
00003206 00000132 854.92 179.67 382.52 583.21 918.16 418.39 1082.38 438.55 956.76 545.19 923.42 625.33 1057.18 641.30
00003207 00000133 854.39 177.78 381.83 581.53 919.03 415.55 1082.52 436.12 956.50 541.88 922.65 622.51 1054.90 638.81
00003208 00000134 854.40 172.44 381.43 585.34 917.19 413.47 1083.34 433.26 955.53 539.05 920.78 622.41 1053.99 637.96
00003209 00000135 851.22 170.19 385.09 586.37 913.81 410.89 1083.60 428.62 954.56 536.07 918.27 621.12 1053.58 634.89
00003210 00000136 848.00 166.39 385.62 585.09 908.04 408.56 1082.97 421.94 955.80 533.71 917.96 621.47 1056.13 631.48
00003211 00000137 846.33 162.41 385.32 594.02 899.06 409.16 1077.90 419.56 951.20 540.15 913.94 626.22 1051.74 635.15
00003212 00000138 841.45 163.52 388.86 597.71 895.03 415.00 1076.66 422.83 951.52 543.92 911.37 629.62 1056.53 636.03
00003213 00000139 836.37 162.29 393.80 603.68 892.78 423.66 1073.32 432.77 950.86 550.33 907.56 630.21 1060.03 637.54
00003214 00000140 834.35 163.37 393.67 602.52 888.32 435.67 1067.26 443.88 948.68 554.95 902.98 630.33 1060.38 636.38
00003215 00000141 831.75 167.42 393.51 599.00 884.69 441.94 1061.87 448.74 940.82 554.30 899.55 630.66 1057.93 635.23
00003216 00000142 828.07 170.91 392.10 595.81 878.60 446.18 1054.53 451.31 933.12 556.31 897.12 632.99 1051.62 635.95
00003217 00000143 819.01 176.62 399.88 593.01 871.82 448.99 1048.41 451.51 926.16 556.13 894.61 633.93 1046.35 634.23
00003218 00000144 811.25 180.55 404.76 593.93 866.68 451.20 1039.48 451.41 918.38 557.36 892.73 635.01 1039.66 632.78
00003219 00000145 809.97 181.73 402.51 594.04 864.25 452.69 1031.50 453.82 912.63 558.66 890.27 640.67 1027.51 639.64
00003220 00000146 811.00 180.02 396.93 594.58 864.67 454.62 1026.33 456.02 907.17 556.07 890.15 645.85 1016.09 644.98
00003221 00000147 809.50 182.48 395.22 595.91 863.82 454.46 1024.40 454.02 905.28 553.96 890.82 650.43 1011.79 648.15
00003222 00000148 807.73 184.13 395.66 598.16 862.27 453.47 1022.58 450.68 903.92 554.46 892.31 650.11 1016.26 645.90
00003223 00000149 806.67 184.23 392.81 601.89 861.91 451.28 1019.25 443.86 903.04 552.36 896.15 650.04 1023.50 641.62
00003224 00000150 803.76 185.85 385.21 600.17 856.27 446.86 1012.46 438.37 901.66 555.29 891.94 646.25 1026.75 639.44
00003225 00000151 800.68 187.32 391.19 590.72 856.72 444.11 1017.27 431.38 908.04 550.38 897.06 639.80 1036.66 628.88
00003226 00000152 797.89 187.12 402.17 573.44 859.00 437.30 1019.73 414.89 916.89 537.53 907.40 629.64 1046.04 609.95
00003227 00000153 796.30 182.00 404.67 567.26 858.48 432.73 1019.85 405.36 919.46 530.63 909.89 623.84 1050.02 599.55
00003228 00000154 792.20 176.55 404.39 567.64 854.64 428.29 1015.77 396.10 918.34 521.90 908.56 619.22 1049.63 590.81
00003229 00000155 789.66 174.72 401.65 565.96 849.96 425.27 1013.52 393.28 914.51 517.64 902.56 613.83 1048.40 585.33
00003230 00000156 785.67 174.75 396.59 563.48 844.21 425.42 1007.51 394.48 907.88 520.18 897.68 611.90 1044.73 584.13
00003231 00000157 779.34 178.70 400.78 557.00 839.77 426.91 1003.85 395.80 906.57 522.57 895.65 612.47 1041.99 584.50
00003232 00000158 776.34 182.10 399.15 553.83 834.76 431.64 998.02 397.03 902.70 524.46 894.70 614.66 1040.89 583.77
00003233 00000159 774.53 187.13 399.25 547.05 833.95 432.77 997.15 398.47 901.85 525.19 893.92 614.14 1039.78 583.63
00003234 00000160 776.48 188.66 396.56 545.02 834.69 434.26 997.06 400.67 901.11 525.67 892.76 613.21 1039.00 583.22
00003235 00000161 777.75 188.62 395.99 544.33 836.18 433.74 998.77 401.45 903.68 526.25 892.03 612.10 1038.89 583.37
00003236 00000162 781.88 188.45 394.79 543.07 840.50 432.43 1002.23 402.52 906.05 524.56 892.88 609.12 1039.36 582.58
00003237 00000163 786.10 190.34 392.75 537.88 845.50 428.22 1007.93 403.26 908.54 520.60 891.74 603.88 1038.90 581.93
00003238 00000164 790.63 189.94 390.14 535.25 849.95 423.08 1010.64 401.43 909.69 515.45 890.50 598.33 1037.07 579.55
00003239 00000165 791.70 186.35 387.58 536.43 851.13 416.60 1014.94 398.64 910.65 510.70 887.46 593.30 1037.64 577.66
00003240 00000166 793.71 184.45 384.71 534.21 852.01 410.55 1017.91 396.29 910.35 504.36 883.44 587.02 1036.47 574.70
00003241 00000167 792.76 182.07 384.89 534.38 852.39 406.50 1017.60 396.59 908.91 502.70 880.23 583.01 1033.16 574.20
