Video ID: 	ceouRCTj5zg
H: 	1080
W: 	1920
FPS: 	29.97002997002997

FRAME INDEX X0 Y0 W H [Landmarks (5 Points)]

00000729 00000000 1000.14 118.10 571.80 813.14 1110.76 391.66 1369.58 423.57 1184.93 591.87 1110.28 702.53 1323.63 731.00
00000730 00000001 1000.77 122.77 574.70 799.93 1109.86 380.39 1370.37 418.84 1179.80 582.53 1106.28 690.45 1313.41 723.78
00000731 00000002 999.19 108.09 573.67 812.66 1114.35 378.42 1373.27 417.04 1183.37 573.05 1103.88 682.36 1319.00 716.58
00000732 00000003 998.98 109.93 573.21 810.41 1114.49 378.85 1373.51 416.89 1184.40 572.99 1104.60 682.67 1319.46 716.41
00000733 DELETE   1001.31 107.08 572.66 808.07 1121.96 373.73 1378.91 412.68 1192.22 564.22 1109.76 677.29 1322.49 712.13
00000734 00000005 1003.73 107.70 571.84 802.63 1129.40 371.63 1387.03 410.68 1202.02 557.79 1115.54 674.09 1327.82 709.36
00000735 DELETE   1006.23 106.09 571.37 801.05 1136.11 367.48 1397.01 406.35 1215.27 557.05 1122.10 670.45 1335.61 705.74
00000736 DELETE   1007.66 110.31 572.09 795.89 1142.22 364.25 1404.81 402.23 1229.71 557.30 1128.57 668.91 1342.16 703.64
00000737 DELETE   1008.58 110.56 570.43 794.66 1142.75 364.00 1404.28 402.72 1229.22 556.60 1129.27 667.66 1343.12 702.88
00000738 00000009 1009.59 117.74 572.69 788.22 1147.78 362.66 1410.73 400.35 1239.66 558.32 1134.03 669.38 1347.86 703.93
00000739 DELETE   1010.33 112.34 570.69 797.86 1153.16 367.46 1416.07 404.89 1249.15 563.27 1138.38 673.63 1353.90 708.00
00000740 00000011 1010.75 107.53 570.59 805.91 1155.42 369.35 1417.42 408.41 1251.59 565.21 1137.82 674.67 1354.90 710.21
00000741 00000012 1008.71 108.85 572.60 807.76 1155.42 372.51 1417.65 411.73 1252.36 568.97 1137.74 677.06 1357.46 712.48
00000742 00000013 1008.50 109.47 571.99 806.67 1156.02 372.47 1417.89 411.69 1253.37 568.81 1138.08 676.86 1356.81 712.25
00000743 00000014 1005.75 115.63 572.41 802.34 1155.22 374.78 1416.45 413.97 1252.72 571.42 1137.95 678.03 1357.10 713.42
00000744 00000015 1001.72 118.51 572.90 799.98 1150.73 375.50 1411.26 412.48 1248.45 571.52 1135.01 678.46 1353.51 712.01
00000745 00000016 1004.83 120.03 566.08 795.68 1142.67 362.18 1406.21 402.27 1234.97 569.74 1128.30 674.37 1343.89 709.09
00000746 00000017 1000.70 126.08 566.60 788.02 1135.51 365.58 1399.14 403.32 1227.76 570.16 1124.60 675.95 1339.15 708.80
00000747 00000018 1000.59 127.74 565.81 786.10 1135.24 366.09 1398.45 403.16 1228.35 570.64 1125.20 675.93 1339.61 708.17
00000748 00000019 994.09 122.99 563.13 787.72 1127.55 371.80 1389.99 408.69 1221.87 579.55 1122.17 679.10 1333.26 711.10
00000749 00000020 990.48 132.92 562.09 772.16 1121.88 374.47 1383.92 411.69 1214.67 582.84 1118.15 679.92 1325.73 712.16
00000750 00000021 987.64 132.06 558.44 774.61 1116.81 377.49 1379.09 412.50 1210.78 586.45 1114.62 683.89 1320.52 714.49
00000751 00000022 986.36 135.27 557.47 774.28 1113.20 379.99 1376.53 414.67 1208.12 588.45 1112.61 688.88 1316.56 719.30
00000752 00000023 985.70 133.36 558.70 775.51 1113.05 379.87 1375.92 413.12 1208.44 588.23 1111.99 689.15 1315.92 718.51
00000753 00000024 985.24 133.09 557.51 775.72 1110.67 382.27 1373.19 415.80 1205.40 591.32 1111.58 690.88 1314.02 720.41
00000754 00000025 980.02 130.45 560.71 778.92 1106.99 383.45 1369.74 414.66 1202.32 588.31 1108.64 690.60 1312.71 718.20
00000755 00000026 974.86 126.86 565.64 784.87 1103.36 383.15 1366.07 411.82 1199.87 584.70 1106.28 691.82 1310.46 717.48
00000756 00000027 974.47 119.52 566.21 790.17 1099.57 383.19 1365.36 411.56 1196.47 586.07 1102.96 691.97 1313.47 717.31
00000757 DELETE   975.04 121.72 566.10 788.82 1099.59 383.24 1364.95 411.05 1195.89 585.22 1102.50 692.27 1313.36 717.15
00000758 00000029 974.27 118.97 566.84 792.36 1098.26 383.22 1362.61 410.71 1192.89 583.35 1101.21 693.22 1311.42 717.87
00000759 00000030 971.15 117.77 569.86 794.26 1097.87 382.43 1361.34 410.27 1192.28 578.56 1099.43 692.11 1307.49 717.39
00000760 00000031 970.22 121.34 570.18 790.96 1097.82 383.26 1360.95 410.82 1193.14 579.20 1099.50 691.88 1306.86 717.00
00000761 00000032 973.02 120.16 568.03 791.11 1100.27 383.37 1362.27 411.29 1195.32 579.99 1102.64 690.33 1308.11 715.73
00000762 00000033 972.62 122.89 567.58 788.58 1100.22 383.34 1362.40 411.48 1195.68 580.76 1102.82 690.37 1308.78 715.90
00000763 00000034 973.54 123.79 567.05 786.52 1102.16 382.63 1364.06 411.35 1197.93 582.20 1104.76 689.80 1308.56 715.87
00000764 00000035 974.60 127.23 566.08 786.66 1103.20 381.72 1365.53 410.08 1199.53 582.87 1106.74 690.78 1312.84 716.17
00000765 00000036 975.82 123.95 563.88 788.34 1104.92 381.73 1368.47 409.09 1202.98 582.93 1109.78 692.16 1316.72 716.43
00000766 00000037 976.84 130.01 562.00 777.61 1104.82 381.05 1371.71 408.92 1204.20 585.49 1109.14 692.31 1320.63 716.71
00000767 00000038 978.32 133.59 560.02 773.64 1104.89 381.37 1371.01 409.77 1203.03 585.90 1108.77 691.51 1320.20 716.33
00000768 00000039 977.43 133.09 560.78 775.60 1103.85 383.09 1372.07 410.89 1204.55 589.13 1107.86 693.28 1323.85 717.47
00000769 DELETE   975.25 134.17 562.43 774.73 1104.43 382.87 1371.38 412.06 1204.81 587.52 1105.54 688.62 1324.76 713.90
00000770 00000041 972.50 136.19 560.69 771.64 1103.75 382.68 1368.02 411.78 1204.77 584.05 1102.88 684.88 1318.73 710.40
00000771 00000042 972.17 139.50 563.95 772.13 1105.33 384.07 1368.55 410.32 1208.07 585.03 1109.53 691.61 1315.40 715.05
00000772 00000043 972.47 143.53 563.99 767.28 1104.88 383.66 1367.84 409.73 1207.36 585.13 1109.95 691.03 1315.57 714.24
00000773 00000044 975.67 135.57 561.66 777.65 1108.83 381.64 1373.08 407.84 1213.65 586.39 1115.85 699.65 1311.66 723.45
00000774 00000045 975.51 141.80 562.35 775.12 1110.40 382.02 1375.07 408.10 1215.59 587.08 1117.70 703.91 1311.83 727.60
00000775 00000046 978.14 142.06 559.93 776.31 1112.72 384.18 1376.27 411.49 1216.38 589.37 1119.88 703.44 1316.00 727.88
00000776 00000047 979.88 148.29 557.80 777.25 1113.12 387.45 1379.13 416.29 1219.15 599.47 1120.65 705.81 1324.56 731.36
00000777 00000048 980.40 145.82 557.57 779.68 1113.36 387.19 1379.01 416.05 1218.96 599.07 1120.69 705.65 1323.93 731.26
00000778 00000049 981.45 150.57 557.79 782.51 1114.07 390.60 1382.74 421.64 1221.69 603.51 1117.66 707.83 1332.82 735.05
00000779 00000050 981.41 169.34 559.43 770.74 1114.73 396.18 1384.71 427.36 1224.20 609.67 1115.68 710.09 1341.47 737.02
00000780 00000051 979.29 176.81 561.10 766.77 1114.16 403.87 1386.34 433.31 1228.02 617.34 1115.37 714.27 1346.32 739.72
00000781 00000052 979.91 168.06 560.40 779.39 1114.61 410.69 1389.96 440.20 1229.86 626.46 1113.97 719.11 1349.17 744.87
00000782 00000053 980.20 173.38 560.51 774.05 1114.47 410.29 1389.78 440.37 1229.44 625.84 1114.09 718.92 1348.34 745.14
00000783 00000054 979.36 184.18 561.54 764.05 1111.73 418.46 1388.03 446.69 1228.31 636.60 1113.25 723.20 1347.29 747.91
00000784 00000055 972.80 189.14 560.74 761.38 1103.15 424.30 1380.12 448.96 1222.93 641.22 1107.80 729.65 1340.31 751.37
00000785 00000056 970.95 199.97 560.16 751.17 1098.54 428.27 1376.82 453.46 1216.88 647.22 1106.28 733.24 1334.95 755.56
00000786 DELETE   966.54 193.60 561.97 753.10 1096.83 433.71 1374.58 462.39 1214.38 654.90 1101.64 734.66 1327.21 760.21
00000787 DELETE   966.28 190.55 561.91 755.93 1097.16 433.99 1374.63 462.28 1214.66 653.95 1101.92 734.47 1328.03 759.58
00000788 00000059 963.49 193.80 558.32 752.20 1093.15 437.79 1366.36 469.41 1204.28 654.99 1098.43 734.30 1318.47 762.10
00000789 00000060 951.95 191.87 567.74 764.99 1089.70 432.58 1359.84 463.85 1202.91 656.19 1094.75 733.40 1307.53 759.93
00000790 00000061 950.40 191.48 569.78 771.83 1087.45 432.66 1356.95 465.57 1196.76 656.23 1091.28 734.86 1303.80 762.97
00000791 00000062 948.60 188.71 569.07 775.88 1086.28 432.41 1357.33 465.49 1196.79 655.32 1089.01 736.82 1303.38 764.99
00000792 00000063 948.89 192.08 568.02 772.75 1085.88 432.49 1356.70 465.19 1196.33 656.16 1089.01 737.00 1302.56 764.96
00000793 00000064 949.78 186.22 568.87 779.72 1087.71 432.88 1357.49 466.24 1196.56 655.93 1089.16 736.56 1303.05 765.01
00000794 00000065 949.84 185.03 568.55 782.99 1088.38 432.48 1357.83 465.68 1197.16 655.32 1089.89 736.75 1303.00 765.08
00000795 00000066 949.10 181.25 569.63 787.10 1087.43 432.31 1357.59 465.49 1195.98 654.82 1089.26 736.81 1302.97 765.08
00000796 00000067 947.90 184.31 569.07 783.83 1084.01 432.04 1355.15 465.04 1192.43 654.47 1086.03 737.77 1300.64 765.90
00000797 00000068 947.35 183.13 569.86 784.41 1083.77 432.22 1355.30 464.97 1192.30 653.89 1086.02 738.15 1300.18 766.13
00000798 00000069 944.61 177.35 570.64 789.09 1082.00 428.96 1353.21 463.35 1190.49 652.60 1084.49 735.40 1298.32 764.82
00000799 00000070 942.81 168.97 572.23 797.41 1081.76 426.21 1351.76 461.63 1188.10 651.10 1082.13 733.58 1294.02 764.14
00000800 00000071 939.88 179.14 572.73 784.24 1077.96 421.59 1350.11 458.60 1184.99 648.62 1078.48 731.27 1288.69 763.57
00000801 00000072 938.84 177.67 570.56 781.44 1075.72 417.81 1348.10 454.33 1183.14 644.76 1077.77 726.13 1289.01 757.66
00000802 00000073 938.06 178.33 571.83 780.28 1075.87 418.21 1348.09 454.95 1183.81 645.28 1077.73 726.04 1289.26 757.79
00000803 00000074 938.05 174.00 571.26 783.08 1075.88 414.46 1348.55 451.28 1183.71 643.69 1077.80 724.75 1288.38 756.43
00000804 00000075 938.38 166.19 569.55 789.59 1076.05 411.76 1348.91 447.34 1184.47 640.83 1078.30 722.28 1288.94 752.73
00000805 00000076 935.15 165.29 566.26 787.13 1077.57 414.75 1342.71 449.57 1180.84 624.74 1076.37 718.18 1289.74 749.26
00000806 00000077 933.74 162.81 567.11 785.82 1075.86 411.27 1342.24 443.55 1181.10 618.91 1075.31 716.30 1288.71 745.43
00000807 00000078 933.93 164.52 567.20 784.59 1075.16 411.77 1341.84 443.40 1180.49 618.70 1074.82 716.78 1289.53 745.38
00000808 00000079 935.98 168.02 568.13 775.01 1072.15 404.80 1342.48 441.90 1174.86 618.95 1066.42 713.43 1286.60 745.38
00000809 00000080 936.35 164.88 567.86 774.28 1071.88 400.25 1343.69 438.06 1175.81 615.72 1067.87 712.83 1282.93 745.66
00000810 00000081 935.40 155.78 568.92 782.11 1070.61 395.58 1343.43 432.51 1175.78 614.32 1067.73 713.03 1280.60 745.37
00000811 00000082 935.28 155.20 566.34 785.76 1070.08 395.11 1340.70 431.29 1174.76 611.14 1068.04 716.57 1275.89 748.56
00000812 00000083 935.24 153.69 567.26 785.95 1070.48 394.91 1341.39 431.19 1174.81 610.88 1068.77 716.19 1275.80 748.25
00000813 00000084 934.51 164.70 564.26 772.25 1067.55 398.17 1340.08 436.42 1171.10 613.43 1064.66 715.40 1275.03 748.93
00000814 00000085 933.97 167.59 565.21 767.80 1066.98 401.91 1338.93 441.42 1170.24 616.99 1061.62 714.95 1276.70 749.23
00000815 00000086 934.14 166.79 567.13 774.88 1067.01 407.44 1339.74 446.29 1171.47 621.13 1058.90 720.55 1276.08 754.19
00000816 00000087 932.86 164.30 566.99 782.58 1066.16 411.15 1338.55 449.41 1170.96 624.99 1058.70 725.26 1273.50 758.61
00000817 00000088 933.17 166.37 568.28 780.93 1066.42 410.42 1339.68 449.64 1171.25 624.62 1058.46 724.57 1274.07 758.57
00000818 00000089 932.81 162.43 569.28 784.00 1067.68 410.71 1339.21 449.45 1171.91 625.09 1060.47 722.40 1275.39 755.97
00000819 00000090 934.52 164.53 567.81 778.95 1069.17 409.16 1341.24 448.78 1172.53 621.62 1061.38 720.45 1276.11 754.75
00000820 00000091 935.04 169.85 567.99 774.09 1069.47 406.71 1341.71 447.56 1172.05 621.34 1061.02 716.77 1277.64 752.03
00000821 00000092 935.60 165.23 566.05 772.72 1072.08 402.44 1343.95 445.41 1174.17 619.55 1061.69 709.10 1281.40 746.08
00000822 00000093 935.72 163.93 565.68 774.71 1072.05 402.21 1343.68 444.74 1174.29 619.65 1061.14 709.00 1281.69 745.66
00000823 00000094 935.76 160.97 567.84 778.76 1074.37 394.21 1347.89 438.33 1179.16 615.17 1064.36 707.24 1283.06 745.28
00000824 00000095 937.65 149.95 569.63 790.79 1080.43 393.99 1352.35 435.60 1185.89 611.30 1068.89 707.22 1287.22 743.10
00000825 00000096 940.09 152.79 567.12 777.73 1091.32 402.32 1351.39 444.11 1193.07 605.59 1074.58 700.14 1289.66 735.52
00000826 00000097 943.76 144.90 563.78 777.81 1094.40 408.55 1352.69 445.92 1197.73 605.28 1080.22 699.09 1295.39 730.51
00000827 00000098 943.73 140.64 563.74 781.67 1094.45 408.68 1352.65 446.30 1197.41 605.63 1080.30 698.99 1295.13 730.60
00000828 00000099 947.01 148.11 562.33 774.91 1099.59 404.85 1357.21 443.62 1204.54 606.51 1083.15 698.25 1299.07 730.78
00000829 00000100 950.65 154.80 560.74 769.88 1103.93 404.70 1360.17 444.40 1207.89 608.53 1085.28 697.93 1300.95 731.01
00000830 00000101 950.65 152.85 558.05 778.32 1101.11 412.14 1357.23 448.46 1208.56 611.40 1087.72 704.00 1309.36 736.19
00000831 00000102 950.62 144.78 558.68 785.77 1103.51 411.99 1359.62 449.82 1210.80 613.31 1088.38 701.55 1311.19 734.96
00000832 00000103 953.83 147.64 557.32 779.87 1110.13 413.07 1360.95 452.15 1212.20 612.37 1089.24 699.84 1304.23 732.25
00000833 00000104 951.60 146.07 555.59 782.75 1101.25 411.86 1359.23 449.64 1208.82 614.00 1086.95 699.60 1312.35 732.78
00000834 00000105 952.13 154.68 557.58 769.63 1105.07 414.62 1359.59 455.44 1206.99 615.37 1084.84 697.80 1303.84 731.50
00000835 00000106 947.89 152.31 558.96 773.57 1101.16 416.15 1356.89 456.03 1204.77 614.57 1081.56 699.84 1298.84 733.11
00000836 00000107 943.58 149.84 562.38 773.59 1098.47 417.04 1354.73 457.11 1202.06 611.40 1079.13 698.38 1297.92 731.68
00000837 00000108 942.89 151.40 563.42 773.36 1098.38 416.30 1355.51 457.07 1202.08 611.70 1079.22 698.47 1298.09 732.34
00000838 00000109 941.95 145.72 561.45 777.50 1095.00 416.02 1352.18 453.98 1199.84 611.98 1080.26 703.06 1293.20 735.19
00000839 00000110 941.90 148.28 556.73 777.49 1090.75 415.52 1346.35 452.00 1193.55 609.92 1079.87 707.62 1285.47 739.10
CROP_BBOX: 665 0 1872 1080
