Video ID: 	cNWFpqfgyJU
H: 	1080
W: 	1920
FPS: 	25.0

FRAME INDEX X0 Y0 W H [Landmarks (5 Points)]

00000160 00000000 979.45 208.26 438.43 642.11 1045.34 456.76 1229.44 470.17 1078.86 570.18 1050.16 683.84 1188.74 696.58
00000161 DELETE   981.31 204.45 448.35 647.84 1060.78 453.18 1252.59 467.27 1108.75 572.75 1068.67 684.09 1211.74 697.05
00000162 DELETE   984.78 216.60 452.98 635.33 1076.21 454.75 1275.35 471.61 1137.71 571.91 1079.11 683.19 1240.57 696.18
00000163 DELETE   986.03 226.50 461.36 616.63 1093.28 460.94 1298.01 478.50 1171.62 581.09 1101.10 680.80 1268.81 694.02
00000164 00000004 991.63 237.64 468.44 610.15 1111.47 472.63 1318.53 482.77 1202.42 599.12 1128.37 693.05 1296.50 700.42
00000165 00000005 1004.83 249.01 463.76 606.75 1126.27 472.91 1331.94 482.43 1222.13 609.89 1144.96 701.69 1298.47 710.75
00000166 00000006 1011.10 253.22 459.86 614.66 1132.68 485.34 1338.50 491.08 1232.05 620.66 1153.35 716.07 1306.51 722.76
00000167 00000007 1009.66 261.37 458.54 610.48 1134.31 494.80 1341.70 501.21 1235.23 629.61 1153.63 724.18 1307.88 731.74
00000168 DELETE   1007.93 258.06 456.66 616.71 1130.33 504.07 1338.57 510.18 1229.89 640.61 1145.84 728.82 1306.51 735.70
00000169 DELETE   1001.90 265.27 452.70 627.89 1118.94 509.81 1324.05 518.97 1213.12 648.56 1135.44 737.13 1292.94 746.77
00000170 DELETE   995.85 281.93 455.59 600.41 1104.21 511.30 1309.73 523.40 1191.33 652.87 1121.30 741.89 1270.13 750.08
00000171 00000011 996.45 276.80 457.71 618.23 1091.22 515.25 1297.10 534.16 1163.32 652.91 1098.17 739.18 1259.94 755.87
00000172 DELETE   993.69 274.70 458.86 615.89 1084.27 514.54 1279.85 540.53 1143.28 652.36 1085.51 735.93 1239.09 757.93
00000173 00000013 994.31 275.78 458.80 614.49 1080.28 513.26 1275.04 540.87 1132.29 644.03 1079.35 733.76 1234.24 756.79
00000174 00000014 998.24 272.08 461.91 601.41 1074.43 501.96 1284.23 535.16 1127.50 640.98 1072.80 723.27 1243.78 752.10
00000175 00000015 993.03 267.76 464.36 611.02 1083.47 498.07 1272.24 536.86 1124.47 632.10 1072.42 716.10 1219.19 748.30
00000176 00000016 997.91 263.98 463.57 610.64 1086.34 492.72 1278.21 524.47 1133.35 626.65 1080.85 720.59 1221.04 747.53
00000177 00000017 1004.67 254.39 458.19 612.56 1092.05 481.61 1286.76 512.90 1142.73 619.65 1084.56 712.38 1228.32 739.32
00000178 00000018 1007.14 238.24 460.60 634.57 1102.01 469.83 1299.13 493.70 1156.15 602.56 1097.14 709.94 1238.81 731.77
00000179 00000019 1010.97 232.21 456.89 627.69 1107.06 458.23 1309.74 476.94 1173.08 595.24 1108.66 701.04 1245.00 717.97
00000180 00000020 1011.16 207.56 454.55 650.60 1101.80 453.19 1298.27 465.65 1157.16 576.70 1105.18 695.75 1237.87 708.41
00000181 00000021 998.20 201.28 452.89 656.59 1084.96 442.51 1283.03 455.10 1141.87 567.09 1090.03 687.41 1228.81 699.86
00000182 00000022 986.99 191.87 453.57 662.71 1070.82 450.66 1260.77 459.16 1114.23 561.95 1074.05 691.53 1209.62 699.79
00000183 00000023 974.18 188.32 446.70 662.53 1045.24 455.04 1232.99 457.93 1089.57 567.19 1056.22 691.11 1190.93 695.75
00000184 00000024 956.27 196.12 450.39 649.43 1022.99 470.13 1202.99 466.95 1063.14 575.83 1035.25 693.95 1168.19 693.29
00000185 DELETE   917.07 218.64 468.31 628.93 988.13 478.86 1174.10 471.82 1041.67 594.62 1018.92 701.11 1154.35 695.90
00000186 DELETE   896.61 239.48 460.64 615.55 950.71 500.21 1122.07 477.95 994.35 607.62 991.48 716.49 1124.83 699.74
00000187 DELETE   851.05 279.10 469.00 583.44 909.80 524.88 1080.36 488.31 966.73 629.26 974.41 734.32 1101.16 704.43
00000188 00000028 825.65 292.41 474.32 581.85 885.14 542.55 1041.28 495.62 930.84 647.07 963.48 752.39 1077.25 713.38
00000189 00000029 796.03 315.14 473.16 562.14 857.95 560.92 1012.61 502.68 915.06 662.48 946.96 768.86 1061.72 720.41
00000190 00000030 769.42 324.86 476.52 559.44 840.58 570.86 1000.41 508.29 904.30 670.85 933.83 782.25 1049.91 729.71
00000191 00000031 753.65 332.11 484.41 564.71 833.66 574.25 995.57 523.69 895.00 679.35 926.84 782.74 1048.22 739.34
00000192 00000032 750.76 337.21 487.94 566.77 831.27 577.61 997.50 530.19 895.63 688.82 925.04 786.19 1050.79 745.13
00000193 00000033 765.13 334.76 474.52 565.31 832.77 587.55 1000.61 534.90 910.10 694.62 928.90 787.90 1055.90 743.94
00000194 00000034 777.98 323.00 473.12 576.36 844.91 577.72 1007.37 534.35 915.63 691.33 938.07 783.83 1060.93 747.36
00000195 00000035 799.28 315.30 467.42 583.45 861.43 565.67 1025.04 523.76 923.10 676.25 949.91 780.58 1071.74 745.78
00000196 00000036 816.22 310.92 471.55 582.85 881.68 551.23 1055.00 514.59 944.81 667.76 962.85 770.22 1087.34 739.55
00000197 00000037 834.62 298.09 475.79 591.98 903.27 539.31 1081.35 505.45 965.73 658.38 973.15 768.34 1100.40 740.07
00000198 DELETE   857.88 289.91 469.66 599.12 930.55 526.89 1097.35 501.85 989.32 650.11 994.03 756.74 1113.10 736.69
00000199 DELETE   883.58 273.92 456.67 623.45 954.36 513.42 1130.91 494.23 1016.70 636.43 1013.81 752.14 1138.46 736.12
00000200 00000040 902.57 273.18 452.36 625.81 970.26 501.00 1161.89 489.82 1031.25 624.57 1008.25 746.43 1154.85 736.72
00000201 00000041 906.93 244.10 465.62 641.42 984.37 491.95 1171.47 484.81 1042.90 624.23 1021.30 725.42 1166.65 719.93
00000202 00000042 911.20 233.68 471.83 639.36 994.52 487.80 1187.80 479.43 1064.60 610.19 1027.23 716.00 1177.42 709.51
00000203 00000043 916.16 227.52 475.06 637.54 1001.41 477.38 1195.33 470.72 1068.39 598.95 1029.58 706.77 1176.41 702.08
00000204 00000044 918.93 212.26 463.63 638.80 1001.29 464.89 1197.04 461.17 1068.32 588.24 1029.82 696.45 1170.27 693.95
00000205 00000045 913.47 196.30 465.34 647.67 992.13 468.23 1177.79 458.56 1045.51 577.12 1021.45 702.89 1154.04 695.01
00000206 00000046 908.83 198.13 460.09 650.44 979.43 465.47 1167.83 457.49 1034.58 578.37 1008.12 696.20 1143.35 690.97
00000207 00000047 904.91 203.87 456.23 646.74 971.47 469.16 1152.97 459.84 1020.57 582.38 1001.53 697.58 1130.81 691.38
00000208 00000048 899.75 222.10 453.09 625.03 962.08 475.19 1141.57 467.80 1009.27 593.75 988.80 697.26 1123.24 693.01
00000209 00000049 894.80 247.79 451.87 611.04 952.79 486.72 1127.83 478.97 993.49 605.43 975.67 710.04 1113.93 705.69
00000210 00000050 884.63 253.70 456.85 620.68 946.31 505.52 1118.19 499.15 990.68 633.53 976.01 730.52 1112.21 726.76
00000211 00000051 883.50 275.72 453.27 617.95 942.41 527.00 1118.94 522.37 991.40 664.09 979.38 760.60 1110.71 758.18
00000212 00000052 882.53 282.74 456.10 617.57 940.53 538.94 1122.09 539.01 990.41 679.79 977.83 760.74 1126.09 760.91
00000213 00000053 891.52 309.83 453.53 600.66 949.87 541.48 1131.81 542.05 1000.47 681.21 988.03 764.86 1131.49 766.18
00000214 00000054 901.63 281.14 456.59 627.34 965.50 533.14 1152.37 531.83 1022.82 671.41 1005.17 761.38 1146.04 760.73
00000215 00000055 910.19 273.98 464.38 626.79 980.80 516.93 1170.17 518.28 1036.40 656.76 1015.54 749.78 1160.42 752.06
00000216 00000056 916.88 249.61 468.61 624.29 999.31 497.85 1189.59 498.08 1064.04 627.60 1025.57 724.89 1173.93 725.77
00000217 00000057 934.84 229.78 465.05 636.33 1011.67 481.18 1200.97 481.33 1067.71 606.69 1031.60 709.90 1179.97 711.46
00000218 00000058 950.98 220.02 454.17 631.55 1026.87 467.36 1215.65 467.97 1083.30 591.79 1045.80 699.14 1185.70 701.17
00000219 00000059 960.92 210.27 448.51 633.62 1035.82 459.91 1226.77 462.95 1089.22 582.66 1052.39 692.88 1192.34 697.23
00000220 00000060 966.45 208.80 448.60 629.81 1040.83 457.23 1234.73 462.46 1094.49 579.10 1055.07 688.29 1197.07 694.50
00000221 00000061 967.30 202.22 447.45 630.65 1045.83 451.51 1232.50 464.58 1092.37 576.82 1057.21 684.11 1193.29 696.43
00000222 00000062 966.64 193.91 448.45 638.39 1043.94 449.70 1231.78 459.54 1091.07 570.58 1056.52 686.48 1189.74 696.02
00000223 00000063 969.72 185.69 443.21 649.86 1045.09 445.40 1228.94 453.78 1088.66 562.50 1057.15 683.82 1186.43 692.10
00000224 00000064 970.20 184.39 438.13 650.60 1043.09 441.99 1226.35 451.97 1084.61 557.82 1053.39 682.64 1181.00 692.41
00000225 00000065 967.90 187.20 440.03 649.17 1040.38 442.38 1225.78 453.14 1081.17 559.97 1049.35 684.25 1180.14 694.56
00000226 00000066 965.49 189.85 440.10 647.37 1038.93 444.59 1223.93 456.47 1079.28 563.97 1047.34 686.32 1177.14 697.60
00000227 00000067 969.07 192.26 438.31 648.65 1039.30 449.97 1226.80 455.74 1083.75 562.40 1045.73 685.73 1178.35 693.10
00000228 00000068 968.03 192.23 440.08 648.49 1038.14 452.33 1226.53 457.49 1084.02 565.95 1045.54 687.57 1178.68 694.35
00000229 00000069 968.75 189.85 440.24 649.36 1039.14 453.31 1227.89 458.47 1085.34 565.66 1045.90 686.69 1181.32 693.36
00000230 00000070 965.39 195.39 442.09 641.05 1040.02 447.79 1226.70 461.17 1081.43 565.99 1046.21 687.45 1177.74 699.92
00000231 00000071 967.81 190.28 439.14 643.66 1041.96 445.13 1227.89 458.91 1083.15 562.46 1046.86 683.70 1179.17 696.53
00000232 00000072 968.14 182.43 438.68 646.61 1042.65 440.03 1227.89 451.92 1084.42 556.91 1049.86 679.32 1182.90 690.61
00000233 00000073 966.40 181.57 440.75 640.79 1039.58 437.13 1225.91 447.39 1083.68 553.74 1048.42 677.16 1180.05 686.98
00000234 00000074 963.46 179.85 440.73 639.77 1034.86 437.84 1219.77 445.18 1079.87 553.04 1048.17 676.08 1179.02 683.33
00000235 00000075 956.40 193.96 440.82 626.06 1027.24 441.96 1210.93 447.67 1072.14 555.91 1043.15 677.32 1171.57 683.07
00000236 00000076 947.34 192.24 439.34 631.73 1022.17 445.76 1210.22 452.42 1071.94 559.11 1034.32 674.52 1173.96 681.43
00000237 00000077 937.26 200.36 451.37 629.94 1014.54 455.06 1199.99 459.75 1061.90 566.87 1029.23 687.43 1161.97 692.32
00000238 00000078 932.25 199.94 457.89 634.35 1012.43 462.37 1193.98 467.08 1057.81 575.74 1028.36 691.09 1159.92 695.89
00000239 00000079 929.42 209.13 463.15 637.36 1004.30 472.22 1194.40 473.02 1058.28 590.30 1021.66 701.58 1162.91 703.44
00000240 00000080 928.62 219.55 461.86 634.21 1003.34 473.11 1190.47 478.22 1053.92 598.66 1019.71 702.40 1163.25 707.50
00000241 00000081 929.75 232.60 460.54 623.41 1004.05 480.41 1189.09 485.18 1054.00 603.85 1020.38 708.93 1161.65 713.76
00000242 00000082 930.52 229.54 459.97 628.38 1002.62 482.46 1187.38 489.66 1048.87 607.57 1016.70 711.49 1158.85 718.31
00000243 00000083 932.22 230.99 457.84 626.61 1003.56 481.82 1185.21 491.87 1045.18 609.94 1016.72 710.78 1157.56 719.86
00000244 00000084 931.44 228.45 459.31 629.36 1004.08 479.01 1187.93 491.66 1045.54 607.03 1013.54 707.99 1155.33 719.37
00000245 00000085 933.98 227.22 462.90 642.80 1007.97 474.24 1191.38 481.66 1047.37 595.59 1019.40 706.79 1161.79 714.18
00000246 00000086 946.20 205.76 458.99 663.81 1018.75 466.27 1201.90 467.63 1055.74 582.78 1029.69 701.85 1170.01 704.74
00000247 00000087 950.93 187.27 446.26 659.94 1022.74 456.98 1206.07 461.73 1062.86 571.96 1039.58 692.22 1176.77 697.33
00000248 00000088 952.53 190.58 447.04 646.41 1024.14 453.06 1206.46 453.67 1067.07 562.77 1040.87 678.15 1183.95 679.79
00000249 00000089 944.98 192.92 449.47 643.44 1016.38 450.61 1196.41 450.66 1055.45 558.74 1035.33 680.33 1171.17 681.33
00000250 00000090 934.75 192.28 453.28 646.82 1009.10 452.65 1189.37 458.68 1047.86 564.82 1022.87 681.45 1163.55 687.36
00000251 00000091 927.43 192.99 455.36 655.65 1003.87 453.61 1191.24 466.81 1044.52 574.65 1012.53 683.09 1159.91 694.94
00000252 00000092 933.84 209.61 458.91 637.45 1009.61 464.62 1195.91 476.58 1048.65 584.42 1016.42 685.88 1165.79 696.44
00000253 00000093 946.70 202.33 454.91 639.96 1023.33 462.06 1206.19 476.25 1059.33 579.69 1023.94 680.95 1171.14 693.64
00000254 DELETE   965.59 201.12 444.73 632.74 1039.37 450.55 1225.16 470.45 1080.36 569.39 1040.35 671.53 1186.64 689.29
00000255 DELETE   981.26 202.04 448.31 623.07 1066.67 429.58 1257.99 456.23 1113.40 543.98 1061.20 649.59 1214.06 671.37
00000256 00000096 993.26 196.53 452.82 601.54 1084.12 415.28 1275.22 438.60 1132.29 523.52 1077.43 633.76 1220.41 653.23
00000257 00000097 1002.66 176.33 448.19 600.33 1092.13 392.75 1293.27 423.88 1135.81 502.19 1071.91 612.50 1232.35 639.20
00000258 00000098 1004.44 163.72 446.57 601.51 1092.95 387.12 1295.28 418.09 1137.31 491.32 1071.49 609.43 1227.42 636.13
00000259 00000099 1003.25 166.27 447.24 601.32 1091.89 390.64 1289.00 421.93 1132.27 497.03 1070.16 610.76 1217.77 637.92
00000260 00000100 997.19 175.59 453.88 610.31 1090.27 400.66 1281.50 424.20 1134.85 506.09 1077.29 625.41 1209.52 645.91
00000261 00000101 994.40 174.54 451.56 614.72 1086.21 405.64 1277.24 428.76 1132.66 512.13 1075.23 629.59 1211.23 649.45
00000262 00000102 991.52 171.45 446.04 606.45 1080.60 397.33 1277.08 426.16 1124.02 509.09 1064.26 617.73 1213.12 642.05
00000263 00000103 988.06 167.80 450.09 611.29 1076.95 394.12 1274.44 421.43 1120.10 504.92 1061.27 615.40 1213.21 638.22
00000264 00000104 984.86 157.04 450.77 621.15 1072.97 392.79 1269.05 418.43 1113.87 499.18 1055.31 615.79 1205.74 636.97
00000265 00000105 984.24 159.23 450.65 618.64 1069.84 394.17 1266.27 417.98 1109.43 499.63 1051.02 617.90 1200.07 637.83
00000266 00000106 984.79 163.87 450.81 625.62 1069.68 396.90 1263.78 417.65 1107.98 505.15 1054.53 624.90 1198.93 642.91
00000267 00000107 989.59 175.52 448.98 639.60 1072.64 405.67 1268.95 430.49 1115.16 517.37 1061.60 636.29 1206.23 657.87
00000268 00000108 985.59 177.39 455.02 643.64 1077.86 420.70 1261.34 442.32 1114.93 528.27 1070.83 649.48 1206.97 667.84
00000269 00000109 989.91 185.96 452.87 640.62 1078.83 433.58 1264.39 459.80 1117.09 546.44 1069.65 655.34 1213.52 677.77
00000270 00000110 991.93 211.68 448.11 632.71 1075.53 442.20 1268.76 474.68 1112.51 570.35 1064.78 669.29 1220.66 694.97
00000271 00000111 991.68 225.89 460.18 639.41 1079.62 457.58 1274.99 488.16 1121.92 593.44 1071.21 687.17 1226.56 712.68
00000272 00000112 990.05 250.70 463.20 616.13 1078.36 472.34 1268.90 506.44 1122.19 613.61 1076.54 696.48 1224.53 724.60
00000273 00000113 992.38 270.67 460.12 597.58 1082.22 488.99 1268.17 524.16 1123.63 623.71 1075.38 704.34 1218.06 733.38
00000274 00000114 990.36 270.48 459.02 610.30 1077.01 501.22 1264.16 534.70 1116.13 635.67 1073.42 720.56 1215.49 748.17
00000275 00000115 988.90 282.60 456.81 614.13 1069.58 507.20 1260.62 542.61 1111.06 652.36 1068.32 734.80 1213.31 764.28
00000276 00000116 980.82 269.31 463.21 627.84 1061.07 508.94 1252.10 549.90 1099.04 660.67 1059.64 738.25 1205.84 771.64
00000277 00000117 975.75 276.39 462.42 621.88 1052.92 510.67 1247.72 555.17 1091.10 671.56 1053.28 742.01 1201.65 777.51
00000278 00000118 975.49 294.07 461.49 615.59 1049.12 518.77 1244.79 560.27 1088.50 679.80 1055.06 752.21 1201.86 785.87
00000279 00000119 973.46 297.73 461.88 613.75 1045.18 522.80 1238.14 564.43 1084.00 684.58 1051.92 753.13 1199.85 786.67
00000280 00000120 972.70 295.75 457.90 613.99 1043.82 522.20 1230.81 564.86 1077.18 680.93 1041.99 744.35 1192.64 780.23
00000281 00000121 975.34 298.14 453.18 618.80 1047.22 518.61 1230.14 558.63 1075.67 674.89 1048.33 743.01 1193.99 776.83
00000282 00000122 978.87 285.04 450.04 641.24 1048.04 516.45 1230.39 548.68 1077.74 665.36 1053.40 746.11 1196.41 773.63
00000283 00000123 980.39 273.81 449.02 648.61 1048.46 511.68 1233.35 539.43 1083.52 659.54 1057.48 745.85 1199.36 769.81
00000284 00000124 977.39 275.13 455.50 627.96 1047.71 506.29 1238.39 534.67 1087.67 654.96 1059.23 736.31 1203.81 760.53
00000285 00000125 973.21 278.42 458.97 610.35 1048.61 505.68 1239.63 538.89 1089.76 658.47 1054.49 728.12 1207.80 754.20
00000286 00000126 973.63 277.97 459.20 607.22 1049.98 504.14 1241.99 539.42 1092.30 656.93 1054.41 724.75 1209.07 752.62
00000287 00000127 976.87 272.74 460.71 614.40 1053.02 504.80 1245.96 536.14 1096.48 651.96 1058.30 726.49 1211.99 751.69
00000288 00000128 979.38 268.94 460.84 613.97 1055.32 503.13 1250.03 535.83 1099.46 648.87 1059.47 723.28 1214.92 749.71
00000289 00000129 980.01 270.86 461.95 610.47 1059.14 500.55 1252.92 532.63 1103.20 645.19 1062.24 720.19 1217.32 746.30
00000290 00000130 980.33 267.25 463.54 625.16 1061.35 501.33 1253.65 530.27 1105.29 644.89 1066.05 726.94 1219.02 750.81
00000291 00000131 980.59 267.40 462.87 622.05 1061.24 502.75 1254.50 531.60 1106.31 645.53 1065.89 726.73 1218.52 750.64
00000292 00000132 980.38 266.06 462.63 621.95 1061.62 501.93 1255.29 531.12 1107.64 644.70 1065.78 726.06 1217.56 750.20
00000293 00000133 980.51 265.86 462.72 620.02 1064.12 499.68 1255.38 527.84 1110.13 639.15 1068.10 723.81 1214.64 747.13
00000294 00000134 980.97 264.43 463.46 617.41 1065.49 496.31 1257.03 522.10 1112.45 632.77 1069.23 721.25 1214.24 742.54
00000295 00000135 985.25 260.74 460.67 623.85 1070.02 489.13 1257.55 514.69 1113.21 624.80 1072.25 719.20 1212.58 740.32
00000296 00000136 988.37 249.10 458.42 632.43 1073.32 481.69 1258.85 505.41 1115.75 615.82 1076.02 714.73 1214.78 734.40
00000297 00000137 987.23 248.51 462.60 621.66 1072.66 472.32 1264.51 496.42 1118.86 607.44 1075.87 703.66 1220.61 723.85
00000298 00000138 989.05 230.06 461.87 628.24 1075.52 464.11 1268.65 488.06 1121.56 592.60 1074.88 691.89 1221.14 711.94
00000299 00000139 992.80 228.08 450.14 612.73 1077.11 451.83 1270.91 480.96 1118.45 576.08 1068.64 673.73 1224.65 696.62
00000300 00000140 996.93 208.64 449.54 618.09 1079.84 440.96 1276.74 473.20 1120.91 564.17 1068.73 661.93 1226.55 687.54
00000301 00000141 997.23 198.72 451.91 628.39 1090.14 435.02 1275.90 459.41 1130.55 546.24 1083.01 657.96 1224.73 678.90
00000302 00000142 1000.05 185.37 454.58 637.87 1092.30 428.27 1279.29 447.62 1136.87 535.74 1088.44 654.22 1225.66 671.30
00000303 00000143 1008.73 193.24 450.45 619.34 1101.37 408.89 1293.18 428.07 1150.69 525.36 1094.01 641.78 1233.21 658.88
00000304 00000144 1017.70 184.08 444.73 618.79 1107.59 400.71 1298.82 422.92 1149.75 511.19 1093.33 630.34 1233.29 650.73
00000305 00000145 1019.35 180.32 449.80 618.51 1116.97 397.72 1306.08 417.96 1163.61 509.06 1103.83 625.74 1238.22 644.03
00000306 00000146 1022.89 192.91 447.30 622.98 1118.32 400.40 1305.35 419.12 1168.57 505.37 1105.47 625.96 1247.93 644.52
00000307 00000147 1021.66 189.69 447.95 630.93 1117.39 403.05 1306.97 423.04 1167.71 510.94 1104.21 631.36 1248.26 651.03
00000308 00000148 1018.49 184.51 449.35 638.52 1114.30 410.73 1306.69 431.91 1158.42 523.72 1102.16 645.57 1244.76 665.02
00000309 00000149 1018.16 191.05 447.03 645.28 1110.99 420.21 1303.64 443.13 1161.15 539.92 1101.92 653.87 1245.77 674.90
00000310 DELETE   1011.06 206.52 452.47 640.56 1106.88 434.25 1300.32 459.09 1153.35 558.42 1095.88 663.33 1239.08 685.53
00000311 00000151 1008.23 220.70 450.62 631.22 1099.24 441.42 1293.53 464.86 1148.12 571.14 1092.61 674.76 1238.24 695.40
00000312 00000152 1005.86 208.23 448.34 655.03 1092.52 445.16 1281.82 472.56 1133.95 580.11 1086.01 682.93 1232.45 706.61
00000313 00000153 1000.06 227.07 453.53 643.32 1085.10 450.79 1273.33 477.86 1124.20 588.84 1084.77 690.05 1230.84 712.63
00000314 00000154 992.55 227.80 463.53 643.94 1080.92 463.03 1273.25 489.71 1123.41 594.60 1076.51 694.67 1229.16 717.07
00000315 00000155 994.82 240.87 449.62 627.80 1074.97 467.41 1268.85 496.81 1113.00 600.92 1066.12 699.44 1222.32 722.56
00000316 00000156 991.30 244.47 459.62 625.32 1077.71 468.79 1268.33 499.17 1120.04 603.84 1075.64 699.50 1220.86 724.66
00000317 00000157 989.59 247.20 459.17 623.14 1076.90 471.15 1266.94 502.01 1120.43 606.99 1075.06 700.94 1219.54 726.37
00000318 00000158 988.51 249.20 459.69 631.62 1076.21 475.68 1264.93 504.39 1118.35 611.54 1075.33 708.60 1220.62 732.30
00000319 00000159 990.30 243.73 451.54 647.94 1067.52 473.19 1260.32 501.04 1111.29 619.51 1069.27 716.86 1217.81 740.95
00000320 00000160 979.55 254.48 456.95 641.48 1057.96 477.32 1249.02 508.10 1095.95 625.47 1058.17 715.94 1210.45 742.43
00000321 00000161 970.17 262.55 460.39 633.71 1049.82 490.55 1239.50 523.91 1087.04 645.34 1050.81 723.55 1206.25 751.83
00000322 00000162 966.63 271.51 456.42 632.51 1037.83 507.75 1232.99 535.93 1083.48 660.81 1050.97 738.56 1201.02 762.63
00000323 00000163 962.36 292.44 454.24 618.47 1035.34 517.73 1225.94 544.60 1078.84 671.04 1046.12 746.83 1193.89 769.91
