Video ID: 	04NM8FbghFY
H: 	1080
W: 	1920
FPS: 	25.0

FRAME INDEX X0 Y0 W H [Landmarks (5 Points)]

00002804 00000000 547.26 180.13 460.45 659.36 766.48 393.61 921.71 453.28 853.83 538.04 722.33 626.08 843.51 676.91
00002805 00000001 549.27 180.78 459.43 665.74 769.30 391.44 925.26 451.88 858.16 535.80 721.81 628.87 843.37 680.20
00002806 00000002 545.40 179.72 460.70 657.30 761.07 389.38 916.49 451.85 843.60 530.37 706.88 625.65 822.36 678.61
00002807 DELETE   533.30 182.77 472.96 646.28 742.06 388.83 905.17 449.43 822.27 528.92 688.90 621.04 810.75 672.27
00002808 00000004 524.95 180.23 479.54 653.16 720.01 383.58 892.12 446.60 797.18 519.69 665.86 617.69 795.55 671.36
00002809 00000005 512.44 182.05 485.75 645.11 698.94 377.30 882.76 445.16 772.35 515.52 644.25 610.17 782.51 667.74
00002810 00000006 508.65 179.81 480.30 648.34 694.24 374.89 873.11 445.17 758.01 514.29 631.60 609.07 775.28 668.36
00002811 00000007 508.60 177.11 478.94 651.96 691.71 374.95 870.62 444.46 755.41 514.86 629.59 609.01 774.94 667.75
00002812 00000008 510.15 178.78 479.63 651.68 698.77 374.66 875.68 445.91 761.81 515.71 635.84 609.19 779.83 669.18
00002813 00000009 514.19 176.95 476.74 647.54 709.37 375.71 880.12 447.12 772.43 516.36 644.80 606.46 783.39 666.79
00002814 00000010 524.92 175.23 470.61 649.98 717.82 375.27 885.64 448.49 779.88 518.75 652.75 606.84 789.64 668.83
00002815 00000011 529.28 178.12 474.38 641.62 721.32 382.08 892.02 446.23 795.73 519.52 669.24 606.53 803.14 660.94
00002816 00000012 533.37 175.90 471.83 642.69 726.18 382.81 896.32 447.15 802.68 519.82 674.54 605.06 809.30 659.59
00002817 00000013 533.91 175.94 472.99 637.63 729.00 381.73 896.70 443.68 805.01 513.17 676.86 602.59 809.29 655.34
00002818 00000014 534.62 173.34 472.41 633.60 729.97 379.17 896.81 441.79 805.08 508.57 676.25 597.43 808.97 650.78
00002819 00000015 536.10 172.84 471.00 629.35 729.15 377.11 896.07 440.24 802.10 505.30 675.21 592.90 807.16 646.73
00002820 00000016 537.86 172.54 468.91 626.56 728.70 373.99 895.60 437.75 800.74 503.89 673.71 589.50 806.85 644.05
00002821 00000017 540.54 165.82 462.56 631.24 734.49 362.62 897.39 438.66 796.12 497.86 667.26 583.39 803.64 647.68
00002822 00000018 540.04 163.76 463.45 631.36 735.86 360.74 899.24 436.59 797.67 496.66 669.62 581.46 806.02 645.45
00002823 00000019 538.72 169.65 468.24 626.11 731.16 369.80 896.82 432.72 804.30 498.62 678.61 585.91 810.53 639.65
00002824 00000020 538.12 168.95 469.20 626.12 731.99 369.08 896.72 431.81 804.76 497.99 679.85 584.96 810.88 638.53
00002825 00000021 538.49 168.61 467.53 626.87 732.17 369.50 896.16 432.43 805.28 498.32 679.52 585.38 811.11 639.14
00002826 00000022 538.54 170.58 468.03 625.15 731.52 370.62 896.40 432.98 804.79 499.30 679.68 586.81 810.80 640.08
00002827 00000023 539.11 171.78 468.19 624.36 731.19 373.77 896.48 434.85 805.12 500.98 680.27 589.79 810.16 641.99
00002828 00000024 543.15 164.91 462.30 625.33 735.12 365.61 899.49 436.93 800.04 498.87 675.32 585.70 805.98 646.12
00002829 00000025 541.06 164.86 462.66 625.47 734.97 365.46 898.26 433.63 800.59 498.33 681.05 586.89 805.38 644.30
00002830 00000026 540.51 162.11 463.14 626.82 735.48 364.15 899.52 431.02 802.13 496.94 683.06 586.61 806.68 642.78
00002831 00000027 539.46 166.61 468.68 626.75 731.39 370.34 894.40 426.54 805.06 499.39 688.35 591.40 803.34 639.51
00002832 00000028 533.26 151.18 469.50 644.40 724.27 351.58 893.16 415.16 785.77 487.32 669.03 586.58 789.74 640.36
00002833 DELETE   518.86 155.84 475.01 634.51 705.70 347.42 880.45 411.23 765.75 480.33 650.88 576.20 780.54 629.56
00002834 00000030 512.01 157.57 475.07 622.89 698.47 342.33 874.75 407.97 758.24 471.35 640.81 563.35 781.79 617.87
00002835 DELETE   513.99 157.04 476.85 628.06 703.27 343.58 878.30 409.00 763.92 472.85 644.74 566.94 782.50 621.39
00002836 00000032 526.51 150.71 467.84 633.71 714.72 345.83 887.78 414.20 780.03 480.63 656.03 571.14 792.48 628.30
00002837 DELETE   538.92 152.72 466.16 635.44 731.26 347.10 899.33 414.90 794.99 482.64 673.72 576.40 805.34 633.17
00002838 00000034 538.99 166.75 466.54 629.17 733.70 362.32 895.46 422.74 807.23 488.80 683.81 583.36 809.65 635.35
00002839 00000035 539.41 166.74 467.25 629.06 734.81 363.56 896.47 424.06 807.31 489.40 683.63 583.74 809.63 635.78
00002840 00000036 540.78 166.24 466.86 626.29 733.41 364.40 895.39 425.06 804.91 490.53 682.24 582.12 808.60 634.35
00002841 00000037 543.17 167.41 464.81 620.66 733.51 364.89 897.05 426.47 804.85 492.13 683.47 581.79 809.56 634.66
00002842 00000038 549.35 161.58 459.66 626.53 740.04 355.33 907.10 426.52 802.85 487.46 678.85 579.43 813.12 639.49
00002843 00000039 549.24 170.90 462.28 619.62 739.48 370.65 905.36 429.88 814.20 497.85 691.93 587.07 821.70 637.25
00002844 00000040 552.41 170.54 459.80 618.16 743.26 371.52 909.07 430.14 819.06 500.15 695.03 586.64 825.39 636.23
00002845 00000041 554.79 170.45 459.37 616.56 744.93 370.95 911.14 429.84 820.71 501.18 696.30 586.31 827.60 636.13
00002846 00000042 555.27 169.93 459.65 616.29 744.84 370.38 911.18 429.67 819.67 500.70 695.81 586.03 826.23 636.18
00002847 00000043 555.11 169.76 460.46 616.40 744.66 370.35 911.25 430.28 818.89 499.42 694.73 585.26 826.18 635.96
00002848 00000044 556.56 168.73 460.01 618.12 745.56 369.61 912.57 430.07 820.33 500.43 695.25 585.59 827.86 636.71
00002849 00000045 560.09 168.10 457.35 616.30 747.62 369.94 915.82 431.22 823.85 502.74 697.03 586.89 830.10 638.83
00002850 00000046 561.40 168.28 457.16 618.54 749.42 371.29 917.03 433.36 825.87 503.61 697.95 587.85 831.53 640.48
00002851 00000047 561.72 170.76 456.27 614.80 750.04 372.67 917.52 434.06 826.87 504.59 700.19 588.44 833.46 640.48
00002852 00000048 561.13 170.56 456.57 616.61 749.74 373.17 916.54 434.85 826.03 504.64 699.55 588.70 832.66 641.01
00002853 00000049 560.21 173.44 457.16 614.57 748.40 373.91 915.56 435.02 824.11 504.50 698.07 589.71 830.06 641.56
00002854 00000050 557.80 173.26 459.02 617.42 748.11 373.69 914.05 435.54 823.78 503.89 697.20 589.90 829.13 642.35
00002855 00000051 557.41 173.83 458.78 616.85 747.82 374.12 913.99 435.38 823.66 503.47 697.39 589.90 829.70 641.77
00002856 00000052 559.01 173.91 456.76 613.74 747.60 374.05 914.93 435.32 823.92 504.26 698.00 590.24 829.44 642.12
00002857 00000053 558.63 173.84 456.95 614.67 747.20 374.13 914.62 435.04 823.76 504.15 698.01 590.96 828.83 642.59
00002858 00000054 558.20 174.31 456.85 613.93 746.82 374.15 914.00 434.45 823.07 503.75 697.83 591.57 827.60 642.74
00002859 00000055 556.91 174.27 457.96 615.50 746.17 374.54 912.35 435.40 821.91 502.90 695.90 591.60 825.28 643.23
00002860 00000056 554.90 175.80 460.09 615.37 744.75 375.54 912.91 435.27 820.75 503.85 695.33 593.76 824.49 644.37
00002861 00000057 554.90 175.58 459.91 615.86 745.88 374.77 911.31 433.01 819.59 502.79 698.62 593.20 823.07 642.46
00002862 00000058 554.05 173.52 460.70 617.49 745.88 374.46 910.74 432.88 819.40 502.72 698.61 592.71 822.71 642.13
00002863 00000059 556.00 174.91 458.00 612.54 744.80 374.83 910.86 432.90 819.57 502.29 698.08 592.01 824.91 641.19
00002864 00000060 554.04 174.62 460.65 619.02 743.57 375.67 911.43 433.58 819.36 504.02 695.26 595.33 822.61 644.43
00002865 00000061 550.99 176.03 464.05 629.00 745.80 376.42 907.06 433.66 817.13 502.07 698.61 596.98 820.64 645.32
00002866 00000062 547.58 179.71 468.71 636.42 744.88 377.95 909.91 437.42 817.54 508.86 692.87 605.30 815.44 655.67
00002867 00000063 550.72 178.81 466.77 623.81 741.63 381.08 910.10 439.84 813.90 512.10 691.09 602.97 814.48 652.71
00002868 00000064 551.18 178.10 465.14 622.44 739.82 381.06 911.00 441.20 814.81 512.16 688.35 602.52 816.48 653.47
00002869 00000065 550.01 177.26 464.90 624.09 739.58 379.55 907.86 437.97 814.44 509.21 690.46 600.74 816.15 650.34
00002870 00000066 550.88 175.55 463.58 621.50 738.21 376.32 907.27 434.72 813.92 504.71 689.88 596.43 818.41 646.01
00002871 00000067 550.89 172.98 461.83 618.08 736.97 373.69 906.56 432.12 813.50 501.66 691.42 592.03 820.51 641.54
00002872 00000068 549.59 167.04 462.06 620.97 732.38 374.87 903.35 432.01 811.40 497.53 689.47 591.31 818.34 639.94
00002873 00000069 552.76 160.14 451.67 627.39 730.84 367.71 900.10 433.14 801.10 491.01 679.91 588.74 813.16 644.40
00002874 00000070 550.30 162.92 454.43 630.13 728.27 371.92 898.08 438.01 797.43 497.41 676.20 593.03 809.67 649.29
00002875 00000071 547.82 168.47 457.63 633.27 730.17 374.03 895.67 442.37 793.46 501.71 675.70 595.48 805.70 653.42
00002876 00000072 542.99 177.20 467.94 633.50 728.63 386.28 892.50 440.23 801.51 505.98 687.93 603.50 803.69 649.60
00002877 00000073 542.53 175.88 467.76 635.10 728.33 386.07 891.93 440.05 801.49 504.71 687.83 603.25 803.04 649.42
00002878 00000074 544.56 166.84 459.36 626.81 728.84 373.65 892.13 439.04 791.06 498.12 677.76 591.12 801.67 646.10
00002879 00000075 548.13 161.57 456.08 628.56 729.44 366.46 895.79 433.17 795.06 495.98 677.81 588.58 804.87 645.03
00002880 00000076 548.26 164.04 458.69 623.70 732.83 362.06 900.34 430.67 797.54 494.12 678.88 583.37 810.53 641.15
00002881 00000077 548.12 164.71 459.18 620.32 734.75 362.39 901.66 430.53 800.14 491.86 681.80 580.65 813.47 637.89
00002882 00000078 545.99 171.59 465.58 619.49 732.85 374.50 901.56 432.77 809.93 501.06 691.51 587.82 820.84 636.92
00002883 00000079 546.96 173.02 465.96 625.54 739.38 378.44 905.95 434.52 816.56 505.22 696.68 595.06 822.30 642.30
00002884 00000080 550.05 175.13 461.92 626.18 747.84 379.75 912.15 436.67 826.53 512.30 702.67 599.44 828.53 647.41
00002885 00000081 552.25 177.96 461.27 629.34 751.63 381.06 915.95 439.35 832.86 515.22 703.26 601.77 833.91 651.22
00002886 00000082 555.16 175.75 458.07 631.77 755.05 380.60 919.10 440.45 836.77 517.77 703.87 602.31 835.83 653.31
00002887 00000083 554.27 176.44 458.53 629.42 750.83 380.51 916.47 440.66 831.85 516.52 700.24 602.11 830.91 653.27
00002888 00000084 548.46 178.42 464.62 624.43 743.72 380.52 910.00 440.06 820.81 512.45 694.12 600.04 824.95 650.38
00002889 00000085 544.78 174.29 470.47 629.94 736.14 378.63 906.77 439.20 812.55 511.75 687.42 599.07 820.61 650.23
00002890 00000086 545.19 175.07 471.19 629.16 736.84 378.70 906.55 439.37 811.68 512.41 687.13 599.82 817.65 651.12
00002891 00000087 544.89 178.71 472.16 637.62 745.08 378.78 909.02 441.54 818.04 515.90 689.50 603.05 820.29 656.01
00002892 00000088 546.39 179.04 471.74 646.04 750.06 379.35 912.34 442.66 824.50 519.51 692.31 606.40 824.49 660.02
00002893 00000089 547.36 178.59 471.08 645.96 749.22 380.37 912.69 442.91 823.67 520.64 691.96 606.82 825.27 659.88
00002894 00000090 547.43 178.96 472.32 637.37 742.87 381.18 913.16 443.27 818.04 522.73 687.34 606.24 823.85 658.72
00002895 00000091 545.14 179.03 474.28 634.20 739.58 381.68 911.48 443.40 814.29 522.90 684.80 605.80 821.49 657.94
00002896 00000092 542.86 179.47 476.12 647.24 741.55 381.47 909.69 445.41 815.11 522.00 683.31 606.47 822.07 660.48
00002897 00000093 543.48 178.06 476.36 655.84 742.51 382.93 910.87 447.33 816.83 522.42 681.59 607.81 825.12 662.38
00002898 00000094 545.40 179.04 474.00 650.29 742.81 383.37 911.64 445.84 817.72 523.74 683.40 607.68 827.54 660.83
00002899 00000095 545.57 179.08 473.84 648.12 739.74 383.49 910.95 444.77 815.89 520.91 682.00 605.09 831.66 657.17
00002900 00000096 543.70 178.78 475.43 645.14 735.45 384.62 908.99 445.35 812.30 520.16 679.82 604.05 830.71 655.60
00002901 00000097 542.35 180.35 476.75 643.82 734.21 385.54 906.95 446.40 809.34 524.52 678.79 606.31 824.07 658.09
00002902 00000098 541.62 180.86 477.27 647.04 733.69 386.58 906.30 446.93 808.75 529.83 678.63 609.19 822.61 660.69
00002903 00000099 540.64 186.13 478.76 656.57 734.66 387.29 906.11 450.14 809.65 535.51 677.22 617.23 817.58 670.79
00002904 00000100 537.21 195.31 481.42 655.67 736.33 393.59 908.60 456.40 811.72 544.38 676.89 628.78 816.26 682.18
00002905 00000101 536.50 196.45 479.06 650.92 733.44 404.12 904.85 464.06 808.60 557.34 678.04 633.85 814.37 685.05
00002906 00000102 538.65 201.25 475.44 643.87 728.38 412.80 902.80 468.24 804.26 567.80 678.23 642.11 812.34 689.84
00002907 00000103 540.66 202.65 471.30 646.36 723.53 420.37 899.09 474.59 799.96 578.24 676.05 649.07 812.04 696.05
00002908 00000104 542.00 202.82 468.84 650.16 723.77 423.57 898.65 478.24 799.22 582.64 675.59 652.07 811.64 699.42
00002909 00000105 541.19 202.82 468.19 644.63 720.57 426.13 898.14 479.63 798.50 585.90 674.14 652.98 811.58 699.36
00002910 00000106 540.78 203.78 467.94 648.48 721.29 427.58 897.87 481.48 798.05 587.08 674.06 654.75 810.82 701.49
00002911 00000107 539.87 203.27 468.91 651.48 722.60 428.40 898.21 482.36 797.80 588.16 673.76 656.12 807.68 702.96
00002912 00000108 536.62 206.26 471.88 660.80 724.70 426.55 897.59 484.42 797.64 587.95 670.03 657.01 805.66 707.02
00002913 00000109 536.72 206.15 471.57 661.49 723.19 427.43 897.01 485.98 796.31 588.95 667.75 657.81 804.67 708.43
00002914 00000110 535.52 208.88 471.46 657.38 721.08 426.96 895.98 486.01 794.93 590.42 665.87 657.98 804.16 708.99
00002915 00000111 537.03 213.58 469.62 647.95 719.84 428.80 896.03 488.42 793.22 592.95 664.33 657.99 803.14 709.48
00002916 00000112 536.45 221.09 467.31 632.27 713.02 431.66 889.60 489.27 790.05 593.94 664.86 656.86 799.35 707.15
00002917 00000113 535.70 220.23 467.56 632.40 710.22 432.88 888.98 491.57 787.61 594.92 662.93 657.42 797.98 708.52
00002918 00000114 535.19 222.89 465.73 630.93 708.87 433.58 886.56 493.58 785.11 594.97 660.54 657.64 795.97 709.74
00002919 00000115 535.86 223.15 465.28 632.13 706.99 439.48 884.14 499.05 781.43 594.23 659.75 658.51 793.99 709.87
00002920 00000116 535.66 223.87 465.46 631.15 704.74 441.42 883.02 499.68 779.40 596.75 659.01 660.13 793.27 710.42
00002921 00000117 535.65 226.96 463.37 629.77 706.00 439.99 883.43 500.28 779.44 597.84 658.29 660.66 792.03 712.50
00002922 00000118 534.71 227.07 466.28 634.22 706.46 440.34 884.67 502.50 780.00 600.80 658.56 662.13 793.24 715.35
00002923 00000119 534.13 230.60 468.62 633.86 706.10 442.32 884.74 504.10 779.75 604.14 659.05 665.33 793.22 718.24
00002924 00000120 533.89 230.95 469.49 634.28 705.76 442.70 884.97 503.98 779.98 605.81 659.60 667.50 793.06 720.03
00002925 00000121 533.74 231.90 469.69 634.19 705.91 443.14 884.54 504.60 779.49 606.05 659.37 667.68 792.33 720.38
00002926 00000122 533.11 232.31 470.10 633.33 705.74 443.64 885.01 505.27 779.82 606.04 658.63 667.72 792.42 720.61
00002927 00000123 532.65 229.94 469.58 636.01 705.67 441.65 885.15 505.26 779.12 604.99 655.08 664.10 793.23 718.77
00002928 00000124 530.41 230.33 471.75 641.11 704.86 439.15 885.43 504.79 778.37 604.66 650.55 662.53 793.57 719.07
00002929 00000125 530.27 229.83 471.34 637.23 704.44 437.53 886.41 504.56 777.44 603.67 648.32 659.10 792.97 716.89
00002930 00000126 530.24 229.90 469.37 632.72 704.77 436.92 886.26 503.62 778.04 603.39 649.90 657.74 792.39 715.28
00002931 00000127 530.04 226.20 468.79 634.92 702.66 434.53 884.59 498.99 777.14 601.88 649.91 655.78 794.56 711.68
00002932 00000128 529.20 228.81 467.93 630.33 698.34 431.69 881.43 494.18 771.54 600.30 647.44 655.35 791.74 709.78
00002933 00000129 523.62 223.24 469.73 633.69 688.79 429.17 874.16 490.03 762.66 596.88 640.83 655.02 786.19 708.10
00002934 00000130 518.80 219.35 471.99 640.15 676.53 425.55 866.93 488.16 748.23 594.98 630.77 655.06 778.67 709.79
00002935 00000131 508.50 225.59 476.22 642.63 675.13 431.50 856.47 491.58 737.41 597.08 616.40 658.65 769.21 709.92
00002936 00000132 500.08 239.67 471.91 641.22 660.98 444.78 846.02 506.16 725.65 611.20 606.47 670.72 764.99 722.89
00002937 00000133 501.57 250.75 467.87 650.85 658.63 465.14 843.83 528.56 723.69 634.34 606.98 693.07 760.14 747.15
00002938 00000134 496.31 262.49 470.98 661.24 659.90 486.33 839.32 548.27 722.51 651.83 606.42 711.60 754.64 765.34
00002939 00000135 494.19 275.34 474.66 660.84 660.73 502.64 837.77 562.07 723.37 670.42 608.44 722.59 754.58 774.13
00002940 00000136 499.32 280.56 470.62 665.06 652.76 501.37 841.36 561.21 724.01 681.03 605.75 724.16 763.95 777.09
00002941 00000137 499.11 275.37 477.90 667.08 670.03 498.06 850.89 553.93 740.13 674.70 613.21 723.83 765.25 771.02
00002942 00000138 504.93 260.59 474.34 669.98 678.47 489.87 860.88 540.20 754.38 668.38 630.24 725.75 770.81 768.29
00002943 00000139 519.08 256.19 468.72 664.65 682.53 489.82 875.28 539.89 759.97 666.29 642.82 730.44 782.39 774.35
00002944 00000140 524.32 250.50 468.19 671.77 691.18 492.54 882.72 541.57 770.52 672.37 650.68 734.42 789.28 777.55
00002945 00000141 521.79 253.71 474.54 676.58 695.82 502.69 884.30 551.46 775.00 679.39 652.02 738.37 791.16 781.45
00002946 00000142 518.50 275.90 471.59 661.12 695.83 508.44 878.66 565.66 776.27 683.67 649.60 733.83 792.90 783.98
00002947 00000143 512.68 276.36 476.80 678.05 705.71 513.09 875.84 568.21 777.13 692.57 640.89 735.19 794.68 783.40
00002948 00000144 512.51 276.99 476.50 673.45 706.75 514.71 874.87 569.53 777.77 693.13 640.91 730.91 795.98 778.86
00002949 00000145 510.56 273.13 484.69 658.88 700.50 509.66 879.86 567.14 775.01 682.96 647.69 728.59 793.99 778.15
00002950 00000146 511.03 267.19 484.11 659.16 700.98 503.55 882.51 559.76 777.85 676.55 650.67 727.23 794.46 775.62
00002951 00000147 528.00 254.11 464.18 661.97 699.88 501.31 887.77 549.87 782.30 680.09 655.89 728.75 800.76 771.67
00002952 00000148 529.26 250.42 464.34 667.22 703.88 496.35 890.44 545.99 787.30 676.43 658.30 727.05 803.23 770.95
00002953 00000149 530.16 251.06 465.20 667.53 706.40 495.89 891.73 544.97 788.62 675.66 660.51 726.60 804.00 770.14
00002954 00000150 529.77 254.91 467.43 661.97 707.20 496.22 891.93 546.81 788.07 676.53 659.73 726.30 801.86 771.07
00002955 00000151 528.54 255.61 469.62 667.28 708.16 496.07 891.98 548.00 787.81 676.68 657.72 726.84 800.67 772.77
00002956 00000152 527.46 255.28 469.81 666.84 706.97 495.84 891.76 547.79 787.52 676.57 656.62 726.78 799.73 772.81
00002957 00000153 527.99 251.87 466.94 666.11 704.06 493.95 891.26 545.29 786.79 675.20 654.99 724.98 801.47 770.49
00002958 00000154 527.99 248.17 465.24 667.01 702.53 493.22 890.21 543.91 785.98 673.58 654.66 723.02 802.38 767.93
00002959 00000155 527.04 250.03 464.69 661.67 700.83 492.51 889.05 543.40 784.41 673.30 653.26 721.35 802.01 766.34
00002960 00000156 523.92 252.86 465.68 659.85 699.62 492.70 886.75 543.85 781.53 673.14 651.99 721.02 798.54 766.15
00002961 00000157 522.50 250.46 462.82 659.09 691.96 492.09 882.93 543.22 774.33 671.87 645.83 720.11 794.93 765.20
00002962 00000158 507.39 255.29 471.83 664.59 689.50 486.77 871.90 541.74 770.72 660.26 640.31 719.72 787.06 767.50
00002963 00000159 502.47 265.19 467.79 650.52 676.33 485.83 864.76 529.60 762.92 659.19 637.39 722.16 781.87 758.90
00002964 DELETE   494.07 263.44 462.08 652.93 661.42 490.98 845.51 534.30 743.92 649.00 620.93 717.27 769.74 756.40
00002965 00000161 485.56 262.05 461.52 656.25 647.87 491.57 837.24 533.70 730.71 648.56 611.74 718.23 763.53 755.94
00002966 00000162 476.87 255.11 462.54 658.35 630.37 486.46 825.56 528.65 714.53 646.70 601.20 716.34 753.73 753.85
00002967 00000163 469.34 251.26 461.71 650.84 615.48 483.02 811.66 529.95 693.69 647.33 586.79 708.90 739.51 749.68
00002968 00000164 465.87 252.11 449.15 654.15 602.91 482.16 794.53 522.36 675.93 636.14 577.73 715.05 722.08 748.03
00002969 DELETE   462.81 265.65 439.71 636.38 579.86 485.37 769.22 521.26 649.42 628.73 558.71 709.49 704.37 739.93
00002970 DELETE   451.36 254.95 439.76 643.55 563.76 476.40 745.14 522.95 616.01 624.81 537.58 702.61 683.36 742.18
00002971 DELETE   444.66 239.99 437.71 666.02 540.31 475.95 727.64 522.99 582.51 619.49 518.39 701.94 665.96 743.28
00002972 00000168 435.61 246.06 437.13 659.82 530.09 477.71 714.69 525.47 568.10 619.05 509.69 702.82 654.70 744.04
00002973 DELETE   430.39 248.40 438.25 653.48 520.82 482.90 706.54 526.73 561.58 621.29 505.79 706.67 647.58 744.44
00002974 00000170 426.50 253.61 432.58 642.95 514.30 479.17 693.41 523.95 555.08 631.91 506.71 707.00 640.17 745.03
