Video ID: 	n4LSCxzFr6o
H: 	1080
W: 	1920
FPS: 	25.0

FRAME INDEX X0 Y0 W H [Landmarks (5 Points)]

00003344 00000000 785.61 124.45 465.67 722.28 882.93 406.13 1111.51 411.83 974.02 526.98 886.01 663.37 1075.98 669.07
00003345 DELETE   773.06 142.50 468.85 723.02 871.95 418.91 1111.94 434.84 966.90 552.37 878.21 689.72 1067.82 701.07
00003346 DELETE   768.67 145.70 472.23 757.42 862.60 442.17 1101.40 453.79 954.78 585.68 875.12 724.30 1059.05 733.80
00003347 00000003 759.27 164.27 474.72 754.76 852.15 461.24 1092.46 471.55 948.40 608.25 864.74 740.96 1056.46 749.98
00003348 00000004 754.39 166.38 484.14 750.63 848.66 466.19 1090.49 478.83 942.98 614.37 859.68 740.42 1052.14 750.96
00003349 00000005 753.50 162.02 489.83 740.16 851.02 460.48 1092.70 474.71 946.77 606.45 858.12 724.95 1058.27 736.28
00003350 00000006 755.30 146.95 481.77 747.43 850.23 451.74 1091.58 462.51 947.62 596.26 864.35 719.50 1061.05 728.40
00003351 00000007 755.87 145.75 487.38 745.78 854.47 444.55 1097.11 456.72 952.94 589.16 865.04 707.94 1070.48 717.97
00003352 00000008 760.05 139.94 484.76 762.18 860.77 438.25 1101.32 446.21 957.66 579.93 875.01 709.44 1076.46 715.70
00003353 00000009 763.68 131.46 475.60 774.94 867.11 433.90 1101.59 440.28 964.08 575.98 883.31 709.07 1077.88 713.60
00003354 00000010 766.30 136.06 464.78 763.39 871.70 431.56 1104.92 440.61 970.18 575.15 884.12 701.76 1081.09 708.28
00003355 00000011 769.20 132.56 464.74 750.32 874.62 433.15 1110.19 447.58 972.57 578.20 880.19 692.03 1087.60 702.52
00003356 00000012 775.46 140.29 464.02 741.49 876.14 433.35 1112.16 451.50 972.22 584.36 881.94 689.82 1090.51 703.55
00003357 00000013 784.15 139.95 457.14 742.01 884.57 432.11 1114.36 449.64 977.02 582.51 890.27 692.17 1088.19 706.02
00003358 00000014 788.17 139.44 459.11 742.97 890.95 433.06 1115.25 447.06 981.35 577.34 899.59 693.97 1087.14 704.86
00003359 00000015 797.10 140.09 455.30 730.72 884.06 437.26 1123.83 445.57 977.29 568.26 894.76 688.50 1095.82 696.22
00003360 00000016 797.80 137.42 461.10 723.94 888.20 429.89 1124.54 434.56 978.39 557.02 899.26 678.13 1099.49 683.01
00003361 00000017 800.90 141.66 458.38 722.69 888.15 430.05 1123.89 432.59 977.30 553.87 903.16 682.64 1098.53 685.64
00003362 00000018 803.08 141.92 457.08 724.65 888.58 431.43 1125.70 432.04 979.54 556.60 907.10 686.35 1101.29 687.67
00003363 00000019 802.83 140.61 450.70 729.51 887.25 436.99 1123.40 437.24 977.55 563.43 903.59 689.16 1101.07 689.79
00003364 00000020 802.44 139.51 451.13 729.29 885.16 440.95 1123.92 438.70 977.87 569.94 902.47 689.34 1109.11 687.43
00003365 00000021 806.35 141.02 453.02 735.81 889.92 435.86 1124.70 435.18 989.70 576.46 908.50 690.74 1113.60 689.84
00003366 00000022 806.09 148.97 458.47 736.74 892.62 446.25 1120.07 442.94 985.19 584.49 916.20 702.72 1108.87 699.63
00003367 00000023 805.54 149.55 459.83 738.90 891.52 451.79 1117.31 446.28 984.71 590.30 921.47 708.21 1110.75 703.52
00003368 00000024 809.51 152.11 460.29 734.58 887.75 451.01 1121.35 444.94 990.91 594.75 921.69 709.11 1121.25 703.74
00003369 00000025 810.70 153.85 460.89 730.77 888.38 454.04 1121.90 445.74 990.72 594.02 921.38 706.38 1125.63 699.05
00003370 00000026 812.37 154.86 458.35 725.08 890.01 454.93 1122.54 446.99 991.76 594.19 921.62 704.25 1125.00 697.12
00003371 00000027 815.40 154.92 454.94 721.48 891.84 455.38 1125.48 448.59 993.39 594.92 921.18 703.59 1124.64 697.41
00003372 00000028 814.18 165.65 455.48 708.08 901.96 458.28 1131.73 453.43 1002.46 594.26 925.86 698.84 1130.43 693.52
00003373 00000029 816.31 169.07 458.18 709.37 905.87 460.65 1134.14 453.87 1006.54 596.14 931.96 699.81 1136.44 692.90
00003374 00000030 816.88 171.61 463.06 712.08 907.54 459.74 1135.43 452.52 1007.91 595.94 933.31 702.55 1138.07 695.45
00003375 00000031 816.19 169.87 459.79 714.59 907.63 458.46 1133.92 450.73 1006.80 592.80 932.11 698.85 1138.29 691.05
00003376 00000032 814.04 167.82 463.37 720.58 905.12 458.27 1132.13 447.33 1003.81 591.30 932.17 698.79 1142.12 688.13
00003377 00000033 811.83 163.09 462.78 729.11 900.95 458.15 1127.12 445.90 998.26 591.52 931.19 701.85 1137.42 690.27
00003378 00000034 806.84 159.62 463.12 732.19 896.70 456.82 1123.45 446.07 994.28 594.57 930.71 705.70 1130.99 695.64
00003379 00000035 805.26 159.71 461.98 729.75 894.24 457.17 1122.67 446.43 993.27 595.60 927.72 704.66 1130.84 694.31
00003380 00000036 806.95 156.06 463.50 728.95 887.73 454.77 1123.31 446.33 993.03 597.86 922.04 705.95 1130.30 698.32
00003381 00000037 807.09 157.65 462.60 727.74 887.25 458.80 1121.83 450.52 992.37 599.80 919.70 706.16 1128.14 698.66
00003382 00000038 807.13 159.92 464.74 724.71 887.64 460.78 1123.11 453.54 992.09 604.53 917.93 705.93 1128.92 699.47
00003383 00000039 806.84 161.73 467.02 723.93 887.59 462.56 1121.84 455.35 990.97 608.20 918.04 706.97 1129.49 700.59
00003384 00000040 812.80 161.08 466.33 724.47 893.40 461.43 1126.65 455.84 994.73 606.56 923.20 707.85 1130.90 702.62
00003385 00000041 811.53 161.43 462.66 723.30 904.11 455.25 1131.81 448.32 1003.66 593.29 932.80 704.31 1130.98 697.95
00003386 00000042 814.36 160.66 460.58 733.72 914.99 453.26 1138.79 447.47 1016.41 586.69 935.35 698.74 1142.67 692.75
00003387 00000043 817.60 164.10 457.05 726.31 921.01 457.54 1139.16 454.25 1020.46 582.11 935.18 691.34 1148.08 686.62
00003388 00000044 819.71 166.36 456.73 715.76 922.82 463.06 1145.51 463.51 1021.86 585.43 931.29 685.17 1151.33 683.60
00003389 00000045 815.76 162.47 452.87 719.09 906.37 460.40 1140.22 460.17 1008.30 590.21 916.32 684.78 1144.98 683.56
00003390 00000046 812.33 163.90 453.84 710.20 898.52 461.04 1131.79 457.19 1000.44 595.15 914.68 688.13 1137.07 683.87
00003391 00000047 807.23 160.72 452.55 705.52 893.13 453.40 1126.59 449.97 998.05 589.92 912.53 686.11 1131.10 682.32
00003392 00000048 805.87 156.31 453.18 698.18 890.32 445.42 1124.76 441.57 995.13 579.94 911.32 678.62 1129.44 674.29
00003393 00000049 801.90 157.56 457.11 695.29 888.53 443.06 1121.69 438.46 991.74 576.45 909.85 676.20 1129.10 671.28
00003394 00000050 798.50 156.99 456.25 702.53 887.19 440.39 1118.46 436.80 989.55 575.70 907.79 675.39 1126.59 671.43
00003395 00000051 795.69 159.55 457.23 703.92 882.49 443.36 1114.34 437.51 984.38 581.13 906.28 677.65 1128.26 671.92
00003396 00000052 781.36 164.76 464.11 696.82 884.02 454.74 1109.42 452.20 985.24 586.13 900.50 672.50 1124.10 668.04
00003397 00000053 779.39 163.22 464.67 697.54 880.70 452.33 1103.97 451.06 978.94 583.43 895.71 670.14 1118.27 666.45
00003398 00000054 776.27 162.62 462.10 701.03 876.93 450.39 1098.80 447.28 976.43 580.10 893.43 674.80 1112.30 669.67
00003399 00000055 775.92 161.92 457.36 706.65 875.20 450.59 1096.33 446.56 974.78 582.82 897.99 686.64 1104.27 680.59
00003400 00000056 775.69 161.51 451.68 708.45 874.83 451.04 1092.45 446.99 973.37 584.40 900.36 689.13 1099.05 683.15
00003401 00000057 775.15 165.37 450.97 697.43 873.51 451.50 1090.56 449.00 971.23 582.22 895.09 684.28 1095.30 679.64
00003402 00000058 776.15 162.06 452.45 706.48 873.62 451.49 1091.05 448.05 970.64 582.97 896.46 687.93 1096.88 682.44
00003403 00000059 778.05 160.51 451.58 717.20 874.57 448.63 1094.61 445.67 970.87 582.60 901.08 697.55 1095.08 692.43
00003404 00000060 774.84 164.84 450.47 701.38 872.52 450.50 1091.90 448.02 969.85 583.04 893.11 688.91 1094.15 684.27
00003405 00000061 772.91 168.27 456.90 690.74 869.80 450.96 1090.88 448.10 966.92 580.77 883.55 675.49 1101.14 670.83
00003406 00000062 771.43 171.42 458.04 693.07 867.94 452.52 1087.51 447.61 965.17 581.63 881.65 673.74 1104.02 667.26
00003407 00000063 770.91 168.15 460.03 712.69 868.78 455.19 1087.29 449.17 965.00 586.65 885.74 684.83 1103.57 677.34
00003408 00000064 769.71 169.40 454.17 709.64 869.38 458.78 1085.30 452.35 966.67 590.70 892.03 691.45 1098.73 683.78
00003409 00000065 772.01 171.45 454.30 690.50 868.49 457.60 1085.32 453.67 965.19 590.06 889.51 683.54 1097.54 677.98
00003410 00000066 772.25 170.25 452.75 685.92 869.34 456.26 1087.92 453.78 967.16 586.90 888.27 682.19 1096.14 678.04
00003411 00000067 774.15 165.85 453.53 683.45 869.96 454.74 1090.45 451.16 969.64 583.89 886.21 676.86 1100.08 671.94
00003412 00000068 772.64 168.82 455.08 682.56 868.88 455.28 1089.81 449.98 969.69 581.50 882.26 669.47 1104.84 663.23
00003413 00000069 771.62 167.35 459.71 690.25 870.50 456.00 1091.47 450.98 971.46 583.79 881.89 665.91 1109.97 659.48
00003414 00000070 769.87 166.70 459.99 690.78 868.45 458.69 1090.97 453.03 970.93 588.51 881.91 670.52 1110.48 663.49
00003415 00000071 770.18 169.33 459.39 685.62 867.06 460.34 1088.93 454.66 969.15 590.52 881.32 673.46 1106.57 666.77
00003416 00000072 770.24 170.82 457.24 692.90 866.87 460.62 1086.51 454.08 967.88 591.57 884.45 682.05 1101.91 674.71
00003417 00000073 770.21 168.49 453.76 702.03 866.16 458.58 1083.99 452.84 965.00 592.51 890.09 693.00 1094.37 686.10
00003418 00000074 768.87 167.60 451.92 699.77 864.75 457.43 1083.52 451.77 964.89 592.84 888.74 691.99 1092.47 685.52
00003419 00000075 770.16 166.65 451.72 692.23 864.41 456.82 1083.61 452.13 963.63 589.86 883.70 685.95 1091.58 680.47
00003420 00000076 768.64 161.53 451.70 690.48 859.80 451.74 1082.91 447.95 961.13 583.70 875.01 677.60 1091.34 672.70
00003421 00000077 767.70 161.19 450.16 695.82 857.77 449.86 1079.54 445.63 956.73 582.62 874.51 680.92 1086.22 675.42
00003422 00000078 766.02 162.17 462.51 716.94 859.69 457.45 1075.36 452.51 950.17 595.35 884.55 699.42 1082.49 693.40
00003423 DELETE   769.69 178.28 461.27 719.08 857.78 470.55 1079.72 471.32 950.23 619.21 882.22 710.98 1082.51 710.53
00003424 00000080 762.84 191.73 461.60 713.38 854.91 487.65 1074.03 489.46 948.99 634.86 873.28 722.50 1076.02 722.50
00003425 DELETE   763.09 187.53 458.30 709.05 855.19 475.00 1071.44 481.96 942.19 621.82 869.54 711.34 1071.44 715.49
00003426 DELETE   768.64 163.24 462.58 727.07 863.00 458.58 1077.23 467.98 943.22 602.05 873.52 699.19 1075.78 704.89
00003427 00000083 773.66 168.79 455.12 714.60 869.75 450.94 1083.09 460.20 951.08 590.50 878.09 692.23 1080.12 697.99
00003428 00000084 775.75 155.38 454.45 723.54 876.85 449.62 1094.59 460.61 964.77 589.70 881.39 683.82 1093.91 691.14
00003429 00000085 778.27 164.30 462.72 716.78 881.73 452.08 1098.89 463.92 971.00 597.85 884.04 683.94 1096.31 692.36
00003430 00000086 780.61 170.80 463.21 708.48 880.57 457.54 1099.40 469.43 969.80 605.80 887.19 686.34 1100.31 694.45
00003431 00000087 781.61 170.36 462.00 704.64 883.37 455.15 1101.17 467.20 973.05 600.82 887.99 683.10 1099.98 691.66
00003432 00000088 789.31 163.10 460.84 715.56 875.92 455.16 1103.94 460.32 967.64 598.15 887.14 688.56 1102.08 692.02
00003433 00000089 787.36 165.18 450.59 705.06 889.63 448.20 1104.86 458.09 978.38 588.78 892.08 674.24 1104.29 681.05
00003434 00000090 788.26 164.91 457.87 708.17 892.47 446.37 1110.64 457.06 981.91 587.16 893.01 667.80 1113.60 675.21
00003435 00000091 794.90 157.86 457.89 713.45 885.88 444.62 1114.32 449.59 979.53 585.61 893.45 671.70 1120.55 674.86
00003436 00000092 798.10 160.42 456.10 704.32 886.46 446.70 1115.78 451.11 980.66 587.85 895.53 670.43 1124.05 673.15
00003437 00000093 799.96 166.28 457.91 700.96 887.95 447.34 1116.16 456.16 980.21 595.15 894.08 672.73 1120.54 679.59
00003438 00000094 804.16 163.53 456.26 721.79 890.75 451.43 1117.73 459.96 982.65 601.12 897.74 684.08 1120.18 690.74
00003439 00000095 802.76 169.67 456.88 722.81 900.81 456.68 1119.38 471.42 980.17 602.98 900.60 679.89 1121.01 690.59
00003440 00000096 802.96 171.23 459.14 722.49 902.05 455.76 1119.60 467.71 982.37 598.92 903.45 678.96 1126.13 686.92
00003441 00000097 804.05 163.05 455.99 722.94 891.58 453.05 1116.51 457.76 983.45 600.98 902.38 683.61 1125.21 687.09
00003442 00000098 804.44 164.88 457.24 720.16 891.31 453.67 1114.84 461.42 979.41 604.90 901.32 684.46 1120.75 690.34
00003443 00000099 806.62 165.44 457.13 724.75 894.30 454.77 1115.33 465.46 980.55 606.29 903.09 684.22 1120.55 692.37
00003444 00000100 807.04 172.30 452.27 718.25 901.77 458.72 1117.27 474.63 978.25 603.99 900.45 679.64 1118.02 691.56
00003445 00000101 805.13 173.81 459.14 715.02 902.86 456.39 1120.66 472.19 980.92 602.95 899.64 675.68 1124.44 687.05
00003446 00000102 805.70 173.37 459.26 718.19 905.39 455.60 1123.34 471.17 982.45 602.48 900.73 673.55 1130.24 684.30
00003447 00000103 807.69 170.31 455.11 718.24 908.61 457.56 1125.60 470.27 993.71 605.10 908.09 672.91 1135.76 680.98
00003448 00000104 808.95 171.28 465.61 720.40 903.23 459.04 1125.24 469.79 992.27 604.93 904.66 672.53 1138.41 680.61
00003449 00000105 813.75 166.99 460.73 715.77 906.11 456.87 1129.80 467.78 994.85 603.34 906.40 670.44 1138.73 678.72
00003450 00000106 815.59 167.17 460.47 703.71 906.48 453.67 1133.02 462.36 997.18 598.01 908.74 670.61 1136.68 677.22
00003451 00000107 816.33 162.51 460.74 708.39 908.96 448.65 1136.34 457.59 999.76 588.98 908.46 670.96 1133.43 677.49
00003452 00000108 817.18 163.27 459.83 711.03 912.52 445.87 1141.94 457.46 1004.59 584.63 909.59 675.71 1130.39 684.26
00003453 00000109 826.42 166.57 451.14 710.74 923.53 451.10 1145.20 462.37 1013.00 592.35 919.55 680.54 1137.78 688.46
00003454 00000110 826.65 168.73 455.64 714.62 928.22 454.25 1150.17 472.16 1017.11 604.03 922.87 682.40 1142.64 695.71
00003455 00000111 827.29 173.84 450.83 712.40 930.58 455.68 1152.24 475.01 1021.41 607.82 923.47 684.60 1144.89 699.45
00003456 00000112 828.49 169.96 455.08 710.99 931.58 453.43 1156.84 476.20 1021.94 608.74 921.35 682.79 1144.19 700.56
00003457 00000113 827.61 169.14 456.53 710.01 925.01 449.37 1156.01 476.50 1014.15 596.79 913.00 680.13 1134.86 700.73
00003458 00000114 824.84 169.47 461.49 700.60 921.47 447.00 1153.92 472.50 1010.90 591.34 910.33 675.34 1134.14 694.52
00003459 00000115 824.94 170.64 457.67 697.91 920.72 442.44 1152.38 463.60 1011.29 586.84 911.05 671.90 1135.20 687.85
00003460 00000116 824.24 172.14 461.08 699.81 923.56 441.83 1154.58 464.67 1014.49 591.83 912.84 671.16 1138.92 688.60
00003461 00000117 829.30 171.86 461.83 699.10 931.37 445.43 1158.93 469.90 1021.57 603.84 920.01 668.01 1153.31 686.84
00003462 00000118 831.08 176.48 461.93 698.21 933.12 449.19 1160.40 475.60 1023.34 609.87 920.30 666.48 1159.29 686.80
00003463 00000119 831.76 177.36 461.54 696.39 933.85 449.17 1162.07 475.08 1025.54 608.65 920.21 664.63 1162.33 684.44
00003464 00000120 832.41 178.32 461.32 695.53 935.35 447.52 1162.56 473.29 1027.48 606.99 921.26 662.40 1164.63 682.11
00003465 00000121 832.05 178.02 458.79 693.33 934.89 450.32 1160.57 477.68 1025.77 609.22 921.15 662.57 1162.39 683.32
00003466 00000122 822.86 175.42 467.18 708.07 924.06 450.01 1154.80 478.55 1014.35 606.22 909.24 666.45 1151.59 688.34
00003467 00000123 818.53 179.78 467.96 712.14 919.34 457.66 1144.60 484.97 1005.17 613.71 903.97 669.88 1142.30 691.09
00003468 00000124 811.76 183.40 465.74 711.37 910.69 459.34 1136.19 485.25 994.51 619.78 897.43 671.24 1135.87 692.03
00003469 DELETE   805.52 189.21 465.04 702.55 902.86 459.23 1126.92 484.44 985.74 617.10 892.56 671.12 1127.45 691.54
00003470 00000126 796.59 185.46 464.56 700.50 897.32 460.36 1117.48 487.86 977.46 614.04 884.86 671.57 1116.82 693.22
00003471 DELETE   786.45 184.95 463.14 699.33 887.58 463.87 1108.60 488.31 971.24 616.55 876.05 674.98 1105.24 694.91
00003472 DELETE   769.67 197.30 457.84 689.99 874.20 461.19 1096.86 486.25 968.18 625.81 863.50 675.52 1101.80 695.04
00003473 00000129 765.74 199.05 451.99 690.07 866.48 463.35 1087.71 486.43 959.20 627.45 857.55 682.52 1090.90 700.56
00003474 00000130 757.76 198.01 453.59 691.18 858.51 468.74 1079.14 487.24 950.16 625.77 852.00 687.91 1080.07 702.12
00003475 DELETE   749.76 198.07 455.84 691.37 847.84 474.87 1071.88 494.03 937.01 631.88 840.87 689.38 1068.36 704.06
00003476 DELETE   739.93 196.15 464.21 699.31 836.88 474.48 1058.24 493.86 921.01 634.34 833.02 687.16 1057.67 702.62
00003477 00000133 735.54 200.76 457.20 692.96 831.10 481.53 1049.26 499.17 915.34 638.96 832.07 698.40 1050.03 712.32
00003478 00000134 733.41 198.03 453.54 701.88 827.97 489.62 1049.63 506.72 910.91 645.25 832.46 711.80 1045.04 725.17
00003479 DELETE   733.70 200.04 447.73 702.29 826.28 499.25 1049.94 515.09 910.49 652.87 833.10 725.25 1039.07 738.06
00003480 00000136 744.07 192.76 432.59 716.82 835.70 504.91 1059.38 531.47 918.41 656.97 834.31 732.87 1031.99 753.25
00003481 00000137 749.45 199.07 426.91 718.10 839.72 505.75 1061.24 530.36 923.09 659.61 837.93 742.16 1026.08 761.54
00003482 00000138 749.92 204.02 431.90 720.67 840.81 500.48 1062.97 523.34 925.83 658.51 838.69 746.46 1025.91 764.52
00003483 00000139 754.11 207.96 437.30 717.52 845.70 497.91 1068.61 520.38 931.37 656.28 842.65 746.28 1031.51 763.81
00003484 00000140 755.32 211.43 441.03 717.70 849.43 495.52 1074.93 519.70 937.49 657.05 842.96 745.26 1037.54 764.15
00003485 00000141 758.00 210.93 436.71 722.20 851.76 494.32 1077.43 518.97 940.27 657.34 843.31 744.89 1042.11 764.15
00003486 00000142 757.92 211.34 438.64 723.04 854.00 493.05 1079.53 519.04 941.81 657.78 844.18 744.08 1043.98 764.44
00003487 00000143 757.33 212.06 437.25 722.39 853.79 491.97 1079.54 518.07 941.25 657.08 844.53 744.47 1043.90 764.95
00003488 00000144 754.84 208.78 440.12 727.47 852.73 491.49 1079.57 518.24 941.17 658.17 841.28 742.61 1043.76 763.82
00003489 00000145 752.31 206.35 441.77 731.14 850.62 490.47 1078.87 518.09 938.40 658.19 838.24 741.75 1042.02 763.66
00003490 00000146 750.24 202.99 442.29 736.72 848.38 492.44 1076.04 521.45 934.26 659.43 834.32 741.82 1038.03 764.75
00003491 00000147 746.67 202.89 444.27 734.67 845.66 492.56 1072.80 520.66 930.19 659.35 832.39 740.69 1034.69 763.00
00003492 00000148 741.07 199.70 446.68 736.77 840.54 493.72 1066.39 521.04 923.92 658.78 829.78 739.57 1029.74 761.38
00003493 00000149 739.85 200.41 442.40 734.40 837.31 493.30 1061.70 521.17 921.78 658.29 826.92 738.70 1026.67 761.11
00003494 00000150 737.66 200.01 442.03 730.42 824.63 495.07 1058.36 521.63 910.22 655.59 821.07 743.35 1026.37 766.84
00003495 00000151 736.30 199.07 442.63 729.68 823.68 493.83 1056.56 519.31 909.18 653.97 819.76 741.53 1025.74 764.10
00003496 00000152 734.75 200.22 446.23 730.32 823.18 492.06 1054.65 518.26 905.70 652.80 819.90 740.93 1023.78 763.97
00003497 00000153 732.93 201.12 442.71 728.50 821.49 490.10 1053.27 515.66 903.33 650.50 819.51 741.48 1022.41 763.99
00003498 00000154 733.47 196.94 442.10 733.84 820.98 487.43 1053.00 514.63 901.30 648.75 817.74 740.23 1019.15 764.37
00003499 00000155 731.58 191.49 439.86 738.27 820.17 485.40 1051.57 514.40 897.95 647.02 815.51 737.28 1016.31 762.85
00003500 00000156 729.20 190.16 439.54 743.96 825.86 488.07 1043.35 516.79 904.01 649.36 821.89 732.15 1023.17 754.75
00003501 00000157 735.79 188.92 436.49 740.13 825.02 492.11 1051.69 525.87 895.40 639.56 814.89 732.74 1018.87 761.80
00003502 00000158 731.57 183.96 437.77 740.52 821.83 487.58 1046.28 516.46 892.82 638.03 815.43 729.54 1018.28 754.39
00003503 00000159 731.34 185.90 441.14 733.18 821.33 482.67 1047.21 512.23 893.81 636.41 816.12 726.17 1019.71 751.57
00003504 00000160 732.10 186.27 443.20 728.28 822.25 479.89 1047.79 509.05 896.33 636.11 818.36 724.41 1018.25 749.81
00003505 00000161 732.03 185.61 444.80 730.51 820.84 479.72 1048.69 508.18 896.75 636.21 817.32 725.97 1018.66 750.86
00003506 00000162 732.37 185.94 444.76 729.60 820.54 479.70 1048.53 507.09 896.49 635.23 818.25 726.23 1018.91 750.21
00003507 00000163 732.98 187.06 443.44 728.27 820.99 478.44 1046.91 504.64 895.84 633.53 819.11 724.86 1017.71 747.91
00003508 00000164 732.93 185.54 446.65 729.44 820.76 476.63 1046.96 501.34 895.95 632.67 819.87 725.44 1016.79 747.41
00003509 00000165 733.26 183.66 447.80 729.32 820.99 474.70 1047.02 499.38 897.09 632.35 820.03 723.94 1017.14 745.97
00003510 00000166 732.74 182.95 446.92 729.99 820.22 474.92 1046.83 499.43 895.85 632.34 820.26 724.69 1016.62 746.54
00003511 00000167 732.96 182.40 442.76 730.90 819.99 475.22 1047.06 500.20 895.43 632.10 819.33 725.06 1015.68 747.23
