Video ID: 	4iXDuMdHxtc
H: 	1080
W: 	1920
FPS: 	25.0

FRAME INDEX X0 Y0 W H [Landmarks (5 Points)]

00007406 00000000 937.09 288.85 410.77 546.38 1005.41 406.69 1186.88 447.65 1019.93 545.54 980.73 645.47 1140.15 679.36
00007407 DELETE   937.05 289.17 410.81 545.56 1004.66 406.83 1186.26 447.63 1019.34 545.88 981.01 645.10 1140.48 678.85
00007408 00000002 941.56 302.01 411.45 533.49 1011.79 410.45 1190.70 451.61 1025.12 550.15 986.57 645.07 1143.06 679.01
00007409 00000003 944.52 297.42 406.27 539.64 1014.51 411.61 1192.53 451.94 1029.04 551.68 990.40 645.55 1146.11 679.16
00007410 00000004 945.09 295.89 408.73 541.47 1014.57 414.18 1194.01 454.60 1028.57 552.95 991.07 645.76 1148.79 679.75
00007411 00000005 944.93 294.62 408.57 542.16 1012.92 414.71 1194.21 453.72 1029.50 553.18 991.61 646.73 1150.69 679.55
00007412 00000006 944.47 292.65 410.68 546.38 1014.14 415.35 1194.45 453.59 1029.48 552.50 992.57 647.49 1150.66 679.60
00007413 00000007 945.10 293.99 410.09 545.44 1014.03 416.65 1196.43 453.77 1031.83 552.87 992.83 649.43 1151.25 680.80
00007414 00000008 946.27 293.09 410.69 546.53 1014.86 417.90 1196.78 454.89 1031.86 553.39 993.54 649.53 1151.59 680.89
00007415 00000009 946.68 298.92 411.67 539.78 1014.98 417.70 1198.08 454.27 1033.64 553.19 992.52 650.34 1151.62 681.38
00007416 00000010 947.47 298.23 417.29 539.12 1015.56 418.41 1199.03 455.91 1032.08 553.74 992.49 650.31 1151.12 682.16
00007417 00000011 948.93 296.28 414.45 542.35 1017.93 419.02 1202.00 457.64 1035.11 554.25 994.91 650.81 1154.26 683.75
00007418 00000012 950.57 291.43 413.52 546.25 1021.84 419.56 1206.24 461.61 1037.45 555.01 996.26 649.43 1156.23 685.06
00007419 00000013 951.14 290.33 413.62 548.34 1025.09 419.44 1212.94 462.53 1044.79 555.40 996.57 649.30 1158.97 685.64
00007420 00000014 945.35 274.57 421.11 566.38 1031.93 418.02 1220.66 455.81 1049.09 553.92 996.93 647.27 1161.15 677.66
00007421 00000015 952.99 289.89 420.88 550.00 1028.15 419.19 1220.18 465.94 1049.82 557.33 997.08 648.63 1163.05 687.87
00007422 00000016 952.58 296.35 419.40 542.34 1027.68 423.34 1219.86 468.61 1049.82 558.55 996.43 650.59 1162.63 688.75
00007423 00000017 951.02 293.34 424.15 546.75 1030.09 426.09 1223.02 471.62 1052.36 559.15 997.93 651.95 1163.86 690.20
00007424 00000018 945.53 276.50 427.92 566.15 1036.78 423.41 1230.71 464.94 1056.33 556.55 998.21 648.45 1166.95 681.96
00007425 00000019 946.91 273.71 430.49 568.51 1037.87 424.86 1232.42 466.80 1058.17 556.96 1000.74 647.84 1170.25 681.61
00007426 00000020 947.50 269.45 428.55 572.89 1038.09 426.06 1234.05 467.41 1059.42 557.65 1002.11 648.76 1172.94 682.02
00007427 00000021 947.43 273.86 427.53 568.07 1039.74 427.20 1234.50 468.40 1060.48 558.49 1003.49 648.86 1173.99 681.90
00007428 00000022 953.90 285.61 425.91 555.04 1034.08 431.15 1230.01 473.60 1059.01 559.55 1004.87 653.51 1175.37 689.13
00007429 00000023 953.55 288.36 427.42 552.13 1034.49 430.76 1231.80 473.23 1060.87 558.81 1004.65 651.96 1177.27 687.73
00007430 00000024 953.75 286.87 427.27 554.25 1035.18 429.00 1233.60 471.24 1063.20 558.73 1005.47 650.23 1180.45 685.84
00007431 00000025 953.19 284.84 429.39 554.74 1034.34 430.41 1233.36 472.79 1063.57 559.68 1005.61 649.42 1181.63 685.17
00007432 00000026 953.53 287.26 427.34 552.00 1034.30 430.44 1232.65 473.14 1063.63 559.94 1005.74 649.05 1181.27 685.13
00007433 00000027 952.37 289.23 427.83 549.90 1034.52 431.06 1233.71 471.32 1066.04 560.19 1006.30 649.74 1182.77 683.72
00007434 00000028 954.91 291.05 424.45 546.54 1035.03 431.49 1233.78 470.26 1066.32 560.17 1007.57 651.34 1182.53 684.28
00007435 00000029 954.64 291.32 423.55 547.51 1034.44 434.78 1233.75 472.41 1066.28 561.20 1008.07 653.76 1183.59 685.63
00007436 00000030 961.19 280.12 421.87 571.19 1040.37 434.18 1231.63 473.46 1063.02 558.99 1016.04 656.61 1188.13 688.70
00007437 00000031 954.94 285.52 428.03 560.36 1034.13 435.25 1235.49 473.03 1063.95 562.09 1007.28 658.84 1184.39 690.53
00007438 00000032 962.53 285.43 424.64 574.07 1040.72 434.78 1233.11 477.72 1059.97 560.08 1013.40 657.21 1190.57 692.47
00007439 00000033 954.93 293.17 428.49 560.70 1035.23 440.47 1238.08 476.78 1063.90 565.46 1007.41 662.06 1188.49 693.14
00007440 00000034 954.14 292.70 428.26 561.02 1035.93 442.12 1238.08 478.21 1065.31 567.04 1008.42 661.49 1189.31 692.50
00007441 00000035 950.88 291.31 429.42 558.86 1035.07 443.26 1236.94 480.42 1065.89 566.03 1006.12 659.46 1186.88 691.62
00007442 00000036 949.37 297.16 422.53 549.99 1033.80 439.68 1233.33 479.22 1064.36 564.66 1002.37 654.84 1183.27 689.48
00007443 00000037 947.02 290.65 421.73 555.79 1030.90 436.39 1229.47 476.99 1062.39 565.20 1001.71 652.54 1181.81 687.82
00007444 00000038 945.30 297.63 423.51 549.12 1030.56 440.34 1226.61 477.76 1061.83 565.71 1001.37 654.45 1179.20 687.25
00007445 00000039 948.57 303.15 417.53 549.95 1028.80 443.91 1222.26 476.61 1060.66 566.80 1002.86 659.97 1180.13 688.95
00007446 00000040 950.14 308.29 414.07 552.87 1029.15 446.51 1219.20 476.69 1058.02 568.51 1004.37 663.99 1181.55 690.79
00007447 00000041 950.38 309.93 411.27 552.53 1028.99 446.62 1216.74 476.45 1057.00 568.58 1004.90 663.18 1183.05 689.68
00007448 00000042 949.79 313.09 412.09 548.80 1026.99 450.31 1213.58 478.33 1054.13 569.18 1004.47 663.96 1182.53 688.99
00007449 00000043 949.42 312.05 413.79 551.55 1026.03 450.14 1213.80 477.32 1054.00 569.34 1004.71 665.49 1181.53 689.64
00007450 00000044 947.17 313.80 416.56 542.26 1024.79 444.51 1213.85 476.28 1053.91 566.60 1000.71 663.16 1172.21 691.22
00007451 00000045 942.12 312.16 418.80 540.12 1021.34 441.72 1209.74 475.74 1048.34 563.86 993.19 667.70 1157.78 697.34
00007452 00000046 938.07 308.25 421.95 543.06 1019.33 441.94 1207.39 477.71 1046.10 563.39 990.20 667.83 1150.26 698.46
00007453 00000047 937.90 313.20 425.37 540.51 1020.63 440.42 1206.03 475.68 1044.03 561.24 990.61 667.75 1146.91 697.94
00007454 00000048 936.64 310.92 423.09 539.43 1018.65 442.12 1202.07 475.97 1041.66 560.33 989.37 664.66 1144.66 693.55
00007455 00000049 937.75 309.94 420.08 538.25 1017.68 439.24 1199.17 472.43 1038.42 557.29 987.58 660.13 1145.46 688.50
00007456 00000050 937.73 315.76 420.22 529.59 1013.98 437.85 1193.74 468.44 1034.31 555.09 986.29 658.68 1141.58 684.83
00007457 00000051 937.83 318.44 420.70 526.27 1014.17 437.98 1193.77 468.28 1034.33 555.05 986.16 658.64 1141.20 684.52
00007458 00000052 936.15 318.62 410.37 522.90 1009.15 436.25 1183.23 465.87 1032.32 554.34 986.25 652.64 1139.05 677.68
00007459 00000053 935.18 302.48 413.25 537.58 1007.17 433.91 1184.94 465.82 1031.12 555.74 986.02 650.34 1140.57 677.36
00007460 00000054 934.57 300.07 412.37 539.66 1006.48 432.15 1185.72 463.49 1032.11 554.27 986.62 648.77 1144.29 675.38
00007461 00000055 935.72 305.78 413.34 536.35 1005.62 434.64 1184.65 465.12 1030.57 556.01 987.44 654.77 1142.22 680.71
00007462 00000056 934.42 315.84 413.57 522.68 1006.20 437.75 1187.76 468.95 1031.60 557.66 982.16 657.40 1140.34 683.94
00007463 00000057 933.00 310.84 421.01 531.17 1007.17 439.21 1192.21 470.46 1033.03 558.83 981.73 661.18 1140.50 687.94
00007464 00000058 931.17 315.24 420.93 526.71 1008.80 439.99 1193.02 470.31 1036.95 557.46 982.33 660.17 1141.41 686.11
00007465 00000059 935.96 317.67 416.62 530.97 1014.18 436.71 1192.22 467.03 1039.50 556.05 989.27 655.38 1146.60 681.40
00007466 00000060 936.92 309.91 420.05 538.57 1016.27 433.83 1197.57 467.28 1042.61 557.25 991.30 651.36 1154.30 680.22
00007467 00000061 937.67 307.28 418.68 538.87 1016.77 433.19 1199.74 467.52 1044.26 557.95 991.95 649.48 1157.67 679.22
00007468 00000062 936.91 305.69 418.37 538.37 1016.27 433.20 1201.79 467.65 1046.14 558.20 991.99 649.02 1161.17 678.74
00007469 00000063 931.76 286.95 421.60 564.04 1020.67 424.69 1216.83 458.85 1051.62 556.35 988.29 652.28 1164.43 678.75
00007470 00000064 936.00 310.72 415.48 533.20 1019.59 437.13 1205.93 469.93 1053.49 560.00 994.34 647.79 1167.46 676.45
00007471 00000065 936.83 311.68 415.11 530.98 1022.19 438.18 1209.76 471.94 1057.31 561.07 995.00 646.98 1171.00 676.55
00007472 00000066 931.05 292.65 418.83 555.87 1024.82 426.92 1221.07 462.28 1057.27 557.37 989.43 650.07 1169.33 677.77
00007473 00000067 929.48 285.55 419.87 561.30 1025.33 426.32 1222.36 461.94 1058.73 556.28 989.36 649.22 1168.39 676.98
00007474 00000068 928.22 289.96 419.61 554.05 1023.02 427.07 1216.64 460.94 1056.84 555.76 989.78 647.18 1166.85 673.84
00007475 00000069 926.29 289.12 422.89 553.74 1022.46 428.00 1216.32 461.83 1056.86 554.52 989.55 646.38 1167.15 672.99
00007476 00000070 928.17 288.82 420.50 554.37 1022.73 429.55 1216.21 462.77 1057.11 554.42 989.95 647.46 1165.92 673.54
00007477 00000071 927.78 288.87 418.51 554.22 1022.34 429.42 1216.52 462.42 1057.62 554.64 989.65 648.42 1165.41 674.28
00007478 00000072 927.60 287.53 417.06 556.49 1022.84 430.94 1218.77 465.37 1058.88 556.36 989.12 650.01 1165.49 676.96
00007479 00000073 933.04 307.13 414.19 532.20 1019.40 441.42 1207.26 473.06 1060.18 563.06 994.60 649.74 1166.74 677.12
00007480 00000074 931.45 305.19 415.44 536.25 1018.70 442.19 1205.02 473.96 1059.59 563.30 994.44 650.60 1163.04 677.91
00007481 00000075 931.78 305.17 411.63 536.22 1017.83 440.11 1202.73 472.90 1059.18 563.29 992.73 651.67 1154.72 679.75
00007482 00000076 931.67 306.16 411.15 535.04 1017.48 440.17 1202.72 472.55 1059.49 563.27 992.76 651.87 1154.93 679.60
00007483 00000077 931.23 299.05 409.62 542.99 1014.36 441.09 1198.74 473.09 1052.50 560.00 988.36 654.70 1146.28 682.24
00007484 00000078 930.64 297.23 408.41 545.92 1013.44 439.57 1196.25 471.35 1050.14 559.09 987.17 657.31 1140.61 684.52
00007485 00000079 930.02 299.53 407.60 545.27 1011.23 438.91 1192.17 468.91 1046.79 557.53 985.78 659.05 1138.06 684.78
00007486 00000080 928.53 300.26 409.02 545.32 1009.78 439.13 1189.86 468.74 1044.33 557.28 984.14 660.72 1133.37 686.22
00007487 00000081 926.94 304.80 406.27 541.43 1008.32 438.64 1187.72 467.29 1044.52 556.36 982.95 661.77 1130.26 686.55
00007488 00000082 926.27 303.80 410.22 542.32 1007.37 437.10 1189.12 465.92 1043.53 555.64 980.94 663.65 1129.06 688.53
00007489 00000083 926.61 303.97 408.26 542.75 1005.92 437.29 1186.35 465.81 1040.93 553.97 979.86 665.51 1125.50 690.17
00007490 00000084 927.45 303.36 408.81 546.00 1005.76 436.86 1184.66 464.80 1037.95 553.03 978.73 667.15 1123.42 691.51
00007491 00000085 926.56 302.56 412.77 551.46 1005.57 436.32 1183.53 463.86 1035.50 551.93 979.36 668.59 1122.26 692.56
00007492 00000086 927.44 302.71 410.28 552.67 1005.81 436.23 1183.90 462.98 1036.64 552.71 980.13 669.10 1123.66 692.43
00007493 00000087 926.98 300.23 408.97 554.91 1005.83 436.45 1183.53 463.71 1037.16 552.58 980.37 668.27 1124.06 692.04
00007494 00000088 926.88 303.21 409.70 550.10 1006.45 435.85 1185.15 462.73 1037.85 552.45 980.38 666.95 1126.21 690.37
00007495 00000089 926.11 304.68 409.31 547.23 1005.72 435.33 1185.54 462.26 1038.23 553.03 980.21 666.45 1126.22 689.80
00007496 00000090 926.56 302.17 409.13 550.88 1005.56 434.40 1185.60 462.25 1038.39 553.17 980.43 666.32 1126.55 690.48
00007497 00000091 926.94 302.64 409.33 550.64 1005.36 434.12 1185.74 462.05 1037.91 553.53 980.48 666.69 1127.30 690.92
00007498 00000092 927.00 303.70 409.03 550.73 1005.19 434.59 1185.54 462.21 1037.16 554.27 980.02 667.03 1128.12 691.06
00007499 00000093 927.42 303.31 408.09 552.78 1005.19 434.70 1184.04 462.85 1036.15 554.91 979.80 666.92 1127.67 691.40
00007500 00000094 926.98 304.36 405.89 553.03 1004.13 436.09 1183.54 463.23 1035.09 555.61 978.80 668.18 1129.00 691.88
00007501 00000095 927.63 307.85 401.64 550.07 1002.81 437.88 1181.98 463.41 1033.54 556.22 979.05 669.76 1129.81 692.10
00007502 00000096 926.48 306.65 401.46 551.71 1002.62 437.86 1184.11 463.61 1034.66 556.95 978.71 670.67 1130.35 693.30
00007503 00000097 925.26 306.35 402.68 550.76 1001.43 436.59 1183.64 461.95 1033.39 556.90 978.90 669.61 1130.86 691.95
00007504 00000098 924.26 308.97 403.90 546.93 999.56 432.63 1185.29 459.06 1031.96 556.00 978.26 665.66 1136.52 688.77
00007505 00000099 914.78 291.91 414.44 559.91 1002.35 423.31 1198.02 457.93 1029.18 560.15 973.16 660.63 1135.98 688.20
00007506 00000100 916.29 289.22 413.28 557.61 1000.57 421.97 1194.67 455.10 1028.01 556.65 974.66 655.60 1140.25 681.89
00007507 00000101 916.00 289.34 412.59 558.05 1000.05 422.14 1194.32 455.07 1028.20 556.99 974.75 656.03 1140.34 682.17
00007508 00000102 912.14 286.71 417.51 558.48 993.59 422.98 1186.04 452.48 1022.76 554.12 974.21 653.94 1141.50 677.22
00007509 00000103 909.33 291.20 421.20 552.73 989.85 423.34 1183.04 451.60 1018.84 551.66 971.27 652.62 1140.02 674.86
00007510 00000104 907.19 291.69 420.97 549.97 986.13 424.38 1180.75 452.28 1014.88 548.85 968.86 653.64 1134.62 675.89
00007511 00000105 907.71 282.18 420.00 553.40 983.27 423.80 1176.33 447.06 1008.13 543.55 966.14 655.61 1123.31 674.10
00007512 00000106 903.63 275.20 420.59 555.38 976.35 423.05 1171.90 442.84 1006.16 540.56 962.59 654.83 1119.01 670.72
00007513 00000107 902.82 290.50 410.57 547.20 972.37 427.32 1161.27 441.23 1014.48 538.23 963.68 657.62 1117.07 669.02
00007514 00000108 899.18 284.24 410.84 552.30 972.26 428.95 1159.21 441.18 1013.57 533.33 961.76 655.53 1114.11 665.69
00007515 00000109 897.22 280.90 411.39 554.03 971.02 426.77 1158.62 440.44 1014.21 530.51 959.86 652.33 1113.94 663.61
00007516 00000110 897.24 277.30 409.37 555.10 969.19 426.06 1156.85 438.49 1012.51 530.84 960.06 651.44 1112.76 661.63
00007517 00000111 896.29 278.83 408.53 552.77 968.97 427.99 1152.85 440.04 1009.21 530.53 958.33 650.42 1107.93 660.41
00007518 00000112 893.52 263.01 416.87 553.95 968.99 421.69 1159.27 438.95 1002.60 526.69 959.19 641.45 1111.81 655.82
00007519 00000113 893.94 264.59 418.65 551.83 968.10 420.47 1157.56 438.08 1000.30 524.79 957.36 639.96 1109.83 654.44
00007520 00000114 895.09 271.84 417.10 544.57 969.25 419.75 1154.26 434.81 1000.76 522.87 958.96 640.32 1107.01 652.55
00007521 00000115 898.18 286.06 406.11 556.58 973.29 426.93 1152.49 433.20 1009.35 528.38 962.39 649.16 1113.68 653.97
00007522 00000116 896.02 279.67 410.58 571.74 973.84 425.99 1157.56 435.47 1013.41 532.59 963.44 650.78 1124.22 658.27
00007523 00000117 896.90 280.94 413.64 571.86 975.39 426.40 1159.40 434.51 1015.42 532.03 964.33 650.76 1126.36 656.98
00007524 00000118 899.90 285.30 412.23 556.98 973.94 430.90 1159.01 436.51 1014.07 526.92 962.75 649.12 1127.60 653.20
00007525 00000119 899.45 269.54 416.79 557.77 973.63 422.59 1166.36 437.29 1009.80 526.83 965.34 644.35 1131.64 656.15
00007526 00000120 897.16 270.67 419.04 557.03 973.16 424.08 1165.87 440.11 1008.99 528.15 962.65 643.36 1129.79 656.35
00007527 00000121 895.22 268.99 417.07 558.82 971.56 423.71 1155.56 438.93 1004.60 524.89 963.31 641.12 1121.51 653.38
00007528 00000122 889.30 299.80 412.46 534.96 969.77 436.57 1150.66 444.00 1003.74 534.55 957.08 653.39 1105.41 660.57
00007529 00000123 885.85 297.35 412.82 531.32 966.70 436.74 1149.86 446.88 1001.00 535.95 952.05 654.70 1096.95 664.61
00007530 00000124 892.10 278.43 411.35 542.53 964.57 425.46 1147.41 438.32 994.95 526.31 951.20 650.46 1094.43 661.01
00007531 00000125 885.70 299.14 414.62 519.08 960.46 432.64 1135.38 439.24 987.98 529.69 946.94 647.32 1083.72 654.75
00007532 00000126 886.06 300.42 414.62 517.36 960.66 432.85 1135.74 439.54 988.17 529.86 946.75 647.17 1083.74 654.68
00007533 00000127 887.69 298.59 404.87 511.50 957.66 428.14 1125.67 432.25 981.88 525.50 944.63 639.32 1075.31 644.73
00007534 00000128 883.34 269.75 405.33 537.47 954.55 414.95 1135.99 428.60 983.39 522.53 941.93 638.55 1080.07 651.32
00007535 00000129 883.24 259.76 408.21 548.42 951.92 414.23 1134.67 427.46 978.68 520.78 939.53 638.04 1082.10 650.39
00007536 00000130 881.12 251.64 409.63 557.91 948.89 416.79 1134.33 428.32 977.39 521.76 938.26 637.74 1085.28 648.88
00007537 00000131 880.32 245.12 408.37 563.94 948.95 416.17 1136.43 425.76 977.47 520.01 938.31 637.59 1089.97 647.01
00007538 00000132 883.39 252.70 405.40 552.36 952.01 414.18 1131.41 422.19 975.16 514.10 940.49 633.25 1084.96 641.67
00007539 00000133 883.98 240.32 410.18 563.15 952.24 410.86 1134.86 420.77 974.09 507.47 938.15 630.27 1082.92 640.51
00007540 00000134 881.84 245.26 412.76 554.22 952.49 410.05 1135.57 418.27 974.93 500.84 937.15 629.10 1082.88 638.31
00007541 00000135 879.41 242.03 416.71 551.70 950.03 411.69 1137.26 417.81 976.94 495.33 934.96 628.54 1083.17 636.10
00007542 00000136 879.37 239.60 419.76 551.07 950.22 409.85 1138.88 416.39 977.83 494.14 935.47 628.06 1082.63 635.84
00007543 00000137 878.74 235.20 418.96 553.75 950.85 408.36 1139.64 416.06 977.07 493.32 934.51 626.54 1081.00 635.42
00007544 DELETE   878.20 242.01 418.09 545.32 950.84 406.32 1137.16 413.60 975.57 490.75 932.18 626.30 1076.29 634.96
00007545 00000139 877.46 240.35 416.48 549.73 944.48 406.53 1130.68 410.89 969.91 489.05 929.04 628.92 1074.97 635.46
00007546 00000140 875.24 241.20 417.16 549.99 940.82 408.19 1124.20 409.00 963.97 488.75 924.33 629.99 1067.99 634.08
00007547 00000141 874.42 251.16 409.20 538.21 939.04 406.05 1111.49 405.36 957.08 484.00 919.70 627.78 1054.53 630.56
00007548 DELETE   871.53 265.32 403.29 517.33 932.13 413.17 1099.85 408.55 950.09 484.37 915.70 631.98 1049.80 630.78
00007549 00000143 862.76 266.17 406.69 511.61 923.22 410.34 1089.75 411.89 946.36 485.41 907.39 626.90 1039.94 629.18
00007550 00000144 861.23 245.42 401.53 532.44 916.25 405.89 1075.55 407.71 931.12 477.98 896.07 618.48 1020.56 620.88
00007551 DELETE   861.03 253.19 391.64 514.00 914.33 398.45 1059.81 395.35 921.73 469.52 893.12 609.82 1005.40 606.76
00007552 DELETE   848.46 250.43 397.31 505.75 903.60 399.14 1059.00 393.88 894.17 469.48 873.99 605.88 990.26 601.19
00007553 DELETE   852.06 238.33 389.44 504.46 915.70 390.20 1043.79 385.58 898.71 452.67 878.25 586.30 982.52 580.88
00007554 00000148 849.34 235.39 396.29 505.80 910.37 388.31 1038.58 384.15 892.05 451.82 874.13 585.62 979.00 580.10
00007555 00000149 844.70 248.57 386.64 493.97 903.63 390.31 1035.25 387.98 893.59 459.45 873.65 589.66 979.04 585.94
00007556 DELETE   843.83 251.90 389.66 498.68 900.85 388.66 1032.34 387.87 887.38 461.72 867.35 594.28 971.19 591.77
00007557 00000151 843.72 250.84 389.23 499.35 900.96 388.78 1032.21 387.72 887.44 461.49 867.23 594.13 970.87 591.42
00007558 00000152 821.38 250.81 396.88 511.74 878.23 390.62 1014.55 393.66 865.49 473.66 850.70 601.43 957.74 604.83
00007559 DELETE   810.23 246.46 405.38 528.23 868.43 392.71 1015.81 397.31 864.34 472.44 841.43 608.68 952.26 613.62
00007560 00000154 805.36 240.00 405.89 550.35 860.21 397.74 1012.54 399.98 861.11 477.70 839.65 619.90 952.79 623.77
00007561 DELETE   800.87 235.99 405.91 558.01 853.52 396.07 1006.40 398.38 857.63 478.96 835.54 622.04 949.47 625.92
00007562 00000156 794.07 239.20 406.44 551.62 847.79 391.97 1001.68 394.40 854.15 475.78 831.15 619.52 947.82 622.83
00007563 00000157 791.80 245.52 403.64 539.39 846.34 389.17 997.33 391.53 850.33 474.67 828.41 616.45 945.12 618.86
00007564 00000158 791.59 232.65 405.29 546.54 836.37 395.26 1000.89 394.35 837.10 482.19 816.57 621.11 934.82 619.91
00007565 00000159 784.83 232.70 415.05 547.23 830.85 396.63 998.99 395.29 832.10 483.75 812.33 620.48 937.91 618.63
00007566 00000160 783.49 239.25 403.89 545.40 825.35 401.31 993.46 398.93 828.57 487.12 809.89 624.09 936.43 621.51
00007567 00000161 780.28 246.18 401.87 546.34 823.23 397.09 989.97 394.89 837.12 481.86 811.80 622.42 944.99 620.29
00007568 00000162 778.31 244.64 399.84 549.21 819.91 398.53 987.16 394.89 835.66 483.44 809.28 623.18 943.05 620.05
00007569 00000163 774.21 235.95 402.95 555.68 818.98 397.08 985.92 393.93 835.17 482.07 807.25 619.78 937.60 617.33
00007570 00000164 774.06 242.58 403.78 546.05 821.43 392.34 981.19 388.85 831.87 475.04 808.05 616.16 933.43 612.74
00007571 00000165 772.72 245.14 404.13 544.58 821.78 390.92 981.14 386.59 831.93 472.86 806.71 615.66 931.66 611.37
