Video ID: 	DwRw4_sevCQ
H: 	1080
W: 	1920
FPS: 	25.0

FRAME INDEX X0 Y0 W H [Landmarks (5 Points)]

00031176 00000000 614.07 154.57 429.54 605.83 726.50 394.45 917.20 444.99 787.31 523.26 694.97 600.55 847.35 641.41
00031177 00000001 612.39 157.11 426.95 604.33 727.81 399.40 913.29 449.39 787.68 527.46 695.84 607.54 834.75 648.85
00031178 00000002 611.77 161.20 424.84 607.53 727.39 405.17 912.81 456.98 785.36 535.39 695.42 613.97 835.19 657.28
00031179 00000003 611.63 158.84 423.58 616.62 725.68 404.79 911.43 456.77 783.53 535.08 694.93 614.44 837.34 657.63
00031180 00000004 612.81 157.68 422.88 614.63 722.99 397.95 910.88 447.07 781.59 526.04 695.06 610.33 838.12 650.94
00031181 DELETE   610.52 148.27 424.57 609.35 721.80 389.08 910.43 432.77 787.20 509.82 696.33 598.63 842.91 634.07
00031182 DELETE   613.99 147.75 420.82 585.06 726.86 381.40 913.87 428.13 783.76 500.02 694.06 577.22 843.05 617.74
00031183 00000007 617.29 137.32 423.96 590.96 732.24 373.70 916.66 424.93 786.80 494.56 696.15 567.63 846.86 611.56
00031184 00000008 620.54 139.61 424.18 592.01 736.13 376.37 920.97 429.51 790.28 499.54 698.78 570.63 851.78 615.84
00031185 00000009 620.15 146.89 428.54 592.96 736.45 383.43 922.39 434.92 791.95 510.22 701.18 580.70 854.29 624.34
00031186 00000010 617.73 148.08 430.06 590.82 735.38 385.99 922.98 436.76 792.03 511.24 699.72 580.81 855.24 623.74
00031187 00000011 616.66 145.89 426.78 589.32 733.31 380.24 921.34 432.19 789.91 504.38 697.23 573.96 854.16 618.22
00031188 00000012 617.43 142.18 426.81 590.63 735.05 376.84 919.86 429.31 789.61 498.41 698.98 572.41 848.64 617.32
00031189 00000013 621.41 138.67 426.21 597.42 737.10 376.12 918.72 426.35 788.99 495.81 702.24 576.55 845.26 619.68
00031190 00000014 621.63 138.96 428.06 600.12 738.67 377.39 921.42 429.40 791.58 498.29 703.25 579.39 847.21 623.60
00031191 00000015 621.96 142.15 426.20 593.18 738.90 378.29 922.20 430.04 793.13 499.74 703.28 578.20 847.89 622.39
00031192 00000016 620.94 141.77 427.13 591.40 737.32 379.02 922.25 430.64 792.51 499.72 702.63 577.39 849.29 621.55
00031193 00000017 619.27 143.45 426.64 588.69 734.97 379.70 922.12 431.19 791.35 500.75 700.10 576.40 850.61 620.42
00031194 00000018 617.68 145.98 424.48 585.47 733.54 384.34 919.81 432.04 792.48 502.83 700.57 577.81 851.67 618.90
00031195 00000019 619.32 148.27 422.40 582.59 734.46 386.90 921.30 434.62 793.03 503.11 699.87 578.02 853.38 618.99
00031196 00000020 618.13 145.01 426.31 585.21 733.65 382.47 923.05 431.74 792.61 500.57 698.20 575.10 854.53 617.05
00031197 00000021 616.48 142.43 428.16 587.62 732.88 383.63 922.12 431.30 793.37 500.38 698.31 575.83 854.77 616.60
00031198 00000022 616.08 143.07 426.10 585.01 732.55 382.15 921.71 429.87 793.44 499.70 698.43 574.77 853.51 615.69
00031199 00000023 615.98 144.38 425.40 583.69 733.02 381.74 922.35 429.31 794.02 499.89 698.79 575.01 853.32 615.93
00031200 00000024 616.31 144.92 424.92 585.52 731.97 381.91 923.00 428.15 794.02 499.43 699.95 578.37 854.31 618.11
00031201 00000025 617.09 144.16 423.79 585.97 731.66 381.32 923.92 427.75 794.00 499.43 699.31 580.25 854.73 620.08
00031202 00000026 617.27 144.62 423.23 586.46 730.68 380.58 923.37 427.73 793.03 498.98 698.84 581.34 854.77 621.59
00031203 00000027 616.83 146.89 423.02 588.33 729.74 381.90 923.35 427.38 794.10 499.80 699.17 583.36 857.50 622.11
00031204 00000028 616.64 147.67 420.17 588.48 728.32 384.32 921.80 428.40 793.24 500.30 699.02 584.40 857.44 621.99
00031205 00000029 615.37 150.37 418.48 584.97 725.70 385.71 918.96 427.60 790.94 500.63 698.21 584.89 854.68 620.92
00031206 00000030 613.33 150.17 417.51 585.14 724.21 386.23 916.49 426.80 789.24 500.39 696.59 584.01 852.34 619.27
00031207 00000031 609.84 150.99 417.28 583.92 723.66 386.26 913.89 424.60 790.30 499.73 697.56 582.12 851.16 615.86
00031208 00000032 607.25 150.04 418.59 592.54 721.37 384.29 912.84 420.38 798.60 493.76 699.05 585.22 864.39 614.32
00031209 00000033 602.64 148.88 421.02 580.76 719.99 380.62 911.02 418.14 789.22 492.35 694.47 569.82 853.78 602.56
00031210 00000034 602.60 150.01 416.93 586.68 717.56 377.80 905.61 413.23 794.65 486.96 697.52 573.50 859.75 602.65
00031211 00000035 602.01 150.17 418.53 591.33 716.57 381.01 904.65 416.37 793.29 492.44 695.92 578.30 857.06 607.20
00031212 00000036 600.64 150.39 420.75 592.83 715.10 390.45 901.71 424.16 782.39 501.44 694.31 583.95 846.50 613.31
00031213 00000037 601.64 152.11 420.36 596.96 712.67 387.97 903.06 420.36 788.26 500.59 696.43 588.94 855.82 614.78
00031214 00000038 602.92 151.20 415.89 593.75 712.83 384.04 902.23 415.49 789.12 494.21 697.27 587.44 852.98 613.09
00031215 00000039 602.87 148.47 415.39 590.10 714.75 379.93 897.63 408.80 790.28 485.72 700.54 581.92 845.93 606.34
00031216 00000040 602.01 141.91 418.13 579.92 719.19 372.22 902.25 408.77 786.78 483.31 698.42 569.09 839.75 601.53
00031217 00000041 601.78 141.09 417.19 580.90 718.26 371.87 900.87 408.98 785.77 484.07 697.79 569.34 838.51 602.25
00031218 00000042 598.19 146.44 416.08 592.48 711.63 381.59 894.88 413.19 786.93 490.53 696.99 582.87 843.66 608.89
00031219 00000043 593.64 151.16 420.71 589.53 707.22 387.04 893.07 422.12 774.41 497.33 689.77 583.76 835.69 614.44
00031220 00000044 592.40 152.72 421.00 586.27 705.94 388.03 891.27 421.36 773.52 496.32 690.57 584.90 832.69 614.22
00031221 00000045 594.12 150.42 418.43 588.70 706.86 385.79 890.66 412.98 782.28 494.43 695.98 590.92 833.46 613.34
00031222 00000046 595.71 145.17 416.88 595.53 711.67 383.87 890.61 411.32 787.24 489.90 701.80 590.97 829.53 614.07
00031223 00000047 595.71 143.00 418.02 605.80 712.49 383.00 892.66 411.55 787.62 490.40 701.36 593.54 831.23 617.66
00031224 00000048 594.83 145.74 421.53 614.94 711.18 383.48 896.26 413.57 786.39 494.99 694.08 596.86 838.17 621.72
00031225 00000049 592.58 149.37 423.90 614.51 707.92 386.14 894.95 416.16 782.84 499.86 691.06 600.09 837.91 624.73
00031226 00000050 591.39 152.59 425.95 607.43 705.33 388.96 896.04 421.71 782.38 506.30 688.61 600.42 839.66 627.20
00031227 00000051 592.01 153.50 424.22 604.16 704.25 391.43 896.24 424.76 782.57 509.25 687.18 601.72 841.28 628.85
00031228 00000052 593.79 155.68 422.91 600.54 704.76 394.15 896.86 426.76 782.37 511.97 689.06 602.28 842.98 628.88
00031229 00000053 593.87 160.43 421.78 594.22 704.80 398.25 896.23 431.07 781.69 515.06 689.19 600.47 846.85 626.94
00031230 00000054 594.91 162.05 419.53 592.52 705.84 402.98 896.55 434.68 783.04 516.27 690.42 599.45 851.41 624.89
00031231 00000055 595.99 163.66 419.72 592.93 707.76 405.60 897.96 439.00 784.78 520.04 691.18 602.05 853.15 628.91
00031232 00000056 597.52 164.16 419.74 599.19 708.21 406.14 898.42 441.05 783.73 523.93 688.78 605.09 852.25 633.33
00031233 00000057 596.37 159.04 421.39 612.23 708.25 404.21 898.09 437.73 781.82 519.64 687.31 607.07 850.12 634.38
00031234 00000058 594.04 160.48 423.83 613.51 708.81 396.94 900.05 430.80 783.46 514.43 686.36 603.90 849.34 631.62
00031235 00000059 591.95 151.51 421.48 617.13 708.11 388.97 894.78 422.79 779.42 502.82 687.81 597.21 840.53 624.61
00031236 00000060 594.51 150.38 415.61 598.88 704.99 384.54 892.11 414.54 775.01 489.09 697.73 593.00 841.78 617.43
00031237 00000061 596.14 148.46 411.03 590.18 702.27 376.07 888.45 407.81 769.11 483.84 693.94 583.58 839.70 609.48
00031238 00000062 595.56 147.61 408.44 582.04 698.18 375.63 882.41 406.75 763.69 481.63 690.38 575.42 841.54 600.32
00031239 00000063 593.88 150.77 408.44 576.78 695.06 376.53 881.00 408.11 760.43 485.32 685.76 576.64 840.61 602.35
00031240 00000064 591.92 150.90 409.61 583.25 695.07 376.44 882.48 410.06 759.59 484.59 682.69 580.23 836.96 608.08
00031241 00000065 593.82 148.80 407.11 579.82 695.34 373.79 883.76 407.62 760.92 479.51 682.43 576.85 840.18 604.93
00031242 00000066 594.55 144.57 409.48 578.70 705.58 366.74 891.96 402.93 772.99 477.49 680.46 561.66 837.74 592.87
00031243 00000067 598.47 143.12 408.10 561.39 707.21 356.53 895.68 393.00 775.42 463.09 682.12 547.68 846.09 578.44
00031244 00000068 601.36 137.30 406.76 555.91 706.06 350.93 893.02 386.54 773.76 454.06 681.94 538.33 848.87 567.66
00031245 00000069 599.90 138.57 406.30 557.65 705.32 351.57 891.40 387.14 773.01 455.97 681.78 539.64 846.78 569.21
00031246 00000070 595.79 140.56 406.55 565.52 705.16 356.44 891.84 392.61 775.57 465.24 683.71 547.51 843.73 578.00
00031247 00000071 591.86 139.70 406.64 574.51 696.38 361.06 883.78 391.94 765.51 464.83 685.90 561.26 843.00 586.16
00031248 00000072 590.20 139.33 406.49 580.38 694.66 361.35 882.49 394.57 764.90 472.48 684.92 564.25 842.01 590.89
00031249 00000073 589.48 140.25 407.92 580.29 693.96 363.45 882.67 395.80 764.81 473.43 684.98 566.56 842.47 592.39
00031250 00000074 588.88 141.90 408.70 581.82 693.34 367.41 882.46 398.30 765.92 478.63 685.80 570.04 846.44 594.56
00031251 00000075 587.48 146.60 411.25 585.86 694.01 373.84 882.10 404.98 766.23 483.11 686.29 578.75 843.61 603.74
00031252 00000076 586.34 146.55 414.49 591.42 692.73 379.06 883.55 411.97 764.11 487.75 682.24 582.77 844.29 609.34
00031253 00000077 585.77 148.03 414.26 586.83 690.81 381.06 882.71 414.53 762.10 491.68 680.58 582.81 844.79 609.85
00031254 00000078 584.97 148.37 413.65 584.53 689.31 382.21 881.19 416.07 760.05 494.29 678.59 582.05 844.01 609.43
00031255 00000079 583.71 149.83 413.95 584.91 687.86 385.47 880.22 417.27 759.63 497.03 678.74 585.46 844.46 611.15
00031256 00000080 582.63 153.50 413.61 587.78 688.04 388.96 877.88 420.20 759.55 501.92 679.35 590.14 840.00 615.50
00031257 00000081 581.26 154.13 415.80 595.38 689.47 390.52 875.89 420.74 758.95 501.31 681.38 596.91 831.49 621.63
00031258 00000082 581.93 152.60 414.10 598.28 689.93 391.42 874.44 422.01 759.57 501.64 683.01 598.92 829.04 624.08
00031259 00000083 581.52 153.33 414.88 593.35 688.75 390.51 876.50 421.48 759.19 501.24 680.89 596.11 832.95 621.25
00031260 00000084 581.24 151.81 415.73 594.04 687.88 389.75 877.54 422.92 758.00 504.76 674.94 593.16 835.68 620.25
00031261 00000085 581.70 159.19 419.02 580.19 687.14 393.30 880.55 426.97 755.40 509.81 672.02 594.53 837.88 622.19
00031262 00000086 579.79 165.72 416.02 574.15 685.55 400.28 878.51 432.55 757.02 516.74 674.79 597.40 841.70 623.85
00031263 00000087 579.59 167.63 416.93 575.36 685.70 405.99 879.15 438.49 757.39 521.66 676.09 600.54 842.28 626.99
00031264 00000088 579.01 165.14 420.76 584.52 684.42 407.81 877.29 439.29 754.90 523.84 676.61 608.24 836.32 633.76
00031265 00000089 578.94 165.15 422.21 584.98 683.35 408.41 878.26 439.00 754.83 526.05 675.46 609.66 837.54 634.48
00031266 00000090 578.48 166.93 423.02 581.53 683.83 408.58 878.12 440.02 754.68 526.80 675.17 609.48 837.12 635.03
00031267 00000091 578.93 166.58 423.16 582.96 684.45 410.91 878.72 442.25 754.99 529.59 676.04 611.10 837.29 636.46
00031268 00000092 579.31 167.45 422.89 585.29 685.12 411.68 879.07 443.08 755.40 530.90 677.27 612.72 837.70 638.17
00031269 00000093 579.53 167.35 423.09 584.52 685.73 410.96 879.39 442.21 756.56 529.68 678.31 612.50 838.18 637.77
00031270 00000094 579.99 167.75 423.79 585.41 686.88 410.70 879.74 441.82 757.01 529.36 680.34 613.14 838.14 638.26
00031271 00000095 580.44 168.44 424.36 587.61 687.74 410.06 880.66 441.37 757.65 528.69 681.14 614.02 837.86 639.43
00031272 00000096 581.71 167.87 423.24 588.54 688.14 410.40 881.37 440.93 758.81 529.12 682.51 615.37 838.40 640.09
00031273 00000097 582.53 167.55 423.01 590.27 688.87 410.71 881.91 441.11 759.49 529.34 683.70 616.95 838.41 641.59
00031274 00000098 583.89 167.09 423.05 593.16 690.81 410.70 882.64 442.59 760.67 530.25 684.69 616.63 838.32 642.62
00031275 00000099 584.04 166.98 422.92 592.03 690.94 410.18 883.75 441.67 761.06 529.89 684.51 616.46 839.71 642.13
00031276 00000100 584.71 164.38 422.95 593.14 691.10 407.69 884.02 439.77 761.40 527.25 684.52 613.77 840.61 639.95
00031277 00000101 585.45 161.21 421.78 595.47 690.78 406.04 883.60 438.27 761.31 526.20 683.98 612.51 840.09 638.82
00031278 00000102 585.20 158.75 421.15 595.82 691.04 404.22 882.64 436.35 761.26 524.50 683.30 611.08 837.74 637.38
00031279 00000103 585.21 159.42 421.31 594.04 690.35 403.45 882.84 434.18 760.45 523.35 683.05 611.06 837.49 636.35
00031280 00000104 587.80 160.54 416.27 598.84 694.02 399.04 886.62 434.02 770.20 525.69 678.40 607.63 830.74 636.95
00031281 00000105 587.68 161.53 416.96 600.01 694.16 401.66 886.63 435.91 770.87 526.72 678.89 609.26 830.43 638.04
00031282 00000106 587.46 160.55 416.65 601.95 692.54 401.86 886.47 435.12 770.58 527.77 677.77 611.06 829.97 639.08
00031283 00000107 583.67 160.92 420.54 595.68 686.97 404.46 880.92 432.73 757.88 524.21 681.47 611.75 838.09 635.04
00031284 00000108 582.89 160.94 417.69 594.09 687.40 405.56 879.06 433.02 758.07 520.63 682.87 609.27 839.57 631.76
00031285 00000109 582.07 159.89 417.72 595.72 688.50 402.91 878.48 431.15 759.49 518.24 684.32 606.28 839.16 629.40
00031286 00000110 582.09 156.93 419.20 603.28 687.35 402.57 875.45 430.30 756.32 519.02 683.16 609.01 834.52 631.88
00031287 00000111 580.28 156.77 421.64 617.01 686.39 402.09 876.21 431.00 755.19 519.79 678.89 614.06 831.73 638.13
00031288 00000112 578.49 157.27 419.09 618.37 683.35 401.28 874.17 430.30 751.63 520.05 673.81 615.20 828.64 639.64
00031289 00000113 576.53 158.75 419.59 618.84 680.65 401.20 873.48 429.87 749.77 520.33 670.67 615.58 828.92 639.69
00031290 00000114 576.16 161.71 420.33 609.31 681.22 400.04 873.02 428.92 749.49 518.07 672.40 613.31 826.46 637.51
00031291 00000115 577.92 160.77 418.61 598.90 680.82 400.17 872.79 429.78 748.85 518.15 672.07 609.42 827.14 633.81
00031292 00000116 579.81 159.84 417.30 598.45 682.89 398.92 872.32 429.51 749.14 517.05 674.48 605.23 828.27 630.43
00031293 00000117 581.72 160.08 416.94 594.06 682.86 397.93 873.72 428.13 748.50 517.27 672.66 603.05 831.55 627.88
00031294 00000118 580.50 160.42 415.57 591.00 681.33 396.71 873.24 426.17 747.07 513.71 670.38 602.40 831.80 626.44
00031295 00000119 576.71 158.50 415.50 592.90 678.55 394.77 868.26 427.59 741.83 511.46 665.36 602.26 823.55 629.03
00031296 00000120 572.35 158.74 418.70 595.76 674.13 394.83 862.60 430.75 734.51 512.11 658.68 603.03 813.28 632.45
00031297 00000121 571.14 158.62 418.95 596.03 668.59 397.00 857.84 433.62 727.43 516.73 651.45 603.80 808.39 633.62
00031298 00000122 568.40 159.00 420.09 599.11 664.39 399.17 854.83 434.63 723.30 520.39 646.35 608.29 804.93 637.25
00031299 00000123 569.24 159.89 418.87 606.62 663.20 398.16 854.16 432.86 721.40 520.71 645.70 610.18 807.46 638.56
00031300 00000124 570.19 156.51 418.23 607.36 664.39 396.08 855.13 429.60 723.46 516.67 646.89 608.19 809.37 635.49
00031301 00000125 571.26 155.68 415.77 600.02 668.04 397.14 855.55 430.42 728.65 511.87 652.38 602.10 813.60 628.94
00031302 00000126 573.50 156.43 412.87 595.26 669.24 395.79 855.44 428.31 729.26 510.38 655.58 598.93 815.30 625.07
00031303 00000127 575.47 154.74 413.27 596.09 671.53 392.17 856.45 426.56 729.12 507.09 656.80 594.59 815.50 622.32
00031304 00000128 576.68 156.47 414.30 595.54 673.82 392.53 858.31 427.90 730.37 506.77 658.70 595.68 815.30 624.38
00031305 00000129 575.88 155.51 414.98 597.70 673.39 392.62 859.24 428.09 730.99 508.28 658.55 598.49 814.32 627.39
00031306 00000130 574.02 156.58 417.60 599.04 673.22 394.08 860.65 430.05 731.76 510.90 658.68 601.77 813.98 631.12
00031307 00000131 574.83 159.40 418.35 598.91 673.90 395.32 861.62 432.12 731.65 513.74 658.56 603.73 812.97 633.99
00031308 00000132 577.32 159.88 418.76 595.91 676.21 395.42 863.35 431.54 733.15 514.16 662.18 602.44 814.88 632.12
00031309 00000133 585.93 157.46 414.62 587.77 682.11 394.88 867.43 429.38 738.24 511.55 670.70 597.56 821.58 625.61
00031310 00000134 590.45 154.82 417.04 584.87 688.83 390.56 873.87 425.22 745.57 503.54 677.06 589.34 827.02 617.71
00031311 00000135 591.24 146.17 420.18 595.38 698.92 385.04 880.47 424.02 755.28 497.18 676.77 580.64 820.72 614.28
00031312 00000136 595.07 148.40 419.42 584.87 704.38 381.91 883.61 420.75 760.00 490.81 680.75 575.10 823.20 608.61
00031313 00000137 596.42 146.74 420.09 585.19 705.52 380.97 886.15 419.89 761.30 490.79 681.65 573.51 827.55 606.97
00031314 00000138 597.23 148.29 421.34 589.06 704.96 382.15 886.85 421.39 760.03 493.70 681.52 578.42 827.61 612.16
00031315 00000139 594.44 147.75 421.72 603.60 701.64 382.96 887.16 419.20 766.03 499.31 678.23 588.75 833.26 617.80
00031316 00000140 591.20 147.74 422.54 607.22 700.37 384.28 886.59 420.18 765.48 499.93 676.08 590.56 830.07 619.37
00031317 00000141 591.96 154.00 419.50 588.61 691.92 387.57 881.19 419.97 749.66 498.26 678.61 590.47 834.14 617.04
00031318 00000142 591.59 152.51 416.84 586.52 691.21 387.09 880.25 424.22 749.73 502.96 674.90 583.59 836.85 614.03
00031319 00000143 592.79 154.88 416.82 584.98 691.28 390.60 879.29 427.54 748.60 507.22 677.03 583.86 837.86 614.11
00031320 00000144 594.06 159.32 418.39 581.60 693.83 391.05 879.87 429.86 750.10 512.22 680.15 583.65 838.12 615.57
00031321 00000145 593.63 159.33 419.62 588.39 695.48 392.24 885.72 434.96 759.33 516.34 674.56 587.35 829.85 622.04
00031322 00000146 594.73 159.47 418.93 589.23 696.30 392.21 886.07 435.63 758.46 516.21 672.89 588.29 828.11 623.72
00031323 00000147 592.13 157.80 420.40 591.77 695.46 391.09 883.43 433.49 757.71 514.50 673.03 590.75 821.18 625.30
00031324 00000148 589.72 159.27 417.98 589.97 692.20 390.94 880.52 431.32 756.02 513.43 671.51 591.64 818.71 624.63
00031325 00000149 589.87 156.27 415.58 585.48 687.17 395.45 873.85 432.13 745.87 516.95 675.17 593.94 829.95 623.78
00031326 00000150 588.14 160.90 418.84 584.38 685.77 399.67 875.70 434.28 746.17 521.99 675.66 601.11 831.55 629.24
00031327 00000151 588.88 165.06 417.75 590.48 690.41 399.80 881.88 440.71 758.56 527.48 670.02 602.24 822.67 635.82
00031328 00000152 589.41 168.18 418.58 587.52 691.73 399.44 883.08 441.16 759.12 526.69 669.83 602.05 822.48 636.31
00031329 00000153 589.92 164.56 419.54 586.22 692.33 398.34 885.45 440.67 760.74 526.99 671.37 597.97 825.40 632.72
00031330 00000154 589.95 161.23 420.12 588.58 691.41 396.66 885.63 438.31 759.71 526.41 671.26 595.41 826.56 629.65
00031331 00000155 589.64 161.26 418.61 590.55 690.84 394.91 881.19 436.16 757.61 524.27 670.72 597.16 821.16 631.18
00031332 00000156 586.46 162.53 422.66 581.96 684.09 401.35 878.31 435.57 745.34 524.90 671.20 605.04 832.87 633.01
00031333 00000157 585.19 163.99 421.94 580.86 683.27 404.54 876.71 439.37 744.82 528.54 670.95 605.13 833.56 633.46
00031334 00000158 584.49 164.86 421.38 578.52 684.23 405.34 876.05 440.78 746.60 531.42 672.27 603.99 833.15 632.70
00031335 00000159 584.55 164.03 419.91 576.70 683.96 404.17 874.05 440.48 745.07 528.32 671.36 599.42 830.62 628.89
00031336 00000160 584.91 160.72 422.27 582.99 683.13 403.32 874.27 437.76 744.12 527.04 671.19 604.96 827.92 632.79
00031337 00000161 584.04 161.43 423.08 589.87 682.02 402.48 873.87 437.68 741.26 527.69 667.82 607.98 825.20 636.88
00031338 00000162 582.07 164.16 421.85 587.20 679.85 404.55 873.94 440.55 740.87 532.69 663.74 607.28 827.75 636.95
00031339 00000163 580.90 167.33 420.30 580.84 679.31 407.66 872.59 442.50 740.72 534.63 665.86 608.59 829.18 636.95
00031340 00000164 580.27 168.61 420.08 579.88 679.38 407.86 872.68 443.47 739.94 535.10 665.65 608.83 828.91 637.83
00031341 00000165 580.42 167.81 419.99 579.93 679.29 407.68 872.76 443.26 739.78 534.77 665.40 609.00 828.56 637.94
00031342 00000166 580.72 166.15 420.65 581.93 679.37 406.69 873.01 442.28 739.99 533.76 664.81 609.52 827.68 638.46
00031343 00000167 581.55 163.15 420.33 583.85 679.25 405.77 873.40 441.01 740.83 531.70 666.50 608.27 829.29 636.75
00031344 00000168 581.38 163.95 419.49 584.30 680.46 406.93 873.98 441.61 743.16 531.47 667.52 607.54 830.66 635.63
00031345 00000169 580.88 166.71 416.60 583.52 681.88 410.65 872.10 445.22 745.31 533.99 671.53 607.43 831.98 635.41
00031346 00000170 580.65 167.52 417.46 582.14 680.63 410.78 872.81 445.45 744.43 534.21 671.17 608.83 831.24 636.77
