Video ID: 	2zQJu3BdYlU
H: 	1080
W: 	1920
FPS: 	25.0

FRAME INDEX X0 Y0 W H [Landmarks (5 Points)]

00016501 00000000 747.12 161.51 401.06 628.37 935.57 408.35 1094.26 389.69 1094.58 502.61 1007.03 642.18 1125.67 624.61
00016502 00000001 748.29 161.86 399.44 626.35 938.11 407.26 1094.91 389.25 1095.92 503.37 1007.72 640.90 1125.14 623.92
00016503 00000002 751.33 162.52 401.67 625.61 944.07 407.29 1099.38 388.57 1103.87 501.32 1014.10 641.72 1131.41 624.04
00016504 00000003 753.98 162.32 402.11 625.64 945.91 407.44 1101.61 386.72 1106.60 500.63 1017.41 642.45 1135.19 623.04
00016505 00000004 755.35 162.25 402.90 625.99 946.95 407.92 1103.62 385.49 1107.78 501.98 1018.02 643.62 1136.48 622.71
00016506 00000005 757.25 161.60 402.95 627.87 947.24 408.47 1105.01 385.46 1108.38 502.32 1018.89 644.00 1138.33 622.58
00016507 00000006 760.88 160.33 403.88 629.41 951.91 408.13 1109.40 384.90 1113.53 502.99 1021.65 642.99 1141.69 621.38
00016508 00000007 763.03 159.32 402.08 628.56 953.60 408.18 1110.91 384.62 1114.91 504.01 1022.75 643.65 1142.21 621.91
00016509 00000008 763.50 160.24 400.63 625.50 954.05 408.31 1111.21 384.90 1115.21 504.17 1023.51 643.63 1142.43 622.08
00016510 00000009 764.95 158.13 400.04 628.45 956.39 408.57 1113.47 383.89 1118.73 505.27 1025.62 644.68 1144.25 622.21
00016511 00000010 763.52 159.34 400.25 628.25 954.82 408.38 1112.22 384.15 1117.52 504.99 1025.10 645.24 1143.60 623.10
00016512 00000011 762.84 158.43 401.05 628.68 955.10 408.70 1113.32 385.34 1117.48 506.34 1025.14 646.13 1143.44 624.70
00016513 00000012 762.69 158.81 400.90 630.39 953.86 409.22 1113.69 385.76 1116.76 507.43 1024.67 648.32 1143.81 626.55
00016514 00000013 760.25 160.04 404.77 637.64 950.00 410.93 1110.36 385.66 1114.56 507.03 1023.46 651.94 1144.33 628.60
00016515 00000014 754.25 160.10 408.48 648.39 943.70 413.59 1103.88 392.78 1106.86 511.36 1019.14 658.90 1138.72 639.28
00016516 00000015 743.15 168.76 411.63 644.66 927.26 418.25 1090.69 397.71 1086.23 512.18 1006.18 661.34 1125.15 641.87
00016517 DELETE   725.27 172.03 414.80 638.89 906.44 424.32 1071.27 401.73 1060.55 515.88 983.63 660.41 1107.57 638.98
00016518 00000017 708.05 171.72 420.03 630.59 890.68 424.76 1064.79 389.41 1058.42 513.83 961.93 662.64 1099.07 631.28
00016519 00000018 705.44 168.66 417.52 634.46 885.18 419.57 1061.22 386.62 1052.24 512.49 955.00 661.05 1092.43 631.61
00016520 00000019 708.52 166.49 414.31 634.06 895.32 418.13 1066.03 384.36 1066.51 508.83 966.00 657.23 1101.10 627.52
00016521 00000020 714.30 168.49 411.81 633.24 910.72 416.30 1071.83 390.65 1079.32 506.07 974.21 651.35 1103.45 628.88
00016522 DELETE   725.10 169.02 402.77 637.73 928.57 427.84 1077.20 412.43 1091.40 506.83 985.76 653.77 1105.96 640.53
00016523 00000022 732.00 172.19 397.53 626.49 924.20 433.80 1079.23 414.51 1080.18 506.11 984.63 650.54 1109.16 633.53
00016524 00000023 737.21 167.32 393.60 625.58 932.04 433.53 1083.44 414.21 1089.77 502.84 995.60 648.98 1115.76 631.77
00016525 00000024 745.05 162.21 379.92 621.64 943.66 433.26 1088.60 410.74 1106.45 503.78 1014.36 648.89 1121.63 630.01
00016526 00000025 747.55 164.33 379.51 616.47 952.83 423.73 1093.09 406.28 1119.37 498.56 1022.26 645.21 1127.92 630.35
00016527 00000026 753.91 168.39 371.38 610.64 956.67 418.17 1092.15 400.97 1122.97 498.89 1026.70 643.41 1126.89 628.74
00016528 00000027 752.07 167.92 373.12 611.30 958.05 415.30 1090.40 396.61 1120.58 502.91 1024.69 644.86 1120.91 628.81
00016529 00000028 749.28 162.05 383.10 615.68 967.55 395.20 1092.81 400.17 1118.37 498.40 1027.45 631.07 1115.87 634.28
00016530 00000029 746.23 161.07 382.64 621.24 960.87 396.73 1091.58 401.43 1110.39 501.33 1019.30 633.69 1112.09 636.53
00016531 00000030 743.27 163.61 383.04 627.77 945.57 405.35 1082.90 400.36 1098.92 504.59 1003.76 641.66 1108.72 635.87
00016532 00000031 742.76 162.64 384.40 628.78 941.90 405.90 1081.11 398.76 1096.70 504.52 1002.05 642.17 1109.31 634.51
00016533 00000032 742.36 163.16 385.35 628.95 939.78 408.11 1081.19 400.33 1094.31 505.01 1000.58 644.25 1108.99 636.23
00016534 00000033 744.31 164.11 384.70 626.53 944.38 410.83 1088.69 404.95 1098.29 505.48 1001.00 643.31 1111.63 636.76
00016535 00000034 748.35 159.71 385.64 630.35 960.89 402.92 1098.57 405.39 1113.05 505.91 1020.92 640.68 1118.28 641.36
00016536 00000035 753.57 161.85 387.45 628.98 971.95 399.49 1103.67 400.02 1125.57 504.77 1034.13 639.57 1127.59 638.56
00016537 00000036 766.03 152.46 380.74 636.71 993.46 394.13 1107.77 395.79 1143.36 500.53 1047.70 633.32 1132.71 634.47
00016538 00000037 784.74 157.40 373.41 628.92 1013.27 395.47 1119.54 397.25 1160.71 493.58 1051.25 627.11 1134.93 629.73
00016539 DELETE   799.15 155.54 379.74 626.30 1033.53 384.24 1136.00 390.82 1183.21 485.46 1073.46 616.77 1160.86 621.33
00016540 DELETE   813.22 150.72 374.07 629.20 1053.82 374.74 1112.02 376.61 1194.08 479.29 1099.65 611.55 1148.78 614.45
00016541 00000040 824.66 153.24 379.52 626.74 1068.51 377.55 1122.27 372.39 1209.67 478.79 1098.41 606.91 1150.88 605.57
00016542 00000041 836.19 152.88 373.60 628.77 1075.78 385.59 1132.92 377.13 1213.32 485.14 1101.79 610.52 1158.17 605.84
00016543 00000042 841.84 163.88 369.04 607.84 1079.20 388.98 1144.70 384.02 1211.12 495.36 1103.78 616.85 1157.52 614.34
00016544 00000043 844.30 162.05 365.30 607.41 1079.58 389.85 1149.10 386.16 1209.39 496.54 1105.24 615.49 1162.83 613.45
00016545 00000044 840.41 159.57 369.96 609.02 1077.26 390.85 1150.54 385.06 1208.90 493.65 1106.48 614.89 1167.11 610.85
00016546 00000045 839.15 157.66 371.04 612.58 1072.69 391.11 1148.18 384.97 1206.54 494.41 1103.90 616.74 1166.30 612.50
00016547 00000046 841.05 157.64 369.35 612.06 1074.37 391.19 1151.94 384.76 1208.53 492.78 1107.70 616.85 1171.39 612.18
00016548 00000047 837.67 156.47 370.68 613.74 1071.48 391.61 1153.72 385.90 1207.91 492.18 1104.99 615.76 1172.67 611.39
00016549 00000048 831.15 153.53 372.29 618.63 1063.58 392.64 1148.58 386.39 1203.92 496.49 1097.96 619.29 1165.83 614.46
00016550 00000049 831.82 153.70 371.74 619.57 1061.11 391.93 1151.39 387.27 1204.43 496.83 1095.97 620.00 1168.19 616.39
00016551 00000050 828.98 152.16 374.34 624.73 1059.65 391.69 1153.52 387.71 1204.34 499.59 1095.07 623.76 1169.50 620.46
00016552 00000051 825.60 150.83 375.04 624.33 1053.91 391.57 1155.02 387.61 1201.26 504.53 1089.56 626.53 1167.72 623.22
00016553 00000052 824.17 148.84 374.86 624.74 1051.44 392.19 1154.32 388.45 1199.94 504.12 1087.23 625.22 1167.06 622.18
00016554 00000053 823.51 150.02 374.63 624.40 1046.75 393.18 1155.00 388.12 1197.64 503.45 1086.03 627.18 1169.58 622.87
00016555 00000054 816.30 144.96 381.97 636.80 1048.07 386.30 1147.11 391.44 1189.68 495.98 1083.69 619.84 1160.38 623.84
00016556 00000055 817.59 148.58 382.95 635.04 1049.49 387.79 1170.53 389.25 1197.90 498.45 1085.72 631.26 1175.74 631.49
00016557 00000056 813.30 151.47 382.77 630.83 1043.18 383.44 1169.55 386.71 1194.63 492.37 1078.72 626.95 1175.42 628.26
00016558 00000057 807.34 146.00 384.28 635.46 1036.69 381.08 1168.89 383.35 1192.57 489.96 1072.03 624.29 1174.81 624.26
00016559 00000058 798.93 142.81 387.75 641.14 1028.10 378.44 1162.93 382.96 1185.63 490.18 1063.18 624.27 1167.92 626.28
00016560 00000059 792.12 143.21 386.52 640.00 1020.40 379.34 1148.31 383.70 1175.12 487.85 1054.83 619.43 1158.16 621.96
00016561 00000060 786.61 141.45 378.72 643.58 1013.31 384.27 1136.65 385.74 1166.23 486.80 1052.02 623.83 1146.44 626.09
00016562 00000061 778.68 145.41 378.56 638.42 1002.64 382.43 1125.89 383.11 1157.62 486.77 1044.61 623.82 1138.56 625.22
00016563 00000062 769.72 138.57 381.12 638.73 995.29 378.69 1116.81 376.55 1150.24 484.88 1039.25 617.95 1130.82 617.25
00016564 00000063 760.48 125.79 386.89 645.58 978.79 369.65 1107.08 370.95 1135.36 476.40 1030.99 609.16 1126.16 608.21
00016565 00000064 757.05 121.01 387.05 650.04 974.54 366.16 1104.86 368.12 1130.01 474.35 1024.75 607.43 1121.74 606.56
00016566 00000065 749.17 121.53 388.30 646.61 964.22 360.86 1095.73 361.21 1120.54 469.42 1019.08 604.73 1116.06 602.70
00016567 00000066 741.45 115.67 394.39 649.43 954.52 357.88 1091.46 356.39 1109.25 466.11 1010.59 600.85 1111.57 596.98
00016568 00000067 744.19 115.84 390.80 644.73 959.63 362.15 1101.35 352.00 1123.53 460.68 1013.86 609.33 1122.50 599.83
00016569 00000068 745.35 116.35 389.84 639.77 958.06 357.21 1101.34 344.28 1122.60 458.52 1013.52 606.53 1123.64 594.75
00016570 00000069 744.72 111.77 390.16 642.69 957.01 353.56 1101.31 341.81 1123.36 452.95 1013.27 603.22 1125.09 592.39
00016571 00000070 743.39 112.40 389.46 639.01 954.25 351.59 1099.21 341.14 1120.36 450.35 1009.74 600.23 1122.54 590.57
00016572 00000071 740.78 112.20 389.02 637.48 949.70 351.83 1095.65 342.66 1114.38 449.57 1003.66 597.92 1117.35 589.21
00016573 00000072 739.17 108.02 389.32 641.45 947.67 353.47 1094.75 343.94 1112.62 451.55 1001.38 599.78 1115.16 590.95
00016574 00000073 737.92 108.77 389.69 642.10 955.21 368.38 1096.73 361.02 1115.84 459.16 999.17 600.76 1111.22 594.08
00016575 00000074 736.45 118.77 389.35 631.80 950.41 371.91 1094.59 368.41 1108.61 460.30 991.96 601.00 1106.26 597.55
00016576 00000075 734.18 116.51 390.26 634.67 944.92 369.83 1091.45 368.63 1103.29 458.97 985.29 600.37 1102.15 598.85
00016577 00000076 733.47 118.56 391.68 635.87 942.49 368.63 1090.97 366.46 1099.70 465.28 980.27 603.42 1099.31 601.23
00016578 00000077 735.48 118.24 390.22 636.96 945.78 369.13 1094.97 366.19 1104.50 466.71 985.52 605.18 1104.37 601.88
00016579 00000078 733.80 113.26 391.26 641.31 945.72 368.38 1093.57 361.53 1106.11 464.00 990.29 604.73 1108.39 597.97
00016580 00000079 732.40 113.53 390.66 646.27 943.55 371.78 1093.02 362.20 1107.30 468.04 988.47 609.78 1108.84 600.87
00016581 00000080 733.04 115.17 390.85 647.57 943.92 374.94 1095.12 366.30 1107.00 472.08 988.08 613.28 1108.76 604.85
00016582 00000081 733.05 117.70 388.22 648.04 943.65 376.20 1096.66 371.02 1103.96 478.94 984.29 617.22 1103.68 611.75
00016583 00000082 731.89 119.42 388.85 650.41 943.58 379.48 1095.38 375.84 1102.40 483.41 982.53 620.66 1100.81 616.47
00016584 00000083 732.18 123.82 392.12 648.05 945.86 378.62 1098.40 379.53 1103.84 484.22 984.28 620.94 1102.45 620.27
00016585 00000084 732.98 126.15 390.76 645.25 946.88 378.13 1100.04 381.26 1104.96 483.59 985.94 621.64 1103.32 622.57
00016586 00000085 732.33 125.19 390.63 648.77 945.53 378.77 1101.24 383.38 1104.22 481.00 982.16 620.61 1104.11 622.48
00016587 00000086 733.29 123.56 394.21 647.62 944.89 378.51 1101.92 379.47 1106.56 478.74 985.61 619.04 1108.88 617.83
00016588 00000087 733.22 124.73 394.08 646.74 945.20 379.27 1102.61 381.70 1106.61 478.59 985.19 618.93 1108.65 618.84
00016589 00000088 734.26 126.63 392.75 649.12 947.50 381.21 1104.05 384.84 1107.26 482.48 984.37 622.02 1108.06 623.04
00016590 00000089 737.99 132.53 389.56 642.38 952.42 383.20 1103.35 387.37 1109.62 483.21 991.30 623.62 1107.54 625.32
00016591 00000090 739.44 140.42 391.29 637.80 955.97 385.17 1104.29 391.19 1111.60 486.97 993.57 627.02 1107.67 630.34
00016592 00000091 742.09 145.70 390.69 634.02 957.66 388.35 1101.88 391.91 1110.42 491.25 997.33 630.40 1106.98 631.96
00016593 00000092 738.68 145.27 389.67 642.77 947.58 389.72 1080.29 388.68 1090.60 499.40 993.79 630.55 1095.48 627.43
00016594 00000093 742.10 150.09 389.88 639.57 949.00 389.97 1085.25 388.93 1094.78 501.66 994.21 631.95 1098.99 628.85
00016595 00000094 742.40 155.73 389.33 638.34 947.82 392.96 1087.87 391.03 1096.10 504.78 995.24 636.80 1101.78 632.99
00016596 00000095 745.88 158.54 391.61 635.81 959.58 389.81 1101.73 397.78 1107.39 506.42 1005.04 636.44 1107.53 641.77
00016597 00000096 749.23 156.68 392.26 640.14 962.17 388.40 1105.33 396.49 1111.28 505.63 1009.51 638.62 1111.07 643.86
00016598 00000097 749.64 155.18 392.22 642.22 962.60 387.04 1105.87 394.25 1113.69 505.63 1010.12 638.97 1112.23 643.55
00016599 00000098 751.13 154.54 394.75 640.48 963.69 388.26 1108.82 390.52 1117.70 506.26 1013.23 638.41 1117.42 638.89
00016600 00000099 752.31 153.17 396.67 641.22 965.02 388.38 1110.89 388.67 1119.76 505.48 1016.58 638.33 1122.98 637.05
00016601 00000100 750.82 153.59 396.88 642.15 963.31 388.19 1109.78 388.16 1119.31 505.64 1014.06 639.47 1121.29 637.95
00016602 00000101 750.65 155.39 396.54 638.87 962.24 389.28 1109.66 388.87 1119.26 506.48 1014.23 640.75 1120.69 638.90
00016603 00000102 752.87 156.43 396.88 639.23 966.24 397.74 1111.18 397.93 1120.05 509.62 1015.94 641.04 1122.50 639.88
00016604 00000103 751.31 159.42 395.04 632.97 965.00 411.52 1113.87 417.94 1116.43 512.00 1012.20 636.80 1121.44 640.50
00016605 00000104 749.50 163.17 396.04 632.24 958.23 413.98 1111.31 415.47 1113.95 515.08 1013.32 643.77 1123.14 643.17
00016606 00000105 750.53 163.36 396.62 633.48 955.63 414.13 1109.78 410.02 1113.10 516.33 1015.97 649.65 1124.93 644.34
00016607 00000106 748.39 164.49 398.21 636.36 954.22 412.23 1107.19 408.79 1111.57 515.42 1014.52 652.16 1123.25 647.48
00016608 00000107 749.96 162.91 396.98 635.09 956.08 411.98 1108.99 405.78 1114.09 515.71 1018.50 652.00 1125.82 644.95
00016609 00000108 754.75 158.64 397.09 639.06 962.87 409.60 1113.85 403.26 1121.04 515.75 1023.81 651.43 1131.48 644.32
00016610 00000109 757.27 157.93 397.89 642.83 967.07 408.95 1118.12 403.60 1124.91 516.52 1024.11 651.30 1132.62 644.82
00016611 00000110 756.93 157.31 399.63 643.51 968.65 407.35 1117.62 401.62 1127.34 515.05 1025.68 649.92 1133.00 643.12
00016612 00000111 759.62 157.18 397.13 642.09 971.10 406.83 1119.99 401.43 1130.59 515.69 1027.38 650.10 1134.43 643.82
00016613 00000112 759.51 158.11 398.77 639.68 971.75 407.84 1121.48 401.10 1131.80 515.72 1027.66 649.22 1136.19 641.66
00016614 00000113 757.59 159.84 400.02 635.79 968.52 408.42 1121.11 402.46 1128.32 514.72 1024.40 648.33 1135.30 641.31
00016615 00000114 758.17 158.14 398.26 637.38 965.42 407.06 1119.41 400.68 1124.99 512.65 1023.23 648.29 1134.73 641.10
00016616 00000115 755.37 160.54 399.19 634.75 962.17 406.26 1115.80 401.25 1120.40 512.35 1019.87 647.77 1130.33 641.78
00016617 00000116 755.77 160.66 398.69 635.95 960.75 406.47 1114.88 401.85 1118.47 512.30 1018.95 648.37 1129.63 642.76
00016618 00000117 755.69 159.76 397.44 633.31 962.03 405.23 1114.46 402.12 1118.89 511.92 1019.64 646.79 1128.46 642.63
00016619 00000118 754.07 158.40 396.43 636.75 960.16 404.41 1111.51 401.79 1116.93 510.94 1017.98 645.87 1126.74 642.12
00016620 00000119 748.12 159.61 395.12 634.47 955.70 403.87 1104.80 404.28 1110.19 509.44 1013.09 643.17 1120.37 641.90
00016621 00000120 742.32 160.62 396.36 632.02 948.18 404.02 1099.86 404.98 1102.70 510.47 1006.23 642.73 1114.06 641.73
00016622 00000121 737.85 156.69 394.41 637.98 933.34 414.53 1087.22 402.41 1088.37 510.22 992.02 649.17 1107.87 637.40
00016623 00000122 733.54 156.58 393.86 640.49 931.26 412.93 1077.81 399.10 1081.64 509.19 986.40 646.90 1101.48 633.79
00016624 00000123 733.06 153.03 390.02 642.93 943.64 406.81 1086.08 404.98 1103.84 501.30 988.72 644.14 1100.45 643.21
00016625 00000124 731.64 150.89 388.87 643.91 939.79 402.63 1083.50 401.51 1098.21 496.84 984.51 641.03 1097.65 640.74
00016626 00000125 731.66 150.15 386.67 641.83 937.33 402.27 1083.64 401.90 1095.26 496.08 981.39 639.61 1096.13 640.04
00016627 00000126 731.26 155.47 393.76 636.93 933.93 402.52 1090.79 401.24 1092.31 502.16 978.66 641.41 1102.13 638.51
00016628 00000127 729.50 150.46 391.15 647.56 936.10 405.16 1085.31 404.29 1095.81 500.24 978.03 641.90 1097.30 641.82
00016629 00000128 734.33 157.23 390.99 648.54 943.48 406.70 1088.64 407.60 1104.06 501.97 984.29 645.52 1101.49 646.66
00016630 00000129 738.40 158.75 390.82 652.13 946.65 406.84 1092.88 408.90 1106.05 502.22 989.05 650.04 1104.88 651.91
00016631 00000130 737.91 158.97 393.72 651.76 939.46 401.51 1088.68 407.19 1087.14 508.74 991.58 645.52 1100.64 648.50
00016632 00000131 738.68 159.73 394.68 642.86 942.56 402.71 1092.76 407.27 1093.37 508.67 996.27 642.58 1105.28 644.82
00016633 00000132 739.64 157.43 398.28 641.94 944.51 400.37 1093.25 402.89 1094.24 508.31 996.96 639.65 1105.20 640.32
00016634 00000133 741.44 159.17 395.28 632.41 946.29 397.83 1095.48 402.04 1097.62 508.19 997.00 636.83 1105.82 639.09
00016635 00000134 744.13 161.54 394.10 628.36 948.30 396.21 1097.73 400.98 1099.95 507.56 998.72 636.58 1107.81 639.10
00016636 00000135 746.29 159.00 393.75 630.35 951.78 395.06 1099.41 398.53 1102.54 507.15 1002.42 636.21 1109.39 637.71
00016637 00000136 748.32 160.77 393.04 626.39 953.88 393.42 1102.61 395.73 1105.06 506.79 1004.29 635.37 1112.77 635.76
00016638 00000137 749.87 160.21 395.15 628.86 954.20 393.72 1105.30 393.89 1106.86 507.26 1004.85 636.03 1116.13 634.51
00016639 00000138 752.70 161.53 395.58 622.86 957.76 391.77 1108.48 389.97 1111.65 506.26 1008.39 635.95 1119.91 633.05
00016640 00000139 754.57 160.80 395.61 624.90 958.75 391.83 1110.21 390.15 1113.30 506.82 1010.37 637.39 1121.95 634.60
00016641 00000140 760.67 157.13 395.90 628.10 964.12 394.01 1117.43 390.35 1120.81 508.17 1016.36 639.37 1129.60 634.99
00016642 00000141 766.16 152.37 396.52 634.53 971.64 393.60 1123.12 388.83 1127.80 505.59 1021.65 636.38 1135.68 631.31
00016643 00000142 767.64 151.65 395.28 634.05 973.12 392.65 1124.54 388.43 1129.59 505.21 1022.53 635.88 1136.46 631.44
00016644 00000143 769.80 149.30 394.15 635.75 975.28 392.21 1126.18 387.22 1132.12 503.47 1024.78 635.33 1138.10 630.44
00016645 00000144 776.03 143.05 391.80 646.09 982.88 392.98 1132.00 387.16 1141.95 499.86 1030.23 635.39 1143.87 630.21
00016646 00000145 778.34 143.58 391.13 645.40 986.87 392.03 1134.96 388.51 1146.18 497.16 1033.68 634.21 1145.97 631.15
00016647 00000146 780.59 143.16 391.86 646.28 990.20 393.57 1137.84 389.28 1149.17 497.38 1037.12 635.18 1149.73 631.63
00016648 00000147 788.96 142.05 393.94 646.79 992.51 386.45 1148.96 385.30 1152.92 496.19 1039.24 632.39 1162.03 630.03
00016649 00000148 792.03 139.05 393.60 650.32 996.86 387.73 1153.94 387.71 1155.59 497.87 1041.35 634.39 1163.60 632.86
00016650 00000149 793.71 137.12 394.45 650.33 998.53 388.30 1156.73 389.06 1156.62 497.68 1042.58 634.21 1165.01 633.30
00016651 00000150 797.16 139.35 394.80 651.85 1000.07 390.02 1158.47 388.88 1157.14 500.66 1044.03 638.45 1166.44 635.88
00016652 00000151 795.53 139.92 391.71 660.19 1001.09 396.50 1151.16 392.21 1158.30 498.13 1044.00 640.81 1162.17 637.94
00016653 00000152 795.74 140.21 392.38 661.87 1002.62 397.94 1150.88 393.76 1158.07 502.10 1043.25 643.71 1159.86 641.22
00016654 00000153 798.57 141.57 392.51 655.35 1006.12 397.20 1155.17 395.54 1162.13 502.53 1043.81 640.97 1160.92 641.05
00016655 00000154 799.99 146.29 397.35 649.03 1005.59 393.88 1163.14 395.59 1160.88 505.33 1043.89 640.56 1166.37 640.45
00016656 00000155 799.79 149.83 397.17 641.70 1002.48 393.29 1164.28 397.19 1158.52 500.98 1043.64 637.13 1169.52 638.20
00016657 00000156 794.49 143.60 401.27 636.47 999.13 388.48 1163.95 395.92 1158.38 490.21 1039.72 625.24 1168.70 629.31
00016658 00000157 778.84 134.76 410.49 641.43 981.70 382.62 1149.76 382.75 1144.35 479.54 1031.80 619.25 1164.23 617.35
00016659 00000158 766.81 131.68 410.05 637.34 958.50 377.25 1129.00 370.76 1116.86 474.03 1012.99 613.37 1145.11 605.82
00016660 00000159 759.27 132.62 414.26 645.61 939.31 376.48 1114.48 369.68 1096.54 470.94 991.48 612.91 1133.41 604.44
00016661 00000160 758.00 142.09 411.26 650.79 945.02 379.91 1112.21 372.33 1101.34 470.09 992.47 615.37 1129.88 606.93
00016662 00000161 759.93 141.15 414.99 656.30 948.70 380.75 1114.57 370.04 1102.86 468.31 995.80 617.70 1134.09 606.83
00016663 00000162 766.29 133.41 414.59 652.07 945.96 373.01 1127.97 363.71 1109.18 467.65 994.93 613.91 1148.22 603.82
00016664 00000163 775.86 133.03 412.83 644.61 965.49 383.75 1144.01 376.97 1123.84 476.97 1007.53 615.50 1156.99 607.93
00016665 00000164 780.34 140.89 416.32 633.05 976.68 385.23 1151.55 383.77 1137.45 473.03 1017.55 611.66 1164.97 608.83
