Video ID: 	tkdhCyXMx_w
H: 	1080
W: 	1920
FPS: 	23.976023976023978

FRAME INDEX X0 Y0 W H [Landmarks (5 Points)]

00000022 00000000 1009.00 268.64 428.04 596.19 1134.34 471.91 1336.38 526.57 1211.65 628.65 1101.40 680.73 1275.51 725.48
00000023 00000001 1010.15 269.73 438.55 598.42 1143.64 471.99 1346.98 526.41 1225.42 627.37 1108.53 681.55 1287.22 726.48
00000024 DELETE   1018.32 270.03 433.70 596.67 1160.52 473.31 1362.96 524.46 1245.68 628.90 1123.86 685.47 1301.69 729.39
00000025 00000003 1030.37 275.31 434.38 595.94 1176.14 478.31 1383.78 528.55 1270.17 642.10 1136.99 695.27 1317.91 739.81
00000026 00000004 1036.02 279.45 437.48 595.42 1186.73 488.37 1396.56 531.70 1289.65 650.37 1153.80 703.23 1336.71 741.79
00000027 00000005 1049.00 286.00 429.17 603.61 1198.62 496.42 1397.47 538.23 1301.64 656.96 1166.17 718.02 1338.06 753.66
00000028 00000006 1048.20 285.79 426.78 608.36 1196.19 496.36 1391.36 540.43 1295.39 656.54 1159.49 721.53 1328.96 759.12
00000029 00000007 1042.90 285.12 422.62 599.94 1183.86 492.61 1382.43 537.67 1280.64 649.00 1148.31 714.61 1318.80 753.14
00000030 00000008 1031.81 278.54 421.25 592.20 1167.07 483.20 1370.83 527.01 1260.20 643.92 1134.98 701.09 1308.26 740.07
00000031 00000009 1025.65 278.52 426.03 584.76 1154.61 487.28 1364.13 521.78 1254.32 641.08 1134.71 707.19 1310.47 736.81
00000032 00000010 1020.85 279.89 426.78 590.34 1150.96 488.62 1354.62 520.98 1247.58 640.82 1131.67 708.17 1303.41 735.47
00000033 00000011 1018.62 283.15 422.97 585.83 1147.40 489.55 1351.15 523.05 1243.09 640.63 1128.38 708.89 1298.98 737.27
00000034 00000012 1014.72 283.72 420.80 580.21 1144.29 492.31 1349.15 527.93 1240.67 643.17 1123.56 707.05 1296.72 737.33
00000035 00000013 1011.45 283.71 423.58 579.29 1143.14 491.57 1348.56 528.47 1239.83 643.30 1120.34 704.76 1296.57 736.17
00000036 00000014 1013.00 280.33 422.25 581.68 1144.53 487.81 1350.53 526.40 1240.64 642.61 1120.38 702.13 1295.99 735.00
00000037 00000015 1016.17 276.30 419.17 589.97 1144.97 485.00 1349.33 519.63 1241.45 637.58 1125.13 706.50 1294.82 735.66
00000038 00000016 1019.11 274.68 417.78 592.62 1146.09 482.88 1350.16 517.28 1242.37 635.54 1126.82 706.86 1295.54 736.01
00000039 00000017 1020.56 273.25 418.79 588.67 1149.68 483.08 1353.12 514.99 1248.36 635.22 1131.15 702.17 1302.13 729.48
00000040 00000018 1023.92 274.28 422.29 585.87 1153.42 485.08 1357.46 517.30 1252.40 636.84 1135.38 701.18 1308.57 728.63
00000041 DELETE   1030.44 272.04 416.17 592.14 1162.55 479.78 1363.47 522.52 1253.24 636.58 1132.61 695.18 1304.45 732.96
00000042 00000020 1035.74 281.85 416.39 586.97 1166.46 484.48 1369.36 530.71 1255.17 648.77 1132.76 698.98 1306.14 739.86
00000043 DELETE   1038.83 286.72 418.29 584.03 1167.90 490.21 1372.15 536.26 1257.26 654.53 1133.99 704.11 1309.27 744.63
00000044 00000022 1039.66 290.58 420.78 580.70 1169.95 490.63 1375.24 537.67 1258.40 655.40 1135.97 704.04 1312.09 745.27
00000045 00000023 1040.52 286.97 420.31 581.95 1169.72 488.25 1375.98 535.05 1257.94 652.20 1136.26 701.26 1315.03 742.18
00000046 00000024 1038.53 284.63 420.71 582.21 1169.60 483.37 1376.47 529.34 1257.34 647.02 1136.85 697.43 1316.44 737.68
00000047 00000025 1038.60 279.14 421.41 585.83 1169.03 479.06 1376.17 523.29 1257.83 639.83 1136.51 693.13 1319.93 731.88
00000048 00000026 1038.12 275.50 419.60 589.12 1168.02 476.40 1373.70 519.41 1256.68 633.36 1136.18 688.57 1322.41 726.10
00000049 00000027 1037.91 270.20 419.51 592.74 1166.56 474.63 1372.25 516.81 1254.87 627.74 1135.01 685.97 1322.80 722.54
00000050 00000028 1036.78 267.74 420.22 599.48 1166.03 474.98 1370.40 516.17 1254.43 626.30 1135.29 687.24 1321.14 722.96
00000051 00000029 1036.65 266.78 418.57 603.06 1165.35 475.50 1369.30 517.28 1252.87 626.34 1134.71 688.61 1319.71 724.65
00000052 00000030 1035.71 267.40 418.82 600.12 1164.13 475.60 1368.26 517.40 1250.96 626.47 1134.27 688.11 1318.81 724.17
00000053 00000031 1035.78 264.73 417.63 598.41 1163.72 473.97 1368.04 515.79 1250.05 625.10 1133.77 686.62 1317.45 722.68
00000054 00000032 1035.90 260.99 419.10 598.26 1163.10 470.20 1367.31 511.57 1249.35 621.07 1133.25 685.41 1316.07 720.75
00000055 00000033 1037.05 258.71 417.82 596.59 1161.60 463.74 1362.72 505.11 1245.20 614.90 1135.73 682.11 1312.96 717.07
00000056 00000034 1037.52 250.05 417.56 597.65 1159.30 459.29 1364.70 499.25 1244.14 606.40 1136.17 681.29 1311.83 714.75
00000057 00000035 1036.10 247.85 418.99 594.07 1156.23 454.47 1363.66 493.40 1241.52 602.49 1134.02 678.05 1310.92 710.52
00000058 00000036 1034.82 246.20 419.55 592.41 1154.77 453.26 1363.48 491.88 1240.81 603.41 1134.45 677.76 1310.61 709.97
00000059 00000037 1034.13 247.81 420.08 589.04 1153.54 453.53 1363.74 493.12 1239.97 604.22 1131.63 676.45 1311.72 709.29
00000060 00000038 1034.95 249.66 420.04 588.35 1154.94 455.06 1364.67 496.90 1239.53 607.63 1129.21 674.29 1313.55 709.08
00000061 00000039 1034.57 248.28 424.69 590.08 1153.08 452.40 1358.32 497.83 1234.86 609.83 1131.58 671.28 1303.15 709.45
00000062 00000040 1034.16 245.46 426.12 592.37 1152.78 449.73 1359.05 496.16 1233.66 607.53 1129.85 668.40 1304.05 707.53
00000063 00000041 1033.54 242.69 428.52 595.12 1152.44 445.39 1359.63 491.91 1232.90 602.20 1128.93 664.55 1305.45 703.88
00000064 00000042 1033.74 237.75 428.16 595.14 1151.13 442.64 1360.29 489.72 1232.24 597.83 1126.59 659.92 1305.44 699.85
00000065 DELETE   1033.88 232.63 424.01 594.54 1154.20 453.39 1358.77 497.12 1236.29 594.22 1127.11 656.20 1306.42 693.29
00000066 DELETE   1033.97 230.52 427.53 593.54 1152.32 449.73 1360.24 495.26 1231.87 590.85 1124.95 654.59 1304.91 693.12
00000067 00000045 1034.54 227.35 426.42 593.80 1151.96 442.44 1359.60 490.53 1230.24 586.31 1123.12 651.08 1301.32 691.46
00000068 00000046 1034.33 225.65 428.80 592.04 1150.75 439.81 1358.85 487.62 1227.67 582.97 1121.77 648.99 1299.46 689.24
00000069 00000047 1033.36 225.02 427.61 591.56 1150.17 436.39 1357.33 485.37 1226.02 580.24 1120.60 645.52 1298.20 686.82
00000070 00000048 1032.72 224.25 429.61 591.23 1149.19 434.55 1356.75 483.21 1224.27 579.88 1118.97 644.25 1297.63 685.29
00000071 00000049 1032.80 224.37 430.99 590.80 1148.98 434.85 1355.44 482.16 1224.30 578.55 1119.55 644.08 1298.37 683.90
00000072 00000050 1032.97 222.29 427.53 591.70 1148.14 434.89 1353.51 481.38 1223.77 577.73 1119.30 643.40 1297.57 682.53
00000073 00000051 1032.39 221.77 426.65 591.94 1147.91 434.93 1352.37 480.11 1223.64 576.27 1120.18 643.51 1297.08 681.64
00000074 00000052 1032.61 222.35 424.01 591.83 1147.38 435.12 1349.95 479.55 1221.87 576.55 1120.19 643.54 1295.00 681.18
00000075 00000053 1033.46 221.17 422.96 593.52 1146.77 435.31 1348.90 479.21 1220.85 576.74 1120.76 644.69 1294.86 681.82
00000076 00000054 1034.33 222.49 421.92 593.84 1145.68 436.93 1346.46 478.99 1218.72 577.32 1123.04 648.94 1292.20 684.55
00000077 00000055 1035.16 216.03 414.75 592.99 1138.41 444.03 1341.46 471.47 1216.21 582.13 1130.07 661.10 1300.23 683.89
00000078 00000056 1037.59 217.16 412.79 594.28 1139.88 446.77 1342.77 471.28 1217.02 582.70 1135.39 667.35 1299.88 687.59
00000079 00000057 1042.12 222.91 413.47 598.77 1148.15 442.63 1342.57 482.63 1217.37 579.48 1134.25 663.57 1283.53 697.43
00000080 00000058 1046.40 227.52 406.64 598.75 1149.59 447.70 1347.01 479.72 1225.03 576.39 1141.05 671.91 1293.19 698.42
00000081 00000059 1048.00 227.69 407.31 601.32 1151.35 448.02 1348.47 479.52 1227.06 577.00 1143.58 674.12 1291.72 700.46
00000082 00000060 1048.90 228.03 407.87 601.92 1152.84 448.26 1350.53 480.52 1228.57 577.93 1144.62 675.19 1290.95 702.30
00000083 00000061 1050.29 228.51 408.10 601.52 1154.01 448.21 1351.94 479.77 1230.06 577.58 1146.26 675.94 1292.20 702.50
00000084 00000062 1051.49 228.42 407.26 603.77 1154.79 448.53 1352.11 479.81 1230.19 577.73 1146.51 676.25 1292.43 702.66
00000085 00000063 1052.42 227.86 407.47 605.16 1155.24 448.85 1352.70 480.60 1230.47 578.11 1146.10 676.59 1293.61 703.34
00000086 00000064 1052.55 228.04 408.04 605.58 1154.83 448.67 1352.34 480.17 1229.47 578.10 1145.57 676.59 1293.21 703.16
00000087 00000065 1052.00 227.71 407.10 604.72 1154.55 448.62 1351.80 480.29 1229.00 578.08 1145.09 676.06 1292.15 702.75
00000088 00000066 1051.44 228.34 407.50 603.76 1154.21 448.41 1351.19 480.82 1227.97 578.25 1144.70 675.05 1291.06 702.34
00000089 00000067 1051.41 228.50 408.68 603.12 1153.85 448.05 1350.48 480.31 1226.87 577.10 1144.76 674.59 1290.72 701.71
00000090 00000068 1051.05 227.88 408.27 604.05 1152.16 446.90 1347.95 479.04 1224.44 576.67 1142.17 673.63 1288.74 700.64
00000091 00000069 1051.06 227.25 406.98 604.02 1151.51 446.26 1347.14 478.29 1223.39 576.33 1141.26 672.84 1288.63 699.70
00000092 00000070 1050.99 226.15 406.05 604.83 1151.22 446.13 1346.08 478.63 1222.42 576.10 1140.31 672.29 1287.51 699.62
00000093 00000071 1051.30 226.77 405.53 602.97 1150.97 444.93 1344.99 478.99 1220.42 575.36 1138.85 670.59 1286.69 699.18
00000094 00000072 1050.83 226.74 406.00 601.49 1150.37 444.77 1345.22 479.24 1219.64 576.17 1137.42 670.99 1287.45 699.75
00000095 00000073 1051.13 226.76 406.41 599.92 1150.43 445.31 1345.99 480.08 1219.83 578.03 1137.52 671.78 1289.12 700.69
00000096 00000074 1049.20 222.10 410.77 601.77 1150.04 439.82 1342.90 483.56 1212.99 581.55 1134.75 666.44 1280.58 703.94
00000097 00000075 1049.96 221.75 409.49 599.37 1150.81 440.06 1343.92 485.05 1213.43 581.76 1133.88 663.52 1281.58 702.03
00000098 00000076 1050.89 222.26 411.09 595.27 1151.02 441.33 1345.37 486.66 1213.95 581.88 1133.06 660.46 1285.21 698.98
00000099 00000077 1053.82 227.75 408.84 591.58 1152.90 444.75 1351.09 482.75 1223.03 575.75 1137.23 663.57 1302.07 694.28
00000100 00000078 1049.86 221.65 416.57 597.00 1151.22 440.32 1347.40 484.74 1215.44 579.91 1132.70 658.15 1291.53 695.60
00000101 00000079 1054.78 228.28 410.27 594.08 1154.32 445.36 1352.49 481.81 1224.19 573.61 1138.64 663.61 1305.71 692.85
00000102 00000080 1055.52 229.02 407.57 592.51 1154.04 445.50 1353.56 483.99 1223.21 577.16 1136.21 662.43 1306.96 693.28
00000103 00000081 1056.77 228.55 406.94 593.67 1154.38 446.51 1354.70 484.80 1223.78 578.63 1136.55 662.60 1309.46 693.29
00000104 00000082 1057.17 229.90 408.25 593.26 1154.37 447.51 1354.61 484.97 1223.64 579.11 1136.52 664.93 1308.49 694.88
00000105 00000083 1057.08 228.72 409.67 593.82 1153.24 447.62 1354.93 485.10 1222.90 582.01 1135.69 666.42 1308.49 696.34
00000106 00000084 1056.82 229.01 409.71 594.09 1153.22 447.52 1354.37 484.83 1222.86 581.38 1136.21 666.35 1307.43 696.20
00000107 00000085 1057.48 228.52 410.78 593.00 1152.33 447.58 1354.17 483.89 1222.40 580.60 1136.30 667.77 1306.86 696.74
00000108 00000086 1057.05 229.24 412.59 590.87 1152.17 448.10 1353.12 483.18 1222.46 579.93 1137.38 668.08 1306.34 696.02
00000109 00000087 1058.81 229.91 410.34 590.07 1155.36 457.79 1354.40 491.65 1225.62 577.14 1140.45 669.27 1309.48 695.68
00000110 00000088 1058.78 229.55 409.01 592.03 1155.60 456.99 1353.59 490.14 1226.32 577.15 1141.80 668.70 1308.87 694.69
00000111 00000089 1058.60 228.14 411.56 593.10 1154.81 451.75 1354.27 487.26 1224.79 578.37 1139.12 666.75 1308.07 694.77
00000112 00000090 1059.63 228.10 410.50 595.12 1154.54 449.03 1354.00 486.30 1223.19 579.82 1136.99 665.24 1306.72 694.98
00000113 00000091 1058.96 227.89 410.65 594.49 1153.20 447.95 1353.25 485.54 1221.55 578.37 1135.06 664.88 1304.12 694.94
00000114 00000092 1058.15 229.10 412.97 591.84 1151.51 447.92 1350.21 484.17 1218.55 578.40 1134.93 666.26 1298.78 695.50
00000115 00000093 1056.68 227.36 410.55 590.59 1150.47 446.22 1349.47 483.69 1217.76 577.12 1132.83 665.23 1295.22 695.69
00000116 00000094 1054.94 227.07 409.72 590.89 1147.82 445.45 1346.71 481.94 1214.36 576.45 1131.83 664.85 1293.81 694.63
00000117 00000095 1051.97 226.08 409.90 593.30 1145.16 443.88 1343.40 480.90 1210.99 577.90 1130.87 663.47 1292.31 693.83
00000118 00000096 1050.59 225.97 408.89 594.06 1143.64 443.35 1342.60 481.83 1208.50 578.96 1127.87 660.37 1292.75 691.73
00000119 00000097 1043.06 214.54 408.19 598.22 1133.95 445.43 1336.86 475.46 1202.75 586.21 1127.70 665.56 1295.16 689.86
00000120 00000098 1049.91 227.24 403.99 597.51 1143.93 444.26 1340.26 483.06 1206.17 579.65 1128.13 662.59 1288.36 694.34
00000121 00000099 1049.08 227.41 403.06 601.23 1142.92 446.58 1338.68 481.93 1207.23 580.35 1130.31 668.70 1284.96 697.87
00000122 00000100 1048.15 227.40 404.56 599.29 1141.25 446.03 1339.55 482.09 1206.44 581.47 1127.49 667.52 1287.15 697.10
00000123 00000101 1040.97 218.10 411.06 598.58 1131.13 447.08 1333.73 475.92 1197.91 586.93 1126.02 669.78 1290.04 693.05
00000124 00000102 1039.39 217.26 410.19 597.70 1130.22 445.71 1332.72 474.71 1197.62 586.06 1124.25 667.06 1290.20 690.59
00000125 00000103 1038.09 216.66 409.84 596.49 1129.94 445.15 1331.17 473.87 1197.48 582.64 1123.45 663.87 1289.66 687.31
00000126 00000104 1035.97 216.44 408.94 593.65 1128.65 445.17 1328.55 472.02 1196.30 579.57 1122.40 660.39 1289.49 682.37
00000127 00000105 1035.26 218.23 407.08 591.09 1128.16 445.34 1326.61 471.24 1195.70 577.25 1121.54 657.75 1288.79 679.05
00000128 00000106 1033.47 217.01 407.29 591.70 1127.89 447.95 1325.79 471.68 1197.98 577.28 1124.11 659.92 1288.90 679.20
00000129 00000107 1032.21 216.70 405.04 592.40 1127.38 448.24 1324.53 471.50 1198.06 576.69 1123.62 659.86 1288.20 678.80
00000130 00000108 1032.42 217.35 407.63 592.43 1126.83 447.92 1325.74 471.90 1197.01 576.32 1122.64 659.91 1289.53 679.37
00000131 00000109 1032.48 218.17 407.71 589.85 1125.93 447.88 1326.36 472.58 1196.41 577.47 1121.50 659.79 1290.85 679.93
00000132 00000110 1032.58 217.78 408.44 589.49 1124.86 448.23 1327.05 473.82 1195.73 578.10 1119.88 659.92 1292.04 680.77
00000133 00000111 1032.10 219.05 410.32 588.07 1124.06 448.39 1327.80 475.72 1195.03 579.01 1118.33 659.08 1293.08 681.37
00000134 00000112 1030.49 222.33 408.91 584.94 1122.91 449.79 1325.60 479.46 1193.57 581.76 1115.05 656.56 1292.86 681.09
00000135 00000113 1030.29 224.58 407.94 580.73 1122.19 451.12 1325.10 482.35 1192.06 584.17 1112.94 655.71 1292.14 681.81
00000136 00000114 1029.14 225.18 408.22 579.68 1122.34 452.00 1325.00 484.49 1192.42 584.63 1111.82 655.01 1291.30 682.28
00000137 00000115 1027.29 223.33 409.69 580.98 1121.73 449.53 1324.13 484.00 1191.24 583.38 1108.49 651.91 1289.05 680.86
00000138 00000116 1026.66 222.15 410.18 584.53 1123.12 444.98 1324.93 479.45 1192.90 579.31 1107.98 650.51 1288.02 679.49
00000139 00000117 1029.20 220.91 408.25 588.27 1124.58 444.97 1325.84 472.72 1194.63 575.08 1115.63 657.14 1285.60 680.22
00000140 00000118 1030.69 222.03 405.61 594.12 1126.36 444.52 1327.08 470.13 1195.22 574.82 1118.47 661.98 1284.69 683.14
00000141 00000119 1032.27 222.56 405.88 603.69 1127.47 442.76 1329.95 468.67 1196.61 575.02 1119.39 666.13 1287.04 687.28
00000142 00000120 1033.31 221.37 406.45 612.86 1128.14 441.86 1332.26 468.04 1198.94 576.92 1120.99 671.39 1287.56 692.58
00000143 00000121 1032.56 221.77 404.81 610.88 1126.84 443.37 1331.58 468.64 1199.35 579.58 1120.32 672.26 1288.79 692.86
00000144 00000122 1032.29 223.20 408.17 594.11 1124.31 446.50 1331.05 470.98 1196.80 582.93 1118.63 667.59 1291.27 687.78
00000145 00000123 1031.50 222.82 410.85 586.00 1122.42 446.31 1329.68 472.56 1195.70 584.40 1116.59 662.15 1292.94 683.82
00000146 00000124 1031.17 222.56 413.56 583.45 1123.06 444.01 1329.06 474.01 1196.18 584.42 1113.43 654.55 1294.56 679.55
00000147 00000125 1029.77 221.75 415.23 580.31 1124.29 442.06 1329.81 476.79 1196.22 582.48 1110.82 647.78 1295.69 676.78
00000148 00000126 1029.13 221.19 413.82 579.03 1126.09 440.59 1330.47 477.23 1198.11 579.10 1110.88 642.85 1298.03 673.33
00000149 00000127 1029.61 219.97 413.05 580.14 1126.03 440.22 1330.32 476.31 1197.61 576.89 1110.55 641.48 1298.79 671.54
00000150 00000128 1028.45 219.90 412.77 580.75 1125.96 438.03 1330.28 474.09 1198.22 572.62 1109.54 638.99 1298.34 669.00
00000151 00000129 1026.91 217.03 413.02 587.13 1125.81 431.96 1329.09 469.49 1196.23 565.78 1107.50 635.60 1294.13 666.44
00000152 00000130 1024.53 211.94 416.35 590.96 1122.27 428.24 1330.32 461.55 1195.59 563.03 1108.25 640.23 1289.40 667.24
00000153 00000131 1023.50 210.89 415.65 591.15 1119.87 424.51 1328.98 453.83 1195.82 561.27 1110.06 642.85 1285.64 666.48
00000154 00000132 1023.17 207.60 412.72 591.64 1118.43 423.88 1327.19 452.19 1194.88 561.84 1110.64 645.01 1281.49 668.03
00000155 00000133 1024.55 205.70 407.67 592.93 1117.05 424.37 1325.84 452.01 1193.15 563.65 1110.33 647.82 1279.32 670.24
00000156 00000134 1024.30 205.30 408.43 593.84 1116.39 425.20 1324.31 453.88 1190.45 566.26 1108.16 650.27 1275.22 673.71
00000157 00000135 1024.94 205.47 416.97 596.40 1116.72 424.52 1325.04 455.20 1187.50 566.61 1105.53 649.83 1272.69 674.78
00000158 00000136 1024.64 206.50 414.39 593.57 1116.80 425.31 1324.54 457.59 1186.79 566.72 1104.52 648.39 1272.50 674.74
00000159 00000137 1025.73 208.66 417.56 592.33 1118.50 425.41 1325.32 458.98 1187.47 566.14 1105.14 645.22 1275.31 672.63
00000160 00000138 1026.72 209.25 416.31 589.46 1120.43 425.24 1326.45 459.59 1189.72 564.73 1106.93 642.35 1277.45 670.53
00000161 00000139 1029.69 209.42 415.28 587.44 1124.13 424.38 1329.03 459.09 1193.51 563.85 1110.36 639.97 1281.47 668.50
00000162 00000140 1033.21 209.68 411.94 587.26 1127.17 425.07 1330.77 457.92 1196.90 562.20 1114.60 639.58 1285.92 666.52
00000163 00000141 1034.11 210.30 407.88 585.78 1130.07 424.81 1330.79 457.73 1200.76 560.85 1116.92 635.84 1289.23 663.04
00000164 00000142 1035.89 210.77 405.79 583.66 1132.45 425.09 1332.54 458.76 1203.71 560.49 1118.41 634.24 1291.08 662.23
00000165 00000143 1037.74 211.94 406.68 581.61 1133.84 425.86 1333.98 459.52 1205.37 559.82 1119.48 633.96 1292.19 662.17
00000166 00000144 1040.51 212.13 409.74 585.19 1142.87 418.32 1343.67 462.50 1208.68 556.14 1119.11 623.90 1293.20 660.76
00000167 00000145 1040.77 213.11 405.08 582.14 1138.69 425.87 1337.60 461.51 1210.08 560.74 1122.14 634.07 1293.50 664.26
00000168 00000146 1043.61 213.63 403.47 589.91 1142.11 425.98 1338.60 461.57 1211.07 561.83 1125.51 638.68 1290.91 668.46
00000169 00000147 1042.13 213.59 402.29 595.37 1143.08 426.86 1338.26 462.30 1211.32 565.23 1126.64 645.70 1285.48 674.94
00000170 00000148 1037.89 212.47 404.24 597.08 1140.49 427.50 1334.91 464.74 1207.71 567.42 1122.54 644.29 1283.16 675.00
00000171 00000149 1032.86 211.76 405.27 592.02 1134.72 426.75 1330.60 463.86 1202.38 564.92 1116.29 638.91 1282.35 669.90
00000172 00000150 1030.85 209.95 406.79 590.98 1130.03 423.43 1327.53 459.33 1198.39 563.04 1113.08 636.19 1280.96 666.05
00000173 00000151 1029.34 210.95 408.80 586.90 1126.54 420.82 1326.22 456.00 1195.00 562.79 1111.95 635.64 1278.01 664.70
00000174 00000152 1028.25 214.79 409.10 582.62 1121.78 423.73 1323.87 457.17 1190.90 563.33 1108.21 635.46 1281.83 662.96
00000175 00000153 1027.55 215.63 406.72 582.81 1118.80 428.36 1323.21 460.24 1189.27 563.93 1105.21 635.52 1288.34 661.74
00000176 00000154 1027.04 214.95 407.69 583.02 1117.29 430.97 1323.50 461.54 1188.42 563.79 1104.55 634.29 1294.33 659.22
00000177 00000155 1026.34 216.36 408.14 580.87 1115.20 431.88 1322.07 460.50 1187.89 562.82 1104.78 633.02 1298.07 656.19
00000178 DELETE   1021.31 215.87 412.15 573.05 1109.02 426.81 1315.57 449.47 1183.17 544.36 1103.14 625.66 1295.64 643.81
00000179 DELETE   1013.25 176.96 414.60 582.55 1104.25 391.78 1311.58 414.81 1177.67 503.54 1101.17 597.03 1289.58 616.08
00000180 DELETE   1000.85 156.87 421.85 584.18 1088.25 379.35 1301.50 391.24 1170.14 473.11 1090.42 587.99 1282.06 596.84
00000181 00000159 997.85 151.79 412.94 574.96 1077.74 374.03 1290.43 384.87 1158.44 457.26 1080.25 577.46 1268.79 585.51
00000182 00000160 995.32 151.10 410.32 572.04 1073.60 370.06 1284.85 379.67 1152.55 454.16 1075.20 574.67 1260.13 581.74
00000183 00000161 992.53 154.69 405.49 581.87 1074.26 365.69 1278.11 374.67 1152.79 456.08 1077.78 575.45 1251.03 583.08
00000184 00000162 991.44 155.32 398.74 596.91 1073.49 368.02 1274.30 377.24 1149.22 460.89 1076.08 585.29 1245.69 593.49
