Video ID: 	yZ0qZIqkDLw
H: 	1080
W: 	1920
FPS: 	29.97002997002997

FRAME INDEX X0 Y0 W H [Landmarks (5 Points)]

00000896 00000000 492.91 196.36 383.93 566.98 562.57 470.76 720.56 482.54 623.08 569.05 588.70 623.76 730.31 631.58
00000897 00000001 492.28 198.57 384.24 566.69 560.99 473.14 717.80 485.96 619.60 568.72 586.94 624.87 729.41 633.41
00000898 00000002 491.36 204.54 383.13 560.90 559.04 475.82 711.88 488.92 615.10 571.45 587.74 626.85 726.42 635.75
00000899 00000003 489.38 207.68 380.38 566.26 555.45 480.12 707.70 494.49 609.66 576.00 585.40 630.38 727.15 640.47
00000900 DELETE   482.23 212.10 382.72 567.13 550.37 490.61 702.63 503.99 604.99 584.48 581.53 635.20 724.14 644.47
00000901 00000005 478.12 216.77 389.11 575.00 549.19 496.06 701.99 508.49 603.31 594.02 582.16 644.78 722.21 653.82
00000902 00000006 474.67 219.33 388.54 581.10 543.09 501.23 696.30 509.44 597.98 598.80 578.21 653.14 717.72 659.09
00000903 00000007 475.17 217.86 386.16 589.55 540.90 502.01 694.38 509.55 596.46 601.82 575.76 658.26 714.37 663.94
00000904 00000008 474.40 211.30 384.90 601.54 538.16 503.11 692.65 507.60 595.72 601.97 574.97 666.09 709.10 669.51
00000905 00000009 472.70 208.56 383.67 609.21 536.03 503.44 689.93 505.89 594.09 601.25 572.79 669.54 704.82 671.39
00000906 DELETE   468.91 207.32 384.59 618.81 534.28 503.92 685.86 505.41 592.17 599.91 573.80 672.51 703.08 673.66
00000907 00000011 463.64 211.24 384.87 609.98 530.05 505.89 683.95 500.35 584.84 603.69 565.57 679.15 695.74 674.35
00000908 00000012 461.68 212.05 382.08 602.37 527.34 503.27 678.79 500.14 580.53 602.92 558.70 680.35 680.05 677.60
00000909 00000013 460.11 204.99 378.42 616.05 525.18 498.36 675.09 504.79 581.37 597.13 558.04 676.08 672.62 681.94
00000910 00000014 459.53 208.48 382.11 607.16 521.57 500.06 673.68 496.54 574.79 597.23 552.05 681.66 671.38 678.69
00000911 00000015 456.24 203.81 385.90 618.09 518.82 499.74 673.60 491.84 572.25 597.52 550.55 679.81 682.06 673.19
00000912 00000016 453.65 205.05 386.69 617.90 518.51 496.69 673.52 488.47 572.71 597.41 552.54 676.04 688.01 668.69
00000913 00000017 453.46 203.71 387.41 619.45 517.80 494.16 673.12 486.22 571.75 595.98 551.83 674.92 687.43 667.85
00000914 00000018 453.95 202.63 387.24 618.88 518.09 493.51 672.25 485.81 571.16 594.62 551.55 673.94 685.64 667.06
00000915 00000019 453.25 203.04 387.58 616.48 516.89 493.21 672.84 485.99 570.95 595.81 547.78 673.13 683.78 666.72
00000916 00000020 453.84 203.27 385.33 615.01 516.43 494.96 672.77 487.19 571.38 596.42 546.38 674.95 681.71 668.21
00000917 00000021 454.41 202.92 383.71 611.62 515.67 493.94 672.51 487.41 570.81 596.07 543.82 674.50 676.65 668.99
00000918 00000022 453.50 201.81 384.43 613.44 515.22 492.61 671.37 486.39 570.17 595.42 544.32 674.77 676.12 669.38
00000919 00000023 452.78 201.53 383.61 614.12 515.17 491.23 670.61 484.31 571.54 593.55 546.65 674.56 677.01 668.58
00000920 00000024 451.39 201.15 387.76 620.31 513.80 490.54 670.19 479.09 568.61 591.37 551.70 672.86 688.10 662.78
00000921 00000025 451.06 200.62 387.55 619.01 515.66 489.14 671.02 477.11 569.67 590.50 553.23 665.66 694.66 654.67
00000922 00000026 450.16 200.23 388.77 617.37 515.55 487.40 672.18 475.62 570.15 590.09 552.04 661.97 696.37 651.10
00000923 00000027 456.98 201.94 380.26 615.98 514.32 488.92 673.61 485.40 574.59 586.45 552.07 655.81 700.00 652.04
00000924 00000028 457.17 202.52 380.10 615.22 514.69 490.06 674.63 486.78 575.90 586.73 550.20 654.39 700.18 650.91
00000925 00000029 450.82 211.73 385.15 597.97 516.02 482.48 668.88 485.97 566.78 586.75 548.26 651.68 697.21 652.38
00000926 00000030 455.87 208.35 380.66 608.80 515.75 489.98 675.28 487.69 577.59 586.89 549.96 652.55 700.33 650.05
00000927 00000031 450.51 211.28 387.49 603.26 518.51 480.51 666.88 480.84 571.76 591.26 547.45 651.08 695.85 648.35
00000928 00000032 450.54 212.76 385.26 602.79 515.75 483.62 669.66 485.94 568.35 588.38 550.12 652.23 704.05 651.46
00000929 00000033 451.07 210.78 387.16 608.42 516.79 480.66 667.59 478.95 571.27 593.90 548.42 651.19 703.57 646.44
00000930 00000034 451.10 211.52 386.59 606.76 516.97 480.81 667.72 479.50 571.08 594.10 547.02 649.48 703.23 645.16
00000931 00000035 450.01 211.61 387.84 604.04 517.34 480.50 667.60 479.62 571.29 592.05 545.20 647.64 700.65 643.80
00000932 00000036 454.12 209.14 381.97 608.09 514.47 491.83 676.05 486.82 580.00 588.11 546.35 648.66 705.61 643.86
00000933 00000037 448.29 212.21 387.88 598.40 516.30 479.38 667.41 477.12 573.34 590.24 542.84 644.69 698.69 639.94
00000934 00000038 448.17 214.36 387.54 596.97 515.50 479.59 666.65 476.08 572.52 591.32 542.30 644.97 699.49 639.21
00000935 00000039 448.12 213.04 388.16 601.19 515.39 479.92 666.70 475.16 572.77 592.64 543.63 645.34 703.15 638.45
00000936 00000040 448.29 211.90 388.38 604.01 515.44 479.91 667.03 475.29 572.70 594.06 543.75 644.09 705.74 637.23
00000937 00000041 448.78 210.44 388.18 608.22 515.75 480.04 667.30 474.69 573.33 594.40 545.68 645.40 707.41 637.91
00000938 00000042 448.28 211.41 389.42 607.60 516.09 480.09 667.71 473.45 574.48 594.63 548.00 646.84 708.82 638.29
00000939 00000043 448.28 209.13 389.47 609.73 515.93 479.13 667.96 471.73 574.64 594.59 548.10 645.88 710.27 636.71
00000940 00000044 448.47 211.80 389.64 606.14 515.81 477.27 670.04 470.04 574.64 592.05 546.40 643.56 711.76 634.63
00000941 00000045 450.09 210.27 388.37 604.59 517.52 475.89 672.05 469.31 576.60 589.22 546.56 640.29 712.26 631.87
00000942 00000046 450.45 206.94 391.90 600.62 519.64 472.95 674.74 467.79 579.76 584.05 548.29 640.17 708.34 633.18
00000943 00000047 451.36 194.38 393.93 615.26 519.30 477.22 680.28 464.15 581.41 581.32 551.40 648.46 703.43 636.77
00000944 00000048 454.15 190.50 393.82 619.50 518.13 473.12 682.22 463.49 579.63 578.56 549.62 650.74 698.67 642.10
00000945 00000049 455.90 188.91 390.38 617.62 518.37 471.92 681.86 464.12 578.87 577.22 550.30 653.17 692.38 646.14
00000946 00000050 454.35 189.59 393.83 621.23 519.85 473.35 681.97 464.41 580.44 578.93 552.70 655.94 693.80 648.07
00000947 00000051 454.05 188.76 393.93 624.57 520.04 475.44 681.70 466.14 580.56 581.99 552.71 659.24 693.55 651.25
00000948 00000052 454.59 188.82 392.68 626.70 520.69 477.22 682.20 466.83 581.40 582.74 554.81 660.64 696.43 651.64
00000949 00000053 454.29 191.08 393.47 628.73 521.81 477.25 683.18 463.51 583.04 580.59 559.33 659.92 703.26 647.75
00000950 00000054 455.39 200.97 387.81 617.64 523.98 473.63 676.45 467.92 580.56 583.48 556.89 654.27 706.82 646.62
00000951 00000055 454.92 201.50 387.86 618.90 523.97 473.78 677.24 467.44 581.61 585.11 556.54 653.30 709.49 645.11
00000952 00000056 454.84 203.49 387.00 614.45 523.11 474.44 677.93 469.39 582.24 587.11 553.18 648.93 711.24 641.90
00000953 00000057 454.85 205.53 386.76 609.80 522.34 475.19 678.24 470.26 582.83 588.92 549.85 644.26 712.97 637.34
00000954 00000058 454.07 208.82 387.09 602.29 521.35 474.51 677.96 470.13 582.20 588.62 548.20 642.39 711.40 636.05
00000955 00000059 456.86 200.85 384.48 615.90 517.98 484.55 684.53 474.25 590.33 583.37 551.53 646.80 717.30 637.56
00000956 00000060 457.43 200.62 384.16 616.56 518.47 485.86 684.60 475.97 590.06 584.20 551.26 647.01 717.66 638.21
00000957 00000061 453.54 207.29 387.44 608.04 523.15 476.85 679.38 474.13 583.89 591.59 548.57 643.51 712.91 638.64
00000958 00000062 453.51 210.58 387.73 606.98 523.55 479.44 679.35 475.05 584.80 594.63 552.92 648.64 714.56 642.39
00000959 00000063 454.34 210.40 386.47 604.84 522.25 480.15 678.54 473.91 584.00 594.35 554.89 649.50 716.39 641.69
00000960 00000064 461.23 198.13 380.79 625.94 523.39 487.47 683.05 476.45 590.38 585.29 562.29 652.66 722.29 642.81
00000961 00000065 462.27 193.37 381.81 629.47 523.65 485.25 683.66 474.30 591.32 584.40 562.63 651.77 723.82 641.83
00000962 00000066 463.54 194.10 382.15 627.68 524.37 485.07 685.06 474.29 591.90 582.34 560.36 649.04 723.28 639.25
00000963 00000067 462.48 194.41 384.80 625.29 523.62 482.88 686.08 473.89 592.06 580.10 558.49 648.73 720.43 640.30
00000964 00000068 462.99 194.91 385.38 620.46 524.47 481.05 688.10 474.81 592.64 578.94 557.33 647.38 717.89 641.22
00000965 00000069 463.70 192.43 384.59 622.10 525.42 481.16 688.25 476.34 593.01 578.04 557.36 649.28 713.18 644.38
00000966 00000070 463.16 194.06 384.72 621.00 526.07 479.83 688.17 476.58 592.91 576.81 557.54 649.93 710.25 646.54
00000967 00000071 464.15 192.78 384.96 623.99 527.39 479.81 688.41 477.43 592.83 576.01 558.68 652.09 708.11 649.56
00000968 00000072 465.32 193.62 384.02 624.82 528.43 480.18 688.33 477.58 593.14 575.94 560.58 654.69 706.59 652.16
00000969 00000073 466.53 193.47 383.94 624.38 529.59 480.03 689.02 477.93 593.55 575.97 562.30 656.77 705.28 654.83
00000970 00000074 466.97 189.97 382.83 625.44 530.50 480.36 689.54 478.12 595.80 577.16 565.10 659.08 704.78 656.99
00000971 00000075 466.95 189.72 383.26 625.33 531.19 480.94 689.56 478.41 596.60 577.78 566.46 659.36 705.18 656.94
00000972 00000076 466.18 189.62 384.63 627.19 530.36 481.46 689.22 478.15 595.95 579.02 566.33 661.31 705.06 658.31
00000973 00000077 461.26 191.82 390.07 622.49 527.66 479.82 686.00 472.09 586.97 582.82 561.54 663.04 696.66 656.63
00000974 00000078 460.69 191.25 390.12 622.14 527.31 479.92 685.76 472.40 587.06 584.28 561.60 662.85 696.98 656.51
00000975 00000079 459.55 191.36 390.50 621.83 527.27 480.32 685.59 472.77 587.69 583.76 561.73 663.87 694.48 657.52
00000976 00000080 459.83 191.16 390.32 622.46 527.45 480.47 685.79 473.04 587.84 583.94 561.87 664.65 694.16 658.43
00000977 00000081 459.90 191.03 391.67 621.85 527.02 480.12 685.71 473.01 586.50 581.55 561.99 665.35 691.69 659.46
00000978 00000082 458.95 190.78 391.27 619.35 526.82 479.30 685.24 472.13 586.38 580.70 562.61 663.25 692.69 657.12
00000979 00000083 459.04 190.32 391.32 617.73 526.61 479.12 683.82 472.61 585.10 579.34 562.98 663.19 689.98 657.50
00000980 00000084 463.97 188.56 381.88 622.02 529.66 479.18 687.48 478.48 595.21 581.36 567.30 664.94 695.01 664.44
00000981 00000085 463.43 189.28 382.40 614.94 527.62 479.10 688.19 477.06 595.59 583.15 567.19 660.91 701.64 658.88
00000982 00000086 463.34 191.78 382.82 615.62 526.15 478.97 688.04 474.37 595.31 578.90 563.83 653.15 710.03 648.62
00000983 00000087 464.30 192.95 385.48 619.59 529.80 478.55 690.39 472.25 598.21 575.72 566.06 647.46 719.44 641.15
00000984 00000088 467.18 192.18 384.19 623.00 532.89 476.33 691.66 471.87 597.75 574.30 566.61 646.93 719.54 642.13
00000985 00000089 468.18 194.64 385.45 618.02 535.95 475.78 693.91 470.69 600.44 572.58 569.53 645.71 720.59 640.52
00000986 00000090 469.83 189.97 383.34 611.70 536.60 473.53 696.28 470.51 603.51 571.63 570.55 643.78 717.63 640.27
00000987 00000091 470.52 186.67 383.48 610.51 536.46 472.05 697.08 470.11 603.28 571.31 570.59 644.03 716.02 641.53
00000988 00000092 471.88 184.03 382.17 618.59 538.01 471.09 697.26 471.03 603.67 573.31 573.33 649.71 713.48 649.09
00000989 00000093 472.64 184.84 382.75 622.82 540.80 470.47 697.86 470.89 603.46 572.18 576.01 651.33 713.26 651.20
00000990 00000094 473.03 192.54 382.12 621.68 542.99 472.90 699.46 471.27 607.18 571.39 578.43 649.95 721.31 647.90
00000991 00000095 468.56 202.21 384.18 610.91 544.60 470.82 698.86 469.67 605.20 584.08 568.41 641.89 725.38 639.12
00000992 00000096 469.46 201.30 383.99 613.79 545.33 470.56 700.77 469.41 606.69 584.04 568.69 643.11 726.96 640.20
00000993 00000097 473.78 193.24 385.22 629.41 546.14 474.21 703.76 471.89 609.72 570.24 576.51 647.86 726.40 645.04
00000994 00000098 473.82 194.28 383.88 616.12 545.07 472.52 702.38 472.49 609.49 569.90 577.96 646.11 721.59 645.32
00000995 00000099 472.45 192.38 385.97 613.75 544.79 470.98 704.63 471.09 610.78 568.66 575.07 642.71 723.03 641.92
00000996 00000100 473.81 192.47 384.82 610.00 545.17 470.50 703.74 471.93 609.99 568.53 575.93 641.93 720.78 642.29
00000997 00000101 473.95 196.52 384.87 609.48 545.86 470.34 704.24 470.76 610.82 569.60 577.03 640.41 725.40 639.78
00000998 00000102 473.64 196.74 385.61 609.52 545.96 469.76 704.65 470.68 611.31 571.45 576.15 638.33 727.87 638.02
00000999 00000103 473.25 198.26 385.80 605.06 546.46 469.45 705.93 471.39 613.00 572.24 574.04 634.30 728.56 634.88
00001000 00000104 473.08 198.88 386.78 604.94 546.59 469.81 706.74 471.58 613.29 572.37 573.71 634.10 729.12 634.53
CROP_BBOX: 43 0 1110 978
