Video ID: 	nmoTv-FIZng
H: 	1080
W: 	1920
FPS: 	25.0

FRAME INDEX X0 Y0 W H [Landmarks (5 Points)]

00005315 00000000 1212.64 136.64 413.75 616.67 1364.80 387.58 1558.27 406.29 1485.22 516.62 1361.74 598.61 1527.18 613.59
00005316 00000001 1208.54 135.85 414.75 614.46 1358.63 383.45 1555.05 403.35 1479.62 511.53 1356.68 594.80 1522.77 610.52
00005317 00000002 1202.15 134.71 418.38 610.96 1356.72 386.61 1551.21 404.52 1470.81 516.19 1348.49 589.11 1514.80 603.84
00005318 00000003 1197.41 131.23 419.82 611.27 1351.10 380.81 1547.64 400.88 1464.87 513.46 1343.13 584.33 1510.72 601.03
00005319 00000004 1194.20 125.16 420.65 616.50 1348.88 372.31 1544.76 396.54 1461.03 508.88 1339.96 579.14 1506.10 599.15
00005320 00000005 1192.92 119.15 418.57 619.65 1345.81 365.11 1542.00 390.37 1457.79 502.05 1336.78 575.99 1502.54 597.05
00005321 00000006 1192.73 116.52 417.10 618.08 1347.88 359.84 1539.25 386.83 1457.59 496.61 1338.30 572.54 1498.04 595.22
00005322 00000007 1193.06 114.89 415.86 624.22 1349.38 357.50 1538.10 386.00 1457.77 492.06 1338.10 572.82 1496.78 596.54
00005323 00000008 1197.63 117.85 409.56 631.53 1352.65 351.33 1539.99 380.38 1466.24 486.54 1341.92 581.31 1493.68 603.54
00005324 00000009 1196.95 117.16 407.52 636.00 1350.65 350.56 1538.83 379.92 1463.54 485.97 1340.65 582.64 1492.70 605.08
00005325 00000010 1196.10 116.68 407.23 631.73 1347.49 350.02 1536.81 379.05 1460.32 485.53 1338.58 580.59 1489.99 602.86
00005326 00000011 1190.07 112.51 410.73 625.08 1342.25 352.00 1528.91 380.58 1450.16 484.99 1332.19 570.98 1487.65 595.33
00005327 00000012 1189.43 113.19 411.71 613.22 1338.78 352.87 1529.16 380.91 1447.14 484.87 1329.79 567.44 1487.78 591.42
00005328 00000013 1192.23 111.41 413.14 611.46 1347.38 353.99 1535.07 384.24 1454.76 487.15 1337.00 567.65 1491.46 593.26
00005329 00000014 1195.51 118.90 413.53 604.46 1360.11 362.08 1544.75 388.95 1469.89 492.10 1349.22 570.09 1501.15 592.98
00005330 00000015 1205.30 124.47 412.49 600.86 1376.74 366.94 1561.54 395.96 1489.38 491.29 1366.50 575.84 1515.98 600.07
00005331 00000016 1219.94 122.32 412.13 604.71 1390.51 361.33 1580.66 391.83 1512.78 490.51 1383.06 579.75 1538.24 603.70
00005332 00000017 1224.47 119.50 417.95 613.73 1401.36 360.85 1591.13 393.67 1518.91 489.82 1386.50 574.33 1540.76 603.15
00005333 00000018 1224.49 122.62 417.83 620.97 1392.26 361.20 1582.86 393.36 1505.95 491.48 1376.71 576.84 1531.92 605.21
00005334 DELETE   1218.04 125.04 419.36 615.60 1380.86 363.03 1562.48 393.91 1485.69 492.17 1366.28 581.31 1515.30 605.68
00005335 00000020 1205.64 131.03 429.83 611.35 1367.69 368.59 1551.32 404.48 1460.16 505.57 1342.16 578.55 1492.88 608.82
00005336 00000021 1207.77 134.70 429.88 607.40 1366.75 367.63 1552.80 405.34 1458.10 506.49 1338.90 577.59 1492.98 609.52
00005337 00000022 1218.48 139.48 425.61 603.99 1383.06 368.70 1563.74 406.13 1477.96 509.64 1354.42 578.31 1505.38 609.73
00005338 DELETE   1227.67 134.20 425.67 613.40 1391.78 370.28 1579.03 407.34 1493.10 507.47 1364.54 579.31 1516.59 612.85
00005339 00000024 1236.90 128.98 420.39 619.85 1404.70 370.29 1591.07 410.93 1509.98 505.77 1376.28 577.73 1531.75 613.38
00005340 00000025 1238.52 127.00 418.29 618.90 1404.80 369.75 1592.01 408.95 1511.68 503.41 1378.37 576.11 1535.49 610.32
00005341 00000026 1230.95 128.48 422.41 619.83 1396.58 368.81 1584.11 405.40 1502.14 505.16 1370.18 574.65 1528.55 607.17
00005342 00000027 1222.86 129.16 420.78 611.99 1389.57 366.62 1569.25 399.07 1491.65 503.84 1366.01 581.22 1518.83 608.12
00005343 00000028 1216.12 128.25 420.33 620.70 1383.96 363.06 1561.08 397.25 1482.22 500.80 1362.27 583.92 1506.70 611.04
00005344 00000029 1208.71 125.20 424.23 620.91 1370.61 359.43 1554.55 392.14 1472.01 502.59 1355.46 585.02 1496.76 610.12
00005345 00000030 1204.18 123.90 420.29 619.10 1356.87 356.12 1542.15 392.62 1454.47 498.09 1339.53 578.32 1484.18 606.45
00005346 00000031 1188.02 115.40 418.09 614.65 1332.80 355.47 1517.56 391.00 1425.96 486.60 1313.53 559.74 1471.38 589.59
00005347 DELETE   1176.77 112.91 420.78 609.84 1305.49 346.69 1494.07 378.72 1390.49 469.29 1288.01 551.46 1447.82 579.08
00005348 DELETE   1157.53 104.30 412.28 607.28 1267.88 340.03 1458.79 361.00 1346.76 449.97 1261.36 544.08 1427.77 561.56
00005349 00000034 1142.00 97.19 411.84 603.73 1241.92 332.46 1428.54 354.68 1308.55 439.15 1233.44 531.94 1397.51 550.23
00005350 DELETE   1128.56 93.54 411.48 595.62 1216.88 333.42 1406.35 350.74 1281.08 434.92 1209.12 530.11 1373.71 543.63
00005351 00000036 1119.40 93.88 406.27 590.56 1197.11 330.11 1387.24 338.46 1261.58 430.64 1195.07 528.66 1358.28 535.19
00005352 00000037 1101.99 93.08 419.26 595.59 1171.76 325.13 1368.14 331.55 1235.74 429.06 1176.37 534.82 1337.82 539.60
00005353 00000038 1093.23 94.63 418.39 592.25 1158.90 324.56 1354.62 325.79 1222.93 425.88 1168.47 532.11 1333.62 532.50
00005354 00000039 1086.87 93.60 412.07 587.57 1163.42 326.53 1344.17 323.47 1223.97 420.31 1173.70 519.45 1339.85 516.32
00005355 00000040 1081.55 92.53 410.68 588.69 1159.01 325.98 1337.83 320.44 1222.82 417.82 1171.98 517.41 1339.30 512.68
00005356 00000041 1077.31 96.21 412.94 582.35 1155.71 326.76 1333.83 319.56 1221.14 416.92 1171.92 516.53 1339.18 510.03
00005357 00000042 1073.07 97.08 412.52 579.80 1151.58 325.26 1330.64 316.86 1220.00 415.41 1168.66 515.56 1337.72 508.00
00005358 00000043 1070.26 96.86 410.36 577.86 1149.37 325.56 1328.30 316.88 1220.09 414.53 1167.29 514.18 1337.76 506.34
00005359 00000044 1068.77 94.39 411.57 582.25 1147.73 324.15 1327.88 315.29 1219.92 415.66 1165.95 514.02 1339.35 505.87
00005360 00000045 1067.36 93.00 412.68 585.01 1146.48 319.94 1328.92 312.44 1218.09 414.52 1163.72 514.08 1338.07 506.82
00005361 00000046 1066.21 93.31 412.86 585.18 1143.99 320.22 1325.92 311.59 1215.34 414.59 1162.68 514.54 1337.29 506.44
00005362 00000047 1066.81 92.93 412.33 586.12 1143.41 318.08 1324.85 309.75 1213.27 413.01 1161.38 514.37 1335.91 506.53
00005363 00000048 1066.58 92.08 412.59 586.69 1142.92 317.73 1325.53 309.79 1212.39 412.62 1160.01 513.86 1336.29 506.26
00005364 00000049 1066.28 91.88 413.14 586.85 1142.44 317.14 1325.71 309.11 1212.43 412.65 1159.89 514.02 1337.18 506.39
00005365 00000050 1066.93 91.45 411.95 586.46 1143.08 317.51 1326.20 308.74 1213.26 410.89 1160.80 512.99 1338.26 504.79
00005366 00000051 1067.61 91.56 413.43 585.81 1143.94 316.57 1327.28 307.72 1214.21 409.63 1161.65 512.83 1338.48 504.70
00005367 00000052 1068.71 89.81 412.80 585.86 1144.13 316.19 1328.88 307.11 1214.55 410.51 1162.02 515.39 1337.00 507.27
00005368 00000053 1070.81 89.11 413.38 586.50 1143.29 317.98 1327.40 307.05 1211.72 414.62 1163.58 520.45 1334.23 510.78
00005369 00000054 1072.55 92.35 409.98 587.42 1139.79 319.79 1325.08 310.10 1203.45 420.79 1158.26 526.09 1330.01 517.00
00005370 00000055 1072.39 93.18 408.34 590.80 1138.71 321.85 1321.94 312.31 1200.44 424.58 1157.00 529.62 1327.93 520.49
00005371 00000056 1072.37 94.62 412.58 593.83 1142.79 323.95 1326.86 314.93 1207.77 428.55 1160.89 530.09 1332.26 521.66
00005372 00000057 1073.41 92.91 414.82 596.34 1147.76 323.23 1332.63 313.34 1216.35 428.81 1168.25 529.30 1339.68 520.06
00005373 00000058 1073.66 92.26 416.85 595.99 1149.66 322.52 1336.35 311.62 1220.89 426.39 1172.28 528.66 1343.81 518.83
00005374 00000059 1073.22 91.96 416.84 596.29 1148.08 321.35 1333.68 309.35 1219.08 425.14 1172.08 528.60 1342.91 517.81
00005375 00000060 1070.37 91.84 414.23 594.95 1142.53 321.07 1327.52 311.35 1209.64 424.80 1161.80 529.02 1332.17 520.27
00005376 00000061 1068.34 90.41 410.93 596.09 1135.25 321.85 1320.83 311.51 1197.80 424.88 1153.86 533.10 1324.05 523.16
00005377 00000062 1066.83 91.30 411.55 596.03 1137.22 321.35 1324.11 310.51 1204.24 424.62 1158.89 532.19 1326.15 521.94
00005378 00000063 1066.11 91.73 417.09 596.56 1145.09 321.78 1332.25 308.80 1220.18 424.86 1171.91 530.98 1339.47 519.22
00005379 00000064 1067.67 92.44 418.93 592.45 1149.78 321.55 1338.63 307.22 1229.78 420.54 1178.90 527.82 1349.28 514.92
00005380 00000065 1066.93 92.30 417.38 592.08 1148.65 321.40 1336.13 305.28 1229.47 420.34 1179.49 527.67 1348.44 513.14
00005381 00000066 1062.08 92.82 418.16 591.24 1140.61 321.03 1329.37 304.13 1221.84 422.89 1173.84 529.94 1339.50 515.12
00005382 00000067 1057.22 96.37 410.82 587.51 1128.90 326.18 1319.54 306.78 1207.69 424.99 1161.53 536.13 1327.91 519.28
00005383 00000068 1047.03 98.44 413.22 588.59 1111.94 334.56 1300.57 306.72 1187.90 430.29 1150.14 542.33 1315.27 518.24
00005384 00000069 1036.03 105.90 425.02 586.46 1102.34 348.83 1290.89 317.03 1185.85 442.29 1149.49 547.98 1307.33 521.39
00005385 00000070 1034.52 110.79 419.25 586.42 1110.05 347.15 1295.77 314.36 1202.53 443.48 1157.73 548.67 1323.13 520.21
00005386 00000071 1033.24 113.28 421.01 585.23 1125.25 356.82 1313.48 317.87 1232.75 448.22 1182.77 554.33 1350.26 521.02
00005387 DELETE   1041.37 113.27 420.44 584.39 1152.60 359.96 1337.13 315.02 1276.36 447.48 1219.43 556.54 1380.63 519.33
00005388 DELETE   1044.96 113.07 428.66 591.76 1179.16 370.65 1349.48 308.89 1310.59 439.61 1258.26 564.86 1404.42 509.96
00005389 00000074 1040.36 113.35 434.61 588.30 1181.49 375.38 1348.91 309.24 1316.34 438.72 1266.65 569.67 1406.79 511.35
00005390 00000075 1033.27 116.80 437.09 592.93 1174.73 376.47 1339.29 308.95 1308.07 435.88 1264.45 575.09 1400.32 516.00
00005391 00000076 1018.95 109.44 427.22 597.31 1151.84 378.74 1328.48 312.15 1294.05 441.87 1241.54 576.45 1388.33 521.95
00005392 00000077 1012.06 114.71 428.65 596.58 1138.68 382.72 1317.40 316.53 1277.41 444.21 1231.79 579.63 1381.34 525.31
00005393 00000078 1003.43 123.81 433.21 590.03 1133.65 391.31 1312.63 319.39 1276.76 449.30 1221.12 587.68 1371.39 524.18
00005394 00000079 1001.25 126.22 433.36 587.44 1131.38 390.18 1311.19 322.29 1272.41 452.57 1214.14 586.41 1366.69 526.38
00005395 00000080 1003.15 128.20 432.30 587.22 1131.73 389.39 1312.35 323.47 1271.86 453.72 1211.92 586.43 1367.05 528.03
00005396 00000081 1004.97 126.95 430.52 589.49 1131.01 389.02 1314.11 324.80 1270.58 454.16 1209.32 585.52 1368.71 528.33
00005397 00000082 1007.06 116.01 432.17 612.76 1129.81 382.25 1312.95 324.28 1263.38 451.42 1212.65 582.05 1373.59 534.15
00005398 00000083 1013.73 126.99 435.52 605.11 1140.32 380.36 1318.89 324.73 1267.42 447.23 1215.18 577.95 1379.48 529.19
00005399 00000084 1019.09 126.21 431.08 606.03 1142.54 377.63 1321.40 325.27 1267.92 447.36 1210.87 571.28 1379.56 525.05
00005400 00000085 1019.00 115.92 423.60 607.92 1136.23 376.06 1322.47 324.71 1263.98 450.02 1198.91 566.70 1374.79 525.40
00005401 00000086 1023.42 114.58 420.06 603.83 1138.69 374.11 1325.89 326.33 1263.18 450.33 1195.00 561.57 1373.45 523.34
00005402 00000087 1024.03 113.79 420.51 606.18 1138.70 370.45 1325.38 324.98 1260.39 449.64 1194.75 560.81 1371.80 524.32
00005403 00000088 1026.95 114.83 418.36 602.15 1138.73 369.96 1327.95 326.20 1259.29 452.10 1195.84 562.71 1371.72 527.38
00005404 00000089 1027.56 113.05 418.14 606.94 1136.84 372.32 1329.01 329.03 1256.09 456.47 1193.07 566.74 1370.08 531.92
00005405 00000090 1026.40 117.00 418.98 603.71 1134.89 374.49 1326.00 332.15 1253.52 460.24 1189.33 566.96 1367.24 532.72
00005406 00000091 1024.81 118.46 419.58 605.43 1130.54 373.95 1319.29 333.04 1246.43 459.98 1183.38 566.06 1362.36 532.79
00005407 00000092 1024.77 116.82 418.13 606.05 1128.48 369.58 1318.29 331.57 1242.25 454.27 1178.45 564.40 1354.93 533.67
00005408 00000093 1023.20 112.78 420.34 609.05 1125.15 357.92 1317.15 324.59 1235.25 447.54 1172.70 557.26 1352.10 529.63
00005409 00000094 1026.95 123.63 414.34 600.48 1126.54 356.74 1315.61 319.41 1237.31 443.98 1164.85 548.47 1350.24 514.94
00005410 00000095 1021.96 106.30 420.53 617.38 1120.94 348.62 1310.94 315.13 1228.00 439.54 1165.96 548.50 1350.69 520.65
00005411 00000096 1021.31 107.52 421.98 615.21 1119.25 348.19 1311.09 313.73 1227.15 439.34 1163.48 547.11 1351.20 518.48
00005412 00000097 1023.37 108.12 419.89 614.35 1119.66 349.42 1310.91 314.49 1226.10 441.87 1163.97 546.89 1352.25 517.60
00005413 00000098 1024.61 110.54 418.27 614.62 1120.70 351.06 1311.48 317.07 1227.20 444.55 1163.34 548.15 1352.35 519.74
00005414 00000099 1026.03 111.92 417.91 614.45 1121.83 351.19 1313.00 317.91 1227.00 444.53 1163.97 549.41 1352.77 521.55
00005415 00000100 1027.21 109.29 417.19 616.70 1122.04 348.54 1313.12 316.27 1226.23 442.01 1163.14 548.16 1352.20 520.89
00005416 00000101 1027.44 104.99 420.56 616.69 1123.13 340.83 1314.10 312.58 1225.01 436.73 1163.18 543.41 1351.07 519.19
00005417 00000102 1030.52 102.65 417.74 606.36 1123.92 335.64 1316.05 309.86 1225.38 430.69 1162.74 535.76 1351.35 513.22
00005418 00000103 1033.17 100.59 417.57 599.48 1123.79 334.63 1317.41 308.60 1225.66 426.97 1162.14 529.80 1353.83 506.60
00005419 00000104 1034.27 101.25 417.45 597.88 1124.64 334.80 1319.30 309.72 1226.22 427.90 1162.14 530.46 1353.61 508.13
00005420 00000105 1033.87 101.40 418.22 601.37 1126.98 335.17 1319.78 311.89 1227.13 432.02 1163.60 532.80 1351.74 512.06
00005421 00000106 1035.06 103.04 416.93 600.48 1129.43 337.49 1322.03 315.50 1229.70 436.67 1165.25 536.57 1350.50 516.90
00005422 00000107 1036.30 103.83 415.69 596.14 1129.42 337.80 1324.13 315.89 1228.95 436.17 1167.63 539.59 1348.46 520.22
00005423 00000108 1036.57 100.83 416.37 596.77 1128.65 337.34 1323.84 314.32 1228.20 435.01 1171.08 542.94 1347.20 522.78
00005424 00000109 1037.86 98.24 414.84 600.75 1129.24 334.61 1325.54 312.94 1229.69 434.38 1171.75 545.00 1346.74 526.45
00005425 00000110 1038.41 97.89 414.02 599.74 1129.60 333.33 1325.79 310.95 1230.29 434.47 1174.44 546.06 1346.06 527.01
00005426 00000111 1038.70 96.19 414.80 604.39 1129.93 333.09 1325.09 309.92 1230.98 435.98 1176.37 548.52 1345.19 528.86
00005427 00000112 1039.31 94.49 414.77 609.31 1132.16 333.05 1324.86 310.70 1232.75 436.45 1178.66 549.81 1344.68 530.49
00005428 00000113 1039.23 95.44 416.07 611.66 1133.55 332.25 1325.05 310.37 1233.94 436.18 1180.36 550.87 1343.73 531.86
00005429 00000114 1039.43 93.29 416.20 612.71 1135.73 329.47 1325.85 310.27 1235.39 434.57 1181.27 549.63 1340.27 532.64
00005430 00000115 1039.19 93.99 417.53 610.10 1134.92 329.03 1327.46 308.58 1236.60 432.45 1180.74 546.23 1345.74 528.18
00005431 00000116 1041.30 90.46 417.16 607.31 1135.87 327.08 1329.89 306.30 1238.87 427.93 1182.64 542.12 1347.74 523.85
00005432 00000117 1045.28 91.20 414.30 598.32 1137.01 326.36 1334.27 308.13 1239.82 424.36 1178.70 536.82 1352.21 520.97
00005433 00000118 1046.83 90.71 414.76 598.65 1141.30 326.76 1335.75 310.86 1243.74 426.31 1181.09 535.38 1351.21 521.28
00005434 00000119 1047.62 92.02 414.92 597.17 1144.25 334.05 1334.64 314.33 1247.20 430.15 1184.75 537.27 1350.96 520.67
00005435 00000120 1047.97 93.99 417.04 596.98 1144.01 330.18 1337.09 313.35 1245.42 431.50 1183.08 537.78 1351.96 523.03
00005436 00000121 1050.10 95.33 415.88 597.15 1144.65 332.15 1337.72 315.79 1244.31 435.33 1182.71 539.85 1351.20 525.42
00005437 00000122 1053.90 95.90 417.20 598.87 1147.63 332.13 1340.04 317.24 1243.48 438.31 1183.09 541.15 1350.97 527.83
00005438 00000123 1056.91 95.45 416.57 598.81 1150.91 329.94 1341.82 318.38 1244.17 436.63 1181.67 538.58 1349.68 527.74
00005439 00000124 1059.22 93.92 415.15 599.56 1153.03 327.96 1344.29 317.67 1245.88 434.99 1182.14 536.64 1351.77 526.70
00005440 00000125 1060.41 93.81 416.94 597.42 1154.31 326.55 1346.41 317.49 1247.82 431.85 1183.22 534.79 1354.04 525.70
00005441 00000126 1061.29 93.23 418.27 596.21 1156.29 325.08 1348.85 316.68 1249.71 428.92 1184.24 533.04 1354.46 524.48
00005442 00000127 1063.01 91.18 418.92 597.16 1159.46 321.25 1350.61 314.32 1252.09 426.39 1186.17 531.62 1353.83 524.20
00005443 00000128 1065.11 88.94 419.23 598.62 1162.33 319.81 1353.13 313.74 1254.51 424.60 1188.73 530.20 1355.97 523.45
00005444 00000129 1068.21 87.96 418.36 598.61 1165.76 320.03 1354.84 316.26 1255.10 424.44 1189.85 528.52 1356.24 523.67
00005445 00000130 1071.73 86.02 417.16 600.35 1168.66 320.73 1358.64 317.29 1257.40 425.06 1190.41 528.18 1358.20 523.67
00005446 00000131 1074.14 84.87 416.77 601.14 1171.15 320.00 1360.84 316.45 1258.37 425.23 1192.13 527.75 1358.96 523.15
00005447 00000132 1077.43 84.61 415.35 600.04 1173.04 321.17 1362.75 316.57 1259.60 426.18 1194.58 527.86 1361.14 522.50
00005448 00000133 1080.51 83.87 413.14 600.45 1176.25 320.36 1366.21 317.27 1262.14 426.09 1195.42 526.89 1362.69 522.85
00005449 00000134 1083.31 83.39 412.04 600.76 1178.85 318.97 1370.57 316.09 1265.38 426.58 1197.17 527.22 1365.49 523.56
00005450 00000135 1086.12 81.40 411.55 602.65 1181.57 318.79 1373.73 317.24 1267.72 426.21 1198.90 526.67 1367.34 524.25
00005451 00000136 1087.10 80.84 413.67 601.90 1183.10 319.15 1376.74 318.32 1269.87 425.65 1200.40 526.09 1369.61 524.24
00005452 00000137 1089.52 79.88 413.40 603.60 1185.26 318.17 1379.33 318.35 1271.30 426.05 1201.09 525.61 1370.61 524.52
00005453 00000138 1091.90 78.72 412.43 603.41 1187.53 317.77 1381.40 319.42 1272.36 425.47 1201.63 523.96 1371.80 523.97
00005454 00000139 1091.84 78.21 414.00 603.87 1188.84 316.48 1384.06 319.94 1274.49 425.24 1202.19 523.13 1373.43 524.52
00005455 00000140 1094.73 77.82 413.26 604.48 1191.34 315.24 1386.72 319.52 1276.80 424.32 1204.02 522.65 1375.04 524.84
00005456 00000141 1095.97 77.79 413.72 604.81 1193.10 313.88 1388.58 318.96 1278.52 423.17 1205.72 522.15 1376.17 524.93
00005457 00000142 1098.75 77.11 412.98 604.15 1194.92 313.07 1391.39 318.49 1280.25 422.81 1206.85 521.91 1377.49 525.08
00005458 00000143 1099.83 78.15 413.14 603.29 1196.64 312.44 1392.92 318.39 1282.01 421.42 1207.78 520.55 1378.95 524.13
00005459 00000144 1104.60 84.31 411.41 600.14 1199.19 313.90 1396.05 317.76 1287.39 421.45 1208.62 522.52 1377.11 525.90
CROP_BBOX: 855 0 1802 888
