Video ID: 	WnfR9QF3tY8
H: 	1080
W: 	1920
FPS: 	25.0

FRAME INDEX X0 Y0 W H [Landmarks (5 Points)]

00002453 00000000 776.04 189.08 433.77 602.29 835.66 414.22 932.91 438.30 807.99 565.51 880.50 636.72 954.35 654.11
00002454 00000001 777.01 184.32 433.09 607.42 835.60 413.42 931.91 438.22 806.76 565.23 879.12 637.40 952.32 655.45
00002455 00000002 778.58 198.09 429.91 593.60 837.00 416.16 935.89 441.71 811.55 569.40 881.38 638.58 954.42 657.08
00002456 00000003 781.09 205.46 427.62 589.64 840.24 419.43 937.77 445.09 813.64 570.33 884.32 642.73 954.61 661.06
00002457 DELETE   784.92 209.56 421.94 583.83 843.49 421.62 940.14 446.89 816.61 568.79 885.56 641.31 955.85 659.24
00002458 00000005 793.95 205.06 417.56 584.75 846.00 419.93 947.67 447.70 820.33 569.28 885.85 638.57 960.35 658.58
00002459 00000006 799.38 203.81 418.23 585.88 849.50 413.94 954.74 444.01 822.79 567.39 887.39 637.26 964.11 658.66
00002460 00000007 804.09 196.10 420.13 584.22 852.42 407.95 959.27 437.33 825.89 561.51 889.02 633.77 967.25 654.74
00002461 00000008 804.02 195.11 418.78 580.52 852.63 401.22 961.37 433.63 826.65 558.09 887.09 627.27 967.00 650.88
00002462 00000009 805.48 193.06 417.54 580.00 853.85 399.44 963.46 432.21 827.18 555.48 885.50 626.11 965.92 650.11
00002463 00000010 808.77 207.45 421.75 558.05 856.02 395.31 971.90 424.27 833.85 550.52 888.73 623.13 972.79 643.57
00002464 00000011 810.40 208.13 423.60 547.39 855.34 390.64 979.45 418.06 837.30 544.95 887.97 617.55 980.45 636.50
00002465 00000012 811.09 182.91 422.76 563.79 856.73 383.12 980.92 410.36 837.50 533.51 886.57 607.78 976.41 627.56
00002466 00000013 813.87 180.51 418.17 564.44 859.35 376.71 983.90 405.51 839.66 529.62 887.41 603.23 976.76 624.40
00002467 00000014 809.01 181.17 422.11 559.02 853.24 379.10 985.44 402.49 841.22 527.38 881.74 604.27 974.98 621.48
00002468 00000015 807.06 178.68 421.24 561.26 849.68 376.65 983.55 401.86 837.98 526.80 877.32 601.74 972.23 620.68
00002469 00000016 801.73 180.53 419.51 557.04 843.79 375.75 979.76 401.83 835.73 527.17 873.37 599.97 970.77 619.82
00002470 00000017 792.41 179.74 424.87 562.99 837.22 377.24 970.51 401.00 827.91 526.46 868.80 600.08 963.91 618.41
00002471 00000018 788.27 185.32 420.30 556.95 830.66 378.07 964.37 403.48 819.24 527.97 860.13 601.31 956.81 621.12
00002472 00000019 784.33 187.16 420.33 558.40 822.91 379.25 958.42 407.68 813.55 530.96 852.58 603.92 952.44 626.28
00002473 00000020 782.85 198.69 423.37 549.66 824.10 387.17 959.29 419.02 810.65 543.04 854.41 610.54 954.43 635.10
00002474 00000021 783.39 201.09 418.91 555.04 826.51 398.10 955.36 433.29 811.20 549.21 852.18 615.90 951.89 642.76
00002475 00000022 783.59 204.59 410.21 560.02 829.37 401.96 953.77 443.36 811.49 557.99 851.83 622.38 946.45 654.32
00002476 00000023 785.33 202.09 407.49 567.95 825.25 417.87 954.50 446.87 811.10 561.19 851.14 631.54 949.57 655.10
00002477 00000024 787.74 214.59 407.23 557.47 829.18 417.65 959.65 449.90 814.59 562.85 854.02 630.09 952.41 656.30
00002478 00000025 789.28 211.72 407.30 560.25 829.68 413.84 965.43 444.95 819.27 564.32 854.05 632.04 956.80 657.62
00002479 00000026 794.30 215.45 404.09 558.08 832.76 409.03 970.97 437.40 826.69 563.35 856.66 631.15 961.20 654.76
00002480 00000027 811.13 212.02 398.84 551.01 847.13 395.71 980.67 438.14 836.58 552.01 866.97 618.94 967.20 651.00
00002481 00000028 813.38 203.47 405.81 562.70 846.71 401.20 990.17 425.73 838.49 550.81 864.60 623.03 976.09 643.56
00002482 00000029 821.57 188.32 403.64 564.43 859.83 384.01 998.29 421.13 848.39 535.72 875.33 609.82 979.73 637.84
00002483 00000030 822.24 185.26 408.22 575.51 860.76 376.51 1003.83 413.69 851.71 535.23 885.04 610.98 983.30 640.84
00002484 DELETE   831.12 182.69 408.55 575.00 870.08 367.43 1009.73 405.93 856.97 527.31 895.20 606.49 986.86 637.11
00002485 00000032 840.76 190.12 402.26 561.96 880.83 368.55 1010.49 403.55 866.73 517.50 898.75 599.68 989.13 627.25
00002486 00000033 847.96 179.81 398.97 566.61 887.83 363.93 1017.34 395.44 873.63 511.93 902.49 597.81 991.32 623.30
00002487 00000034 851.84 177.06 398.33 567.24 890.73 360.41 1024.91 392.56 877.95 508.77 903.30 594.58 995.83 621.17
00002488 00000035 855.82 169.30 396.10 573.18 891.56 359.06 1025.88 390.24 879.55 505.57 905.19 592.64 997.13 618.61
00002489 00000036 857.15 165.29 394.80 576.60 893.85 360.00 1028.36 390.50 881.42 501.25 905.98 589.75 998.86 615.18
00002490 00000037 857.03 165.42 395.46 575.64 892.95 359.12 1029.80 390.39 882.28 499.51 903.86 588.03 998.77 614.12
00002491 00000038 857.24 163.21 391.47 575.95 893.25 357.66 1027.91 389.39 878.59 496.24 902.85 585.03 997.15 611.47
00002492 00000039 851.21 166.10 393.51 572.41 887.12 357.15 1022.72 388.34 873.61 495.39 896.52 585.97 988.55 611.68
00002493 00000040 837.04 165.52 408.46 579.02 879.37 349.49 1020.47 385.44 858.71 493.35 889.43 587.64 982.36 617.44
00002494 00000041 833.20 164.27 406.20 581.38 871.83 348.98 1015.41 386.63 853.37 495.50 881.93 587.42 979.46 618.72
00002495 00000042 828.99 161.24 407.90 587.50 869.50 351.72 1008.42 386.74 848.59 496.63 880.03 589.63 976.66 618.52
00002496 00000043 824.61 163.99 409.54 585.36 867.58 350.50 1004.01 389.13 844.19 500.27 877.31 589.07 974.01 620.50
00002497 00000044 820.86 165.44 408.00 588.06 862.72 350.19 1000.03 392.56 838.72 505.35 871.73 591.20 970.96 625.33
00002498 00000045 818.68 164.15 407.26 591.73 859.68 353.89 997.50 393.09 837.31 506.10 870.22 594.60 969.48 625.97
00002499 00000046 817.13 165.03 410.11 593.25 858.57 355.03 995.78 392.14 834.49 504.28 867.99 596.04 968.13 625.28
00002500 00000047 819.92 166.84 410.29 593.55 859.62 362.65 998.22 395.13 843.94 504.66 867.80 594.15 970.33 619.54
00002501 00000048 818.86 163.59 412.46 598.85 859.45 364.78 996.69 393.17 843.23 504.56 869.86 595.94 971.57 618.06
00002502 00000049 815.04 158.41 419.86 605.61 857.24 365.32 993.66 390.01 840.88 501.72 869.83 596.87 970.14 616.10
00002503 00000050 812.73 151.50 415.80 609.51 853.28 360.68 989.73 379.44 831.67 494.61 869.47 600.62 970.61 614.69
00002504 00000051 804.07 147.12 416.72 613.00 845.05 362.32 982.60 373.35 825.45 489.09 860.68 598.68 972.67 606.12
00002505 DELETE   799.41 129.21 418.46 640.47 842.23 360.99 971.85 371.89 825.71 491.73 864.87 596.27 968.67 603.92
00002506 DELETE   788.91 127.66 417.26 629.91 830.83 359.15 956.41 367.63 815.19 488.10 858.15 591.63 957.01 597.49
00002507 DELETE   773.83 130.02 427.43 630.31 816.05 359.54 944.50 362.62 804.53 487.28 850.37 591.79 954.86 593.48
00002508 00000055 771.42 132.55 426.32 627.17 809.84 365.94 932.89 361.11 795.46 489.04 852.06 597.35 952.54 592.58
00002509 00000056 767.87 125.65 428.58 636.62 808.04 369.23 928.24 362.03 793.55 491.85 854.55 599.10 953.86 592.81
00002510 00000057 764.14 121.63 426.32 643.99 803.21 374.85 921.47 364.68 789.88 493.80 855.63 601.64 954.16 592.42
00002511 DELETE   764.58 125.27 420.04 639.96 801.67 385.52 918.40 370.31 784.46 493.78 854.25 605.80 954.41 591.44
00002512 00000059 753.14 130.38 428.32 628.51 798.64 386.58 917.99 365.29 783.53 494.96 855.84 609.26 948.91 588.85
00002513 DELETE   746.64 124.87 423.92 637.16 786.79 386.37 906.76 367.24 779.25 494.78 843.66 605.76 944.07 587.62
00002514 00000061 743.01 134.55 416.83 627.93 777.23 382.74 899.85 356.28 775.01 496.69 840.26 613.96 932.62 590.77
00002515 00000062 729.65 134.96 428.57 630.79 774.55 389.38 887.11 364.20 765.15 509.63 837.17 609.46 931.10 585.83
00002516 00000063 725.44 146.61 425.67 615.71 770.35 395.82 883.51 368.35 766.02 516.89 834.19 611.91 930.21 586.71
00002517 00000064 730.81 155.18 423.65 605.92 770.71 399.31 887.54 369.27 768.31 523.70 837.68 619.67 933.37 592.60
00002518 00000065 738.00 150.75 415.14 605.50 773.68 402.50 891.31 370.99 781.54 523.57 849.55 622.54 938.05 595.47
00002519 00000066 742.22 159.08 411.54 604.14 778.30 404.96 887.97 376.74 783.80 527.02 854.84 623.92 939.07 598.72
00002520 00000067 736.42 173.38 417.07 605.76 779.63 415.72 887.19 388.42 780.37 540.13 858.86 634.08 942.12 608.40
00002521 00000068 737.76 176.04 417.41 612.73 780.39 419.86 886.02 393.73 773.69 547.13 857.66 639.63 942.49 614.61
00002522 00000069 740.12 180.66 421.86 611.20 781.77 424.58 884.40 396.19 768.35 551.26 857.93 644.76 943.18 617.43
00002523 00000070 740.17 178.34 425.79 617.34 781.07 428.53 885.12 397.50 767.83 552.18 856.39 649.79 942.66 620.45
00002524 00000071 745.32 187.87 427.52 608.70 784.43 426.99 887.07 397.43 767.23 551.90 858.71 649.30 947.35 620.55
00002525 00000072 747.50 183.62 427.44 618.78 791.59 427.97 885.43 394.93 770.99 547.77 864.67 652.10 947.35 620.74
00002526 00000073 744.40 182.42 439.87 613.78 787.97 421.81 889.14 387.84 769.34 542.28 861.20 648.23 948.79 616.01
00002527 00000074 748.10 177.77 439.17 611.16 786.97 426.04 891.01 386.64 772.71 537.45 857.53 646.35 947.04 610.06
00002528 00000075 746.51 169.08 443.36 618.81 790.87 415.82 894.23 384.39 772.14 534.29 861.61 640.90 950.53 610.76
00002529 00000076 755.99 163.75 434.33 621.22 802.04 411.23 895.75 379.36 778.04 527.68 868.16 640.28 948.82 609.59
00002530 00000077 763.58 142.82 426.50 636.40 804.25 407.98 893.72 371.61 784.90 520.76 868.53 630.09 950.80 598.51
00002531 00000078 767.13 142.91 425.24 631.97 810.99 403.07 896.18 369.48 784.60 516.85 866.42 626.93 944.91 597.77
00002532 00000079 769.44 144.54 427.11 626.57 815.65 400.59 899.08 369.75 787.77 514.97 867.81 624.59 940.98 597.71
00002533 00000080 783.48 139.99 422.96 633.92 830.59 393.64 902.07 367.37 791.84 512.76 882.07 622.77 945.07 598.86
00002534 00000081 788.89 140.58 430.30 632.74 839.15 395.12 913.21 368.97 796.50 509.14 887.21 621.54 951.44 597.51
00002535 00000082 798.66 144.23 427.11 623.76 843.62 396.46 928.26 368.55 805.55 505.60 889.54 620.50 957.88 595.56
00002536 00000083 800.23 132.54 435.58 641.76 851.32 393.80 943.11 365.93 817.38 507.07 896.04 620.51 974.09 594.00
00002537 DELETE   806.74 134.70 439.25 634.26 851.44 381.36 951.18 360.70 820.11 498.63 896.51 618.84 968.24 599.38
00002538 00000085 811.94 134.26 440.56 638.03 859.25 381.86 959.17 360.27 815.56 497.12 897.30 624.18 966.94 602.76
00002539 00000086 815.48 139.38 441.32 631.76 866.00 379.08 969.20 360.87 821.65 496.58 897.82 623.61 973.70 604.75
00002540 00000087 816.32 141.41 443.67 629.96 869.85 380.69 972.83 364.26 826.07 498.30 899.37 623.99 973.62 606.96
00002541 00000088 816.25 143.82 443.32 632.57 871.36 382.48 973.03 366.33 825.12 503.55 901.04 629.39 970.75 612.27
00002542 00000089 815.68 144.04 438.28 640.16 873.99 386.59 970.40 370.68 823.15 506.29 903.97 634.31 969.06 616.57
00002543 00000090 817.70 138.35 434.71 654.38 881.49 388.01 967.17 374.83 820.81 510.50 908.35 639.73 967.38 623.15
00002544 DELETE   820.92 146.50 430.40 646.89 886.04 384.79 955.31 381.07 828.65 511.77 908.30 626.37 962.59 620.35
00002545 00000092 814.05 145.50 431.05 646.35 878.75 389.85 948.91 385.99 821.62 515.00 901.02 628.62 950.52 622.57
00002546 00000093 814.14 161.53 425.37 636.97 873.19 407.14 942.69 396.81 817.64 517.00 892.33 637.38 945.71 626.74
00002547 00000094 806.14 180.18 425.22 633.74 871.45 410.34 936.40 399.97 813.80 526.92 892.92 648.29 944.86 637.04
00002548 00000095 801.23 182.23 425.48 640.33 865.23 415.16 931.11 401.94 810.40 529.13 887.15 653.77 940.97 640.43
00002549 00000096 797.90 187.65 426.07 636.05 861.64 416.44 928.27 401.71 806.91 531.51 882.48 656.07 938.51 641.53
00002550 00000097 796.18 190.89 423.96 629.66 859.24 415.18 929.48 407.37 806.18 535.58 878.62 652.56 938.79 643.80
00002551 00000098 800.13 187.53 424.28 633.88 864.19 414.28 933.70 405.71 809.90 534.51 882.64 652.56 941.77 643.17
00002552 00000099 804.54 181.20 425.08 644.64 866.34 417.08 937.02 403.84 816.02 529.29 885.72 653.04 944.94 639.75
00002553 DELETE   800.96 165.57 439.46 659.33 868.23 412.06 939.46 396.50 813.16 530.63 895.26 655.86 951.90 639.77
00002554 00000101 811.41 178.21 440.19 649.55 870.66 411.77 949.65 393.28 821.19 522.02 894.21 654.23 959.93 636.39
00002555 00000102 812.78 181.50 441.91 647.25 867.49 412.74 956.43 391.83 822.31 520.19 892.32 653.08 967.93 632.94
00002556 00000103 815.62 170.70 442.79 643.09 863.25 407.15 968.23 387.59 825.39 515.57 887.14 643.78 973.91 625.06
00002557 00000104 816.74 157.66 440.68 646.25 862.51 398.82 972.27 382.79 829.84 515.46 891.11 639.86 977.08 625.39
00002558 00000105 818.86 162.87 442.74 647.85 863.03 401.80 977.55 383.95 832.00 515.46 891.55 642.54 986.26 626.83
00002559 00000106 819.46 170.34 444.93 646.54 861.56 402.93 981.69 386.87 833.90 518.35 890.28 644.95 989.42 630.93
00002560 00000107 818.13 167.57 440.49 640.53 858.63 400.49 983.72 389.03 835.19 519.32 886.02 641.33 983.32 631.47
00002561 00000108 813.55 167.13 437.70 641.36 854.64 401.04 981.70 390.41 833.01 521.50 882.14 642.48 978.45 633.27
00002562 00000109 808.77 170.64 440.17 640.78 849.32 403.01 980.13 395.06 829.59 527.99 878.99 647.07 975.61 640.03
00002563 00000110 803.63 174.36 443.46 639.86 843.07 406.85 975.34 396.77 824.82 529.39 874.47 651.29 971.54 642.37
00002564 00000111 802.98 175.75 442.09 641.04 841.42 411.98 971.96 395.13 827.58 524.49 864.84 651.57 962.71 636.56
00002565 00000112 799.93 168.82 442.91 648.30 836.83 409.86 967.23 393.70 822.41 521.48 856.36 651.42 954.50 637.58
00002566 00000113 798.74 167.42 436.80 649.72 837.78 408.73 960.29 391.89 817.64 520.24 855.79 651.14 948.81 636.86
00002567 00000114 793.76 168.85 437.40 651.39 832.88 405.35 951.51 389.67 811.70 520.04 851.13 652.16 941.00 639.47
00002568 00000115 786.24 170.88 439.81 647.47 825.23 405.63 943.27 388.21 802.39 520.72 845.77 651.04 938.25 636.79
00002569 00000116 782.05 169.52 438.50 652.08 830.23 404.09 933.54 391.21 792.72 522.93 849.69 648.22 938.92 637.53
00002570 00000117 773.15 167.92 441.00 659.20 823.33 409.04 923.24 396.26 779.68 526.70 846.84 648.75 942.25 637.43
00002571 00000118 765.15 165.69 443.46 665.22 816.95 413.09 916.69 399.90 774.10 530.34 843.87 653.63 936.28 641.62
00002572 00000119 756.60 164.99 445.40 665.48 811.61 415.46 910.59 406.30 768.10 536.22 837.91 654.50 926.59 645.87
00002573 DELETE   748.32 170.54 443.44 653.20 803.47 415.59 908.05 413.56 764.87 542.24 828.38 651.39 919.52 648.61
00002574 00000121 743.85 171.64 441.68 650.95 797.33 418.11 904.52 417.44 760.54 545.34 822.66 653.82 911.83 652.12
00002575 00000122 743.96 179.90 437.30 646.47 800.02 418.96 898.82 419.06 761.29 548.36 828.64 657.24 907.38 655.60
00002576 00000123 742.44 179.44 443.22 660.25 803.20 421.37 899.56 418.22 758.32 544.82 823.78 660.25 908.27 653.95
00002577 DELETE   740.25 182.82 439.82 652.44 798.54 422.33 898.02 417.90 757.08 545.45 817.80 662.76 899.33 656.01
00002578 00000125 738.27 183.43 438.42 651.04 796.32 419.61 897.64 416.94 756.88 544.78 812.19 663.63 891.66 658.85
00002579 00000126 736.19 187.05 438.43 647.19 794.66 420.78 894.85 415.92 755.56 544.94 812.23 665.33 889.83 658.70
00002580 00000127 734.59 181.35 442.00 660.04 796.01 423.75 892.73 415.46 754.10 544.27 813.58 668.85 889.39 659.34
00002581 00000128 733.76 186.34 442.90 656.26 798.44 422.12 890.28 414.04 754.26 542.77 817.77 666.80 891.62 657.06
00002582 00000129 733.84 186.52 443.11 655.45 796.11 423.64 889.89 413.44 753.66 541.38 817.30 666.34 893.95 654.92
00002583 00000130 734.15 184.20 442.19 656.43 795.59 422.82 891.21 412.82 753.94 540.38 816.82 665.46 895.12 654.21
00002584 00000131 734.03 184.36 441.30 656.19 795.89 422.20 892.48 414.12 754.31 540.37 816.87 663.97 896.21 654.35
00002585 00000132 733.71 182.31 442.41 657.04 794.08 420.55 894.62 411.37 754.23 538.48 816.28 661.95 900.36 651.48
00002586 00000133 733.41 175.33 446.84 669.24 789.18 417.48 898.88 406.91 753.32 536.00 809.86 662.88 901.48 652.26
00002587 00000134 731.87 181.92 447.77 664.88 783.27 417.75 902.20 406.66 754.70 536.62 805.99 663.03 905.84 652.26
00002588 00000135 731.03 180.36 453.14 670.51 784.00 417.85 904.91 406.83 754.26 537.08 805.03 664.68 908.17 653.90
00002589 00000136 732.50 177.87 453.00 671.02 783.74 417.51 907.39 408.67 756.03 537.42 803.77 663.90 909.50 654.71
00002590 00000137 732.80 177.55 456.22 670.89 783.98 416.97 910.70 408.84 756.65 536.89 802.55 662.77 912.43 653.74
00002591 00000138 735.71 172.66 451.05 669.01 785.03 416.57 912.70 409.48 757.75 533.58 799.54 659.44 907.05 651.30
00002592 00000139 733.42 174.91 450.34 657.29 779.41 412.37 910.14 406.34 754.98 531.03 796.28 654.17 904.09 647.23
00002593 00000140 731.46 172.08 451.66 652.99 774.41 406.38 909.88 402.37 752.37 528.99 793.39 650.24 901.76 645.17
00002594 00000141 729.25 173.41 452.79 652.93 771.44 406.10 908.35 397.75 752.04 523.86 791.77 650.70 901.00 642.41
00002595 00000142 725.37 166.92 449.99 657.39 768.91 405.25 903.08 399.59 742.78 527.03 797.00 653.22 900.19 646.81
00002596 00000143 726.33 171.79 452.46 659.87 771.77 407.96 903.31 401.52 744.75 530.60 802.74 655.96 906.92 648.64
00002597 00000144 726.85 173.10 455.23 665.59 773.78 408.23 904.20 403.91 744.24 534.56 806.30 657.80 913.43 651.74
00002598 00000145 726.84 173.75 461.30 676.97 777.50 408.33 910.39 402.08 753.51 535.98 802.22 659.39 917.10 652.56
00002599 00000146 726.80 172.37 461.64 677.70 776.58 408.75 910.46 402.36 753.25 536.51 801.58 660.19 916.55 653.26
00002600 00000147 725.49 172.53 462.49 677.28 773.29 407.07 909.84 400.34 751.66 536.30 799.95 660.44 917.00 653.43
00002601 00000148 723.97 168.49 459.85 682.59 770.69 408.58 904.17 397.90 747.46 535.11 799.61 661.31 915.85 651.06
00002602 00000149 723.60 165.10 456.45 685.75 768.43 408.78 896.22 396.59 741.79 533.83 797.38 661.58 908.97 650.26
00002603 00000150 715.77 160.31 456.27 684.68 770.52 414.66 882.41 395.17 733.33 532.22 806.08 669.33 900.54 648.96
00002604 00000151 719.62 161.40 454.92 686.41 773.97 413.65 870.89 387.28 727.42 519.58 797.25 663.17 889.84 639.99
00002605 00000152 718.31 152.78 442.41 684.48 773.96 409.14 863.49 389.48 723.87 517.59 790.78 653.72 879.39 636.56
00002606 00000153 711.04 155.66 440.62 667.42 769.44 409.60 853.84 397.19 719.57 522.17 783.55 647.74 862.71 636.32
00002607 00000154 708.39 156.86 434.18 648.81 768.24 409.98 849.04 400.51 715.52 525.24 780.46 642.32 854.60 633.50
00002608 00000155 707.60 163.77 434.58 639.62 769.56 405.45 842.16 398.81 714.26 523.52 786.03 636.75 854.99 629.69
00002609 00000156 704.93 150.23 431.72 655.24 769.52 399.23 836.63 395.65 712.49 519.46 784.44 635.08 846.40 630.57
00002610 00000157 701.84 153.58 429.13 649.44 762.90 395.68 833.53 391.39 707.90 514.61 778.56 632.81 841.40 627.58
00002611 00000158 698.04 152.01 428.51 642.27 758.55 394.06 832.67 389.12 703.21 513.14 773.49 628.35 839.24 622.81
00002612 DELETE   695.73 154.39 429.31 645.70 758.83 392.81 827.81 387.54 699.57 517.13 775.73 632.64 837.64 626.31
00002613 00000160 692.69 151.86 430.13 657.99 760.12 391.89 824.75 385.05 696.61 518.70 774.96 638.38 832.96 630.39
00002614 00000161 687.65 152.35 433.09 660.17 760.86 390.73 821.22 384.70 696.33 520.70 775.95 640.16 830.19 632.42
00002615 00000162 688.09 154.22 437.44 665.74 760.39 394.74 821.21 387.85 697.92 523.03 779.78 645.80 832.75 637.36
00002616 00000163 691.40 156.99 432.88 665.38 762.83 396.17 820.22 390.09 699.92 524.93 785.85 644.56 840.01 636.74
00002617 00000164 693.77 167.36 435.67 656.59 763.23 399.64 821.27 392.06 702.52 528.05 789.37 647.07 844.98 637.85
00002618 00000165 697.22 160.61 434.91 669.63 767.55 402.94 822.06 393.44 704.32 530.28 794.51 650.05 851.09 639.44
00002619 00000166 699.33 161.20 436.05 671.84 773.53 408.54 823.15 398.76 706.04 533.73 798.63 653.44 853.64 642.27
00002620 00000167 700.07 162.92 434.20 657.63 768.66 411.00 830.27 404.90 706.33 533.88 786.11 648.87 847.40 641.48
00002621 00000168 702.26 159.85 433.43 655.72 769.23 410.16 833.77 406.05 708.18 533.69 782.71 646.89 845.58 641.73
00002622 00000169 709.47 160.22 432.27 657.59 776.15 411.44 838.18 404.56 715.58 530.96 793.20 646.75 853.83 639.13
00002623 00000170 711.25 164.00 431.26 649.99 778.39 412.25 841.89 403.40 717.79 527.48 794.75 643.04 857.89 633.83
