Video ID: 	N04wLLBmdoY
H: 	1080
W: 	1920
FPS: 	29.97002997002997

FRAME INDEX X0 Y0 W H [Landmarks (5 Points)]

00018966 00000000 639.23 120.89 391.09 614.77 806.64 404.51 973.77 380.17 955.80 473.53 863.54 607.93 994.70 586.10
00018967 00000001 635.27 124.31 391.26 615.15 805.78 410.12 970.87 386.29 953.11 479.09 861.54 612.79 988.74 591.53
00018968 DELETE   630.27 119.48 395.83 622.77 801.12 409.13 970.92 389.35 950.23 480.42 855.27 615.24 986.63 597.32
00018969 00000003 626.14 127.49 395.62 619.39 794.97 415.67 968.06 396.20 944.44 483.06 847.21 619.53 981.07 602.24
00018970 DELETE   623.32 132.40 397.24 614.80 790.81 422.61 961.99 403.41 938.69 485.75 843.26 620.17 977.26 603.12
00018971 00000005 623.72 139.89 398.08 605.21 787.72 428.68 962.27 413.12 931.46 489.65 836.97 620.19 975.20 606.26
00018972 00000006 624.82 142.72 398.33 599.73 784.05 430.66 963.00 414.99 926.64 492.52 833.12 620.48 975.66 606.21
00018973 00000007 625.97 140.90 397.87 600.83 783.50 433.12 963.99 416.48 925.87 494.66 832.41 621.06 977.06 605.96
00018974 00000008 629.22 145.92 397.34 596.91 783.76 430.18 965.83 415.91 924.20 495.35 831.89 619.99 978.21 606.72
00018975 00000009 629.15 142.52 400.66 604.80 786.12 427.39 967.81 415.57 926.36 494.78 832.44 620.26 978.09 609.11
00018976 00000010 635.28 139.13 397.62 614.19 792.24 425.71 970.25 415.09 932.67 493.93 837.37 622.33 980.75 612.60
00018977 00000011 644.52 139.66 393.45 605.87 798.86 425.42 978.85 416.91 939.93 494.63 842.23 621.45 987.50 613.61
00018978 00000012 649.42 136.30 394.24 599.21 809.05 421.98 989.38 414.94 951.12 496.42 850.99 619.93 994.48 613.37
00018979 00000013 653.55 142.40 394.60 593.43 818.86 419.35 996.02 408.48 964.59 494.60 860.07 618.14 1001.61 608.56
00018980 00000014 656.62 134.24 395.79 604.12 824.36 416.85 1000.16 404.00 971.84 492.52 865.89 616.98 1006.79 605.92
00018981 00000015 659.37 131.78 396.96 615.38 829.45 415.50 1001.75 404.81 976.57 493.97 872.02 621.02 1008.83 611.89
00018982 00000016 662.78 134.19 395.35 609.82 832.84 413.96 1003.62 402.22 978.63 493.44 879.34 623.76 1009.44 613.87
00018983 00000017 662.00 134.25 396.14 608.43 832.22 414.49 1004.46 401.86 978.84 492.89 880.38 624.15 1010.73 613.34
00018984 00000018 662.86 131.44 394.67 614.21 832.20 413.21 1002.16 399.80 978.05 492.54 880.87 624.54 1009.60 613.23
00018985 00000019 662.16 130.16 394.56 624.42 829.52 413.84 998.38 398.44 975.05 491.50 878.34 625.10 1008.76 612.16
00018986 00000020 658.21 131.72 395.27 636.13 830.03 413.15 997.79 399.76 976.86 492.69 871.74 624.90 1007.26 613.67
00018987 00000021 659.32 134.10 392.75 627.18 827.51 415.06 997.75 400.22 974.86 494.38 866.35 622.78 1006.16 610.65
00018988 00000022 659.84 135.57 392.80 607.53 826.49 415.44 1002.61 397.80 977.60 493.43 866.07 617.70 1009.96 603.09
00018989 00000023 659.10 133.47 392.14 597.17 822.44 414.29 1003.01 394.19 975.61 493.29 863.75 614.08 1011.00 597.22
00018990 00000024 656.53 131.25 393.60 597.05 821.05 414.04 1002.55 393.38 974.60 492.24 864.19 614.33 1010.50 596.73
00018991 00000025 653.88 132.19 393.49 598.32 820.63 414.34 1000.22 393.75 973.44 492.97 864.35 616.15 1007.59 598.74
00018992 00000026 652.11 132.54 394.02 599.42 819.28 414.84 996.11 395.73 970.01 493.26 865.28 617.67 1003.95 601.34
00018993 00000027 651.74 128.42 392.61 609.50 816.98 415.55 991.29 395.84 966.46 492.15 864.73 619.64 1001.65 602.90
00018994 00000028 651.45 132.33 391.97 612.35 816.19 415.84 987.74 397.60 962.83 490.63 866.03 621.13 999.86 605.47
00018995 00000029 649.44 133.88 392.90 610.77 814.27 416.35 987.42 397.60 961.95 491.83 864.55 621.32 999.19 605.23
00018996 00000030 650.23 132.13 391.26 609.85 813.59 416.45 986.90 397.43 961.19 491.83 864.14 621.49 998.57 605.20
00018997 00000031 649.34 132.46 391.69 608.16 812.52 416.08 986.34 396.55 960.10 492.07 863.58 621.41 997.63 604.67
00018998 00000032 648.77 131.95 391.78 609.44 812.75 416.06 985.41 396.87 959.93 491.91 863.72 621.22 997.06 604.84
00018999 00000033 648.65 130.85 391.58 609.75 812.49 415.94 985.79 395.98 959.90 492.26 863.52 620.95 997.24 603.91
00019000 00000034 648.67 130.94 392.43 607.96 812.68 416.59 986.53 396.84 960.10 492.38 864.10 621.25 997.75 604.33
00019001 00000035 650.03 133.44 391.55 603.99 813.88 416.81 986.97 397.46 961.08 492.81 864.81 620.87 998.08 604.34
00019002 00000036 649.78 131.39 392.60 603.92 814.81 416.18 987.62 397.55 961.61 491.91 865.90 620.90 997.58 604.98
00019003 00000037 649.16 131.85 394.16 602.04 816.56 416.47 988.10 398.27 963.90 490.73 869.04 620.70 999.09 604.99
00019004 00000038 650.57 135.50 394.57 595.70 817.31 416.31 990.14 398.65 964.70 491.48 870.17 620.88 1000.84 605.57
00019005 00000039 650.96 135.10 395.75 597.20 818.59 417.45 989.82 399.75 964.80 491.16 873.26 622.73 1002.02 607.39
00019006 00000040 651.53 135.31 394.20 599.32 819.17 418.05 989.64 401.02 965.02 492.71 873.23 624.32 1000.60 609.65
00019007 00000041 650.70 134.64 394.50 605.59 820.58 418.32 989.31 403.21 965.79 492.30 874.64 625.76 1000.96 612.59
00019008 00000042 649.49 131.74 394.51 613.81 820.52 418.76 985.43 402.11 964.59 490.88 874.79 626.13 998.90 611.80
00019009 00000043 649.84 132.56 393.57 620.73 820.06 417.02 981.73 400.27 962.26 489.72 874.86 627.17 996.54 612.83
00019010 00000044 652.41 131.19 390.35 627.43 822.00 415.58 982.63 400.34 963.25 489.57 873.83 626.99 996.58 614.00
00019011 00000045 651.48 134.28 391.79 616.28 821.80 417.29 983.67 400.80 963.84 489.53 873.58 625.22 997.12 611.32
00019012 00000046 651.74 139.60 393.21 604.96 821.45 419.00 989.14 401.84 966.54 491.50 873.32 624.23 1001.70 609.48
00019013 00000047 653.76 137.93 393.96 607.95 822.59 421.82 994.22 403.26 969.34 496.33 871.07 625.43 1005.01 609.61
00019014 00000048 653.50 138.43 395.32 603.67 823.86 422.76 998.70 404.16 972.50 500.13 869.05 625.31 1005.75 609.42
00019015 00000049 652.86 142.41 396.00 599.25 823.85 424.61 1000.34 404.48 974.66 503.75 866.12 624.61 1006.50 607.54
00019016 00000050 651.89 141.21 397.00 600.75 824.23 424.26 1000.97 404.78 974.78 503.34 865.35 623.85 1006.38 607.19
00019017 00000051 652.66 141.30 397.29 602.01 824.80 424.68 1001.15 405.32 975.50 503.36 864.87 623.63 1006.91 607.21
00019018 00000052 653.54 140.77 397.42 608.09 825.31 424.34 1001.06 405.92 975.08 504.00 865.49 626.29 1006.51 610.67
00019019 00000053 655.31 141.20 395.82 615.44 827.65 423.15 999.28 406.45 974.38 501.94 868.65 628.19 1005.40 614.11
00019020 00000054 655.86 142.19 395.16 618.47 827.91 423.30 998.68 407.06 974.40 501.91 869.24 629.79 1005.86 615.98
00019021 00000055 656.69 142.54 395.25 612.52 827.50 423.24 999.62 406.48 974.02 502.08 870.43 628.53 1007.05 614.17
00019022 00000056 657.77 143.12 393.84 605.07 826.89 422.65 1000.25 405.60 973.67 501.03 869.34 625.26 1007.60 610.71
00019023 00000057 657.46 141.47 394.48 602.94 825.99 421.94 1000.61 403.02 974.32 500.39 868.89 624.02 1008.15 608.03
00019024 00000058 657.40 141.13 394.45 604.18 826.78 422.15 1000.72 403.10 975.11 499.73 869.14 623.82 1008.56 607.80
00019025 00000059 658.00 141.52 393.79 606.14 827.55 421.95 1000.18 403.18 975.46 500.13 869.28 623.83 1008.30 608.10
00019026 00000060 658.14 140.66 394.24 606.09 827.36 421.51 1000.27 402.65 975.22 499.80 869.59 623.68 1008.36 607.86
00019027 00000061 657.64 141.36 393.68 603.29 827.48 421.41 999.23 402.09 975.92 498.59 869.91 622.52 1007.58 606.49
00019028 00000062 656.96 141.61 393.80 602.66 826.46 420.66 999.28 400.66 975.37 496.98 869.39 621.71 1008.14 605.04
00019029 00000063 656.29 138.56 394.34 603.75 825.12 419.94 997.34 399.84 974.32 495.84 870.03 621.51 1007.51 604.75
00019030 00000064 654.22 139.46 395.29 602.08 823.86 420.10 996.12 398.38 972.77 495.77 869.73 621.56 1006.92 603.33
00019031 00000065 653.09 138.46 395.11 602.57 822.68 419.80 994.10 397.27 971.45 495.07 869.69 621.32 1006.04 602.45
00019032 00000066 650.54 136.19 397.29 604.99 821.42 420.11 992.60 397.08 970.69 494.38 870.18 621.67 1005.49 602.14
00019033 00000067 649.37 136.62 398.16 605.87 821.88 420.62 991.51 397.61 969.93 494.94 870.52 621.83 1004.84 602.31
00019034 00000068 649.25 135.98 398.09 607.48 821.03 422.02 991.74 397.88 969.38 495.97 870.15 623.75 1004.43 603.47
00019035 00000069 646.54 133.46 400.37 612.40 820.24 422.68 991.47 399.71 968.64 495.66 870.24 625.00 1004.35 605.43
00019036 00000070 646.08 135.80 400.93 612.19 819.41 423.54 992.12 400.98 968.29 496.27 869.40 626.19 1005.05 606.90
00019037 00000071 646.44 138.41 399.82 609.45 817.00 424.25 991.36 402.56 966.28 497.37 868.94 627.33 1005.11 608.74
00019038 00000072 646.22 141.23 398.94 611.35 816.76 424.65 990.87 405.19 964.93 497.55 867.37 628.55 1003.77 611.87
00019039 00000073 646.87 143.05 398.02 614.09 816.74 424.71 988.71 405.64 962.68 497.91 865.86 628.91 1001.31 612.64
00019040 00000074 647.03 138.29 397.47 622.41 819.35 426.47 987.78 408.17 963.54 497.78 867.57 630.60 1001.64 614.61
00019041 00000075 646.66 142.29 399.62 613.26 823.43 431.99 991.00 416.24 964.18 499.49 869.11 631.84 1002.29 617.57
00019042 00000076 648.00 135.11 400.51 612.22 824.15 431.94 992.48 412.55 966.62 498.89 872.13 629.65 1004.02 612.43
00019043 00000077 652.80 135.27 396.16 601.47 828.18 430.30 995.81 407.93 973.09 498.85 875.75 625.43 1007.44 606.19
00019044 00000078 656.06 131.79 396.04 601.76 828.70 426.80 998.13 401.62 976.18 497.05 875.03 621.29 1009.83 599.97
00019045 00000079 659.22 132.88 394.57 601.96 828.29 419.81 1000.86 396.93 975.88 493.84 872.85 617.37 1012.01 597.84
00019046 00000080 660.89 128.19 396.30 614.27 832.40 416.02 1001.83 395.10 980.00 491.91 875.08 617.43 1012.54 599.85
00019047 00000081 666.04 129.17 394.10 621.82 835.87 415.49 1002.55 395.80 982.62 493.28 877.69 620.07 1013.61 603.91
00019048 00000082 670.57 133.54 391.80 621.98 840.07 416.46 1004.47 397.68 984.37 495.27 878.94 621.27 1014.25 606.12
00019049 00000083 671.62 132.70 392.90 624.91 841.84 418.91 1007.14 400.15 986.08 495.79 881.51 622.87 1018.21 607.29
00019050 00000084 675.55 134.26 387.35 626.01 831.85 419.58 1000.83 398.47 975.01 497.00 881.89 620.53 1018.66 602.69
00019051 00000085 675.20 134.99 388.69 622.74 832.02 421.66 1001.81 400.49 975.44 497.19 883.47 621.83 1019.17 603.95
00019052 00000086 673.86 135.96 390.53 621.26 831.64 422.04 1001.96 400.95 974.96 496.91 883.83 622.78 1019.11 604.89
00019053 00000087 673.64 135.93 390.32 621.48 830.98 421.50 1000.33 400.13 973.66 496.00 883.45 621.79 1018.50 603.65
00019054 00000088 673.39 134.98 390.25 621.16 830.50 420.75 1000.51 399.39 973.99 495.97 882.46 621.70 1018.43 603.85
00019055 00000089 672.02 134.81 391.65 616.15 830.27 421.44 999.46 398.34 974.86 494.60 886.29 623.08 1017.97 603.64
00019056 00000090 671.09 133.77 392.53 614.88 828.69 420.73 999.67 396.68 974.18 492.91 885.09 620.88 1019.61 600.99
00019057 00000091 672.49 133.33 390.21 613.28 828.14 419.26 1000.41 395.32 975.30 492.63 882.97 619.74 1020.81 600.11
00019058 00000092 673.01 130.97 390.45 622.13 827.96 419.12 999.97 396.05 973.76 493.92 881.94 619.63 1021.06 600.40
00019059 00000093 673.75 132.66 390.44 623.71 828.68 418.78 1000.44 397.48 973.41 494.30 880.96 620.24 1020.58 602.35
00019060 00000094 672.87 131.52 391.83 627.39 829.67 418.72 1000.88 398.75 973.56 495.44 879.96 621.10 1018.36 604.10
00019061 00000095 672.63 131.13 391.76 628.87 830.37 418.74 1000.82 398.85 973.69 495.94 880.31 621.00 1017.24 604.15
00019062 00000096 673.17 131.08 390.66 626.90 830.16 419.02 1000.22 398.21 973.35 494.81 881.53 620.82 1017.36 603.31
00019063 00000097 673.66 130.51 390.40 625.46 830.24 418.91 1000.55 397.19 974.57 494.82 883.76 622.29 1017.65 604.14
00019064 00000098 673.15 132.49 390.75 620.92 830.17 419.02 999.47 396.42 974.32 494.04 884.33 621.40 1016.74 602.64
00019065 00000099 673.31 133.32 389.77 618.70 830.29 418.93 998.05 395.26 974.39 492.99 885.45 620.88 1016.42 601.49
00019066 00000100 673.43 133.28 389.53 618.03 829.59 417.43 997.73 394.12 973.61 492.80 884.82 620.51 1016.15 601.45
00019067 00000101 671.77 130.83 390.93 623.61 827.93 416.28 996.62 393.34 973.07 492.26 881.96 620.36 1016.15 601.32
00019068 00000102 671.45 132.86 391.24 628.07 826.89 416.88 994.88 393.54 970.87 493.38 880.38 620.92 1015.22 601.34
00019069 00000103 670.60 131.81 392.61 629.98 827.01 418.58 995.55 395.75 970.81 495.01 879.80 621.75 1016.02 602.35
00019070 00000104 670.72 131.42 392.99 631.71 827.60 419.36 996.66 397.16 971.03 495.51 880.05 622.03 1016.87 603.03
00019071 00000105 670.58 132.62 393.14 630.48 826.41 419.04 996.57 395.89 970.74 496.04 879.55 622.15 1017.18 602.62
00019072 00000106 670.31 131.86 393.90 631.84 825.09 420.27 997.48 396.65 970.00 496.38 878.10 622.98 1017.88 603.05
00019073 00000107 670.10 132.57 393.82 631.98 824.93 420.57 997.73 397.93 970.39 496.66 877.39 623.03 1017.70 603.81
00019074 00000108 671.25 131.90 392.52 632.79 825.03 419.81 998.44 398.55 969.98 496.24 876.55 622.49 1017.92 604.34
00019075 00000109 671.59 131.04 392.44 633.60 825.30 418.88 999.19 398.09 970.21 495.73 876.15 622.42 1017.45 604.83
00019076 00000110 671.96 129.87 392.55 634.14 825.29 418.17 999.06 398.69 969.13 495.26 875.66 622.04 1016.29 605.63
00019077 00000111 671.96 132.63 393.00 629.03 825.10 418.17 998.57 399.02 968.57 495.21 876.23 621.80 1016.43 605.52
00019078 00000112 672.21 131.85 392.79 624.79 825.17 419.04 1000.97 400.04 969.54 495.16 875.95 621.81 1017.17 606.09
00019079 00000113 672.91 131.37 392.52 621.98 825.84 419.82 1003.56 400.39 971.24 497.71 876.58 623.13 1018.53 607.21
00019080 00000114 672.11 135.32 394.39 611.13 826.85 420.39 1007.67 402.47 973.39 500.04 875.11 621.80 1020.51 607.13
00019081 00000115 673.83 137.74 393.73 606.84 828.45 421.38 1007.83 403.05 973.54 500.43 877.67 622.67 1019.98 607.70
00019082 00000116 675.19 140.56 394.37 604.35 830.03 423.33 1010.00 405.04 975.22 501.52 879.23 624.48 1021.70 609.46
00019083 00000117 677.74 142.64 392.37 601.76 831.55 424.28 1011.06 404.77 976.81 503.09 882.86 626.68 1022.70 610.32
00019084 00000118 680.05 142.11 390.92 604.04 834.89 425.36 1014.24 405.27 979.51 504.70 886.02 628.39 1024.18 611.54
00019085 00000119 684.92 142.43 388.61 604.30 840.24 425.46 1014.47 406.49 982.53 507.83 892.96 630.43 1025.90 614.00
00019086 00000120 686.62 145.88 391.38 603.46 844.25 426.49 1018.54 410.36 985.14 508.28 896.24 631.25 1028.42 617.11
00019087 00000121 688.43 146.51 391.61 606.87 846.26 428.20 1020.20 412.72 986.11 509.24 898.07 633.42 1029.81 619.88
00019088 00000122 689.05 148.12 393.75 612.23 848.18 429.75 1022.53 415.81 988.94 512.16 899.50 637.52 1029.61 625.46
00019089 00000123 690.71 155.29 392.74 609.75 851.34 433.95 1027.84 421.18 993.47 518.08 898.80 640.56 1031.71 629.23
00019090 00000124 693.19 160.02 392.46 614.29 855.91 437.76 1030.35 425.98 996.64 524.21 897.79 644.70 1032.80 633.83
00019091 00000125 699.59 161.21 395.66 629.08 862.29 430.65 1039.75 422.05 1007.50 526.03 901.45 647.47 1038.61 638.78
00019092 00000126 702.91 160.40 397.16 638.97 868.06 432.85 1044.94 422.85 1013.18 527.55 904.89 650.12 1043.23 640.04
00019093 00000127 712.87 163.98 389.15 630.77 874.99 434.55 1051.31 423.55 1020.15 530.62 908.02 649.71 1047.96 639.67
00019094 00000128 716.41 161.88 386.71 626.13 878.15 434.86 1054.46 421.51 1022.92 532.80 910.85 650.07 1050.26 638.23
00019095 00000129 718.82 164.29 384.42 616.17 878.75 433.63 1055.07 418.08 1022.71 530.15 912.04 646.86 1052.23 633.59
00019096 00000130 720.97 164.08 380.88 608.67 881.68 431.56 1055.69 416.69 1026.26 526.75 915.65 643.20 1053.30 630.68
00019097 00000131 718.72 162.48 382.06 599.81 878.74 436.60 1057.83 423.11 1019.58 521.25 920.55 642.53 1056.14 630.42
00019098 00000132 718.52 162.84 381.06 594.87 880.31 434.91 1057.47 419.86 1022.38 519.94 923.23 639.83 1056.49 626.38
00019099 00000133 718.84 163.24 379.13 589.50 879.21 433.79 1056.28 417.49 1021.04 519.46 925.90 639.64 1056.26 625.08
00019100 00000134 718.18 161.23 379.73 587.72 878.36 432.95 1055.72 415.66 1020.63 518.58 926.87 639.70 1056.48 624.24
00019101 00000135 717.73 158.31 379.85 586.80 877.72 432.90 1054.92 414.60 1021.20 518.17 928.16 640.15 1057.36 623.91
00019102 00000136 716.25 157.98 380.91 589.12 878.25 433.40 1053.15 413.92 1020.54 518.45 929.01 640.13 1055.50 622.87
00019103 00000137 717.17 156.96 380.78 589.17 879.37 431.35 1053.44 411.88 1021.76 516.15 930.91 638.50 1056.21 621.35
00019104 00000138 717.13 153.58 380.73 590.02 882.75 429.50 1052.58 409.30 1024.81 511.05 934.85 635.50 1056.71 617.77
00019105 00000139 718.38 150.56 381.39 590.63 886.98 424.90 1056.99 406.90 1031.36 504.90 936.28 629.91 1059.52 614.42
00019106 00000140 719.72 146.38 382.75 594.32 894.78 421.65 1063.19 408.73 1039.01 502.16 939.08 626.50 1062.05 615.27
00019107 00000141 722.69 146.12 380.19 592.51 904.66 418.87 1069.52 409.16 1050.03 498.43 942.87 620.19 1067.88 611.53
00019108 DELETE   729.12 142.47 375.95 591.60 914.42 416.68 1076.18 409.52 1057.63 492.22 951.15 614.72 1076.28 607.81
00019109 00000143 735.46 139.61 370.45 594.03 925.01 413.25 1079.79 406.96 1064.98 494.37 956.41 611.66 1075.67 605.93
00019110 00000144 741.78 142.59 368.30 591.35 932.21 409.36 1084.68 405.81 1069.49 494.20 959.94 610.34 1077.58 607.18
00019111 00000145 743.29 152.73 373.11 588.45 937.23 407.78 1091.99 405.84 1075.44 497.03 961.04 612.87 1080.23 611.04
00019112 00000146 744.44 154.35 376.28 590.10 930.25 415.20 1083.19 409.00 1075.08 492.70 974.92 613.19 1084.99 608.22
00019113 00000147 747.74 158.79 379.00 581.45 935.68 419.87 1090.74 413.42 1080.10 497.81 978.96 616.35 1088.77 611.00
00019114 00000148 754.93 160.33 375.27 575.93 938.52 423.48 1097.61 415.72 1084.11 501.30 982.62 619.09 1094.30 612.22
00019115 00000149 758.17 165.20 377.73 570.76 943.69 422.61 1104.12 416.96 1087.48 502.25 984.08 616.36 1097.98 611.08
00019116 00000150 760.77 164.58 379.77 571.52 945.98 423.83 1108.14 417.05 1089.59 501.68 985.70 615.86 1102.13 609.53
00019117 00000151 760.58 166.33 379.81 572.00 946.92 422.34 1108.02 414.83 1091.60 501.68 988.79 616.95 1104.21 609.79
00019118 00000152 761.89 163.06 379.23 577.51 947.85 420.78 1108.98 414.13 1093.21 501.44 989.30 618.49 1104.19 612.02
00019119 00000153 762.64 162.30 379.21 577.52 948.65 417.44 1111.05 412.90 1094.88 498.71 990.06 617.21 1105.75 612.45
00019120 00000154 763.17 157.89 379.80 583.56 949.60 414.91 1111.02 411.02 1096.19 495.31 991.15 615.55 1106.32 611.22
00019121 00000155 763.92 157.49 381.49 587.43 951.09 411.35 1112.70 410.10 1097.42 494.01 991.21 614.50 1106.97 612.30
00019122 00000156 762.01 152.73 382.70 604.61 955.19 406.69 1108.90 406.41 1102.86 489.73 991.44 613.64 1104.82 612.51
00019123 00000157 763.40 151.57 380.98 607.50 957.38 403.17 1108.14 404.80 1105.28 487.66 991.77 612.10 1103.82 612.52
00019124 00000158 764.16 147.37 383.54 610.16 960.62 402.93 1111.38 405.45 1107.62 486.72 993.95 611.36 1105.98 612.59
00019125 00000159 764.59 149.58 384.13 603.09 961.67 402.82 1112.99 405.86 1108.18 487.11 994.74 610.50 1107.19 612.27
00019126 00000160 766.15 148.58 381.26 602.25 960.35 404.59 1113.40 406.43 1106.82 487.05 996.34 610.58 1109.87 611.12
00019127 00000161 765.85 149.94 378.76 594.25 958.38 405.82 1111.53 405.77 1104.27 487.37 998.53 609.71 1109.15 608.39
00019128 00000162 764.17 150.09 375.17 588.15 952.35 406.64 1107.29 403.03 1100.13 486.80 995.71 609.34 1105.39 605.22
00019129 00000163 761.28 153.56 376.22 574.34 946.99 409.87 1102.90 404.90 1092.64 486.70 991.01 607.27 1102.92 602.06
00019130 00000164 753.38 146.13 381.07 582.67 941.62 405.08 1099.78 394.18 1089.21 490.28 984.68 602.71 1103.85 596.17
CROP_BBOX: 412 0 1486 1001
