Video ID: 	VdelvBODyng
H: 	1080
W: 	1920
FPS: 	25.0

FRAME INDEX X0 Y0 W H [Landmarks (5 Points)]

00019493 00000000 563.29 198.60 392.14 573.78 746.99 442.08 887.46 374.22 915.73 506.77 806.94 644.61 926.03 590.67
00019494 DELETE   558.72 198.27 394.12 575.72 744.21 441.66 883.40 374.18 913.56 505.80 804.98 645.95 923.29 592.01
00019495 DELETE   565.43 203.61 387.80 571.16 742.14 442.40 882.28 375.00 913.33 505.52 804.40 647.54 923.64 593.65
00019496 00000003 570.94 201.84 381.12 567.04 743.51 445.48 886.86 380.21 913.62 508.60 813.42 651.22 928.21 598.40
00019497 00000004 570.62 201.53 383.67 567.36 743.13 446.71 888.39 383.38 914.17 508.73 814.36 651.34 930.46 599.73
00019498 00000005 572.22 205.02 385.69 567.86 743.54 448.20 888.82 381.71 913.99 509.70 816.41 653.15 933.36 599.22
00019499 00000006 572.93 200.36 387.72 568.34 749.30 452.27 894.73 383.64 916.88 512.06 820.24 652.13 938.15 596.62
00019500 00000007 575.68 198.83 386.95 567.17 757.44 455.57 901.36 385.95 922.77 515.37 824.89 651.76 943.05 596.26
00019501 00000008 583.74 205.97 381.16 561.68 769.62 454.19 905.93 395.22 934.88 513.42 842.67 646.15 952.18 600.48
00019502 00000009 603.50 207.29 379.97 559.55 783.60 453.54 925.67 397.12 947.29 515.61 859.06 644.98 974.63 600.86
00019503 00000010 627.21 209.65 372.92 552.46 807.03 454.87 943.74 399.19 969.48 515.72 880.50 644.00 989.70 600.17
00019504 00000011 627.69 196.47 388.53 569.15 824.34 452.86 954.79 389.07 984.95 511.18 891.24 646.32 996.95 594.22
00019505 00000012 639.11 202.07 384.03 562.43 842.63 454.35 972.62 393.03 1001.16 518.42 896.32 647.81 1001.59 599.51
00019506 00000013 653.71 206.19 374.70 561.52 858.70 456.18 983.51 403.64 1013.99 517.95 910.09 647.67 1010.26 605.99
00019507 00000014 663.26 193.97 382.66 578.52 877.06 450.78 1003.31 405.21 1037.60 522.84 928.99 650.94 1028.41 614.56
00019508 00000015 673.95 197.63 375.85 567.14 884.69 452.94 1009.14 407.02 1052.40 518.66 949.67 653.37 1039.12 618.91
00019509 00000016 682.87 206.60 383.77 560.68 894.07 455.19 1021.86 409.35 1058.90 522.55 955.12 653.53 1047.22 619.12
00019510 00000017 696.73 201.85 380.42 569.53 905.68 452.85 1026.71 406.06 1063.01 520.30 960.42 650.30 1048.94 613.40
00019511 00000018 699.37 206.11 380.94 569.13 908.47 453.91 1032.12 411.20 1065.44 523.74 959.28 651.80 1051.22 618.40
00019512 00000019 709.77 209.95 376.89 566.43 913.82 459.18 1038.78 415.35 1069.29 526.92 961.11 652.70 1056.44 618.54
00019513 00000020 713.71 210.19 376.29 566.32 918.63 460.90 1042.82 416.72 1072.78 528.13 959.80 650.00 1058.93 615.88
00019514 00000021 717.85 215.24 375.44 562.76 921.42 462.70 1043.15 417.31 1074.31 529.64 958.46 649.07 1060.42 614.60
00019515 00000022 718.74 216.77 375.35 562.26 920.61 463.31 1043.48 417.98 1074.74 530.00 958.21 650.10 1060.93 615.51
00019516 00000023 719.22 220.32 374.77 557.54 919.49 465.77 1042.69 417.82 1073.14 531.77 958.05 651.35 1060.41 614.81
00019517 00000024 705.29 219.67 387.31 556.19 917.55 468.82 1042.91 415.41 1074.73 532.73 961.32 653.61 1062.14 611.68
00019518 00000025 697.72 222.20 393.61 556.38 912.50 469.06 1040.20 415.43 1071.82 532.36 959.82 656.17 1062.00 613.77
00019519 00000026 693.24 224.23 395.92 555.00 908.79 469.38 1037.21 415.50 1071.01 532.94 957.58 656.38 1060.91 613.99
00019520 00000027 692.50 223.28 392.03 552.87 905.35 472.32 1032.03 417.96 1066.46 531.97 958.98 658.74 1056.67 615.82
00019521 00000028 680.57 221.77 399.00 557.16 897.59 474.35 1023.73 418.62 1062.60 531.21 956.29 659.88 1053.48 615.50
00019522 00000029 678.99 215.44 396.18 562.29 893.70 476.48 1017.01 416.11 1059.01 531.38 955.76 662.17 1050.14 614.11
00019523 00000030 676.82 220.65 395.32 555.11 892.05 478.71 1008.93 417.69 1055.27 531.39 955.77 661.37 1043.55 612.99
00019524 00000031 671.82 219.91 397.91 556.16 889.14 478.28 1004.83 420.02 1050.32 529.40 955.04 659.45 1042.09 613.06
00019525 00000032 670.90 219.16 397.23 557.26 886.82 478.05 1002.31 421.26 1048.26 527.33 955.34 658.71 1041.75 613.45
00019526 00000033 669.87 214.68 396.24 558.50 886.98 477.24 1002.21 420.95 1045.75 526.99 956.26 658.27 1041.14 613.34
00019527 00000034 666.06 227.53 396.96 540.63 877.02 477.19 1010.08 423.10 1051.93 529.98 956.55 664.07 1053.34 624.37
00019528 00000035 680.39 215.66 388.79 552.04 899.60 473.97 1003.22 417.98 1052.93 525.82 961.93 652.60 1040.15 608.89
00019529 00000036 681.10 221.32 394.98 546.35 910.28 472.09 1007.90 413.42 1064.27 522.90 970.91 651.21 1045.28 605.59
00019530 00000037 690.60 222.26 387.92 540.46 926.29 467.62 1009.76 410.63 1075.50 520.95 982.88 647.58 1045.20 604.50
00019531 00000038 704.43 227.66 380.78 535.48 933.49 465.97 1016.00 410.59 1080.72 521.31 987.22 647.54 1051.07 606.10
00019532 00000039 711.89 242.67 374.93 519.47 937.65 468.78 1015.15 414.65 1084.20 525.13 989.10 649.50 1048.61 609.64
00019533 00000040 716.49 242.89 371.19 519.24 938.51 471.19 1013.94 416.99 1082.83 526.01 989.00 648.72 1049.26 608.96
00019534 00000041 372.04 111.78 263.16 340.18
00019535 00000042 714.51 247.87 373.56 515.42 938.67 472.27 1012.99 417.53 1084.84 526.67 989.32 649.27 1048.56 609.04
00019536 00000043 712.81 248.12 375.41 515.93 939.06 472.36 1013.92 417.28 1085.38 526.48 989.76 649.69 1049.51 609.11
00019537 00000044 713.20 250.05 375.35 515.12 938.11 472.29 1013.39 417.75 1084.64 526.97 988.93 650.41 1049.14 610.41
00019538 00000045 711.47 251.63 377.54 514.29 937.17 472.69 1012.83 418.12 1084.21 526.28 989.13 650.35 1050.51 610.25
00019539 00000046 711.46 250.50 377.90 515.57 936.89 473.63 1011.97 418.95 1083.22 525.73 990.07 650.50 1051.37 610.20
00019540 00000047 710.62 250.83 377.99 513.53 934.75 473.62 1009.57 419.78 1081.54 525.29 989.33 649.20 1050.05 609.41
00019541 00000048 709.69 244.44 378.80 521.06 932.21 471.81 1012.34 417.48 1080.02 524.90 987.00 650.22 1051.96 609.73
00019542 00000049 698.32 240.31 386.83 525.02 929.19 471.61 1008.93 417.01 1079.79 521.64 984.67 647.29 1047.98 606.23
00019543 00000050 690.09 234.74 389.70 531.75 923.60 472.75 1004.04 413.65 1080.68 520.04 988.07 651.42 1047.75 606.40
00019544 00000051 686.02 233.90 392.77 531.47 918.75 469.87 1005.00 411.01 1078.26 516.75 984.53 649.48 1047.46 604.29
00019545 00000052 679.47 228.98 397.69 537.23 912.11 469.97 1004.37 412.04 1073.09 515.76 980.61 650.01 1048.31 605.12
00019546 00000053 673.47 227.78 402.35 540.13 909.37 468.25 1001.22 410.87 1069.63 515.19 978.78 650.01 1044.97 605.22
00019547 00000054 671.40 224.11 402.61 545.74 904.34 468.90 998.42 410.62 1065.81 515.33 976.76 651.19 1046.23 605.47
00019548 00000055 673.60 225.96 400.11 544.20 902.25 469.56 996.95 410.75 1064.71 515.08 975.32 651.01 1046.30 604.86
00019549 00000056 667.04 228.35 407.02 544.42 899.47 469.33 995.34 409.46 1064.60 514.85 974.06 652.21 1046.73 605.04
00019550 00000057 668.99 230.96 402.05 542.74 896.86 468.73 993.22 410.77 1060.73 517.56 972.64 654.39 1044.80 609.03
00019551 00000058 669.12 223.33 400.30 550.23 895.25 468.29 992.24 410.02 1057.15 517.23 971.61 654.33 1044.63 608.47
00019552 00000059 666.26 215.69 402.48 561.03 894.74 464.85 992.26 406.75 1055.95 516.23 970.46 655.04 1044.89 609.21
00019553 00000060 665.66 214.04 403.28 563.75 894.43 464.28 993.41 405.43 1056.53 517.03 968.75 655.89 1044.44 609.54
00019554 00000061 667.51 214.37 401.93 566.07 893.59 464.08 992.90 405.74 1057.13 516.87 967.81 656.14 1045.22 610.24
00019555 00000062 668.16 217.47 400.75 565.75 893.09 464.12 992.94 405.83 1058.25 518.20 964.21 656.73 1042.93 611.08
00019556 00000063 665.98 216.28 402.30 566.33 892.70 465.66 993.45 406.16 1057.38 519.74 961.22 657.54 1040.56 611.01
00019557 00000064 662.72 216.22 406.09 568.03 892.77 465.02 992.48 408.01 1055.75 520.42 961.83 658.22 1040.01 613.66
00019558 00000065 663.98 214.52 405.00 569.03 892.56 465.16 991.61 407.69 1055.17 519.99 962.51 658.41 1039.91 613.49
00019559 00000066 661.80 213.02 407.08 570.40 892.75 466.09 992.08 407.44 1055.08 520.25 961.55 658.16 1039.84 612.28
00019560 00000067 660.63 212.82 408.16 570.87 892.40 465.59 991.90 407.44 1054.77 519.67 961.17 657.85 1039.69 612.33
00019561 00000068 660.92 213.46 408.08 569.51 891.93 465.66 993.06 406.44 1055.68 518.27 961.96 657.19 1041.56 610.63
00019562 00000069 660.55 214.33 408.66 567.99 891.49 466.06 993.28 406.43 1055.24 518.61 961.83 657.61 1042.26 610.75
00019563 00000070 657.54 214.33 411.25 569.00 890.57 465.95 991.07 409.01 1052.52 519.49 960.47 657.62 1039.58 613.11
00019564 00000071 656.09 213.78 411.72 571.57 888.21 465.52 989.22 409.66 1050.58 520.05 955.71 658.33 1035.12 614.87
00019565 00000072 655.50 213.41 410.65 571.48 887.12 466.07 987.28 412.03 1047.80 519.72 954.49 657.02 1033.68 615.02
00019566 00000073 658.40 212.87 407.93 568.72 887.82 466.49 988.75 412.92 1047.56 520.21 958.50 657.42 1036.09 615.81
00019567 00000074 656.15 212.90 409.87 567.55 886.96 468.48 984.42 413.38 1045.63 518.52 960.96 656.89 1035.34 613.76
00019568 00000075 656.76 222.63 403.83 543.92 876.95 478.66 990.23 412.03 1058.11 518.15 952.21 659.96 1037.52 612.09
00019569 00000076 656.64 217.46 407.49 554.95 889.26 471.02 985.98 414.06 1050.26 518.08 958.16 653.28 1031.27 609.21
00019570 00000077 656.82 226.63 401.93 539.00 877.38 478.68 989.66 411.33 1058.33 519.74 949.31 660.20 1033.51 612.16
00019571 00000078 656.86 227.07 401.22 537.85 877.32 477.70 989.83 411.23 1057.95 520.32 948.85 659.78 1032.83 612.41
00019572 00000079 657.27 225.70 399.95 537.84 877.59 477.51 989.75 410.47 1058.31 519.90 948.27 658.79 1032.63 610.96
00019573 00000080 657.62 225.74 400.30 537.04 877.40 477.27 989.86 410.67 1057.84 519.25 947.99 658.31 1032.90 610.82
00019574 00000081 655.87 223.95 402.72 539.65 876.60 477.58 989.34 411.00 1057.64 518.95 947.66 658.64 1032.79 611.14
00019575 00000082 654.71 221.62 405.70 542.67 876.23 477.77 990.72 412.09 1057.92 518.48 950.25 659.06 1036.40 611.92
00019576 00000083 655.79 223.10 404.47 540.68 876.01 478.01 991.65 413.30 1056.91 519.93 950.30 659.44 1036.30 613.04
00019577 00000084 658.22 224.20 400.13 539.63 876.11 480.03 992.17 415.52 1055.66 521.45 950.45 660.64 1036.20 614.24
00019578 00000085 664.19 228.19 393.45 536.13 876.65 482.43 993.05 417.66 1053.12 523.74 949.93 661.35 1036.35 614.66
00019579 00000086 665.19 219.24 395.68 554.64 887.39 477.76 987.03 422.34 1043.79 522.87 952.96 656.65 1026.44 614.11
00019580 00000087 664.57 222.76 396.24 555.38 885.33 479.96 986.92 425.37 1044.73 525.63 948.69 658.81 1024.27 617.23
00019581 00000088 663.27 222.12 397.61 558.49 885.61 476.30 984.67 424.11 1043.60 524.06 946.55 656.22 1021.77 616.55
00019582 00000089 663.21 218.13 399.12 563.88 884.64 473.78 985.80 419.90 1045.87 523.61 942.88 655.96 1023.38 615.12
00019583 00000090 661.44 216.26 401.24 566.08 881.66 469.54 984.53 417.49 1042.02 521.89 941.96 654.75 1024.56 615.00
00019584 00000091 661.27 221.61 401.76 559.33 882.33 467.60 981.70 418.19 1042.52 521.22 946.66 653.95 1024.60 616.30
00019585 00000092 661.96 221.41 400.93 555.71 881.34 468.84 982.68 417.81 1041.65 520.33 947.46 652.83 1026.20 613.48
00019586 00000093 661.54 222.40 402.01 554.11 881.60 471.75 981.79 419.98 1041.01 520.99 949.23 653.16 1027.48 613.23
00019587 00000094 660.60 221.69 402.80 555.78 882.01 473.67 980.56 421.80 1040.34 522.93 949.01 654.80 1025.66 615.00
00019588 00000095 661.81 221.73 401.66 555.69 880.99 475.10 981.70 422.47 1040.40 523.67 948.57 655.97 1026.08 615.60
00019589 00000096 662.05 222.68 401.04 550.93 881.02 475.44 981.52 421.30 1040.08 522.58 950.73 654.47 1027.68 612.71
00019590 00000097 660.58 222.33 402.93 546.69 880.36 472.83 981.80 416.12 1042.17 519.23 951.66 652.16 1029.28 607.87
00019591 00000098 657.85 226.79 393.03 532.25 869.56 473.96 982.53 408.54 1049.27 518.23 944.97 657.67 1027.36 610.49
00019592 00000099 659.42 222.52 389.67 536.21 867.04 469.79 982.17 405.35 1047.32 514.08 942.42 655.62 1026.87 608.89
00019593 00000100 660.68 220.72 387.23 536.47 866.34 470.72 981.72 405.65 1045.68 514.81 940.45 654.51 1026.29 607.15
00019594 00000101 656.75 216.49 403.72 551.77 874.26 466.64 982.86 411.12 1040.06 518.14 945.75 651.69 1029.68 608.24
00019595 00000102 656.03 224.96 400.19 545.33 881.59 471.29 994.77 411.21 1049.29 527.12 941.18 654.60 1035.95 606.74
00019596 00000103 657.83 228.36 398.07 545.17 881.84 474.26 993.07 414.98 1047.91 529.40 940.66 656.62 1035.39 609.36
00019597 00000104 656.81 228.73 399.45 544.46 881.33 473.72 993.83 413.77 1048.19 528.60 940.73 656.60 1035.64 608.78
00019598 00000105 654.51 219.38 407.03 551.35 876.38 469.44 982.68 414.07 1041.70 519.45 948.03 652.97 1029.85 609.64
00019599 00000106 657.81 221.99 390.82 536.61 864.12 468.60 983.16 405.01 1044.71 513.77 941.87 655.81 1029.95 609.47
00019600 00000107 659.30 218.24 387.11 537.84 861.64 466.90 979.02 400.81 1040.42 510.57 938.27 652.53 1025.81 603.91
00019601 00000108 660.96 219.35 383.81 537.23 861.34 465.46 977.35 400.95 1037.84 509.92 936.07 651.85 1022.19 604.35
00019602 00000109 660.73 215.15 382.53 541.85 860.38 467.97 978.09 401.93 1037.49 512.36 933.82 652.50 1022.37 603.77
00019603 00000110 658.69 209.00 392.88 557.65 870.60 463.20 991.71 407.51 1037.44 522.23 931.97 650.85 1031.86 606.52
00019604 00000111 657.67 220.39 392.51 553.08 869.71 470.67 990.90 411.60 1036.33 528.49 928.98 657.49 1030.70 610.77
00019605 00000112 654.18 244.65 394.99 541.56 868.90 480.37 988.94 422.22 1034.60 538.91 922.89 665.41 1025.13 619.53
00019606 00000113 650.29 242.51 390.46 552.34 869.79 495.30 992.77 440.60 1031.62 560.93 913.97 675.47 1018.62 631.93
00019607 00000114 646.45 260.48 391.71 545.91 870.51 503.72 991.62 454.85 1030.21 573.68 910.66 685.85 1012.09 647.75
00019608 00000115 644.46 261.14 398.52 546.82 864.39 504.63 991.47 461.41 1020.73 578.22 914.75 687.22 1008.52 654.61
00019609 00000116 657.95 253.59 379.77 549.01 869.68 503.51 992.55 446.73 1027.16 569.58 916.70 689.34 1015.58 644.38
00019610 00000117 656.71 242.78 381.30 548.51 863.66 487.46 989.23 427.41 1025.26 548.53 915.52 675.53 1019.21 628.21
00019611 00000118 654.86 221.13 383.58 559.38 853.96 471.99 985.16 409.14 1017.05 530.86 911.16 662.90 1021.29 613.15
00019612 00000119 657.68 206.75 375.98 567.76 848.27 463.37 979.94 400.32 1011.28 524.79 904.86 654.12 1017.35 604.49
00019613 00000120 653.89 204.21 377.09 567.73 846.53 459.32 979.03 398.26 1007.93 522.60 902.94 651.44 1014.57 603.55
00019614 00000121 648.71 202.78 381.30 572.54 844.88 459.76 978.69 400.21 1008.58 524.14 902.48 654.40 1014.71 607.46
00019615 00000122 648.23 209.37 384.84 573.16 848.38 466.14 982.76 407.17 1013.01 533.04 899.19 661.83 1013.35 615.87
00019616 00000123 648.08 219.31 388.22 569.28 848.62 474.33 983.02 414.47 1014.45 537.77 899.62 667.86 1012.99 620.85
00019617 00000124 646.53 225.61 388.98 563.72 850.80 476.84 982.49 417.93 1015.78 539.95 901.81 668.82 1012.42 622.58
00019618 00000125 647.60 223.18 387.40 564.25 846.28 475.53 980.99 413.12 1012.99 536.99 899.36 667.80 1013.42 618.82
00019619 00000126 642.16 207.13 387.40 569.91 842.78 470.17 975.96 407.25 1006.29 532.36 897.33 662.31 1008.18 613.27
00019620 00000127 639.76 202.06 386.75 565.85 835.49 463.01 971.20 398.33 998.22 522.04 896.79 655.92 1006.03 605.05
00019621 00000128 637.09 203.10 386.40 560.70 829.89 458.27 968.24 394.06 994.54 517.36 893.25 653.21 1002.37 602.79
00019622 00000129 635.38 204.57 386.40 557.57 827.22 456.49 966.21 392.26 994.22 516.03 893.10 652.38 1001.57 601.74
00019623 00000130 634.38 205.78 386.77 557.35 825.46 457.51 963.30 392.66 992.17 516.66 892.13 652.74 999.67 601.43
00019624 00000131 633.53 204.58 387.93 561.18 825.20 458.94 962.09 392.42 992.74 517.58 891.28 655.39 998.51 602.65
00019625 00000132 634.03 203.17 386.88 563.98 823.24 460.40 961.05 393.62 991.21 518.28 889.51 656.27 997.93 603.20
00019626 00000133 631.71 206.15 387.48 561.29 821.56 459.43 958.97 393.04 990.23 517.72 889.31 656.16 996.77 603.25
00019627 00000134 628.31 204.39 388.67 561.78 821.03 457.18 957.28 391.24 988.30 516.84 888.39 654.43 995.09 601.74
00019628 00000135 630.59 204.85 384.52 558.55 819.89 456.11 955.70 392.31 986.56 514.96 888.48 652.55 994.49 601.67
00019629 00000136 632.93 204.63 383.05 556.93 818.64 454.29 956.37 390.08 985.97 514.21 887.04 650.66 994.77 599.33
00019630 00000137 631.28 201.48 383.61 559.45 819.71 451.00 956.38 388.09 985.67 513.49 886.25 648.74 993.70 598.50
00019631 00000138 630.58 201.29 384.21 559.89 819.96 449.25 957.46 387.08 985.51 514.44 885.86 648.87 993.21 599.13
00019632 00000139 626.28 202.61 390.17 559.76 820.94 449.57 959.97 387.80 985.89 515.97 885.95 649.33 995.12 599.90
00019633 00000140 628.04 202.59 389.82 559.04 821.29 450.77 961.67 388.83 985.47 517.45 886.09 649.84 995.66 600.23
00019634 00000141 631.82 203.19 386.32 557.92 822.77 451.75 962.36 390.01 986.52 517.67 885.96 649.36 995.56 600.29
00019635 00000142 631.26 203.11 387.59 557.52 823.62 450.14 964.54 390.31 987.74 517.02 887.58 649.57 996.39 602.04
00019636 00000143 630.93 199.78 386.92 558.88 824.32 448.74 963.36 388.46 987.14 516.02 887.06 647.09 995.58 599.08
00019637 00000144 632.48 199.99 386.21 558.26 823.78 447.04 962.89 386.43 987.43 513.85 887.89 646.64 995.58 598.39
00019638 00000145 630.36 199.03 387.35 558.78 822.10 446.20 960.65 385.31 987.09 510.83 888.32 645.26 994.98 596.57
00019639 00000146 631.69 200.98 386.26 557.37 822.73 447.31 961.10 387.09 987.38 511.92 889.21 646.44 995.83 598.22
00019640 00000147 634.14 201.17 385.44 557.39 823.12 449.55 963.99 388.84 987.55 513.67 888.69 647.52 997.52 599.03
00019641 00000148 635.05 203.35 385.27 557.05 823.97 451.37 964.13 391.06 987.52 515.56 888.34 649.07 997.32 600.97
00019642 00000149 635.90 202.49 384.40 557.98 823.61 451.92 963.49 391.27 986.77 515.79 888.37 649.39 997.48 601.05
00019643 00000150 635.12 203.02 385.15 556.60 822.76 452.77 962.80 390.54 988.19 513.79 889.04 648.81 997.60 599.21
00019644 00000151 635.48 203.10 383.01 554.82 823.06 453.32 960.07 391.63 988.55 511.04 890.59 647.28 996.71 597.93
00019645 00000152 632.16 199.11 384.31 557.67 820.50 449.48 957.41 386.82 987.94 508.56 888.36 645.90 993.15 595.62
00019646 00000153 631.67 203.11 385.76 554.91 814.01 446.06 960.50 391.46 986.86 512.13 887.59 642.61 1002.46 599.31
00019647 00000154 631.29 197.87 383.15 561.83 818.27 446.47 953.71 386.25 984.70 507.15 883.83 644.73 988.07 596.38
00019648 00000155 633.41 198.92 384.18 567.98 819.12 450.69 957.87 389.95 985.52 510.75 885.85 649.20 994.43 600.29
00019649 00000156 633.31 204.21 390.18 571.19 819.28 454.93 960.75 390.40 986.61 515.86 886.78 656.09 998.86 603.93
00019650 00000157 630.00 202.22 394.28 578.33 820.49 459.54 961.37 395.46 989.35 521.79 887.48 662.43 998.28 610.72
00019651 00000158 626.98 204.92 398.56 578.92 822.72 467.83 963.02 400.16 992.52 530.87 885.42 667.71 996.83 613.54
00019652 00000159 625.32 215.09 398.60 570.99 818.71 473.87 963.83 407.54 991.20 536.69 880.96 672.27 994.84 619.12
00019653 00000160 628.51 217.65 394.55 567.59 820.09 476.50 964.35 411.23 991.00 538.06 879.58 670.59 993.74 618.44
00019654 00000161 632.15 219.53 392.76 559.55 826.33 471.95 966.23 409.86 991.12 534.28 882.25 664.48 993.60 614.91
00019655 00000162 631.72 208.69 389.30 556.19 825.94 454.70 966.99 397.27 988.78 520.08 886.81 651.52 996.24 605.31
00019656 00000163 634.55 196.11 388.01 556.96 820.97 444.15 967.53 384.07 985.78 513.50 881.55 642.07 996.01 593.76
00019657 DELETE   633.06 176.42 389.38 570.45 816.67 433.04 964.08 375.55 983.07 502.69 878.32 631.74 997.26 585.16
00019658 00000165 639.03 173.53 378.31 557.82 809.32 426.53 955.49 366.29 980.10 484.11 874.50 615.23 992.64 566.53
00019659 00000166 638.60 171.92 378.73 556.38 808.35 423.01 955.57 365.20 978.92 481.20 875.38 612.58 993.23 565.56
00019660 00000167 639.08 176.82 379.41 557.77 810.67 427.81 958.50 368.56 981.58 488.76 874.70 618.95 992.91 571.06
00019661 00000168 636.25 184.96 386.68 563.74 816.51 433.50 967.13 378.82 983.55 505.90 877.52 635.58 995.16 591.46
