Video ID: 	SJ36nqDeK60
H: 	1080
W: 	1920
FPS: 	23.976023976023978

FRAME INDEX X0 Y0 W H [Landmarks (5 Points)]

00002994 00000000 825.37 173.84 351.60 532.88 886.64 361.40 956.48 369.33 825.48 447.92 866.94 566.09 927.71 572.68
00002995 00000001 826.89 173.89 353.37 542.67 889.11 369.06 964.51 374.01 833.06 456.82 873.19 575.89 938.59 580.34
00002996 00000002 824.65 172.35 357.99 550.27 888.09 370.16 966.66 378.22 831.41 459.74 872.97 577.97 943.40 584.85
00002997 00000003 823.78 178.75 359.52 538.97 887.55 370.93 964.68 379.57 831.88 460.39 871.33 576.48 939.22 583.59
00002998 00000004 825.95 181.05 359.14 535.84 888.92 369.83 966.51 380.06 834.84 460.55 870.99 575.89 939.66 584.45
00002999 00000005 827.26 184.40 346.19 531.47 904.10 375.16 988.26 388.02 834.41 458.22 868.30 573.97 941.01 583.08
00003000 00000006 828.51 184.83 345.68 527.78 911.46 373.49 989.74 389.53 838.88 458.55 870.46 571.95 939.85 583.73
00003001 00000007 828.23 189.04 344.97 517.76 915.65 374.25 988.71 387.92 841.61 457.45 870.98 570.82 937.10 580.88
00003002 00000008 828.58 189.59 339.67 514.30 919.64 372.55 988.92 387.11 844.22 456.43 873.17 568.31 937.01 579.15
00003003 00000009 829.90 190.51 343.13 514.54 919.40 371.92 990.74 388.59 848.07 458.57 875.29 567.71 939.68 580.23
00003004 00000010 830.11 188.27 345.23 527.45 918.54 374.21 991.89 390.72 848.35 462.07 876.67 574.69 939.69 587.06
00003005 00000011 834.82 193.45 352.00 525.44 920.54 382.97 995.11 396.93 852.79 466.66 885.17 577.00 950.16 587.06
00003006 00000012 837.98 195.61 353.55 524.33 921.82 385.88 997.92 397.48 857.04 466.26 887.87 578.94 951.60 587.12
00003007 00000013 837.10 189.75 364.02 534.06 921.65 383.87 1002.77 396.18 859.29 463.56 890.34 579.15 956.84 587.84
00003008 00000014 833.64 187.80 369.03 546.36 920.62 377.82 1005.24 391.85 863.08 458.93 888.51 581.58 956.16 591.51
00003009 00000015 839.66 185.70 369.43 563.60 908.96 373.26 1006.48 383.76 849.77 460.74 885.84 590.63 970.52 598.10
00003010 00000016 840.57 188.74 365.33 561.20 908.98 371.40 1007.01 382.79 850.26 461.09 885.35 590.69 971.81 598.68
00003011 00000017 840.87 187.95 360.37 547.00 901.03 374.21 1005.35 386.50 851.08 462.10 875.22 585.34 964.48 595.55
00003012 00000018 831.28 189.49 357.04 539.92 911.80 371.77 1003.09 387.95 854.45 456.56 879.11 577.40 953.41 588.85
00003013 00000019 830.19 191.77 363.24 536.81 913.73 373.25 1001.24 385.90 850.67 457.03 879.41 579.33 951.77 587.93
00003014 00000020 832.32 185.26 359.97 541.36 907.57 388.31 994.88 399.64 851.07 460.96 881.17 581.12 952.77 588.60
00003015 DELETE   844.74 186.85 360.76 542.77 907.66 401.17 994.70 405.50 850.73 477.12 887.68 588.51 966.88 591.95
00003016 00000022 848.71 189.90 360.22 533.42 907.70 405.80 1001.31 406.24 860.25 472.60 899.07 585.41 982.83 584.33
00003017 00000023 855.74 196.81 359.43 530.54 911.93 402.65 1004.46 407.37 862.97 477.25 907.48 583.57 994.89 585.67
00003018 00000024 864.39 197.81 359.46 538.97 914.86 397.74 1009.36 404.58 867.63 483.77 915.79 587.80 1005.67 591.48
00003019 00000025 869.40 195.86 357.64 556.05 918.57 394.03 1011.38 400.47 868.11 479.72 922.51 591.37 1014.89 594.09
00003020 00000026 866.16 185.79 369.58 576.45 923.85 380.70 1018.47 388.06 872.97 478.29 928.93 596.70 1021.91 599.70
00003021 00000027 855.59 182.57 377.29 591.68 919.02 377.15 1018.80 384.09 870.96 472.04 923.28 600.58 1020.94 603.28
00003022 00000028 852.69 181.32 378.34 602.44 915.43 377.30 1014.56 381.57 864.07 471.11 919.80 607.08 1017.09 607.31
00003023 00000029 852.87 183.06 362.23 588.75 914.68 380.93 1010.49 387.14 864.16 474.53 924.40 602.60 1014.79 604.53
00003024 00000030 854.42 190.28 356.64 555.88 906.50 387.54 1001.44 391.75 852.14 479.83 911.96 589.30 1005.48 589.48
00003025 00000031 855.05 197.78 348.88 531.29 912.50 383.85 999.98 391.59 854.59 477.63 910.87 581.70 993.47 586.31
00003026 00000032 851.18 198.44 349.94 521.78 919.50 380.05 998.34 392.06 857.88 468.74 899.93 574.85 971.31 584.35
00003027 00000033 849.27 194.53 347.68 520.54 921.10 377.60 996.86 392.83 856.84 465.59 889.77 571.81 958.48 585.17
00003028 00000034 844.87 196.01 346.23 512.05 931.76 379.85 1000.31 397.53 865.26 461.71 899.63 564.76 960.75 577.87
00003029 00000035 857.93 194.21 336.84 516.41 934.88 385.41 1008.90 402.21 871.39 464.76 908.78 568.41 972.13 581.02
00003030 00000036 871.24 192.64 336.44 525.66 933.46 391.65 1014.46 397.91 877.18 470.54 915.57 581.13 986.12 585.81
00003031 00000037 881.24 197.22 349.73 530.38 927.89 393.26 1029.52 395.60 884.06 478.75 920.35 590.41 1002.91 592.06
00003032 00000038 889.75 198.25 353.16 531.18 927.85 391.48 1039.64 394.88 893.91 480.88 927.74 588.24 1020.37 590.56
00003033 00000039 897.72 195.64 358.35 547.24 936.69 395.86 1050.16 400.06 905.23 485.46 936.24 594.61 1029.16 597.81
00003034 00000040 900.00 209.56 357.99 545.48 939.68 398.93 1050.29 404.50 908.29 495.58 939.86 605.37 1027.12 608.94
00003035 00000041 903.24 205.53 351.80 547.11 944.70 400.04 1050.22 406.57 909.25 496.67 942.24 606.09 1025.64 610.51
00003036 00000042 898.52 204.58 348.14 546.31 943.13 397.95 1041.32 411.93 899.71 502.06 937.52 601.94 1019.95 612.60
00003037 00000043 891.02 199.54 345.97 554.40 937.74 403.70 1032.06 412.47 890.42 503.18 931.14 611.58 1003.54 617.88
00003038 00000044 879.75 207.69 345.59 561.68 943.01 406.07 1020.78 409.23 883.57 498.04 932.64 620.13 995.82 620.94
00003039 00000045 875.76 209.24 349.73 566.86 945.65 405.37 1014.81 408.91 880.09 499.09 938.08 621.35 997.67 621.84
00003040 00000046 875.82 207.51 350.47 554.85 935.26 406.51 1018.65 409.86 880.21 498.14 930.08 615.40 999.00 615.91
00003041 00000047 878.33 200.66 348.82 544.83 929.65 402.09 1025.06 404.54 884.95 491.10 924.22 606.75 1000.26 607.56
00003042 00000048 881.17 201.84 342.01 538.03 928.97 400.24 1029.01 399.37 887.58 485.15 922.21 604.22 999.16 602.63
00003043 00000049 882.38 203.74 346.95 534.82 927.03 398.20 1032.82 397.96 889.21 487.19 921.66 604.70 1000.80 604.15
00003044 00000050 883.57 201.11 354.75 536.45 931.46 397.34 1032.78 398.08 890.48 486.19 924.64 604.62 998.99 604.67
00003045 00000051 882.55 198.04 359.25 536.07 936.87 396.53 1030.97 399.21 889.84 484.83 926.49 601.14 994.93 602.79
00003046 00000052 879.79 200.95 356.68 528.92 936.58 396.37 1027.55 400.81 889.07 486.03 924.28 599.94 989.35 602.91
00003047 00000053 879.11 202.93 353.87 523.40 937.30 394.89 1026.80 399.02 887.43 485.06 921.27 599.39 983.29 602.42
00003048 00000054 879.47 200.63 354.09 524.77 944.53 391.23 1026.58 397.05 888.66 481.24 924.59 595.69 981.58 599.97
00003049 00000055 880.72 198.53 347.12 525.77 953.66 386.42 1027.03 395.40 888.99 475.50 928.26 590.45 980.56 597.26
00003050 00000056 885.57 194.78 351.22 529.56 960.80 382.58 1030.46 391.25 893.81 467.18 934.89 585.36 985.78 591.89
00003051 00000057 886.63 193.51 350.43 530.93 960.41 374.50 1033.51 386.73 894.52 461.28 933.28 581.20 987.38 590.54
00003052 00000058 882.14 188.77 351.29 540.10 968.78 367.16 1050.41 385.24 890.12 456.03 922.60 579.28 986.31 593.52
00003053 00000059 894.36 190.73 353.29 533.39 962.43 365.20 1043.39 378.19 900.24 453.91 935.77 577.89 997.69 587.21
00003054 00000060 893.91 193.87 348.13 529.38 963.07 357.42 1043.62 374.81 899.69 449.02 937.25 572.05 999.17 584.78
00003055 00000061 893.22 190.21 349.56 531.32 967.00 353.77 1044.46 372.99 899.23 444.92 938.21 567.78 996.84 582.20
00003056 00000062 891.47 184.34 349.72 535.85 970.06 351.26 1044.90 372.87 897.78 439.70 935.65 564.75 992.71 581.29
00003057 00000063 895.57 190.15 345.99 527.53 972.35 344.64 1035.89 366.15 898.55 443.92 941.05 565.27 996.32 582.07
00003058 00000064 897.80 191.43 349.80 527.23 974.20 347.97 1038.03 369.48 900.13 447.09 942.21 566.58 999.23 583.68
00003059 00000065 897.79 190.00 350.87 529.62 973.59 347.23 1038.30 369.14 900.08 447.04 942.34 566.58 999.99 584.02
00003060 00000066 897.98 189.33 356.08 532.33 973.82 350.28 1040.41 370.05 902.24 448.66 944.04 568.53 1005.57 584.52
00003061 00000067 899.38 190.21 353.92 532.44 974.34 351.20 1040.79 370.33 902.65 450.50 947.01 570.38 1008.87 585.69
00003062 00000068 887.66 189.27 357.24 543.98 981.03 353.34 1058.93 379.01 895.10 449.17 937.68 571.05 1004.25 589.07
00003063 00000069 887.11 192.55 352.47 542.17 977.71 354.38 1056.19 380.08 891.02 453.16 936.48 572.46 1002.85 590.25
00003064 00000070 885.78 191.48 352.76 545.65 977.42 359.37 1053.23 382.35 889.16 455.62 932.43 577.15 998.11 593.07
00003065 00000071 882.73 189.50 351.93 550.37 970.79 367.09 1049.18 388.87 885.27 458.51 928.13 582.59 994.93 597.99
00003066 00000072 884.07 193.57 351.01 541.88 958.68 377.35 1034.96 393.26 890.92 468.20 934.79 586.23 995.52 598.42
00003067 00000073 874.77 200.80 350.75 535.38 938.93 396.82 1020.40 414.05 877.22 490.57 922.31 597.54 988.02 610.26
00003068 DELETE   871.87 214.55 341.27 527.29 923.81 412.30 1014.03 438.18 871.66 510.89 916.83 604.98 987.77 623.53
00003069 DELETE   860.45 232.67 345.04 529.48 916.31 419.63 1011.10 449.10 869.07 525.35 906.24 619.38 977.67 640.85
00003070 00000076 855.31 238.10 355.09 545.61 920.21 430.84 1010.78 451.23 869.04 530.24 905.49 639.45 975.31 657.50
00003071 00000077 845.71 235.81 366.00 567.49 913.29 438.01 1010.33 453.52 862.63 537.46 902.02 653.82 974.56 666.63
00003072 00000078 837.96 236.62 374.20 562.12 912.05 428.56 989.76 440.60 847.19 532.75 890.99 650.11 957.74 659.58
00003073 00000079 823.41 230.38 376.13 566.86 904.56 413.96 993.15 432.22 842.40 514.84 874.18 637.33 941.68 649.36
00003074 00000080 818.42 208.78 368.72 572.36 901.33 399.74 989.70 420.01 836.33 489.66 863.78 615.39 935.19 629.48
00003075 00000081 817.59 195.45 364.28 578.56 917.36 382.66 990.23 402.90 834.44 471.05 868.43 600.61 934.70 614.07
00003076 00000082 818.88 199.32 363.60 555.80 921.59 372.48 991.88 392.33 837.44 462.56 875.50 589.14 937.52 602.03
00003077 00000083 821.82 198.80 356.66 537.08 924.99 367.22 991.53 388.83 842.34 456.65 880.10 576.18 939.85 591.13
00003078 00000084 838.61 196.28 355.85 525.46 931.75 358.03 982.60 375.64 840.93 460.58 887.35 573.29 939.99 586.98
00003079 00000085 842.72 196.28 351.68 519.79 938.35 358.08 981.99 379.81 841.37 462.13 892.91 567.97 941.05 584.24
00003080 00000086 829.37 197.35 355.36 524.55 935.22 369.50 1003.67 391.58 856.30 457.62 891.76 569.29 954.25 585.74
00003081 00000087 838.73 198.37 352.07 528.18 938.97 371.17 1006.41 396.01 864.44 461.16 899.77 570.52 961.49 589.14
00003082 00000088 849.51 197.49 348.69 533.72 946.90 377.21 1006.65 398.78 867.47 466.57 913.31 575.34 970.95 591.04
00003083 00000089 851.16 195.07 349.47 543.41 949.63 378.77 1005.06 400.91 867.71 467.23 918.14 579.03 972.07 594.67
00003084 00000090 852.44 192.79 351.98 548.79 951.00 380.24 1008.83 401.79 868.36 467.97 918.55 580.67 975.37 595.95
00003085 00000091 852.63 193.34 353.06 548.94 948.53 381.11 1010.04 401.59 869.19 471.08 915.31 586.00 970.13 600.58
00003086 00000092 848.14 192.51 354.88 546.53 945.16 382.22 1010.99 403.79 869.67 471.00 907.76 585.35 964.14 601.21
00003087 00000093 845.79 191.42 351.49 547.09 944.88 381.62 1011.64 406.49 870.01 470.23 903.30 583.49 960.22 602.16
00003088 00000094 846.11 193.77 354.35 543.66 946.71 379.39 1012.30 404.82 870.60 470.32 904.87 583.18 960.08 602.24
00003089 00000095 843.93 195.69 358.03 541.87 942.80 380.59 1013.02 405.13 869.51 470.72 901.17 584.17 959.75 602.54
00003090 00000096 841.91 191.80 363.54 550.59 942.29 382.56 1012.55 404.68 868.57 469.18 900.10 587.11 958.32 603.61
00003091 00000097 843.32 190.45 364.93 558.55 942.28 383.08 1014.61 403.09 868.84 469.80 900.92 592.97 959.55 607.79
00003092 00000098 842.51 194.39 369.59 567.11 942.46 382.30 1018.56 402.82 867.42 472.32 899.15 598.77 959.99 613.93
00003093 00000099 844.73 196.76 364.02 577.55 939.84 384.60 1017.96 405.83 862.98 478.75 899.30 608.17 962.71 623.45
00003094 00000100 844.96 204.06 360.47 574.20 931.29 391.77 1015.35 418.03 861.76 495.39 902.32 613.75 970.29 632.80
00003095 00000101 847.49 214.73 360.93 560.59 925.28 406.82 1009.74 431.77 858.12 513.28 903.23 621.00 969.88 638.65
00003096 00000102 851.35 236.98 365.91 548.86 915.43 416.93 1001.08 440.39 855.68 531.73 905.83 635.89 970.57 651.92
00003097 00000103 847.44 232.57 373.62 562.49 912.01 436.61 1005.69 446.76 858.95 539.55 914.08 651.89 986.16 659.63
00003098 00000104 848.75 226.88 380.26 573.22 916.26 432.49 1004.80 441.32 861.11 533.56 920.83 647.99 991.80 654.09
00003099 00000105 850.12 225.11 375.46 569.07 922.93 416.82 997.19 430.66 860.52 526.62 921.12 630.95 986.21 639.25
00003100 00000106 854.58 215.07 359.61 560.17 932.88 404.60 1009.09 427.44 859.54 510.09 920.81 613.84 987.13 628.94
00003101 00000107 858.86 209.26 352.08 543.78 939.60 400.87 1013.85 420.68 870.78 496.74 917.60 604.96 980.56 618.90
00003102 00000108 860.14 199.89 354.39 543.76 950.86 395.45 1013.36 416.83 873.34 488.25 918.75 598.84 968.65 614.54
00003103 00000109 860.41 193.21 360.73 550.41 954.87 395.20 1023.08 415.74 873.32 480.75 908.45 595.20 962.00 611.64
00003104 00000110 866.25 202.04 348.51 537.20 957.25 398.04 1019.63 416.70 878.23 481.96 919.95 597.23 966.66 611.10
00003105 00000111 874.99 202.65 349.60 547.06 959.00 400.86 1021.05 420.15 881.81 494.09 928.04 606.95 972.80 620.82
00003106 00000112 882.15 210.80 352.65 554.15 964.55 404.22 1024.70 425.13 884.02 507.92 939.59 617.32 980.76 631.92
00003107 00000113 896.59 216.23 363.02 557.51 964.28 403.89 1021.40 417.89 893.51 504.32 951.84 619.60 1002.23 631.99
00003108 00000114 897.80 216.92 363.93 563.81 968.80 403.05 1026.50 418.72 895.11 508.91 957.39 624.64 1010.00 637.99
00003109 00000115 898.86 217.24 363.41 562.42 968.67 403.98 1031.42 418.20 896.86 510.17 957.19 626.19 1010.65 638.11
00003110 00000116 885.70 219.71 367.70 558.86 970.92 401.43 1047.55 426.14 899.03 502.76 945.12 615.83 1004.65 631.68
00003111 00000117 888.77 219.14 363.02 545.95 969.69 396.98 1050.27 425.34 901.03 501.34 942.67 606.71 1006.70 625.99
00003112 00000118 889.26 218.37 362.06 540.02 971.20 393.78 1050.79 423.45 902.09 499.85 941.78 601.90 1004.00 622.49
00003113 00000119 889.54 212.99 362.16 541.71 970.72 393.00 1051.95 422.17 902.17 496.62 940.53 599.85 1004.69 620.45
00003114 00000120 889.88 213.88 362.24 540.62 970.56 390.28 1054.64 419.53 903.30 494.71 939.65 599.13 1005.89 619.71
00003115 00000121 889.86 208.93 363.10 542.63 971.37 388.11 1055.08 417.55 902.42 491.96 938.79 596.77 1004.96 617.71
00003116 00000122 889.82 206.13 360.97 542.44 971.13 387.74 1054.52 415.24 902.37 489.53 937.92 596.36 1002.63 616.12
00003117 00000123 888.90 204.15 362.70 543.64 971.11 386.29 1053.19 414.46 900.62 488.25 937.67 594.69 1001.90 614.84
00003118 00000124 889.73 202.97 361.21 543.09 970.28 385.78 1053.46 413.46 900.91 486.25 938.52 593.29 1004.01 613.12
00003119 00000125 890.66 202.93 360.72 541.15 971.00 384.45 1052.24 412.25 900.41 485.15 939.71 591.78 1004.41 611.63
00003120 00000126 889.46 203.12 361.25 537.07 969.00 384.30 1052.09 408.26 898.26 480.36 936.46 590.04 1003.62 607.16
00003121 00000127 887.93 189.58 365.93 552.13 975.37 378.70 1057.20 403.77 897.25 470.99 934.01 585.07 1004.16 603.15
00003122 00000128 891.17 192.07 363.44 543.63 972.69 374.88 1062.55 395.70 898.10 464.46 934.73 581.13 1012.15 595.99
00003123 00000129 894.81 184.45 369.79 551.20 963.38 372.98 1077.35 391.77 911.11 459.33 938.17 577.06 1031.80 590.82
CROP_BBOX: 592 0 1522 969
