Video ID: 	ybbtRf6I9nU
H: 	1080
W: 	1920
FPS: 	25.0

FRAME INDEX X0 Y0 W H [Landmarks (5 Points)]

00002192 00000000 675.68 224.86 412.42 570.42 815.79 434.76 1000.78 429.50 939.45 540.30 840.46 636.88 1004.06 631.90
00002193 00000001 673.53 214.69 411.54 576.95 811.47 433.35 993.09 427.49 932.43 535.80 839.58 635.73 998.77 629.89
00002194 00000002 672.64 204.89 406.91 576.28 801.11 432.39 990.74 424.27 922.35 530.88 834.76 630.05 1000.69 624.02
00002195 00000003 670.18 196.80 408.14 577.94 798.06 425.29 990.02 419.21 919.48 522.46 832.85 624.69 1000.29 620.20
00002196 00000004 664.88 206.33 409.85 564.72 792.61 429.87 986.02 413.55 924.72 521.63 825.20 626.37 995.45 611.87
00002197 00000005 661.20 217.31 410.03 553.59 788.75 428.93 981.91 412.31 920.88 521.74 821.26 625.50 991.52 610.63
00002198 DELETE   654.60 203.18 410.04 572.97 782.38 432.41 974.93 415.44 913.97 526.41 813.98 629.06 985.12 613.59
00002199 00000007 647.29 205.43 410.53 583.50 777.72 438.56 964.23 424.06 905.41 539.23 807.73 640.33 971.96 627.01
00002200 00000008 640.59 213.63 411.22 587.96 771.77 445.60 960.25 435.75 896.60 553.91 803.74 656.07 959.53 646.19
00002201 00000009 637.58 220.95 409.96 587.45 766.20 450.32 952.96 443.69 886.95 556.53 802.49 663.57 952.60 655.75
00002202 00000010 634.25 221.14 407.42 592.23 760.50 446.36 948.34 442.00 880.69 556.33 797.67 666.09 945.64 660.02
00002203 00000011 629.20 225.91 404.21 584.72 754.42 438.54 944.78 436.27 874.30 552.39 791.91 662.49 936.30 658.35
00002204 00000012 621.95 226.35 405.06 580.80 749.39 433.32 941.04 430.78 870.48 550.44 788.87 660.16 928.91 656.09
00002205 00000013 616.20 227.64 404.43 575.64 743.95 429.38 933.94 424.51 865.46 545.57 780.03 655.68 923.59 650.20
00002206 00000014 612.60 217.38 406.74 581.25 736.16 425.34 926.60 422.64 852.82 539.64 769.76 647.47 917.01 643.78
00002207 00000015 605.75 211.46 409.83 578.50 732.68 419.87 921.01 419.96 846.66 531.70 766.14 636.52 911.07 635.37
00002208 00000016 601.84 219.73 410.23 562.54 727.66 415.92 913.79 414.34 838.84 524.68 760.37 625.15 907.43 622.37
00002209 00000017 596.60 214.11 415.01 564.16 714.97 421.18 906.60 406.13 836.81 518.77 750.27 626.29 912.77 612.04
00002210 00000018 593.18 212.06 412.29 561.43 710.98 418.41 905.09 402.64 833.19 515.08 746.12 625.80 908.35 611.09
00002211 00000019 592.92 199.45 407.64 570.19 707.76 415.60 900.23 398.68 828.15 505.86 746.54 624.79 903.80 609.05
00002212 00000020 590.11 193.01 406.14 573.12 705.17 409.20 896.63 392.96 824.90 497.74 743.64 619.23 895.43 604.05
00002213 00000021 588.33 186.91 404.94 577.30 702.93 400.50 895.23 384.72 821.93 491.11 739.21 613.66 890.87 598.78
00002214 00000022 584.99 166.26 408.12 594.91 702.18 389.31 894.30 383.62 818.17 485.49 733.96 604.25 893.39 598.84
00002215 00000023 580.23 159.98 412.68 597.97 700.33 386.97 892.31 382.98 816.16 484.20 729.32 600.44 890.90 596.28
00002216 00000024 579.13 157.53 413.42 597.25 700.30 384.17 892.33 380.86 816.02 481.96 728.11 598.05 889.30 594.25
00002217 00000025 579.61 158.46 412.51 595.77 699.71 381.99 892.52 379.41 814.90 480.29 726.13 595.84 889.48 592.47
00002218 00000026 578.54 153.81 413.35 599.62 699.85 381.35 892.78 379.86 815.52 479.28 725.64 594.51 889.72 591.92
00002219 00000027 578.38 154.83 409.82 594.78 697.48 386.73 889.36 382.56 811.23 477.78 724.88 593.24 889.99 588.66
00002220 00000028 578.59 150.58 407.09 596.12 697.33 391.52 884.46 387.41 811.00 476.37 726.42 591.63 889.17 587.42
00002221 00000029 576.96 150.94 408.39 593.97 695.32 386.87 885.56 380.78 810.80 475.48 726.67 592.09 889.39 585.58
00002222 00000030 575.59 152.25 409.52 591.72 693.41 382.08 884.52 373.90 811.23 473.01 728.51 592.96 889.15 584.77
00002223 00000031 575.32 147.47 411.30 595.33 695.52 380.86 885.43 374.55 814.15 473.88 731.48 593.04 888.71 586.08
00002224 00000032 574.02 145.87 412.47 595.86 694.25 381.64 885.82 375.98 813.17 475.93 728.67 590.78 890.63 583.85
00002225 00000033 573.77 145.57 414.49 598.38 696.63 381.39 884.80 376.92 814.87 476.53 728.27 586.96 890.36 581.13
00002226 00000034 573.96 145.56 414.84 598.10 698.05 382.43 885.12 378.47 816.05 476.77 728.43 586.21 890.26 580.94
00002227 00000035 574.54 147.65 414.71 595.04 698.57 383.44 887.65 379.89 817.75 476.68 728.91 586.87 892.68 581.90
00002228 00000036 576.71 148.41 413.03 595.98 698.15 383.58 891.15 378.10 819.64 477.58 731.03 592.81 894.83 586.36
00002229 00000037 578.05 147.86 412.91 601.58 701.52 384.92 891.85 377.76 821.95 479.85 738.62 598.64 894.13 591.22
00002230 00000038 579.42 147.71 411.24 609.51 702.83 383.94 892.90 379.87 822.04 480.00 732.64 597.85 893.51 593.38
00002231 00000039 578.61 147.50 411.76 614.86 701.87 383.02 892.68 379.64 820.85 479.53 730.76 598.60 893.24 594.58
00002232 00000040 578.79 149.99 410.89 616.67 701.81 383.79 891.65 380.67 820.27 480.03 729.78 600.03 891.74 596.36
00002233 00000041 576.60 151.10 410.88 613.40 699.88 383.05 889.41 378.11 819.33 480.80 734.16 605.81 886.89 600.61
00002234 00000042 574.20 153.77 412.21 606.18 698.22 383.85 889.42 378.51 819.15 485.22 734.83 604.40 888.31 598.48
00002235 00000043 574.72 149.34 412.70 608.57 699.07 384.37 891.69 379.39 821.22 485.21 733.37 602.20 892.16 596.55
00002236 00000044 576.54 151.37 411.67 601.91 705.24 382.14 893.27 378.87 826.29 481.29 739.42 599.92 889.25 596.15
00002237 00000045 579.56 145.21 410.55 608.53 706.79 382.37 894.27 378.73 828.34 479.79 739.26 597.57 893.66 593.57
00002238 00000046 579.39 145.88 410.97 606.07 706.09 382.64 895.20 378.35 828.77 479.90 736.74 595.10 896.97 590.26
00002239 00000047 578.63 147.89 412.42 600.13 705.03 383.42 896.13 378.97 828.25 478.82 735.37 593.31 898.59 588.12
00002240 00000048 578.15 154.29 413.40 590.30 703.14 385.14 896.98 379.51 827.81 478.92 734.61 592.31 901.28 586.12
00002241 00000049 577.83 155.81 413.09 587.83 703.08 387.85 897.95 381.28 828.54 481.90 734.35 592.87 903.58 586.10
00002242 00000050 578.81 160.27 411.94 584.64 702.76 389.14 897.90 381.99 829.06 482.97 733.73 593.68 904.58 586.61
00002243 00000051 578.68 163.94 412.75 589.16 704.00 389.31 897.17 384.10 828.45 484.78 734.14 597.67 900.77 592.35
00002244 00000052 579.72 169.02 411.14 588.62 704.51 390.24 897.22 385.86 827.81 487.45 734.23 600.33 900.06 595.72
00002245 00000053 581.02 175.88 409.04 579.56 702.83 393.24 896.24 387.86 824.52 490.02 733.61 602.25 898.60 596.91
00002246 00000054 579.38 172.95 410.06 579.76 700.27 395.53 895.07 389.27 821.75 491.58 731.53 602.01 898.97 595.93
00002247 00000055 578.14 174.06 410.25 577.61 697.30 396.72 892.51 389.70 817.57 492.97 728.53 601.87 896.61 595.09
00002248 00000056 577.90 177.95 409.18 575.33 696.20 399.57 891.16 392.93 815.32 497.26 726.22 604.01 894.47 597.64
00002249 00000057 578.07 186.73 407.15 570.33 697.42 406.70 890.38 395.69 815.69 507.76 724.25 606.95 888.64 596.21
00002250 00000058 577.30 179.28 411.40 580.50 695.58 404.07 892.25 398.88 812.38 505.17 722.38 608.50 894.59 603.79
00002251 00000059 580.44 182.20 407.14 581.24 699.96 413.57 895.14 409.93 814.00 510.73 722.51 612.11 894.03 608.99
00002252 00000060 580.48 179.05 405.07 586.41 699.86 421.50 893.02 416.84 813.28 517.57 721.68 614.84 893.72 610.80
00002253 00000061 580.56 188.02 406.46 580.95 698.33 421.25 892.22 414.63 816.14 522.65 721.33 614.81 893.44 607.62
00002254 00000062 580.62 190.44 407.65 580.88 697.42 420.57 893.41 414.74 815.26 525.62 720.32 617.39 893.08 610.80
00002255 00000063 580.08 195.73 407.64 579.24 696.73 421.23 892.85 416.71 813.20 526.39 718.59 619.88 891.01 614.36
00002256 00000064 578.91 204.48 406.95 572.64 693.44 425.42 888.91 419.97 807.51 528.93 718.13 627.63 887.81 621.30
00002257 00000065 579.69 208.31 405.99 571.67 691.49 428.20 885.50 424.51 802.66 536.48 717.64 633.28 884.50 628.33
00002258 00000066 579.49 221.09 404.08 560.55 690.68 429.55 884.82 427.29 802.49 541.74 717.26 638.49 879.12 634.90
00002259 00000067 580.10 222.33 405.70 562.34 691.83 430.13 886.86 426.08 805.58 543.84 720.11 642.73 881.96 637.75
00002260 00000068 581.87 220.22 407.21 564.40 694.99 431.51 889.72 422.97 811.31 540.56 727.80 647.42 886.53 638.39
00002261 00000069 583.90 207.80 408.23 576.36 699.33 431.17 892.58 422.08 818.34 538.82 733.89 646.11 890.92 636.36
00002262 00000070 585.94 204.66 407.96 577.59 703.29 429.95 897.11 421.28 824.80 536.58 733.03 638.39 898.26 629.35
00002263 00000071 585.99 198.01 409.47 579.38 706.26 427.93 899.30 417.06 830.46 530.46 737.15 632.17 902.85 621.38
00002264 00000072 589.02 202.70 406.68 567.09 707.31 424.19 899.12 408.57 831.59 521.39 742.41 629.67 903.90 614.98
00002265 00000073 590.84 201.57 406.97 562.87 709.52 417.51 901.35 401.06 833.74 512.83 749.73 630.36 900.17 614.59
00002266 00000074 594.97 199.42 400.69 559.18 712.09 412.89 904.22 396.25 835.66 505.48 754.09 629.50 898.97 613.60
00002267 00000075 596.59 199.95 399.01 554.02 715.01 408.97 905.93 392.45 839.13 501.55 759.14 627.77 899.24 612.20
00002268 00000076 596.31 196.34 399.33 553.77 714.97 404.35 907.42 388.54 840.02 501.64 759.35 625.99 897.76 611.13
00002269 00000077 592.55 196.25 405.61 563.22 713.71 403.20 907.41 390.08 839.22 504.97 750.62 616.87 903.43 604.46
00002270 00000078 593.58 194.64 403.29 566.25 712.88 403.27 907.06 389.95 838.24 503.37 747.19 615.62 903.92 603.38
00002271 00000079 593.07 189.40 402.60 576.21 715.02 400.42 904.58 385.81 838.65 496.77 752.03 619.08 898.31 605.70
00002272 00000080 592.85 188.92 402.98 577.82 714.05 400.42 903.54 386.62 838.47 495.90 748.37 614.35 899.29 601.77
00002273 00000081 591.56 188.49 404.06 571.64 711.67 402.71 902.45 387.57 838.12 496.19 747.79 611.65 902.07 597.88
00002274 00000082 593.48 197.31 401.49 555.22 710.44 406.59 902.34 390.75 836.66 499.99 746.63 609.83 905.28 595.29
00002275 00000083 592.57 199.85 401.70 552.94 710.92 409.69 902.05 394.42 837.06 504.64 746.83 611.29 905.74 597.12
00002276 00000084 591.89 192.59 402.18 563.75 710.77 412.08 904.18 396.29 837.43 507.70 745.56 614.64 906.93 600.12
00002277 00000085 591.44 199.02 404.40 564.90 711.41 414.03 902.88 398.63 836.43 508.25 746.06 619.90 904.11 605.57
00002278 00000086 592.54 205.01 404.59 560.06 711.30 414.47 904.11 399.23 836.30 512.29 747.94 624.67 904.18 610.23
00002279 00000087 593.48 207.43 407.19 562.81 711.39 414.76 904.86 399.15 835.23 513.10 747.83 624.06 908.40 609.30
00002280 00000088 595.73 202.46 405.51 567.90 712.45 415.33 907.27 399.65 836.32 514.47 748.18 625.68 911.39 611.05
00002281 00000089 595.85 205.66 407.60 567.63 713.43 414.54 906.57 399.69 836.49 513.17 751.21 630.23 906.48 616.32
00002282 00000090 597.20 213.03 409.64 560.74 714.79 415.02 907.62 400.82 837.56 513.92 751.21 628.46 908.26 615.05
00002283 00000091 599.73 210.97 407.22 556.08 715.60 416.54 910.07 401.00 837.95 515.25 753.54 630.74 909.74 616.24
00002284 00000092 600.99 210.35 407.59 554.47 717.71 415.16 912.65 400.76 840.10 514.86 755.51 630.07 910.32 616.44
00002285 00000093 599.08 203.02 413.22 561.04 725.60 406.24 916.49 403.59 839.25 518.68 763.36 618.94 914.28 617.38
00002286 00000094 602.83 198.72 411.73 563.62 728.94 406.09 918.59 403.42 841.87 517.43 765.22 617.56 917.14 615.86
00002287 00000095 605.28 197.12 411.55 563.53 731.39 407.14 920.52 403.77 844.41 516.31 769.46 618.30 918.43 616.10
00002288 00000096 609.32 190.14 412.41 570.07 732.99 407.64 924.14 404.21 846.97 515.20 769.81 617.94 923.49 615.08
00002289 00000097 613.74 182.73 410.17 577.36 736.07 407.95 927.86 405.07 850.68 513.98 771.33 616.77 927.21 614.06
00002290 00000098 616.04 179.01 410.90 581.60 738.00 407.40 931.61 404.38 853.89 513.49 772.43 617.01 930.90 613.81
00002291 00000099 619.12 185.56 410.66 573.80 741.32 407.31 932.90 403.38 857.23 512.82 778.24 618.85 931.98 614.89
00002292 00000100 624.71 200.35 407.23 565.22 748.54 407.99 936.51 401.36 862.00 511.31 783.59 624.28 923.60 617.06
00002293 00000101 625.69 200.12 407.62 566.84 749.93 407.83 938.42 400.57 863.79 510.60 785.63 624.17 926.34 616.32
00002294 00000102 626.42 198.46 409.39 567.66 750.98 406.24 943.16 402.81 865.43 512.80 780.29 617.01 933.00 612.39
00002295 00000103 626.76 197.57 410.51 569.36 751.00 405.92 943.64 402.54 865.89 513.39 779.69 615.81 934.59 611.17
00002296 00000104 627.93 199.12 410.32 574.89 752.21 407.65 941.22 400.62 864.42 511.97 786.26 622.32 927.85 614.59
00002297 00000105 629.71 205.41 411.74 575.37 752.90 408.05 940.57 401.09 864.42 510.26 786.77 624.78 928.68 617.13
00002298 00000106 632.59 203.35 412.51 574.62 755.51 410.26 945.89 402.74 868.97 514.63 788.16 623.08 935.38 614.88
00002299 00000107 634.62 197.87 410.65 575.10 756.89 409.99 950.18 403.88 872.37 516.22 787.09 619.57 942.88 612.32
00002300 00000108 637.92 198.06 409.04 570.96 758.55 411.32 952.19 402.87 874.54 516.04 789.79 620.81 946.44 611.63
00002301 00000109 640.04 206.53 407.62 560.98 760.35 411.43 952.62 402.90 875.68 516.77 793.19 623.14 946.06 614.12
00002302 00000110 642.66 207.70 406.40 559.53 761.42 412.05 955.09 403.26 877.59 516.61 792.70 622.14 950.29 612.94
00002303 00000111 644.36 203.51 406.42 563.58 762.36 412.05 957.42 402.85 879.19 517.07 792.70 621.18 953.15 611.65
00002304 00000112 643.52 203.13 409.68 567.50 764.17 411.77 957.78 401.74 881.60 517.31 794.08 618.30 954.39 608.06
00002305 00000113 644.94 200.55 409.37 570.48 766.03 412.94 959.08 403.12 884.16 516.82 794.17 616.15 957.50 606.17
00002306 00000114 646.74 196.14 409.69 575.34 767.27 414.43 961.36 403.74 886.23 516.08 794.70 616.30 961.47 605.67
00002307 00000115 649.29 190.92 408.44 578.85 768.96 415.07 963.36 404.04 888.35 516.13 797.21 617.33 963.80 606.41
00002308 00000116 651.46 193.32 405.95 573.85 768.87 415.68 965.01 403.44 888.79 516.16 800.26 621.49 964.36 609.72
00002309 00000117 653.37 192.06 404.35 576.32 770.70 416.60 964.59 404.21 890.88 516.29 803.25 624.20 963.31 612.45
00002310 00000118 654.30 193.03 405.75 576.41 772.15 417.25 966.10 404.86 893.16 517.29 806.10 626.71 964.34 614.86
00002311 00000119 656.16 197.94 404.76 571.45 773.99 417.62 967.35 405.13 895.45 516.45 807.88 626.97 966.19 615.09
00002312 00000120 657.39 197.61 404.52 570.83 775.60 417.39 969.24 403.68 898.43 515.78 811.98 630.30 966.91 617.27
00002313 00000121 657.43 197.76 405.45 569.81 776.75 416.36 970.41 403.00 900.50 516.49 813.55 629.81 967.11 616.96
00002314 00000122 657.73 199.67 405.38 567.50 776.58 416.51 971.24 401.73 901.11 515.50 815.31 631.12 969.16 616.94
00002315 00000123 658.20 201.56 404.63 563.20 777.33 415.63 971.07 400.22 902.20 513.76 817.84 632.02 967.49 617.26
00002316 00000124 659.24 202.62 402.80 560.94 777.83 421.77 968.19 404.91 901.85 512.25 817.63 632.11 966.69 616.10
00002317 00000125 661.06 196.33 400.17 566.46 778.86 427.17 966.31 408.84 901.52 509.77 818.13 631.34 967.94 614.33
00002318 00000126 658.91 202.33 403.55 563.65 777.59 423.06 966.56 405.02 901.52 509.59 816.95 631.36 967.23 614.58
00002319 00000127 657.89 206.83 403.99 560.72 777.76 421.13 966.75 404.19 900.65 508.46 815.28 629.83 966.14 614.08
00002320 00000128 656.34 201.04 403.65 567.94 776.93 420.12 966.98 404.23 899.64 509.46 812.52 627.50 966.82 612.68
00002321 00000129 652.99 202.70 406.14 567.68 773.94 418.79 964.89 403.58 895.84 510.79 808.17 625.29 963.91 611.02
00002322 00000130 651.24 202.23 405.19 568.48 771.78 417.34 962.93 403.68 891.41 509.07 804.29 623.75 960.50 610.91
00002323 00000131 649.78 199.20 403.61 569.97 768.80 416.00 961.04 403.69 886.89 509.88 800.64 622.85 956.78 610.98
00002324 00000132 645.69 200.61 406.05 569.72 765.40 415.42 956.92 404.54 882.06 512.02 797.28 624.08 951.08 613.32
00002325 00000133 643.21 203.33 407.19 567.84 762.59 415.76 952.57 405.65 877.06 514.77 794.76 623.95 947.29 613.65
00002326 00000134 641.28 210.89 408.25 559.49 760.87 415.98 950.03 408.56 872.88 516.02 792.91 623.65 941.84 615.53
00002327 00000135 640.79 209.53 407.23 561.35 758.68 417.47 949.39 411.05 870.46 517.23 790.46 625.85 940.60 618.54
00002328 00000136 639.44 193.69 407.33 579.18 756.28 419.48 948.90 412.06 869.71 519.86 790.66 629.95 941.06 621.45
00002329 00000137 638.45 198.42 407.60 575.99 755.67 420.73 947.79 413.26 869.13 522.79 791.19 631.58 939.35 622.96
00002330 00000138 637.19 202.08 406.77 574.31 754.98 422.03 946.24 414.33 868.06 523.21 790.46 633.30 936.42 624.52
00002331 00000139 636.66 207.79 405.74 569.78 753.33 422.94 944.53 415.60 866.56 524.84 789.94 635.75 934.06 627.32
00002332 00000140 633.90 211.84 407.23 568.97 752.24 423.40 942.09 416.06 864.72 525.70 789.47 637.64 932.03 629.15
00002333 00000141 633.15 213.85 405.85 567.38 751.42 423.59 940.13 417.28 863.37 527.90 788.69 640.21 929.15 632.76
00002334 00000142 632.96 209.89 404.01 572.67 749.78 423.75 938.73 418.30 861.13 530.05 786.74 641.36 927.48 634.64
00002335 00000143 632.05 215.15 404.96 567.62 748.93 424.75 937.37 419.25 859.36 530.77 784.84 641.20 925.97 634.60
00002336 00000144 631.69 223.64 404.03 558.76 746.35 426.04 934.92 420.75 854.92 530.98 782.35 641.89 924.28 635.64
00002337 00000145 629.66 223.82 404.07 559.48 743.97 426.49 932.33 421.13 852.06 531.30 780.23 642.72 920.97 636.68
00002338 00000146 628.07 226.67 404.44 556.66 740.83 425.04 931.15 420.12 848.93 532.37 777.09 643.41 918.38 637.81
00002339 00000147 627.52 227.59 403.35 558.23 739.64 425.85 931.09 421.84 847.69 534.24 774.94 645.04 917.91 640.39
00002340 00000148 627.13 229.46 402.43 556.82 738.24 426.84 930.07 423.30 845.47 535.89 774.19 646.43 916.92 642.36
00002341 00000149 625.57 231.44 403.47 557.09 738.16 424.91 929.53 422.25 845.58 534.55 774.22 646.52 916.50 643.18
00002342 00000150 623.42 230.29 403.65 559.53 736.95 423.91 928.10 421.61 844.88 534.60 772.12 645.97 913.92 643.05
00002343 00000151 621.25 228.04 405.10 566.25 736.66 422.61 926.25 420.84 845.71 533.92 773.98 646.12 911.06 643.68
00002344 00000152 618.85 231.27 407.40 567.78 734.41 422.41 925.01 422.59 842.55 534.49 766.70 641.97 913.71 640.95
00002345 00000153 617.42 232.66 407.42 567.30 733.73 423.00 923.43 423.50 842.23 535.67 764.86 639.90 915.87 639.07
00002346 00000154 615.95 233.14 407.33 566.00 734.57 423.35 923.20 424.29 843.88 536.64 764.60 638.66 916.70 638.21
00002347 00000155 614.63 229.94 408.03 569.98 736.27 429.44 922.92 428.27 846.33 536.67 765.89 637.93 920.58 635.57
00002348 00000156 616.12 226.17 405.63 572.77 742.63 440.93 924.77 437.82 854.60 540.38 768.38 637.76 926.96 634.32
00002349 00000157 614.69 229.27 407.97 566.70 742.31 438.84 928.49 434.03 857.40 541.48 769.21 637.41 930.22 632.62
00002350 00000158 611.86 230.13 407.06 562.91 735.12 435.57 923.33 432.73 848.76 542.50 761.96 636.32 922.14 633.16
00002351 DELETE   600.32 228.77 409.44 566.08 714.62 442.00 906.30 433.69 831.01 547.49 739.87 639.38 914.16 630.83
00002352 00000160 590.45 227.57 412.21 568.23 701.31 442.09 893.01 435.60 814.31 549.81 726.83 640.69 900.92 633.48
00002353 00000161 585.45 231.20 410.78 562.78 696.67 444.07 887.25 435.73 808.73 552.05 722.41 639.65 897.95 631.02
00002354 00000162 587.25 225.63 410.63 567.51 702.67 446.59 892.48 436.15 819.92 552.20 730.25 641.92 904.46 631.47
00002355 00000163 591.08 236.03 410.37 560.56 712.42 447.05 900.79 437.00 833.03 553.75 739.60 643.71 910.65 633.92
00002356 00000164 595.21 228.56 406.78 568.03 716.36 450.90 904.96 437.03 839.12 554.09 746.01 645.70 917.08 632.74
00002357 00000165 595.30 229.83 407.17 568.35 719.05 452.86 908.70 437.16 843.76 558.46 749.51 649.24 919.52 635.18
00002358 00000166 595.45 231.35 408.55 566.90 721.53 452.79 911.84 437.24 847.73 559.36 752.49 650.99 920.52 637.11
00002359 00000167 599.40 222.57 405.09 575.14 725.77 451.18 914.99 436.17 852.15 559.76 758.38 653.22 921.65 639.88
00002360 00000168 599.88 226.59 404.70 571.72 726.17 449.67 916.10 434.55 853.87 557.43 760.43 653.65 922.85 640.28
00002361 00000169 600.36 229.77 405.01 568.72 727.27 449.62 916.34 434.17 854.95 555.83 760.29 651.64 924.49 638.26
00002362 00000170 599.48 227.86 405.72 568.84 726.14 449.68 915.96 434.56 853.76 556.27 757.56 650.40 924.56 637.31
