Video ID: 	RJQx23ZqwCM
H: 	1080
W: 	1920
FPS: 	25.0

FRAME INDEX X0 Y0 W H [Landmarks (5 Points)]

00007753 00000000 719.96 151.23 514.91 743.65 874.04 419.04 1111.59 420.36 1013.19 525.26 896.30 683.00 1104.25 682.18
00007754 00000001 733.67 142.97 511.46 752.71 880.34 418.55 1109.92 418.45 1002.89 528.93 902.42 680.49 1104.24 678.65
00007755 00000002 737.80 148.90 506.10 740.22 883.10 418.98 1108.41 418.55 1002.86 531.08 890.15 675.56 1100.89 675.26
00007756 00000003 739.01 154.50 502.69 732.43 870.99 423.27 1113.11 427.27 999.55 536.88 885.47 685.14 1097.78 686.58
00007757 00000004 734.04 159.28 501.66 730.70 865.41 437.68 1102.72 438.72 991.92 550.03 880.59 694.50 1089.92 693.95
00007758 00000005 721.95 166.19 503.34 730.67 855.89 452.68 1089.48 446.64 976.18 559.13 869.29 696.91 1081.18 691.74
00007759 DELETE   713.22 168.73 509.43 732.90 849.12 456.90 1080.44 448.65 969.00 560.29 864.28 698.94 1075.39 692.13
00007760 00000007 706.36 163.17 512.33 738.50 839.00 455.19 1067.93 443.73 958.09 560.36 857.02 696.82 1069.38 687.41
00007761 00000008 706.85 161.61 507.94 736.07 837.58 451.18 1063.38 436.95 956.45 555.97 859.36 692.91 1068.25 681.02
00007762 00000009 704.93 159.29 510.88 738.52 835.44 448.55 1064.40 433.04 956.52 553.48 859.52 693.67 1070.01 680.70
00007763 00000010 704.95 158.26 514.44 741.17 834.02 449.53 1064.03 431.87 955.71 555.60 864.04 699.60 1069.93 684.92
00007764 00000011 706.09 159.01 514.24 739.87 831.16 452.97 1061.17 430.69 953.53 560.04 868.47 704.62 1071.83 686.23
00007765 00000012 708.70 158.48 514.75 740.21 831.44 452.82 1063.59 428.68 953.62 559.96 870.85 705.76 1074.88 685.92
00007766 00000013 709.75 156.16 517.18 737.15 830.93 450.46 1066.74 423.63 955.14 555.57 873.48 703.49 1079.26 681.46
00007767 00000014 710.16 152.80 521.23 734.63 833.89 449.74 1073.03 420.95 961.80 552.83 880.94 701.17 1088.28 677.46
00007768 00000015 713.47 152.80 525.30 727.15 842.28 450.22 1081.15 418.51 973.66 545.42 893.20 702.31 1099.58 673.80
00007769 00000016 715.15 153.45 528.51 720.60 846.69 449.83 1084.87 415.77 979.84 541.25 900.56 700.54 1105.54 669.65
00007770 00000017 721.35 154.73 528.11 712.57 848.71 448.64 1090.46 414.46 983.92 540.85 903.54 698.07 1112.52 666.68
00007771 00000018 726.37 157.74 523.11 711.77 850.92 449.09 1093.43 417.64 984.24 541.03 902.78 699.39 1110.82 670.48
00007772 00000019 731.09 157.49 520.44 729.68 854.01 454.02 1088.72 422.73 974.08 545.08 888.86 700.03 1102.07 673.29
00007773 00000020 734.44 162.56 518.42 740.30 856.24 454.97 1085.27 427.13 969.91 550.07 890.00 708.26 1093.73 684.53
00007774 00000021 735.74 168.11 517.70 738.49 861.13 447.39 1085.32 429.40 967.59 551.70 893.18 708.89 1080.01 693.01
00007775 00000022 741.55 157.85 512.02 753.73 861.92 444.93 1084.45 422.76 967.93 542.02 890.52 707.27 1084.79 689.07
00007776 00000023 742.49 152.75 512.27 758.07 862.41 439.21 1089.21 419.28 969.79 539.84 883.80 700.62 1090.64 684.00
00007777 00000024 742.51 152.79 513.75 756.53 866.87 435.37 1095.96 421.98 976.10 545.59 886.99 698.81 1094.80 686.47
00007778 00000025 745.85 155.56 513.10 759.80 879.36 439.72 1097.97 432.76 981.15 543.03 899.64 703.13 1082.80 697.24
00007779 00000026 749.41 165.00 521.41 774.82 896.23 455.42 1117.16 455.19 995.77 553.62 910.22 713.69 1095.55 712.43
00007780 00000027 753.04 167.56 529.13 780.42 902.58 467.98 1123.15 467.24 1003.85 569.00 912.85 721.40 1100.12 719.57
00007781 00000028 764.55 181.07 517.17 751.68 904.30 463.23 1126.98 463.57 1007.19 575.84 918.18 718.78 1107.00 719.67
00007782 00000029 772.25 179.18 513.75 749.15 913.80 457.95 1131.02 457.99 1016.14 572.09 932.52 718.36 1110.06 719.40
00007783 00000030 776.31 179.75 514.12 741.94 919.51 450.85 1139.99 452.28 1024.10 563.49 940.13 716.79 1113.77 718.79
00007784 00000031 777.27 176.47 513.29 746.03 921.32 451.40 1140.98 446.32 1028.17 564.75 941.13 721.45 1118.08 717.75
00007785 00000032 778.15 177.73 512.96 745.67 921.99 449.13 1141.97 445.96 1029.07 565.31 939.56 719.33 1119.08 717.20
00007786 00000033 779.77 175.59 511.62 743.89 920.06 449.62 1144.55 446.15 1030.29 569.35 935.86 715.71 1126.92 713.06
00007787 00000034 779.72 174.35 509.59 743.84 918.06 447.55 1145.90 444.23 1030.52 567.85 929.53 709.32 1135.15 706.11
00007788 00000035 779.37 174.38 510.16 742.44 917.62 443.21 1143.43 441.40 1028.19 564.21 929.34 706.15 1131.61 704.32
00007789 00000036 777.72 174.86 514.02 749.98 923.50 440.46 1137.35 440.31 1025.82 554.33 939.33 707.44 1118.37 707.58
00007790 00000037 778.74 179.99 511.31 755.01 923.50 437.38 1142.64 442.40 1030.16 552.09 937.74 706.76 1123.55 711.43
00007791 00000038 778.45 182.91 512.19 754.05 923.49 439.34 1144.26 444.57 1031.32 553.70 936.40 709.36 1126.47 714.04
00007792 00000039 779.89 183.38 509.82 744.45 921.31 441.62 1144.30 446.03 1030.07 559.48 934.60 708.35 1126.60 712.67
00007793 00000040 779.38 184.52 508.11 738.08 919.65 443.50 1142.08 446.76 1027.34 562.83 933.53 704.41 1126.36 707.80
00007794 00000041 774.96 178.88 509.78 737.61 916.00 443.26 1138.02 444.89 1023.01 558.33 934.30 701.77 1121.27 703.87
00007795 00000042 769.12 177.56 512.56 735.70 911.52 441.27 1134.33 441.28 1019.20 554.20 933.57 699.57 1115.46 700.20
00007796 00000043 764.97 176.36 513.05 732.04 905.63 442.42 1130.18 439.80 1014.91 552.58 930.51 700.16 1112.72 698.57
00007797 00000044 763.85 177.77 514.47 730.18 902.81 442.81 1129.02 439.31 1012.83 554.09 928.48 703.19 1109.95 700.93
00007798 00000045 767.11 169.55 505.08 745.63 896.75 447.50 1126.92 441.03 1015.89 561.82 917.78 710.26 1117.86 704.74
00007799 00000046 766.17 168.11 505.11 745.02 895.50 447.93 1125.87 442.06 1015.34 564.40 915.75 709.37 1116.70 704.17
00007800 00000047 762.37 175.96 512.18 732.02 898.71 447.15 1126.27 444.76 1012.17 564.50 918.53 703.84 1117.40 702.14
00007801 00000048 759.89 175.65 517.68 738.95 900.08 448.91 1125.06 445.22 1010.11 564.01 925.62 708.70 1107.60 706.37
00007802 00000049 759.44 168.88 508.86 761.18 891.48 458.70 1119.80 452.81 1010.98 570.31 910.89 722.41 1110.03 716.83
00007803 00000050 757.74 167.80 507.77 757.68 889.31 463.88 1117.94 456.31 1008.16 573.96 906.99 720.54 1110.60 713.39
00007804 00000051 752.47 166.93 507.12 754.34 887.23 462.79 1112.43 457.51 1002.80 576.37 901.50 720.27 1101.01 715.84
00007805 00000052 752.33 170.94 505.52 749.27 887.95 463.37 1103.59 458.40 997.13 574.57 906.81 721.79 1086.94 718.34
00007806 00000053 751.24 171.07 505.48 749.94 885.01 464.07 1101.10 459.05 993.58 577.43 904.24 722.21 1084.10 718.69
00007807 00000054 749.00 169.34 508.32 753.54 882.13 464.73 1100.25 459.35 989.57 577.66 901.07 722.60 1084.77 718.55
00007808 00000055 747.65 170.65 509.32 752.43 880.11 465.23 1098.31 458.46 987.38 577.94 902.21 724.44 1084.04 719.24
00007809 00000056 746.30 170.47 509.03 754.37 877.50 467.27 1095.54 459.14 985.09 580.70 901.00 727.50 1082.50 721.19
00007810 00000057 746.49 169.99 510.36 760.89 874.05 469.73 1095.65 460.59 982.87 582.67 895.88 731.71 1086.42 724.33
00007811 00000058 746.16 173.59 509.61 759.97 873.09 472.80 1094.15 463.76 981.47 585.86 893.56 733.67 1087.52 726.30
00007812 00000059 745.64 175.63 509.87 758.52 872.24 474.81 1092.86 465.64 980.07 587.76 892.43 734.87 1086.29 727.31
00007813 00000060 745.16 175.18 509.77 758.40 870.80 474.61 1093.28 465.17 979.45 588.87 890.72 733.42 1088.29 725.36
00007814 00000061 745.00 174.47 509.16 756.21 871.87 474.29 1094.14 465.57 980.66 588.55 890.38 731.44 1088.00 723.82
00007815 00000062 744.18 175.62 507.17 754.49 869.74 473.12 1092.49 464.39 978.59 588.41 886.95 730.50 1086.17 722.89
00007816 00000063 742.55 172.65 505.32 756.76 867.90 469.08 1091.41 461.99 976.32 585.57 882.44 727.71 1081.39 721.62
00007817 00000064 738.94 171.78 506.37 755.66 863.93 466.92 1086.64 457.90 971.15 582.49 883.28 728.19 1077.95 720.58
00007818 00000065 735.62 167.66 506.89 761.92 859.72 466.57 1083.73 458.08 966.69 585.50 878.09 729.28 1075.09 722.13
00007819 00000066 732.66 174.79 506.11 760.50 856.86 473.45 1078.71 465.52 962.80 596.35 873.36 734.71 1069.09 728.41
00007820 00000067 729.51 183.32 511.20 762.24 855.68 481.59 1073.40 471.37 957.33 601.04 879.96 745.87 1061.96 738.23
00007821 00000068 729.69 191.93 513.39 768.11 860.08 484.88 1079.37 478.22 962.42 611.98 883.00 756.63 1060.28 751.42
00007822 00000069 729.61 192.96 511.44 772.20 864.10 487.99 1082.18 481.56 969.66 617.29 886.23 760.34 1063.90 755.51
00007823 00000070 730.03 192.85 511.57 772.39 864.53 490.95 1084.11 484.69 971.10 620.92 886.27 762.10 1066.32 757.31
00007824 00000071 728.68 193.13 510.88 776.90 863.42 492.65 1082.72 486.02 971.00 623.19 883.47 764.57 1067.25 759.43
00007825 00000072 728.20 192.98 511.39 793.84 860.06 492.69 1079.34 484.57 968.52 624.89 875.73 770.14 1070.24 763.71
00007826 00000073 729.04 191.21 510.92 784.11 859.62 495.06 1080.75 488.04 967.31 626.75 874.86 766.57 1066.16 761.20
00007827 00000074 729.66 186.43 507.93 774.66 859.01 495.81 1085.25 490.45 969.22 618.43 877.33 760.50 1074.62 755.66
00007828 00000075 730.54 183.39 509.58 773.86 862.01 494.47 1087.64 490.61 972.51 617.90 879.14 755.99 1077.38 752.13
00007829 00000076 730.29 184.29 508.90 768.35 862.81 494.98 1087.79 490.24 973.51 616.65 881.36 756.12 1076.12 751.67
00007830 00000077 728.05 188.19 511.03 765.58 860.40 497.07 1087.21 489.64 973.43 619.45 883.40 762.03 1075.69 755.55
00007831 00000078 725.12 193.34 509.01 764.05 859.14 502.07 1084.98 492.41 973.79 626.47 884.05 765.68 1075.77 757.55
00007832 00000079 726.29 206.44 508.83 760.63 862.20 507.61 1084.46 500.24 973.60 637.60 881.77 768.45 1072.65 762.17
00007833 00000080 723.37 204.83 509.97 759.95 858.20 506.66 1082.37 500.18 969.15 638.44 876.07 766.02 1070.14 760.51
00007834 00000081 723.63 196.76 507.66 759.81 851.29 501.98 1080.00 492.78 963.33 630.15 869.18 760.86 1072.15 753.66
00007835 00000082 724.39 192.72 506.67 761.92 851.61 499.08 1078.54 488.69 962.23 625.81 869.25 757.66 1072.22 749.54
00007836 00000083 723.16 192.70 507.70 760.89 849.32 500.11 1078.70 488.68 960.68 625.92 866.94 757.26 1072.84 748.10
00007837 00000084 719.04 194.96 510.25 759.39 845.09 501.94 1075.86 490.83 956.59 628.84 863.45 758.71 1070.53 749.69
00007838 00000085 719.46 195.93 508.86 758.77 845.83 504.66 1076.68 493.94 957.57 631.54 863.41 759.80 1070.80 751.08
00007839 00000086 717.04 194.52 511.96 760.00 849.04 505.14 1075.00 494.61 961.50 629.52 872.67 762.61 1069.35 753.30
00007840 00000087 724.23 194.53 506.68 757.92 848.66 501.48 1078.98 489.65 961.10 627.82 867.05 759.25 1075.01 749.88
00007841 00000088 724.41 190.67 508.76 756.84 850.81 497.28 1083.11 486.24 964.13 623.49 865.64 753.41 1077.36 744.60
00007842 00000089 726.73 188.35 509.19 756.31 853.51 492.37 1083.57 483.88 963.21 617.89 864.80 748.34 1074.11 741.80
00007843 00000090 728.47 186.66 510.81 758.04 850.67 487.73 1079.49 481.14 954.12 612.83 861.17 744.87 1067.15 740.03
00007844 00000091 725.56 198.44 522.45 768.77 847.78 483.06 1068.84 483.17 935.25 610.45 859.98 756.65 1040.82 758.08
00007845 00000092 724.24 199.49 525.30 774.06 843.04 478.87 1064.08 486.46 922.13 609.01 846.24 754.48 1025.36 762.46
00007846 00000093 725.37 192.98 528.35 769.82 842.46 472.47 1068.12 483.54 919.15 605.25 838.76 743.54 1027.28 754.43
00007847 00000094 732.44 182.22 522.46 760.19 847.32 462.54 1076.95 472.20 930.65 592.52 845.18 728.63 1037.00 738.09
00007848 DELETE   742.81 168.82 509.84 762.40 860.72 457.78 1085.17 464.46 951.00 579.59 858.45 717.77 1059.73 724.53
00007849 00000096 745.85 167.96 510.82 759.15 870.08 459.62 1100.48 462.66 971.70 577.54 870.82 717.23 1077.85 720.00
00007850 00000097 750.10 165.38 508.39 757.16 879.69 462.68 1105.36 463.41 985.78 578.81 884.44 718.16 1088.21 718.91
00007851 00000098 756.97 166.22 503.38 758.63 883.39 463.07 1111.30 465.95 994.03 581.81 889.00 718.13 1095.17 719.76
00007852 00000099 757.04 163.92 504.71 756.50 884.11 462.03 1113.12 463.79 995.76 580.69 890.11 715.28 1098.00 715.91
00007853 00000100 756.66 164.43 502.07 755.32 882.61 460.95 1110.58 463.26 992.53 578.68 887.06 714.30 1093.67 715.53
00007854 00000101 749.47 164.79 505.54 750.33 877.11 458.14 1104.04 458.90 984.68 576.27 882.26 712.43 1087.02 713.07
00007855 00000102 744.92 165.59 507.11 751.78 870.76 459.90 1100.16 460.15 977.75 577.98 875.09 713.51 1083.76 713.58
00007856 00000103 741.92 170.82 504.49 753.03 865.21 462.57 1092.55 461.77 971.65 581.35 869.92 718.29 1077.49 717.72
00007857 00000104 739.11 173.63 504.04 755.85 860.85 467.51 1086.61 465.52 967.14 588.42 866.15 723.44 1073.70 722.11
00007858 00000105 736.98 176.22 502.55 752.81 857.53 469.43 1083.97 467.37 964.14 591.98 863.03 724.65 1071.27 723.41
00007859 00000106 735.20 177.16 503.08 755.13 857.49 470.71 1083.25 467.38 964.35 593.47 864.64 726.27 1073.23 723.74
00007860 00000107 735.64 178.92 506.08 757.70 860.48 470.67 1080.93 466.65 964.13 593.70 872.43 730.83 1067.94 727.96
00007861 00000108 736.72 169.97 514.37 787.78 861.88 468.74 1083.17 467.89 963.76 592.43 887.43 733.70 1069.81 732.39
00007862 00000109 738.25 166.69 517.36 800.41 863.71 463.85 1084.90 465.66 960.06 583.06 886.03 737.26 1066.99 738.31
00007863 00000110 736.56 160.55 522.21 796.93 860.59 455.61 1082.08 459.43 948.58 567.50 877.06 726.82 1058.43 730.31
00007864 00000111 736.12 171.48 513.10 763.25 859.74 448.30 1078.93 456.11 943.24 555.27 864.75 714.13 1043.48 722.39
00007865 DELETE   738.11 169.42 511.08 746.98 871.13 445.61 1093.13 455.22 965.74 559.10 867.75 702.96 1058.79 712.02
00007866 DELETE   746.16 170.90 505.60 744.38 885.30 447.63 1106.19 455.67 988.36 562.05 884.13 703.73 1079.71 711.02
00007867 DELETE   756.60 169.56 502.86 750.33 902.98 450.56 1127.12 455.99 1021.17 563.63 908.66 706.24 1111.47 710.27
00007868 00000115 761.24 173.49 500.24 737.00 914.83 451.72 1143.04 450.91 1044.11 562.02 923.98 702.79 1131.52 701.87
00007869 00000116 760.51 171.39 503.67 726.73 919.37 446.47 1147.88 446.57 1053.19 555.70 933.05 693.67 1140.31 693.36
00007870 00000117 759.25 170.98 497.48 710.91 913.15 440.84 1143.20 441.00 1044.77 548.55 926.80 685.50 1133.71 685.53
00007871 DELETE   754.71 164.66 494.53 711.32 901.29 431.78 1131.22 432.72 1028.46 545.56 913.56 680.98 1121.71 681.58
00007872 00000119 749.16 161.08 495.90 711.11 889.35 429.29 1120.12 432.41 1008.70 540.52 894.33 675.81 1104.62 678.44
00007873 00000120 747.37 163.43 495.20 707.73 877.35 429.87 1104.93 429.57 987.28 536.68 883.41 674.71 1090.64 674.72
00007874 00000121 744.15 160.93 494.61 710.25 863.67 432.03 1092.37 426.78 970.54 536.65 872.27 677.82 1078.01 673.83
00007875 00000122 740.81 162.31 493.41 710.26 856.24 436.28 1085.79 428.77 962.66 541.64 868.72 684.58 1072.56 678.80
00007876 00000123 734.62 166.43 496.84 717.31 853.82 436.27 1089.43 434.89 971.75 546.80 868.93 694.70 1073.44 692.57
00007877 00000124 731.16 168.34 502.91 737.32 858.05 437.24 1080.36 432.63 964.10 552.46 874.44 701.22 1069.98 697.10
00007878 00000125 727.70 168.44 505.62 748.37 856.76 439.08 1080.68 433.34 965.80 555.39 870.53 706.50 1074.06 701.37
00007879 00000126 728.18 170.18 505.01 743.05 856.12 444.68 1083.54 438.07 967.76 559.23 870.20 705.66 1077.71 699.55
00007880 00000127 729.95 169.96 503.27 742.96 857.16 446.37 1084.92 440.39 967.76 562.28 871.57 705.30 1077.55 699.62
00007881 00000128 733.80 171.13 501.98 747.79 857.25 448.90 1085.75 442.39 967.88 567.34 869.89 709.14 1078.97 702.99
00007882 00000129 737.38 170.28 504.24 750.76 865.58 456.26 1090.21 450.67 973.67 569.25 877.54 716.73 1077.75 711.82
00007883 00000130 742.28 165.97 502.99 768.40 868.65 472.99 1092.95 465.32 976.74 577.54 878.46 725.02 1084.72 717.88
00007884 00000131 743.04 171.16 500.19 752.74 874.24 467.61 1098.70 463.83 986.31 581.96 881.87 720.49 1089.19 716.86
CROP_BBOX: 380 0 1599 1080
