Video ID: 	4vJfXNkRtGc
H: 	1080
W: 	1920
FPS: 	29.97002997002997

FRAME INDEX X0 Y0 W H [Landmarks (5 Points)]

00011019 00000000 567.68 127.72 406.18 585.67 718.23 372.00 875.58 329.97 852.09 429.99 784.79 577.03 909.08 541.13
00011020 DELETE   559.54 126.58 407.40 582.69 711.50 366.65 869.60 327.23 844.00 425.87 777.04 571.75 899.82 537.57
00011021 00000002 555.22 125.27 400.81 579.03 703.93 363.37 859.95 322.46 836.03 424.92 771.18 568.16 891.41 532.97
00011022 00000003 548.26 121.60 400.82 577.31 697.49 361.35 853.92 319.25 829.88 424.79 766.00 564.98 885.46 528.62
00011023 00000004 541.53 117.97 405.16 583.43 692.95 361.51 849.46 320.40 823.79 424.74 761.52 563.14 882.80 527.36
00011024 00000005 539.71 117.70 405.09 584.31 689.75 362.50 846.58 320.57 818.80 426.01 757.78 562.57 880.25 526.17
00011025 00000006 539.55 122.61 403.95 580.15 687.03 364.12 844.85 321.16 815.62 427.53 756.43 564.65 879.74 527.48
00011026 00000007 540.84 128.06 404.15 575.35 686.75 366.99 846.53 322.28 816.46 433.54 757.63 570.16 882.51 531.55
00011027 00000008 542.73 130.26 403.02 577.88 690.27 373.01 847.09 328.54 819.16 440.55 759.63 574.56 883.01 536.55
00011028 00000009 543.41 128.44 402.44 599.25 692.63 379.28 843.83 335.15 821.13 446.88 760.59 584.41 882.17 546.85
00011029 00000010 544.01 132.60 406.72 616.57 697.99 388.16 849.98 346.22 828.70 459.12 761.93 599.84 887.10 564.40
00011030 DELETE   550.09 143.83 408.20 616.08 706.39 396.74 859.42 359.76 835.91 470.20 765.79 608.40 893.72 577.71
00011031 DELETE   555.44 147.20 412.43 627.61 718.35 404.44 874.44 368.42 854.90 478.99 776.23 619.43 908.01 589.17
00011032 DELETE   564.91 153.23 406.94 628.76 728.25 411.76 882.39 374.78 867.00 484.40 784.41 627.11 917.88 596.13
00011033 00000014 570.89 151.56 404.95 627.61 734.70 414.59 888.11 375.37 875.18 482.87 792.77 627.58 925.94 595.06
00011034 DELETE   576.73 147.38 400.35 616.60 740.26 412.50 891.39 374.35 881.55 476.41 798.31 618.91 929.58 587.53
00011035 00000016 581.37 141.62 396.70 603.84 746.06 404.85 893.97 366.44 887.03 464.72 802.42 604.42 931.88 572.88
00011036 00000017 581.49 132.68 400.55 606.04 749.63 396.92 896.02 355.13 892.75 453.46 808.84 596.20 936.93 561.73
00011037 DELETE   585.69 130.12 401.16 592.81 755.90 391.43 898.54 342.95 899.29 443.15 820.65 587.84 944.12 547.76
00011038 00000019 597.20 130.26 397.87 579.25 763.64 382.33 908.02 342.02 900.78 440.72 837.05 576.91 951.36 543.80
00011039 DELETE   606.52 129.77 395.01 573.39 771.79 377.37 914.39 338.14 908.22 437.22 847.59 573.57 958.60 540.37
00011040 00000021 609.08 136.94 397.85 564.23 778.43 374.58 919.55 340.57 912.60 436.70 853.93 571.95 961.52 542.70
00011041 00000022 616.56 135.17 397.13 564.10 786.25 375.98 928.70 342.48 920.55 438.08 859.03 572.80 967.95 543.51
00011042 00000023 623.47 134.68 397.11 570.39 794.83 382.62 938.95 348.19 931.90 443.46 867.26 579.85 979.09 549.69
00011043 DELETE   629.25 134.53 392.57 578.29 805.10 388.79 945.61 356.57 943.30 452.93 870.64 586.27 982.04 558.43
00011044 00000025 632.94 141.38 393.32 579.27 818.12 395.60 957.59 365.43 958.57 461.96 874.38 592.49 990.45 567.06
00011045 DELETE   643.76 140.41 390.01 584.78 831.95 402.41 971.37 369.53 975.33 467.77 885.33 599.12 1001.94 572.06
00011046 DELETE   650.73 145.64 386.89 584.36 843.03 407.52 981.57 372.09 990.52 473.71 895.35 604.76 1011.52 575.56
00011047 00000028 662.64 147.26 379.44 590.74 854.77 409.43 993.29 375.00 1003.37 479.85 902.32 609.30 1020.44 581.18
00011048 00000029 669.56 155.02 377.29 598.71 862.02 409.21 996.49 381.89 1008.06 481.08 903.94 613.30 1023.00 590.90
00011049 00000030 665.51 157.64 383.51 607.77 860.58 412.36 993.35 387.21 1004.67 487.55 898.10 619.17 1017.19 599.00
00011050 00000031 660.59 152.41 385.46 608.44 851.88 412.68 992.69 388.36 995.33 490.66 892.86 621.19 1013.84 601.48
00011051 00000032 660.51 149.87 381.64 603.76 844.43 413.72 990.19 387.93 987.19 489.39 887.81 620.17 1012.03 599.32
00011052 00000033 658.14 151.25 384.24 604.69 838.39 415.02 986.78 390.10 980.64 488.56 884.57 621.75 1009.81 601.50
00011053 00000034 660.60 159.30 383.44 607.41 840.90 417.96 977.66 389.20 976.75 503.40 893.92 626.96 1007.68 603.86
00011054 00000035 663.49 169.88 383.02 604.17 847.08 427.28 985.76 395.26 982.45 518.26 903.32 637.64 1016.60 611.49
00011055 00000036 668.00 169.88 386.37 611.65 851.11 436.76 989.03 406.64 982.32 525.84 908.00 647.25 1019.61 621.92
00011056 00000037 670.96 176.48 383.43 616.17 851.48 440.12 990.96 411.13 982.22 530.81 906.23 654.01 1018.47 629.68
00011057 00000038 664.01 172.93 385.38 616.59 844.50 439.95 987.74 409.90 976.70 529.25 899.90 650.36 1014.79 625.73
00011058 00000039 660.84 167.42 381.18 618.44 838.57 433.20 982.11 404.36 970.63 526.24 891.96 646.12 1006.94 623.08
00011059 00000040 650.61 171.25 390.51 607.06 832.91 429.50 977.00 403.92 971.89 508.14 880.76 639.71 994.02 618.60
00011060 00000041 648.64 172.78 391.89 605.90 830.25 428.97 974.25 404.04 968.61 507.41 878.59 639.80 991.50 618.85
00011061 00000042 649.07 173.08 392.63 608.60 830.16 431.44 973.69 405.92 968.68 508.12 878.84 640.78 993.03 619.34
00011062 00000043 654.39 176.85 393.03 609.17 834.39 434.36 980.35 407.35 973.01 513.96 881.05 645.41 998.54 622.99
00011063 00000044 662.13 176.83 384.59 613.98 832.61 441.73 983.90 411.40 970.00 532.42 889.02 652.15 1011.16 627.38
00011064 00000045 663.91 180.35 389.03 616.55 840.16 446.93 989.59 417.02 976.13 538.00 894.14 655.61 1016.46 630.80
00011065 00000046 671.30 185.04 392.27 617.85 860.87 447.44 993.09 425.66 987.84 538.21 909.45 657.87 1010.02 639.68
00011066 00000047 681.19 184.72 388.01 617.76 870.42 450.17 1002.13 426.81 997.12 537.57 920.87 660.53 1017.10 640.71
00011067 00000048 685.14 184.52 386.16 613.03 874.47 449.46 1006.81 425.33 1000.67 536.80 924.92 658.01 1019.32 637.53
00011068 00000049 686.31 183.64 386.49 611.57 875.28 446.72 1009.05 423.17 1001.77 534.46 925.22 655.75 1021.08 635.58
00011069 00000050 686.17 181.33 387.82 615.87 873.16 443.13 1008.68 422.00 999.97 529.28 922.49 653.94 1021.43 635.56
00011070 00000051 685.09 176.79 387.96 620.04 870.45 439.24 1007.76 419.12 998.28 525.09 922.23 652.33 1021.40 634.62
00011071 00000052 679.02 177.06 391.35 619.46 864.12 432.84 1003.52 414.86 993.68 519.80 915.03 647.93 1017.23 632.05
00011072 00000053 675.49 177.20 384.32 609.17 855.03 433.56 997.17 408.24 984.39 526.86 903.99 647.19 1018.95 625.86
00011073 00000054 671.96 170.75 384.53 606.97 853.36 427.02 991.10 401.06 983.12 520.49 902.89 638.98 1016.97 617.26
00011074 00000055 670.76 163.82 384.34 601.15 851.26 420.51 987.09 394.92 981.41 511.13 902.03 628.17 1015.46 606.89
00011075 00000056 671.27 156.49 383.61 602.25 847.19 417.18 983.10 389.83 977.50 505.71 900.33 621.50 1014.68 598.73
00011076 00000057 672.89 151.43 378.77 595.20 841.75 417.05 979.53 387.01 972.84 499.82 898.34 612.88 1012.90 588.37
00011077 00000058 667.01 149.22 383.29 596.12 837.41 418.54 985.99 387.74 976.74 486.63 884.38 613.21 1011.86 587.92
00011078 00000059 661.74 147.41 383.57 601.78 831.14 415.71 982.24 388.32 968.82 486.84 875.98 614.08 1004.38 591.58
00011079 00000060 656.31 147.12 384.45 608.39 826.75 417.01 975.93 392.12 960.62 489.93 869.11 618.06 995.68 597.44
00011080 00000061 651.34 145.83 386.44 610.58 822.16 418.84 972.53 392.69 956.44 494.04 865.49 619.70 992.49 597.60
00011081 00000062 649.60 143.75 386.23 605.61 820.17 416.46 969.80 392.21 953.86 489.51 864.56 614.90 990.47 594.20
00011082 00000063 647.01 140.50 385.32 603.66 815.99 411.76 966.31 385.00 952.20 482.44 863.86 608.42 990.61 585.50
00011083 00000064 646.66 141.65 384.38 593.66 814.83 408.38 963.55 380.79 950.52 478.49 863.23 601.85 988.37 578.00
00011084 00000065 642.02 139.69 387.01 598.65 812.65 406.90 959.96 379.72 947.70 478.08 862.33 602.77 985.08 579.00
00011085 00000066 637.80 140.09 389.54 606.30 809.85 410.64 956.91 384.19 945.61 481.51 859.10 608.33 981.40 585.40
00011086 00000067 636.68 140.88 388.54 614.59 809.53 413.62 955.91 389.22 944.43 489.07 857.66 615.42 979.57 594.24
00011087 00000068 637.04 142.51 388.18 616.32 809.42 416.40 955.86 390.45 943.47 494.17 857.99 620.33 979.50 598.01
00011088 00000069 635.83 141.42 386.04 614.44 808.94 412.70 952.89 388.03 941.68 490.26 856.25 616.23 974.63 595.10
00011089 00000070 634.33 142.76 386.32 606.33 806.22 405.38 947.62 381.66 936.65 483.24 853.37 608.31 969.26 588.11
00011090 00000071 636.74 140.76 384.21 602.55 802.47 400.46 944.71 373.64 932.89 477.05 852.59 602.68 968.70 580.19
00011091 00000072 636.58 133.88 383.74 607.92 802.82 398.09 944.05 370.55 933.70 473.08 853.44 600.25 968.89 577.27
00011092 00000073 636.30 133.37 384.19 608.98 805.03 395.87 945.53 369.52 936.00 471.91 853.97 599.01 969.45 576.62
00011093 00000074 636.16 135.78 384.90 609.83 809.97 395.19 949.96 373.19 941.95 472.10 855.84 599.10 972.98 579.98
00011094 00000075 638.80 137.90 384.45 610.46 817.16 395.42 956.58 377.06 949.32 472.78 859.62 600.57 977.59 584.83
00011095 00000076 643.82 138.88 382.86 618.18 825.81 394.79 967.81 377.77 961.92 472.53 863.63 604.09 986.71 589.55
00011096 00000077 657.31 135.88 374.61 623.00 837.00 392.83 981.06 376.95 977.26 472.52 869.17 603.47 997.20 590.27
00011097 DELETE   664.31 140.82 374.70 620.77 847.98 391.88 989.13 378.71 989.33 471.49 877.79 603.44 1006.05 592.75
00011098 DELETE   672.27 141.44 373.53 619.86 860.85 393.09 993.01 381.23 998.92 472.43 889.85 604.30 1010.04 594.74
00011099 00000080 673.25 141.21 374.81 620.99 862.76 391.02 994.53 379.95 1000.76 470.66 892.68 604.06 1011.54 595.14
00011100 00000081 669.27 136.82 377.46 627.57 854.52 388.24 993.77 377.95 995.11 467.27 884.85 603.75 1010.38 595.51
00011101 00000082 662.92 130.35 380.81 635.54 844.52 384.13 988.11 373.28 985.29 463.62 877.09 603.11 1004.75 594.18
00011102 00000083 659.16 123.43 378.82 636.13 837.56 380.01 982.64 369.96 976.40 458.38 872.62 599.01 998.93 590.56
00011103 00000084 656.99 115.69 382.51 634.77 833.35 373.59 979.52 360.17 972.68 450.90 872.69 592.79 998.91 581.65
00011104 00000085 654.12 114.57 386.64 632.80 828.88 363.85 978.89 348.95 970.40 443.84 871.57 586.88 1000.37 574.01
00011105 00000086 651.97 113.71 387.26 626.91 829.67 358.34 977.02 343.79 972.16 438.58 873.39 580.72 1000.06 568.04
00011106 00000087 650.65 113.64 389.67 626.04 829.77 356.00 976.80 340.75 972.81 435.49 874.05 578.88 1000.01 565.60
00011107 00000088 651.06 113.63 390.19 624.73 829.90 355.20 977.39 339.47 973.07 434.73 873.31 577.24 1000.15 563.58
00011108 00000089 651.68 112.30 390.23 627.75 830.74 353.98 978.39 339.02 973.87 433.49 872.86 577.14 1000.62 564.08
00011109 00000090 651.26 114.11 390.02 624.54 830.86 351.75 979.43 338.60 974.56 432.06 873.32 575.90 1000.88 564.32
00011110 00000091 651.52 111.07 388.91 625.20 830.69 351.47 978.14 338.16 973.72 431.23 874.34 575.08 999.68 563.43
00011111 00000092 651.29 110.88 389.48 623.72 829.82 351.48 978.14 337.51 972.88 430.34 873.95 574.03 999.92 561.64
00011112 00000093 649.80 111.22 389.62 621.85 828.53 350.41 976.80 336.68 971.38 429.08 872.66 572.81 998.42 560.63
00011113 00000094 648.08 112.34 390.65 617.74 826.62 350.60 974.97 335.72 969.55 428.01 872.18 572.47 996.79 559.42
00011114 00000095 649.32 110.81 388.96 615.32 827.51 349.47 973.66 335.37 969.31 425.03 873.57 569.39 995.89 557.10
00011115 00000096 649.05 110.47 389.60 610.49 828.73 347.40 973.07 333.54 970.48 419.55 875.19 565.05 996.55 553.15
00011116 00000097 651.74 104.22 384.52 606.24 827.21 345.77 970.44 332.34 966.52 414.00 873.12 556.95 993.39 545.45
00011117 00000098 651.92 97.58 384.65 607.92 825.07 343.59 971.49 332.39 963.65 410.04 868.24 550.77 992.36 540.69
00011118 00000099 652.96 89.17 384.14 615.84 824.73 342.23 976.86 333.27 962.93 407.71 859.28 540.77 1000.36 532.40
00011119 00000100 656.40 90.52 382.38 607.73 827.48 337.22 978.91 329.09 964.35 405.44 855.91 533.23 997.91 525.91
00011120 00000101 655.16 90.54 385.86 607.71 829.83 335.03 978.41 327.21 966.30 403.85 851.84 526.99 996.38 520.28
00011121 00000102 653.28 92.20 391.37 604.77 831.19 332.55 978.62 325.95 968.43 401.52 848.07 521.90 994.72 516.82
00011122 00000103 655.44 90.68 390.95 604.33 831.49 331.78 979.75 324.30 968.55 400.31 845.61 519.22 994.57 513.66
00011123 00000104 655.89 91.50 390.66 597.85 831.95 330.64 979.15 323.13 968.13 397.92 845.83 515.21 993.73 509.72
00011124 00000105 656.56 91.21 389.67 593.52 831.81 329.26 979.04 320.66 969.16 396.32 848.92 514.43 994.91 508.00
00011125 00000106 657.92 89.15 387.87 596.19 832.17 328.67 980.00 319.05 971.19 394.94 855.80 517.67 998.67 510.24
00011126 00000107 658.94 89.46 386.31 604.41 834.46 328.85 981.65 320.95 973.74 395.73 862.97 526.15 1002.24 519.74
00011127 00000108 659.27 91.07 386.51 613.04 836.57 329.10 983.91 324.92 977.39 397.90 863.36 530.86 1004.12 527.35
00011128 00000109 660.64 95.75 389.64 612.64 839.13 330.25 986.29 326.37 980.75 398.01 864.85 532.83 1006.75 529.75
00011129 00000110 663.77 94.21 390.09 614.73 844.18 330.51 990.67 329.23 985.54 399.31 867.94 533.08 1008.84 532.21
00011130 00000111 671.60 99.44 377.40 603.95 845.34 324.45 983.46 320.07 981.48 402.61 879.45 529.48 1006.42 525.50
00011131 00000112 675.96 91.96 374.09 605.30 852.76 329.66 989.73 323.70 985.45 404.86 887.27 529.05 1012.01 523.27
00011132 00000113 682.87 89.41 374.61 581.54 864.10 332.05 995.07 322.76 989.32 404.51 904.97 521.58 1018.72 513.12
00011133 00000114 689.92 88.19 376.17 579.67 864.26 331.19 1005.07 320.91 994.54 401.19 912.78 521.54 1031.36 511.28
00011134 00000115 694.56 85.59 379.84 577.90 867.58 330.15 1012.57 317.61 1003.64 395.51 921.43 520.11 1043.15 507.69
00011135 00000116 700.14 88.48 378.91 569.23 872.74 333.04 1020.06 319.79 1010.10 392.60 926.83 520.02 1049.54 507.02
00011136 00000117 704.62 91.88 380.90 565.82 878.57 336.20 1027.00 319.32 1017.30 392.89 931.40 520.86 1057.74 505.06
00011137 00000118 711.61 91.02 382.31 571.08 886.15 340.05 1034.20 322.44 1026.17 396.11 935.65 523.34 1064.83 507.28
00011138 DELETE   723.65 94.15 375.40 562.62 898.38 343.22 1046.78 323.49 1037.10 403.10 944.45 526.80 1070.75 509.77
00011139 DELETE   736.83 92.67 372.04 567.40 913.42 348.34 1057.24 330.55 1052.70 409.20 955.92 530.06 1081.43 515.05
00011140 00000121 747.67 109.18 369.69 560.54 920.67 347.87 1057.36 327.86 1050.81 417.39 971.41 534.52 1086.75 518.14
00011141 00000122 750.46 124.51 373.06 552.20 926.47 355.36 1063.97 337.09 1060.25 428.25 978.52 544.41 1093.98 528.79
00011142 00000123 758.41 128.90 379.57 565.60 942.20 354.12 1075.51 348.11 1070.06 432.85 988.47 550.82 1091.78 545.94
00011143 00000124 763.83 121.25 376.96 591.97 944.03 356.53 1080.64 351.01 1073.77 437.03 992.31 562.49 1096.64 557.00
00011144 00000125 768.15 121.30 373.91 594.07 948.27 363.27 1084.69 359.82 1079.88 441.92 995.28 565.60 1100.12 561.50
00011145 00000126 775.11 124.72 372.70 584.01 954.32 365.63 1091.99 360.05 1087.21 443.59 1003.81 565.68 1109.31 559.67
00011146 00000127 782.10 125.43 368.91 572.03 958.68 366.43 1098.25 357.88 1092.88 443.08 1010.13 564.75 1115.10 556.91
00011147 00000128 784.14 126.17 368.00 567.14 961.04 367.20 1099.97 357.97 1094.42 444.34 1013.05 564.62 1116.22 556.58
00011148 00000129 781.24 124.80 371.10 577.76 955.99 366.35 1096.85 357.35 1090.42 442.60 1007.60 565.35 1114.81 556.90
00011149 00000130 776.57 126.10 371.76 580.54 953.73 365.40 1091.71 359.90 1086.29 444.94 1004.55 567.58 1107.91 561.98
00011150 00000131 772.72 125.26 370.49 578.43 951.89 367.75 1088.36 362.41 1083.35 446.63 1002.59 566.85 1103.12 561.77
00011151 00000132 772.27 123.05 369.47 578.01 949.70 367.95 1087.51 360.10 1081.17 445.81 1002.41 566.75 1102.67 559.83
00011152 00000133 771.26 125.29 370.23 569.03 946.79 365.13 1085.48 357.01 1076.58 441.07 1000.77 561.52 1101.60 554.51
00011153 00000134 760.83 125.26 373.51 557.66 936.16 369.84 1083.42 357.39 1064.16 449.86 986.19 559.21 1102.43 546.94
00011154 00000135 751.35 130.52 378.43 551.72 927.77 362.26 1069.01 345.20 1056.97 435.76 978.10 550.37 1095.05 535.61
CROP_BBOX: 285 0 1390 1008
