Video ID: 	08a0356cztg
H: 	1080
W: 	1920
FPS: 	29.97002997002997

FRAME INDEX X0 Y0 W H [Landmarks (5 Points)]

00001391 00000000 580.31 139.43 401.16 626.30 710.61 388.44 895.30 392.93 816.43 520.02 728.97 614.39 878.12 616.18
00001392 DELETE   578.79 138.62 402.90 624.86 708.85 388.26 892.53 392.12 815.10 517.34 728.03 611.99 876.67 613.16
00001393 00000002 576.89 138.86 404.74 614.34 701.23 387.99 888.67 391.21 809.87 512.23 723.34 608.38 873.43 609.28
00001394 00000003 575.29 138.60 405.17 610.61 699.37 385.85 886.43 388.76 809.35 507.92 721.57 603.76 872.27 604.69
00001395 00000004 576.45 137.54 404.20 607.59 698.87 383.51 886.27 386.22 807.97 504.84 720.57 599.68 872.42 600.61
00001396 00000005 577.60 137.10 402.66 608.13 700.77 380.83 886.66 385.26 808.70 501.11 721.21 597.09 872.00 599.42
00001397 00000006 579.35 135.02 400.73 609.11 702.39 374.42 886.36 380.48 808.39 498.21 722.11 594.39 867.50 598.05
00001398 00000007 580.15 135.90 398.34 605.54 702.23 369.72 887.90 376.71 809.92 493.93 720.74 590.75 867.16 595.48
00001399 DELETE   582.34 132.48 394.92 599.70 699.77 365.72 885.83 373.25 805.87 488.32 717.49 583.92 865.18 589.43
00001400 DELETE   582.16 126.49 394.23 600.64 699.23 360.46 884.99 370.80 804.16 481.37 715.74 577.15 861.74 584.83
00001401 00000010 581.50 125.29 395.14 604.93 699.59 355.72 886.88 365.88 806.14 476.30 715.71 574.64 863.83 582.22
00001402 00000011 581.01 124.05 395.50 609.11 701.18 353.39 886.72 363.96 806.78 475.76 715.63 573.83 862.42 581.55
00001403 00000012 580.86 125.10 395.16 608.30 703.09 351.10 886.70 362.21 806.75 476.56 715.91 572.26 859.57 580.51
00001404 00000013 581.99 126.11 394.01 606.68 704.13 350.81 889.28 362.20 809.30 476.75 716.47 571.65 862.90 580.10
00001405 00000014 581.55 125.18 394.11 607.87 704.10 352.20 889.39 361.69 811.21 476.78 717.97 571.75 865.54 578.59
00001406 00000015 581.39 124.15 394.11 609.49 704.96 353.96 889.83 361.58 814.25 477.43 720.23 573.25 868.41 578.57
00001407 00000016 580.63 124.60 393.55 610.83 706.30 352.50 890.30 359.80 815.58 477.25 721.63 573.98 868.74 578.90
00001408 00000017 579.51 125.93 393.07 609.18 705.31 353.50 889.18 360.07 816.08 477.65 721.42 573.42 869.44 577.79
00001409 00000018 578.54 125.81 394.26 611.51 705.33 354.58 888.12 360.69 816.16 477.39 720.48 573.33 869.81 577.30
00001410 00000019 577.79 124.42 394.57 614.87 704.93 354.91 886.95 360.14 815.15 477.62 720.04 574.03 869.55 577.09
00001411 00000020 577.00 123.06 396.29 616.89 704.00 356.16 885.70 359.79 815.27 478.15 719.78 573.38 870.10 575.18
00001412 00000021 577.19 123.19 394.94 618.64 703.54 357.57 884.40 362.31 813.00 479.40 717.88 573.87 868.51 576.55
00001413 00000022 575.78 123.46 395.95 617.35 701.15 360.10 883.43 365.23 811.03 480.64 715.59 574.11 867.68 577.23
00001414 00000023 575.37 126.40 396.34 613.97 700.73 361.65 881.36 368.24 807.71 483.98 711.73 571.70 865.80 576.22
00001415 00000024 575.34 129.03 396.61 611.56 701.68 363.57 881.31 371.70 807.57 485.42 712.12 573.53 865.61 579.30
00001416 00000025 575.43 127.40 396.36 613.93 702.55 364.10 881.55 372.44 808.08 486.15 712.87 575.01 865.33 580.87
00001417 00000026 575.38 127.07 396.57 614.45 702.29 363.75 881.78 372.53 807.85 485.92 712.12 574.07 865.34 580.32
00001418 00000027 575.84 127.68 395.51 613.00 701.96 363.32 882.33 372.22 807.54 485.31 711.41 574.04 865.35 580.45
00001419 00000028 575.82 127.83 395.38 610.34 699.50 364.49 880.48 372.02 805.35 485.75 711.05 573.34 865.38 578.66
00001420 00000029 575.69 127.26 395.26 611.02 698.63 362.95 880.64 370.64 804.25 485.27 710.11 573.29 864.08 578.76
00001421 00000030 575.61 126.85 395.07 610.00 697.34 362.81 879.27 370.58 802.13 485.56 708.29 572.19 862.22 577.84
00001422 00000031 575.41 126.24 394.98 609.57 695.41 362.85 879.05 369.89 800.85 485.84 707.78 571.21 863.99 576.16
00001423 00000032 574.43 126.89 395.93 608.74 694.33 362.40 878.63 369.90 799.69 486.17 706.36 570.84 862.89 576.21
00001424 00000033 572.64 126.50 397.10 609.00 693.09 362.68 877.75 369.73 798.86 486.07 705.52 570.84 861.62 575.79
00001425 00000034 571.61 126.36 398.41 608.58 692.06 362.87 876.89 369.27 798.43 486.30 706.13 572.15 860.77 576.46
00001426 00000035 570.85 126.02 398.76 608.03 690.46 363.25 875.66 370.14 796.00 485.02 705.30 573.52 858.94 578.25
00001427 00000036 571.72 124.51 396.93 605.02 689.69 368.06 875.47 374.38 794.98 486.12 706.51 575.97 861.42 580.12
00001428 DELETE   566.01 123.00 398.65 606.91 688.84 375.43 875.18 380.87 790.53 490.20 702.44 574.21 866.70 577.84
00001429 DELETE   572.76 125.90 394.14 606.72 691.68 375.96 868.67 382.64 791.64 487.25 707.01 577.33 858.78 581.69
00001430 00000039 569.72 129.40 396.77 611.78 693.82 374.26 863.83 381.96 791.10 487.88 705.24 576.95 850.44 582.44
00001431 00000040 569.42 130.21 397.85 613.90 692.93 370.31 866.53 378.66 791.35 488.82 703.61 577.60 850.24 583.56
00001432 00000041 569.57 129.67 399.06 613.81 691.69 367.31 869.71 375.93 791.60 488.62 703.20 577.64 852.13 583.68
00001433 00000042 571.26 127.84 398.64 609.79 689.70 363.63 873.70 371.49 792.61 487.23 703.51 574.96 855.16 580.44
00001434 00000043 572.22 126.28 398.28 609.10 689.46 360.85 876.16 368.25 793.27 485.02 704.88 574.14 856.95 579.25
00001435 00000044 572.27 126.39 399.40 608.06 690.09 361.01 876.28 369.47 793.04 485.37 704.22 572.64 857.00 578.54
00001436 00000045 572.15 127.57 399.81 608.08 690.33 361.27 876.57 369.91 792.97 485.30 703.57 572.94 857.06 579.06
00001437 00000046 573.08 127.86 398.62 606.73 690.50 361.99 875.42 370.60 792.28 484.54 703.93 573.96 855.07 580.09
00001438 00000047 573.63 130.31 398.36 605.96 690.24 362.40 873.79 372.01 789.86 487.45 702.53 575.48 852.06 582.52
00001439 00000048 572.51 129.80 399.37 607.69 690.74 361.58 872.71 373.06 788.15 488.50 700.29 574.84 848.48 583.50
00001440 00000049 572.68 130.55 399.91 606.58 688.92 359.83 873.40 370.76 786.87 486.69 700.18 575.85 848.48 583.97
00001441 00000050 572.28 127.02 400.87 607.35 687.42 358.23 874.30 368.97 786.55 485.19 700.62 574.86 849.71 582.79
00001442 00000051 573.32 125.35 399.87 606.18 688.35 355.21 874.67 365.48 787.34 480.20 702.77 572.11 849.28 579.64
00001443 00000052 573.06 126.13 399.99 601.52 686.47 354.85 874.68 365.20 785.02 477.14 700.74 570.56 849.58 578.24
00001444 00000053 571.75 125.58 401.78 602.58 685.55 353.71 874.02 364.91 783.79 479.60 699.10 568.99 848.31 577.40
00001445 00000054 573.40 126.23 398.63 599.90 685.06 356.27 871.40 366.81 782.17 482.87 699.56 571.74 846.53 579.77
00001446 00000055 573.19 125.53 397.40 601.68 683.28 357.36 870.59 368.83 779.15 484.78 697.12 574.04 844.14 582.86
00001447 00000056 572.58 126.60 398.33 603.18 682.61 358.02 869.62 370.20 777.91 485.63 696.18 576.12 842.46 585.47
00001448 00000057 571.28 127.39 399.98 609.14 683.47 355.32 868.73 367.34 777.81 484.85 696.22 575.08 841.09 584.10
00001449 00000058 570.42 129.09 399.63 609.50 683.87 351.03 868.79 364.42 775.28 481.16 696.19 574.19 838.29 584.11
00001450 00000059 569.79 128.19 401.17 609.14 680.18 350.29 865.09 363.23 770.66 480.34 693.19 571.11 834.48 580.81
00001451 00000060 569.67 128.07 399.77 605.29 677.53 349.40 864.22 363.05 767.03 477.02 689.18 570.57 832.21 581.15
00001452 00000061 571.06 128.10 397.30 597.14 675.31 349.41 863.71 363.52 763.51 476.89 686.15 570.40 830.20 581.70
00001453 00000062 571.69 130.04 396.62 594.75 675.07 348.72 862.31 364.68 761.02 476.53 684.78 569.17 827.02 582.16
00001454 00000063 571.87 131.59 396.15 597.24 675.46 349.08 861.94 366.09 760.32 478.40 683.81 571.25 824.78 585.18
00001455 00000064 573.40 131.69 396.29 596.03 676.31 349.43 862.92 367.25 759.92 479.28 684.45 572.60 823.47 587.24
00001456 00000065 574.78 130.36 395.21 593.78 676.67 348.25 864.68 366.86 760.68 477.18 684.18 570.29 824.88 585.54
00001457 00000066 574.80 129.94 396.52 594.92 677.11 347.89 865.00 365.19 761.10 474.84 686.43 570.67 826.01 584.86
00001458 00000067 572.77 130.25 399.57 597.48 678.12 344.88 865.76 366.12 759.97 471.66 681.12 566.23 821.88 583.75
00001459 00000068 572.35 129.70 401.22 598.56 678.84 343.23 867.35 364.77 761.22 470.64 681.80 563.75 823.53 581.33
00001460 00000069 572.26 131.43 401.51 599.34 679.12 340.06 868.64 363.11 760.97 470.08 679.64 561.25 824.60 579.89
00001461 00000070 573.29 131.71 400.44 598.25 679.01 338.37 869.52 363.27 759.41 467.87 676.49 558.95 825.75 579.09
00001462 00000071 572.78 131.73 401.11 600.50 679.01 337.14 869.49 361.84 759.10 466.05 676.33 558.01 825.93 577.86
00001463 00000072 573.18 132.81 401.04 600.46 679.76 336.57 869.54 360.72 759.50 465.34 677.07 557.80 825.97 577.18
00001464 00000073 574.53 127.82 401.09 602.22 680.78 336.46 870.68 360.81 760.34 464.03 676.79 553.47 828.61 573.02
00001465 00000074 575.22 130.25 401.87 599.57 681.68 334.24 871.75 359.43 760.38 462.32 675.98 550.65 828.99 570.88
00001466 00000075 576.22 128.42 402.69 600.65 683.25 332.64 873.77 357.36 762.54 461.41 677.67 549.42 829.93 569.32
00001467 00000076 577.15 127.71 404.23 600.29 684.87 332.03 874.93 357.18 764.40 460.67 676.97 545.93 832.21 566.44
00001468 00000077 577.68 122.88 405.72 603.58 684.75 332.55 874.19 357.21 764.36 458.05 678.27 545.80 831.99 565.84
00001469 00000078 579.27 121.58 404.89 598.40 685.07 331.93 874.46 356.96 762.40 455.08 679.03 545.12 828.65 565.52
00001470 00000079 580.97 120.91 403.90 596.17 686.09 330.60 873.66 355.09 762.79 451.41 680.14 542.94 829.67 562.90
00001471 00000080 581.09 121.82 405.11 593.18 685.96 328.99 874.08 353.01 762.45 449.38 681.74 540.98 830.86 560.34
00001472 00000081 581.87 117.34 404.31 594.41 685.78 329.45 875.61 352.26 763.59 448.69 684.46 542.99 832.09 561.34
00001473 00000082 583.66 118.49 403.53 589.67 686.38 328.21 875.78 351.56 762.61 448.80 683.52 539.65 830.91 558.61
00001474 00000083 585.57 118.37 403.49 590.88 687.63 326.82 877.96 351.80 763.51 449.86 683.18 539.45 831.77 559.86
00001475 00000084 587.48 118.67 402.97 593.14 689.57 326.79 879.16 353.14 764.47 450.25 685.01 540.01 834.42 561.29
00001476 00000085 587.43 119.67 404.28 593.59 690.95 326.84 879.51 353.43 765.61 449.94 687.21 542.30 833.36 563.93
00001477 00000086 587.23 118.73 406.76 595.78 691.88 325.78 883.47 355.75 765.05 449.17 682.17 539.57 836.39 564.13
00001478 00000087 587.11 117.79 409.35 597.11 692.89 325.72 883.89 355.33 766.97 449.62 684.96 540.21 838.08 564.29
00001479 00000088 587.17 113.11 410.08 597.75 693.99 322.38 884.78 353.58 767.63 446.91 684.88 534.12 840.41 559.41
00001480 00000089 588.43 112.51 407.94 595.63 693.45 320.75 884.64 353.14 766.04 444.99 683.74 531.15 840.34 557.49
00001481 00000090 589.69 112.26 406.73 592.66 694.44 319.67 885.56 352.60 766.64 444.30 683.33 529.21 839.90 556.30
00001482 00000091 589.13 111.20 407.10 592.52 694.47 319.63 885.46 352.93 767.09 444.62 683.44 528.44 839.52 555.92
00001483 00000092 585.36 106.10 409.38 596.38 696.25 316.02 882.49 352.33 764.81 437.92 681.43 525.66 841.70 556.00
00001484 00000093 586.77 111.41 408.74 590.85 694.50 317.55 884.27 352.60 766.66 442.02 681.71 524.40 838.50 553.39
00001485 00000094 584.20 104.33 410.26 595.48 695.43 315.43 881.96 350.93 764.48 435.45 681.69 523.71 843.14 553.34
00001486 00000095 585.33 103.72 409.80 596.89 696.64 315.20 882.28 350.40 765.82 436.65 683.67 524.39 844.33 553.80
00001487 00000096 586.48 104.15 409.39 595.31 696.66 315.18 883.15 350.74 765.19 438.01 683.20 523.69 845.31 553.50
00001488 00000097 591.67 108.10 406.48 595.15 696.00 316.40 885.61 350.62 766.51 442.04 686.54 527.37 838.64 555.63
00001489 00000098 591.68 108.40 407.32 596.39 698.14 315.94 887.24 350.94 768.04 442.50 688.46 528.96 838.24 557.59
00001490 00000099 592.97 110.10 406.67 594.70 699.53 316.74 887.97 352.64 768.51 443.94 689.00 529.87 837.53 559.22
00001491 00000100 594.74 109.19 406.77 597.08 700.27 319.18 889.06 352.82 770.85 443.94 691.28 533.09 840.73 560.37
00001492 00000101 592.76 105.57 407.34 599.34 700.18 320.49 886.44 353.32 768.70 442.24 690.54 533.56 846.69 561.40
00001493 00000102 592.09 106.04 407.15 593.24 699.66 321.14 887.07 353.81 768.76 441.15 689.80 532.06 846.56 559.93
00001494 00000103 592.42 105.89 407.85 592.52 700.32 321.72 887.74 353.97 769.48 441.32 691.25 532.76 847.30 560.29
00001495 00000104 593.43 104.72 408.56 598.59 703.22 320.54 889.99 355.65 771.94 443.01 690.95 530.37 851.23 559.99
00001496 DELETE   594.85 107.16 407.25 596.42 710.85 328.68 889.05 364.94 776.44 444.51 696.34 530.48 849.45 561.03
CROP_BBOX: 319 0 1262 900
