Video ID: 	WD7wVOpXy48
H: 	1080
W: 	1920
FPS: 	25.0

FRAME INDEX X0 Y0 W H [Landmarks (5 Points)]

00003550 00000000 400.36 151.04 435.24 625.26 573.21 381.57 763.07 404.07 691.55 518.15 567.79 611.98 724.34 629.88
00003551 DELETE   398.58 148.65 430.86 626.06 570.87 378.80 758.52 401.17 689.76 516.56 567.29 610.46 721.11 628.19
00003552 00000002 393.90 149.62 430.22 623.21 568.61 377.74 756.41 399.34 688.59 514.91 565.47 608.10 719.39 625.32
00003553 00000003 391.69 150.11 429.95 622.23 567.25 378.57 753.80 399.65 686.66 515.05 566.12 608.05 718.59 624.84
00003554 DELETE   389.28 152.31 430.04 618.12 564.96 379.00 752.96 399.75 685.95 515.36 565.67 607.96 718.64 624.70
00003555 DELETE   388.13 156.72 430.01 613.15 567.14 379.53 750.96 401.04 685.80 517.96 565.22 607.91 715.06 625.66
00003556 DELETE   387.63 158.73 429.42 611.31 566.25 379.35 749.51 402.15 683.81 518.61 562.75 606.73 713.43 625.59
00003557 00000007 386.59 158.20 429.58 612.10 564.48 379.76 748.18 403.49 681.72 517.85 560.92 604.45 713.79 623.96
00003558 00000008 384.85 159.18 429.12 608.55 563.10 378.01 745.95 403.91 678.30 515.03 555.92 599.88 709.34 621.35
00003559 00000009 384.35 156.28 427.04 609.85 561.17 374.24 744.21 401.60 675.46 511.43 552.07 597.45 705.10 620.04
00003560 00000010 385.43 153.35 424.04 611.98 559.32 371.08 742.53 399.43 673.68 507.31 547.57 595.18 702.26 618.51
00003561 00000011 385.17 152.23 422.29 612.91 558.47 369.93 741.43 399.68 672.87 506.66 543.96 593.40 700.00 617.92
00003562 00000012 384.60 153.64 421.21 609.05 558.64 369.27 741.80 399.13 674.21 505.37 545.82 591.92 701.64 616.41
00003563 00000013 385.59 153.58 420.82 606.06 565.05 367.93 744.55 398.07 680.96 505.83 553.76 590.97 703.46 615.46
00003564 00000014 388.16 151.75 417.93 602.46 572.19 365.16 748.03 395.04 689.16 500.17 563.33 588.74 705.86 612.88
00003565 00000015 392.21 153.77 414.75 599.21 577.62 363.55 752.70 393.62 694.12 498.08 571.44 587.47 710.09 611.42
00003566 00000016 394.92 152.22 412.20 598.94 582.78 364.19 756.34 394.26 700.15 499.06 577.68 590.55 710.82 614.51
00003567 00000017 395.74 155.51 411.87 594.31 585.66 365.21 758.12 395.25 702.52 500.23 581.83 592.42 711.75 616.34
00003568 00000018 397.68 156.67 409.66 593.57 587.01 366.27 758.08 396.75 703.96 500.28 583.96 593.34 712.35 617.61
00003569 00000019 398.06 156.63 408.93 595.13 588.05 367.20 757.87 396.38 705.36 500.72 585.23 594.58 712.76 617.83
00003570 00000020 398.04 157.31 409.18 597.61 587.07 367.56 758.41 395.56 707.48 501.58 585.03 595.54 716.92 617.79
00003571 00000021 397.28 157.67 410.71 598.40 587.66 367.37 758.37 393.90 707.53 502.48 584.06 593.64 717.62 614.81
00003572 00000022 397.72 159.18 410.33 595.71 588.35 367.83 758.58 394.10 707.58 502.92 583.12 591.40 717.93 612.43
00003573 00000023 397.36 157.96 410.56 595.68 588.23 368.09 758.72 395.34 707.58 502.43 582.07 589.25 718.89 611.04
00003574 00000024 396.36 158.83 410.43 592.36 588.96 368.38 758.07 396.34 707.43 501.38 581.39 588.17 715.95 610.64
00003575 00000025 393.06 159.84 409.99 590.22 588.17 369.23 756.52 397.64 705.70 501.79 579.35 587.89 712.32 610.75
00003576 00000026 387.43 157.92 411.50 591.99 585.95 369.26 754.15 399.69 704.76 500.27 575.18 586.94 709.25 611.79
00003577 00000027 383.76 157.87 412.89 592.77 585.05 368.99 751.85 401.35 701.71 500.96 571.55 585.77 705.68 612.31
00003578 00000028 381.55 160.37 413.88 591.76 582.89 370.57 749.59 404.20 697.38 504.06 567.14 587.59 701.25 615.34
00003579 00000029 378.20 163.78 415.89 591.65 580.34 371.65 746.20 405.89 691.69 508.47 564.18 590.37 697.07 618.66
00003580 00000030 375.22 167.88 415.74 589.56 573.70 374.51 740.02 409.02 682.78 511.37 557.74 591.65 693.48 620.23
00003581 00000031 372.08 166.88 415.67 589.82 566.22 375.72 735.16 408.79 675.26 514.14 551.86 593.20 689.27 620.64
00003582 00000032 373.51 166.22 409.48 586.86 556.28 378.75 731.35 408.58 670.13 509.79 549.58 597.78 691.19 621.79
00003583 00000033 370.60 162.26 409.25 590.31 551.50 377.67 727.55 407.51 665.89 508.49 544.02 595.80 688.25 620.06
00003584 00000034 369.39 160.88 408.49 594.27 549.91 377.96 725.78 407.73 664.87 507.02 540.77 595.58 685.85 620.02
00003585 00000035 365.25 160.98 411.12 594.63 547.64 377.57 722.37 406.78 662.38 506.66 540.10 596.26 683.04 620.02
00003586 00000036 364.14 159.61 411.44 596.15 546.51 378.58 721.10 407.68 661.40 507.06 539.56 597.24 681.43 620.90
00003587 00000037 361.28 167.29 413.90 589.07 545.53 386.59 716.45 414.56 658.73 507.44 538.43 598.37 677.71 621.26
00003588 00000038 360.58 170.87 413.27 585.68 542.93 390.10 714.61 418.14 655.72 508.58 535.15 598.22 676.42 621.24
00003589 00000039 359.85 169.22 414.52 588.79 538.26 388.74 713.94 414.45 652.96 511.05 533.49 600.28 677.91 621.30
00003590 00000040 358.11 165.48 416.02 593.17 535.55 386.18 713.09 410.36 652.13 512.43 532.15 601.89 677.64 621.60
00003591 00000041 356.52 162.84 416.53 596.39 531.86 383.60 711.48 406.63 649.25 513.07 531.08 603.27 677.44 621.67
00003592 00000042 355.60 158.81 414.32 602.04 528.05 381.24 709.04 403.68 646.05 513.22 528.58 604.87 675.33 622.42
00003593 00000043 350.53 158.58 416.56 601.73 523.30 380.28 706.92 402.00 642.97 513.26 525.31 605.16 673.05 622.27
00003594 00000044 346.29 160.44 417.03 600.51 518.25 379.82 702.13 399.86 638.02 514.49 521.05 606.25 668.66 621.90
00003595 00000045 342.05 159.81 416.80 602.71 511.93 380.58 696.71 399.47 630.32 514.03 516.04 606.94 665.20 621.48
00003596 00000046 337.51 158.09 417.73 606.54 504.97 380.15 693.23 398.98 624.97 515.31 511.14 609.10 663.88 623.35
00003597 00000047 333.62 158.41 419.77 608.88 501.28 380.82 690.32 399.73 621.99 516.19 508.73 610.77 662.64 625.07
00003598 00000048 330.56 153.79 419.06 613.59 497.98 382.14 686.07 399.49 619.72 515.88 507.03 611.99 660.40 625.13
00003599 00000049 329.50 152.12 417.25 618.55 491.66 382.48 682.37 398.19 615.76 517.26 503.15 615.66 658.15 627.46
00003600 00000050 328.15 147.34 418.15 625.65 484.70 383.84 678.62 395.54 611.46 519.21 499.51 620.21 656.06 628.67
00003601 00000051 325.52 146.19 418.98 625.73 478.46 386.51 674.04 394.76 606.79 521.29 497.39 623.22 654.10 628.94
00003602 00000052 324.75 149.59 416.50 617.39 472.82 388.06 671.34 392.48 603.31 523.89 497.01 626.45 652.85 629.00
00003603 00000053 323.31 151.77 417.07 617.80 469.06 388.09 668.10 391.61 599.33 525.92 493.66 627.73 650.48 629.66
00003604 00000054 323.46 153.74 417.08 617.25 466.41 390.01 666.12 392.31 597.05 527.65 492.17 629.01 650.67 629.91
00003605 00000055 323.54 152.29 417.41 618.99 465.34 390.98 666.20 391.81 596.91 528.38 492.12 629.98 651.16 629.68
00003606 00000056 322.75 149.63 417.94 622.78 463.91 390.57 664.76 390.43 595.25 527.52 491.01 629.51 650.59 628.46
00003607 00000057 321.97 150.48 418.24 624.84 462.40 390.01 664.16 389.23 595.43 526.80 488.81 629.91 649.86 628.51
00003608 00000058 321.02 149.55 419.52 628.22 461.46 390.49 663.08 388.79 594.82 527.62 488.72 629.84 650.55 627.65
00003609 00000059 320.54 148.64 420.05 632.09 461.16 391.69 661.53 390.22 594.45 529.62 486.72 630.18 649.10 628.31
00003610 00000060 320.12 149.27 420.10 632.49 460.55 392.35 661.32 390.62 594.16 530.09 486.19 630.86 649.13 628.86
00003611 00000061 319.63 150.10 420.37 632.04 460.81 392.65 661.27 390.84 594.06 530.12 486.27 630.60 649.91 628.57
00003612 00000062 319.42 150.60 420.61 630.96 461.17 392.37 661.70 390.51 594.25 530.38 487.12 630.71 649.94 628.63
00003613 00000063 318.51 149.05 421.72 632.53 462.06 392.89 662.82 391.46 595.59 531.27 486.97 630.84 650.41 629.11
00003614 00000064 318.98 148.79 422.05 632.43 462.88 393.32 664.04 391.99 595.78 531.67 487.57 631.17 651.20 629.53
00003615 00000065 320.21 147.62 422.15 634.80 465.48 394.13 665.05 392.45 597.93 533.21 489.36 632.31 652.56 630.29
00003616 00000066 321.07 145.21 423.34 638.27 468.64 396.63 667.05 394.79 600.45 534.64 493.83 634.21 654.36 631.71
00003617 00000067 322.40 146.87 423.48 637.39 472.93 399.69 668.73 396.60 604.47 535.06 497.27 635.53 656.60 632.11
00003618 DELETE   325.39 151.49 419.43 630.08 478.40 408.38 668.99 403.72 606.49 535.02 500.73 634.92 658.51 630.67
00003619 DELETE   326.12 148.86 419.11 633.08 482.94 408.64 670.53 404.01 610.84 534.14 504.61 634.81 660.66 630.38
00003620 00000070 327.23 148.88 420.25 636.78 487.45 405.16 674.28 401.28 616.49 533.41 508.53 633.70 665.45 629.55
00003621 00000071 330.08 143.05 422.59 644.95 493.08 401.04 682.20 399.97 625.27 533.49 513.93 633.14 670.68 630.63
00003622 00000072 333.14 139.34 424.38 650.43 498.47 398.22 688.92 398.23 629.79 534.01 518.56 633.83 675.47 631.90
00003623 00000073 336.02 137.85 425.81 651.68 500.84 396.46 693.47 397.46 630.80 535.68 520.08 633.71 679.00 632.41
00003624 00000074 339.70 139.80 423.45 648.24 501.70 395.91 697.68 395.73 633.30 536.27 522.44 634.72 682.97 632.38
00003625 00000075 342.65 148.40 424.14 635.78 501.16 396.51 700.74 395.64 637.24 537.76 519.48 628.76 680.68 626.90
00003626 00000076 344.65 149.11 425.28 635.73 502.40 395.49 702.40 393.90 638.88 538.34 521.80 629.46 682.22 627.08
00003627 00000077 345.76 147.59 426.48 637.58 503.16 396.10 703.15 393.37 639.40 538.23 522.35 628.72 684.12 625.37
00003628 00000078 346.24 148.40 426.38 635.21 503.06 395.63 703.14 392.96 639.07 537.61 522.40 628.10 684.34 624.64
00003629 00000079 346.33 148.57 426.31 633.13 502.85 395.36 703.21 391.80 639.32 537.66 523.41 628.11 684.54 623.92
00003630 00000080 346.98 147.30 425.59 633.52 502.07 395.74 702.53 390.64 638.02 536.38 523.85 628.41 685.10 622.81
00003631 00000081 349.63 142.28 422.45 637.07 505.01 397.25 704.40 391.15 637.03 537.50 532.20 635.65 691.40 628.31
00003632 00000082 350.59 140.81 423.22 639.64 502.10 399.07 704.39 390.26 636.05 539.69 530.98 637.25 693.11 627.86
00003633 00000083 351.91 139.40 422.32 639.36 501.56 400.25 704.63 390.25 635.45 539.60 532.56 638.40 694.67 627.74
00003634 00000084 354.28 142.01 421.55 635.72 501.30 401.82 705.56 389.93 636.32 542.26 533.61 639.73 696.64 627.68
00003635 00000085 355.24 144.32 421.93 634.23 498.46 405.42 702.08 391.41 634.40 541.38 528.48 635.66 691.62 622.78
00003636 00000086 357.33 144.91 421.53 633.32 499.25 405.92 703.13 390.55 636.08 542.16 529.88 635.69 693.65 621.79
00003637 00000087 359.01 143.15 421.85 635.89 500.90 404.97 705.30 388.14 638.54 540.24 532.63 635.41 697.58 620.34
00003638 00000088 362.12 146.31 419.33 631.45 502.87 402.44 707.56 385.63 640.85 537.33 535.52 635.92 699.01 621.07
00003639 00000089 363.07 140.07 422.97 639.13 509.23 397.43 716.85 384.38 650.72 538.02 545.58 640.64 708.79 628.09
00003640 00000090 369.60 131.62 423.51 654.96 513.51 392.12 715.80 384.37 652.04 538.00 551.03 635.18 707.99 628.43
00003641 00000091 372.92 133.36 422.97 656.19 517.56 392.31 717.57 384.27 655.31 538.87 555.64 638.02 708.93 631.01
00003642 00000092 375.69 137.43 422.63 651.36 522.20 392.03 719.89 383.22 659.32 539.53 560.92 638.81 710.32 631.08
00003643 00000093 376.58 132.08 422.12 655.22 523.18 390.39 720.16 380.80 660.43 535.42 564.77 639.06 711.44 630.43
00003644 00000094 378.05 130.89 419.83 652.68 524.55 389.02 721.55 380.72 661.68 530.90 567.09 637.31 711.54 629.67
00003645 00000095 378.87 132.22 420.33 651.77 524.23 387.89 721.96 379.65 661.92 529.59 566.57 636.86 712.26 629.24
00003646 00000096 379.93 132.57 419.69 651.86 524.23 388.37 722.01 379.57 661.92 529.69 566.68 637.46 712.77 629.37
00003647 00000097 380.11 130.25 420.00 656.14 525.05 389.80 722.29 381.13 662.57 532.40 566.83 639.35 712.36 631.32
00003648 00000098 379.87 131.47 420.60 657.40 525.05 392.28 721.21 382.92 661.90 534.59 566.86 641.42 711.32 632.96
00003649 00000099 377.96 131.81 421.65 659.32 523.88 392.33 720.04 383.04 660.58 535.95 564.67 641.68 710.37 633.37
00003650 00000100 376.05 135.45 422.48 654.33 522.41 391.22 719.76 383.01 658.44 536.70 561.85 640.21 708.17 632.97
00003651 00000101 374.54 132.98 422.58 656.38 519.89 389.74 718.34 382.96 655.58 534.65 558.38 638.18 706.06 632.04
00003652 00000102 373.00 132.01 422.85 656.83 517.80 388.19 717.47 381.78 654.01 533.35 556.08 637.06 704.85 631.29
00003653 00000103 370.81 132.06 422.83 654.95 515.79 386.99 716.47 381.45 651.98 531.82 552.59 635.14 703.08 630.17
00003654 00000104 369.76 130.30 422.48 655.84 514.10 386.29 715.10 380.90 650.61 531.22 550.32 634.08 701.44 629.26
00003655 00000105 364.67 132.05 423.71 648.62 513.17 387.63 721.42 377.85 653.54 529.58 549.52 641.64 707.50 631.52
00003656 00000106 363.37 136.98 424.23 645.42 508.65 391.43 714.59 377.78 647.68 528.48 542.00 635.17 699.64 623.49
00003657 00000107 362.90 135.21 425.29 649.63 507.84 391.82 714.53 377.62 647.28 529.22 541.89 636.36 700.25 624.16
00003658 00000108 362.98 138.33 426.24 647.47 507.67 391.16 714.76 376.66 647.50 529.67 542.75 637.60 700.65 625.04
00003659 00000109 363.00 140.71 426.21 644.79 507.04 391.46 714.53 376.43 647.40 530.02 542.45 637.89 700.63 624.79
00003660 00000110 360.90 143.51 426.55 643.22 504.85 391.86 711.21 377.07 644.34 530.49 540.22 637.74 698.37 624.46
00003661 00000111 359.40 143.00 425.99 643.24 503.92 392.91 708.32 379.51 641.82 529.72 538.68 636.95 695.99 624.75
00003662 00000112 358.12 142.92 424.90 642.60 502.10 393.62 706.10 380.48 639.07 530.10 537.23 637.23 693.86 625.01
00003663 00000113 358.10 144.46 424.52 639.92 501.30 393.42 705.21 380.95 637.99 529.70 536.31 636.74 692.41 625.04
00003664 00000114 357.84 145.41 423.79 637.66 500.82 393.79 704.61 381.31 637.11 529.05 536.05 636.42 692.10 624.66
00003665 00000115 356.73 146.71 423.46 635.14 499.86 393.95 703.41 381.68 635.70 529.55 534.32 635.90 690.38 624.17
00003666 00000116 355.28 144.83 423.01 636.86 499.59 394.98 702.30 383.86 634.53 531.20 533.87 636.79 687.30 625.95
00003667 00000117 355.53 145.20 422.01 638.12 499.93 397.35 702.25 386.12 634.59 533.58 533.81 637.82 688.22 626.75
00003668 00000118 355.43 144.15 422.66 641.51 499.63 399.75 701.16 387.75 634.24 534.60 533.95 639.11 689.22 627.42
00003669 00000119 356.56 144.81 420.85 639.45 499.59 400.69 700.71 388.55 633.91 535.81 533.67 639.56 688.39 627.86
00003670 00000120 354.29 144.37 422.69 641.29 498.29 401.78 699.06 389.78 633.33 536.33 532.11 640.20 686.35 628.41
00003671 DELETE   354.53 145.96 418.13 639.00 500.43 412.58 694.81 401.44 633.01 536.72 531.78 641.97 683.71 630.71
00003672 DELETE   355.18 142.49 416.40 641.36 504.91 414.24 696.57 404.64 632.98 538.61 536.04 645.18 687.93 634.84
00003673 DELETE   353.16 144.83 419.91 640.91 498.77 410.51 692.96 398.82 630.28 535.13 529.67 641.03 682.40 629.27
00003674 00000124 353.41 149.69 420.29 636.69 494.60 409.96 692.97 396.54 628.83 537.41 526.41 642.38 682.66 629.36
00003675 00000125 353.54 149.63 420.15 638.08 492.78 412.26 693.33 398.76 627.30 541.27 522.96 643.81 684.31 630.84
00003676 00000126 353.82 147.90 419.43 638.63 493.06 412.74 694.17 399.56 627.18 543.00 522.75 644.35 684.18 631.71
00003677 00000127 353.96 147.57 418.81 637.07 492.28 411.29 694.87 398.72 626.29 543.36 521.58 643.85 684.19 631.81
00003678 00000128 353.22 147.96 418.36 636.39 491.42 410.06 694.55 398.70 624.90 542.84 521.26 643.45 682.49 632.24
00003679 00000129 352.50 148.74 417.77 637.01 490.48 409.65 693.73 399.61 623.36 543.49 519.75 643.14 681.31 632.94
00003680 00000130 352.40 154.15 417.63 635.37 490.44 410.60 691.76 402.18 621.85 545.03 520.92 645.03 676.71 636.02
00003681 00000131 351.89 154.75 419.88 639.58 492.69 412.66 692.37 404.73 624.18 547.49 524.51 649.81 676.31 640.99
00003682 00000132 352.65 158.17 420.93 636.02 494.84 410.61 694.46 401.41 627.80 545.66 527.97 649.76 678.70 640.02
00003683 00000133 354.22 153.00 421.12 638.32 499.13 405.16 697.68 394.48 633.59 540.31 531.06 642.77 685.05 631.85
00003684 00000134 354.46 153.89 422.33 636.96 500.26 400.63 699.23 390.23 635.69 536.64 530.53 638.89 685.84 628.53
00003685 00000135 355.79 153.85 422.36 636.80 501.37 397.52 700.84 387.60 637.20 534.61 531.21 636.31 688.60 626.27
00003686 00000136 359.73 154.01 419.69 632.78 502.56 399.37 704.26 388.45 639.19 536.01 531.86 634.84 694.05 624.19
00003687 00000137 364.17 157.30 415.91 625.29 507.28 401.24 708.05 388.34 643.99 533.10 535.95 635.15 698.26 623.50
00003688 00000138 367.06 156.22 415.97 621.59 510.61 398.82 712.97 385.40 648.21 530.37 540.75 634.29 701.84 622.32
00003689 00000139 373.42 152.89 417.87 628.70 517.06 394.60 715.50 389.51 651.33 534.00 549.52 631.92 706.48 627.91
00003690 00000140 377.38 152.25 415.79 628.17 522.61 396.26 719.74 390.25 657.31 535.76 554.83 633.94 710.48 629.08
00003691 00000141 381.53 147.76 414.86 632.95 528.09 398.29 722.70 393.64 661.84 535.65 559.74 635.37 712.65 631.34
00003692 00000142 386.65 149.26 413.48 636.88 532.76 398.03 724.96 393.70 666.03 538.36 564.22 637.85 715.44 634.02
00003693 00000143 390.58 148.27 412.40 632.98 539.35 397.28 730.90 393.63 671.91 535.78 571.27 636.17 720.42 632.63
00003694 00000144 393.31 147.11 413.88 630.07 548.92 391.14 738.08 391.78 679.08 527.48 575.86 630.91 723.34 630.66
00003695 00000145 396.03 149.63 415.34 623.30 557.87 384.60 746.09 389.98 687.19 521.21 582.13 625.78 728.34 629.11
00003696 00000146 400.90 149.22 417.28 622.33 569.64 379.75 756.44 393.07 695.01 517.89 587.29 620.04 731.88 629.25
00003697 00000147 404.08 155.19 419.80 615.10 578.71 377.89 762.15 397.85 699.95 516.24 588.17 615.56 730.35 630.35
00003698 00000148 409.64 156.60 419.95 613.20 587.23 378.11 769.55 400.45 706.95 520.08 592.66 616.24 732.55 633.17
00003699 00000149 412.67 155.41 423.55 612.37 594.57 378.80 776.30 403.31 713.85 521.71 598.08 615.33 735.89 634.10
00003700 00000150 413.78 156.52 424.92 611.25 599.44 379.23 779.38 406.15 718.13 520.67 601.38 613.37 738.19 634.01
00003701 00000151 416.98 156.22 423.37 610.29 602.71 378.06 781.70 404.89 720.81 519.02 604.79 612.53 740.97 633.09
00003702 00000152 421.51 158.74 421.17 606.78 605.28 376.84 784.94 404.10 723.68 516.49 607.81 611.51 744.39 632.40
00003703 00000153 425.43 154.56 420.72 610.17 607.81 377.60 788.74 403.91 726.23 517.08 610.43 612.65 747.89 632.90
00003704 00000154 427.38 153.21 421.36 611.19 610.45 378.95 792.64 405.26 729.53 518.12 612.52 613.50 750.50 633.86
00003705 00000155 430.45 156.11 421.01 608.37 614.58 381.06 794.92 409.10 731.50 519.77 614.99 613.98 751.81 635.95
00003706 00000156 434.96 157.53 420.35 606.10 618.28 381.96 798.31 410.94 733.25 520.44 617.53 613.87 753.46 636.54
00003707 00000157 438.58 155.72 420.02 605.63 620.39 381.05 801.37 411.27 734.33 521.42 617.39 611.75 754.88 635.47
00003708 00000158 440.64 161.39 418.88 598.83 620.40 380.24 803.12 411.29 735.11 520.97 617.06 610.91 755.93 635.28
00003709 00000159 439.16 160.16 420.45 600.12 619.66 379.93 801.92 412.36 732.95 519.34 615.57 610.16 753.93 635.66
00003710 00000160 437.91 160.33 421.66 599.10 617.45 379.52 798.74 412.08 728.71 519.47 613.21 610.19 749.59 635.87
00003711 00000161 436.47 158.38 421.77 602.92 614.89 380.82 795.68 413.22 725.29 520.49 610.61 611.67 747.12 637.50
00003712 00000162 434.18 158.25 422.79 604.61 610.68 382.36 792.36 413.74 721.21 522.43 608.05 615.08 744.60 640.23
00003713 00000163 431.24 162.51 424.54 605.66 608.30 385.63 789.72 416.07 719.34 525.09 607.63 618.71 743.81 642.92
00003714 00000164 428.68 166.62 424.83 606.68 606.32 388.26 786.94 418.26 717.74 527.58 604.61 621.03 741.48 644.97
00003715 00000165 425.97 174.04 422.11 600.17 598.46 387.85 784.23 418.52 714.09 534.60 592.01 621.91 733.78 647.50
00003716 DELETE   424.35 176.80 419.04 599.55 597.63 397.59 779.43 426.20 714.62 538.67 591.70 624.67 730.94 648.66
00003717 DELETE   421.41 179.94 420.44 596.17 595.76 399.99 776.92 429.50 711.25 540.00 588.62 623.92 728.92 648.87
00003718 DELETE   418.47 175.98 421.19 601.34 594.57 401.47 775.33 429.35 706.99 536.32 591.86 625.82 731.06 648.62
00003719 00000169 416.69 175.29 419.44 602.63 591.38 398.32 773.74 426.00 706.16 536.00 589.48 625.82 729.80 648.52
00003720 00000170 416.79 178.63 418.83 596.83 588.54 391.29 774.01 422.19 706.28 540.46 583.91 625.46 721.55 651.32
