Video ID: 	DD66RCi8uxs
H: 	1080
W: 	1920
FPS: 	23.976023976023978

FRAME INDEX X0 Y0 W H [Landmarks (5 Points)]

00001258 00000000 1123.02 102.00 368.46 540.37 1174.51 319.38 1328.38 305.67 1212.60 401.08 1193.25 503.66 1330.97 493.89
00001259 00000001 1119.18 86.93 371.33 554.28 1169.48 300.95 1335.93 288.83 1218.02 385.77 1194.36 502.61 1328.36 494.47
00001260 00000002 1118.84 86.41 369.21 550.04 1171.20 294.97 1335.75 282.39 1219.66 375.24 1196.57 496.38 1327.31 487.83
00001261 00000003 1116.91 85.49 370.37 549.26 1169.71 295.00 1335.58 282.63 1220.95 377.93 1195.72 496.20 1328.34 487.80
00001262 00000004 1116.14 90.24 369.16 542.88 1171.57 303.32 1331.06 289.40 1218.37 383.87 1189.63 494.47 1325.52 485.28
00001263 00000005 1113.66 91.79 371.64 542.89 1171.02 307.53 1330.85 294.55 1218.24 387.92 1187.68 495.08 1326.22 486.93
00001264 00000006 1111.86 90.79 370.48 540.88 1169.87 304.64 1331.50 292.53 1217.49 384.34 1184.27 492.71 1324.25 485.19
00001265 00000007 1110.87 88.20 369.31 537.50 1168.86 299.85 1333.77 289.66 1217.57 379.47 1181.05 489.06 1322.62 483.07
00001266 00000008 1111.67 85.36 367.10 535.64 1168.76 296.84 1334.09 285.19 1216.88 373.17 1180.68 484.33 1322.50 477.45
00001267 00000009 1111.73 82.60 366.06 535.22 1167.10 294.31 1331.52 282.52 1213.17 369.88 1178.32 480.45 1320.13 473.57
00001268 00000010 1111.50 82.93 365.97 534.66 1166.14 294.32 1330.02 282.97 1211.63 370.27 1177.14 479.93 1318.64 473.53
00001269 00000011 1110.37 84.20 366.72 533.59 1165.25 295.95 1329.11 285.00 1210.60 372.39 1176.31 481.13 1318.31 474.92
00001270 00000012 1109.69 84.68 367.18 534.05 1164.71 299.01 1327.14 287.20 1209.54 373.02 1176.37 483.09 1317.31 476.18
00001271 00000013 1110.86 84.60 365.15 530.12 1164.87 298.71 1326.34 286.03 1208.30 370.27 1175.75 480.87 1315.31 473.47
00001272 00000014 1110.96 80.60 366.14 533.13 1163.89 294.10 1326.76 281.41 1207.49 367.39 1174.63 477.03 1315.61 469.96
00001273 00000015 1110.40 78.41 367.00 534.91 1161.96 293.25 1324.69 279.52 1204.57 367.10 1173.09 476.51 1314.06 468.60
00001274 DELETE   1111.38 87.45 365.51 530.48 1163.24 302.41 1322.91 285.31 1202.86 368.70 1173.29 479.94 1313.25 469.45
00001275 00000017 1109.80 88.17 366.59 532.73 1161.47 310.03 1319.60 292.77 1199.79 374.61 1172.18 486.34 1313.16 475.30
00001276 00000018 1107.86 88.87 366.08 534.38 1159.35 309.79 1317.62 295.91 1198.61 380.88 1169.51 490.52 1309.60 482.08
00001277 00000019 1105.97 89.78 367.04 535.84 1158.67 307.55 1313.93 298.55 1197.17 384.29 1167.56 490.18 1304.51 485.53
00001278 00000020 1105.65 90.31 366.85 533.90 1158.24 303.97 1313.76 296.17 1196.36 383.09 1166.94 488.37 1302.26 484.94
00001279 00000021 1104.90 88.63 367.06 533.21 1157.50 300.87 1314.65 292.58 1196.66 379.75 1166.96 486.99 1301.95 483.16
00001280 00000022 1102.86 89.12 365.94 531.91 1154.86 299.90 1310.89 291.76 1194.16 378.73 1164.64 485.31 1299.19 481.79
00001281 00000023 1101.39 88.39 366.28 533.03 1153.17 299.68 1309.71 292.03 1192.64 379.08 1163.47 485.23 1298.87 481.94
00001282 00000024 1100.34 88.34 367.45 532.97 1152.18 300.44 1309.26 293.24 1192.18 380.50 1162.01 485.48 1298.41 482.53
00001283 00000025 1100.33 87.98 367.74 533.20 1152.41 300.49 1309.35 294.39 1192.42 381.79 1161.83 485.81 1297.85 483.66
00001284 00000026 1101.12 87.16 368.35 537.83 1154.21 300.87 1311.43 294.38 1195.55 382.22 1164.01 486.79 1300.34 484.34
00001285 00000027 1104.89 84.93 365.79 539.15 1158.67 304.41 1315.11 296.76 1199.39 381.65 1166.51 485.99 1305.44 482.43
00001286 00000028 1106.18 91.48 369.10 534.78 1160.79 315.22 1320.68 300.34 1202.49 382.88 1172.68 490.74 1315.38 481.19
00001287 00000029 1107.83 88.16 370.39 543.26 1162.25 310.01 1325.59 294.61 1206.09 383.05 1175.02 491.90 1320.30 481.93
00001288 00000030 1109.21 84.31 367.59 549.20 1165.03 301.86 1325.34 289.79 1209.82 382.48 1177.42 491.45 1314.10 484.10
00001289 00000031 1106.94 83.57 369.54 548.73 1161.44 302.44 1320.31 291.49 1205.39 384.45 1173.50 491.64 1310.43 485.15
00001290 00000032 1104.81 87.33 367.84 543.04 1159.11 303.32 1318.31 294.94 1202.65 385.87 1170.12 490.39 1308.36 485.89
00001291 00000033 1101.81 86.40 369.74 544.00 1156.34 303.34 1313.85 296.06 1200.14 386.67 1168.28 488.84 1306.20 485.19
00001292 00000034 1098.24 88.21 370.07 542.38 1152.34 301.41 1307.78 296.71 1195.53 386.22 1164.28 488.15 1299.41 486.63
00001293 00000035 1095.95 89.87 369.04 543.36 1149.79 301.46 1303.30 298.11 1191.08 386.77 1160.73 489.44 1294.53 489.08
00001294 00000036 1094.37 94.68 368.01 540.51 1147.74 301.94 1299.97 299.39 1187.15 387.88 1159.06 491.23 1290.24 491.20
00001295 00000037 1094.17 98.87 370.17 539.57 1147.69 305.59 1297.44 301.44 1184.70 389.92 1160.08 493.85 1291.43 492.06
00001296 00000038 1095.04 101.25 368.41 537.88 1146.57 306.34 1295.23 302.72 1180.76 391.30 1158.69 493.63 1291.35 492.18
00001297 00000039 1096.36 102.74 364.30 538.43 1144.96 305.80 1289.95 303.32 1174.47 393.37 1158.07 495.21 1286.96 494.88
00001298 00000040 1092.94 104.78 363.62 538.55 1140.13 315.00 1281.10 310.11 1164.65 397.74 1155.48 503.02 1280.50 500.25
00001299 00000041 1085.60 94.01 365.89 545.06 1128.42 323.25 1275.00 308.98 1155.19 400.95 1143.80 509.54 1264.61 498.45
00001300 00000042 1080.04 97.33 368.30 546.35 1120.30 328.33 1265.38 313.45 1140.19 402.04 1137.39 515.52 1253.89 503.88
00001301 00000043 1077.12 100.31 369.84 546.85 1116.39 334.01 1260.84 318.69 1133.36 404.01 1135.38 521.19 1249.05 509.06
00001302 00000044 1074.81 102.75 371.04 547.25 1110.72 336.16 1251.09 321.80 1121.24 404.69 1128.75 524.35 1237.21 512.89
00001303 00000045 1072.33 104.83 372.39 545.54 1106.43 337.40 1246.01 322.77 1115.35 405.95 1123.78 524.92 1233.32 513.30
00001304 00000046 1073.57 102.22 372.32 545.09 1107.35 336.57 1246.21 319.95 1115.20 403.43 1124.60 522.79 1234.84 509.75
00001305 00000047 1075.39 100.93 369.49 543.42 1107.42 334.81 1244.91 316.70 1112.53 400.36 1123.58 521.33 1233.75 507.23
00001306 00000048 1076.16 101.18 368.53 540.01 1107.82 335.10 1241.42 316.19 1111.63 399.10 1124.58 519.36 1230.68 504.53
00001307 00000049 1075.14 102.55 366.66 535.17 1105.23 334.82 1235.50 316.01 1108.67 401.39 1122.81 517.19 1228.85 502.27
00001308 00000050 1072.99 101.83 366.04 537.45 1102.90 336.32 1231.41 316.41 1104.93 402.20 1122.72 518.92 1226.68 503.00
00001309 00000051 1072.36 101.65 364.43 537.35 1101.27 337.91 1227.82 314.94 1102.16 401.60 1121.50 519.70 1225.03 501.26
00001310 00000052 1067.44 107.93 369.06 533.42 1095.24 351.67 1230.16 321.86 1103.34 404.24 1120.83 526.19 1229.14 502.02
00001311 00000053 1066.92 109.90 371.84 532.03 1095.52 355.76 1230.89 322.39 1105.68 405.57 1123.68 529.50 1232.09 502.41
00001312 DELETE   1065.71 108.97 373.22 532.17 1095.83 353.43 1227.80 318.58 1104.85 403.99 1126.57 528.18 1233.03 499.86
00001313 00000055 1065.68 104.85 370.00 537.57 1097.70 347.89 1225.02 310.34 1105.29 399.48 1130.99 525.20 1234.34 494.53
00001314 00000056 1061.63 93.37 380.02 554.30 1092.59 342.43 1225.73 297.71 1107.49 398.54 1136.54 532.86 1242.84 497.91
00001315 00000057 1063.66 90.67 389.78 564.02 1101.00 341.53 1235.50 296.07 1118.87 401.11 1148.28 536.49 1255.74 500.15
00001316 00000058 1068.55 90.25 388.18 567.38 1107.77 344.21 1245.90 295.62 1129.87 403.31 1157.65 539.36 1270.83 499.74
00001317 00000059 1077.04 94.87 385.42 563.39 1120.63 342.50 1261.57 297.03 1147.34 404.97 1171.92 536.26 1285.04 498.78
00001318 00000060 1087.90 101.11 384.62 556.08 1137.34 337.79 1272.09 304.86 1160.28 403.71 1175.04 525.13 1294.95 497.77
00001319 00000061 1092.56 103.23 387.64 555.86 1141.82 336.12 1281.15 305.02 1167.69 402.66 1176.69 523.88 1302.07 498.20
00001320 00000062 1095.33 105.99 388.38 556.67 1146.13 337.91 1287.88 307.06 1175.29 405.05 1181.21 526.74 1307.00 501.69
00001321 00000063 1098.91 111.56 389.16 558.52 1152.56 343.83 1295.91 314.60 1186.03 416.14 1191.00 532.12 1316.03 508.28
00001322 00000064 1101.19 115.82 387.09 562.59 1152.98 349.25 1297.07 321.02 1186.57 426.86 1190.83 540.35 1312.83 517.68
00001323 00000065 1099.37 118.00 385.24 565.81 1148.85 356.89 1292.45 327.69 1179.58 432.34 1186.14 549.05 1304.79 525.99
00001324 00000066 1093.14 122.13 383.80 566.40 1143.02 358.79 1285.44 334.11 1172.87 438.07 1179.12 550.34 1299.90 530.80
00001325 00000067 1089.07 125.55 383.11 568.46 1139.84 367.66 1286.96 336.44 1171.02 435.20 1174.18 554.59 1300.00 529.50
00001326 00000068 1084.95 128.53 380.37 560.59 1137.84 365.81 1284.92 334.69 1171.54 431.32 1172.30 551.09 1297.78 526.12
00001327 00000069 1078.43 126.70 383.06 556.74 1134.40 356.57 1281.13 329.47 1170.90 428.36 1169.72 544.32 1295.62 522.15
00001328 00000070 1079.39 120.91 378.12 561.25 1133.13 351.59 1276.99 329.15 1167.23 427.96 1166.71 543.76 1290.11 525.66
00001329 00000071 1078.09 119.85 376.77 561.69 1131.74 348.59 1276.25 328.88 1164.29 427.73 1162.89 543.03 1286.80 527.16
00001330 00000072 1080.73 116.32 383.32 564.68 1136.27 348.27 1288.31 324.45 1167.34 419.91 1169.44 544.04 1288.21 524.03
00001331 00000073 1081.04 114.07 380.13 561.67 1136.21 339.12 1285.75 322.58 1171.52 421.48 1165.87 533.70 1297.22 520.27
00001332 00000074 1087.63 110.12 385.55 554.05 1143.93 331.36 1295.54 314.14 1181.60 411.86 1168.54 523.99 1305.67 510.15
00001333 00000075 1094.10 102.15 384.22 555.27 1150.01 327.58 1302.59 309.58 1190.53 407.79 1173.69 514.23 1315.03 499.92
00001334 00000076 1101.02 94.03 381.48 558.60 1155.16 323.36 1309.31 304.43 1197.43 403.04 1178.70 507.79 1322.50 493.01
00001335 00000077 1106.52 91.77 381.33 558.81 1159.76 316.76 1316.22 295.26 1201.57 393.20 1183.98 504.78 1325.42 488.16
00001336 00000078 1109.81 80.10 381.73 566.57 1163.19 310.35 1325.28 288.37 1206.92 387.53 1185.67 501.89 1329.93 485.47
00001337 00000079 1120.24 81.89 377.97 565.99 1169.43 300.43 1337.93 288.93 1210.52 376.84 1189.81 496.28 1320.17 486.47
00001338 00000080 1121.76 80.16 378.53 569.25 1171.44 297.82 1340.54 286.59 1210.94 374.41 1192.28 496.72 1321.33 487.21
00001339 00000081 1122.32 78.57 380.73 572.50 1172.91 296.73 1344.51 287.08 1212.81 375.40 1192.37 496.36 1326.12 488.20
00001340 00000082 1121.30 78.25 383.10 572.45 1172.85 295.13 1345.22 287.85 1212.80 376.88 1190.24 495.20 1325.38 489.07
00001341 00000083 1120.97 79.97 385.16 572.55 1173.20 296.01 1347.18 289.28 1215.98 380.46 1192.46 496.62 1328.97 490.97
00001342 00000084 1116.63 77.25 388.45 574.72 1172.03 301.51 1344.94 286.52 1218.78 390.36 1191.37 504.46 1341.35 493.30
00001343 00000085 1120.36 81.62 386.33 574.64 1176.31 305.91 1350.00 294.15 1223.34 395.61 1193.26 508.65 1342.32 500.26
00001344 00000086 1122.54 85.97 383.88 576.43 1179.62 308.39 1354.06 299.44 1226.69 400.75 1196.81 514.71 1343.52 508.84
00001345 00000087 1122.56 88.09 381.68 574.61 1179.73 312.31 1352.96 304.65 1225.31 405.18 1193.39 515.38 1340.62 510.70
00001346 00000088 1120.60 92.94 381.53 569.76 1180.32 314.24 1353.22 307.27 1226.55 406.26 1192.54 515.35 1340.22 511.22
00001347 00000089 1118.88 94.75 378.31 567.37 1180.25 316.29 1350.98 308.76 1226.76 407.70 1195.01 518.12 1337.61 513.51
00001348 00000090 1118.65 94.63 376.97 569.30 1180.96 316.54 1349.30 311.83 1226.23 410.21 1193.22 516.59 1336.73 513.97
00001349 DELETE   1118.75 102.20 378.29 560.18 1185.40 325.99 1355.23 321.61 1232.80 410.85 1194.48 515.41 1340.58 513.87
00001350 00000092 1122.76 104.95 383.82 560.46 1188.55 322.53 1357.91 325.12 1233.24 405.15 1196.67 521.98 1331.94 524.96
00001351 00000093 1128.31 104.82 381.36 561.90 1191.51 318.22 1361.74 324.99 1231.19 409.16 1197.29 524.46 1330.75 531.03
00001352 00000094 1130.41 108.88 381.72 558.81 1193.75 323.30 1361.48 332.83 1228.76 415.67 1196.65 527.34 1327.60 536.20
00001353 00000095 1135.42 111.91 375.24 557.54 1199.21 326.64 1364.62 339.50 1241.72 426.61 1198.78 525.67 1331.99 536.92
00001354 00000096 1136.05 115.71 374.14 552.84 1199.96 329.53 1364.54 342.88 1241.71 429.17 1199.97 526.50 1332.21 537.93
00001355 00000097 1137.36 117.69 372.96 550.59 1201.20 330.64 1364.99 344.52 1242.48 429.40 1200.79 526.66 1331.98 538.52
00001356 00000098 1138.87 118.39 371.23 551.04 1200.82 331.23 1362.27 343.53 1240.17 428.38 1200.79 527.62 1329.37 538.26
00001357 DELETE   1138.49 119.56 371.15 550.27 1198.95 339.94 1361.65 347.58 1239.14 426.66 1199.56 528.46 1326.95 535.45
00001358 00000100 1132.49 126.29 368.56 542.56 1186.35 346.51 1345.14 350.20 1216.41 416.22 1181.53 528.74 1309.31 533.37
00001359 DELETE   1123.43 127.36 365.46 539.21 1168.82 342.64 1326.51 344.34 1198.09 414.95 1167.69 528.02 1294.52 531.70
00001360 DELETE   1115.79 127.27 363.83 543.26 1166.30 340.89 1314.60 342.63 1181.34 411.26 1165.51 529.16 1275.30 530.33
00001361 00000103 1113.33 127.81 355.50 538.36 1161.08 339.55 1299.88 340.38 1166.21 410.22 1160.31 528.95 1261.83 529.57
00001362 00000104 1096.82 119.73 364.81 545.48 1139.48 340.57 1286.36 337.92 1157.22 417.32 1141.96 530.75 1256.57 529.00
00001363 00000105 1086.43 118.41 365.75 545.63 1128.48 341.67 1275.03 337.18 1143.52 414.48 1130.01 529.65 1244.25 526.64
00001364 00000106 1080.45 121.13 364.48 547.32 1123.64 340.68 1265.57 336.92 1138.20 413.79 1127.83 530.42 1236.19 527.73
00001365 00000107 1077.60 126.91 362.58 545.26 1119.51 342.09 1262.12 339.02 1132.94 416.09 1125.11 534.36 1232.97 531.92
00001366 00000108 1077.13 134.17 362.05 542.01 1119.64 344.89 1262.45 343.05 1130.43 421.10 1125.93 536.80 1235.10 535.06
00001367 00000109 1079.95 142.80 359.04 536.26 1120.33 350.46 1263.02 347.80 1130.35 426.97 1126.05 541.60 1236.72 539.12
00001368 00000110 1084.46 145.34 356.58 535.70 1122.58 354.79 1265.48 352.74 1133.32 432.56 1127.54 546.26 1238.79 544.37
00001369 00000111 1089.81 147.78 353.87 535.33 1126.03 356.97 1272.47 356.78 1138.93 435.61 1129.45 550.09 1243.57 549.85
00001370 00000112 1097.15 152.00 350.26 534.09 1134.15 360.44 1279.48 361.56 1148.02 439.74 1135.50 552.44 1252.19 553.06
00001371 00000113 1101.73 164.73 345.34 518.25 1144.08 357.81 1282.46 358.60 1163.65 441.68 1148.57 544.37 1265.88 547.51
00001372 00000114 1104.12 171.35 344.92 512.92 1147.93 360.85 1285.72 361.63 1169.00 443.20 1151.72 545.60 1270.12 549.14
00001373 00000115 1105.16 172.72 345.65 512.39 1149.95 362.31 1288.49 363.79 1172.14 445.40 1152.78 545.95 1272.41 550.10
00001374 DELETE   1106.39 178.56 344.80 508.58 1153.90 373.11 1291.23 370.28 1175.30 445.70 1156.48 550.06 1276.16 551.02
00001375 DELETE   1105.47 177.26 345.22 508.55 1153.86 372.64 1293.05 371.01 1177.10 446.90 1156.08 548.91 1277.43 550.70
00001376 00000118 1103.50 176.58 345.14 509.78 1152.48 368.14 1292.46 370.80 1178.13 448.42 1154.61 546.64 1276.23 551.79
00001377 00000119 1099.46 179.53 348.37 511.64 1150.37 367.57 1290.76 374.92 1178.01 453.35 1152.88 548.25 1276.02 556.84
00001378 00000120 1100.04 183.64 348.04 512.46 1152.00 371.97 1292.65 380.32 1179.83 458.63 1154.26 553.43 1276.64 562.93
00001379 00000121 1099.78 185.96 346.37 511.69 1151.63 374.15 1293.04 382.85 1180.91 463.24 1154.25 557.22 1276.07 567.02
00001380 00000122 1097.74 187.28 347.56 512.91 1149.66 377.77 1291.23 385.70 1178.22 467.75 1153.37 562.14 1274.41 571.02
00001381 00000123 1094.83 189.80 345.40 509.84 1146.33 379.00 1288.81 387.31 1175.59 471.02 1151.71 563.66 1272.82 572.57
00001382 00000124 1091.67 189.17 345.96 510.43 1143.95 378.49 1286.38 388.02 1173.58 470.59 1149.69 563.29 1270.09 572.67
00001383 00000125 1089.80 187.91 346.14 509.76 1142.15 377.59 1284.92 387.86 1171.50 469.58 1148.45 561.54 1268.48 571.09
00001384 00000126 1087.27 187.18 347.15 510.10 1139.88 376.84 1282.89 387.88 1169.63 469.94 1146.66 560.68 1266.10 570.52
00001385 00000127 1086.15 191.79 342.58 505.70 1136.43 389.10 1278.46 394.00 1162.56 473.11 1140.89 567.46 1262.54 572.58
00001386 DELETE   1084.12 193.65 341.17 511.97 1131.31 395.14 1273.66 398.27 1160.72 483.32 1139.38 576.82 1259.95 580.72
00001387 00000129 1081.76 195.44 340.86 515.87 1126.25 396.20 1273.63 398.23 1159.20 488.65 1136.40 582.45 1260.54 585.33
00001388 00000130 1073.61 200.19 347.01 516.44 1125.03 403.54 1275.73 405.22 1160.33 492.48 1132.79 581.71 1254.55 583.35
00001389 00000131 1076.35 197.18 348.21 514.76 1127.64 399.50 1278.30 401.17 1163.05 491.03 1134.94 579.89 1256.92 581.65
00001390 00000132 1077.34 193.37 347.71 518.68 1131.02 394.70 1274.14 399.80 1167.64 494.70 1144.22 582.99 1259.96 587.76
00001391 00000133 1080.27 192.26 348.74 519.98 1133.84 391.75 1278.83 396.39 1171.09 491.74 1146.90 583.83 1263.42 588.40
00001392 00000134 1082.91 186.60 349.94 520.22 1136.91 384.10 1283.34 391.59 1173.43 484.08 1148.46 576.44 1266.66 583.40
00001393 00000135 1083.66 182.86 351.16 516.32 1138.98 377.73 1287.18 385.25 1176.85 472.79 1150.74 564.96 1272.83 571.98
00001394 00000136 1082.04 177.00 352.62 521.01 1139.16 371.75 1286.02 380.59 1178.71 467.23 1150.57 557.55 1272.37 565.54
00001395 00000137 1083.84 179.40 351.43 520.35 1139.69 375.70 1287.15 382.46 1178.91 469.97 1153.30 561.57 1275.85 567.97
00001396 00000138 1085.91 183.79 353.88 518.72 1139.98 381.37 1286.65 385.51 1176.76 475.75 1154.38 569.47 1277.11 573.97
00001397 00000139 1083.93 187.92 356.22 521.07 1137.46 386.57 1284.64 389.14 1173.81 485.27 1153.91 578.50 1275.17 581.69
00001398 00000140 1082.00 193.42 356.47 523.81 1135.14 394.87 1278.15 397.70 1168.13 494.43 1151.83 586.26 1270.23 589.34
00001399 00000141 1070.55 196.65 361.63 531.96 1121.46 407.81 1273.87 407.86 1156.38 506.87 1137.48 594.47 1259.75 594.61
00001400 00000142 1059.54 209.27 362.76 526.18 1113.70 416.64 1263.13 417.36 1146.33 513.11 1133.99 602.44 1249.57 602.55
00001401 00000143 1054.34 227.14 357.28 516.59 1105.26 424.26 1250.23 420.89 1139.05 516.23 1131.79 608.80 1242.21 604.80
00001402 00000144 1046.75 228.93 359.51 518.47 1095.30 433.27 1235.84 427.77 1127.68 522.08 1125.54 616.08 1231.46 609.93
00001403 00000145 1035.57 235.42 363.16 507.36 1080.36 436.75 1222.36 424.81 1116.27 527.56 1111.41 619.72 1227.08 610.86
00001404 00000146 1032.58 239.47 362.06 501.36 1073.14 438.46 1212.97 427.99 1106.35 530.70 1105.71 620.72 1218.56 613.20
00001405 00000147 1034.33 233.08 357.37 502.66 1074.94 437.27 1218.14 432.98 1110.14 527.70 1109.67 615.85 1219.44 610.04
00001406 DELETE   1043.25 227.64 356.09 499.88 1085.36 437.95 1222.58 428.44 1113.46 514.77 1117.62 611.28 1220.56 601.34
00001407 DELETE   1041.56 217.11 359.52 508.44 1082.44 427.13 1228.96 412.77 1123.05 514.06 1118.58 605.64 1233.35 594.70
00001408 DELETE   1034.24 208.39 370.11 508.95 1091.22 416.14 1226.13 405.13 1126.53 508.14 1125.08 595.69 1236.85 587.40
00001409 00000151 1038.91 194.68 371.80 515.81 1094.48 405.17 1233.98 395.48 1129.21 495.70 1123.34 583.93 1243.19 577.19
00001410 DELETE   1046.65 183.71 362.39 512.87 1083.44 398.89 1233.74 380.29 1125.26 487.13 1122.47 579.82 1244.54 566.12
00001411 DELETE   1047.52 173.18 362.66 516.04 1088.08 388.35 1235.74 371.52 1126.80 475.69 1126.03 569.82 1245.87 557.54
00001412 DELETE   1050.36 158.94 359.77 521.05 1091.22 374.56 1236.00 360.06 1125.82 464.22 1126.05 558.47 1242.43 548.17
00001413 00000155 1050.40 155.61 357.79 520.43 1092.07 365.09 1232.35 352.10 1123.80 458.06 1127.99 553.20 1239.67 544.09
00001414 00000156 1051.92 156.11 352.96 509.54 1097.49 361.00 1228.58 352.85 1121.16 444.19 1128.77 540.35 1227.03 531.81
00001415 DELETE   1042.66 137.30 357.88 517.65 1081.36 353.87 1225.56 339.22 1117.71 441.56 1117.84 536.47 1231.26 525.39
00001416 DELETE   1033.18 132.88 364.98 516.07 1084.00 344.03 1215.14 336.15 1111.59 436.30 1114.67 526.01 1224.85 520.49
00001417 DELETE   1027.76 121.79 370.51 522.07 1081.25 329.00 1213.86 319.93 1110.76 417.90 1108.43 514.72 1221.92 508.52
00001418 00000160 1027.99 112.97 367.58 523.46 1076.02 321.49 1213.58 309.92 1105.43 406.80 1102.90 508.55 1221.09 500.18
00001419 00000161 1024.46 111.64 364.90 522.16 1071.94 318.66 1210.15 306.62 1102.28 401.36 1097.67 503.92 1216.98 495.08
00001420 00000162 1022.85 108.14 364.29 525.11 1069.32 316.46 1210.63 305.72 1099.98 398.75 1091.89 502.18 1214.62 494.37
