Video ID: 	MkJSvTGsHnM
H: 	2160
W: 	3840
FPS: 	23.976023976023978

FRAME INDEX X0 Y0 W H [Landmarks (5 Points)]

00032705 00000000 1901.46 450.61 782.55 1079.18 1976.58 770.22 2280.52 757.83 1997.01 955.27 1997.73 1207.79 2251.44 1197.87
00032706 00000001 1900.34 471.37 772.83 1061.33 1973.52 775.67 2274.00 762.13 1995.09 957.45 2002.29 1214.68 2250.62 1203.71
00032707 00000002 1895.99 495.56 771.29 1054.92 1969.10 776.01 2266.57 757.94 1991.13 950.81 2003.15 1223.95 2252.75 1209.06
00032708 00000003 1894.70 487.57 767.05 1049.99 1961.07 777.85 2259.72 757.13 1982.95 953.23 2000.48 1221.97 2251.63 1204.53
00032709 00000004 1893.31 484.75 762.37 1047.13 1957.10 773.01 2253.84 753.89 1975.52 952.18 1987.11 1217.46 2244.77 1201.12
00032710 00000005 1886.80 461.62 771.94 1066.12 1946.28 776.98 2252.90 759.27 1983.55 963.29 1972.45 1214.25 2223.24 1198.54
00032711 00000006 1883.00 476.41 773.29 1044.13 1940.70 777.26 2251.60 762.67 1978.79 968.80 1966.58 1212.17 2222.08 1198.79
00032712 00000007 1883.69 473.73 766.46 1044.05 1946.00 788.79 2249.74 772.04 1984.02 974.47 1971.03 1217.08 2218.83 1202.34
00032713 00000008 1880.56 475.81 770.02 1042.37 1944.67 805.73 2246.34 785.27 1980.19 984.42 1970.94 1225.43 2219.26 1207.25
00032714 00000009 1879.12 463.11 776.60 1062.99 1949.98 801.04 2257.53 777.28 1992.30 973.95 1975.00 1228.94 2224.05 1208.50
00032715 00000010 1886.43 441.72 772.35 1084.75 1957.02 783.86 2276.17 763.10 2004.80 958.19 1988.80 1222.21 2238.77 1204.33
00032716 00000011 1893.73 406.17 781.31 1118.98 1959.77 778.12 2272.34 763.45 1993.82 955.11 1981.84 1209.26 2243.07 1196.95
00032717 00000012 1904.78 396.33 762.33 1120.93 1972.08 771.54 2286.22 753.92 2006.96 935.17 1990.50 1202.17 2243.32 1188.38
00032718 00000013 1912.13 390.27 767.71 1113.83 1984.92 765.37 2303.11 751.23 2026.75 922.05 2000.17 1188.31 2257.46 1177.42
00032719 00000014 1911.47 372.01 776.90 1125.27 1989.86 755.13 2305.84 727.46 2025.74 924.88 2014.74 1188.72 2281.90 1168.74
00032720 DELETE   1917.02 370.34 785.65 1122.00 2000.10 755.83 2328.18 737.49 2054.38 912.57 2020.35 1180.23 2274.71 1166.16
00032721 DELETE   1916.47 366.59 796.72 1117.59 2003.17 744.29 2346.10 732.09 2067.13 913.92 2030.07 1175.68 2287.59 1168.41
00032722 00000017 1924.98 358.75 794.37 1131.68 2011.12 731.20 2363.43 713.56 2081.71 898.16 2041.86 1173.51 2306.63 1161.88
00032723 00000018 1938.97 340.85 792.43 1134.15 2023.08 728.49 2381.81 707.19 2093.83 891.31 2052.28 1163.12 2330.69 1148.87
00032724 00000019 1944.36 331.68 793.83 1118.46 2030.69 713.82 2395.87 696.57 2111.29 879.17 2053.39 1138.31 2343.74 1127.84
00032725 00000020 1951.09 337.97 792.54 1103.99 2049.70 709.72 2415.90 695.49 2135.33 870.86 2061.09 1124.88 2363.25 1116.59
00032726 00000021 1961.36 321.67 800.29 1110.29 2069.19 698.92 2426.15 687.91 2146.24 854.04 2072.86 1111.17 2372.27 1105.23
00032727 00000022 1979.58 300.72 786.28 1139.44 2089.10 696.53 2450.66 676.40 2174.93 823.82 2085.29 1112.80 2390.05 1099.40
00032728 00000023 1990.05 296.14 789.68 1138.90 2104.02 691.67 2460.43 673.49 2175.28 811.85 2093.79 1104.24 2391.23 1092.62
00032729 00000024 1996.51 297.18 790.56 1117.06 2112.26 687.30 2468.75 670.29 2184.15 799.64 2098.74 1092.43 2391.99 1081.39
00032730 00000025 2003.51 286.71 788.58 1121.89 2119.33 679.59 2473.98 666.67 2188.56 794.82 2102.90 1081.80 2398.00 1073.94
00032731 00000026 2008.06 268.73 793.10 1141.58 2124.37 672.18 2482.25 667.59 2191.34 790.50 2102.78 1076.94 2402.48 1075.96
00032732 00000027 2010.64 258.56 797.86 1152.16 2127.61 670.17 2485.98 666.60 2190.99 788.12 2105.88 1077.77 2402.91 1077.86
00032733 00000028 2015.22 255.60 797.81 1158.06 2131.89 667.69 2487.59 669.10 2190.15 789.88 2106.77 1079.50 2399.84 1083.93
00032734 00000029 2016.11 274.48 803.97 1132.78 2135.94 672.16 2492.95 672.45 2193.82 789.45 2109.67 1080.70 2405.08 1085.02
00032735 00000030 2017.87 281.79 802.80 1129.98 2139.40 671.77 2494.52 671.22 2193.11 790.13 2113.94 1078.58 2410.85 1082.94
00032736 00000031 2022.01 287.98 797.19 1132.52 2142.99 664.18 2487.88 663.32 2188.91 786.76 2119.05 1078.05 2405.78 1082.03
00032737 00000032 2020.97 277.02 798.80 1152.75 2145.32 661.49 2488.65 658.04 2187.68 780.47 2116.71 1078.60 2402.75 1080.50
00032738 00000033 2021.60 286.66 796.43 1149.58 2147.78 661.33 2486.74 656.67 2184.83 778.49 2118.00 1081.73 2399.62 1082.18
00032739 00000034 2022.90 299.78 794.49 1138.23 2148.43 665.80 2485.81 653.79 2184.48 775.88 2119.20 1083.91 2400.24 1078.62
00032740 00000035 2022.96 303.25 790.12 1144.09 2147.15 659.09 2482.31 651.21 2184.16 782.46 2121.50 1082.66 2407.10 1080.69
00032741 00000036 2026.15 293.90 782.35 1160.95 2141.71 654.31 2476.15 649.72 2175.88 788.77 2118.72 1085.20 2403.08 1086.21
00032742 00000037 2020.38 303.20 783.11 1160.38 2136.43 657.74 2467.13 652.32 2169.74 794.99 2116.40 1089.33 2403.04 1088.87
00032743 00000038 2010.38 292.17 786.25 1174.94 2126.24 660.94 2459.46 657.31 2166.90 800.67 2114.60 1097.96 2399.76 1098.40
00032744 00000039 2001.22 304.01 791.03 1166.34 2112.30 668.39 2451.04 659.32 2157.42 804.14 2106.44 1108.32 2396.21 1103.48
00032745 00000040 1996.00 310.58 795.29 1158.04 2103.99 674.64 2442.26 665.51 2149.25 813.61 2100.98 1115.58 2389.46 1109.92
00032746 00000041 1997.37 318.24 787.87 1141.54 2102.46 674.57 2433.22 668.88 2145.93 814.87 2097.27 1110.00 2380.70 1107.23
00032747 00000042 1997.36 323.62 784.73 1130.21 2099.25 675.34 2426.77 669.21 2140.42 814.30 2094.36 1109.79 2374.38 1106.56
00032748 00000043 1993.55 321.97 780.17 1123.96 2096.67 674.75 2422.40 670.45 2137.58 814.39 2087.00 1103.70 2371.07 1101.93
00032749 00000044 1996.10 327.77 778.66 1112.25 2097.31 672.09 2418.65 670.31 2135.59 813.79 2084.53 1097.28 2364.83 1097.33
00032750 00000045 1991.48 329.80 775.18 1111.63 2094.16 672.28 2418.20 666.53 2137.29 812.87 2081.46 1097.30 2362.40 1094.67
00032751 00000046 1988.91 328.36 772.62 1122.72 2086.96 671.23 2412.44 663.85 2134.28 812.76 2079.08 1101.86 2359.99 1097.20
00032752 00000047 1985.07 325.94 778.56 1138.94 2082.03 669.68 2408.14 666.71 2128.90 821.02 2074.52 1105.77 2355.49 1104.69
00032753 00000048 1979.33 336.56 775.16 1093.51 2061.45 702.45 2406.87 691.71 2113.93 850.54 2051.96 1112.48 2329.99 1103.74
00032754 00000049 1971.14 333.69 784.33 1085.44 2062.82 698.14 2405.91 691.39 2108.66 842.16 2045.21 1098.92 2323.49 1093.25
00032755 00000050 1974.42 325.42 787.95 1087.28 2064.99 691.60 2409.16 684.94 2106.55 830.14 2040.01 1093.96 2317.90 1088.62
00032756 00000051 1979.09 325.93 780.21 1082.95 2070.37 695.27 2409.79 685.36 2111.17 825.15 2045.28 1093.30 2317.99 1085.03
00032757 00000052 1980.93 331.31 776.37 1074.71 2069.50 697.19 2410.62 686.37 2113.96 830.45 2047.53 1095.58 2317.10 1086.64
00032758 00000053 1979.36 329.13 779.82 1083.82 2068.43 701.90 2409.31 692.40 2113.34 838.53 2047.77 1099.51 2319.04 1091.99
00032759 00000054 1977.40 328.92 778.29 1096.77 2066.62 708.15 2408.05 698.84 2116.09 847.43 2049.77 1105.85 2322.12 1098.65
00032760 00000055 1978.62 331.51 775.16 1098.05 2062.88 708.61 2405.06 698.75 2115.61 851.55 2049.46 1113.39 2318.41 1105.82
00032761 00000056 1973.95 338.78 789.50 1094.84 2083.97 682.90 2409.42 690.66 2119.02 840.54 2060.51 1101.50 2321.78 1111.24
00032762 00000057 1974.89 348.04 791.46 1094.82 2083.52 684.22 2411.38 687.64 2118.71 837.20 2064.62 1107.04 2332.79 1112.51
00032763 00000058 1973.41 344.24 793.80 1102.41 2082.60 681.25 2411.82 684.56 2117.05 835.42 2063.09 1106.65 2333.84 1111.96
00032764 00000059 1974.09 342.39 793.07 1094.73 2084.03 678.64 2411.85 684.42 2117.21 836.22 2062.56 1102.35 2331.44 1109.98
00032765 00000060 1968.16 329.69 793.81 1101.02 2069.77 680.54 2412.13 688.34 2115.30 843.51 2048.25 1104.47 2330.32 1114.41
00032766 00000061 1968.04 339.48 795.77 1092.69 2071.83 681.51 2413.86 692.29 2117.17 842.71 2041.85 1099.22 2330.14 1112.22
00032767 00000062 1965.77 332.06 796.50 1100.09 2071.95 681.63 2411.70 691.94 2113.93 841.00 2041.32 1098.16 2322.78 1111.01
00032768 00000063 1963.11 329.75 796.04 1102.05 2067.97 682.86 2412.24 691.22 2113.14 838.66 2038.92 1102.76 2321.87 1114.12
00032769 00000064 1963.09 331.48 792.95 1098.10 2067.95 683.28 2409.66 692.09 2112.42 841.21 2039.60 1101.99 2321.11 1113.75
00032770 00000065 1962.18 331.30 799.77 1103.93 2066.14 684.81 2409.77 693.81 2107.65 837.60 2032.05 1103.93 2314.75 1115.76
00032771 00000066 1964.38 327.90 798.52 1113.55 2073.92 685.11 2410.64 692.17 2110.35 831.63 2041.24 1109.55 2310.82 1119.81
00032772 00000067 1963.36 326.08 798.28 1118.74 2072.63 685.82 2412.83 689.53 2110.86 830.63 2041.09 1114.53 2308.56 1122.09
00032773 00000068 1963.09 330.56 792.86 1115.01 2075.03 682.91 2415.81 687.95 2120.36 833.26 2045.69 1112.33 2315.43 1120.63
00032774 00000069 1960.23 330.03 796.18 1118.32 2073.35 683.63 2415.33 687.19 2121.44 832.69 2046.65 1113.44 2317.23 1120.55
00032775 00000070 1960.10 324.36 794.17 1121.48 2074.77 684.20 2412.73 688.54 2122.26 830.73 2049.71 1109.73 2317.86 1117.47
00032776 00000071 1959.99 328.47 798.59 1115.56 2074.73 686.66 2411.24 689.08 2117.78 829.07 2047.70 1110.92 2313.04 1117.23
00032777 00000072 1957.94 332.85 798.67 1117.33 2071.47 687.05 2409.48 689.12 2114.28 827.02 2043.85 1112.75 2310.82 1118.38
00032778 00000073 1955.56 330.83 799.10 1117.15 2069.21 688.18 2409.04 692.22 2112.68 830.72 2041.68 1113.34 2307.86 1120.96
00032779 00000074 1956.05 332.74 794.60 1107.39 2069.13 688.63 2407.41 694.28 2112.70 836.99 2043.08 1115.96 2302.54 1125.24
00032780 00000075 1957.01 339.58 798.65 1096.73 2070.62 690.08 2404.63 700.26 2107.18 842.21 2040.56 1110.33 2299.71 1123.21
00032781 00000076 1955.80 351.77 791.38 1085.23 2069.38 685.20 2405.22 695.24 2109.84 845.28 2039.74 1111.53 2298.94 1124.54
00032782 00000077 1955.83 340.20 789.16 1101.83 2064.35 690.08 2400.12 698.11 2105.85 848.36 2040.02 1117.33 2300.49 1128.88
00032783 00000078 1955.02 331.06 791.83 1108.79 2059.84 697.55 2397.50 698.46 2101.91 850.41 2038.39 1126.09 2296.64 1132.23
00032784 00000079 1951.28 333.80 793.62 1113.50 2059.48 698.01 2395.77 699.24 2099.02 847.84 2034.75 1135.78 2282.27 1142.43
00032785 00000080 1950.80 342.01 795.16 1099.55 2062.01 690.88 2395.13 696.19 2097.91 845.24 2035.56 1125.38 2285.86 1134.89
00032786 00000081 1947.88 319.50 800.97 1110.90 2056.88 690.44 2391.63 691.48 2095.38 831.89 2030.51 1112.09 2289.90 1118.51
00032787 00000082 1954.64 312.01 782.61 1111.14 2050.20 704.23 2390.93 684.47 2095.76 828.45 2034.08 1112.14 2291.94 1096.27
00032788 00000083 1961.30 313.35 777.54 1098.87 2051.31 701.28 2390.56 682.28 2095.22 825.86 2033.15 1103.24 2294.59 1087.97
00032789 00000084 1963.79 302.53 782.15 1105.62 2051.82 700.98 2393.75 682.76 2097.45 825.06 2033.33 1104.12 2295.01 1089.96
00032790 00000085 1961.27 313.36 784.27 1099.65 2052.94 702.52 2395.20 685.89 2098.57 829.38 2034.65 1104.00 2301.09 1090.94
00032791 00000086 1963.87 318.14 785.18 1103.53 2052.77 705.08 2396.21 688.76 2100.08 834.54 2035.69 1111.04 2305.89 1098.43
00032792 00000087 1965.67 319.77 783.76 1104.19 2049.35 706.06 2393.51 688.55 2098.32 838.42 2037.14 1112.23 2308.86 1098.41
00032793 00000088 1962.65 324.51 782.92 1098.74 2049.12 707.57 2389.10 691.16 2092.02 835.94 2032.77 1109.00 2299.89 1095.85
00032794 00000089 1964.84 325.03 781.23 1096.04 2051.61 701.83 2385.08 689.53 2085.68 835.21 2030.85 1104.30 2298.87 1094.12
00032795 00000090 1961.55 322.87 782.85 1107.54 2052.46 701.09 2389.93 688.28 2092.23 833.89 2035.11 1110.84 2302.84 1100.47
00032796 00000091 1960.33 327.64 783.31 1096.93 2059.72 680.32 2394.23 693.97 2099.20 833.59 2026.85 1096.79 2307.49 1112.95
00032797 00000092 1954.98 311.49 785.51 1115.59 2051.41 685.88 2387.49 694.69 2095.35 835.11 2021.96 1104.53 2301.06 1117.50
00032798 00000093 1953.21 325.34 782.73 1107.39 2046.58 683.52 2382.83 691.52 2090.69 839.13 2022.96 1104.45 2299.53 1116.28
00032799 00000094 1955.79 342.97 782.44 1086.48 2053.68 686.86 2386.45 702.07 2094.96 845.43 2026.68 1098.97 2307.45 1116.47
00032800 DELETE   1967.88 368.27 776.75 1064.56 2061.20 692.71 2385.86 693.95 2103.60 832.73 2038.35 1097.99 2322.01 1099.18
00032801 DELETE   1977.22 352.79 776.50 1084.51 2074.48 688.88 2408.84 684.35 2135.46 827.89 2056.50 1103.59 2343.95 1101.02
00032802 00000097 1981.79 345.75 785.82 1099.11 2080.09 693.43 2416.15 679.16 2142.11 832.87 2076.26 1118.42 2359.03 1107.23
00032803 DELETE   1974.48 356.54 786.94 1086.54 2069.29 698.79 2409.78 693.51 2121.44 845.43 2062.18 1121.63 2340.33 1120.83
00032804 DELETE   1958.49 353.15 792.65 1097.78 2045.86 700.32 2384.05 694.30 2088.42 848.50 2034.50 1121.92 2318.05 1121.27
00032805 DELETE   1951.35 352.52 769.22 1094.30 2028.63 698.37 2355.45 693.41 2061.73 846.90 2007.26 1120.60 2276.33 1122.90
00032806 00000101 1950.66 353.53 764.51 1091.41 2028.79 694.19 2352.14 694.69 2052.35 849.49 1999.26 1120.23 2267.34 1127.71
00032807 DELETE   1950.50 341.09 781.79 1105.18 2036.73 696.66 2366.31 694.31 2069.09 850.12 2021.14 1125.94 2284.73 1129.61
00032808 DELETE   1957.44 355.23 795.58 1098.09 2046.61 696.62 2388.31 696.24 2090.44 862.00 2044.79 1134.46 2309.79 1138.10
00032809 00000104 1965.00 343.40 786.20 1109.68 2053.27 689.50 2401.07 691.24 2109.05 867.28 2055.11 1137.65 2328.92 1143.00
00032810 DELETE   1958.77 354.66 796.51 1104.45 2046.82 698.81 2392.33 698.59 2091.63 868.94 2039.48 1139.68 2307.90 1143.57
00032811 DELETE   1954.09 341.74 783.66 1111.06 2033.71 696.22 2368.92 706.18 2069.17 874.74 2023.36 1134.08 2282.96 1147.46
00032812 00000107 1948.95 348.08 771.95 1110.14 2024.71 691.17 2365.90 707.11 2065.19 874.58 2015.25 1129.04 2288.78 1147.50
00032813 DELETE   1945.94 345.41 787.37 1126.57 2025.87 700.75 2379.72 699.18 2075.20 867.42 2024.96 1141.68 2312.35 1144.92
00032814 00000109 1948.47 352.03 801.61 1129.11 2034.39 708.03 2393.80 696.42 2084.61 865.53 2043.12 1148.96 2339.11 1142.95
00032815 00000110 1953.77 357.04 791.31 1112.35 2037.66 699.01 2392.19 692.08 2094.30 866.12 2047.73 1136.70 2341.49 1134.42
00032816 00000111 1949.88 352.79 799.57 1113.05 2038.41 698.93 2390.94 695.95 2089.69 862.58 2040.48 1132.66 2331.87 1134.23
00032817 00000112 1948.50 363.25 797.77 1101.43 2042.18 692.36 2388.36 700.76 2087.21 865.25 2039.38 1124.30 2322.27 1135.04
00032818 00000113 1948.98 348.97 801.98 1114.19 2044.87 693.55 2389.02 703.21 2085.93 866.32 2040.81 1128.50 2321.24 1140.73
00032819 00000114 1954.91 357.28 799.31 1106.76 2047.81 695.28 2388.26 705.40 2087.68 873.68 2046.46 1132.38 2317.61 1144.40
00032820 00000115 1961.82 371.39 793.29 1094.80 2052.86 699.02 2391.06 706.40 2091.15 873.30 2053.49 1135.48 2319.09 1144.18
00032821 00000116 1960.08 363.91 789.92 1101.46 2050.26 700.48 2392.77 712.28 2093.86 880.61 2051.16 1138.46 2322.57 1151.34
00032822 00000117 1960.37 375.42 798.35 1090.65 2052.88 700.94 2397.35 717.45 2099.09 885.75 2048.22 1137.06 2321.32 1153.85
00032823 00000118 1959.72 368.25 795.58 1097.99 2047.29 704.56 2392.91 722.31 2095.80 894.02 2046.01 1144.03 2323.63 1162.25
00032824 00000119 1955.43 366.55 800.07 1102.93 2044.25 705.25 2390.04 725.71 2096.28 903.22 2044.78 1150.12 2317.44 1170.62
00032825 00000120 1954.40 381.12 795.63 1090.79 2041.35 705.54 2389.34 727.30 2092.27 904.50 2046.14 1151.77 2319.54 1173.17
00032826 00000121 1955.45 378.35 798.97 1102.51 2042.36 709.03 2391.73 726.92 2091.49 904.58 2049.00 1159.54 2323.81 1177.77
00032827 00000122 1961.78 391.31 797.47 1110.46 2046.78 712.22 2388.72 724.89 2087.60 904.33 2052.58 1165.84 2326.44 1178.16
00032828 00000123 1961.14 403.59 791.16 1099.53 2044.33 712.21 2382.08 723.55 2084.60 904.46 2054.72 1163.85 2332.32 1174.19
00032829 00000124 1953.38 396.65 797.04 1114.52 2034.07 722.57 2377.43 722.78 2081.43 908.01 2050.40 1172.57 2332.97 1173.61
00032830 00000125 1947.90 400.17 798.73 1106.59 2031.57 720.73 2373.31 726.81 2081.32 908.60 2042.67 1165.44 2322.39 1171.18
00032831 00000126 1948.95 400.34 790.51 1087.37 2027.12 716.61 2372.20 726.58 2080.41 903.76 2036.77 1156.00 2315.85 1167.03
00032832 00000127 1947.86 399.18 793.37 1074.09 2025.40 713.60 2372.04 727.49 2078.78 899.93 2028.07 1150.39 2304.64 1166.65
00032833 00000128 1948.98 391.98 791.87 1072.56 2024.91 714.57 2370.53 727.86 2076.74 898.07 2028.53 1149.00 2300.63 1165.37
00032834 00000129 1945.73 394.87 794.03 1066.91 2023.65 714.50 2370.35 724.69 2077.02 894.28 2025.23 1146.09 2299.26 1160.02
00032835 00000130 1949.46 398.19 791.14 1066.35 2022.12 718.57 2364.98 727.57 2068.57 900.84 2026.05 1152.86 2296.10 1165.78
00032836 00000131 1944.61 394.66 784.66 1079.41 2017.45 720.42 2357.76 732.60 2063.78 905.54 2019.87 1155.66 2288.55 1170.73
00032837 00000132 1940.44 387.95 785.25 1104.93 2013.97 724.77 2354.22 736.30 2055.43 912.29 2016.67 1170.46 2286.23 1183.14
00032838 00000133 1934.98 389.33 791.19 1118.72 2013.91 731.52 2351.05 736.44 2053.66 914.99 2020.24 1178.03 2295.80 1183.16
00032839 00000134 1937.75 414.01 780.21 1084.66 2014.39 729.13 2351.08 736.94 2057.47 908.35 2012.91 1162.88 2300.05 1170.89
00032840 00000135 1935.45 404.39 784.58 1070.60 2013.65 725.19 2350.52 735.35 2058.54 902.72 2011.90 1151.98 2287.55 1164.07
00032841 00000136 1935.19 395.16 784.16 1071.58 2005.97 728.38 2347.83 735.98 2052.55 905.59 2004.43 1154.38 2279.78 1165.89
00032842 00000137 1936.67 391.23 782.48 1076.30 2008.53 732.00 2348.07 741.64 2052.76 909.13 2007.58 1156.31 2276.75 1169.36
00032843 00000138 1931.19 370.84 794.13 1106.69 2009.38 733.14 2352.87 740.85 2060.17 910.07 2013.09 1162.05 2281.91 1173.01
00032844 00000139 1933.11 375.59 798.31 1113.89 2009.20 736.27 2355.64 740.15 2057.69 915.08 2016.70 1175.62 2295.21 1182.64
00032845 00000140 1933.94 385.81 794.33 1102.13 2010.21 731.63 2358.25 739.42 2060.85 914.69 2014.74 1173.70 2296.69 1184.01
00032846 00000141 1931.54 376.56 798.83 1101.62 2008.63 724.61 2357.98 737.21 2059.55 912.30 2012.51 1163.28 2289.18 1178.58
00032847 00000142 1932.09 373.53 797.98 1105.60 2009.42 725.66 2359.52 737.72 2060.44 911.92 2013.64 1163.91 2289.46 1178.68
00032848 00000143 1932.94 376.86 797.03 1099.47 2007.52 727.10 2356.96 738.77 2059.64 914.96 2012.08 1165.37 2291.21 1180.10
00032849 00000144 1930.89 386.75 798.37 1105.36 2010.85 729.90 2355.02 742.45 2057.43 915.83 2013.65 1167.25 2291.79 1180.63
00032850 00000145 1930.93 386.97 803.68 1106.42 2011.41 729.64 2355.10 741.92 2056.30 916.17 2015.29 1168.34 2291.95 1181.20
00032851 00000146 1930.98 388.43 803.27 1095.10 2009.25 729.30 2356.35 741.93 2057.59 915.68 2013.67 1165.65 2292.77 1179.88
00032852 00000147 1931.11 380.07 803.21 1099.73 2008.23 727.08 2356.22 740.45 2058.66 915.77 2013.10 1163.40 2291.80 1178.73
00032853 00000148 1932.87 385.28 796.92 1097.52 2008.86 724.04 2354.61 739.27 2055.14 913.18 2012.33 1161.92 2290.07 1178.15
00032854 00000149 1930.75 392.93 796.30 1084.10 2006.27 724.00 2356.34 740.12 2056.06 912.40 2007.28 1158.94 2290.37 1176.14
00032855 00000150 1931.43 379.94 792.56 1093.83 2004.91 725.63 2351.66 740.83 2051.47 914.07 2009.45 1160.44 2285.09 1177.32
00032856 00000151 1931.14 380.40 791.51 1092.87 2006.83 725.13 2349.94 739.74 2050.12 911.95 2009.47 1158.46 2281.20 1174.71
00032857 00000152 1931.31 389.81 790.67 1089.29 2008.32 722.62 2352.08 738.08 2049.12 909.03 2007.52 1156.57 2282.02 1172.83
00032858 00000153 1933.72 399.30 790.01 1078.38 2011.12 720.72 2353.09 736.26 2054.14 906.76 2009.53 1155.00 2284.24 1171.52
00032859 00000154 1932.36 400.31 794.48 1080.11 2012.08 719.87 2352.88 735.26 2054.69 906.19 2011.46 1153.53 2289.67 1169.35
00032860 00000155 1931.02 393.32 794.73 1082.50 2010.54 714.21 2356.98 730.77 2056.25 902.29 2009.93 1150.56 2286.39 1167.93
00032861 00000156 1932.01 390.38 797.63 1085.90 2011.08 710.13 2355.64 729.11 2054.76 903.48 2012.83 1147.63 2287.51 1166.81
00032862 00000157 1934.31 384.49 797.15 1090.93 2011.33 707.62 2356.96 726.88 2057.11 905.19 2015.67 1148.26 2291.94 1167.69
00032863 00000158 1935.39 394.52 797.34 1090.59 2012.07 708.63 2357.41 723.99 2059.05 906.16 2018.79 1152.75 2299.90 1168.00
