Video ID: 	VWsZQzWmo14
H: 	1080
W: 	1920
FPS: 	23.976023976023978

FRAME INDEX X0 Y0 W H [Landmarks (5 Points)]

00002368 00000000 752.89 223.87 441.28 634.20 816.26 471.34 994.53 472.31 855.31 589.35 822.90 704.92 957.06 708.32
00002369 DELETE   740.62 227.46 449.41 638.34 803.25 475.78 983.93 476.97 842.05 596.22 810.91 710.02 947.48 713.21
00002370 DELETE   721.65 240.98 455.76 636.88 787.09 491.42 964.74 492.25 827.49 615.46 803.57 724.50 933.38 726.36
00002371 DELETE   711.45 252.36 452.35 633.13 770.79 504.96 949.63 506.06 805.76 625.66 789.84 735.94 919.14 737.56
00002372 00000004 702.76 254.44 456.34 630.97 764.91 505.73 945.96 506.33 800.90 621.84 784.77 736.27 916.37 737.08
00002373 00000005 705.93 247.84 456.78 634.32 768.48 498.38 947.47 500.94 804.13 618.04 787.10 728.93 920.09 731.53
00002374 00000006 706.09 244.34 457.81 635.88 769.77 493.77 949.31 496.99 806.13 614.66 787.42 725.47 921.24 728.82
00002375 00000007 705.06 244.96 457.51 636.39 768.30 495.39 949.48 499.47 806.37 619.02 786.88 725.78 925.17 729.67
00002376 00000008 700.79 251.70 459.49 633.06 764.12 502.72 947.56 505.63 804.32 627.26 786.78 732.67 926.53 735.33
00002377 00000009 698.72 266.11 459.55 621.78 763.95 507.61 948.25 509.72 808.00 634.29 790.73 737.70 930.73 739.17
00002378 00000010 700.06 271.88 457.41 621.78 762.42 514.80 947.25 510.96 814.76 640.91 794.13 743.28 937.50 740.96
00002379 00000011 700.01 274.43 461.69 622.50 763.17 517.09 949.14 513.30 816.95 645.53 796.40 746.42 940.74 743.70
00002380 00000012 701.08 276.72 461.76 621.45 762.52 518.71 949.73 516.56 816.83 651.72 797.28 748.70 941.81 747.07
00002381 00000013 701.70 278.36 461.41 618.60 761.53 520.16 950.24 517.94 817.00 654.14 796.48 749.33 940.41 747.78
00002382 00000014 703.35 277.17 461.58 618.87 762.68 516.17 953.21 516.47 813.42 653.15 796.79 750.09 940.58 750.08
00002383 00000015 703.84 278.49 461.40 616.74 764.18 516.63 954.89 516.67 816.32 652.72 798.43 751.00 941.21 750.79
00002384 00000016 704.44 278.49 461.52 616.94 765.47 516.33 955.74 517.01 817.37 653.13 799.17 751.21 941.27 751.59
00002385 00000017 705.30 279.20 460.42 614.84 766.26 516.85 956.37 517.27 818.53 652.79 800.46 751.74 941.58 751.95
00002386 00000018 706.00 279.16 461.04 614.83 767.88 517.02 957.13 517.41 820.32 652.48 802.65 751.68 942.40 751.89
00002387 00000019 706.59 279.35 459.30 614.23 769.42 517.09 958.25 517.61 821.55 650.87 802.83 750.93 942.63 751.29
00002388 00000020 704.96 274.33 461.56 624.32 767.44 521.61 953.43 522.15 815.30 648.25 802.07 746.81 947.21 746.43
00002389 00000021 700.97 277.74 463.17 624.14 761.97 522.43 949.84 520.14 814.22 649.01 797.98 746.35 948.39 743.98
00002390 00000022 699.68 278.78 459.13 621.09 756.91 523.54 940.15 519.92 807.58 649.66 794.69 745.65 943.70 742.24
00002391 00000023 697.56 276.52 456.73 621.26 753.35 523.78 936.03 517.97 804.43 650.50 792.95 747.32 938.34 742.64
00002392 00000024 695.54 277.16 455.82 618.49 749.30 525.43 931.70 517.00 800.99 651.53 791.13 750.99 932.05 744.36
00002393 00000025 695.70 278.49 454.12 616.24 748.16 525.75 929.59 517.48 799.88 654.27 790.57 753.05 929.89 746.58
00002394 00000026 695.86 278.86 454.22 613.54 749.17 528.64 930.99 520.44 801.12 655.79 791.40 752.29 929.57 745.85
00002395 00000027 695.06 279.24 461.80 615.84 753.33 528.17 941.71 523.72 805.59 655.54 793.39 752.62 937.26 748.11
00002396 00000028 701.18 277.57 459.49 614.86 756.50 527.97 943.12 523.22 807.09 655.62 796.49 750.93 940.13 746.16
00002397 00000029 704.72 271.13 458.41 624.69 761.03 521.41 943.43 518.31 807.34 651.20 797.60 750.62 937.44 747.32
00002398 00000030 705.17 264.49 458.92 629.55 763.23 516.96 947.28 510.47 811.14 640.82 797.97 754.31 929.41 749.29
00002399 00000031 706.35 257.60 457.60 634.78 766.54 511.46 946.48 504.96 811.10 633.87 800.33 752.00 924.46 746.91
00002400 00000032 707.26 253.05 458.26 633.74 768.54 509.21 944.74 500.49 812.49 629.42 805.23 747.11 927.02 740.32
00002401 00000033 708.91 245.72 460.35 635.33 773.02 507.20 946.55 499.53 816.32 619.76 806.87 733.18 936.62 727.08
00002402 00000034 710.33 241.10 463.95 634.23 776.46 502.44 951.02 493.12 820.81 610.99 808.82 724.29 942.80 717.16
00002403 00000035 712.30 242.02 462.74 627.68 778.17 492.43 953.22 484.67 820.69 603.21 807.54 715.93 943.94 709.84
00002404 00000036 711.62 238.05 461.87 629.11 778.54 486.45 954.14 479.38 819.80 596.71 804.66 710.62 944.94 705.06
00002405 00000037 710.76 234.25 458.82 632.36 775.85 482.95 952.35 475.38 816.35 595.63 802.57 711.16 943.84 705.11
00002406 00000038 710.24 231.30 455.69 635.79 767.15 483.14 944.97 470.50 809.07 598.79 797.90 711.71 942.41 700.54
00002407 00000039 708.11 234.16 456.21 636.63 765.31 483.96 940.45 469.66 805.43 599.68 798.99 712.82 943.09 700.16
00002408 00000040 706.90 233.22 456.19 640.56 765.77 483.42 940.01 468.29 805.31 598.00 798.24 711.36 943.20 698.03
00002409 00000041 707.25 231.13 456.74 638.83 765.34 482.31 939.96 468.39 803.81 596.46 795.38 708.09 940.11 695.93
00002410 00000042 707.58 230.85 455.32 635.16 764.16 482.21 939.69 469.30 803.83 596.40 793.00 706.82 936.80 695.78
00002411 00000043 708.10 230.79 454.65 632.41 763.61 482.22 939.11 470.27 803.09 596.72 791.88 705.82 934.24 695.81
00002412 00000044 706.34 230.14 454.99 630.96 759.30 483.11 934.74 470.79 798.71 598.66 789.75 707.09 930.78 696.98
00002413 00000045 704.08 230.61 455.79 631.78 756.13 484.31 931.50 471.54 795.72 600.11 787.49 709.06 927.72 698.77
00002414 00000046 700.46 237.90 459.61 626.02 750.72 491.36 924.51 478.95 787.88 602.93 785.25 711.54 922.59 701.54
00002415 00000047 697.40 238.49 458.76 631.46 746.25 498.05 918.37 484.20 782.38 608.68 781.75 718.91 918.36 707.74
00002416 00000048 692.32 239.66 459.28 641.63 741.94 501.81 912.29 486.40 776.70 615.68 781.35 727.84 915.79 715.34
00002417 00000049 688.94 244.09 458.25 644.47 740.87 507.38 906.70 490.54 772.95 621.05 782.52 735.15 913.23 721.30
00002418 00000050 685.07 250.76 457.95 643.33 737.92 511.94 901.96 493.45 770.35 625.99 780.96 741.39 907.45 726.44
00002419 00000051 683.97 252.33 451.88 646.13 734.97 516.19 899.00 496.30 767.06 629.77 778.25 746.65 903.66 730.73
00002420 00000052 679.52 255.89 453.92 643.18 730.24 519.99 895.25 498.62 764.69 634.72 776.86 751.61 899.64 734.68
00002421 00000053 675.87 259.78 456.38 640.59 727.78 522.49 891.26 500.58 761.52 636.82 776.39 753.86 896.99 736.45
00002422 00000054 672.32 262.33 457.88 636.94 726.06 522.73 889.28 502.47 760.43 637.95 775.86 754.35 895.19 738.20
00002423 00000055 670.11 264.46 458.93 634.91 724.01 522.18 887.25 502.87 758.14 638.99 773.84 754.65 893.42 739.24
00002424 00000056 669.83 265.70 457.41 634.36 723.46 522.71 886.77 504.17 757.29 640.08 772.54 754.96 892.74 740.13
00002425 00000057 669.74 266.41 457.09 634.49 723.08 523.35 885.85 504.88 755.54 640.06 771.96 755.98 891.73 741.21
00002426 00000058 669.86 268.44 455.56 633.52 722.29 523.93 884.06 506.66 752.50 640.78 770.79 757.14 889.74 743.24
00002427 00000059 670.10 268.71 455.55 634.03 722.02 523.96 882.92 508.23 749.84 640.28 768.74 756.58 887.56 743.98
00002428 00000060 667.52 264.93 454.22 637.52 719.92 527.23 886.82 508.11 755.69 637.95 767.54 756.93 893.81 741.63
00002429 00000061 665.73 265.58 455.29 642.05 719.42 529.88 885.79 510.97 755.40 642.04 766.37 761.31 891.55 746.29
00002430 00000062 662.34 268.98 458.26 644.78 717.09 531.40 884.47 512.91 753.41 646.48 763.12 764.17 890.91 749.54
00002431 00000063 657.47 272.05 463.20 648.92 715.09 536.31 880.99 515.53 752.60 649.81 764.18 768.84 890.94 752.09
00002432 00000064 653.37 275.14 467.89 649.96 712.53 539.43 878.23 520.40 748.84 655.14 759.79 771.06 888.17 755.85
00002433 00000065 648.03 283.51 474.59 640.98 708.91 547.47 875.71 530.45 747.28 660.57 757.37 771.01 884.92 757.35
00002434 00000066 643.08 285.63 476.80 636.93 705.79 558.64 875.39 536.68 748.35 661.52 752.74 774.20 883.90 756.62
00002435 00000067 644.24 285.39 468.74 631.86 702.30 549.70 872.06 536.98 740.76 666.76 743.28 768.09 874.80 757.74
00002436 00000068 644.35 287.78 466.99 621.24 700.04 548.80 871.07 537.13 739.14 667.60 741.37 764.39 873.95 754.79
00002437 00000069 642.82 290.59 466.25 614.83 698.58 549.88 870.40 538.37 738.47 668.79 740.02 762.28 875.52 752.63
00002438 00000070 642.01 293.31 466.37 608.51 695.41 551.79 867.88 539.45 736.32 670.11 738.68 761.94 877.05 751.52
00002439 00000071 639.66 295.33 467.68 609.59 693.13 551.28 865.15 540.27 732.00 671.75 737.32 761.63 875.39 752.31
00002440 00000072 639.09 295.44 464.71 627.31 693.06 556.97 858.53 539.33 727.37 672.84 739.38 769.50 869.94 753.43
00002441 00000073 638.88 299.55 466.66 639.87 689.72 557.79 849.43 543.13 711.63 679.23 740.58 778.01 875.82 763.46
00002442 00000074 638.19 299.77 458.98 635.82 685.46 558.17 839.44 548.78 702.32 682.38 734.74 776.33 861.67 766.67
00002443 DELETE   635.79 296.21 457.21 634.29 681.29 566.87 834.13 560.29 697.13 681.01 725.20 773.28 850.58 766.22
00002444 00000076 633.01 296.63 457.50 634.28 677.13 567.88 832.27 566.14 696.24 688.27 719.04 774.97 844.09 772.28
00002445 00000077 632.63 299.04 457.05 637.43 680.69 569.78 832.73 571.89 698.55 697.26 726.63 777.89 851.70 777.80
00002446 00000078 631.30 306.93 458.44 646.98 680.02 577.09 829.57 573.69 697.27 710.32 736.56 795.36 857.09 790.30
00002447 00000079 628.94 316.37 461.00 642.38 678.20 585.34 829.26 581.42 697.55 722.90 738.04 802.16 860.64 796.67
00002448 00000080 625.34 318.01 460.34 642.70 673.74 593.18 823.42 588.65 693.95 731.93 733.77 806.91 857.03 801.07
00002449 DELETE   621.86 326.19 461.39 636.52 668.81 600.17 817.16 594.20 690.55 739.54 731.49 818.90 845.62 812.66
00002450 00000082 613.25 339.30 452.51 633.66 667.43 604.59 818.43 598.67 695.67 734.62 727.96 821.71 849.25 815.80
00002451 00000083 612.13 340.44 452.77 635.98 666.25 606.05 816.69 597.65 693.88 735.28 729.68 823.41 855.02 815.08
00002452 00000084 620.79 326.74 459.82 649.43 670.50 606.85 815.10 588.53 686.84 736.60 741.22 823.62 863.09 805.92
00002453 DELETE   625.99 309.58 460.63 657.97 673.73 589.93 824.58 574.16 689.74 724.27 742.84 816.48 864.35 801.26
00002454 DELETE   630.58 296.30 461.85 654.20 678.02 571.51 831.78 567.47 694.44 712.34 738.50 797.25 863.37 791.56
00002455 00000087 636.31 293.61 461.46 642.59 684.61 563.67 841.50 561.25 705.50 698.60 734.84 780.55 862.11 776.57
00002456 00000088 637.14 298.62 459.15 634.00 684.79 560.94 843.91 557.15 706.42 690.45 727.67 776.15 859.51 771.36
00002457 00000089 630.03 293.80 457.53 647.20 679.44 565.02 834.82 559.86 698.59 692.52 726.26 778.39 860.61 772.33
00002458 00000090 618.92 302.75 456.44 651.76 670.24 577.87 824.29 567.37 690.60 710.66 728.63 793.19 866.39 782.40
00002459 DELETE   615.53 296.02 459.84 651.74 665.92 577.09 826.83 560.16 697.52 712.45 728.80 798.48 865.48 783.09
00002460 00000092 627.56 282.33 468.03 647.00 684.74 555.42 857.26 537.67 723.47 688.47 740.55 779.66 883.97 762.86
00002461 DELETE   636.07 272.53 478.21 645.14 701.10 549.26 881.48 523.39 758.36 668.48 751.57 771.79 903.88 750.66
00002462 00000094 652.06 261.47 464.60 644.84 715.36 538.47 899.44 519.33 772.42 654.81 756.44 759.49 917.04 744.04
00002463 00000095 655.40 262.97 460.46 643.78 721.08 535.19 906.07 521.51 778.21 653.30 757.25 756.85 914.10 746.57
00002464 00000096 658.53 273.74 458.50 639.54 726.54 541.27 908.08 528.82 781.60 662.67 762.69 763.71 906.46 754.23
00002465 00000097 663.62 281.17 456.01 633.38 729.86 544.93 912.51 531.12 787.99 669.37 771.09 767.21 911.49 756.70
00002466 00000098 668.52 281.19 453.37 628.98 735.37 543.49 916.91 530.25 792.73 666.77 776.03 763.61 914.99 753.62
00002467 00000099 672.54 275.42 452.78 628.94 737.46 539.90 919.11 526.95 792.79 662.10 778.48 759.24 918.05 749.17
00002468 00000100 675.19 274.11 449.79 628.31 738.95 535.62 920.21 524.12 791.87 658.07 777.88 757.53 915.09 748.67
00002469 00000101 677.61 274.72 450.25 627.19 740.63 534.49 920.83 523.69 792.57 657.33 779.36 757.14 916.63 748.81
00002470 00000102 678.08 275.19 451.38 629.59 742.36 536.53 922.24 526.23 795.63 660.59 782.31 759.55 919.63 751.64
00002471 00000103 678.45 279.63 450.88 628.03 742.34 538.48 920.94 528.07 794.61 663.02 781.71 761.42 920.82 753.53
00002472 00000104 677.10 281.77 452.74 627.40 740.44 540.75 919.20 528.84 792.37 662.99 779.38 761.93 919.08 752.91
00002473 00000105 674.28 279.90 449.71 631.26 737.10 541.71 917.71 529.91 790.62 663.52 774.44 763.92 913.36 755.22
00002474 00000106 669.60 278.53 450.90 632.92 732.74 542.94 914.25 531.56 788.51 665.86 767.59 766.74 905.69 758.65
00002475 00000107 660.06 279.31 457.77 639.38 728.65 552.61 906.48 542.76 781.66 666.28 762.97 767.10 901.38 759.78
00002476 00000108 650.57 280.96 467.50 645.63 723.57 558.13 900.71 542.29 779.77 669.98 764.45 772.20 906.85 759.55
00002477 00000109 648.87 273.39 469.07 644.50 722.81 550.09 903.40 532.69 780.83 661.30 764.75 767.09 910.68 753.31
00002478 00000110 663.27 260.10 457.85 645.24 726.87 540.20 906.78 518.75 781.43 653.92 774.20 758.74 919.37 740.83
00002479 00000111 675.56 253.58 455.17 640.02 734.63 522.72 911.64 501.01 785.07 641.88 783.32 743.38 927.47 725.39
00002480 00000112 686.33 252.47 458.01 635.35 742.05 515.19 917.29 499.23 789.55 639.90 788.23 735.07 932.11 721.88
00002481 00000113 688.81 248.96 459.94 638.42 747.61 508.82 920.78 498.38 791.71 633.56 784.97 731.38 924.33 723.15
00002482 00000114 687.58 244.25 447.21 636.61 741.10 503.06 912.92 501.00 779.21 629.61 764.53 726.83 899.19 726.52
00002483 00000115 686.56 248.25 447.44 634.54 738.84 509.44 908.89 507.32 776.20 632.69 764.57 729.13 897.57 728.66
00002484 00000116 686.74 243.22 446.18 634.11 737.41 513.02 905.67 509.74 774.33 627.62 763.43 728.14 894.85 726.51
00002485 00000117 687.25 238.00 448.00 635.03 735.60 500.71 900.40 495.04 768.45 616.04 759.14 723.63 887.47 720.43
00002486 00000118 688.17 234.74 446.25 635.26 738.32 492.18 903.55 487.68 768.34 609.30 757.43 718.77 888.09 716.81
00002487 00000119 691.28 238.40 445.69 629.19 740.45 487.22 909.10 484.69 772.40 607.77 758.44 715.69 892.50 715.29
00002488 00000120 691.05 237.21 447.47 631.39 741.22 485.38 911.24 483.04 773.18 605.94 758.71 714.74 894.46 714.41
00002489 00000121 690.71 235.99 449.71 635.86 741.84 485.84 911.24 482.14 771.67 604.26 760.46 715.16 896.14 713.60
00002490 00000122 691.88 235.65 450.34 640.82 742.18 486.04 911.68 482.13 770.08 603.96 760.98 715.90 898.55 714.06
00002491 00000123 692.55 235.43 450.35 641.98 742.19 486.04 910.82 481.52 768.92 604.16 762.94 715.20 902.76 712.68
00002492 00000124 689.47 229.11 451.87 645.80 741.30 486.05 909.80 479.93 769.14 601.37 762.57 714.30 898.95 710.55
00002493 00000125 687.52 225.19 450.93 650.64 739.55 485.61 907.68 478.04 765.10 596.96 758.55 714.75 893.29 709.81
00002494 00000126 683.23 220.98 450.20 654.24 737.32 485.71 905.81 475.63 762.96 592.70 756.54 715.54 889.05 708.82
00002495 00000127 683.99 212.45 446.89 657.10 736.61 482.90 906.31 472.42 762.74 588.58 756.55 713.24 888.91 706.39
00002496 00000128 687.40 210.12 447.33 659.67 739.12 477.99 909.04 469.07 763.62 584.88 758.83 709.74 892.81 703.88
00002497 00000129 696.37 214.56 446.45 669.83 749.68 475.90 917.18 465.31 772.32 585.63 774.91 709.39 917.08 700.81
00002498 00000130 705.53 217.33 444.87 666.58 758.10 475.37 925.63 465.42 784.60 590.36 784.18 705.96 929.70 697.55
00002499 00000131 712.87 217.69 447.12 649.57 764.14 474.25 933.39 469.22 791.97 588.45 782.39 700.44 923.01 696.26
00002500 00000132 714.63 209.41 445.54 639.13 764.94 466.42 937.23 466.83 793.90 581.94 777.23 692.06 911.67 693.44
00002501 00000133 715.82 209.51 444.17 632.66 764.99 463.35 938.91 463.29 794.46 575.39 774.44 689.85 904.77 691.25
00002502 00000134 716.13 208.13 445.39 632.62 767.00 461.86 940.09 461.66 796.16 573.18 776.61 688.63 904.37 689.94
00002503 00000135 716.42 205.69 445.13 634.48 767.26 459.16 940.55 458.63 796.68 572.22 778.08 686.97 906.33 688.02
00002504 00000136 716.43 204.05 444.74 637.03 766.92 457.14 939.79 456.49 795.16 569.55 777.35 686.52 905.53 687.41
00002505 00000137 717.78 201.63 444.25 640.22 769.15 455.81 942.14 456.01 796.95 569.11 779.80 685.42 909.69 686.72
00002506 00000138 720.30 202.77 441.65 634.45 769.31 457.99 942.49 457.54 799.07 573.04 781.36 686.73 907.82 687.74
00002507 00000139 720.73 203.53 440.51 634.41 767.47 458.59 940.58 456.47 796.03 572.73 780.94 690.08 902.43 690.07
00002508 00000140 721.72 200.99 440.53 640.02 767.13 457.09 938.06 453.93 793.13 571.15 780.86 694.04 896.35 693.44
00002509 00000141 721.63 199.36 440.40 641.40 764.76 457.15 935.73 453.22 790.82 569.81 777.92 693.87 894.03 692.71
00002510 00000142 720.83 198.91 438.10 640.39 761.74 457.71 932.07 453.89 787.46 569.62 772.20 692.64 891.22 691.92
00002511 00000143 719.20 199.78 436.98 641.28 758.36 460.35 929.63 456.10 784.15 570.40 767.62 695.22 887.08 694.45
00002512 00000144 716.05 201.62 438.74 644.88 756.31 464.23 926.57 461.06 780.75 574.04 764.68 699.30 883.55 699.56
00002513 00000145 712.49 207.84 436.83 644.47 752.63 471.88 922.94 470.45 779.04 584.76 762.59 708.97 884.77 710.20
00002514 00000146 709.13 221.62 437.39 642.29 749.87 476.29 916.09 480.13 772.51 593.98 758.47 713.15 881.29 718.37
00002515 DELETE   701.21 231.50 436.36 640.61 744.51 485.53 905.01 491.07 763.26 607.29 753.96 723.06 869.37 729.74
00002516 DELETE   692.35 244.14 439.22 639.55 733.38 502.01 896.73 505.56 750.67 624.43 748.98 741.06 860.41 745.79
00002517 00000149 686.05 253.74 438.87 642.48 726.98 523.23 894.76 517.52 748.66 638.72 748.61 757.64 862.00 755.36
00002518 00000150 675.75 250.62 441.56 663.74 719.48 531.00 889.59 531.23 739.98 653.61 741.77 767.61 863.12 769.46
00002519 00000151 675.28 259.91 444.38 661.52 720.86 531.23 884.95 534.09 737.50 658.93 745.86 766.70 871.64 769.82
00002520 00000152 676.71 258.90 443.09 660.50 723.08 529.07 885.95 533.38 739.10 656.87 747.01 762.82 875.37 767.08
00002521 00000153 678.30 255.78 442.60 654.68 722.68 528.50 887.54 530.85 740.62 653.19 745.90 759.23 876.52 761.91
00002522 00000154 680.53 257.26 440.56 646.93 722.81 524.77 887.23 529.19 738.74 651.00 744.40 754.59 871.86 759.12
00002523 00000155 682.39 255.86 438.70 648.53 723.51 523.69 887.70 528.69 737.92 649.54 744.39 754.90 869.29 760.04
00002524 00000156 686.20 253.66 435.65 652.46 724.39 524.06 889.23 527.90 738.29 648.57 744.72 759.17 863.69 763.75
00002525 00000157 689.15 255.51 433.37 646.91 725.91 522.95 893.07 526.17 742.43 646.17 744.04 759.88 862.04 764.36
00002526 00000158 695.54 253.30 430.96 648.84 732.14 517.65 897.38 519.66 749.48 641.39 748.82 758.29 861.86 762.37
00002527 00000159 701.29 249.58 434.70 657.36 742.58 512.65 904.15 514.37 757.95 633.66 758.91 754.92 871.30 758.59
00002528 00000160 709.40 250.69 433.40 656.52 750.63 506.37 909.13 510.81 764.22 632.93 765.33 753.22 875.14 759.40
00002529 00000161 724.47 244.43 433.99 654.18 759.94 494.97 917.95 506.33 769.46 624.81 773.84 740.60 883.07 750.78
00002530 00000162 727.41 243.22 434.23 651.54 763.02 496.68 921.01 506.30 773.49 622.37 776.81 737.72 887.04 746.06
00002531 00000163 726.78 244.20 436.40 651.53 764.14 497.40 923.07 506.65 775.03 622.17 777.71 735.79 892.68 743.60
00002532 00000164 726.85 247.71 436.97 652.43 764.54 500.13 924.76 508.82 775.25 625.72 779.72 736.08 900.11 743.29
00002533 00000165 725.48 250.56 437.09 653.02 763.49 506.17 921.82 514.53 772.28 632.22 779.68 740.96 899.60 748.02
00002534 00000166 716.39 258.00 439.11 646.30 760.06 511.74 922.60 520.35 774.28 636.14 775.27 743.83 899.41 752.43
00002535 00000167 712.38 258.82 437.37 646.36 756.35 514.98 916.40 525.51 770.79 641.88 770.46 745.76 892.18 756.17
00002536 00000168 707.04 256.48 436.88 648.20 751.65 519.18 912.92 531.48 767.29 647.56 765.44 747.83 886.96 759.67
00002537 00000169 704.76 259.02 436.96 646.70 746.52 522.40 908.34 535.81 762.62 653.32 761.93 750.51 883.93 762.85
00002538 00000170 704.78 264.19 435.41 643.07 742.73 523.95 904.59 540.61 757.37 659.84 759.29 752.50 881.50 767.26
