Video ID: 	rODwcOUkGcc
H: 	1080
W: 	1920
FPS: 	23.976023976023978

FRAME INDEX X0 Y0 W H [Landmarks (5 Points)]

00002043 00000000 872.07 218.94 400.80 591.54 999.07 499.69 1159.59 478.20 1103.44 593.78 1045.01 687.60 1168.46 669.11
00002044 00000001 876.03 218.63 402.07 590.24 1002.62 499.18 1168.48 479.80 1107.22 598.24 1047.63 688.55 1175.40 671.31
00002045 00000002 876.34 217.50 399.95 591.95 1005.03 500.67 1166.17 478.73 1110.77 595.69 1045.73 686.09 1172.31 667.30
00002046 00000003 881.46 214.23 398.79 598.05 1007.82 493.35 1171.64 475.85 1117.09 596.95 1043.81 682.20 1179.37 667.06
00002047 00000004 878.26 211.77 401.90 600.01 1012.06 494.14 1175.50 477.33 1123.03 594.44 1042.58 676.55 1185.28 662.69
00002048 00000005 884.54 208.13 396.55 606.43 1013.48 489.54 1176.41 473.49 1124.58 594.82 1042.46 674.26 1186.87 661.12
00002049 00000006 876.99 211.99 402.57 600.81 1017.51 491.47 1174.45 474.14 1125.16 593.00 1048.49 676.61 1181.94 661.98
00002050 00000007 878.89 208.61 401.09 596.37 1013.39 493.42 1175.00 476.48 1122.06 590.74 1047.92 673.93 1182.21 658.94
00002051 00000008 881.14 209.59 399.33 592.94 1012.63 494.13 1177.07 475.79 1123.82 589.22 1050.62 675.57 1184.32 659.37
00002052 00000009 888.00 215.00 395.59 592.54 1014.92 492.68 1183.98 478.67 1119.57 592.70 1058.08 660.62 1202.16 649.29
00002053 00000010 889.17 210.84 395.40 599.54 1020.56 490.72 1180.06 478.67 1124.70 588.67 1055.74 671.92 1189.54 662.70
00002054 00000011 885.85 207.47 395.55 603.39 1016.63 485.19 1180.96 469.39 1130.67 589.74 1052.65 679.86 1188.09 666.82
00002055 00000012 880.32 207.26 400.19 606.80 1011.24 482.93 1180.76 465.42 1122.48 586.77 1049.14 677.13 1192.07 662.10
00002056 00000013 880.17 204.66 399.54 605.89 1007.48 481.21 1175.58 463.47 1116.92 586.14 1047.78 673.01 1190.69 657.32
00002057 00000014 879.17 206.87 402.76 601.01 1007.28 483.05 1176.35 461.52 1117.93 588.19 1050.59 673.55 1192.27 654.62
00002058 00000015 892.34 205.07 394.91 596.60 1015.18 483.60 1187.50 467.61 1126.46 584.08 1061.24 660.78 1207.05 647.45
00002059 00000016 896.34 204.89 393.29 591.01 1022.51 485.10 1195.66 468.26 1134.46 579.50 1067.23 661.15 1212.50 647.15
00002060 00000017 901.42 199.58 386.16 587.63 1028.78 480.99 1198.12 467.88 1137.36 570.05 1067.94 653.59 1209.52 642.46
00002061 00000018 900.79 187.41 385.18 590.51 1025.73 461.40 1189.77 455.45 1128.39 550.27 1062.45 640.28 1198.77 635.59
00002062 DELETE   897.38 170.91 386.52 588.67 1017.85 440.76 1188.39 437.90 1121.61 534.30 1051.84 625.35 1193.89 622.69
00002063 DELETE   883.25 162.05 390.64 590.21 1002.27 429.06 1172.35 423.11 1106.94 526.43 1035.47 621.07 1177.47 616.00
00002064 00000021 873.84 145.38 393.76 603.83 990.63 416.35 1159.57 412.00 1092.66 510.23 1023.84 608.36 1164.73 604.76
00002065 00000022 866.17 143.43 396.47 608.62 983.28 408.37 1146.94 400.92 1083.91 502.17 1021.03 608.62 1151.06 602.42
00002066 00000023 863.87 137.48 395.70 609.89 979.45 399.84 1139.50 394.03 1076.43 492.14 1016.40 603.08 1140.57 597.80
00002067 00000024 863.66 131.85 391.64 605.43 975.19 389.56 1132.02 385.56 1068.72 480.62 1008.66 592.65 1131.31 588.82
00002068 00000025 861.49 127.20 393.87 595.57 967.29 376.92 1129.28 371.69 1058.93 465.24 1001.37 579.17 1123.01 574.09
00002069 00000026 857.41 121.03 395.85 592.24 957.06 368.45 1127.20 363.10 1049.61 455.55 993.02 572.00 1115.87 567.00
00002070 00000027 856.26 115.35 393.07 586.28 951.78 366.22 1121.08 360.39 1040.85 447.49 985.64 562.68 1110.26 557.86
00002071 00000028 853.09 106.42 384.29 577.08 952.70 362.86 1111.90 366.09 1029.06 442.59 975.30 548.12 1099.96 551.68
00002072 00000029 847.13 103.30 384.53 573.87 944.54 360.10 1103.75 362.81 1019.29 439.09 966.80 543.52 1091.88 546.54
00002073 00000030 841.69 102.84 386.89 571.90 935.79 357.42 1095.69 358.08 1007.63 437.12 959.79 543.76 1084.45 544.98
00002074 00000031 838.89 103.54 385.84 568.19 928.47 353.58 1086.89 351.91 998.49 433.13 954.13 543.21 1075.64 542.86
00002075 00000032 838.04 103.53 385.17 566.74 923.70 352.61 1082.21 347.42 991.36 427.87 948.88 542.17 1070.51 539.07
00002076 00000033 837.77 112.55 388.03 556.80 920.74 364.17 1077.84 343.24 975.64 419.28 950.90 548.71 1060.51 530.76
00002077 00000034 843.15 114.36 385.60 560.62 921.54 366.08 1077.92 343.83 971.94 422.15 952.59 553.51 1061.96 534.36
00002078 00000035 846.96 115.96 384.09 564.79 921.93 368.61 1077.87 346.80 969.50 426.36 952.43 558.18 1060.74 539.43
00002079 00000036 850.05 116.47 382.82 561.70 923.65 370.36 1077.84 351.45 968.79 431.64 951.93 556.81 1059.82 540.48
00002080 00000037 850.32 118.75 382.19 555.64 923.42 373.65 1076.29 355.72 966.78 432.78 947.05 554.78 1056.86 539.46
00002081 00000038 850.91 118.23 380.84 554.17 922.34 372.95 1074.49 356.38 963.80 434.58 944.40 553.85 1054.43 539.71
00002082 00000039 849.35 119.22 381.42 558.27 919.39 373.22 1071.87 356.52 959.84 434.58 942.39 556.03 1048.82 542.03
00002083 00000040 849.01 117.03 381.86 564.62 919.34 374.79 1069.34 355.84 955.90 434.54 943.42 561.14 1045.73 545.40
00002084 00000041 851.25 118.82 381.05 567.66 917.49 377.94 1067.58 355.66 953.79 436.91 944.25 563.66 1050.00 545.03
00002085 00000042 850.02 120.34 381.96 574.36 918.25 381.99 1065.56 355.86 953.98 437.87 947.41 570.24 1052.32 548.40
00002086 00000043 852.91 113.70 373.25 578.34 904.71 375.81 1064.11 363.93 952.05 443.66 932.93 561.02 1044.70 550.95
00002087 00000044 851.93 114.41 373.04 575.40 902.27 374.73 1064.09 364.21 951.54 447.64 927.44 560.34 1043.76 551.34
00002088 00000045 850.71 114.74 373.04 572.77 901.29 374.76 1061.33 365.92 950.34 450.05 924.27 559.52 1039.17 551.91
00002089 00000046 849.10 115.80 372.70 571.32 900.13 375.47 1059.86 367.76 950.38 452.72 922.25 558.75 1037.28 552.01
00002090 00000047 847.15 117.27 373.01 570.82 899.63 375.77 1058.53 369.29 950.28 452.86 921.48 557.86 1033.05 552.18
00002091 00000048 845.28 117.55 374.28 573.86 900.64 374.93 1057.66 368.40 949.43 451.70 924.75 560.07 1032.70 554.19
00002092 00000049 844.87 118.23 374.81 574.63 900.83 375.37 1060.33 367.64 952.00 452.70 926.75 561.22 1039.36 554.23
00002093 00000050 847.12 116.93 374.36 575.62 902.17 375.18 1063.39 367.17 953.34 452.44 928.94 562.01 1042.43 554.97
00002094 00000051 847.07 115.59 375.01 572.93 902.33 373.34 1066.58 365.28 953.85 450.93 926.74 559.22 1048.19 552.19
00002095 00000052 846.73 115.13 375.28 570.33 901.63 369.19 1068.42 364.37 953.64 449.49 920.90 553.13 1047.79 548.82
00002096 00000053 846.89 114.62 374.85 567.27 903.43 368.55 1067.19 364.07 956.64 447.18 924.82 552.16 1042.15 548.20
00002097 00000054 847.34 118.31 375.64 572.05 906.67 370.40 1069.79 363.64 961.01 447.98 934.25 557.61 1047.16 551.77
00002098 00000055 847.22 124.00 380.81 571.39 915.71 380.42 1072.62 362.03 963.37 451.39 945.01 567.50 1064.43 551.43
00002099 00000056 848.29 124.50 380.47 568.95 916.62 379.79 1076.05 363.63 965.38 454.08 941.81 563.57 1067.71 549.15
00002100 00000057 849.04 123.94 380.64 559.90 918.80 372.81 1077.92 357.96 966.13 441.12 941.74 555.56 1062.17 542.56
00002101 00000058 848.46 117.76 385.45 551.63 926.84 365.36 1081.99 348.67 969.32 415.61 946.20 542.98 1053.97 528.47
00002102 00000059 856.51 107.90 378.20 542.28 929.46 340.86 1085.81 341.04 983.58 411.70 943.71 521.19 1066.76 522.98
00002103 00000060 860.23 106.73 376.50 539.19 934.66 335.23 1091.73 338.52 987.63 404.58 945.24 513.38 1070.95 517.74
00002104 00000061 860.42 106.01 380.61 548.84 939.72 336.50 1098.20 340.65 995.37 410.34 950.52 520.72 1073.67 526.06
00002105 00000062 862.82 108.69 380.55 553.48 945.27 345.02 1102.70 348.31 1001.97 416.61 954.64 528.59 1076.75 533.71
00002106 00000063 864.99 110.35 381.27 556.66 948.83 347.04 1106.26 349.46 1007.02 419.30 959.91 531.52 1081.88 536.05
00002107 00000064 867.89 109.03 382.28 559.00 950.75 345.29 1110.10 345.59 1011.17 417.53 964.50 530.73 1089.86 533.26
00002108 00000065 870.42 108.02 382.23 557.12 952.26 341.68 1111.40 343.21 1012.50 415.85 965.58 525.73 1093.01 529.02
00002109 00000066 873.48 106.54 384.38 561.00 953.10 340.20 1115.47 340.40 1013.43 415.76 966.60 525.08 1099.65 526.89
00002110 00000067 877.54 105.81 383.29 571.52 955.58 343.09 1118.35 340.34 1013.97 418.92 967.36 532.11 1101.57 531.86
00002111 00000068 878.59 105.34 383.91 584.48 956.43 347.81 1121.56 343.18 1014.02 424.20 968.13 540.07 1105.91 538.16
00002112 00000069 880.12 105.87 383.03 589.84 957.10 351.70 1123.90 349.78 1013.13 432.92 967.33 543.78 1108.17 544.03
00002113 00000070 879.62 108.59 383.18 585.34 955.67 356.32 1121.87 358.21 1009.75 443.49 965.33 546.50 1103.75 549.78
00002114 00000071 877.73 114.57 380.85 578.40 952.88 362.55 1112.79 365.15 1004.66 451.75 962.21 551.03 1091.14 555.57
00002115 00000072 873.00 119.04 381.14 577.48 947.32 368.21 1107.08 370.37 999.85 456.59 959.28 558.30 1085.40 562.76
00002116 00000073 870.45 117.87 380.76 581.65 942.52 369.23 1104.29 373.50 994.51 460.48 954.39 557.55 1085.99 563.25
00002117 00000074 869.79 124.51 382.93 577.82 936.46 369.61 1104.51 367.13 996.12 451.20 953.74 557.75 1091.45 557.20
00002118 00000075 869.92 124.77 381.98 571.22 937.52 363.79 1105.30 357.74 997.75 441.27 957.49 552.02 1089.31 548.80
00002119 00000076 866.03 112.39 380.18 569.62 943.04 359.67 1100.83 359.09 998.59 443.58 958.10 545.73 1082.82 547.47
00002120 00000077 866.76 111.98 377.90 570.28 941.77 360.88 1097.85 362.05 995.01 446.75 955.23 549.02 1076.66 552.29
00002121 00000078 873.22 131.11 375.17 564.68 937.43 376.50 1098.63 377.24 992.04 456.22 951.42 553.86 1081.81 556.40
00002122 00000079 870.45 134.57 379.67 574.16 939.69 381.99 1095.77 384.16 994.36 464.78 956.38 567.91 1080.60 570.91
00002123 00000080 869.26 134.28 381.72 577.57 938.71 385.09 1094.12 385.74 994.94 469.35 959.01 572.03 1083.68 573.55
00002124 00000081 867.57 135.54 383.51 574.09 935.59 384.00 1095.33 384.22 992.66 468.18 955.68 568.59 1086.85 569.78
00002125 00000082 867.40 133.62 378.50 571.27 931.46 380.07 1090.25 380.23 986.59 465.08 951.64 566.07 1080.06 567.36
00002126 00000083 867.22 130.74 376.20 572.20 929.43 376.94 1088.57 378.58 983.03 463.36 947.25 566.60 1074.10 569.03
00002127 00000084 868.63 131.21 376.29 572.88 931.48 378.34 1090.86 378.68 985.73 462.09 949.70 568.92 1075.35 570.39
00002128 00000085 871.40 129.22 379.35 573.65 936.70 377.49 1098.59 373.82 994.97 457.37 957.29 566.42 1083.78 565.55
00002129 00000086 869.73 119.19 385.59 572.59 950.37 367.02 1111.02 367.79 1010.71 456.30 968.09 554.79 1094.49 557.44
00002130 00000087 872.95 115.81 387.65 570.37 957.98 361.00 1119.54 361.41 1023.09 451.58 979.28 549.65 1106.08 551.39
00002131 00000088 874.17 115.27 387.26 570.72 959.18 360.95 1122.15 360.76 1025.19 450.45 981.55 550.79 1108.63 552.05
00002132 00000089 875.32 118.98 385.41 571.16 957.90 367.93 1118.28 368.45 1020.38 456.60 976.73 552.20 1104.99 554.32
00002133 00000090 879.03 127.74 381.10 569.34 955.43 381.01 1121.97 380.29 1014.04 456.32 968.89 562.42 1089.69 561.51
00002134 00000091 881.18 134.16 380.03 573.14 950.16 387.26 1114.09 386.38 1008.71 469.93 962.57 569.58 1098.60 570.85
00002135 00000092 881.58 138.44 381.43 580.85 951.82 393.28 1112.86 393.40 1009.77 483.97 965.37 582.66 1096.81 584.39
00002136 00000093 881.58 145.36 386.66 584.88 957.80 400.19 1118.82 399.32 1018.88 491.09 975.44 590.42 1105.44 590.33
00002137 00000094 885.23 147.03 388.41 589.58 964.75 404.10 1125.18 402.49 1026.64 498.25 984.45 595.86 1114.91 594.60
00002138 00000095 889.01 145.97 388.98 590.74 971.31 404.78 1135.04 407.01 1035.56 504.21 988.86 595.71 1124.03 597.52
00002139 00000096 890.57 147.62 389.52 586.35 972.42 404.60 1138.69 407.72 1037.35 506.94 990.98 597.57 1124.84 600.06
00002140 00000097 889.35 150.20 389.97 583.10 970.21 406.26 1133.99 411.69 1032.42 511.60 988.04 597.50 1119.38 601.98
00002141 00000098 885.64 154.99 389.98 577.37 962.18 409.71 1124.46 413.91 1022.36 513.29 981.03 598.07 1113.23 601.41
00002142 00000099 881.11 156.58 388.30 577.59 953.70 409.20 1113.35 412.51 1010.51 511.82 972.77 599.33 1104.18 602.25
00002143 00000100 875.19 155.15 383.67 577.66 944.76 406.89 1105.80 412.34 997.14 507.01 958.12 596.99 1091.72 601.88
00002144 00000101 869.37 150.22 379.76 579.01 930.65 405.61 1094.72 408.08 983.34 502.08 948.96 594.86 1075.97 598.16
00002145 00000102 854.20 155.82 381.75 574.37 924.12 403.88 1082.42 411.32 977.77 504.43 941.08 598.43 1061.57 604.96
00002146 00000103 847.99 158.37 380.54 574.23 908.71 411.80 1068.72 408.26 957.13 509.11 933.77 605.88 1048.77 603.98
00002147 00000104 840.14 158.21 380.81 577.82 902.14 415.56 1057.38 409.54 947.18 510.78 929.24 607.35 1043.77 602.94
00002148 00000105 832.91 156.89 383.65 577.70 894.64 418.22 1048.82 409.82 939.54 510.15 922.84 603.35 1045.24 596.55
00002149 00000106 827.88 156.68 387.44 579.44 889.39 418.31 1044.49 405.74 935.78 508.56 922.17 604.59 1045.80 594.12
00002150 00000107 822.96 158.47 387.77 575.14 887.49 416.53 1037.55 404.42 935.28 514.37 925.47 605.34 1046.21 594.82
00002151 00000108 824.18 157.54 386.57 577.40 890.26 416.24 1039.34 404.53 937.80 515.94 928.10 606.88 1046.25 596.95
00002152 00000109 831.22 155.40 384.65 585.66 895.69 416.60 1049.15 404.67 941.35 505.00 930.90 608.41 1045.33 598.57
00002153 00000110 836.71 152.93 385.52 584.75 900.86 412.32 1057.14 402.21 947.42 503.96 934.91 606.00 1047.70 597.94
00002154 00000111 843.74 155.70 383.56 577.90 908.33 404.32 1063.79 399.55 963.82 499.59 941.08 603.40 1053.48 600.36
00002155 00000112 849.31 153.45 384.50 576.77 912.66 402.02 1071.60 398.18 968.67 498.16 942.80 599.43 1062.22 596.88
00002156 00000113 853.24 149.94 384.17 572.19 916.67 395.15 1074.83 395.98 970.06 492.85 940.29 588.50 1064.71 589.43
00002157 00000114 854.99 143.76 383.47 570.69 917.17 385.69 1076.46 390.19 967.44 484.01 935.51 577.78 1061.23 581.82
00002158 00000115 854.63 130.90 379.84 581.32 906.02 388.63 1065.68 388.30 951.86 479.56 924.61 571.50 1047.86 571.49
00002159 00000116 848.00 126.79 376.10 583.43 905.39 389.02 1055.36 389.77 945.35 474.59 923.03 572.71 1047.41 573.56
00002160 DELETE   841.13 129.57 377.38 585.02 887.78 398.05 1044.11 391.52 923.39 476.36 907.63 582.94 1022.32 577.76
00002161 DELETE   825.69 129.05 385.42 590.04 875.31 396.84 1029.63 387.07 904.61 471.03 894.09 586.92 1005.06 578.90
00002162 00000119 817.52 124.02 388.31 589.44 867.81 393.46 1016.19 379.45 892.19 466.34 889.22 585.38 993.22 573.41
00002163 00000120 811.46 125.46 388.43 583.75 863.24 388.15 1009.94 370.28 887.61 459.16 887.56 577.73 994.59 562.25
00002164 00000121 807.21 123.61 390.82 583.80 860.01 388.18 1008.86 363.74 886.91 450.73 887.69 576.46 996.53 555.65
00002165 00000122 806.49 122.12 389.03 581.06 861.05 383.95 1009.26 361.49 888.43 448.81 888.86 569.14 999.51 549.47
00002166 00000123 806.70 123.44 388.42 575.66 862.49 382.76 1011.57 360.63 891.91 445.49 890.14 567.32 999.51 548.01
00002167 00000124 809.08 123.04 388.63 577.70 864.59 384.24 1016.43 362.80 895.48 446.61 890.53 568.54 1001.65 549.92
00002168 00000125 810.72 122.00 389.50 579.32 866.92 385.27 1020.55 365.41 899.04 448.97 892.98 569.79 1004.80 552.42
00002169 00000126 813.03 121.88 390.80 578.87 870.58 386.05 1024.12 367.01 904.18 449.59 895.07 569.58 1006.27 553.10
00002170 00000127 815.80 119.32 391.15 579.87 875.88 381.03 1029.28 365.78 911.64 448.94 899.51 566.36 1008.28 552.89
00002171 00000128 821.17 116.94 391.43 579.80 882.08 379.22 1036.49 366.30 917.95 447.37 903.86 564.64 1011.77 553.16
00002172 00000129 826.82 114.72 387.80 580.71 885.26 378.45 1043.44 366.17 924.09 451.61 905.08 562.25 1024.63 551.62
00002173 00000130 832.40 118.13 380.76 577.57 890.80 375.95 1050.02 364.69 932.33 447.10 915.28 561.22 1030.10 551.22
00002174 00000131 837.82 118.06 377.39 581.28 894.69 374.17 1057.15 365.07 937.31 447.49 919.45 562.48 1036.05 554.20
00002175 00000132 843.67 119.29 374.25 582.72 900.25 374.37 1063.80 368.94 945.19 450.21 923.51 565.27 1037.98 560.11
CROP_BBOX: 549 0 1546 956
