Video ID: 	3dgaXrE7FKQ
H: 	1080
W: 	1920
FPS: 	25.0

FRAME INDEX X0 Y0 W H [Landmarks (5 Points)]

00007190 00000000 640.56 164.92 362.09 532.60 772.58 379.32 927.04 393.85 866.85 474.52 767.98 551.07 908.77 563.84
00007191 00000001 646.50 164.21 364.07 544.91 777.81 382.43 934.61 397.96 872.20 481.98 773.11 557.83 915.72 571.10
00007192 00000002 650.45 167.79 368.34 545.29 782.84 385.55 938.07 403.00 875.72 486.98 778.43 560.59 919.41 575.45
00007193 00000003 655.37 166.53 368.40 544.47 786.05 385.83 943.58 403.87 880.76 487.79 781.82 559.00 926.92 574.64
00007194 00000004 658.46 170.88 370.19 540.21 793.35 383.71 948.00 402.13 887.67 483.26 789.58 559.86 927.18 575.72
00007195 00000005 659.11 165.45 368.71 543.39 792.94 382.35 949.28 398.59 890.51 478.48 792.42 560.46 930.24 574.45
00007196 00000006 660.60 159.92 367.57 541.96 792.09 378.90 949.38 393.67 891.92 473.96 794.31 555.96 934.37 568.52
00007197 00000007 659.58 161.26 367.75 535.77 792.12 374.64 951.01 388.73 894.38 471.19 794.14 549.68 937.10 561.91
00007198 00000008 657.99 157.41 368.68 534.17 789.68 370.41 950.99 384.91 893.31 465.70 793.98 545.63 939.52 558.01
00007199 00000009 655.36 155.67 370.00 533.81 789.39 363.09 950.00 377.98 893.71 459.09 793.26 540.59 938.87 553.20
00007200 00000010 653.70 147.77 367.97 536.77 786.65 357.82 948.37 370.64 892.79 451.64 792.90 535.69 938.28 546.45
00007201 DELETE   649.70 137.86 366.19 537.36 785.33 352.91 953.08 364.45 894.31 441.99 793.02 528.37 938.94 538.45
00007202 00000012 647.29 137.28 369.82 531.07 783.74 344.28 953.80 359.81 891.25 427.89 790.77 518.91 937.41 532.34
00007203 00000013 642.59 132.09 370.78 526.28 779.15 342.28 951.65 355.59 888.94 423.86 791.79 515.50 937.20 527.14
00007204 00000014 638.02 127.01 368.76 521.57 775.08 334.86 943.66 348.13 882.87 417.33 790.79 508.36 930.32 519.75
00007205 00000015 634.38 121.53 371.16 519.11 772.76 329.40 942.60 342.44 880.78 409.40 790.34 501.24 931.64 512.09
00007206 00000016 630.64 114.68 371.28 520.69 771.58 325.45 940.29 336.27 883.14 403.87 789.24 496.94 932.11 506.25
00007207 00000017 630.10 114.33 368.81 518.16 770.98 324.88 938.28 335.32 883.18 403.46 789.09 497.72 930.32 507.02
00007208 00000018 627.87 116.83 370.92 521.88 771.18 325.69 940.41 337.87 882.80 404.55 786.18 500.09 928.65 510.99
00007209 00000019 625.29 117.54 376.80 528.32 772.86 328.97 940.50 343.69 882.92 404.92 785.79 501.88 926.79 514.76
00007210 00000020 627.63 116.04 375.84 529.95 774.82 326.29 941.39 339.58 886.12 404.59 786.19 501.51 928.29 513.36
00007211 00000021 630.71 98.59 375.50 543.54 773.83 320.56 940.99 331.41 886.80 397.42 788.73 494.63 935.82 503.92
00007212 00000022 632.65 94.57 376.01 543.14 773.99 317.07 937.78 326.95 886.22 388.78 792.59 489.07 937.41 497.26
00007213 00000023 636.62 91.49 370.22 537.47 774.16 314.17 938.96 322.83 887.92 385.55 795.85 485.27 940.21 492.64
00007214 00000024 636.95 91.79 372.91 534.26 775.22 313.40 935.62 320.91 885.47 384.51 799.15 483.39 935.80 489.72
00007215 00000025 636.77 90.05 371.90 536.21 775.41 311.91 935.74 319.42 886.15 384.41 802.50 483.81 935.74 489.90
00007216 00000026 634.90 90.65 373.53 536.80 776.25 308.52 935.00 315.69 885.74 383.58 802.64 483.34 933.23 489.18
00007217 00000027 632.80 93.23 372.71 531.54 774.37 305.63 933.79 313.23 884.23 379.86 799.26 480.41 929.83 487.02
00007218 00000028 631.59 93.01 371.24 524.60 773.47 304.44 936.55 313.06 887.82 378.39 797.46 480.91 932.87 488.92
00007219 00000029 628.90 94.87 374.29 517.75 769.62 301.95 936.58 309.48 884.31 373.57 795.81 478.54 932.98 485.27
00007220 00000030 625.65 102.59 377.99 509.35 765.74 301.85 932.96 310.46 876.93 371.68 790.15 475.02 928.88 482.32
00007221 00000031 619.63 102.09 382.12 515.34 758.48 299.69 923.96 307.87 867.19 368.13 780.86 473.76 920.87 480.71
00007222 00000032 615.24 97.07 381.24 523.39 751.17 297.90 917.67 307.93 858.89 367.17 770.17 472.46 914.63 481.14
00007223 00000033 617.02 93.90 372.71 521.92 734.65 302.32 911.61 307.02 848.44 368.22 753.39 475.76 911.37 479.12
00007224 00000034 610.91 98.41 378.64 525.98 727.25 307.41 904.31 308.97 839.29 375.66 741.96 477.00 908.36 478.12
00007225 00000035 607.10 98.62 378.96 536.79 722.75 310.82 899.84 310.94 832.58 382.45 734.61 482.43 904.35 482.36
00007226 00000036 605.86 95.80 378.80 549.94 720.29 313.82 896.30 314.67 827.14 388.71 728.73 487.11 901.38 487.97
00007227 00000037 604.71 97.33 381.93 555.92 721.28 315.47 894.90 320.46 823.93 392.65 725.44 489.70 897.72 494.04
00007228 00000038 605.77 96.99 379.29 557.43 723.87 315.73 890.88 321.69 823.23 393.75 731.06 496.24 886.13 501.32
00007229 00000039 605.49 99.55 378.74 555.93 722.37 318.18 888.29 324.60 820.09 398.89 730.92 500.93 879.89 506.31
00007230 00000040 608.90 104.16 373.94 553.58 723.01 321.72 888.41 330.26 818.98 404.95 731.97 504.91 880.18 512.42
00007231 00000041 612.65 106.83 370.95 551.44 722.46 325.49 893.20 332.61 818.67 409.53 734.44 509.07 885.94 515.69
00007232 00000042 612.90 110.17 373.22 549.89 724.98 329.03 899.12 335.48 824.97 412.25 738.15 510.77 894.58 516.64
00007233 00000043 612.36 114.76 381.43 559.33 734.41 329.06 900.75 337.89 832.32 412.42 741.43 508.32 896.37 515.98
00007234 00000044 615.25 112.71 381.56 559.58 740.53 326.04 907.93 338.42 838.76 419.14 747.89 510.42 902.86 520.71
00007235 00000045 616.76 118.19 382.17 555.34 744.99 329.89 916.38 344.88 845.45 420.55 752.94 512.74 908.29 525.24
00007236 00000046 618.33 122.71 384.85 554.74 750.20 333.28 923.33 351.11 851.53 423.90 755.93 514.98 911.73 529.68
00007237 00000047 619.58 120.24 387.24 559.09 760.02 340.35 936.77 360.04 864.84 430.49 763.96 520.75 916.81 536.87
00007238 00000048 624.64 120.33 387.20 553.60 764.05 340.07 943.82 358.70 871.27 426.89 771.77 519.11 926.01 533.83
00007239 00000049 631.35 116.17 382.27 548.11 765.58 332.33 947.90 351.75 874.16 419.70 776.16 513.49 932.67 528.86
00007240 00000050 632.83 111.00 380.21 550.65 767.92 325.30 945.83 343.85 876.37 415.04 777.09 509.57 931.75 524.49
00007241 00000051 631.34 110.31 382.40 554.29 770.25 322.53 944.72 342.05 878.00 410.80 777.42 507.39 930.53 523.09
00007242 00000052 629.28 105.25 383.80 562.97 770.30 321.57 944.15 342.00 879.21 409.36 778.68 508.52 931.71 524.77
00007243 00000053 628.82 103.76 386.08 567.45 771.46 321.95 943.50 342.56 880.16 409.04 779.07 509.41 930.86 525.78
00007244 00000054 629.74 104.98 384.92 565.65 773.09 322.84 944.79 343.90 881.93 410.54 780.67 509.91 930.97 526.79
00007245 00000055 627.93 105.48 384.28 563.33 771.73 324.03 945.16 345.91 881.88 412.11 780.47 510.94 931.17 528.34
00007246 00000056 627.77 108.23 382.21 553.85 769.86 323.33 946.04 344.35 881.16 412.07 780.04 509.51 931.76 526.36
00007247 00000057 625.15 109.97 383.91 550.81 767.44 322.02 943.89 341.82 877.95 410.66 778.77 507.53 930.72 523.44
00007248 00000058 623.72 106.54 384.35 554.52 762.98 320.66 940.16 342.02 871.11 410.42 773.87 506.72 927.61 523.86
00007249 00000059 622.53 102.96 386.76 562.11 759.77 320.15 937.44 342.09 865.82 410.45 768.69 507.84 923.03 525.34
00007250 00000060 623.77 96.44 387.90 570.26 761.50 321.69 941.18 346.94 866.20 414.27 766.92 509.59 922.55 529.55
00007251 00000061 630.46 100.11 390.01 573.98 766.82 325.07 947.22 352.12 869.31 420.11 769.79 513.86 926.22 535.12
00007252 DELETE   645.34 111.68 386.94 570.46 781.04 334.52 957.47 361.55 881.61 428.44 778.91 520.48 933.25 542.84
00007253 00000063 657.25 121.83 386.44 567.56 796.34 339.95 971.31 370.70 895.58 439.64 784.77 527.17 938.82 553.74
00007254 00000064 663.63 136.03 392.26 557.52 806.90 341.19 975.83 377.02 901.66 450.56 788.40 531.13 938.33 561.06
00007255 00000065 672.61 143.27 388.39 558.01 818.10 349.53 986.39 383.93 911.41 461.62 799.46 537.95 948.97 568.04
00007256 00000066 677.02 137.94 396.60 570.94 828.73 349.84 995.88 388.27 916.69 459.95 806.04 535.21 950.92 568.67
00007257 00000067 685.87 148.46 391.82 554.05 834.37 347.04 1003.79 386.77 921.76 456.65 810.93 530.92 958.81 565.39
00007258 00000068 685.97 151.71 392.60 541.71 833.96 344.34 1002.29 381.60 919.70 455.02 811.40 521.92 960.70 554.43
00007259 00000069 685.68 149.84 392.29 540.47 834.43 343.14 1001.50 379.34 920.08 455.07 813.04 519.62 960.12 551.21
00007260 00000070 684.13 136.23 392.16 554.70 832.92 343.60 998.43 377.17 920.39 452.08 815.49 521.02 960.54 550.00
00007261 00000071 680.83 132.83 390.50 555.99 827.26 342.50 992.69 376.04 913.94 450.41 810.51 521.10 954.24 550.25
00007262 00000072 674.24 143.88 388.49 541.03 819.54 344.51 984.79 374.39 913.99 450.89 804.87 522.65 954.43 548.67
00007263 00000073 668.48 134.86 387.15 550.43 814.02 340.30 978.37 370.58 908.32 446.19 799.78 520.54 948.55 546.63
00007264 00000074 662.31 123.36 389.79 562.34 807.47 338.85 973.79 364.97 906.00 440.17 796.87 520.08 947.01 542.50
00007265 00000075 659.71 119.62 388.46 567.36 800.42 336.86 971.16 361.66 901.49 430.93 793.47 523.24 945.45 544.36
00007266 00000076 656.03 112.67 386.81 572.09 794.90 333.67 966.36 357.37 897.05 426.28 790.08 522.74 941.40 543.11
00007267 00000077 651.12 109.42 387.30 564.46 786.56 330.78 962.40 354.39 889.26 420.88 786.30 516.95 938.85 536.68
00007268 00000078 646.17 105.25 389.21 556.85 778.98 329.74 961.25 350.43 885.01 419.33 784.17 515.12 940.08 531.92
00007269 00000079 638.07 102.84 393.47 559.71 774.42 326.28 957.67 346.96 881.78 418.01 782.64 513.85 938.62 530.17
00007270 00000080 632.33 98.50 394.15 568.84 768.58 323.81 952.64 343.92 877.50 417.12 778.27 516.52 935.01 532.24
00007271 00000081 626.41 92.37 397.20 581.25 765.62 322.37 943.77 341.77 872.34 415.49 776.49 516.34 928.16 531.18
00007272 00000082 624.21 89.58 396.63 583.71 764.22 320.97 941.02 339.62 872.39 411.55 775.96 515.10 928.12 529.46
00007273 00000083 620.90 92.07 398.83 577.21 759.85 319.70 937.91 336.43 867.94 407.88 771.73 510.20 927.82 522.85
00007274 00000084 619.59 96.27 396.37 566.21 758.97 319.74 935.35 334.62 867.15 406.30 772.19 504.79 928.15 516.22
00007275 00000085 618.87 99.17 394.31 560.11 759.65 319.48 934.32 332.39 868.07 404.00 773.99 501.96 927.93 511.83
00007276 00000086 618.20 98.94 391.73 557.47 759.21 319.65 933.54 332.06 868.19 403.90 773.34 500.95 926.98 510.65
00007277 00000087 616.00 100.64 393.36 553.31 757.71 320.79 931.80 332.45 866.89 402.26 771.04 498.75 925.40 507.98
00007278 00000088 613.90 105.39 394.95 548.29 754.00 321.47 929.39 332.28 861.49 402.28 766.97 497.69 922.12 506.43
00007279 00000089 612.89 101.11 394.57 554.60 750.61 320.71 924.21 331.30 855.83 400.23 765.71 497.58 919.00 505.87
00007280 00000090 611.05 101.23 395.35 558.31 749.43 320.63 921.48 330.15 854.39 400.42 765.31 499.36 917.41 506.74
00007281 00000091 610.30 100.28 393.77 557.42 750.51 321.92 924.44 328.92 860.63 402.01 767.96 500.89 922.54 506.55
00007282 00000092 610.14 98.72 395.02 557.46 752.52 322.58 928.23 328.13 866.25 401.51 769.17 502.01 926.13 506.72
00007283 00000093 608.19 100.18 394.18 555.21 750.87 323.42 928.08 328.61 866.74 405.32 767.49 504.53 925.77 509.23
00007284 00000094 607.99 100.64 396.32 561.89 747.91 323.72 924.09 329.09 861.39 405.85 766.79 506.97 924.83 511.29
00007285 00000095 606.31 101.22 398.41 567.07 744.89 326.17 921.57 329.33 858.17 409.21 764.38 510.22 924.60 512.52
00007286 00000096 604.81 97.47 400.02 576.85 745.77 325.43 919.48 328.52 859.56 410.45 763.52 510.85 924.98 512.77
00007287 00000097 604.60 94.20 400.29 578.93 746.58 324.95 920.85 325.50 862.75 409.67 766.34 509.47 929.37 509.18
00007288 00000098 603.80 84.99 392.77 573.25 740.20 328.42 918.16 325.87 865.74 408.63 760.31 506.41 926.54 504.59
00007289 00000099 603.77 77.74 392.23 571.62 736.66 322.54 914.55 320.54 860.86 401.44 756.03 499.44 922.41 497.83
00007290 00000100 602.58 77.68 393.76 568.46 737.01 315.80 918.45 318.39 862.61 389.52 756.44 496.58 923.00 498.19
00007291 00000101 601.32 75.40 395.12 565.26 736.04 314.49 917.84 319.76 860.93 388.25 753.48 492.84 920.03 496.78
00007292 00000102 602.32 76.50 393.49 558.08 736.91 315.95 922.45 322.00 862.93 392.05 752.60 492.16 921.70 497.07
00007293 00000103 602.34 83.27 392.65 554.14 736.31 318.42 921.60 325.62 859.88 397.60 748.79 494.63 918.30 500.92
00007294 00000104 599.62 85.40 395.04 564.72 736.84 321.03 919.04 329.17 859.61 401.80 747.71 499.02 916.93 506.13
00007295 00000105 599.88 86.40 395.45 572.38 739.06 324.17 918.60 332.47 861.07 406.23 748.12 503.47 915.63 510.92
00007296 00000106 599.49 94.16 395.83 567.74 739.75 329.70 919.91 337.75 861.13 413.45 745.99 506.99 915.39 514.74
00007297 00000107 599.13 97.69 396.82 576.88 741.18 335.39 918.92 342.77 861.64 416.20 748.11 513.19 915.83 520.62
00007298 00000108 599.59 100.22 398.51 582.57 741.80 337.01 919.98 345.58 861.50 417.46 748.29 517.41 917.34 526.05
00007299 00000109 601.73 109.00 396.91 576.97 743.86 339.59 921.71 349.52 861.26 421.26 747.57 518.56 916.68 528.28
00007300 00000110 601.17 106.43 396.53 574.41 742.88 340.64 921.36 349.61 860.39 420.14 747.98 516.72 917.57 525.33
00007301 00000111 597.84 100.76 399.24 570.87 739.43 336.70 918.32 346.07 856.73 416.40 745.37 511.47 913.92 520.09
00007302 00000112 592.34 94.27 401.30 576.51 734.04 331.85 912.04 341.70 850.53 414.96 740.30 508.60 908.33 517.37
00007303 00000113 584.93 88.69 405.22 581.86 726.71 326.91 903.30 337.41 842.07 410.97 734.75 506.99 899.41 515.81
00007304 DELETE   574.73 79.37 407.30 591.19 715.03 322.29 892.36 329.49 831.87 403.63 728.43 507.89 891.56 512.98
00007305 00000115 567.70 76.19 408.18 592.70 703.04 317.51 885.05 322.98 819.27 396.72 723.54 507.97 887.41 510.87
00007306 00000116 566.38 78.44 405.15 586.65 696.87 318.07 881.66 320.49 813.85 395.25 721.65 509.36 885.99 509.79
00007307 00000117 563.83 78.95 404.59 585.65 693.05 317.79 879.58 319.92 810.03 394.65 718.65 510.64 883.67 510.91
00007308 00000118 558.29 78.39 406.82 583.31 687.21 316.81 874.54 316.86 804.99 390.86 715.21 509.67 881.10 508.16
00007309 00000119 554.22 89.29 409.34 568.36 681.50 313.98 868.31 312.17 796.81 385.21 710.21 505.27 875.65 502.41
00007310 00000120 551.44 85.33 407.98 572.16 673.92 310.33 861.95 309.94 783.17 380.91 697.18 499.01 866.73 497.55
00007311 00000121 549.13 87.15 408.19 572.49 664.79 309.59 851.47 311.05 765.77 381.18 683.81 496.69 854.08 496.91
00007312 00000122 548.44 94.51 405.08 564.86 661.60 310.36 847.27 313.05 759.88 381.64 678.97 494.16 850.54 495.58
00007313 00000123 548.25 94.45 402.54 563.73 663.04 314.37 847.77 317.36 761.29 382.58 681.14 494.33 850.45 496.13
00007314 00000124 549.40 91.52 405.39 568.59 664.96 312.05 852.73 313.58 764.71 382.00 683.82 496.87 855.02 497.48
00007315 00000125 550.63 89.40 409.21 573.81 668.69 312.53 856.57 311.33 773.88 381.54 690.05 498.85 863.35 496.83
00007316 00000126 551.18 85.06 410.32 585.01 673.36 311.21 862.17 311.75 781.81 383.56 692.76 501.36 868.55 500.30
00007317 00000127 550.25 85.47 412.50 595.81 677.07 311.38 862.78 313.70 787.35 386.43 693.02 503.23 871.47 503.16
00007318 00000128 550.96 83.97 412.09 597.74 677.19 308.14 861.51 311.92 784.40 382.88 691.82 501.90 868.27 503.07
00007319 DELETE   550.10 84.43 411.57 588.77 666.82 304.37 852.61 307.15 767.60 380.48 680.71 498.67 855.01 499.43
00007320 00000130 548.32 85.30 403.63 574.75 653.29 302.18 843.74 305.57 748.05 377.47 664.02 493.23 837.41 495.90
00007321 00000131 543.24 84.32 403.14 568.47 646.42 298.59 830.02 303.32 732.51 371.36 655.85 485.37 814.46 489.77
00007322 00000132 542.60 83.69 401.54 563.45 645.66 297.39 827.99 302.12 730.82 368.95 655.49 483.56 809.69 488.34
00007323 00000133 544.42 87.79 404.26 559.12 649.48 294.91 834.99 299.43 737.33 366.25 661.01 482.00 818.35 486.46
00007324 00000134 545.91 86.44 407.69 563.75 653.17 292.14 840.34 295.79 743.82 366.61 666.53 481.33 827.95 484.44
00007325 00000135 546.60 88.09 409.93 560.35 655.37 293.34 841.97 295.25 747.87 365.54 670.52 480.40 833.75 481.81
00007326 00000136 546.46 87.50 407.57 562.36 653.18 294.64 840.96 297.36 743.55 366.69 664.32 479.72 831.94 481.92
00007327 00000137 542.23 83.89 404.00 565.54 646.95 298.22 832.74 301.32 733.60 367.48 655.97 481.07 818.32 484.02
00007328 00000138 536.00 77.44 400.83 564.09 634.39 299.73 816.03 298.03 714.63 365.32 644.58 485.05 805.56 483.39
00007329 00000139 530.79 78.35 401.53 565.66 624.77 302.03 807.16 299.96 701.49 372.43 632.93 488.79 795.29 487.26
00007330 00000140 529.90 77.34 401.88 569.00 622.31 304.29 806.43 299.93 698.53 374.18 630.98 492.79 794.33 489.53
00007331 00000141 530.29 81.64 403.05 573.03 625.61 305.41 814.07 302.03 706.42 375.92 633.58 498.18 800.59 495.54
00007332 00000142 534.72 86.96 405.63 577.94 638.94 302.16 821.59 307.64 723.28 375.68 644.67 496.51 799.43 502.22
00007333 00000143 540.92 90.47 404.87 573.72 644.59 303.09 832.10 305.10 736.12 372.55 655.70 496.98 816.74 499.07
00007334 00000144 545.02 85.09 407.13 575.23 651.75 302.02 841.57 302.22 748.89 372.01 666.90 497.20 834.04 497.76
00007335 00000145 547.09 82.65 410.15 573.31 662.32 300.08 849.78 301.92 760.58 366.80 679.14 491.49 843.52 492.98
00007336 00000146 550.54 84.42 409.97 569.82 671.50 302.08 852.51 300.65 772.50 362.01 694.39 489.51 854.15 487.70
00007337 00000147 551.84 83.37 409.92 565.98 676.95 302.22 857.68 296.02 783.13 359.55 706.77 489.48 863.50 483.30
00007338 00000148 550.97 83.36 413.35 564.74 679.16 301.11 858.72 292.97 788.43 357.72 714.23 489.79 867.67 481.48
00007339 00000149 550.29 83.86 413.85 562.06 679.52 300.81 858.78 292.64 789.00 357.16 715.22 488.79 867.63 480.48
00007340 00000150 549.40 85.58 414.88 561.20 677.99 302.00 857.61 294.15 786.42 358.38 712.59 488.32 865.58 480.35
00007341 00000151 549.41 84.45 413.65 564.27 675.82 303.20 855.58 298.20 780.66 359.70 704.85 486.95 860.40 481.64
00007342 00000152 546.91 85.58 414.38 567.99 670.48 303.93 851.56 301.73 773.09 362.13 695.41 487.45 854.54 484.60
00007343 00000153 546.39 86.37 414.76 571.18 664.84 304.41 849.07 304.48 764.42 366.32 685.78 489.73 847.58 489.03
00007344 00000154 545.41 92.98 413.20 573.04 663.30 306.60 847.06 308.59 760.99 373.08 680.76 494.73 844.23 495.91
00007345 00000155 545.61 91.94 410.56 580.80 659.89 310.83 844.12 311.83 757.02 379.90 679.29 501.15 842.42 501.28
00007346 00000156 544.56 90.97 409.89 589.87 656.85 315.72 840.40 316.18 752.08 389.86 675.15 508.64 838.44 508.14
00007347 00000157 543.58 93.25 407.95 594.14 653.13 320.39 837.16 320.69 746.09 403.71 669.47 517.56 830.14 517.31
00007348 00000158 541.35 98.81 412.39 597.50 654.48 328.78 839.75 332.09 744.73 414.40 667.29 527.79 825.80 530.30
00007349 00000159 543.78 115.24 413.18 595.30 657.55 342.04 839.46 344.18 747.28 425.55 669.55 537.11 819.88 538.86
CROP_BBOX: 235 0 1276 968
