Video ID: 	CIaw-D8jMdA
H: 	1080
W: 	1920
FPS: 	29.97002997002997

FRAME INDEX X0 Y0 W H [Landmarks (5 Points)]

00005365 00000000 1091.07 156.14 404.38 665.29 1159.60 425.09 1343.50 437.43 1222.71 563.92 1168.69 637.78 1334.41 648.45
00005366 00000001 1093.25 154.42 404.59 658.99 1160.94 426.47 1346.75 439.71 1226.21 567.04 1171.84 636.86 1335.05 648.05
00005367 00000002 1097.76 151.17 403.17 660.07 1164.03 427.07 1350.06 439.64 1230.17 567.14 1175.90 639.37 1337.61 649.91
00005368 00000003 1102.60 152.66 399.72 658.99 1170.34 428.55 1355.58 443.27 1235.99 566.63 1179.17 641.35 1339.71 653.63
00005369 00000004 1102.60 152.66 399.74 659.11 1170.38 428.56 1355.59 443.23 1236.19 566.61 1179.25 641.32 1339.93 653.56
00005370 00000005 1104.08 154.48 401.33 658.57 1175.96 428.88 1361.98 447.27 1240.32 568.33 1181.34 642.53 1342.27 657.83
00005371 00000006 1106.94 157.17 401.26 655.32 1179.41 430.87 1364.66 451.47 1241.50 568.14 1182.12 641.84 1345.20 658.71
00005372 00000007 1109.39 161.21 403.31 652.52 1183.46 434.17 1368.51 455.93 1244.36 571.42 1183.99 641.74 1350.71 659.38
00005373 00000008 1115.36 164.55 401.08 654.54 1188.99 439.13 1375.61 463.29 1250.23 578.48 1186.94 644.37 1358.41 663.95
00005374 00000009 1115.30 165.06 400.83 654.29 1188.80 439.10 1375.28 463.48 1250.28 578.73 1187.08 644.40 1358.30 664.16
00005375 00000010 1126.50 173.87 395.05 645.81 1197.44 444.76 1383.78 474.81 1259.21 584.78 1193.40 644.35 1364.87 668.68
00005376 00000011 1131.04 184.64 398.04 648.85 1209.15 451.12 1395.61 480.93 1271.20 589.22 1199.51 649.32 1374.48 673.64
00005377 00000012 1138.39 192.91 398.69 639.27 1217.56 453.55 1405.90 482.23 1279.70 595.95 1206.43 650.86 1384.59 674.89
00005378 00000013 1145.29 194.64 398.04 634.26 1222.87 454.88 1413.51 481.36 1290.42 598.02 1211.17 653.37 1391.81 676.06
00005379 DELETE   1145.12 194.04 397.86 634.36 1222.83 455.27 1413.24 481.70 1290.28 598.06 1211.36 653.12 1391.90 675.71
00005380 00000015 1147.55 195.14 398.86 631.21 1232.51 454.20 1422.03 480.50 1303.67 596.16 1219.56 654.37 1397.71 676.84
00005381 00000016 1152.35 195.87 397.53 630.53 1238.27 451.43 1429.80 479.25 1309.96 595.66 1224.21 652.74 1405.31 676.17
00005382 00000017 1155.69 195.46 395.74 628.88 1241.93 450.82 1431.67 478.71 1313.73 595.22 1228.01 651.54 1406.68 674.95
00005383 00000018 1160.74 188.48 398.47 633.49 1247.73 452.06 1439.49 476.93 1323.75 596.14 1232.06 648.94 1408.40 671.81
00005384 00000019 1160.82 188.19 398.49 633.77 1247.76 452.17 1439.78 477.03 1323.88 596.10 1232.03 649.00 1408.48 671.86
00005385 00000020 1159.86 187.59 398.20 633.98 1245.90 450.10 1436.57 475.93 1319.93 593.53 1229.50 648.70 1403.55 672.30
00005386 00000021 1156.16 188.34 397.34 633.98 1238.38 447.86 1426.75 472.59 1311.48 592.66 1222.84 647.00 1397.72 669.65
00005387 00000022 1151.33 189.75 396.75 626.25 1230.40 444.17 1414.93 472.78 1296.76 589.57 1212.76 642.77 1381.14 668.62
00005388 00000023 1145.69 193.42 388.83 612.55 1224.82 441.45 1404.47 476.50 1280.89 582.25 1205.43 641.75 1364.17 672.01
00005389 00000024 1145.86 193.22 388.61 612.67 1224.78 441.65 1404.43 476.45 1280.96 582.29 1205.69 641.96 1364.29 672.02
00005390 00000025 1140.71 185.69 387.69 612.04 1219.68 435.77 1399.87 471.47 1274.70 573.15 1203.50 638.49 1357.39 669.02
00005391 00000026 1136.21 180.66 385.73 607.87 1215.27 432.68 1396.71 468.24 1272.34 568.80 1200.35 633.60 1353.56 663.93
00005392 00000027 1131.56 174.07 384.73 614.40 1211.16 430.18 1391.12 462.59 1269.43 564.98 1200.12 634.05 1351.42 661.47
00005393 00000028 1131.12 169.55 378.68 623.19 1207.50 435.58 1381.13 465.82 1264.44 562.77 1198.79 635.71 1343.89 661.26
00005394 00000029 1130.83 169.82 379.06 622.71 1207.50 435.61 1381.25 465.64 1264.76 562.96 1198.78 635.91 1343.87 661.34
00005395 00000030 1127.89 168.63 376.37 627.88 1203.01 438.51 1370.57 465.25 1259.48 562.72 1197.29 638.01 1336.88 660.54
00005396 00000031 1121.30 170.39 376.13 624.23 1196.04 441.35 1364.86 463.92 1255.20 560.61 1193.04 637.34 1335.68 656.19
00005397 DELETE   1112.33 171.46 377.08 620.19 1184.22 438.35 1357.13 457.53 1245.49 561.05 1185.51 637.31 1330.43 653.61
00005398 00000033 1103.65 171.22 377.61 618.64 1171.42 439.38 1349.51 455.99 1235.99 561.36 1176.83 637.78 1324.91 651.98
00005399 DELETE   1103.42 171.67 377.80 618.16 1171.29 439.27 1349.20 456.04 1235.77 561.50 1176.61 637.60 1324.60 651.91
00005400 DELETE   1093.45 175.23 380.99 612.41 1160.36 442.33 1340.84 457.12 1226.02 568.76 1168.00 638.04 1317.29 650.86
00005401 DELETE   1085.28 185.36 376.92 601.37 1152.84 451.54 1325.31 464.90 1211.99 574.60 1161.76 643.49 1306.63 655.40
00005402 00000037 1073.05 183.52 380.93 602.57 1143.68 449.33 1317.68 461.99 1208.11 573.32 1155.73 644.05 1300.70 655.05
00005403 00000038 1065.95 180.56 380.96 607.92 1135.47 450.37 1305.23 459.75 1199.76 571.91 1152.44 646.79 1294.51 654.87
00005404 DELETE   1066.05 180.42 380.78 607.78 1135.33 450.40 1305.25 459.90 1199.76 572.28 1152.53 646.83 1294.71 654.98
00005405 00000040 1059.11 178.04 379.85 613.17 1126.68 451.37 1295.27 458.40 1190.87 571.40 1147.21 652.20 1285.42 658.53
00005406 DELETE   1051.05 177.89 381.22 617.42 1119.00 450.50 1283.15 456.38 1183.91 574.90 1145.17 653.80 1278.42 659.10
00005407 00000042 1045.01 174.54 384.94 625.76 1112.89 452.21 1276.47 453.85 1179.22 573.66 1142.43 655.08 1274.35 657.08
00005408 00000043 1042.10 171.97 385.58 629.73 1108.13 452.95 1273.85 451.81 1175.84 572.64 1139.95 654.04 1277.10 653.48
00005409 00000044 1042.32 172.03 385.46 629.69 1108.14 453.06 1273.74 451.69 1175.70 572.60 1139.99 654.18 1277.18 653.45
00005410 00000045 1039.12 172.21 387.22 630.21 1101.30 453.42 1270.00 447.96 1171.47 573.37 1135.94 652.55 1280.43 648.14
00005411 00000046 1035.22 173.12 388.30 628.22 1096.56 452.93 1267.87 445.60 1169.84 574.51 1133.44 650.74 1281.51 644.87
00005412 00000047 1032.90 172.48 388.72 624.52 1093.98 451.35 1265.46 442.47 1168.69 572.51 1131.80 647.19 1280.57 639.82
00005413 00000048 1021.97 177.53 390.36 614.40 1091.23 451.27 1252.49 441.01 1158.81 570.95 1129.55 645.24 1270.21 636.09
00005414 00000049 1021.94 177.82 390.33 614.35 1091.13 451.27 1252.56 440.96 1158.80 570.99 1129.44 645.28 1270.38 636.06
00005415 00000050 1021.91 173.28 388.37 614.53 1090.43 449.37 1250.05 439.33 1158.49 570.04 1129.77 641.33 1269.99 632.08
00005416 00000051 1021.42 172.11 387.92 612.68 1088.98 447.36 1247.40 436.25 1156.48 567.03 1130.25 638.50 1270.69 628.13
00005417 00000052 1021.59 171.87 387.14 612.85 1087.47 446.66 1246.03 435.14 1155.18 566.54 1129.49 637.57 1270.86 626.68
00005418 00000053 1020.68 174.04 386.77 610.67 1085.88 447.91 1243.35 435.11 1153.62 566.95 1129.09 637.73 1270.49 625.74
00005419 00000054 1020.64 174.07 386.75 610.67 1085.88 447.89 1243.35 435.03 1153.74 566.93 1129.15 637.79 1270.56 625.75
00005420 00000055 1019.98 175.49 386.30 611.55 1083.68 449.99 1241.30 435.86 1152.30 569.19 1128.68 639.99 1270.70 626.91
00005421 00000056 1020.29 177.07 385.98 611.92 1081.91 452.48 1238.67 437.55 1149.97 570.02 1126.99 641.44 1269.85 627.69
00005422 00000057 1019.06 180.69 386.61 610.07 1079.99 454.40 1236.08 438.75 1147.89 571.47 1126.86 642.16 1270.26 627.70
00005423 00000058 1019.30 181.54 386.85 609.97 1080.66 454.13 1235.38 438.66 1147.86 571.82 1127.32 641.93 1270.33 627.68
00005424 00000059 1018.99 181.24 387.42 610.37 1080.50 453.79 1235.60 438.45 1147.82 571.84 1126.95 641.89 1270.36 627.73
00005425 00000060 1020.64 181.29 386.23 608.15 1081.56 453.56 1236.48 437.80 1149.02 571.02 1128.28 640.97 1271.23 626.49
00005426 00000061 1020.40 177.59 387.59 610.78 1083.29 452.45 1238.34 436.73 1150.62 569.94 1129.86 640.14 1272.51 625.60
00005427 00000062 1020.38 177.47 387.63 609.59 1083.63 452.20 1239.01 435.88 1151.35 568.51 1130.69 639.45 1273.03 624.41
00005428 00000063 1021.10 177.88 386.85 608.92 1084.86 452.05 1239.79 435.99 1152.65 569.35 1131.84 639.62 1273.73 624.80
00005429 00000064 1021.01 177.77 386.95 608.90 1084.88 451.79 1239.91 435.78 1152.74 569.21 1131.80 639.46 1273.74 624.69
00005430 00000065 1020.21 180.38 386.98 606.79 1086.42 453.07 1242.37 440.54 1151.98 569.78 1130.29 637.75 1274.91 625.73
00005431 00000066 1019.12 184.84 388.98 606.71 1087.49 458.05 1244.84 445.69 1154.35 573.83 1129.93 640.55 1276.27 628.66
00005432 00000067 1019.25 188.78 391.66 606.16 1088.10 460.21 1250.14 450.37 1156.47 578.94 1128.46 643.23 1278.30 633.53
00005433 00000068 1022.11 192.39 394.43 601.13 1092.50 464.93 1254.41 452.71 1166.07 588.98 1127.49 641.74 1287.03 629.53
00005434 00000069 1021.62 192.19 395.17 601.96 1092.65 465.29 1254.47 452.99 1166.28 588.72 1127.72 642.13 1287.14 629.83
00005435 00000070 1029.97 186.89 389.50 609.43 1092.39 463.98 1264.84 451.68 1172.34 587.06 1133.15 643.19 1292.41 632.89
00005436 00000071 1032.71 186.67 389.22 606.31 1095.68 463.42 1268.88 450.87 1176.04 583.26 1135.04 641.80 1294.80 631.24
00005437 00000072 1035.20 185.84 390.11 606.46 1100.71 461.25 1271.56 448.52 1179.50 580.67 1139.16 638.65 1299.42 627.51
00005438 00000073 1040.53 185.29 387.13 605.06 1106.19 459.50 1272.34 448.60 1182.93 579.21 1145.63 636.16 1303.85 626.03
00005439 00000074 1040.56 184.78 387.18 605.68 1105.99 459.64 1272.53 448.63 1182.68 578.94 1145.25 636.33 1303.91 626.08
00005440 00000075 1042.93 180.02 390.10 614.64 1111.71 458.87 1275.00 447.04 1186.22 576.42 1151.07 636.91 1308.43 625.89
00005441 00000076 1045.92 180.27 389.85 615.43 1115.42 456.93 1278.21 446.48 1188.61 575.41 1154.17 636.44 1311.38 626.67
00005442 00000077 1048.40 182.58 390.67 611.55 1121.23 454.44 1282.35 445.49 1192.59 573.85 1158.69 633.54 1314.50 625.01
00005443 00000078 1052.24 181.90 390.19 610.51 1126.78 452.31 1290.08 442.63 1200.36 573.63 1162.40 632.63 1320.15 623.72
00005444 00000079 1052.30 182.46 389.80 610.21 1126.65 452.47 1289.82 442.72 1200.16 573.73 1162.27 632.74 1320.14 623.75
00005445 00000080 1053.13 183.91 393.52 608.45 1129.94 452.77 1294.38 441.22 1207.03 574.28 1166.51 633.56 1323.95 623.45
00005446 00000081 1054.91 181.76 395.63 609.60 1132.70 453.52 1298.24 440.38 1212.33 574.49 1171.45 634.75 1328.40 623.32
00005447 00000082 1058.26 180.86 395.07 610.61 1136.21 452.62 1299.66 439.81 1214.23 572.45 1175.43 634.23 1330.26 622.84
00005448 00000083 1061.03 175.89 394.94 613.64 1139.63 450.19 1303.05 439.11 1216.21 570.35 1177.77 632.59 1331.92 622.36
00005449 00000084 1061.17 176.07 394.76 613.58 1139.72 450.42 1303.09 439.32 1216.17 570.39 1177.75 632.67 1331.93 622.42
00005450 00000085 1062.01 173.47 394.27 613.15 1142.30 449.39 1306.05 439.70 1219.09 570.53 1178.48 628.51 1335.10 619.49
00005451 00000086 1063.87 173.42 392.76 613.01 1144.12 448.41 1307.34 439.65 1220.39 570.94 1177.82 626.38 1335.71 618.16
00005452 00000087 1064.58 172.07 394.03 614.60 1145.75 448.43 1309.21 440.37 1222.23 571.36 1178.20 626.12 1336.44 618.45
00005453 00000088 1065.87 172.21 392.96 614.05 1146.86 448.67 1309.54 440.42 1223.52 572.25 1178.51 625.79 1336.74 618.01
00005454 00000089 1066.25 172.15 392.83 614.01 1146.88 448.49 1309.67 440.43 1223.20 572.33 1178.46 625.78 1336.53 618.15
00005455 00000090 1067.04 171.24 393.71 614.78 1147.67 448.00 1311.60 439.77 1224.68 571.33 1179.27 625.76 1337.87 617.93
00005456 00000091 1069.27 172.35 392.68 613.09 1149.06 446.52 1315.11 438.42 1226.68 569.27 1180.11 625.44 1340.00 617.73
00005457 00000092 1071.48 171.03 391.55 612.32 1150.58 444.58 1317.18 437.02 1228.12 567.84 1180.29 623.75 1341.34 616.59
00005458 00000093 1074.23 167.97 389.72 614.07 1153.09 440.86 1319.36 435.40 1229.14 567.01 1182.00 622.21 1341.55 616.86
00005459 00000094 1074.40 168.32 389.67 613.78 1152.99 440.75 1319.50 435.30 1229.07 566.83 1182.00 622.11 1341.79 616.78
00005460 00000095 1076.01 168.98 388.85 611.15 1156.22 438.14 1322.85 434.49 1231.04 563.56 1182.93 619.61 1342.38 615.87
00005461 00000096 1076.91 166.87 388.98 609.93 1158.20 435.95 1325.69 433.04 1233.11 561.60 1183.94 616.52 1344.88 613.45
00005462 00000097 1078.72 165.77 387.70 609.48 1159.41 434.89 1327.84 432.11 1234.79 560.31 1184.65 615.22 1347.29 612.14
00005463 00000098 1081.14 164.23 386.97 608.82 1161.42 433.43 1331.52 431.18 1237.97 559.55 1185.86 613.38 1350.63 610.69
00005464 00000099 1081.42 163.21 387.08 610.32 1160.95 433.80 1330.98 431.74 1237.11 559.24 1185.87 613.61 1350.50 610.99
00005465 00000100 1085.72 163.35 385.09 608.80 1165.17 434.15 1334.48 432.02 1241.32 557.38 1188.72 612.62 1352.90 609.86
00005466 00000101 1088.43 163.01 384.46 609.77 1168.83 434.38 1338.66 431.50 1246.12 557.23 1191.20 612.55 1356.19 609.14
00005467 00000102 1091.43 163.39 384.24 609.69 1173.03 434.82 1341.14 433.06 1249.76 557.80 1194.06 612.14 1356.99 609.61
00005468 00000103 1097.40 163.64 379.23 611.54 1177.64 435.51 1346.69 436.50 1253.45 561.16 1195.20 612.11 1360.69 611.92
00005469 00000104 1097.02 163.51 379.48 611.57 1177.41 435.38 1346.84 436.40 1253.52 561.33 1195.17 612.29 1360.82 612.14
00005470 00000105 1104.88 166.23 374.50 608.51 1183.89 438.44 1350.50 440.26 1258.52 563.76 1200.47 612.94 1363.42 613.47
00005471 00000106 1110.65 167.48 373.18 606.14 1190.81 437.83 1357.19 442.21 1266.19 566.32 1205.95 613.86 1367.51 616.63
00005472 00000107 1116.65 166.83 372.71 601.66 1195.83 436.69 1364.93 443.29 1273.20 567.40 1211.09 614.11 1372.87 618.62
CROP_BBOX: 800 0 1777 973
