Video ID: 	bAN3C4vCAUU
H: 	2160
W: 	3840
FPS: 	29.97002997002997

FRAME INDEX X0 Y0 W H [Landmarks (5 Points)]

00011793 00000000 1107.44 208.72 454.01 753.40 1430.76 581.58 1496.24 571.80 1555.46 721.77 1388.65 812.04 1438.53 808.43
00011794 DELETE   1107.95 206.72 453.87 755.54 1430.97 581.22 1497.35 570.01 1557.53 721.94 1391.97 813.66 1443.03 809.20
00011795 00000002 1119.72 194.47 448.01 767.67 1436.66 573.68 1494.58 569.86 1557.61 727.15 1400.01 814.06 1448.81 817.91
00011796 00000003 1119.69 197.27 448.17 770.19 1436.61 573.10 1493.68 570.22 1559.22 728.41 1405.60 820.44 1452.67 824.27
00011797 DELETE   1119.74 191.45 447.81 776.04 1437.17 574.44 1495.02 571.57 1561.19 730.75 1406.22 821.49 1454.67 825.43
00011798 DELETE   1119.47 190.91 446.93 772.27 1435.89 575.46 1497.03 572.21 1559.68 730.30 1402.83 817.87 1453.76 821.86
00011799 00000006 1117.69 190.82 449.11 775.72 1435.29 574.18 1496.17 572.86 1559.18 729.57 1399.94 817.82 1450.64 823.17
00011800 00000007 1118.40 192.90 454.36 783.80 1439.31 572.29 1494.98 573.58 1559.81 731.69 1393.84 817.92 1440.69 825.53
00011801 00000008 1118.03 192.16 456.75 792.34 1440.90 573.11 1492.27 573.57 1560.21 732.51 1387.36 816.83 1432.32 824.72
00011802 00000009 1122.51 194.89 452.64 799.79 1442.94 577.20 1493.87 574.10 1562.35 737.66 1374.20 814.58 1423.08 822.02
00011803 00000010 1126.58 196.12 448.95 798.05 1444.92 578.62 1493.97 575.82 1561.48 738.52 1374.09 814.10 1421.05 821.78
00011804 00000011 1127.41 199.41 448.77 786.35 1444.11 580.87 1498.13 576.23 1563.96 737.52 1376.02 812.61 1427.50 818.91
00011805 00000012 1125.09 201.85 450.55 774.07 1441.39 581.02 1501.11 578.91 1564.90 734.75 1384.27 814.51 1438.34 821.12
00011806 00000013 1129.06 197.52 445.04 772.53 1443.18 581.47 1501.08 578.49 1564.38 733.37 1391.84 815.44 1442.99 820.69
00011807 00000014 1128.67 199.81 445.30 767.00 1444.42 580.30 1501.40 577.18 1565.56 730.84 1400.17 817.81 1448.89 822.26
00011808 00000015 1130.75 200.86 446.33 765.49 1448.18 580.80 1502.52 574.97 1567.60 729.08 1404.52 820.51 1451.27 822.75
00011809 00000016 1134.96 194.69 444.12 772.67 1453.98 579.61 1503.39 575.48 1568.37 730.01 1408.40 819.83 1452.14 823.18
00011810 00000017 1136.02 192.82 445.25 782.79 1457.25 578.80 1503.32 575.34 1569.95 731.54 1400.82 816.82 1443.41 821.92
00011811 00000018 1135.94 192.34 446.31 803.16 1458.19 574.81 1498.55 570.87 1565.93 735.32 1389.48 817.46 1428.82 824.02
00011812 00000019 1133.01 196.02 449.95 808.61 1453.20 578.68 1497.66 574.24 1566.23 738.58 1378.16 818.16 1420.72 825.35
00011813 00000020 1126.30 202.45 453.83 799.79 1445.61 579.89 1495.86 574.20 1564.91 736.16 1372.40 813.67 1421.49 820.29
00011814 00000021 1120.24 199.55 456.63 795.87 1444.39 580.26 1495.87 572.85 1565.19 734.45 1370.87 807.43 1422.79 813.58
00011815 00000022 1117.78 201.59 457.56 791.94 1442.39 580.24 1494.84 573.05 1565.12 734.31 1372.32 807.56 1424.88 813.64
00011816 00000023 1119.79 199.99 456.26 789.43 1441.17 579.47 1494.81 573.32 1565.52 734.15 1378.39 810.37 1431.46 816.54
00011817 00000024 1124.33 199.15 453.85 787.94 1441.86 580.95 1496.90 573.60 1569.14 732.68 1381.40 810.47 1435.27 815.58
00011818 00000025 1130.35 204.55 448.09 782.45 1444.50 581.86 1497.21 574.37 1570.61 732.87 1383.97 811.19 1436.23 816.26
00011819 00000026 1132.85 200.68 446.13 793.76 1447.77 580.23 1496.11 572.30 1569.92 733.11 1383.13 812.76 1432.39 817.85
00011820 00000027 1130.04 195.90 451.91 809.72 1449.08 578.93 1496.42 570.12 1569.45 735.39 1379.34 817.07 1427.10 821.73
00011821 00000028 1125.79 194.82 458.70 817.45 1447.95 578.88 1498.33 571.54 1568.90 738.43 1377.27 823.63 1424.60 828.72
00011822 00000029 1120.61 190.01 464.31 831.09 1446.52 578.34 1497.20 569.31 1568.03 739.51 1372.83 826.09 1419.86 830.33
00011823 00000030 1116.68 187.37 469.20 839.19 1444.45 578.00 1497.46 568.86 1568.24 739.06 1368.22 827.81 1416.52 832.02
00011824 00000031 1116.42 193.70 469.27 823.24 1443.42 578.25 1498.55 569.46 1566.52 736.99 1369.04 822.40 1419.55 826.96
00011825 00000032 1120.69 196.02 463.36 807.52 1444.04 575.79 1499.53 569.10 1568.29 736.18 1373.78 817.52 1425.50 823.26
00011826 00000033 1118.41 197.63 464.24 791.66 1444.19 577.26 1503.46 567.48 1573.34 730.97 1377.54 811.05 1434.07 814.88
00011827 00000034 1123.07 199.22 461.69 778.83 1445.29 576.91 1508.12 565.81 1576.34 727.03 1389.47 814.31 1446.52 815.81
00011828 00000035 1123.83 195.06 463.18 783.89 1446.98 577.02 1510.38 564.90 1580.20 726.74 1398.55 818.48 1455.94 818.74
00011829 00000036 1124.14 195.93 465.26 787.09 1450.93 576.83 1510.23 567.82 1584.17 726.56 1405.33 821.71 1458.46 823.78
00011830 00000037 1125.83 200.68 466.09 778.51 1454.53 578.23 1513.63 571.71 1586.68 725.66 1412.85 822.25 1464.53 825.36
00011831 00000038 1129.61 203.20 462.71 771.97 1459.03 582.53 1518.72 570.99 1592.30 723.03 1414.45 814.68 1469.80 815.70
00011832 00000039 1133.14 204.07 459.96 775.13 1459.51 581.57 1519.59 570.51 1593.39 722.59 1416.13 814.99 1470.89 816.28
00011833 00000040 1131.46 199.26 461.84 787.12 1459.18 578.79 1516.37 568.60 1591.40 724.86 1408.03 817.20 1460.97 819.89
00011834 00000041 1132.57 195.15 461.10 804.47 1457.83 575.44 1512.58 565.63 1586.02 729.17 1396.52 820.14 1447.73 823.60
00011835 00000042 1130.10 197.53 461.57 799.21 1455.99 577.80 1511.93 567.05 1583.71 730.89 1387.66 815.80 1441.49 819.47
00011836 00000043 1127.98 196.54 461.40 786.00 1452.18 580.37 1514.89 569.94 1581.31 730.63 1386.95 810.31 1446.61 813.33
00011837 00000044 1123.22 201.52 464.60 774.11 1445.64 580.61 1516.00 569.14 1579.22 728.35 1394.90 814.00 1458.38 815.26
00011838 00000045 1123.59 202.15 463.99 771.37 1445.08 579.38 1514.45 567.54 1578.78 727.00 1397.10 814.18 1459.09 814.93
00011839 00000046 1121.32 196.98 469.41 776.83 1447.32 578.55 1514.34 567.63 1581.78 727.39 1398.46 815.79 1457.94 816.97
00011840 00000047 1124.72 200.45 467.00 775.79 1452.96 576.40 1512.36 568.90 1582.95 725.65 1400.84 815.12 1454.01 818.81
00011841 00000048 1132.79 198.66 459.56 783.89 1457.56 577.54 1512.60 568.37 1585.57 726.99 1401.11 815.19 1451.88 818.43
00011842 00000049 1136.88 199.35 456.19 786.87 1459.22 575.27 1511.64 566.46 1586.87 724.63 1402.80 816.35 1451.00 819.98
00011843 00000050 1136.06 198.69 457.11 788.56 1458.23 573.99 1511.55 565.34 1586.30 725.20 1404.31 818.42 1453.16 821.82
00011844 00000051 1128.30 200.23 464.30 780.22 1453.52 574.84 1512.83 566.74 1584.01 724.54 1407.64 818.83 1460.30 821.52
00011845 00000052 1118.74 197.40 469.54 776.49 1445.53 576.74 1515.55 562.74 1582.24 724.48 1411.09 820.22 1471.14 818.51
00011846 00000053 1112.29 199.89 471.87 772.99 1437.86 574.29 1513.13 561.27 1577.62 723.45 1412.63 822.59 1474.18 820.66
00011847 00000054 1110.41 190.11 470.45 785.20 1432.96 572.39 1513.50 561.24 1573.33 724.94 1411.71 824.99 1475.22 824.15
00011848 00000055 1100.78 183.38 478.96 799.37 1430.20 568.55 1510.96 561.00 1573.77 726.35 1405.45 829.23 1469.13 830.63
00011849 00000056 1099.61 181.13 483.37 815.34 1431.62 567.89 1504.62 561.31 1573.90 726.99 1386.56 825.64 1447.68 829.13
00011850 00000057 1098.17 177.80 488.01 830.43 1433.46 568.78 1501.90 560.29 1572.88 728.62 1378.28 825.18 1437.89 828.57
00011851 00000058 1104.62 180.37 482.71 824.92 1436.25 569.08 1502.14 559.41 1574.05 728.95 1377.45 821.43 1436.26 824.59
00011852 00000059 1110.34 183.79 476.97 810.10 1437.38 570.49 1504.31 560.99 1575.52 726.91 1379.81 818.42 1439.33 821.25
00011853 00000060 1110.85 181.99 475.65 799.48 1440.35 571.18 1504.49 561.36 1576.00 725.23 1383.14 812.21 1440.23 814.93
00011854 00000061 1113.41 183.83 472.24 790.55 1441.47 572.31 1505.41 559.38 1575.30 724.08 1382.89 809.13 1440.71 810.01
00011855 00000062 1113.15 180.14 469.54 792.76 1440.39 570.75 1506.26 557.82 1574.29 723.95 1381.90 806.89 1441.43 808.21
00011856 00000063 1095.00 189.42 476.55 787.34 1426.93 574.01 1503.24 558.94 1568.54 718.90 1373.71 809.93 1436.99 804.24
00011857 00000064 1087.11 190.98 483.62 786.59 1425.94 569.51 1499.94 558.34 1566.12 718.15 1372.32 809.67 1433.68 806.42
00011858 00000065 1083.48 193.11 485.67 788.22 1424.16 567.84 1497.97 558.24 1563.17 719.57 1365.79 809.62 1428.02 807.75
00011859 00000066 1080.29 194.39 487.14 787.43 1419.96 568.71 1496.77 557.97 1560.78 719.31 1363.46 810.17 1428.48 807.55
00011860 00000067 1077.36 194.18 489.42 786.97 1418.12 568.38 1497.43 557.83 1560.09 719.26 1362.70 810.75 1429.89 808.21
00011861 00000068 1079.26 196.30 487.17 783.29 1418.74 568.30 1496.89 557.06 1560.86 718.67 1366.16 810.43 1432.70 807.37
00011862 00000069 1080.90 194.97 485.45 781.18 1418.96 567.43 1496.43 556.00 1561.11 715.86 1369.97 809.49 1435.21 806.10
00011863 00000070 1081.89 195.68 482.96 778.74 1418.69 568.30 1495.98 556.34 1561.37 715.16 1372.86 808.78 1438.12 805.09
00011864 00000071 1080.94 194.49 483.88 779.59 1418.09 568.03 1495.66 555.96 1561.43 714.72 1372.99 808.47 1438.55 804.81
00011865 00000072 1079.27 195.62 485.06 778.44 1416.55 567.39 1496.51 555.11 1560.86 714.59 1370.86 809.92 1438.38 806.11
00011866 00000073 1074.84 194.02 489.28 782.19 1415.53 565.86 1496.35 554.58 1559.64 715.04 1368.45 810.30 1436.61 807.16
00011867 00000074 1072.00 196.58 491.53 779.52 1413.66 564.79 1495.95 553.68 1558.10 715.62 1362.92 807.94 1434.04 805.21
00011868 00000075 1072.92 198.27 488.49 778.27 1412.26 563.04 1494.48 551.92 1555.91 714.01 1359.03 804.78 1432.03 802.36
00011869 00000076 1072.43 195.89 488.28 777.64 1411.58 561.57 1493.61 550.59 1554.84 713.01 1361.24 803.74 1433.55 801.28
00011870 00000077 1074.73 193.24 484.54 777.17 1411.23 561.69 1492.32 550.04 1553.81 711.35 1361.25 801.33 1432.77 798.48
00011871 00000078 1078.52 193.78 481.01 776.44 1412.13 561.32 1491.75 548.41 1554.00 710.32 1361.20 800.06 1432.29 796.43
00011872 00000079 1080.49 193.68 479.52 775.77 1413.03 560.11 1491.97 547.35 1554.52 709.75 1361.71 798.35 1432.58 794.94
00011873 00000080 1078.25 193.80 480.29 775.57 1412.50 559.44 1489.64 547.59 1554.09 708.48 1361.46 797.26 1431.17 794.51
00011874 00000081 1076.15 190.45 478.55 778.75 1410.89 565.12 1488.92 550.87 1552.54 709.69 1356.49 797.34 1426.72 793.25
00011875 00000082 1072.41 193.84 479.60 776.36 1405.41 570.67 1484.25 555.01 1549.06 709.34 1353.53 799.78 1423.19 794.30
00011876 00000083 1070.56 192.16 479.70 780.98 1404.02 567.58 1483.07 552.66 1546.81 708.96 1349.93 800.06 1421.36 795.22
00011877 00000084 1070.89 195.29 477.85 779.74 1404.05 563.96 1485.12 551.05 1544.15 709.64 1348.24 800.43 1423.12 797.24
00011878 00000085 1067.39 191.26 483.30 784.23 1403.48 561.72 1487.72 549.83 1544.87 709.38 1349.87 801.33 1427.21 798.78
00011879 00000086 1065.92 192.74 487.07 782.70 1404.33 560.63 1486.27 548.72 1546.79 708.84 1352.94 801.97 1427.15 799.00
00011880 00000087 1067.23 191.84 486.69 783.72 1404.58 560.16 1486.18 547.67 1548.36 708.53 1354.24 802.21 1427.74 798.77
00011881 00000088 1066.21 190.08 488.04 786.00 1404.42 558.73 1485.54 546.82 1549.01 707.11 1355.83 801.98 1428.67 798.87
00011882 00000089 1065.62 194.63 487.29 781.57 1404.12 558.10 1483.86 545.66 1548.05 706.69 1355.88 802.71 1427.82 799.17
00011883 00000090 1063.76 191.11 488.27 786.32 1402.98 556.89 1482.72 545.93 1546.03 706.78 1352.26 800.92 1425.92 798.63
00011884 00000091 1063.94 194.16 485.82 784.31 1401.14 556.61 1481.00 545.54 1543.79 707.22 1347.70 800.30 1422.28 798.15
00011885 00000092 1062.23 193.86 483.11 785.69 1398.11 554.29 1476.45 544.92 1537.91 705.85 1344.32 800.73 1417.67 799.27
00011886 00000093 1059.14 191.06 484.69 788.33 1392.05 552.79 1473.18 542.64 1533.50 702.23 1341.52 800.14 1416.39 797.67
00011887 00000094 1058.46 189.49 482.14 789.04 1384.68 552.73 1472.58 541.21 1528.90 699.95 1338.51 800.13 1418.04 796.51
00011888 00000095 1056.07 189.60 481.92 788.36 1382.34 552.08 1469.17 540.70 1525.22 697.31 1337.24 799.80 1414.81 796.06
00011889 00000096 1052.53 182.19 482.43 790.72 1382.31 550.81 1481.11 541.72 1528.34 701.01 1341.77 798.53 1423.32 798.02
00011890 00000097 1050.23 186.51 482.75 787.87 1379.33 549.50 1477.48 541.55 1526.10 699.17 1339.35 798.22 1420.52 798.41
00011891 00000098 1048.98 184.11 484.13 789.10 1378.79 549.17 1476.63 540.69 1526.40 698.07 1338.81 797.14 1420.01 797.15
00011892 00000099 1050.79 182.98 483.58 788.68 1380.75 550.65 1477.60 539.75 1528.25 697.90 1340.67 795.78 1421.81 794.36
00011893 00000100 1052.04 183.00 482.34 788.54 1381.54 549.92 1476.71 538.74 1528.81 696.35 1341.81 794.81 1421.76 793.43
00011894 00000101 1051.61 182.99 482.45 788.61 1381.40 549.49 1475.43 537.89 1529.44 695.42 1342.12 794.79 1420.99 793.20
00011895 00000102 1050.46 184.47 482.67 786.54 1380.19 549.24 1473.35 537.98 1528.02 694.61 1342.36 794.77 1419.86 793.28
00011896 00000103 1045.86 180.76 485.56 789.65 1375.54 549.14 1473.92 538.37 1525.47 694.27 1340.44 795.55 1420.92 794.11
00011897 00000104 1039.82 175.92 488.24 794.48 1368.57 547.12 1472.11 537.41 1521.66 694.89 1337.30 796.27 1420.23 795.29
00011898 00000105 1031.39 169.49 494.43 798.44 1361.50 543.52 1469.78 535.87 1516.77 693.85 1333.72 795.12 1419.04 795.50
00011899 00000106 1028.03 168.89 496.39 798.00 1355.77 543.64 1469.94 535.71 1512.54 693.98 1329.23 794.34 1418.95 794.31
00011900 00000107 1028.54 169.23 494.14 797.68 1351.87 543.39 1469.69 537.01 1508.50 694.41 1326.02 792.88 1418.69 793.74
00011901 00000108 1029.35 168.45 493.16 797.99 1351.88 543.17 1469.18 536.27 1508.56 693.85 1325.83 792.02 1418.56 792.63
00011902 00000109 1029.28 167.03 494.64 799.50 1355.11 542.85 1469.91 534.96 1511.87 692.94 1329.92 793.64 1420.59 793.64
00011903 00000110 1033.09 167.71 492.57 799.46 1362.21 543.67 1471.67 535.28 1517.10 692.95 1334.33 793.73 1421.57 793.74
00011904 00000111 1034.84 171.87 492.27 799.28 1366.47 549.46 1473.47 539.99 1519.28 695.15 1335.58 797.21 1421.38 796.50
00011905 00000112 1039.77 174.49 486.87 798.29 1371.48 559.83 1472.63 546.77 1522.23 699.85 1335.72 801.42 1417.19 798.81
00011906 00000113 1035.15 182.87 490.80 795.79 1366.36 575.22 1471.98 559.02 1518.22 710.59 1326.49 806.81 1411.13 802.31
00011907 00000114 1026.15 191.83 496.02 791.72 1359.65 583.89 1463.03 566.97 1514.24 719.83 1314.45 814.25 1395.43 809.13
00011908 00000115 1027.02 185.87 493.11 790.18 1353.60 579.27 1460.99 570.23 1499.52 722.53 1312.15 811.63 1393.33 814.89
00011909 00000116 1018.77 185.36 500.19 793.71 1347.38 581.30 1459.73 574.80 1494.13 726.28 1305.80 815.81 1390.09 820.20
00011910 00000117 1015.82 187.87 503.77 793.03 1343.45 587.65 1462.67 581.03 1489.78 732.85 1301.93 820.99 1391.06 824.99
00011911 00000118 1011.25 195.38 496.92 796.22 1340.86 602.04 1457.45 587.22 1493.40 738.42 1296.34 830.16 1386.07 824.92
00011912 00000119 1011.73 199.75 494.49 792.78 1341.00 605.94 1456.16 589.80 1493.36 740.99 1296.38 832.42 1385.41 826.26
00011913 00000120 1012.19 199.16 494.37 793.41 1341.90 608.47 1456.11 590.91 1493.26 742.15 1296.85 833.19 1384.99 826.01
00011914 00000121 1013.73 207.56 489.94 782.87 1340.01 606.29 1454.04 590.98 1489.27 741.63 1292.85 831.08 1381.46 825.06
00011915 00000122 1010.19 209.37 489.88 778.26 1333.57 604.18 1450.87 590.67 1482.49 740.83 1284.34 828.82 1376.26 823.86
00011916 00000123 1011.83 210.02 488.04 777.49 1331.36 604.42 1448.84 591.62 1479.43 741.17 1279.11 827.75 1372.64 823.68
00011917 00000124 1016.58 208.67 484.48 777.99 1333.39 605.93 1449.43 594.36 1479.15 743.40 1281.00 827.43 1372.55 823.98
00011918 00000125 1015.85 208.10 486.35 776.81 1335.35 605.73 1450.23 594.79 1479.17 743.11 1282.23 826.37 1372.33 823.05
00011919 00000126 1015.80 210.87 486.24 769.97 1333.29 601.23 1448.23 592.15 1474.84 740.28 1277.65 821.00 1368.69 819.09
00011920 00000127 1015.38 214.06 483.15 763.83 1327.95 596.18 1444.08 590.00 1468.68 736.99 1271.99 817.17 1365.11 817.52
00011921 00000128 1010.07 210.50 484.06 765.52 1319.90 590.78 1440.35 587.45 1460.61 733.13 1264.13 815.58 1359.68 818.70
00011922 00000129 1006.05 200.68 484.71 774.23 1316.25 586.14 1435.49 585.63 1455.72 729.76 1259.05 811.46 1354.61 817.26
00011923 00000130 1003.67 199.80 484.55 770.12 1313.58 581.25 1434.03 582.50 1451.58 724.76 1256.77 806.39 1353.47 813.52
00011924 00000131 1004.46 198.77 482.81 769.40 1311.96 579.83 1431.60 579.26 1449.65 722.31 1255.30 802.49 1352.18 808.50
00011925 00000132 1004.21 199.41 481.00 766.60 1311.23 579.69 1429.47 578.06 1448.74 721.08 1254.91 800.20 1350.92 805.63
00011926 00000133 1003.44 198.19 482.80 766.84 1310.36 577.88 1430.46 577.72 1447.68 720.22 1254.21 798.62 1351.19 804.99
00011927 00000134 1004.41 198.24 483.21 766.82 1309.18 576.90 1431.01 578.12 1445.88 720.62 1252.75 797.67 1350.78 805.03
00011928 00000135 1006.73 197.31 481.97 767.97 1308.60 577.30 1431.52 579.50 1444.56 722.70 1249.90 797.96 1349.47 806.21
00011929 00000136 1004.10 202.69 484.86 762.71 1306.44 577.90 1429.86 579.86 1440.91 723.96 1245.50 797.16 1346.18 805.33
00011930 00000137 1005.29 200.04 484.21 769.46 1303.37 576.53 1429.70 580.46 1438.17 727.27 1240.67 797.13 1344.71 806.88
00011931 00000138 1003.75 202.48 486.74 767.53 1299.44 574.94 1430.16 581.44 1433.33 728.19 1238.44 798.94 1344.63 810.04
00011932 00000139 1000.19 205.23 488.18 766.13 1296.47 574.03 1427.62 581.05 1430.38 728.58 1235.45 800.88 1341.81 812.41
00011933 00000140 999.15 204.62 488.00 769.06 1294.27 573.86 1426.39 581.59 1429.19 729.65 1233.51 802.36 1341.12 814.41
00011934 00000141 995.18 202.09 490.00 775.36 1291.97 574.10 1432.70 582.58 1427.18 739.04 1236.86 806.78 1346.64 821.01
00011935 00000142 992.39 199.17 491.26 778.75 1288.65 574.31 1430.44 582.19 1424.94 740.16 1235.04 810.89 1344.17 824.01
00011936 00000143 989.20 203.01 491.00 776.06 1283.72 575.85 1428.39 582.36 1420.76 740.90 1231.11 811.55 1343.61 823.72
00011937 00000144 985.74 209.52 487.71 771.36 1275.78 577.83 1423.97 582.14 1416.28 741.15 1225.04 814.59 1343.72 825.55
00011938 00000145 976.44 214.29 495.63 763.76 1264.83 582.21 1417.74 585.09 1402.11 742.10 1212.33 812.59 1337.54 818.23
00011939 00000146 957.76 204.74 510.28 776.54 1255.03 581.97 1411.00 585.54 1394.80 741.58 1204.87 816.84 1329.48 822.83
00011940 00000147 948.39 201.48 513.19 779.89 1242.93 583.02 1405.01 586.68 1387.95 744.48 1192.88 814.53 1324.96 820.80
00011941 00000148 941.18 193.67 510.98 786.68 1236.13 580.59 1395.94 582.53 1381.66 741.67 1188.33 813.45 1318.00 818.78
00011942 00000149 937.08 189.84 508.80 788.32 1232.73 574.79 1390.48 578.41 1377.10 737.92 1187.17 810.96 1314.36 817.21
00011943 00000150 936.44 185.90 504.82 792.06 1231.38 573.67 1386.22 577.96 1375.42 735.35 1184.28 807.41 1312.11 814.73
00011944 00000151 937.14 185.47 501.57 791.68 1230.15 572.80 1384.03 577.16 1373.83 734.16 1182.14 805.33 1310.55 813.05
00011945 00000152 932.85 184.09 503.86 791.41 1229.34 573.19 1381.62 577.12 1372.49 733.61 1181.29 803.88 1308.36 811.29
00011946 00000153 935.01 184.40 501.96 791.97 1226.36 571.92 1379.42 576.00 1369.95 731.28 1178.42 801.42 1306.89 809.23
00011947 00000154 932.17 182.44 504.11 794.06 1224.52 570.40 1376.59 573.60 1367.60 729.30 1176.82 799.32 1304.45 806.63
00011948 00000155 929.76 185.58 505.42 789.45 1222.26 567.81 1374.51 571.95 1365.62 727.48 1176.12 797.29 1303.56 805.12
00011949 00000156 932.04 181.11 502.89 792.88 1222.01 566.76 1372.75 571.87 1363.04 726.65 1175.29 796.52 1300.66 805.02
00011950 00000157 928.70 176.04 504.97 798.09 1219.89 566.59 1371.37 570.67 1362.13 725.70 1175.05 796.35 1300.66 803.94
00011951 00000158 925.93 178.03 507.63 796.59 1217.99 566.53 1371.29 570.08 1362.14 726.52 1174.46 797.08 1301.13 804.16
00011952 00000159 925.42 179.16 508.20 796.69 1217.80 566.95 1371.30 570.15 1362.94 726.57 1173.90 797.28 1301.27 804.19
00011953 00000160 925.96 179.59 508.40 796.01 1218.33 567.37 1371.39 570.52 1362.58 726.20 1174.18 797.79 1300.63 804.67
00011954 00000161 926.83 182.28 506.68 792.77 1217.78 567.71 1371.92 570.37 1362.36 726.71 1174.54 798.40 1302.11 804.79
00011955 00000162 926.06 180.20 506.87 795.32 1217.71 567.38 1372.22 570.63 1363.23 726.34 1175.24 798.90 1303.58 805.68
