Video ID: 	WRTsnGB05QE
H: 	1080
W: 	1920
FPS: 	25.0

FRAME INDEX X0 Y0 W H [Landmarks (5 Points)]

00020244 00000000 1009.82 165.53 353.56 516.34 1041.41 361.67 1185.34 376.70 1063.09 455.58 1046.69 548.15 1153.51 558.94
00020245 DELETE   1008.38 160.60 353.76 513.59 1038.40 358.36 1181.78 375.34 1059.80 452.28 1042.65 543.75 1148.32 556.16
00020246 00000002 1005.88 160.37 356.64 505.78 1038.63 345.14 1185.89 368.25 1062.95 444.74 1038.93 530.05 1146.80 547.60
00020247 DELETE   1004.01 156.83 353.86 500.96 1040.16 338.69 1184.61 360.62 1062.95 437.55 1039.17 525.03 1145.76 541.62
00020248 DELETE   1004.00 156.69 353.83 501.36 1040.10 338.62 1184.40 360.60 1063.09 437.70 1039.48 524.79 1145.77 541.40
00020249 00000005 1000.47 149.20 352.89 499.93 1040.81 334.96 1180.90 355.07 1064.23 435.30 1039.53 522.96 1144.96 538.18
00020250 DELETE   995.86 154.28 351.81 494.19 1036.41 333.32 1176.13 353.19 1057.10 434.16 1034.84 518.87 1143.03 533.78
00020251 00000007 990.74 151.29 354.93 512.52 1033.84 339.93 1173.20 358.35 1052.15 435.86 1030.68 527.18 1141.71 540.85
00020252 DELETE   973.93 155.48 363.89 544.38 1015.89 366.23 1158.18 376.42 1029.63 461.52 1018.74 547.60 1146.96 558.27
00020253 DELETE   973.93 155.10 363.85 545.11 1015.88 366.16 1158.41 376.28 1029.67 461.45 1018.63 547.73 1147.11 558.32
00020254 00000010 965.14 171.42 363.38 543.34 1015.10 369.17 1155.48 383.74 1030.92 472.39 1013.99 560.77 1138.38 575.44
00020255 00000011 962.87 186.25 363.33 537.70 1012.39 377.89 1145.46 393.17 1023.94 480.76 1012.75 572.04 1127.73 587.33
00020256 00000012 960.43 189.17 361.48 532.86 1009.15 376.24 1140.11 393.20 1018.62 478.12 1009.60 572.68 1118.35 589.55
00020257 00000013 956.31 183.19 367.03 531.94 1007.32 371.05 1141.82 388.16 1018.18 471.50 1006.08 566.80 1116.17 583.43
00020258 00000014 957.49 181.78 364.01 522.23 1002.72 365.98 1138.58 381.99 1012.86 464.03 1001.38 562.67 1112.15 578.00
00020259 00000015 957.88 178.48 361.57 523.23 1001.60 365.25 1133.62 380.83 1006.29 461.17 1000.04 557.59 1110.07 572.44
00020260 00000016 956.68 175.73 361.85 524.26 999.61 368.50 1131.28 382.81 1004.00 461.42 998.55 558.47 1110.32 571.90
00020261 00000017 954.08 177.48 363.76 524.58 998.49 367.86 1129.63 382.36 1002.29 460.63 997.47 558.46 1108.28 571.90
00020262 00000018 952.21 179.46 364.61 522.73 997.47 368.89 1130.10 382.88 1002.16 463.01 996.13 559.62 1108.08 572.65
00020263 00000019 951.06 178.04 367.45 521.69 995.75 369.13 1129.67 383.76 1001.46 463.49 994.02 558.52 1108.70 571.79
00020264 00000020 952.60 177.42 367.51 522.11 996.70 369.16 1130.63 383.70 1002.77 462.56 995.48 556.70 1110.05 570.01
00020265 00000021 953.70 177.36 365.88 520.47 997.21 368.28 1131.01 383.15 1003.67 462.03 996.00 555.89 1110.36 569.49
00020266 00000022 953.78 181.56 366.89 515.69 998.21 367.81 1132.68 382.16 1006.17 462.95 996.28 554.83 1111.13 568.17
00020267 00000023 954.74 180.76 367.33 519.21 1000.30 366.41 1135.84 381.86 1007.52 463.45 997.23 555.62 1114.14 570.13
00020268 00000024 954.34 178.66 368.26 521.33 999.86 366.09 1136.23 381.59 1007.75 463.66 997.35 555.51 1114.38 569.92
00020269 00000025 955.25 180.63 367.31 516.90 1001.11 365.80 1139.35 382.05 1010.47 464.55 997.35 554.89 1115.15 570.09
00020270 00000026 956.62 183.93 368.23 513.98 1002.39 366.57 1141.29 382.76 1011.48 463.47 997.11 555.67 1116.26 571.03
00020271 00000027 957.42 179.02 367.99 516.25 1001.88 365.86 1142.61 382.81 1011.00 463.56 994.92 555.04 1116.00 570.95
00020272 00000028 958.72 178.98 366.71 511.88 1001.37 365.16 1143.99 384.34 1011.22 464.18 993.18 554.46 1114.74 571.98
00020273 00000029 956.93 181.55 371.90 511.87 1003.12 366.06 1147.69 387.38 1014.43 465.94 992.93 554.93 1115.50 574.13
00020274 00000030 957.68 186.29 370.22 510.29 1005.21 369.79 1146.08 391.23 1016.66 470.10 996.04 557.03 1115.23 576.44
00020275 00000031 959.04 191.76 368.90 511.38 1007.92 372.24 1146.20 393.21 1018.27 471.57 1000.61 558.92 1118.54 578.35
00020276 00000032 960.17 180.98 369.63 521.75 1011.79 369.39 1151.42 387.46 1026.04 466.74 1008.52 554.55 1129.49 571.99
00020277 00000033 963.97 179.56 364.72 508.98 1011.62 368.54 1152.98 385.53 1029.04 466.37 1007.65 550.20 1130.07 566.45
00020278 00000034 969.76 171.34 360.95 510.10 1012.63 362.82 1156.29 381.94 1026.72 451.80 1010.88 544.83 1124.95 558.77
00020279 00000035 972.65 170.30 365.13 497.69 1014.73 360.29 1159.37 379.85 1027.98 447.25 1010.83 537.50 1129.87 551.50
00020280 00000036 976.72 165.94 362.58 493.11 1022.40 349.40 1165.50 372.86 1035.51 440.52 1011.86 528.06 1132.93 545.59
00020281 00000037 984.75 169.39 356.31 487.58 1028.45 343.26 1171.72 366.73 1043.21 439.87 1019.19 524.67 1138.31 542.46
00020282 00000038 989.83 162.35 355.68 489.94 1032.73 339.61 1176.01 362.38 1048.56 439.11 1021.30 523.66 1143.01 541.15
00020283 00000039 992.56 157.71 360.66 496.55 1034.21 344.93 1176.02 363.60 1050.43 435.76 1024.33 523.77 1143.40 538.07
00020284 00000040 994.43 153.20 359.76 505.73 1040.14 343.13 1181.61 362.42 1056.82 435.48 1031.12 521.57 1148.55 536.60
00020285 00000041 994.14 152.16 360.95 508.46 1039.38 344.26 1181.14 362.88 1056.74 435.02 1031.17 522.79 1146.66 537.33
00020286 00000042 1005.75 148.24 364.90 518.23 1049.25 341.72 1188.30 359.69 1060.72 430.72 1044.12 518.25 1160.45 532.08
00020287 00000043 1009.40 147.37 364.63 516.67 1053.42 340.80 1192.36 356.20 1067.19 428.13 1049.41 516.27 1167.36 528.34
00020288 00000044 1014.44 140.61 360.33 513.45 1059.57 339.55 1196.86 353.84 1073.84 425.41 1054.99 511.76 1170.42 523.02
00020289 00000045 1017.91 144.21 359.72 511.86 1063.95 336.93 1199.81 351.75 1079.25 423.42 1061.14 509.72 1175.42 521.30
00020290 00000046 1024.65 144.74 354.01 507.81 1068.91 335.81 1204.40 350.76 1083.95 421.92 1067.91 509.69 1181.46 521.09
00020291 00000047 1027.68 145.19 351.97 511.79 1070.69 331.13 1204.85 349.02 1084.98 421.77 1069.17 508.93 1179.92 522.68
00020292 00000048 1023.67 143.50 354.34 502.79 1067.62 334.20 1199.70 349.50 1080.99 422.15 1066.11 507.18 1175.06 519.13
00020293 00000049 1021.73 144.45 354.48 496.45 1065.49 337.70 1196.15 349.26 1079.09 419.86 1065.87 505.03 1175.43 513.85
00020294 00000050 1022.79 145.46 351.23 489.52 1062.94 342.00 1195.09 347.77 1077.31 421.01 1066.64 511.29 1177.32 515.19
00020295 00000051 1021.57 147.85 351.78 486.91 1063.73 343.74 1196.79 348.99 1077.82 423.00 1067.90 514.32 1180.70 517.80
00020296 00000052 1020.36 147.16 353.53 494.27 1063.33 344.68 1196.73 351.24 1078.96 425.43 1065.94 516.89 1178.39 521.54
00020297 00000053 1018.73 149.36 358.04 510.75 1071.94 347.45 1203.13 353.54 1084.63 433.08 1075.88 524.18 1188.87 530.77
00020298 00000054 1025.14 146.30 353.69 521.71 1075.09 346.69 1203.74 351.13 1084.75 431.13 1080.50 530.09 1190.02 535.99
00020299 00000055 1025.73 149.45 352.77 509.95 1076.38 343.66 1206.69 346.71 1089.79 425.51 1082.60 523.13 1194.86 527.85
00020300 00000056 1031.27 140.23 353.74 509.04 1076.80 336.42 1211.96 340.95 1093.34 407.98 1084.72 508.80 1197.01 511.42
00020301 00000057 1034.04 138.03 357.73 503.96 1084.48 330.45 1212.88 332.94 1097.33 410.52 1088.43 505.15 1203.31 509.53
00020302 00000058 1033.85 136.16 361.73 507.75 1082.41 336.14 1212.51 334.73 1096.64 413.41 1090.52 510.67 1205.74 511.46
00020303 00000059 1031.49 139.61 360.03 505.70 1074.86 344.83 1209.01 346.28 1092.91 425.25 1088.07 517.38 1200.06 517.11
00020304 DELETE   1033.93 153.10 356.60 491.05 1075.73 347.03 1206.62 347.32 1088.25 427.52 1091.66 528.04 1194.93 526.52
00020305 DELETE   1028.66 165.74 361.22 478.81 1068.98 365.55 1207.82 358.04 1090.56 437.33 1085.20 541.00 1197.98 533.16
00020306 00000062 1031.20 177.17 357.91 477.86 1068.21 374.63 1206.00 369.61 1088.60 445.40 1085.42 544.55 1195.93 538.37
00020307 00000063 1032.26 181.12 360.06 494.38 1073.41 371.41 1215.41 368.97 1097.65 455.05 1083.90 544.55 1206.08 544.44
00020308 00000064 1033.09 177.85 359.44 496.48 1074.72 370.53 1217.25 367.66 1102.42 453.65 1088.17 541.47 1212.19 541.23
00020309 00000065 1035.31 173.37 361.26 487.41 1072.62 366.28 1219.89 361.47 1102.10 448.94 1088.66 539.53 1215.60 537.02
00020310 00000066 1037.97 163.95 363.85 492.50 1073.90 363.19 1221.06 357.71 1103.27 444.43 1089.81 534.58 1217.60 531.55
00020311 00000067 1040.61 159.52 365.46 502.09 1081.30 361.20 1227.38 355.61 1112.85 442.17 1098.85 532.36 1224.32 529.44
00020312 00000068 1043.54 158.80 364.81 505.24 1089.50 362.11 1235.76 356.00 1124.92 441.92 1107.16 532.06 1232.56 529.00
00020313 00000069 1051.90 153.84 359.16 516.33 1101.83 362.03 1232.90 358.17 1123.29 430.45 1120.13 533.09 1220.74 527.45
00020314 00000070 1054.38 155.73 355.68 512.65 1104.38 363.10 1235.90 358.60 1125.28 429.90 1121.29 532.40 1222.45 526.41
00020315 00000071 1054.36 155.33 356.69 512.52 1104.51 363.95 1235.92 359.55 1124.89 430.53 1120.67 532.49 1222.59 526.68
00020316 00000072 1053.56 152.42 359.70 512.65 1102.65 365.21 1233.21 361.22 1123.10 432.04 1118.76 533.36 1219.21 528.00
00020317 00000073 1050.89 158.07 362.58 507.02 1097.39 369.09 1233.23 363.14 1122.47 435.88 1114.15 538.67 1219.12 531.57
00020318 00000074 1052.09 174.32 356.82 493.13 1092.58 376.82 1229.16 367.82 1122.04 445.16 1113.65 546.98 1216.93 537.30
00020319 00000075 1052.81 176.54 354.08 504.33 1093.34 383.67 1233.52 377.59 1122.62 455.09 1112.21 557.68 1222.05 550.75
00020320 00000076 1048.36 190.93 361.59 490.70 1097.20 385.55 1238.90 385.96 1127.85 468.16 1115.25 556.57 1227.81 558.19
00020321 00000077 1052.81 178.19 356.44 507.16 1095.99 387.80 1240.82 386.38 1131.19 463.42 1110.67 560.21 1223.75 557.48
00020322 00000078 1053.61 175.06 357.05 512.24 1097.51 387.50 1242.00 386.21 1132.19 461.82 1111.61 560.25 1224.58 557.72
00020323 00000079 1054.43 177.41 357.89 511.78 1098.35 387.05 1242.82 385.18 1132.74 461.66 1112.58 561.20 1226.07 558.26
00020324 00000080 1054.75 175.47 357.93 511.68 1097.13 385.49 1243.40 383.32 1132.88 461.92 1112.07 560.64 1225.59 557.56
00020325 00000081 1047.90 184.87 365.00 499.90 1097.90 380.34 1244.72 380.72 1133.85 468.14 1116.11 556.32 1234.14 557.45
00020326 00000082 1053.92 174.24 358.00 513.28 1095.28 383.03 1242.62 380.22 1131.92 460.11 1111.77 558.57 1227.94 554.69
00020327 00000083 1049.25 177.88 359.41 510.72 1098.94 389.55 1242.67 389.67 1131.09 471.08 1109.61 557.27 1234.93 559.71
00020328 00000084 1046.51 186.11 360.78 507.21 1098.65 389.82 1238.49 394.24 1128.08 474.58 1106.90 556.68 1230.25 562.60
00020329 00000085 1043.36 180.90 364.70 512.87 1091.66 391.16 1231.61 395.76 1117.87 479.85 1102.61 562.80 1223.34 568.20
00020330 00000086 1042.68 183.48 366.32 512.96 1089.46 393.76 1227.42 398.87 1111.04 482.30 1099.10 563.75 1221.24 569.17
00020331 00000087 1045.08 188.97 367.53 501.02 1086.22 389.00 1226.19 393.37 1109.65 478.70 1105.28 563.36 1215.19 568.62
00020332 00000088 1051.49 196.34 363.35 489.94 1097.16 382.76 1231.81 392.56 1114.44 473.92 1108.45 554.47 1218.74 564.05
00020333 DELETE   1058.09 174.71 359.94 516.33 1105.79 373.31 1248.13 380.52 1125.94 460.81 1112.06 554.80 1225.71 562.29
00020334 DELETE   1074.76 159.37 344.90 530.19 1112.49 366.03 1262.62 373.87 1142.04 444.04 1122.36 557.37 1225.26 562.52
00020335 DELETE   1079.12 145.23 357.44 540.85 1142.94 361.50 1289.03 370.91 1173.55 448.12 1138.34 546.53 1255.52 555.86
00020336 00000092 1088.85 135.59 355.77 533.09 1154.82 350.14 1302.24 365.42 1184.21 441.75 1147.88 531.93 1265.84 546.58
00020337 00000093 1100.92 152.19 350.91 516.28 1156.07 346.10 1305.41 357.35 1189.75 433.97 1153.11 525.09 1271.42 537.52
00020338 00000094 1105.48 153.05 347.68 513.64 1159.49 345.75 1306.74 354.80 1191.50 431.64 1155.72 524.61 1272.82 535.85
00020339 00000095 1105.71 151.13 348.30 513.38 1159.33 346.50 1307.40 356.13 1191.00 433.31 1154.41 523.07 1273.60 534.78
00020340 00000096 1098.88 140.33 353.86 515.83 1163.83 338.99 1310.38 356.78 1190.71 428.85 1151.42 518.11 1268.87 535.49
00020341 00000097 1101.27 136.46 351.84 518.13 1161.62 332.91 1307.34 351.23 1185.21 426.01 1150.96 515.71 1267.06 533.63
00020342 00000098 1102.85 139.98 349.48 522.23 1151.94 329.95 1298.36 352.42 1170.15 420.05 1143.63 514.24 1258.99 532.35
00020343 00000099 1101.33 141.21 351.77 503.99 1147.06 323.13 1288.66 341.94 1163.85 406.69 1137.62 506.30 1250.33 521.87
00020344 00000100 1101.54 135.07 350.62 509.24 1147.93 319.60 1289.88 338.03 1164.40 402.11 1139.21 502.99 1250.99 518.37
00020345 00000101 1098.05 134.52 352.42 504.78 1154.48 317.96 1291.08 334.51 1169.71 401.44 1142.39 499.83 1253.73 515.90
00020346 00000102 1098.04 133.13 351.42 508.24 1155.13 318.52 1290.78 336.87 1168.65 403.44 1142.58 497.59 1254.48 515.31
00020347 00000103 1098.61 136.05 350.35 506.46 1155.54 321.62 1289.19 338.38 1167.62 404.70 1143.27 499.29 1253.92 515.70
00020348 00000104 1098.86 134.90 349.28 505.71 1155.70 321.52 1288.73 338.71 1167.63 404.37 1143.16 498.57 1253.81 515.36
00020349 00000105 1099.67 134.62 348.54 507.18 1154.62 321.30 1287.86 337.76 1167.19 405.48 1144.34 500.88 1252.54 517.05
00020350 00000106 1099.13 139.71 347.75 497.50 1144.33 327.33 1281.40 341.83 1157.42 403.14 1136.41 501.10 1244.48 513.24
00020351 00000107 1095.76 140.23 352.10 492.60 1141.20 327.17 1278.80 342.04 1153.49 403.82 1132.11 500.97 1243.41 513.51
00020352 00000108 1090.72 142.01 354.45 491.10 1138.68 328.88 1278.78 343.81 1153.14 406.01 1128.12 501.27 1243.72 514.04
00020353 00000109 1089.75 146.34 355.88 507.40 1140.38 330.09 1279.22 347.37 1153.08 408.45 1130.83 504.63 1243.58 518.84
00020354 00000110 1088.92 149.79 358.01 512.88 1139.60 330.45 1279.31 344.58 1154.55 407.97 1133.66 508.36 1248.23 519.61
CROP_BBOX: 788 0 1616 842
