Video ID: 	CFmzTSrHb2o
H: 	2160
W: 	3840
FPS: 	25.0

FRAME INDEX X0 Y0 W H [Landmarks (5 Points)]

00012738 00000000 1218.73 376.57 444.79 634.55 1314.46 662.83 1528.57 664.02 1409.59 793.58 1340.33 880.84 1492.94 880.61
00012739 DELETE   1214.21 378.94 442.77 633.91 1309.08 663.40 1523.66 668.12 1402.13 797.57 1332.33 881.18 1485.59 883.39
00012740 00000002 1211.08 380.38 442.06 634.36 1305.77 662.96 1522.03 670.76 1398.05 798.72 1326.67 880.77 1482.10 885.19
00012741 00000003 1209.55 382.72 441.55 633.12 1304.57 664.72 1520.57 673.20 1397.16 800.93 1324.92 881.77 1480.13 886.58
00012742 00000004 1208.17 382.72 441.29 632.39 1304.57 666.01 1520.05 674.26 1397.66 802.84 1325.66 883.01 1479.65 887.57
00012743 00000005 1207.25 383.98 441.00 631.62 1304.13 666.15 1519.63 675.42 1397.69 804.29 1324.71 884.67 1478.40 890.14
00012744 00000006 1206.68 385.27 442.32 631.42 1304.88 667.38 1520.47 675.63 1399.42 804.91 1326.14 885.08 1479.22 889.70
00012745 00000007 1206.23 386.87 442.59 630.32 1306.27 669.03 1521.78 676.49 1401.97 806.41 1327.83 888.08 1480.33 892.29
00012746 00000008 1206.20 386.73 442.58 630.31 1307.75 669.38 1524.40 675.80 1405.92 808.81 1330.05 890.82 1483.78 894.22
00012747 00000009 1206.87 385.84 442.29 637.74 1310.20 669.11 1526.26 675.18 1410.11 810.21 1333.65 898.34 1482.47 901.75
00012748 00000010 1209.87 381.96 441.95 644.04 1314.55 668.73 1530.37 674.26 1417.57 810.71 1338.53 901.75 1485.47 905.04
00012749 00000011 1211.29 382.41 442.17 639.87 1318.72 668.57 1533.78 672.95 1422.61 809.13 1343.99 901.13 1490.56 903.67
00012750 00000012 1213.91 377.69 441.49 640.88 1323.81 666.87 1539.16 671.95 1429.09 803.16 1349.34 896.50 1493.40 899.77
00012751 00000013 1218.02 374.62 443.82 641.41 1333.15 664.59 1545.39 668.06 1440.21 796.05 1360.47 891.94 1502.53 893.83
00012752 00000014 1222.70 368.63 446.36 647.22 1343.19 658.98 1553.31 661.18 1455.99 784.66 1371.25 883.27 1513.49 883.74
00012753 00000015 1227.21 361.60 447.16 654.17 1350.43 655.16 1561.75 659.18 1465.14 782.59 1377.51 879.23 1522.59 880.83
00012754 00000016 1233.54 359.18 447.69 657.42 1356.99 649.15 1569.11 655.09 1472.01 776.90 1381.50 876.39 1529.56 879.68
00012755 DELETE   1241.18 353.44 448.80 658.20 1362.06 643.35 1576.28 646.96 1478.21 773.60 1391.06 870.36 1541.28 871.28
00012756 00000018 1247.99 350.08 447.65 658.43 1365.66 637.09 1579.99 639.66 1480.64 766.10 1396.03 866.09 1546.48 866.28
00012757 00000019 1253.53 347.07 446.43 659.94 1366.49 633.83 1581.92 637.44 1478.86 762.55 1396.64 864.25 1547.47 865.82
00012758 00000020 1254.99 348.48 446.42 659.03 1365.03 634.44 1579.31 636.83 1475.66 762.63 1394.43 864.37 1546.27 865.19
00012759 00000021 1253.83 353.29 447.88 655.07 1362.79 637.66 1576.97 637.97 1474.20 768.59 1391.79 864.66 1547.54 863.59
00012760 00000022 1252.70 356.69 448.45 650.47 1360.72 641.85 1575.85 641.83 1469.54 773.30 1386.38 863.34 1548.01 862.38
00012761 00000023 1251.08 356.73 450.66 651.91 1359.27 646.21 1573.90 645.64 1466.44 774.82 1384.10 864.18 1547.15 863.09
00012762 00000024 1250.92 353.50 450.37 658.22 1360.26 650.05 1573.78 650.66 1466.83 777.46 1383.43 864.85 1545.24 864.90
00012763 00000025 1251.37 353.95 449.38 661.14 1362.63 652.32 1576.87 655.74 1471.10 779.22 1384.78 866.96 1544.59 869.29
00012764 00000026 1251.01 355.54 450.50 665.60 1365.11 653.08 1579.25 659.49 1474.91 783.73 1385.82 873.04 1541.11 877.73
00012765 00000027 1253.99 360.70 446.97 663.26 1368.55 655.14 1583.07 662.54 1479.17 786.57 1385.89 874.17 1543.91 879.79
00012766 00000028 1252.67 361.05 448.87 664.29 1370.05 656.92 1585.38 663.93 1481.90 788.72 1387.56 877.35 1544.14 882.70
00012767 00000029 1251.65 362.03 449.21 662.11 1370.93 656.86 1585.86 664.56 1482.44 789.43 1386.31 875.84 1544.34 881.71
00012768 00000030 1249.99 363.04 448.90 659.12 1369.15 655.90 1585.16 664.36 1480.79 787.39 1383.43 872.75 1544.66 879.21
00012769 00000031 1244.20 364.32 451.66 657.12 1364.06 655.94 1581.64 664.77 1476.75 785.50 1378.98 870.90 1541.99 877.44
00012770 00000032 1241.50 366.55 450.84 654.45 1358.75 656.25 1574.26 664.16 1468.65 785.69 1375.95 872.83 1535.01 878.39
00012771 00000033 1240.36 366.14 448.94 653.52 1353.78 658.23 1569.34 664.28 1461.95 785.15 1372.59 874.01 1531.64 878.24
00012772 00000034 1237.51 365.39 450.89 654.70 1349.25 659.42 1563.32 663.23 1455.35 782.56 1370.19 875.25 1527.81 877.76
00012773 00000035 1236.15 363.80 452.50 655.36 1346.76 657.32 1561.00 660.38 1451.78 779.35 1369.04 874.56 1526.30 876.52
00012774 00000036 1236.51 364.42 452.63 654.14 1346.60 656.53 1559.62 658.78 1450.11 777.29 1368.94 873.97 1525.98 875.36
00012775 00000037 1238.51 361.16 451.43 655.00 1347.92 655.92 1560.52 657.84 1451.10 776.64 1370.64 872.59 1527.77 873.86
00012776 00000038 1241.21 359.86 451.59 656.47 1351.00 655.02 1562.48 657.76 1452.87 775.68 1372.44 869.90 1529.91 871.85
00012777 00000039 1242.86 359.11 451.17 655.04 1354.23 653.78 1565.76 656.31 1457.78 776.36 1375.92 867.99 1534.35 869.67
00012778 00000040 1244.81 358.24 451.86 656.53 1355.98 652.97 1568.61 656.91 1459.42 776.31 1376.61 868.06 1535.32 870.94
00012779 00000041 1247.11 360.90 452.09 654.61 1359.75 652.80 1573.08 658.94 1463.82 778.86 1379.55 868.92 1536.87 873.33
00012780 00000042 1249.15 359.04 452.04 658.49 1361.99 652.60 1576.42 660.58 1466.41 779.81 1380.03 870.03 1537.62 876.08
00012781 00000043 1253.99 362.20 449.66 655.90 1366.22 654.18 1580.92 663.14 1471.78 783.74 1382.55 870.87 1541.03 877.88
00012782 00000044 1258.87 363.68 445.44 655.25 1370.63 656.86 1585.22 665.91 1475.78 787.10 1385.48 871.45 1544.06 878.61
00012783 00000045 1263.38 367.25 441.83 652.08 1375.61 659.90 1587.54 670.40 1479.02 790.62 1388.19 872.91 1545.00 881.49
00012784 00000046 1264.39 372.70 442.34 646.48 1377.43 663.21 1589.41 672.52 1481.07 793.97 1390.54 875.47 1547.28 883.20
00012785 00000047 1266.19 373.68 440.40 647.05 1378.77 664.25 1590.69 674.11 1482.50 796.08 1391.57 877.27 1548.27 885.55
00012786 00000048 1267.97 380.45 439.29 642.93 1379.12 667.88 1591.10 676.59 1482.95 799.08 1392.86 882.14 1548.30 889.69
00012787 00000049 1269.13 380.91 438.72 643.88 1378.61 670.90 1591.48 678.90 1482.66 802.07 1393.46 884.88 1548.66 891.96
00012788 00000050 1264.84 387.55 441.20 631.96 1377.49 672.03 1593.53 683.09 1484.00 806.56 1395.98 889.43 1556.43 897.51
00012789 00000051 1266.20 389.06 441.00 631.49 1378.34 674.33 1593.45 685.30 1483.93 808.77 1397.03 891.02 1556.09 899.12
00012790 00000052 1266.76 391.16 441.12 631.41 1378.30 676.67 1593.57 687.06 1483.48 812.57 1396.86 893.53 1556.12 901.21
00012791 00000053 1268.05 396.20 440.28 628.87 1379.29 679.06 1593.64 689.00 1483.73 814.85 1396.91 895.49 1556.18 902.83
00012792 00000054 1267.92 397.15 441.11 630.49 1380.07 682.11 1593.56 691.77 1484.16 818.66 1397.10 897.72 1555.68 904.87
00012793 00000055 1266.04 398.98 442.22 630.19 1379.11 684.65 1590.91 693.14 1483.14 820.43 1396.91 899.11 1553.61 905.31
00012794 00000056 1264.37 402.08 443.31 627.53 1377.01 686.14 1589.54 693.55 1481.57 821.34 1396.61 900.01 1552.61 905.24
00012795 00000057 1261.26 407.44 444.02 622.38 1374.96 686.84 1586.44 694.60 1479.31 820.59 1395.25 900.13 1549.19 905.49
00012796 00000058 1258.08 404.60 446.09 627.07 1371.21 687.82 1584.49 695.53 1476.70 820.46 1391.58 900.77 1546.78 906.27
00012797 00000059 1256.77 407.72 445.27 625.59 1368.34 687.83 1582.46 696.36 1474.00 821.21 1389.04 902.61 1543.23 908.69
00012798 00000060 1254.20 410.29 444.97 624.05 1363.27 688.38 1577.83 697.02 1468.37 822.63 1384.43 903.98 1540.35 909.88
00012799 00000061 1252.03 407.46 445.02 627.12 1361.14 688.34 1575.03 698.46 1465.55 823.22 1381.04 903.12 1535.58 910.06
00012800 00000062 1250.89 408.83 443.66 630.97 1360.82 690.91 1572.55 699.79 1463.65 826.71 1382.62 908.98 1534.05 914.98
00012801 00000063 1250.18 410.05 441.25 633.60 1360.17 692.35 1569.71 702.26 1461.28 828.29 1380.78 911.80 1528.93 918.66
00012802 00000064 1248.46 411.16 439.89 634.30 1358.82 692.14 1566.43 701.99 1458.32 830.64 1379.22 913.98 1525.93 920.73
00012803 00000065 1246.36 414.70 440.33 635.92 1356.74 693.62 1565.06 701.89 1455.35 832.48 1377.13 917.99 1525.69 923.62
00012804 00000066 1243.63 417.77 440.96 634.59 1355.42 695.04 1561.75 703.67 1451.39 834.75 1375.85 921.78 1519.04 927.51
00012805 00000067 1242.08 423.78 440.07 627.47 1352.04 697.59 1559.83 706.79 1447.66 837.39 1372.60 924.33 1515.98 930.57
00012806 00000068 1240.39 432.28 439.95 617.16 1349.66 701.79 1556.98 710.62 1443.01 839.18 1371.41 925.01 1514.76 930.81
00012807 00000069 1239.22 435.08 440.01 615.42 1348.10 704.75 1555.36 712.37 1440.56 842.49 1370.73 927.17 1514.55 932.00
00012808 00000070 1239.13 435.66 438.87 615.32 1347.46 706.99 1554.77 713.94 1440.48 845.60 1370.47 928.71 1514.99 932.85
00012809 00000071 1239.36 439.53 437.56 615.26 1347.02 711.01 1555.19 716.38 1440.73 848.90 1369.70 931.16 1516.21 934.25
00012810 00000072 1239.93 444.78 436.65 612.34 1347.00 713.83 1556.81 717.83 1442.73 853.28 1370.40 934.09 1519.39 936.05
00012811 00000073 1240.28 446.68 436.38 613.64 1346.50 716.91 1557.47 720.21 1444.31 854.49 1370.10 935.71 1520.78 937.12
00012812 00000074 1240.14 450.77 438.71 610.51 1348.35 718.19 1558.93 721.80 1447.20 856.82 1372.01 937.03 1520.81 938.58
00012813 00000075 1242.32 452.70 439.05 607.01 1351.33 720.04 1562.32 722.65 1452.03 858.24 1377.28 938.02 1524.69 938.43
00012814 00000076 1246.73 449.95 437.71 607.25 1354.74 717.74 1565.40 722.48 1455.32 858.58 1381.26 937.64 1526.68 939.55
00012815 00000077 1250.10 445.61 437.80 611.54 1359.20 714.65 1569.16 721.03 1460.44 856.57 1382.84 932.53 1531.48 935.57
00012816 00000078 1252.73 444.34 436.27 611.20 1361.53 712.14 1571.57 719.22 1464.02 852.76 1382.27 928.32 1536.03 932.05
00012817 00000079 1255.24 444.11 434.96 611.02 1364.20 709.34 1575.13 718.10 1467.97 853.68 1384.27 929.11 1537.20 934.28
00012818 00000080 1256.92 441.56 434.88 613.27 1366.59 710.60 1576.83 718.09 1470.45 853.62 1387.97 931.67 1538.49 936.12
00012819 00000081 1257.47 443.42 436.54 614.42 1368.81 712.93 1580.19 718.51 1473.35 854.77 1391.76 933.28 1544.35 936.08
00012820 00000082 1259.85 444.29 434.72 615.56 1369.97 714.60 1581.26 720.25 1474.80 857.13 1390.73 933.19 1545.16 936.25
00012821 00000083 1261.95 444.65 434.12 612.98 1370.37 717.43 1582.16 721.73 1475.39 860.07 1388.95 931.25 1547.65 933.80
00012822 00000084 1262.81 445.24 435.44 614.36 1371.84 716.83 1582.54 722.17 1476.01 860.00 1388.50 930.65 1547.09 934.07
00012823 00000085 1265.85 443.48 433.31 618.82 1373.85 714.41 1583.61 721.67 1477.21 859.20 1390.09 931.28 1546.69 936.15
00012824 00000086 1267.32 443.94 432.39 617.75 1374.73 712.52 1584.42 720.50 1478.06 860.22 1390.23 932.11 1545.94 937.62
00012825 00000087 1267.82 443.58 431.27 617.47 1375.70 711.72 1585.62 719.96 1479.66 859.27 1391.49 931.91 1546.35 937.47
00012826 00000088 1266.72 444.13 432.46 614.19 1375.85 712.37 1585.09 720.01 1479.34 856.86 1390.91 927.42 1548.19 932.54
00012827 00000089 1265.64 442.75 432.97 612.61 1376.29 712.84 1585.51 719.91 1480.21 858.26 1391.38 927.29 1548.41 931.99
00012828 00000090 1265.62 441.15 432.35 615.64 1376.77 716.54 1584.71 722.50 1480.80 858.24 1390.87 927.50 1548.98 931.71
00012829 00000091 1265.94 443.38 431.69 614.66 1376.77 717.37 1584.11 722.99 1480.97 858.66 1390.24 927.65 1548.61 931.60
00012830 00000092 1265.85 442.68 431.35 616.70 1376.15 717.24 1583.21 723.03 1480.34 858.87 1388.82 927.38 1547.63 931.60
00012831 00000093 1264.48 441.88 432.29 617.96 1375.50 717.04 1583.14 722.87 1479.85 857.99 1389.60 928.60 1547.18 932.63
00012832 00000094 1264.52 442.64 432.79 617.37 1375.24 717.01 1583.34 722.47 1480.04 857.87 1389.72 928.61 1547.87 932.33
00012833 00000095 1264.63 438.82 432.53 620.68 1375.86 717.60 1583.63 723.24 1480.48 856.73 1390.47 928.09 1547.73 932.09
00012834 00000096 1265.53 438.73 431.85 621.21 1377.39 718.85 1583.00 724.64 1481.14 853.70 1391.64 927.21 1547.56 931.38
00012835 00000097 1266.58 435.24 431.18 622.61 1379.74 717.26 1583.67 723.79 1483.81 851.62 1392.75 924.94 1547.31 929.81
00012836 00000098 1265.12 433.02 433.98 624.05 1381.66 716.73 1585.03 721.99 1486.48 849.81 1395.44 923.39 1550.03 927.27
00012837 00000099 1265.08 433.16 435.24 625.40 1383.81 715.04 1587.45 722.05 1488.88 847.57 1397.65 924.56 1550.41 929.67
00012838 00000100 1267.63 432.26 431.93 628.49 1388.30 711.03 1590.08 719.10 1494.31 844.78 1404.50 927.69 1550.75 933.09
00012839 00000101 1269.29 425.80 433.24 633.59 1394.84 705.33 1594.20 714.42 1501.97 845.05 1409.29 927.80 1552.76 933.57
00012840 00000102 1272.90 419.50 434.08 634.68 1396.76 701.50 1599.97 710.76 1505.85 845.16 1414.28 927.27 1557.92 932.95
00012841 00000103 1271.46 412.60 436.83 633.08 1397.43 697.09 1602.84 705.69 1508.81 841.92 1418.56 924.44 1559.99 929.06
00012842 00000104 1273.98 412.09 435.78 630.05 1400.64 694.01 1603.73 702.88 1510.41 840.45 1423.12 923.24 1561.48 927.63
00012843 00000105 1273.76 406.96 437.66 631.33 1402.15 691.51 1606.73 700.10 1513.06 837.65 1426.49 920.63 1565.09 924.69
00012844 00000106 1273.25 405.25 440.00 633.74 1403.59 690.20 1609.75 698.13 1516.01 834.85 1428.60 919.74 1569.00 923.26
00012845 00000107 1272.97 405.09 440.94 633.53 1403.20 689.29 1610.96 694.82 1517.40 834.15 1428.95 919.53 1574.24 921.40
00012846 00000108 1272.74 406.80 442.00 632.55 1403.72 688.15 1612.24 693.42 1518.86 832.59 1427.49 918.81 1575.63 920.94
00012847 00000109 1274.16 405.78 440.65 635.64 1405.47 687.78 1612.43 693.17 1520.48 832.46 1429.88 919.07 1576.03 921.24
00012848 00000110 1273.76 406.43 440.94 634.35 1405.72 687.76 1613.34 692.33 1521.01 831.26 1432.49 919.49 1578.43 920.73
00012849 00000111 1274.22 404.43 438.80 633.89 1405.99 688.03 1613.39 691.84 1520.63 830.41 1436.05 919.90 1579.19 920.19
00012850 00000112 1274.16 404.47 438.89 633.04 1406.19 688.08 1613.18 691.26 1520.35 829.49 1437.01 920.09 1579.53 919.79
00012851 00000113 1275.10 403.09 437.35 633.12 1406.03 687.15 1613.37 690.09 1520.25 828.53 1437.28 919.02 1580.05 918.57
00012852 00000114 1276.19 400.41 437.34 637.79 1406.22 685.75 1613.93 689.82 1521.66 827.65 1435.36 917.60 1581.03 918.44
00012853 00000115 1276.18 397.63 438.94 642.35 1407.04 684.38 1615.03 690.20 1521.99 825.45 1433.25 915.08 1580.75 917.61
00012854 00000116 1275.59 396.68 441.18 644.71 1407.53 682.32 1616.51 688.34 1523.70 823.81 1432.32 912.91 1581.97 915.90
00012855 00000117 1276.00 394.82 441.28 647.11 1408.27 680.82 1616.99 687.34 1524.47 822.28 1432.13 911.55 1582.75 915.07
00012856 00000118 1275.97 395.14 442.29 646.96 1409.18 680.66 1617.59 686.79 1525.78 821.84 1431.36 910.15 1583.48 913.67
00012857 00000119 1276.52 396.40 441.79 645.50 1410.04 680.22 1617.69 686.65 1526.38 821.73 1431.52 909.92 1583.30 913.71
00012858 00000120 1276.31 396.06 441.29 645.50 1410.08 679.96 1617.91 686.58 1526.49 821.49 1431.39 909.99 1583.54 913.93
00012859 00000121 1276.22 397.28 441.46 643.98 1410.23 679.89 1617.67 686.18 1526.36 821.37 1432.07 910.20 1583.75 913.77
00012860 00000122 1276.07 396.87 441.90 644.01 1409.97 679.91 1617.37 686.54 1525.65 821.26 1432.25 910.21 1582.59 913.98
00012861 00000123 1274.91 396.17 442.79 643.80 1408.42 679.97 1617.61 686.13 1524.77 821.46 1432.75 911.87 1583.39 915.01
00012862 00000124 1273.51 395.94 444.46 641.36 1406.83 680.72 1618.21 685.28 1524.35 822.17 1434.05 912.02 1586.01 913.59
00012863 00000125 1274.31 397.17 443.60 639.36 1405.31 681.44 1618.31 684.87 1524.12 823.00 1433.45 911.64 1587.79 912.35
00012864 00000126 1275.70 399.73 442.42 635.77 1404.58 680.79 1617.52 684.18 1524.15 824.46 1433.30 911.69 1588.02 912.34
00012865 00000127 1275.94 399.10 442.30 637.96 1405.96 680.84 1617.17 684.60 1524.27 823.42 1434.40 912.28 1586.83 913.32
00012866 00000128 1276.92 400.10 442.44 639.54 1406.81 681.89 1617.82 684.96 1525.32 823.08 1436.09 914.74 1588.12 915.25
00012867 00000129 1277.53 401.73 442.94 637.33 1408.55 681.46 1618.87 684.19 1527.05 818.63 1438.26 911.66 1590.10 912.05
00012868 00000130 1281.80 395.47 440.86 638.06 1415.04 679.56 1621.11 677.53 1531.37 814.52 1440.28 909.17 1590.95 906.77
00012869 00000131 1282.32 393.55 440.48 640.46 1415.36 679.00 1621.75 677.36 1531.71 813.42 1440.31 908.24 1591.57 906.24
00012870 00000132 1283.41 394.49 440.37 638.97 1416.75 679.25 1622.88 677.53 1533.25 813.23 1441.57 907.82 1592.39 905.72
00012871 00000133 1284.28 399.42 439.69 637.56 1417.48 680.48 1623.33 678.77 1534.34 814.50 1442.49 910.92 1593.11 908.57
00012872 00000134 1285.16 401.56 438.37 639.71 1418.09 682.93 1623.53 681.47 1535.01 817.57 1441.75 913.34 1592.28 911.12
00012873 00000135 1285.43 407.96 437.86 633.10 1419.13 684.01 1623.98 683.02 1536.29 820.89 1441.19 913.65 1591.26 911.61
00012874 00000136 1283.86 405.33 439.06 631.71 1418.71 683.73 1624.48 680.85 1536.75 819.63 1444.14 914.55 1593.53 911.08
00012875 00000137 1282.23 399.09 440.95 630.39 1417.41 681.29 1624.18 678.07 1536.40 815.40 1444.88 910.22 1594.50 906.57
00012876 00000138 1283.11 397.22 438.44 629.20 1416.57 679.48 1622.39 678.24 1533.44 813.59 1445.19 911.01 1589.86 908.99
00012877 00000139 1283.37 398.86 436.08 629.11 1415.27 681.92 1621.24 680.81 1532.80 818.04 1445.76 916.20 1587.63 914.09
00012878 00000140 1282.79 400.71 436.33 631.85 1414.91 683.05 1621.25 682.20 1533.20 821.10 1444.09 917.85 1586.74 915.87
00012879 00000141 1284.03 400.65 438.33 636.67 1416.81 680.54 1621.92 679.53 1532.90 817.16 1442.76 913.85 1588.08 911.94
00012880 00000142 1284.30 393.55 437.45 643.42 1419.06 675.47 1623.42 674.79 1535.82 813.10 1440.63 910.47 1590.14 909.04
00012881 00000143 1283.92 388.73 437.21 648.82 1418.65 673.32 1622.90 673.62 1535.85 811.22 1437.77 908.24 1590.62 907.79
00012882 00000144 1284.98 394.41 435.32 645.26 1419.35 675.06 1623.30 674.98 1535.69 813.65 1438.10 910.45 1590.35 909.49
00012883 00000145 1284.72 398.70 435.73 641.27 1418.99 678.15 1623.11 678.00 1535.19 816.07 1438.46 911.01 1589.75 909.97
00012884 00000146 1284.95 399.33 436.20 639.45 1418.54 678.90 1623.20 678.50 1534.79 815.87 1437.94 909.18 1590.81 908.02
00012885 00000147 1285.36 398.65 437.37 636.05 1419.02 678.22 1623.43 677.11 1534.88 815.87 1438.59 907.31 1591.66 905.69
00012886 00000148 1284.29 397.18 438.92 635.50 1418.73 677.74 1623.04 675.58 1534.44 814.81 1438.90 904.89 1593.19 902.47
00012887 00000149 1284.26 394.44 439.04 636.67 1418.61 677.40 1622.64 674.93 1533.59 813.84 1440.15 905.13 1592.85 902.59
00012888 00000150 1284.94 394.86 438.91 635.90 1418.33 677.05 1622.79 674.58 1533.28 813.41 1440.06 905.20 1593.26 902.66
00012889 00000151 1285.91 394.54 437.71 636.92 1419.29 676.95 1623.05 675.00 1534.06 813.70 1440.43 904.99 1593.25 902.85
00012890 00000152 1286.94 395.47 438.24 636.48 1420.67 676.99 1624.58 675.74 1535.77 813.49 1440.70 904.29 1594.85 902.68
00012891 00000153 1287.86 394.21 439.57 637.76 1422.36 676.26 1627.25 675.55 1538.10 813.14 1441.63 904.04 1596.02 902.81
00012892 00000154 1290.23 393.37 440.02 637.90 1424.88 675.76 1630.34 675.23 1540.82 812.34 1444.60 903.33 1599.63 902.17
00012893 00000155 1292.30 390.12 442.21 642.22 1426.96 675.54 1633.77 675.16 1544.15 811.97 1446.75 902.55 1603.30 901.43
00012894 00000156 1295.65 389.35 442.90 644.66 1429.31 676.77 1636.76 676.51 1546.59 811.73 1450.44 903.44 1607.32 902.35
00012895 00000157 1299.57 388.43 444.31 646.32 1431.10 677.94 1639.65 678.08 1548.22 812.39 1453.85 905.04 1609.89 904.12
00012896 00000158 1302.43 395.57 445.80 640.63 1432.18 687.12 1642.21 684.64 1549.70 812.79 1457.19 905.99 1614.23 902.95
00012897 00000159 1307.01 400.66 444.68 639.26 1431.53 691.00 1646.75 688.65 1550.04 817.31 1457.25 910.63 1618.51 907.61
00012898 00000160 1309.26 403.96 449.28 642.56 1433.68 692.45 1649.08 690.04 1551.44 824.81 1461.54 916.27 1619.56 912.81
00012899 00000161 1318.25 407.17 449.00 646.63 1437.24 694.94 1651.16 691.88 1551.23 830.24 1466.37 922.90 1622.24 918.89
00012900 00000162 1329.77 407.62 443.08 655.79 1441.09 699.19 1655.32 697.49 1552.16 836.51 1469.31 928.08 1625.49 925.46
