Video ID: 	2JflI7blQEk
H: 	1080
W: 	1920
FPS: 	25.0

FRAME INDEX X0 Y0 W H [Landmarks (5 Points)]

00001525 00000000 1074.28 106.99 426.65 605.84 1177.34 343.07 1362.55 393.54 1216.00 459.43 1140.03 548.16 1285.92 590.54
00001526 DELETE   1076.02 109.30 426.68 605.78 1178.49 345.58 1363.74 396.65 1215.66 460.12 1141.05 549.19 1287.13 591.97
00001527 DELETE   1078.60 107.41 428.17 617.14 1185.01 345.22 1359.30 391.23 1225.87 460.44 1150.57 550.47 1284.64 589.75
00001528 00000003 1077.94 116.85 427.50 623.20 1173.16 344.44 1363.51 391.06 1207.71 460.00 1132.16 556.80 1285.70 596.09
00001529 00000004 1074.94 113.18 428.45 637.83 1169.42 341.74 1357.82 386.34 1202.11 456.76 1127.97 559.31 1283.97 597.10
00001530 00000005 1071.32 112.08 428.21 643.09 1167.02 339.28 1353.30 382.56 1199.21 452.25 1125.42 559.08 1281.48 595.97
00001531 00000006 1069.28 111.48 428.06 647.28 1165.54 339.21 1353.28 381.27 1198.67 449.64 1126.20 560.82 1284.78 596.38
00001532 00000007 1069.48 110.82 424.64 649.81 1165.74 340.01 1352.18 384.00 1200.15 454.32 1125.68 561.57 1284.17 598.79
00001533 00000008 1066.88 110.73 423.23 646.06 1160.30 345.54 1351.58 391.08 1199.64 460.17 1122.83 561.37 1287.51 599.56
00001534 00000009 1055.23 103.85 432.97 636.35 1156.61 350.73 1338.65 400.59 1192.95 465.71 1123.07 557.42 1276.00 598.65
00001535 00000010 1052.48 102.81 432.09 620.36 1152.43 346.43 1330.45 395.97 1185.63 462.67 1117.56 548.95 1265.00 589.68
00001536 00000011 1049.35 99.48 429.23 611.08 1149.72 340.69 1328.70 390.38 1182.73 456.42 1113.82 543.37 1258.77 583.98
00001537 00000012 1043.62 99.67 430.83 607.74 1143.41 339.63 1324.73 387.11 1178.23 454.07 1108.54 542.10 1254.45 580.75
00001538 00000013 1041.33 100.69 427.79 614.12 1141.38 343.31 1318.37 387.67 1176.45 456.54 1110.00 549.12 1248.25 585.76
00001539 00000014 1038.67 103.80 428.02 614.56 1140.75 346.69 1316.61 389.97 1177.07 458.51 1108.29 553.22 1245.03 589.28
00001540 DELETE   1036.83 104.50 430.18 612.58 1138.81 348.38 1317.42 390.25 1178.31 459.47 1107.56 553.26 1248.58 588.09
00001541 00000016 1036.20 103.92 430.06 611.56 1137.70 347.71 1316.06 390.13 1175.94 458.09 1105.83 551.57 1247.54 586.65
00001542 00000017 1034.14 101.34 428.36 619.54 1135.71 347.06 1311.50 389.54 1171.45 457.38 1102.82 551.95 1241.00 587.34
00001543 00000018 1033.22 99.68 426.80 622.83 1132.49 347.10 1306.66 390.29 1164.84 455.37 1099.03 550.79 1237.99 586.42
00001544 DELETE   1026.94 93.83 433.03 629.70 1124.57 352.44 1301.39 393.63 1161.17 455.01 1096.39 552.49 1237.65 585.89
00001545 DELETE   1026.60 92.14 434.07 631.33 1123.42 357.21 1301.77 395.68 1163.79 455.98 1098.13 554.69 1239.49 585.89
00001546 00000021 1028.43 93.21 432.76 629.42 1125.26 354.04 1303.30 393.80 1163.42 455.47 1097.82 552.90 1239.98 585.20
00001547 00000022 1029.49 94.35 430.64 624.83 1126.13 350.97 1299.68 393.28 1160.96 454.25 1096.90 549.28 1236.87 583.86
00001548 00000023 1028.03 95.54 428.68 621.50 1125.27 346.41 1293.99 391.22 1156.22 454.66 1094.70 546.28 1230.88 582.86
00001549 00000024 1026.71 90.86 425.79 630.69 1120.83 342.67 1285.36 387.38 1148.07 454.56 1090.22 544.64 1222.94 581.46
00001550 00000025 1024.29 94.15 423.59 634.42 1117.35 342.72 1280.37 383.38 1144.92 450.44 1087.31 546.70 1216.97 581.09
00001551 00000026 1025.15 92.29 421.91 635.29 1115.99 341.45 1280.10 378.90 1144.27 447.66 1087.03 546.20 1218.48 577.88
00001552 00000027 1023.26 90.29 423.96 630.25 1116.46 340.87 1281.59 379.08 1146.16 447.31 1087.70 541.43 1220.59 573.41
00001553 00000028 1020.54 89.31 426.55 630.79 1106.95 336.48 1285.34 377.54 1134.29 446.70 1075.83 541.84 1220.97 577.28
00001554 00000029 1020.09 89.39 426.87 632.64 1105.65 337.32 1284.76 377.20 1134.89 447.80 1075.98 543.70 1223.43 578.15
00001555 00000030 1021.14 89.95 425.53 644.69 1105.78 339.44 1285.47 376.11 1135.48 446.56 1077.75 549.72 1224.27 582.28
00001556 00000031 1021.33 89.65 424.63 646.24 1105.19 340.45 1285.89 375.52 1136.07 446.26 1078.72 551.86 1225.16 583.09
00001557 00000032 1019.42 89.06 422.68 640.75 1104.15 340.28 1282.76 375.52 1133.75 444.94 1077.39 548.82 1219.97 579.99
00001558 00000033 1014.16 90.57 425.31 633.62 1098.25 340.61 1279.39 376.49 1130.96 445.53 1072.25 547.74 1215.39 578.97
00001559 00000034 1014.69 87.38 419.56 628.39 1098.74 340.94 1266.20 374.32 1134.40 447.98 1077.06 546.03 1207.51 575.00
00001560 00000035 1011.29 88.58 420.07 622.60 1091.40 343.28 1272.68 379.72 1125.44 452.39 1068.39 549.71 1213.47 579.79
00001561 00000036 1010.20 88.31 421.89 620.65 1089.50 343.18 1274.40 380.26 1124.81 453.32 1066.61 548.96 1216.43 579.13
00001562 00000037 1010.16 88.94 426.75 630.88 1094.91 342.28 1277.42 377.50 1132.27 450.19 1072.42 551.41 1216.77 581.33
00001563 00000038 1013.75 89.38 419.14 622.37 1095.44 346.45 1281.72 379.49 1136.82 455.27 1076.68 551.88 1229.08 578.91
00001564 00000039 1014.41 94.58 415.96 617.18 1099.35 348.07 1286.64 376.19 1146.99 452.61 1083.81 552.40 1239.31 575.66
00001565 DELETE   1016.81 98.10 416.59 622.28 1104.55 348.43 1296.89 373.34 1159.86 451.14 1093.97 556.54 1254.61 577.04
00001566 00000041 1023.65 95.83 418.32 635.35 1127.23 352.06 1309.61 374.73 1189.11 449.19 1111.64 558.02 1259.02 577.59
00001567 DELETE   1025.59 97.05 418.89 637.12 1132.46 354.43 1315.21 378.12 1196.83 450.03 1115.95 562.06 1262.77 582.84
00001568 00000043 1024.05 94.94 420.69 637.24 1129.46 355.43 1314.35 376.76 1194.19 448.64 1113.42 561.81 1263.34 580.34
00001569 DELETE   1017.62 96.04 415.24 632.82 1109.97 350.16 1302.41 372.43 1172.32 451.87 1105.00 564.75 1262.24 583.57
00001570 00000045 1019.79 100.53 413.85 633.51 1106.13 353.78 1304.09 370.33 1172.43 452.44 1096.90 571.13 1260.13 584.38
00001571 00000046 1020.79 104.47 409.80 632.05 1106.41 354.67 1300.45 371.93 1167.97 455.14 1096.28 573.22 1252.71 587.35
00001572 00000047 1022.63 105.88 407.45 629.03 1104.83 356.62 1297.62 373.79 1164.86 457.25 1094.66 574.22 1251.86 588.21
00001573 00000048 1022.16 105.41 407.39 618.74 1102.43 355.53 1295.82 375.17 1161.37 457.89 1091.61 569.28 1249.57 585.32
00001574 00000049 1020.45 96.96 414.10 627.15 1110.89 351.16 1294.45 374.42 1166.50 454.89 1095.27 557.79 1240.23 577.70
00001575 00000050 1019.95 96.46 414.58 625.58 1109.10 350.28 1292.81 374.10 1164.17 455.40 1093.02 557.50 1237.66 577.99
00001576 00000051 1018.13 97.17 415.16 624.56 1106.61 348.81 1290.19 373.14 1161.43 454.85 1090.34 556.89 1233.88 578.10
00001577 00000052 1014.91 100.22 411.03 618.94 1100.97 349.76 1287.18 379.04 1149.76 458.18 1083.88 558.73 1234.61 583.76
00001578 00000053 1013.85 101.11 411.85 619.10 1099.73 350.87 1286.64 381.60 1147.59 459.09 1081.42 558.48 1233.51 584.69
00001579 00000054 1014.46 98.23 411.99 627.20 1102.37 348.92 1281.16 374.77 1154.03 456.29 1086.85 558.64 1224.41 581.49
00001580 00000055 1014.22 97.98 412.07 628.09 1099.90 348.04 1276.76 373.86 1149.74 456.60 1084.70 558.99 1220.02 581.97
00001581 00000056 1012.05 100.29 412.58 621.48 1095.47 349.33 1276.70 380.17 1138.90 458.72 1076.55 556.36 1224.81 582.61
00001582 00000057 1009.16 97.49 413.86 617.96 1092.15 349.15 1274.77 380.68 1135.29 457.07 1072.42 551.12 1223.72 577.58
00001583 DELETE   1007.72 98.02 414.56 614.77 1088.97 348.73 1271.10 381.56 1130.29 457.47 1068.51 549.29 1219.66 576.45
00001584 00000059 1006.96 101.88 414.37 615.39 1087.35 350.26 1269.04 383.99 1127.07 460.09 1065.68 553.65 1213.81 581.96
00001585 00000060 1007.07 104.00 412.65 619.39 1083.72 354.48 1266.69 389.15 1123.00 465.69 1063.30 561.72 1210.69 590.97
00001586 00000061 1003.06 119.78 414.71 620.14 1084.53 364.17 1266.36 393.45 1126.04 474.47 1061.80 574.31 1213.15 598.57
00001587 00000062 1000.82 123.49 410.74 629.86 1081.65 372.68 1259.06 400.58 1120.79 483.54 1062.96 588.58 1208.96 611.47
00001588 00000063 999.37 128.47 409.26 627.78 1078.38 376.56 1256.43 405.16 1117.54 488.45 1059.72 593.44 1207.19 616.42
00001589 DELETE   997.97 127.59 407.72 620.60 1076.59 374.70 1256.50 404.04 1117.19 484.80 1057.07 588.67 1206.05 612.51
00001590 DELETE   996.04 110.82 412.62 619.10 1073.79 364.77 1250.58 399.79 1110.37 478.09 1056.08 570.73 1201.34 600.02
00001591 00000066 996.21 107.12 415.43 616.09 1073.31 357.58 1251.21 391.89 1110.87 467.58 1056.87 563.13 1203.32 591.44
00001592 00000067 997.19 106.18 417.90 615.25 1073.68 355.41 1252.16 390.01 1109.19 467.50 1057.30 560.10 1206.18 588.28
00001593 00000068 996.63 107.48 415.36 616.96 1074.72 358.19 1251.49 393.99 1111.04 471.64 1057.34 562.51 1204.75 591.96
00001594 00000069 999.32 109.60 412.87 617.06 1075.03 360.82 1251.19 396.31 1109.94 474.99 1057.54 565.33 1204.28 594.74
00001595 00000070 999.39 109.57 413.57 615.21 1076.11 359.22 1253.48 394.66 1112.13 472.14 1058.44 563.43 1205.69 592.82
00001596 00000071 999.14 107.96 415.56 613.86 1075.74 356.39 1253.97 391.19 1112.10 468.39 1059.27 559.82 1208.19 588.38
00001597 00000072 998.36 108.25 417.71 610.57 1074.97 351.53 1254.06 386.96 1110.85 465.64 1057.35 556.99 1206.66 585.77
00001598 00000073 998.56 106.78 417.48 612.41 1074.99 351.42 1253.37 386.84 1110.42 465.94 1057.92 557.26 1206.39 585.99
00001599 00000074 998.84 107.57 416.22 614.15 1074.86 354.74 1252.37 389.34 1109.88 467.05 1058.22 559.93 1205.41 588.32
00001600 00000075 999.46 107.80 414.27 612.90 1075.06 354.72 1252.35 389.36 1110.00 466.69 1058.89 559.64 1205.98 588.02
00001601 00000076 998.28 107.30 417.94 610.09 1074.93 351.06 1254.47 385.52 1110.52 463.72 1058.48 557.00 1206.95 584.93
00001602 00000077 997.66 105.16 418.56 612.43 1076.59 348.61 1254.56 381.34 1112.12 458.75 1059.64 554.63 1206.84 581.17
00001603 00000078 999.77 105.24 416.85 618.72 1077.75 348.22 1254.56 379.57 1112.84 458.15 1060.03 555.67 1207.86 581.41
00001604 00000079 1001.43 117.99 411.55 608.74 1077.40 352.31 1257.09 378.88 1116.02 459.77 1058.01 560.59 1210.54 583.34
00001605 00000080 997.89 108.00 412.02 616.33 1075.00 352.72 1245.39 386.95 1107.37 466.42 1058.73 559.81 1199.79 587.92
00001606 00000081 992.96 111.20 410.94 611.20 1074.58 354.08 1242.15 392.12 1105.65 470.74 1054.11 561.23 1188.09 593.00
00001607 00000082 987.11 107.82 412.85 607.92 1070.96 351.89 1240.50 387.96 1103.32 465.85 1048.88 554.68 1186.48 584.35
00001608 00000083 987.16 101.40 411.54 612.37 1071.32 345.38 1240.91 381.38 1102.66 460.14 1047.24 551.40 1183.97 580.90
00001609 00000084 985.40 100.48 410.89 621.47 1073.18 343.26 1237.28 378.47 1100.70 456.32 1047.29 554.48 1174.47 584.19
00001610 00000085 983.09 100.76 411.46 637.48 1067.27 347.52 1231.92 379.70 1093.24 458.14 1045.17 570.28 1166.88 597.88
00001611 00000086 978.32 110.69 411.80 634.90 1059.59 358.67 1228.72 387.13 1090.11 464.77 1042.36 581.00 1167.75 605.59
00001612 00000087 971.46 113.03 416.35 629.99 1053.38 367.27 1222.70 392.18 1085.91 467.30 1036.87 583.38 1161.76 605.13
00001613 00000088 968.76 112.72 417.11 622.09 1049.36 363.86 1221.37 384.85 1085.36 461.39 1035.06 576.29 1166.45 594.36
00001614 00000089 968.37 107.92 417.38 615.11 1049.92 353.02 1220.13 376.29 1084.92 456.07 1035.00 564.03 1161.07 584.09
00001615 00000090 968.37 99.46 415.92 616.45 1046.98 348.94 1220.24 373.90 1083.14 454.57 1031.00 560.42 1161.51 581.15
00001616 00000091 965.75 105.42 416.15 613.74 1045.24 353.47 1216.25 377.44 1081.39 458.96 1031.01 562.69 1161.02 582.69
00001617 00000092 962.40 110.43 417.07 619.02 1040.89 365.18 1213.77 388.05 1080.90 469.75 1028.38 571.72 1163.02 590.81
00001618 00000093 958.76 108.17 417.97 621.22 1037.74 363.58 1210.68 386.03 1079.13 467.85 1026.59 571.57 1157.71 590.55
00001619 00000094 957.39 100.75 420.04 623.56 1038.86 353.40 1212.31 376.63 1078.47 458.33 1025.69 563.57 1156.33 583.26
00001620 00000095 960.94 97.17 416.96 625.24 1040.63 347.65 1211.42 368.96 1078.33 453.59 1027.63 560.80 1152.71 579.08
00001621 00000096 960.25 94.33 414.78 625.20 1038.85 345.23 1210.04 367.95 1076.94 453.03 1025.25 558.43 1151.51 577.87
00001622 00000097 958.00 93.76 413.94 627.33 1033.55 346.95 1205.04 369.44 1073.30 456.11 1022.07 559.64 1149.91 579.12
00001623 00000098 952.36 91.64 414.93 628.36 1028.01 347.13 1201.39 371.44 1069.93 457.70 1017.21 558.56 1148.23 579.75
00001624 00000099 949.19 91.23 412.43 626.26 1025.09 346.18 1197.99 370.13 1068.13 456.16 1014.27 555.81 1146.80 576.89
00001625 00000100 947.01 90.31 411.69 628.83 1024.09 346.13 1195.64 367.79 1066.44 452.93 1015.07 556.32 1142.36 575.81
00001626 00000101 944.11 87.77 412.17 635.60 1022.50 343.62 1195.52 365.23 1064.41 449.84 1011.62 555.59 1143.04 575.07
00001627 00000102 943.61 86.67 412.66 633.97 1020.70 347.16 1200.37 374.73 1056.83 452.38 1003.26 551.12 1154.02 574.14
00001628 00000103 941.99 83.82 414.11 632.31 1019.50 347.61 1206.09 374.71 1061.49 450.72 1003.45 547.38 1164.17 569.42
00001629 00000104 938.76 85.73 415.92 631.71 1016.86 348.05 1204.74 373.16 1061.54 450.87 1002.59 546.76 1167.50 566.70
00001630 00000105 937.12 86.77 415.95 629.89 1015.37 345.92 1201.08 370.85 1060.33 451.32 1002.40 545.60 1167.72 565.17
00001631 00000106 936.12 87.20 417.46 631.12 1014.73 345.12 1200.36 369.71 1059.86 450.82 1002.40 546.47 1167.97 565.72
00001632 00000107 935.05 89.35 417.95 632.40 1014.62 345.00 1199.71 370.26 1060.21 452.73 1001.38 547.90 1167.31 567.75
00001633 00000108 934.50 89.98 417.36 638.83 1015.37 346.42 1201.40 373.07 1061.55 454.65 1000.76 551.70 1166.87 572.83
00001634 00000109 935.66 108.37 416.82 624.52 1015.44 351.38 1205.68 373.50 1061.25 458.28 999.35 556.71 1169.89 574.34
00001635 00000110 937.90 109.01 415.80 628.05 1018.03 351.96 1207.79 373.85 1063.26 460.20 1000.71 560.02 1171.65 577.50
00001636 00000111 939.24 110.08 418.16 632.35 1019.72 352.83 1209.27 373.57 1064.99 462.22 1002.98 563.87 1173.98 580.19
00001637 00000112 943.22 111.48 413.20 634.90 1023.80 353.40 1210.30 374.27 1065.62 463.56 1006.77 566.76 1176.61 582.90
00001638 00000113 946.73 110.48 413.15 637.66 1026.42 353.05 1214.09 372.46 1069.90 463.73 1011.74 570.01 1179.07 584.79
00001639 00000114 949.29 107.90 414.18 641.43 1029.80 353.60 1217.55 372.49 1073.66 463.13 1015.63 571.73 1183.05 585.97
00001640 00000115 953.29 99.61 422.61 662.09 1033.08 351.65 1222.77 377.33 1071.80 460.16 1018.20 571.69 1181.87 594.27
00001641 00000116 959.03 105.85 418.00 653.33 1040.32 352.98 1229.18 380.02 1080.30 461.40 1022.82 570.84 1186.61 594.51
00001642 00000117 970.22 103.31 413.10 652.75 1050.83 353.03 1238.11 383.02 1090.53 464.22 1032.40 570.10 1194.29 596.36
00001643 00000118 975.97 102.25 420.85 638.85 1065.70 354.10 1245.43 383.92 1107.69 464.56 1049.35 563.69 1204.48 587.99
00001644 00000119 992.77 120.75 410.69 619.37 1075.53 355.72 1255.30 379.81 1120.88 461.50 1059.25 565.57 1213.72 586.11
00001645 00000120 1000.87 116.38 417.14 614.75 1080.29 354.87 1265.63 377.73 1126.95 456.25 1066.17 563.65 1218.56 583.23
00001646 00000121 1006.26 96.23 417.80 623.81 1086.93 352.48 1273.51 380.62 1131.73 457.38 1071.63 558.76 1222.41 582.11
00001647 00000122 1011.52 94.97 416.42 618.50 1095.62 348.20 1280.20 378.53 1138.63 453.50 1077.68 551.06 1229.67 576.31
00001648 DELETE   1014.14 92.86 415.86 617.67 1100.22 345.07 1285.41 373.78 1145.30 449.19 1083.01 547.84 1237.82 571.61
00001649 00000124 1018.29 88.85 417.89 621.16 1104.71 343.58 1291.05 369.99 1149.97 446.10 1090.03 548.53 1244.48 570.19
00001650 00000125 1025.55 88.19 421.36 627.61 1119.49 344.44 1299.98 370.99 1162.84 442.85 1095.58 544.95 1243.69 566.96
00001651 00000126 1027.71 89.18 422.25 625.91 1123.41 344.40 1304.64 373.48 1167.16 443.64 1097.33 544.16 1245.74 568.10
00001652 00000127 1025.19 92.85 417.98 615.99 1113.50 341.93 1302.72 371.08 1157.36 442.78 1096.34 547.68 1252.09 572.01
00001653 00000128 1026.16 91.44 425.41 625.32 1125.92 345.58 1308.63 376.55 1170.65 444.51 1098.15 544.30 1248.75 569.79
00001654 00000129 1027.66 93.98 421.30 628.00 1129.01 346.57 1307.28 377.29 1172.43 446.41 1102.73 547.42 1245.78 573.23
00001655 00000130 1026.52 94.30 419.63 628.94 1128.16 347.07 1306.17 377.40 1173.18 447.22 1102.29 549.41 1243.42 575.12
00001656 00000131 1025.96 96.72 419.42 624.90 1127.23 348.53 1304.70 378.92 1171.90 449.32 1102.04 549.31 1242.00 575.09
00001657 00000132 1020.65 101.90 416.86 615.59 1113.43 347.12 1299.15 377.85 1157.74 453.17 1094.36 554.16 1245.67 580.06
00001658 00000133 1017.71 102.79 417.78 614.83 1111.44 347.91 1299.43 379.79 1157.37 455.02 1091.86 554.60 1245.99 581.38
00001659 00000134 1020.97 110.84 412.43 607.09 1107.74 351.70 1299.24 380.25 1160.45 455.44 1088.94 557.98 1245.04 581.48
00001660 00000135 1015.49 100.51 419.44 623.87 1111.73 347.48 1288.72 373.25 1161.61 451.78 1094.17 556.15 1221.05 579.27
00001661 00000136 1019.13 109.55 408.25 612.15 1102.30 349.83 1287.08 374.16 1152.69 453.24 1084.79 562.30 1228.11 583.27
00001662 00000137 1014.11 98.04 414.94 626.88 1106.11 345.63 1281.77 372.16 1154.22 451.59 1088.99 556.19 1216.22 580.12
00001663 00000138 1012.62 101.55 413.86 623.09 1102.25 346.51 1277.65 372.68 1150.59 453.52 1086.82 557.49 1213.29 581.18
00001664 00000139 1011.92 97.48 411.15 623.03 1099.02 346.43 1274.05 374.06 1147.92 456.02 1084.35 557.53 1210.08 582.26
00001665 00000140 1010.21 99.24 414.30 617.33 1096.86 349.61 1278.86 382.28 1139.83 458.86 1076.79 557.64 1219.91 585.45
00001666 00000141 1008.92 99.33 415.09 615.23 1096.02 349.53 1278.15 383.03 1139.32 458.47 1075.90 555.22 1220.12 583.56
00001667 00000142 1008.73 98.36 414.46 615.60 1096.28 349.65 1277.37 384.37 1138.92 458.48 1075.79 553.87 1219.03 583.26
00001668 00000143 1008.77 98.20 414.34 617.21 1095.99 350.11 1275.78 384.83 1137.80 458.42 1075.04 554.68 1216.45 584.15
00001669 00000144 1006.92 96.88 416.16 615.40 1092.57 350.12 1276.10 384.55 1135.36 457.88 1072.79 556.28 1216.36 585.13
00001670 00000145 1005.79 97.65 418.34 614.92 1091.03 349.65 1275.61 383.32 1134.99 458.44 1071.77 556.28 1215.98 584.39
00001671 00000146 1007.28 98.31 417.95 620.26 1090.42 350.40 1275.85 382.50 1134.15 459.17 1071.43 560.16 1216.52 587.06
00001672 00000147 1011.01 107.61 416.62 618.76 1090.82 352.69 1276.61 377.48 1137.87 459.83 1074.45 564.64 1222.19 585.65
00001673 00000148 1011.46 109.50 416.30 617.28 1090.92 352.23 1276.67 378.34 1135.62 460.82 1071.80 565.02 1220.30 587.15
00001674 00000149 1010.06 110.12 416.53 617.20 1089.85 352.21 1276.23 378.33 1135.24 460.80 1070.47 565.14 1219.69 587.35
00001675 00000150 1010.11 110.05 416.12 616.90 1090.17 351.08 1275.09 377.67 1134.62 460.20 1070.82 563.99 1218.08 586.59
00001676 00000151 1009.92 108.68 416.01 617.80 1089.26 350.35 1274.01 377.44 1132.90 459.88 1069.82 563.18 1216.14 586.27
00001677 00000152 1010.16 108.43 415.38 616.23 1088.93 350.04 1273.19 377.15 1132.34 459.17 1069.84 562.17 1215.73 585.28
00001678 00000153 1008.72 108.58 416.95 615.05 1088.44 349.76 1272.98 377.48 1133.33 459.34 1069.65 561.12 1215.82 584.58
00001679 00000154 1008.22 108.90 417.60 612.41 1087.75 350.24 1272.82 377.92 1132.89 459.30 1069.47 559.48 1217.63 582.87
00001680 00000155 1008.03 107.67 417.63 610.89 1086.39 350.37 1272.87 378.27 1131.51 459.84 1067.83 557.45 1219.52 580.89
00001681 00000156 1003.76 100.28 419.24 615.99 1089.04 348.45 1271.05 384.32 1130.36 460.02 1067.91 551.51 1215.85 581.21
00001682 00000157 1004.30 100.58 419.12 616.55 1088.31 348.35 1270.42 384.18 1128.64 460.26 1066.92 551.22 1216.42 580.73
00001683 00000158 1009.69 109.35 415.32 611.36 1087.51 349.21 1272.94 378.39 1129.00 460.31 1066.85 554.35 1220.55 578.82
00001684 00000159 1010.16 108.57 414.69 618.00 1089.05 349.09 1275.01 378.57 1129.73 461.39 1067.26 557.75 1221.44 582.48
00001685 00000160 1010.42 110.91 414.52 614.31 1088.32 349.49 1274.57 378.38 1129.35 460.82 1067.13 556.88 1222.81 581.14
00001686 00000161 1009.81 111.42 414.50 611.78 1087.54 349.74 1273.69 378.85 1129.22 460.92 1066.21 555.36 1222.63 579.79
00001687 00000162 1005.80 103.75 415.90 617.95 1088.23 349.15 1269.61 384.48 1127.21 460.33 1066.27 552.91 1217.49 582.33
00001688 00000163 1008.48 116.06 413.73 608.56 1087.53 352.64 1272.58 380.55 1130.48 461.51 1066.98 558.73 1222.83 582.28
