Video ID: 	THRGS84ItIw
H: 	1080
W: 	1920
FPS: 	25.0

FRAME INDEX X0 Y0 W H [Landmarks (5 Points)]

00012616 00000000 655.39 213.90 414.50 610.10 785.41 461.65 966.82 463.54 895.78 578.06 802.77 669.40 956.74 671.62
00012617 DELETE   667.12 218.24 408.48 604.90 794.01 464.14 978.50 466.45 902.92 586.39 807.53 672.15 964.99 674.48
00012618 00000002 678.10 214.94 403.35 612.09 804.89 461.50 987.87 467.14 911.99 586.73 816.25 673.74 969.30 677.90
00012619 00000003 687.54 216.14 399.92 612.07 811.72 465.16 996.58 469.60 919.52 592.99 822.08 676.06 978.96 679.29
00012620 00000004 688.84 218.17 402.13 610.81 818.32 464.29 1000.68 469.73 925.62 594.95 826.96 675.35 980.97 679.52
00012621 00000005 688.38 218.97 406.97 611.68 824.92 462.82 1003.17 469.18 930.60 593.30 831.17 674.71 982.98 679.65
00012622 00000006 690.94 220.67 408.99 608.30 826.75 463.10 1006.28 468.23 934.05 593.10 835.60 674.10 987.78 678.30
00012623 00000007 692.93 219.35 410.77 609.09 830.94 462.80 1008.12 469.05 937.05 591.38 839.55 672.05 990.12 677.31
00012624 00000008 698.48 216.92 408.24 611.58 832.90 462.23 1012.20 468.22 940.41 589.96 842.93 674.35 993.59 679.31
00012625 00000009 700.69 213.42 408.17 615.72 834.70 463.22 1014.21 468.82 943.03 591.94 844.92 674.04 997.23 678.54
00012626 00000010 701.54 214.22 410.58 615.37 837.00 463.27 1016.50 468.28 944.45 590.81 848.19 674.33 1000.17 678.25
00012627 00000011 698.95 211.38 414.82 623.11 839.20 462.82 1016.61 468.37 945.94 591.07 848.99 675.38 999.84 679.60
00012628 00000012 701.98 213.47 412.68 621.21 841.31 463.14 1015.22 468.92 944.96 590.56 851.71 676.29 998.30 680.72
00012629 00000013 701.12 214.21 412.91 618.87 837.82 463.95 1014.54 468.63 943.24 590.58 847.53 675.16 998.64 678.78
00012630 00000014 698.47 214.09 415.61 619.38 836.77 462.73 1014.03 468.83 943.56 586.95 846.18 673.14 999.59 677.87
00012631 00000015 697.68 213.29 416.53 619.58 836.59 461.01 1015.16 467.59 944.05 585.25 845.04 671.87 999.78 676.93
00012632 00000016 699.75 212.50 414.71 620.06 837.20 460.63 1015.48 467.86 943.65 585.07 844.65 670.80 1000.18 676.43
00012633 00000017 700.96 211.76 413.93 620.12 838.49 460.28 1015.79 468.75 943.54 585.09 844.80 671.13 998.19 677.78
00012634 00000018 700.44 213.28 415.98 617.80 837.64 460.58 1016.98 469.04 943.37 585.72 843.89 671.57 998.49 678.36
00012635 00000019 699.38 213.27 415.85 618.12 837.53 460.28 1016.65 468.85 943.08 586.87 842.46 671.25 997.49 678.23
00012636 00000020 701.07 211.81 413.30 619.25 835.83 459.87 1016.57 469.03 941.62 585.62 841.46 671.63 997.22 678.98
00012637 00000021 698.45 210.94 414.50 621.46 834.27 458.49 1015.94 468.62 940.81 585.87 838.34 671.31 995.96 679.52
00012638 00000022 698.09 211.31 413.68 621.58 833.24 458.43 1014.00 468.44 939.11 586.02 836.37 671.35 993.72 679.55
00012639 00000023 698.23 211.92 413.01 620.46 832.38 458.38 1013.72 468.16 938.24 585.99 836.51 672.17 993.05 680.11
00012640 00000024 698.78 212.00 412.57 620.05 832.91 458.78 1014.06 468.41 939.02 586.70 837.52 672.25 994.08 680.09
00012641 00000025 700.06 212.51 411.75 619.24 833.25 460.02 1014.09 469.24 938.87 587.85 837.64 672.32 994.72 679.91
00012642 00000026 699.70 211.85 412.66 620.00 834.41 459.52 1014.84 468.61 939.38 588.16 838.98 673.13 994.33 680.58
00012643 00000027 699.83 211.63 412.53 620.07 834.52 459.51 1015.01 468.72 939.57 588.15 838.98 673.12 994.24 680.68
00012644 00000028 699.80 212.54 412.15 618.64 833.28 459.68 1014.51 468.35 938.90 587.88 839.19 673.49 994.47 680.61
00012645 00000029 699.44 212.82 413.09 618.60 833.18 459.54 1014.66 468.26 938.72 587.66 838.74 673.17 994.74 680.36
00012646 00000030 699.96 213.93 414.04 616.15 833.23 458.91 1016.27 467.93 939.63 586.46 838.81 671.81 996.52 679.27
00012647 00000031 700.08 212.63 415.26 617.42 834.61 459.11 1017.24 467.74 941.87 585.25 841.25 671.54 998.55 678.64
00012648 00000032 700.43 211.82 415.81 618.28 836.90 459.70 1018.84 468.17 944.55 584.80 844.69 672.06 1000.54 678.85
00012649 00000033 704.07 210.75 414.01 618.10 838.18 461.51 1019.94 469.94 944.82 585.73 846.29 672.31 1002.37 679.23
00012650 00000034 706.16 209.27 412.65 620.01 838.79 461.35 1021.68 469.54 945.54 585.17 847.79 673.07 1003.75 679.67
00012651 00000035 708.65 207.76 412.53 621.09 840.00 461.78 1022.87 470.06 945.90 587.48 847.44 672.14 1005.70 678.94
00012652 00000036 709.28 208.10 414.27 620.18 842.13 461.20 1023.57 469.47 947.63 587.77 849.75 671.67 1006.38 678.45
00012653 00000037 712.46 209.70 413.23 617.32 843.75 460.75 1025.12 469.15 948.41 587.62 852.11 670.64 1007.95 677.52
00012654 00000038 714.87 207.30 412.82 617.49 845.33 461.64 1027.46 469.89 950.98 589.32 854.10 671.21 1009.96 678.34
00012655 00000039 717.46 206.64 413.45 618.17 847.46 462.30 1030.24 469.57 953.79 590.72 856.02 671.08 1012.99 677.67
00012656 00000040 717.35 207.26 414.87 616.84 849.13 462.26 1032.56 468.80 957.52 590.54 860.09 672.81 1014.55 678.79
00012657 00000041 718.32 209.13 415.06 615.53 852.25 461.74 1034.75 468.99 960.73 588.94 863.63 672.89 1016.77 679.21
00012658 00000042 721.85 211.06 413.59 612.17 855.91 459.60 1039.66 467.62 965.98 585.16 866.10 670.73 1020.13 677.84
00012659 00000043 724.27 211.27 414.56 610.97 857.68 458.62 1044.28 466.29 969.16 585.95 865.84 670.24 1024.02 677.43
00012660 00000044 726.43 213.13 413.98 608.21 858.39 458.52 1045.19 464.88 969.31 584.92 867.50 670.60 1025.51 676.87
00012661 00000045 729.92 212.75 412.35 608.14 860.25 460.10 1046.35 465.90 971.17 585.88 871.02 670.90 1028.90 676.91
00012662 00000046 730.91 211.38 413.40 610.01 862.26 461.69 1048.95 466.75 974.52 587.12 871.75 671.51 1031.64 676.89
00012663 00000047 731.18 211.86 414.65 609.59 864.08 462.08 1051.09 467.66 977.48 588.25 873.90 672.73 1032.51 678.52
00012664 00000048 733.49 212.30 414.40 610.24 867.10 463.60 1052.86 469.64 979.24 590.12 876.85 673.68 1034.33 679.67
00012665 00000049 734.14 212.88 414.30 609.54 869.42 465.44 1053.44 471.65 980.85 591.62 878.74 674.40 1034.54 680.55
00012666 00000050 738.18 212.59 410.88 610.84 871.66 466.37 1054.62 473.16 981.46 592.15 881.07 675.82 1035.14 682.27
00012667 00000051 742.85 213.55 406.85 608.86 873.08 467.99 1055.69 473.16 981.46 593.68 883.73 675.29 1038.37 680.34
00012668 00000052 742.81 212.93 406.92 609.98 873.73 468.13 1055.53 472.75 982.33 594.19 884.82 675.60 1038.43 680.05
00012669 00000053 742.20 213.49 407.44 607.94 873.47 467.76 1055.43 472.39 982.36 591.27 885.45 675.19 1038.32 679.61
00012670 00000054 741.68 213.56 407.48 606.42 872.30 467.89 1054.66 471.45 982.19 590.86 885.44 674.88 1038.68 678.47
00012671 00000055 737.29 213.80 410.65 606.61 874.99 472.92 1054.56 477.37 985.77 592.12 887.79 676.36 1037.50 680.34
00012672 00000056 740.28 212.91 407.49 607.46 875.26 473.72 1054.43 479.05 984.05 591.33 885.48 675.15 1036.84 680.17
00012673 00000057 738.58 212.25 409.22 606.79 873.10 472.31 1055.53 476.34 985.01 590.81 885.04 675.37 1039.30 679.45
00012674 00000058 740.37 211.12 406.04 606.78 872.63 468.83 1054.71 472.61 984.45 589.49 884.94 673.46 1038.53 677.41
00012675 00000059 741.12 209.28 405.70 608.27 872.57 466.07 1055.73 471.44 983.86 589.06 884.28 673.02 1039.23 678.22
00012676 00000060 739.41 208.93 407.55 609.88 871.09 465.57 1054.79 470.66 983.09 588.01 883.94 674.82 1037.77 679.63
00012677 00000061 738.72 210.28 407.70 609.39 871.71 464.15 1053.02 470.09 982.11 587.36 883.74 673.63 1035.24 679.25
00012678 00000062 735.66 211.01 410.38 610.79 873.22 461.89 1051.98 468.98 982.53 585.56 883.11 671.06 1033.54 677.50
00012679 00000063 733.52 211.27 412.07 610.60 873.06 460.64 1050.99 467.76 982.61 584.85 881.74 669.08 1032.19 675.69
00012680 00000064 731.24 211.88 413.62 611.23 872.27 460.76 1050.34 467.92 982.56 584.93 880.94 669.47 1031.96 676.11
00012681 00000065 730.41 211.47 413.58 611.40 871.24 460.45 1050.06 466.74 981.93 585.09 880.47 669.70 1031.61 675.56
00012682 00000066 729.85 213.04 413.30 610.18 869.05 459.88 1049.54 466.26 980.49 585.20 878.14 669.27 1031.94 675.28
00012683 00000067 728.48 211.10 413.78 612.35 868.56 459.84 1049.13 466.57 980.03 586.50 876.68 669.35 1030.96 675.67
00012684 00000068 728.35 210.79 413.05 613.10 867.36 460.22 1048.66 466.26 978.90 587.10 876.30 670.59 1030.05 676.44
00012685 00000069 727.44 212.03 412.25 612.30 866.20 460.28 1046.66 466.53 977.25 587.82 875.35 671.21 1027.69 677.21
00012686 00000070 727.30 209.90 411.61 615.07 864.03 460.35 1045.92 466.33 975.43 588.19 873.45 672.41 1026.56 678.23
00012687 00000071 725.74 210.85 410.86 613.72 862.25 459.09 1044.40 465.69 973.23 588.86 871.26 671.82 1024.01 678.17
00012688 00000072 723.83 210.07 411.09 609.64 857.43 459.73 1043.71 465.00 970.25 589.70 869.67 673.94 1022.34 679.17
00012689 00000073 723.01 208.04 410.68 613.94 855.25 459.45 1041.91 464.18 968.09 588.98 867.43 672.80 1023.31 677.77
00012690 00000074 720.16 207.18 411.26 617.69 856.05 457.72 1039.60 463.66 967.57 586.37 867.42 671.67 1021.04 676.90
00012691 00000075 720.46 205.31 409.82 619.86 854.47 458.24 1037.17 464.64 965.16 586.97 866.08 672.61 1018.23 678.23
00012692 00000076 714.85 206.28 412.66 625.06 858.57 456.96 1035.96 464.46 968.48 585.83 866.69 673.56 1013.56 679.65
00012693 00000077 712.40 204.83 414.62 628.08 858.19 456.65 1035.84 463.43 969.29 585.58 867.45 675.53 1012.91 680.99
00012694 00000078 712.19 206.73 413.69 623.91 856.69 458.36 1034.89 464.03 968.83 586.37 865.97 674.09 1013.34 679.08
00012695 00000079 711.88 208.68 412.39 617.51 857.27 459.30 1034.69 465.44 969.15 588.98 865.47 671.24 1013.26 676.70
00012696 00000080 712.35 209.27 411.05 606.35 855.89 460.19 1036.28 466.51 969.29 590.95 867.63 672.02 1013.53 677.60
00012697 00000081 709.35 209.71 407.53 598.93 849.61 457.88 1037.20 458.35 966.37 585.07 859.59 665.25 1012.05 666.75
00012698 00000082 705.97 204.45 404.53 598.49 845.12 452.86 1032.33 454.19 961.28 575.87 857.47 659.23 1010.84 661.37
00012699 00000083 696.64 192.60 408.17 604.71 838.25 445.44 1029.31 446.96 955.65 569.37 852.61 654.87 1006.88 657.64
00012700 00000084 688.19 179.04 410.71 615.50 831.64 435.80 1025.00 441.82 951.25 563.01 843.34 648.84 1000.06 655.14
00012701 00000085 683.12 175.53 410.21 618.29 824.63 427.81 1018.10 438.74 942.65 559.06 833.02 640.54 994.17 650.72
00012702 00000086 678.59 175.30 412.07 619.49 820.19 423.31 1013.87 436.01 936.51 556.53 827.39 638.49 988.78 650.12
00012703 00000087 673.72 177.07 415.33 620.02 816.87 420.26 1009.71 433.55 932.95 555.87 825.74 636.46 986.43 648.67
00012704 00000088 673.84 173.81 413.41 624.73 813.22 419.75 1005.10 433.08 928.56 553.78 821.41 634.68 983.44 646.80
00012705 00000089 672.43 172.08 410.04 628.79 810.28 421.44 998.78 433.61 925.42 550.77 818.78 634.29 978.96 645.36
00012706 00000090 669.56 171.92 408.29 627.66 805.15 420.01 993.92 433.29 918.32 547.63 810.90 632.16 971.72 644.36
00012707 00000091 657.64 176.48 414.29 620.23 799.15 423.05 984.12 428.03 917.72 552.35 805.16 635.76 967.00 640.34
00012708 00000092 653.38 172.56 415.54 622.98 793.80 423.87 978.82 429.44 911.17 553.07 799.69 636.17 960.79 641.05
00012709 00000093 649.70 165.46 416.09 627.85 788.86 421.14 975.32 428.60 904.78 551.33 796.18 636.28 954.16 642.51
00012710 00000094 644.91 165.27 414.65 626.68 785.88 420.19 967.34 431.25 891.35 548.90 793.00 634.20 946.83 643.81
00012711 00000095 641.95 165.42 416.06 622.51 782.21 418.11 965.34 430.94 886.22 548.26 786.95 630.97 942.93 642.27
00012712 00000096 641.05 161.87 411.89 623.60 774.66 416.12 958.92 427.98 878.72 545.02 781.63 630.58 938.32 641.05
00012713 00000097 634.74 159.98 414.23 624.13 768.92 414.22 953.90 423.88 875.39 544.16 779.22 632.78 932.41 641.33
00012714 00000098 630.56 157.69 415.42 621.60 763.96 411.13 950.92 420.52 871.06 540.67 775.49 628.62 929.29 636.96
00012715 00000099 627.19 153.88 415.00 624.82 761.25 409.71 946.84 417.73 869.04 539.55 773.76 628.43 927.32 635.58
00012716 00000100 625.64 150.98 414.70 627.03 758.93 408.34 945.09 416.36 867.20 538.66 772.20 627.73 924.72 634.75
00012717 00000101 624.90 152.68 413.87 624.40 758.56 407.64 943.71 415.85 866.25 538.93 773.50 627.45 923.21 634.62
00012718 00000102 623.52 154.24 413.56 622.09 758.47 407.30 943.62 416.24 866.10 538.98 772.71 626.64 922.31 634.45
00012719 00000103 622.32 155.77 413.19 619.73 756.95 407.30 943.08 416.82 865.23 538.26 769.68 624.99 920.66 633.39
00012720 00000104 616.46 158.62 416.00 616.45 752.71 406.37 942.32 415.63 864.22 536.72 764.02 624.17 920.12 632.24
00012721 00000105 612.38 158.74 420.33 618.34 750.48 406.39 941.72 415.71 863.76 536.35 761.97 623.75 920.43 631.80
00012722 00000106 612.91 159.42 420.23 618.41 749.96 406.26 940.97 416.50 862.52 535.28 761.49 622.89 920.28 631.59
00012723 00000107 612.69 159.15 419.44 619.15 748.96 406.74 940.36 418.04 861.51 534.34 760.27 622.80 919.71 632.19
00012724 00000108 613.10 160.81 418.81 617.70 749.45 406.53 939.84 418.38 860.92 533.68 759.75 621.58 919.03 631.46
00012725 00000109 612.86 160.65 418.51 616.62 748.70 406.33 939.45 417.72 860.10 532.92 759.29 621.61 918.72 631.01
00012726 00000110 612.01 163.63 416.88 608.74 746.88 406.16 939.28 416.48 857.44 531.48 755.89 619.36 917.80 627.89
00012727 00000111 610.16 163.57 416.13 607.70 742.36 405.85 935.61 415.95 852.75 530.00 750.27 617.87 914.85 626.12
00012728 00000112 608.86 162.98 414.69 607.26 738.07 402.62 928.94 413.68 845.75 529.01 746.46 616.14 907.61 625.37
00012729 00000113 604.02 162.47 415.38 604.18 733.74 400.39 922.76 410.88 840.43 525.66 742.49 611.50 900.63 620.30
00012730 00000114 603.20 155.85 413.31 607.04 730.45 395.79 917.17 407.20 834.99 514.06 737.87 604.42 894.86 613.61
00012731 00000115 599.61 150.31 416.16 613.38 727.91 389.76 914.86 403.17 832.76 505.81 735.09 601.60 892.88 612.22
00012732 00000116 593.87 149.38 417.23 600.65 724.49 391.04 910.95 399.09 833.69 502.00 737.84 599.27 892.80 605.95
00012733 00000117 596.32 140.02 418.47 608.71 726.33 377.50 923.60 387.90 837.99 496.22 736.94 588.63 896.42 598.34
00012734 00000118 605.00 145.84 409.44 595.79 730.87 368.81 919.39 380.32 838.32 486.27 740.93 583.29 894.70 592.22
00012735 00000119 606.66 144.86 409.33 586.61 731.18 360.85 917.03 374.00 835.20 472.66 739.87 569.15 891.55 579.70
00012736 00000120 603.40 123.29 411.73 588.44 726.87 352.78 920.80 363.24 834.61 461.07 740.61 554.17 903.76 563.13
00012737 00000121 603.79 116.47 412.56 578.52 728.81 343.85 917.18 354.68 832.73 447.88 742.58 539.21 901.74 547.91
00012738 00000122 600.86 113.17 417.52 574.88 725.79 338.25 914.27 347.17 830.51 435.12 744.42 533.82 903.55 540.35
00012739 00000123 599.95 111.47 420.99 572.61 724.14 334.95 916.60 343.77 829.18 429.07 742.86 530.67 906.86 537.06
00012740 00000124 600.86 111.43 424.60 574.04 725.53 336.74 919.41 346.12 831.14 432.59 745.14 532.71 909.23 539.52
00012741 00000125 605.02 112.09 422.29 579.09 727.29 338.99 926.37 349.09 835.48 442.18 746.35 539.69 914.37 547.11
00012742 00000126 605.05 114.05 423.15 593.73 727.08 345.75 931.34 355.80 838.59 455.75 745.76 553.19 918.55 560.95
CROP_BBOX: 336 0 1349 979
