Video ID: 	fFTxgmCPp1M
H: 	1080
W: 	1920
FPS: 	25.0

FRAME INDEX X0 Y0 W H [Landmarks (5 Points)]

00019440 00000000 575.40 309.95 406.22 545.51 699.03 587.25 890.35 542.25 827.56 698.52 749.93 764.91 904.89 727.54
00019441 00000001 565.58 313.27 408.17 542.97 689.62 581.37 876.87 538.48 816.59 694.83 743.30 764.10 891.41 728.54
00019442 00000002 556.87 311.51 410.17 544.88 679.72 574.22 865.99 536.02 805.03 688.06 737.31 765.14 879.51 732.62
00019443 00000003 555.42 310.65 408.01 540.80 674.08 569.83 859.34 533.04 797.03 683.35 731.35 756.94 877.71 725.89
00019444 00000004 553.39 302.41 406.29 544.49 677.37 566.97 857.10 533.96 791.53 677.57 730.57 744.91 866.84 717.27
00019445 00000005 549.19 292.04 408.00 549.93 676.58 560.80 854.49 529.58 791.00 670.56 724.13 734.01 863.02 708.06
00019446 00000006 553.55 288.80 401.32 549.18 680.21 553.15 854.74 521.20 794.02 661.09 721.96 724.20 861.86 698.05
00019447 00000007 562.76 272.39 395.94 552.38 690.28 537.91 864.37 499.19 808.79 643.88 729.42 709.75 874.95 679.07
00019448 00000008 572.46 249.19 403.13 552.02 711.32 518.75 892.26 480.65 835.91 625.27 748.91 698.62 897.88 667.45
00019449 DELETE   601.17 221.63 389.85 560.33 747.68 498.58 933.85 460.98 883.50 597.40 790.54 671.98 939.48 642.81
00019450 DELETE   621.32 201.41 382.12 563.70 790.88 485.72 951.67 441.82 927.25 574.11 832.89 659.07 955.86 623.64
00019451 DELETE   651.06 192.50 379.13 567.90 831.20 481.54 981.94 427.63 974.47 556.90 867.84 658.17 987.86 614.73
00019452 00000012 668.38 181.13 378.31 572.28 861.37 459.59 1006.54 415.71 1004.56 544.28 904.13 638.33 1012.67 604.47
00019453 00000013 685.99 183.45 371.08 566.19 883.43 468.79 1020.78 416.22 1029.52 547.14 921.55 646.68 1022.69 605.61
00019454 00000014 697.55 182.00 372.66 566.93 898.39 464.85 1040.75 417.29 1048.67 548.74 940.01 644.58 1044.75 608.81
00019455 00000015 711.11 189.35 370.61 572.28 912.15 466.36 1054.11 417.40 1062.22 556.12 949.17 650.98 1055.46 614.62
00019456 00000016 722.37 193.51 367.40 576.06 924.08 464.06 1063.36 420.28 1069.67 560.05 954.35 653.08 1057.50 621.16
00019457 00000017 728.27 195.06 366.77 581.58 933.14 463.52 1072.26 425.35 1077.77 562.51 957.06 656.38 1059.28 629.32
00019458 00000018 733.48 189.68 368.59 583.14 942.83 464.80 1080.25 427.36 1083.64 565.78 959.67 653.36 1060.91 627.06
00019459 00000019 734.48 187.46 369.19 584.51 947.75 467.73 1082.46 434.15 1085.28 566.21 963.41 651.30 1062.84 627.73
00019460 00000020 735.77 196.03 362.90 567.93 951.65 476.00 1081.66 436.52 1097.90 566.24 968.26 655.54 1060.81 631.14
00019461 00000021 738.03 207.73 366.42 557.28 953.13 479.26 1088.28 438.92 1098.27 573.14 970.96 659.95 1065.75 634.96
00019462 00000022 741.52 212.98 365.22 554.11 955.95 480.52 1088.97 443.09 1096.14 576.14 975.96 662.10 1067.55 638.98
00019463 00000023 741.51 221.28 367.13 550.88 957.03 483.17 1089.63 445.68 1097.34 582.33 974.31 665.93 1066.48 643.00
00019464 00000024 743.71 229.75 367.06 544.52 956.60 486.18 1090.68 449.13 1097.03 586.24 973.25 667.22 1067.35 644.65
00019465 00000025 742.68 233.00 366.57 540.98 956.53 487.54 1089.95 451.41 1096.21 588.43 969.40 666.84 1064.77 644.89
00019466 00000026 740.37 227.52 366.17 544.16 953.35 487.34 1088.36 449.99 1094.00 587.39 966.55 665.09 1063.13 642.49
00019467 00000027 737.41 215.74 364.38 551.55 951.07 484.50 1085.34 446.28 1089.44 580.36 968.32 661.98 1062.17 638.51
00019468 00000028 734.14 206.56 363.79 555.81 942.88 474.76 1079.19 442.91 1078.15 573.25 967.60 654.20 1061.66 635.19
00019469 00000029 732.48 188.15 373.49 583.78 945.61 473.61 1082.28 433.98 1080.97 577.70 951.89 668.22 1055.37 637.59
00019470 00000030 726.05 185.87 375.04 579.97 941.08 470.20 1077.85 429.38 1079.11 572.51 949.96 664.85 1049.72 633.38
00019471 00000031 723.55 197.50 372.69 563.07 930.21 454.13 1073.24 422.06 1072.70 553.63 946.74 652.75 1051.48 629.24
00019472 00000032 718.84 196.66 375.88 562.35 926.59 449.89 1068.55 416.58 1069.47 549.66 941.95 647.65 1048.84 623.73
00019473 00000033 716.94 192.25 376.64 568.12 925.63 446.51 1064.58 415.10 1067.07 545.77 940.97 645.54 1045.64 623.04
00019474 00000034 716.27 188.11 376.92 575.20 927.01 443.24 1063.06 413.40 1066.58 545.17 940.44 644.84 1042.58 623.60
00019475 00000035 717.68 185.90 376.57 573.40 929.07 445.83 1066.46 414.79 1070.03 545.75 939.87 642.72 1045.75 620.90
00019476 00000036 720.55 190.86 373.69 568.60 930.00 448.16 1067.23 417.22 1070.20 545.90 940.77 643.73 1046.65 622.03
00019477 00000037 724.79 196.45 371.40 566.48 934.45 453.09 1070.54 420.93 1075.44 550.65 942.98 647.05 1049.47 624.69
00019478 00000038 725.10 195.30 373.91 574.87 936.70 459.66 1072.45 427.12 1078.70 558.46 941.40 652.38 1050.54 629.73
00019479 00000039 723.88 194.92 376.87 578.01 936.75 464.15 1073.73 428.39 1081.23 565.05 937.84 656.01 1050.53 631.03
00019480 00000040 721.74 198.50 379.47 577.86 934.91 468.23 1072.15 430.05 1081.58 567.09 938.40 658.29 1051.06 630.93
00019481 00000041 719.77 202.69 381.16 577.19 932.17 469.79 1069.81 431.27 1078.42 568.69 937.10 660.55 1049.54 632.44
00019482 00000042 716.27 208.14 381.42 571.64 930.09 471.33 1067.45 431.51 1077.21 569.02 937.28 662.37 1046.94 633.05
00019483 00000043 712.80 205.56 381.62 573.74 927.22 471.44 1064.13 431.47 1074.36 567.62 939.41 663.39 1045.07 633.54
00019484 00000044 709.79 207.24 383.09 571.18 922.67 471.29 1062.60 428.22 1072.08 566.86 939.44 664.56 1045.34 631.88
00019485 00000045 707.31 210.52 383.71 567.84 921.30 473.46 1061.10 428.62 1071.65 567.52 937.21 662.99 1045.19 629.12
00019486 00000046 706.55 209.81 384.32 567.66 919.90 475.03 1060.64 428.85 1071.41 567.14 935.53 661.91 1046.25 627.00
00019487 00000047 708.01 209.05 383.53 568.85 921.10 475.22 1061.18 429.12 1072.33 566.74 936.07 661.89 1046.32 627.05
00019488 00000048 708.37 211.35 383.49 566.77 922.36 475.42 1061.92 429.76 1072.80 567.85 936.05 662.07 1045.63 627.66
00019489 00000049 708.53 211.69 384.57 569.61 923.19 474.74 1061.95 430.03 1072.10 569.64 934.53 662.96 1044.56 629.43
00019490 00000050 717.24 210.06 373.88 564.74 911.28 472.34 1066.06 431.46 1058.59 578.83 943.44 654.89 1056.39 626.14
00019491 00000051 717.22 210.18 374.50 564.23 911.39 472.28 1067.19 429.41 1059.95 578.78 945.27 655.99 1057.26 625.67
00019492 00000052 709.79 207.23 383.44 569.02 922.97 471.78 1063.99 427.86 1072.46 568.78 939.74 664.99 1045.64 631.82
00019493 00000053 710.69 209.10 384.87 571.42 923.24 468.54 1063.39 429.25 1068.23 568.58 939.29 666.22 1044.23 636.30
00019494 00000054 709.46 209.03 385.72 571.90 923.78 468.49 1062.40 428.24 1068.49 569.13 935.91 663.78 1042.85 633.55
00019495 00000055 709.60 207.48 385.26 571.68 924.07 471.80 1063.10 428.84 1071.62 569.45 932.34 659.46 1045.08 627.78
00019496 00000056 709.95 208.97 384.91 569.32 923.72 472.60 1062.61 428.58 1071.89 569.26 929.41 656.67 1045.80 624.47
00019497 00000057 718.16 209.73 375.92 565.50 910.30 470.77 1064.35 432.80 1056.54 577.21 938.90 650.42 1056.42 623.74
00019498 00000058 718.14 208.92 375.29 564.93 909.63 470.40 1063.88 433.01 1055.39 576.69 939.17 650.04 1056.63 623.61
00019499 00000059 718.35 211.72 374.81 561.02 909.99 470.55 1064.99 433.51 1055.94 577.59 939.68 649.80 1056.80 623.81
00019500 00000060 717.94 209.95 375.33 562.70 909.52 471.50 1065.51 434.23 1055.52 577.72 940.57 650.52 1057.49 624.30
00019501 00000061 718.43 210.40 374.91 563.57 910.18 470.98 1065.49 434.19 1055.49 578.07 940.38 651.23 1056.77 625.46
00019502 00000062 716.91 209.21 376.02 564.51 910.53 472.09 1063.79 433.09 1057.90 575.76 939.28 651.24 1055.27 623.73
00019503 00000063 716.44 198.48 376.02 573.14 908.79 470.82 1063.52 428.84 1056.67 573.11 936.67 650.49 1054.50 620.56
00019504 00000064 714.31 198.84 376.13 568.55 906.79 462.57 1059.85 424.47 1052.27 566.97 933.70 644.97 1050.41 618.22
00019505 00000065 712.96 202.14 375.46 560.26 906.76 458.71 1057.92 422.43 1051.89 562.13 930.55 640.45 1047.73 615.24
00019506 00000066 700.89 198.08 387.38 562.69 908.75 450.78 1051.08 417.34 1053.68 548.18 921.06 640.37 1034.80 616.55
00019507 00000067 699.00 198.44 387.78 560.23 904.37 446.41 1047.98 414.35 1048.53 544.11 918.53 637.62 1032.89 614.65
00019508 00000068 697.36 194.73 387.27 560.62 899.21 442.60 1045.42 411.89 1041.51 541.23 916.30 636.17 1029.87 613.92
00019509 00000069 695.90 191.48 387.23 562.51 896.16 440.45 1042.98 409.57 1038.54 538.69 914.64 634.16 1028.55 611.54
00019510 00000070 696.62 191.83 382.13 551.79 889.24 443.68 1043.45 417.17 1033.69 547.71 914.93 626.40 1035.28 607.99
00019511 00000071 696.01 191.35 381.61 553.71 888.64 443.88 1042.87 417.45 1033.63 548.23 915.40 627.80 1035.40 609.28
00019512 00000072 694.59 191.14 385.96 564.06 894.64 442.68 1040.35 412.62 1036.03 539.48 917.68 637.46 1027.49 615.23
00019513 00000073 696.25 198.52 388.50 559.31 898.26 448.82 1045.55 414.89 1042.73 546.26 922.71 643.45 1032.70 617.74
00019514 00000074 700.32 192.85 387.08 569.11 905.84 456.07 1048.79 418.33 1048.87 551.32 931.35 649.99 1036.81 621.09
00019515 00000075 707.76 198.17 379.03 566.50 904.91 460.52 1054.92 424.00 1048.40 567.81 934.76 646.17 1045.41 620.28
00019516 00000076 708.11 197.45 380.52 568.11 904.62 465.56 1058.60 424.76 1053.49 568.85 928.19 645.85 1046.64 616.93
00019517 00000077 710.40 201.12 378.86 563.89 905.27 463.32 1059.02 424.72 1052.31 567.63 929.11 643.68 1047.43 616.62
00019518 00000078 711.40 200.70 378.18 569.10 905.57 462.43 1058.37 425.16 1051.14 567.63 930.09 646.59 1045.75 620.73
00019519 00000079 713.52 198.92 378.04 573.10 904.89 462.71 1058.90 427.39 1048.26 568.75 931.87 647.62 1047.25 623.00
00019520 00000080 715.76 196.18 376.43 575.29 906.27 466.31 1061.04 428.90 1049.80 571.56 932.06 648.43 1049.11 622.11
00019521 00000081 715.25 199.69 377.26 570.52 906.20 469.54 1061.87 429.60 1052.02 574.02 933.04 648.26 1052.01 619.92
00019522 00000082 715.70 200.66 376.82 568.21 906.65 470.93 1062.90 429.95 1053.56 574.54 934.99 648.03 1054.55 618.80
00019523 00000083 715.80 201.05 376.92 567.85 906.09 470.70 1064.35 429.09 1053.75 575.32 935.08 649.54 1054.65 619.95
00019524 00000084 717.23 199.51 376.22 572.05 907.27 467.78 1064.21 428.56 1052.08 575.21 937.36 650.17 1054.22 622.33
00019525 00000085 718.03 197.67 375.48 574.26 910.80 465.93 1065.06 429.03 1052.47 575.30 943.26 652.80 1053.88 626.63
00019526 00000086 719.08 201.62 375.07 570.37 912.85 466.74 1065.71 429.46 1054.49 576.71 946.26 651.89 1056.65 625.28
00019527 00000087 718.72 202.46 375.23 571.96 913.98 466.57 1067.67 429.87 1056.29 577.82 946.78 655.02 1055.95 628.99
00019528 00000088 719.41 199.79 375.45 574.45 913.84 466.88 1067.54 430.01 1055.78 576.95 947.74 654.60 1057.08 628.30
00019529 00000089 719.03 201.14 375.39 571.11 914.19 465.86 1067.37 429.30 1056.04 576.49 948.29 653.27 1057.17 627.21
00019530 00000090 717.96 200.09 375.83 572.21 913.93 465.15 1066.12 429.07 1055.65 574.98 946.45 652.21 1055.59 626.61
00019531 00000091 715.90 199.16 377.52 575.18 912.35 466.15 1066.51 430.28 1056.48 573.70 941.31 653.98 1052.86 628.88
00019532 00000092 715.17 198.94 377.54 574.23 911.77 466.84 1066.47 429.71 1056.00 575.05 940.05 654.21 1051.08 628.30
00019533 00000093 714.60 197.09 377.59 575.46 911.37 466.28 1066.52 429.62 1055.63 574.16 940.81 654.37 1051.43 628.71
00019534 00000094 714.19 197.71 377.88 573.56 911.01 466.96 1066.38 429.28 1055.93 574.78 940.38 653.62 1051.67 627.14
00019535 00000095 714.67 199.73 377.83 572.71 910.94 467.42 1065.61 429.54 1055.58 576.17 939.86 653.02 1051.58 626.50
00019536 00000096 714.53 200.15 378.08 576.39 910.00 466.59 1064.13 431.29 1053.45 575.98 937.01 654.47 1049.11 630.01
00019537 00000097 712.56 199.41 380.85 580.13 910.86 466.61 1063.09 431.81 1054.54 574.94 932.04 654.42 1045.24 630.64
00019538 00000098 712.34 199.64 380.84 578.87 910.55 466.19 1062.84 431.44 1053.93 575.59 932.03 653.47 1045.17 629.74
00019539 00000099 712.56 198.74 380.08 578.49 908.30 465.98 1062.96 431.11 1053.13 574.62 932.18 653.41 1046.87 629.46
00019540 00000100 712.08 198.05 381.17 577.74 907.22 465.57 1062.56 429.62 1052.75 573.62 931.62 652.28 1047.01 627.47
00019541 00000101 712.09 198.19 381.49 575.53 906.90 465.45 1062.64 429.47 1052.35 573.10 930.33 650.75 1046.51 626.02
00019542 00000102 711.32 199.46 382.50 574.76 906.67 465.09 1062.51 429.15 1052.15 573.01 928.56 650.20 1045.63 625.58
00019543 00000103 711.27 198.59 383.08 574.98 906.60 464.96 1062.31 429.23 1052.02 573.01 928.65 649.68 1045.55 625.23
00019544 00000104 711.59 197.64 382.94 575.84 907.03 465.35 1062.92 428.82 1052.72 573.38 928.81 649.84 1045.97 624.75
00019545 00000105 711.67 198.54 383.47 575.22 907.26 464.05 1063.36 428.54 1052.37 573.29 929.50 650.23 1045.81 625.94
00019546 00000106 711.36 197.62 383.98 577.31 906.71 463.82 1062.60 428.36 1051.86 573.16 928.73 650.33 1045.31 626.06
00019547 00000107 710.61 198.28 383.85 575.70 905.75 464.25 1062.04 428.53 1051.21 572.87 927.41 649.61 1044.80 625.13
00019548 00000108 710.24 196.97 382.63 575.04 903.00 467.22 1061.73 434.94 1046.99 570.44 924.60 648.66 1045.84 626.16
00019549 00000109 702.26 200.19 388.25 566.18 898.98 466.63 1058.63 436.09 1044.62 563.49 921.57 646.26 1041.28 625.13
00019550 00000110 698.33 201.40 390.49 564.07 895.00 462.74 1054.34 435.17 1040.81 562.09 918.73 644.14 1039.01 625.17
00019551 00000111 697.78 201.26 389.40 565.60 891.16 457.01 1047.66 434.98 1030.98 562.56 912.17 640.28 1031.05 625.73
00019552 00000112 690.32 208.80 394.35 559.27 887.81 450.70 1042.12 436.32 1025.35 561.25 907.43 639.32 1022.47 631.15
00019553 00000113 687.07 212.85 397.41 553.70 882.06 444.21 1039.58 435.01 1017.74 560.76 901.58 637.03 1018.14 633.20
00019554 00000114 682.08 210.35 399.47 554.51 878.29 440.21 1036.05 434.56 1012.95 559.03 897.49 635.38 1014.16 634.13
00019555 00000115 679.00 209.61 396.37 554.43 873.23 440.83 1033.17 431.51 1000.80 561.19 889.42 639.69 1004.84 633.24
00019556 00000116 675.89 201.96 397.95 556.68 869.96 435.90 1029.72 428.25 994.45 558.47 884.34 635.26 998.23 630.53
00019557 00000117 668.21 192.00 402.27 561.97 866.38 427.84 1022.98 421.15 989.81 550.47 879.43 629.19 992.39 625.58
00019558 00000118 665.13 181.77 402.36 565.33 862.07 419.02 1014.00 412.74 979.96 545.00 875.14 623.13 986.98 619.77
00019559 00000119 658.96 176.57 407.28 565.09 854.23 410.89 1008.00 405.68 969.89 538.40 863.73 616.99 978.05 614.88
00019560 00000120 654.26 169.59 407.97 572.98 842.30 404.17 1001.91 400.37 961.52 531.73 851.23 612.42 974.83 611.65
00019561 00000121 651.73 167.80 408.05 575.81 833.71 402.29 996.10 397.32 956.08 527.06 847.71 610.89 975.76 608.97
00019562 00000122 650.54 167.56 407.04 578.66 830.37 402.34 993.02 396.78 954.26 526.31 845.84 611.46 975.23 609.01
00019563 00000123 650.17 170.94 407.00 577.77 830.69 405.39 993.07 399.69 954.32 529.41 845.44 612.65 975.94 610.35
00019564 00000124 650.06 179.15 406.27 576.09 833.82 410.29 994.99 406.19 955.13 537.03 847.26 617.08 976.05 616.30
00019565 00000125 653.39 181.74 403.59 582.82 836.16 417.87 996.06 414.59 956.89 541.63 848.55 623.04 977.82 622.77
00019566 00000126 656.67 191.10 403.06 586.18 836.62 430.72 999.54 428.09 959.28 550.00 853.55 633.49 982.98 633.41
00019567 00000127 658.41 205.60 404.65 580.24 838.96 442.44 1005.91 434.70 963.68 564.67 857.34 645.20 985.99 641.39
00019568 00000128 663.03 211.89 400.39 585.79 841.60 455.93 1010.19 445.00 967.70 576.27 861.21 658.38 987.35 652.50
00019569 00000129 662.05 226.24 403.23 576.69 846.34 465.69 1004.06 455.16 966.99 594.74 861.52 673.86 980.88 666.53
00019570 00000130 660.71 243.02 404.71 567.91 852.50 477.19 1005.75 463.92 971.65 612.04 865.85 685.03 980.20 676.09
00019571 00000131 662.54 252.20 404.25 565.02 856.00 486.44 1007.70 473.38 974.11 620.88 869.31 690.49 980.57 681.82
00019572 00000132 662.52 262.49 404.91 551.06 853.00 494.62 1011.09 479.58 973.24 626.08 869.85 692.21 985.48 682.02
00019573 00000133 663.21 266.71 403.88 547.94 852.15 495.28 1011.74 481.32 971.87 627.56 869.33 693.35 984.71 684.18
00019574 00000134 661.39 263.14 404.59 548.22 851.89 492.32 1010.15 476.83 973.04 624.71 871.40 692.98 985.60 682.33
00019575 00000135 658.68 257.73 406.27 549.54 852.41 484.18 1007.08 466.97 973.08 617.31 874.68 690.65 982.85 678.00
00019576 00000136 656.57 248.74 405.22 554.83 849.78 477.53 1005.39 460.34 972.20 610.45 874.07 686.56 984.57 673.75
00019577 00000137 661.53 239.91 399.89 551.69 846.43 475.18 1009.17 457.03 970.75 597.28 868.74 675.85 987.50 661.97
00019578 00000138 670.35 214.58 388.36 566.72 851.46 469.51 1018.63 455.04 980.21 576.63 873.32 657.61 993.94 648.74
00019579 00000139 671.22 215.35 391.00 556.56 861.13 461.09 1024.22 446.33 990.72 570.13 881.97 650.17 999.35 640.69
00019580 00000140 677.79 207.14 383.90 561.43 867.57 456.67 1027.67 438.96 1000.69 563.00 890.38 646.86 1006.70 634.15
00019581 00000141 681.62 201.53 384.16 562.82 877.60 454.43 1032.09 435.54 1013.30 555.73 901.12 645.16 1013.52 630.90
00019582 00000142 691.89 201.77 387.01 559.10 884.86 449.63 1044.48 425.69 1030.75 555.03 917.08 644.25 1031.84 628.11
00019583 00000143 694.75 198.60 389.58 566.88 892.80 459.39 1050.52 425.36 1043.99 562.78 923.45 648.39 1040.84 624.18
00019584 00000144 704.76 205.94 380.39 571.09 903.49 469.18 1059.14 432.33 1052.64 575.37 928.86 655.18 1046.60 629.68
00019585 00000145 707.10 214.48 388.30 578.48 921.57 481.54 1067.38 442.74 1069.81 581.50 934.79 678.24 1045.98 648.26
00019586 00000146 713.10 233.60 386.33 566.05 928.32 496.56 1077.56 458.52 1075.79 602.61 937.86 693.15 1047.45 664.22
00019587 00000147 717.17 256.31 384.43 553.32 936.52 505.95 1072.09 473.06 1068.22 619.00 955.62 700.31 1048.56 676.13
00019588 00000148 722.70 270.20 385.75 552.96 945.07 519.76 1082.30 480.40 1081.77 632.14 958.70 710.93 1052.38 683.26
00019589 00000149 725.80 275.25 384.84 554.75 949.97 527.12 1086.46 488.55 1088.41 639.19 960.83 716.34 1053.71 689.98
00019590 00000150 726.97 273.03 383.73 555.22 950.11 525.60 1084.95 486.86 1086.60 635.70 961.96 714.02 1053.76 687.12
00019591 00000151 724.59 271.13 379.64 549.01 940.65 516.97 1080.30 481.25 1074.37 626.38 955.66 705.48 1053.13 680.18
00019592 00000152 717.33 266.84 385.08 539.56 928.27 508.25 1069.30 474.18 1061.59 614.23 945.12 692.47 1049.31 667.24
00019593 00000153 717.36 244.51 381.94 550.50 924.73 497.92 1072.37 460.63 1069.27 593.14 933.35 683.68 1045.68 655.47
00019594 00000154 716.81 240.79 382.78 545.50 919.52 485.70 1068.29 446.02 1065.74 580.03 934.67 675.51 1048.50 645.32
00019595 00000155 716.65 224.94 380.45 558.34 924.69 480.66 1070.07 440.17 1071.76 577.84 937.08 671.49 1048.39 640.80
00019596 00000156 718.58 221.90 380.24 562.13 925.91 481.53 1071.32 439.62 1073.78 578.50 938.16 672.98 1050.13 641.27
00019597 00000157 719.07 229.48 383.25 564.25 927.87 490.96 1076.25 448.72 1076.86 590.30 937.04 681.34 1052.74 649.44
00019598 00000158 718.84 232.65 382.13 569.50 931.12 502.08 1075.77 460.98 1077.36 604.73 936.21 689.94 1049.02 659.07
00019599 00000159 717.22 251.13 387.01 550.31 928.94 502.94 1069.62 467.77 1061.43 611.80 944.39 688.36 1049.09 662.49
00019600 00000160 717.45 259.41 385.49 542.43 927.92 505.34 1070.29 469.76 1061.01 614.33 947.39 689.03 1051.91 662.42
00019601 00000161 720.67 245.51 379.71 554.13 930.52 510.36 1076.04 464.51 1075.60 613.24 947.11 699.59 1050.60 663.60
00019602 00000162 717.56 238.95 380.92 555.82 928.42 507.14 1076.10 459.74 1075.04 608.13 946.81 695.81 1052.47 658.52
00019603 00000163 712.96 235.50 384.45 561.25 926.90 502.77 1073.54 455.75 1075.77 601.19 938.03 689.50 1047.95 653.59
00019604 00000164 711.32 232.14 384.97 564.23 925.24 499.43 1072.12 452.95 1075.61 596.55 931.39 683.78 1047.60 648.99
00019605 00000165 710.35 232.88 384.03 563.23 923.81 497.90 1070.02 452.56 1072.87 594.31 931.85 683.52 1045.42 649.30
00019606 00000166 711.11 232.21 382.53 562.68 925.33 498.82 1070.30 453.14 1073.82 595.14 936.79 686.42 1045.15 651.53
