Video ID: 	Pyk-vUU0wt4
H: 	1080
W: 	1920
FPS: 	25.0

FRAME INDEX X0 Y0 W H [Landmarks (5 Points)]

00000563 00000000 536.71 179.56 371.04 505.69 605.64 412.52 765.70 406.76 671.62 503.07 632.26 581.16 766.68 577.12
00000564 00000001 533.76 181.30 371.98 509.22 600.41 413.61 760.32 408.07 663.39 508.44 627.97 587.09 760.42 583.04
00000565 00000002 532.47 185.16 370.45 509.71 596.48 415.51 756.94 410.41 658.23 512.18 624.20 588.90 758.91 585.18
00000566 00000003 530.77 188.52 370.68 509.14 594.05 417.44 754.17 411.68 655.22 513.87 622.12 590.70 755.64 586.56
00000567 00000004 529.40 188.97 371.17 511.83 592.53 418.81 752.93 411.72 654.15 513.34 622.00 592.41 756.16 587.01
00000568 00000005 528.95 185.53 369.67 511.10 591.43 416.94 754.17 411.11 655.55 513.47 620.55 591.20 756.83 586.87
00000569 DELETE   529.06 182.64 368.60 509.78 590.71 417.54 754.82 410.26 655.67 510.58 618.29 588.60 758.39 582.87
00000570 DELETE   530.47 184.82 367.36 504.26 593.99 421.78 754.93 417.56 656.51 506.87 619.21 586.29 754.28 583.54
00000571 DELETE   531.53 183.38 367.46 507.07 595.80 420.99 753.80 414.70 659.88 510.84 625.34 589.59 754.27 585.30
00000572 00000009 531.81 185.39 369.23 507.37 597.57 420.57 755.22 412.33 663.46 513.88 630.75 593.04 757.59 586.64
00000573 00000010 532.19 187.68 371.39 506.42 600.19 422.74 757.32 414.10 667.19 519.07 635.08 595.61 760.44 588.86
00000574 00000011 531.65 190.09 373.19 504.93 601.91 424.57 757.70 414.52 669.48 521.17 638.63 597.49 761.32 589.65
00000575 00000012 532.82 190.86 372.24 504.55 603.73 425.00 759.85 413.76 672.32 521.59 642.21 597.89 765.99 589.05
00000576 00000013 532.93 191.69 373.21 504.22 605.13 425.49 761.22 412.75 675.57 521.78 645.80 597.92 769.37 587.84
00000577 00000014 534.08 190.30 373.17 505.29 606.61 425.39 763.38 410.95 678.93 522.01 649.10 598.62 772.98 587.21
00000578 00000015 533.94 188.73 374.95 504.79 608.35 425.01 765.18 409.62 682.70 521.37 651.05 598.25 774.06 586.24
00000579 00000016 534.38 188.00 377.29 506.43 610.27 426.19 767.36 408.25 685.85 520.05 653.75 597.91 778.22 583.76
00000580 DELETE   538.41 190.78 375.14 502.42 613.72 430.87 772.40 412.88 688.59 519.74 656.05 598.00 781.77 583.96
00000581 DELETE   540.80 188.85 375.57 505.36 616.24 432.71 775.78 413.96 690.92 517.99 657.17 597.20 785.72 582.38
00000582 00000019 541.54 185.83 376.81 508.41 615.91 426.84 776.21 407.37 689.41 514.76 654.65 594.68 785.23 579.36
00000583 00000020 541.31 181.20 375.15 512.56 613.31 420.88 774.21 405.15 685.63 512.70 649.22 592.61 781.83 580.32
00000584 00000021 541.20 178.40 374.62 512.14 611.94 416.57 774.21 404.05 683.07 508.55 644.77 589.97 778.32 580.56
00000585 00000022 541.97 177.42 373.48 511.88 612.14 414.13 775.49 403.63 681.25 506.85 642.84 590.10 776.05 582.61
00000586 00000023 540.70 174.66 374.82 514.81 610.57 412.30 774.77 402.58 679.68 505.43 640.66 589.48 774.69 582.82
00000587 00000024 541.14 174.47 374.06 513.50 611.27 410.56 774.49 401.81 679.71 504.32 641.73 589.75 771.87 583.90
00000588 00000025 540.81 175.04 374.79 514.40 611.99 410.00 775.04 401.86 680.18 504.92 642.20 590.31 771.14 584.89
00000589 00000026 540.91 174.89 374.76 514.18 612.36 408.31 775.72 401.13 680.56 503.90 641.57 589.16 771.00 584.61
00000590 00000027 550.82 173.69 366.48 516.85 612.99 408.19 775.71 399.29 676.15 494.31 643.00 589.92 764.66 582.36
00000591 00000028 541.20 172.69 375.34 516.47 613.18 405.32 778.01 397.03 681.34 498.66 640.75 586.23 773.18 580.85
00000592 00000029 541.91 171.96 374.68 519.81 613.92 404.76 778.85 395.92 681.97 495.84 640.62 584.65 775.43 578.97
00000593 DELETE   546.77 173.41 370.07 525.28 614.24 410.22 778.81 395.96 680.56 489.00 643.14 590.45 777.48 579.19
00000594 DELETE   545.74 171.33 372.73 530.16 614.21 413.15 779.12 396.99 680.65 491.43 642.14 591.10 782.58 578.16
00000595 DELETE   543.34 174.42 378.10 526.85 615.76 411.05 782.76 397.01 682.77 493.64 638.37 580.67 786.98 570.87
00000596 00000033 543.02 171.57 376.97 526.16 615.59 406.48 784.75 392.87 685.53 490.27 637.16 576.53 790.80 567.31
00000597 00000034 542.98 169.20 377.57 529.12 615.00 404.38 785.43 391.11 685.75 489.17 635.83 574.35 793.59 565.31
00000598 00000035 542.92 168.40 377.56 528.47 614.07 404.28 786.72 389.89 686.66 488.02 635.61 573.70 796.06 563.70
00000599 00000036 544.29 165.91 375.36 526.45 614.37 402.83 788.84 389.54 688.32 487.53 636.13 573.44 796.47 564.46
00000600 00000037 549.21 164.76 373.38 522.91 615.18 394.49 786.01 384.36 682.98 483.13 636.95 576.16 788.95 568.48
00000601 00000038 550.23 165.00 370.94 518.95 619.20 395.38 787.19 387.49 687.89 484.93 641.59 575.56 783.51 569.85
00000602 00000039 551.06 166.51 370.52 517.04 621.37 395.89 788.43 389.21 688.72 485.38 644.00 576.28 779.68 571.50
00000603 00000040 553.42 167.16 369.37 517.00 623.51 397.78 790.96 393.88 690.65 490.40 642.86 577.64 781.67 575.05
00000604 DELETE   556.22 172.21 367.46 516.05 627.81 405.02 794.39 401.14 696.41 495.32 646.08 582.91 784.83 580.18
00000605 DELETE   560.52 178.73 366.44 510.24 634.34 417.25 798.38 411.07 700.39 499.30 649.48 586.76 790.25 581.98
00000606 00000043 563.97 182.01 362.78 507.54 636.34 415.77 800.38 411.62 701.02 500.12 649.05 586.80 790.82 583.94
00000607 DELETE   566.27 188.76 364.15 507.82 640.97 417.62 808.63 417.11 708.82 506.50 655.22 583.41 789.97 584.26
00000608 00000045 567.24 188.38 364.85 509.93 642.59 416.88 811.30 417.58 710.25 507.03 657.12 584.84 791.12 586.71
00000609 DELETE   568.60 189.57 365.50 506.67 644.14 416.79 812.69 418.34 711.59 509.01 658.76 585.05 791.60 587.61
00000610 00000047 567.93 189.24 366.19 504.84 644.69 414.77 812.17 417.88 711.66 509.48 659.59 585.11 788.85 588.86
00000611 00000048 567.76 190.64 366.14 503.69 645.19 415.10 812.47 418.94 711.64 510.13 658.74 585.99 787.51 590.31
00000612 00000049 568.62 191.23 365.55 506.58 644.78 417.93 812.76 420.17 711.44 511.45 657.87 587.38 789.84 590.53
00000613 DELETE   570.17 191.63 362.92 510.94 645.62 422.03 811.27 421.68 711.13 511.88 657.67 590.92 789.55 592.18
00000614 DELETE   570.64 188.22 358.80 516.87 648.89 428.94 806.20 423.35 709.15 508.40 662.72 597.76 791.90 593.74
00000615 DELETE   570.31 187.71 358.98 517.58 647.73 427.13 805.71 422.63 707.75 509.26 661.58 597.28 791.93 594.11
00000616 00000053 567.97 186.34 360.60 517.49 644.67 420.54 804.84 418.98 706.04 508.33 658.04 594.94 790.60 594.12
00000617 00000054 566.28 186.68 361.12 513.61 642.66 418.19 803.55 418.58 703.06 507.05 655.93 594.46 784.32 595.22
00000618 00000055 564.26 187.42 360.45 511.45 639.53 416.96 800.21 419.13 698.85 507.94 652.56 593.92 779.91 596.17
00000619 00000056 561.56 188.46 361.78 509.77 637.94 416.27 798.84 420.11 698.33 509.96 651.17 592.76 778.32 596.33
00000620 00000057 558.53 188.51 364.50 511.02 635.53 417.94 797.60 423.05 697.53 514.53 648.80 593.69 777.12 598.38
00000621 00000058 556.97 190.44 364.17 513.71 633.52 419.39 796.32 424.42 697.56 518.54 648.10 597.12 776.83 601.94
00000622 00000059 556.11 192.12 363.90 512.86 632.55 421.82 795.12 426.71 697.31 520.03 647.23 598.21 777.23 602.93
00000623 00000060 557.81 195.56 360.61 510.50 633.48 430.27 795.32 432.86 698.29 520.17 646.60 600.00 777.66 602.86
00000624 00000061 548.63 200.40 370.75 505.73 630.59 431.69 796.48 433.87 696.94 527.81 645.24 597.76 781.54 600.38
00000625 00000062 547.21 198.99 372.21 507.38 628.87 428.05 797.50 430.40 695.93 528.08 642.87 597.58 781.70 600.54
00000626 00000063 545.60 198.01 374.57 509.35 627.90 424.24 797.73 426.68 695.47 527.57 641.21 597.49 781.30 600.65
00000627 00000064 555.94 195.24 363.61 513.71 632.62 422.64 795.91 430.05 697.22 520.53 641.33 597.97 775.62 605.38
00000628 00000065 556.49 194.30 364.13 514.60 633.94 422.17 796.79 430.43 697.73 520.77 641.51 597.64 774.96 605.69
00000629 00000066 556.91 193.80 364.60 513.37 634.70 420.73 797.99 431.19 697.37 520.56 640.83 595.23 774.71 604.90
00000630 00000067 557.91 194.60 363.27 508.15 634.55 420.04 800.67 432.25 698.43 519.10 638.06 591.51 777.55 602.44
00000631 00000068 561.26 196.33 360.25 505.07 637.29 426.32 799.71 435.97 699.58 518.86 641.12 590.40 780.18 599.10
00000632 00000069 563.26 197.28 358.86 503.34 639.74 427.71 801.82 436.99 701.73 518.78 642.05 589.71 781.80 598.16
00000633 00000070 562.79 196.61 360.86 503.49 638.33 421.85 804.38 433.20 701.84 519.33 639.72 589.38 781.87 599.60
00000634 00000071 563.81 197.12 361.95 503.48 640.19 418.92 806.18 432.32 702.36 518.49 639.49 587.90 782.55 599.78
00000635 00000072 563.61 196.56 363.34 504.47 641.89 417.49 807.93 431.93 704.62 519.84 640.78 587.56 782.62 600.42
00000636 00000073 564.05 197.15 364.54 503.62 643.66 415.93 810.72 430.05 707.10 518.74 642.41 587.51 783.40 600.04
00000637 00000074 564.69 195.04 365.71 506.58 645.58 415.37 811.18 429.67 707.69 517.52 644.45 587.49 783.23 600.13
00000638 00000075 565.87 193.33 366.26 510.89 647.23 416.01 811.84 429.78 708.21 517.26 647.15 589.33 783.48 601.53
00000639 00000076 566.21 193.43 365.83 514.25 648.25 418.92 812.54 430.61 709.42 516.87 650.72 593.26 783.45 603.57
00000640 00000077 568.02 194.10 363.74 515.31 651.82 428.25 810.75 437.09 711.56 515.54 653.78 594.95 785.67 602.80
00000641 00000078 567.95 194.71 363.52 512.75 651.13 428.21 810.57 437.03 711.14 515.08 652.80 593.78 785.74 601.62
00000642 00000079 567.06 195.49 362.46 506.29 648.78 421.15 812.05 432.33 709.11 514.36 647.13 588.56 786.56 598.49
00000643 00000080 564.87 194.06 364.42 504.85 646.08 415.32 813.03 430.24 707.71 513.88 641.51 583.96 786.52 597.00
00000644 00000081 563.29 194.58 364.78 503.90 644.22 413.37 811.43 428.52 706.15 514.22 641.40 584.57 784.13 597.96
00000645 00000082 561.62 192.78 366.72 509.45 644.73 413.33 808.31 427.59 705.61 513.37 644.75 586.77 779.89 599.50
00000646 00000083 561.31 192.69 367.83 515.87 644.90 413.93 807.81 427.28 706.49 514.59 647.47 590.47 780.05 602.42
00000647 00000084 561.92 193.23 367.50 516.12 644.86 414.10 807.64 427.24 706.22 514.17 647.46 591.09 780.38 602.89
00000648 00000085 561.54 192.93 367.78 516.16 644.83 414.09 807.95 427.51 706.68 513.93 647.23 590.93 780.31 602.91
00000649 DELETE   564.23 193.14 365.45 516.21 650.23 422.57 808.82 432.87 710.17 510.77 651.41 590.93 782.39 600.19
00000650 00000087 564.22 193.47 364.71 515.01 650.74 424.18 808.54 433.29 710.43 510.27 653.78 592.80 780.39 601.03
00000651 00000088 563.72 193.29 365.78 512.75 649.54 419.39 810.78 430.81 710.04 508.54 650.43 590.04 780.58 600.39
00000652 00000089 562.76 192.31 366.60 513.45 647.88 414.73 811.58 428.07 709.26 510.31 648.41 589.69 780.09 601.75
00000653 00000090 561.87 192.27 368.08 514.38 646.73 413.25 810.36 426.76 708.11 511.07 648.47 591.31 777.97 603.45
00000654 00000091 561.94 192.12 368.45 514.34 647.86 413.38 809.30 426.60 708.37 511.26 650.81 590.72 778.19 602.50
00000655 00000092 562.63 192.44 368.19 511.08 646.98 411.08 809.78 425.09 707.43 510.59 647.59 587.03 780.27 599.45
00000656 00000093 562.99 192.12 367.43 510.04 645.79 410.06 810.11 424.83 706.30 511.16 644.54 585.50 781.19 598.64
00000657 00000094 562.97 191.48 367.32 507.11 646.00 408.56 811.82 424.75 706.07 509.98 642.45 582.21 783.07 596.38
00000658 00000095 563.01 190.92 367.22 507.98 645.65 408.08 811.52 424.51 705.32 509.54 641.53 581.75 783.69 596.07
00000659 00000096 562.02 190.85 367.50 508.96 646.41 409.82 811.24 424.88 706.84 508.75 645.40 584.29 781.05 597.44
00000660 00000097 563.72 191.47 365.53 510.64 652.30 420.67 810.53 431.38 711.35 505.49 653.72 589.06 779.29 598.47
00000661 DELETE   563.11 190.92 366.19 512.80 652.80 421.56 810.92 431.87 712.63 505.76 655.00 590.96 779.07 600.04
00000662 00000099 562.19 190.66 367.03 512.05 649.72 416.39 812.46 428.27 711.16 507.38 650.47 589.87 779.78 600.56
00000663 00000100 561.48 190.39 368.16 512.43 648.41 413.71 811.27 426.76 709.65 508.25 649.46 589.55 778.20 601.21
00000664 00000101 559.94 190.36 370.11 515.05 648.06 413.08 810.16 426.03 710.02 509.51 650.83 590.54 777.67 602.08
00000665 00000102 560.41 190.90 370.14 515.48 648.17 412.35 810.86 424.40 710.94 509.02 651.82 589.50 780.64 600.16
00000666 00000103 562.61 190.75 366.35 507.07 646.72 409.00 812.91 423.09 708.12 508.28 645.07 583.29 784.81 595.75
00000667 00000104 562.98 190.45 366.98 504.91 647.73 406.97 814.80 422.10 708.89 506.30 643.43 579.55 787.41 592.77
00000668 00000105 562.54 190.11 367.98 505.88 648.95 407.72 815.14 421.74 710.80 505.60 646.37 580.54 786.91 592.82
00000669 00000106 562.77 189.64 369.06 509.05 650.63 408.87 817.30 421.87 713.88 504.30 648.77 583.50 785.95 595.02
00000670 DELETE   564.94 190.91 367.34 509.60 657.04 417.79 819.64 426.85 720.08 499.97 656.58 585.71 786.90 593.72
00000671 DELETE   565.41 189.49 367.63 511.56 658.22 419.26 820.36 427.35 721.41 499.92 656.91 584.95 789.25 592.19
00000672 00000109 565.62 187.30 367.85 511.26 657.66 414.23 821.45 424.82 720.28 498.70 653.40 581.81 789.96 591.34
00000673 00000110 564.59 186.60 369.10 510.91 655.32 407.50 821.86 419.54 718.87 497.95 651.17 580.19 789.85 590.98
00000674 00000111 564.35 187.70 370.06 509.85 654.15 405.40 820.56 418.56 717.25 499.00 649.88 579.59 789.10 591.31
00000675 00000112 563.98 187.69 371.03 509.59 653.87 402.99 820.78 416.96 717.36 498.89 649.48 579.21 788.45 591.61
00000676 00000113 564.16 187.09 371.16 510.61 653.61 402.00 820.94 416.22 716.81 498.69 649.45 579.06 788.63 591.69
00000677 00000114 563.17 186.92 371.83 510.31 653.20 400.03 821.41 415.29 716.94 497.88 648.47 578.12 788.65 591.61
00000678 00000115 563.32 186.96 372.46 509.89 652.99 399.17 821.44 414.68 716.85 497.54 647.67 577.19 788.50 590.93
00000679 00000116 563.64 187.35 371.55 508.64 653.74 398.33 821.81 414.35 716.92 496.66 647.61 576.38 788.43 590.62
00000680 00000117 563.23 186.90 371.44 509.21 653.59 398.17 821.93 414.08 717.24 496.56 647.71 576.37 788.65 590.52
00000681 00000118 562.81 187.42 371.11 507.85 653.00 397.91 821.86 414.23 717.34 496.54 646.86 576.05 788.70 590.52
00000682 00000119 562.15 186.36 371.70 508.03 652.28 397.02 821.16 413.17 716.90 495.63 646.76 575.84 788.09 590.22
00000683 00000120 557.33 190.04 374.82 507.75 654.71 399.67 822.59 415.09 726.77 496.11 646.92 577.71 789.65 591.22
00000684 00000121 556.89 188.84 375.04 507.35 654.20 399.34 822.70 414.87 726.70 496.16 646.76 577.41 790.32 590.87
00000685 00000122 556.14 188.30 375.86 506.88 653.77 398.08 822.23 413.56 726.70 495.83 646.40 576.41 790.17 589.78
00000686 00000123 555.71 186.96 376.04 506.24 653.44 397.49 821.83 413.43 726.53 496.16 646.18 575.57 790.04 589.12
00000687 00000124 557.87 184.06 373.56 504.32 650.22 391.50 820.80 409.02 716.50 491.12 643.73 571.66 788.36 586.99
00000688 00000125 558.04 183.56 373.94 503.93 650.36 391.05 820.76 408.66 716.25 491.02 643.85 571.14 788.04 586.57
00000689 00000126 557.81 182.06 374.95 505.09 650.56 391.41 821.16 408.75 716.75 491.40 644.10 571.71 787.95 586.94
00000690 DELETE   558.85 183.10 372.93 503.61 653.54 396.11 822.14 412.59 719.79 491.52 646.77 571.47 789.92 585.81
00000691 DELETE   560.51 183.44 371.10 502.12 655.00 401.94 822.45 416.46 720.95 490.73 647.81 572.10 791.39 584.72
CROP_BBOX: 333 0 1163 832
