Video ID: 	-K1N3VahOqI
H: 	2160
W: 	3840
FPS: 	23.976023976023978

FRAME INDEX X0 Y0 W H [Landmarks (5 Points)]

00051906 00000000 2093.96 479.13 442.63 588.48 2146.10 639.30 2336.55 615.34 2191.71 748.90 2161.96 878.82 2331.05 862.47
00051907 00000001 2092.14 477.06 445.50 592.97 2143.82 639.81 2335.50 615.63 2190.22 747.41 2162.46 879.16 2330.77 862.82
00051908 00000002 2091.81 476.73 445.56 587.15 2143.69 636.22 2334.38 615.19 2188.55 744.93 2159.18 873.90 2325.60 860.79
00051909 00000003 2092.73 476.22 444.72 580.92 2143.47 635.60 2332.08 615.52 2184.79 744.34 2155.99 871.50 2322.18 859.18
00051910 00000004 2088.11 466.87 454.25 582.59 2144.69 634.81 2331.51 621.00 2189.67 746.75 2161.80 869.35 2319.58 857.90
00051911 00000005 2093.21 473.97 446.16 572.87 2144.11 638.59 2331.58 619.57 2186.20 747.27 2154.62 867.48 2320.07 855.68
00051912 00000006 2093.00 473.08 447.95 573.12 2145.66 637.39 2332.64 621.20 2186.21 747.75 2155.02 866.78 2319.20 857.46
00051913 00000007 2088.25 469.03 459.18 577.65 2147.87 635.81 2334.91 627.09 2192.13 749.59 2160.56 867.95 2321.49 860.43
00051914 00000008 2096.08 479.02 446.67 571.65 2149.50 637.96 2337.38 624.42 2190.24 752.24 2158.23 870.43 2325.02 863.28
00051915 00000009 2092.59 472.23 459.54 580.44 2152.75 637.69 2339.87 627.63 2196.40 753.07 2166.29 874.39 2328.91 865.41
00051916 00000010 2093.39 474.72 460.98 578.34 2155.38 636.45 2342.02 627.71 2198.52 753.19 2168.00 873.75 2331.54 865.74
00051917 00000011 2095.58 469.96 460.20 581.98 2157.31 635.33 2343.05 627.20 2199.71 753.91 2169.65 872.75 2331.54 865.24
00051918 00000012 2095.92 475.88 460.61 575.56 2157.87 635.68 2343.68 627.53 2200.49 752.86 2170.04 871.78 2331.00 864.48
00051919 00000013 2095.80 473.91 460.87 576.76 2157.47 635.70 2343.43 626.93 2200.20 752.81 2169.90 871.50 2333.08 863.57
00051920 00000014 2095.38 472.79 460.29 577.36 2157.01 634.04 2342.61 626.04 2198.97 752.19 2169.10 870.48 2332.59 863.04
00051921 00000015 2093.57 471.61 460.72 577.09 2155.55 634.88 2341.75 626.06 2198.84 751.83 2168.48 870.73 2332.24 862.67
00051922 00000016 2092.23 474.76 460.34 574.80 2153.35 636.85 2340.02 627.34 2197.80 752.80 2166.92 872.03 2330.47 863.49
00051923 00000017 2090.97 477.92 459.30 570.92 2151.40 639.67 2338.07 629.56 2195.81 754.52 2164.70 873.49 2328.66 864.52
00051924 00000018 2094.24 485.31 447.08 566.06 2147.15 642.67 2334.36 628.41 2187.75 759.95 2159.72 874.61 2326.53 866.11
00051925 DELETE   2091.18 482.14 447.41 568.77 2142.92 645.31 2329.12 631.68 2182.90 765.00 2156.53 878.08 2321.54 870.32
00051926 00000020 2087.96 481.99 449.62 570.79 2140.22 646.13 2326.70 632.50 2180.97 767.14 2155.07 879.54 2320.28 871.53
00051927 00000021 2086.62 482.37 449.57 568.02 2137.47 646.76 2323.42 632.53 2177.57 767.08 2153.69 880.08 2318.65 871.56
00051928 00000022 2082.75 479.71 459.21 567.96 2137.05 648.22 2325.51 637.90 2182.77 766.32 2156.34 879.80 2320.91 869.98
00051929 00000023 2084.59 479.12 449.84 567.96 2134.88 647.44 2320.52 629.02 2177.48 763.04 2152.56 881.88 2315.81 870.06
00051930 00000024 2083.39 477.09 447.02 566.88 2133.83 648.27 2318.13 627.70 2176.46 761.01 2151.29 882.90 2314.41 869.21
00051931 00000025 2080.14 478.41 454.47 562.02 2133.44 646.65 2322.65 635.47 2182.10 763.39 2151.24 877.71 2317.78 867.71
00051932 00000026 2078.94 479.40 452.71 560.34 2131.31 647.36 2320.23 636.52 2180.42 764.33 2149.37 878.06 2315.88 868.05
00051933 00000027 2077.78 479.68 450.40 559.35 2128.97 646.85 2318.22 638.07 2177.64 765.62 2147.23 875.27 2314.09 866.48
00051934 00000028 2076.79 478.98 449.28 560.70 2127.09 649.10 2317.31 639.18 2177.43 766.10 2147.38 875.70 2314.44 866.06
00051935 00000029 2076.54 479.18 448.53 559.39 2126.54 648.83 2316.59 638.37 2177.81 765.08 2147.33 874.99 2314.73 864.97
00051936 00000030 2075.91 478.58 448.69 557.30 2126.05 647.15 2316.65 636.49 2177.44 764.79 2146.27 874.54 2314.90 864.31
00051937 00000031 2076.54 477.03 449.78 558.23 2126.58 645.38 2316.55 633.88 2177.63 761.55 2146.87 873.37 2315.07 862.57
00051938 00000032 2076.62 476.41 450.33 559.20 2127.61 644.63 2317.97 632.51 2178.71 759.06 2148.28 873.46 2314.48 862.44
00051939 00000033 2077.47 477.80 449.69 557.34 2129.27 643.88 2318.68 631.47 2178.83 759.35 2149.06 873.13 2317.82 861.61
00051940 00000034 2079.08 477.37 450.00 558.43 2130.19 645.25 2320.26 631.37 2180.96 759.63 2150.30 874.25 2319.19 861.80
00051941 00000035 2079.22 475.35 451.77 559.89 2131.34 644.45 2322.22 630.59 2183.12 759.20 2151.08 874.06 2318.18 861.95
00051942 00000036 2078.97 474.95 453.71 561.57 2131.51 644.48 2322.31 630.23 2182.78 759.76 2152.05 874.95 2320.01 862.37
00051943 00000037 2080.27 475.42 453.91 562.70 2132.58 645.34 2323.15 630.03 2183.48 759.98 2153.17 875.31 2322.75 861.79
00051944 00000038 2081.68 476.18 453.62 560.45 2133.97 644.38 2324.92 629.48 2184.93 759.48 2153.70 874.51 2322.42 861.52
00051945 00000039 2083.13 471.68 452.66 564.41 2134.87 642.71 2325.92 628.41 2185.23 758.86 2154.25 873.49 2322.88 861.02
00051946 00000040 2084.91 475.82 447.09 560.40 2137.30 644.15 2318.85 628.49 2179.54 754.49 2153.61 872.33 2319.90 859.82
00051947 00000041 2083.51 470.43 455.58 568.09 2137.41 641.60 2327.65 626.72 2186.01 758.06 2157.45 874.17 2322.91 861.31
00051948 00000042 2085.99 473.61 449.09 561.81 2140.44 641.88 2321.45 628.29 2181.70 755.52 2154.91 872.31 2320.83 861.25
00051949 00000043 2087.63 474.40 448.04 559.83 2142.10 642.75 2322.72 628.95 2183.82 755.96 2155.89 873.12 2322.88 862.01
00051950 00000044 2087.46 471.70 453.23 565.94 2141.99 642.20 2329.89 628.45 2189.40 761.34 2160.16 875.33 2326.28 863.02
00051951 00000045 2090.32 473.53 444.68 567.14 2141.46 643.99 2326.64 622.98 2184.51 758.53 2157.29 877.04 2323.00 862.51
00051952 00000046 2090.89 477.09 445.14 564.58 2142.94 644.54 2328.10 623.32 2186.10 757.79 2158.54 878.18 2322.42 863.62
00051953 00000047 2091.06 476.58 445.31 564.13 2143.60 644.19 2329.31 623.96 2187.11 757.53 2158.43 877.20 2322.79 863.47
00051954 00000048 2091.91 476.60 444.55 564.05 2144.37 644.18 2330.11 624.26 2187.38 757.60 2159.44 877.49 2322.86 864.01
00051955 00000049 2091.58 474.62 444.91 566.11 2144.61 643.96 2330.87 624.65 2188.55 758.65 2159.48 877.85 2323.40 864.88
00051956 00000050 2088.72 471.14 454.90 570.48 2145.96 642.82 2334.60 629.75 2193.69 760.79 2162.20 877.85 2325.84 866.60
00051957 00000051 2089.42 472.88 454.11 569.61 2146.11 643.46 2334.81 630.31 2193.74 761.01 2162.18 877.94 2326.58 866.49
00051958 00000052 2089.09 472.24 454.57 571.46 2146.47 643.10 2334.83 630.37 2193.87 761.59 2162.08 877.99 2327.24 866.70
00051959 00000053 2089.07 472.47 455.31 572.38 2146.14 643.75 2334.54 630.59 2193.39 761.95 2162.22 878.92 2328.12 867.15
00051960 00000054 2088.32 475.03 456.20 568.57 2145.88 644.23 2334.55 631.01 2193.57 763.17 2162.54 878.83 2328.92 866.95
00051961 00000055 2087.34 478.15 456.26 568.64 2144.98 645.95 2333.39 632.53 2192.38 764.85 2162.83 880.91 2328.30 868.60
00051962 00000056 2086.18 478.63 456.84 568.92 2144.35 646.97 2331.64 633.90 2190.91 765.31 2162.69 881.91 2326.55 869.91
00051963 00000057 2085.56 479.17 457.63 568.77 2143.51 647.58 2330.74 634.39 2190.15 766.18 2162.81 882.15 2326.20 869.96
00051964 00000058 2085.86 478.93 456.50 569.38 2143.31 647.32 2330.36 633.93 2189.73 766.74 2162.75 882.10 2327.07 869.48
00051965 00000059 2085.85 477.61 456.02 570.18 2142.74 647.91 2330.21 634.15 2189.87 766.81 2162.88 882.52 2326.65 869.62
00051966 00000060 2086.05 477.38 455.35 569.56 2142.54 648.62 2329.86 634.68 2189.53 766.92 2162.92 882.76 2326.99 869.76
00051967 00000061 2086.73 476.90 453.82 570.26 2142.82 649.30 2329.40 635.61 2189.43 766.58 2162.95 882.07 2326.42 869.31
00051968 00000062 2086.39 476.68 453.94 570.14 2142.77 649.06 2328.99 635.73 2189.10 766.91 2162.60 881.74 2326.49 869.26
00051969 00000063 2086.07 478.17 454.22 568.35 2142.89 648.90 2328.97 636.38 2188.93 767.52 2162.12 881.49 2326.20 869.57
00051970 00000064 2085.67 478.21 454.47 568.27 2142.20 650.19 2328.46 637.66 2188.93 767.38 2162.01 881.42 2325.62 869.60
00051971 00000065 2085.33 477.86 454.56 568.63 2141.59 650.35 2327.80 638.42 2187.87 768.12 2161.62 881.89 2324.97 870.57
00051972 00000066 2084.46 477.99 454.92 568.68 2140.74 650.08 2327.86 638.21 2187.53 769.20 2161.28 882.73 2325.78 871.32
00051973 00000067 2084.04 479.76 455.81 566.91 2140.89 649.08 2327.47 637.62 2186.80 769.97 2161.43 882.83 2325.93 871.59
00051974 00000068 2083.14 481.01 456.72 567.79 2139.75 650.26 2327.17 638.15 2186.24 771.42 2160.99 884.17 2326.41 872.31
00051975 00000069 2083.22 480.17 455.91 569.57 2139.61 651.86 2326.86 639.42 2185.79 773.35 2161.08 886.33 2326.62 874.12
00051976 00000070 2085.64 481.84 445.38 570.60 2137.80 653.64 2321.76 635.44 2181.95 774.95 2159.92 889.12 2322.61 876.39
00051977 00000071 2085.00 482.42 446.80 571.92 2137.73 654.60 2322.08 636.59 2181.92 777.07 2161.04 891.39 2323.53 878.56
00051978 00000072 2083.60 481.40 447.96 573.91 2138.28 655.91 2322.32 636.18 2183.88 776.90 2162.47 892.66 2326.45 878.19
00051979 00000073 2081.45 478.40 457.05 575.73 2137.81 657.02 2325.96 641.04 2186.56 779.18 2164.42 892.51 2331.36 876.84
00051980 00000074 2084.26 480.75 445.88 575.08 2138.59 656.33 2320.77 636.91 2183.53 778.66 2163.36 893.06 2325.70 878.90
00051981 00000075 2082.41 481.00 456.79 572.57 2139.22 657.22 2325.85 640.49 2186.84 778.39 2165.71 891.27 2331.87 874.97
00051982 00000076 2083.81 480.57 456.32 571.60 2139.65 656.23 2326.72 639.39 2187.07 777.83 2166.30 889.71 2333.53 873.23
00051983 00000077 2084.74 482.92 455.56 566.60 2140.89 653.76 2327.14 638.11 2187.22 776.78 2166.16 887.68 2334.52 872.03
00051984 00000078 2085.32 484.08 455.00 565.97 2141.12 653.38 2326.78 637.63 2186.24 776.07 2166.19 887.69 2333.37 872.01
00051985 00000079 2084.23 481.50 455.85 568.70 2140.35 653.01 2326.37 637.36 2186.29 776.20 2165.64 886.90 2333.61 871.22
00051986 00000080 2083.28 479.68 455.76 571.38 2139.22 653.37 2325.78 637.76 2185.45 777.90 2165.45 887.25 2334.08 871.38
00051987 00000081 2082.54 484.01 454.40 566.24 2137.86 655.17 2324.75 639.16 2185.25 778.01 2164.41 887.98 2333.00 871.89
00051988 00000082 2083.49 483.07 443.39 567.19 2137.42 654.10 2318.84 634.09 2182.37 776.38 2161.90 889.36 2325.71 874.47
00051989 00000083 2080.74 483.60 453.22 565.69 2135.48 654.65 2322.12 639.44 2184.40 777.54 2162.71 887.45 2329.17 872.13
00051990 00000084 2082.48 484.84 441.13 566.01 2135.08 654.48 2315.82 633.21 2180.13 776.83 2160.19 889.19 2323.92 873.22
00051991 00000085 2081.71 485.91 441.73 563.77 2133.91 654.22 2315.04 633.93 2178.97 777.43 2159.77 889.40 2323.06 874.32
00051992 00000086 2081.47 485.40 441.01 563.73 2133.57 654.84 2313.62 633.97 2177.88 777.41 2159.20 891.00 2321.72 875.54
00051993 00000087 2080.01 483.75 448.44 563.58 2131.41 655.70 2319.00 639.99 2181.13 778.56 2160.61 889.63 2325.66 874.08
00051994 00000088 2078.30 483.99 448.37 565.49 2129.93 656.23 2318.46 640.26 2180.57 778.19 2159.17 889.68 2324.36 873.90
00051995 00000089 2077.79 487.06 446.77 564.69 2128.47 657.73 2316.48 640.14 2179.45 778.61 2158.46 890.71 2323.14 873.57
00051996 00000090 2077.41 485.52 437.30 568.09 2128.76 658.76 2307.30 635.28 2174.25 781.08 2158.11 895.99 2315.89 878.31
00051997 00000091 2077.04 483.56 444.86 568.43 2126.63 661.30 2315.32 641.93 2178.50 781.88 2159.21 894.94 2322.40 876.52
00051998 00000092 2077.81 481.48 437.00 575.06 2130.13 661.30 2307.99 638.17 2175.61 783.32 2158.52 899.15 2316.28 881.76
00051999 00000093 2078.20 482.08 438.85 575.64 2131.53 660.89 2310.29 639.70 2176.77 784.10 2159.00 898.00 2318.76 882.07
00052000 00000094 2079.45 476.71 439.85 582.33 2131.05 661.34 2312.23 640.08 2177.60 784.29 2160.08 898.36 2320.03 882.33
00052001 00000095 2080.92 478.81 439.99 579.77 2133.00 660.44 2314.85 639.13 2179.70 783.50 2161.16 897.78 2321.62 881.80
00052002 00000096 2081.36 482.28 440.93 575.97 2134.78 659.83 2316.37 639.20 2180.57 783.02 2161.90 897.23 2322.18 881.83
00052003 00000097 2081.91 480.29 440.20 577.14 2134.94 660.16 2316.56 639.35 2181.15 781.83 2162.44 897.28 2322.11 881.89
00052004 00000098 2082.38 480.09 439.51 578.19 2135.05 660.57 2316.31 639.10 2181.20 781.68 2162.71 897.62 2322.22 881.60
00052005 00000099 2082.44 480.38 439.60 578.41 2134.80 660.61 2315.96 638.92 2180.97 781.83 2162.41 897.84 2322.09 881.65
00052006 00000100 2082.93 480.38 439.18 578.36 2135.08 661.10 2316.01 639.06 2180.83 781.30 2162.49 897.90 2321.99 881.45
00052007 00000101 2083.50 480.75 440.36 578.76 2135.65 660.29 2317.29 638.64 2181.40 780.58 2163.35 897.69 2322.33 881.64
00052008 00000102 2084.32 476.82 440.43 584.55 2135.75 660.28 2319.04 638.55 2183.04 781.00 2164.32 897.00 2324.93 880.60
00052009 00000103 2085.72 481.02 440.85 580.03 2138.51 658.63 2320.50 636.26 2185.05 779.68 2165.30 895.39 2326.17 878.45
00052010 00000104 2086.64 481.26 442.57 578.34 2139.96 658.12 2321.83 634.96 2185.76 777.44 2165.72 894.52 2325.96 877.04
00052011 00000105 2086.91 481.31 443.53 575.73 2139.86 656.58 2323.06 633.89 2186.00 776.05 2165.44 892.33 2327.04 875.18
00052012 00000106 2083.81 482.82 454.52 569.63 2139.64 656.16 2325.93 638.32 2188.25 777.01 2167.72 890.16 2332.28 872.87
00052013 00000107 2084.05 482.28 453.41 567.60 2139.43 655.60 2325.57 637.52 2188.01 776.27 2167.19 890.07 2332.68 872.65
00052014 00000108 2083.88 482.46 453.21 568.05 2138.68 655.39 2324.10 637.19 2186.96 776.04 2167.06 889.68 2331.61 872.18
00052015 00000109 2085.84 484.02 443.95 568.56 2139.52 654.19 2320.14 630.89 2183.53 771.97 2163.41 889.27 2325.42 871.71
00052016 00000110 2082.11 485.21 454.53 564.21 2137.34 655.08 2322.97 637.59 2186.16 773.07 2164.86 887.92 2329.16 871.26
00052017 00000111 2082.17 483.32 454.28 564.45 2136.79 654.53 2322.95 638.24 2186.18 773.47 2164.41 887.38 2327.92 871.71
00052018 00000112 2081.92 483.72 454.17 563.54 2136.47 653.68 2322.66 638.24 2185.54 774.09 2163.66 886.71 2327.33 871.64
00052019 00000113 2082.16 482.97 452.97 562.67 2135.81 652.93 2322.47 637.58 2185.41 773.48 2162.90 886.07 2326.29 871.14
00052020 00000114 2082.27 481.55 452.71 564.16 2135.70 652.70 2322.24 636.39 2185.10 772.33 2163.35 886.57 2325.98 871.03
00052021 00000115 2082.09 482.73 452.72 562.44 2135.57 652.74 2322.40 635.62 2186.17 769.60 2162.71 885.50 2325.00 869.64
00052022 00000116 2081.97 483.52 452.87 562.29 2135.45 651.41 2321.75 633.70 2185.68 767.51 2162.23 884.13 2323.77 867.93
00052023 00000117 2082.54 483.11 452.88 562.98 2135.48 650.45 2321.82 632.79 2184.80 766.50 2161.61 883.14 2324.12 866.95
00052024 00000118 2083.58 483.83 451.63 560.94 2135.93 649.60 2322.82 631.92 2185.02 766.40 2161.60 882.32 2324.86 866.04
00052025 00000119 2084.18 481.30 450.23 562.54 2136.35 649.23 2322.98 630.53 2185.25 764.42 2162.14 881.70 2325.06 864.65
00052026 00000120 2085.14 479.14 449.29 563.06 2137.21 648.52 2323.85 628.46 2186.86 760.18 2163.43 880.13 2323.47 862.55
00052027 00000121 2085.65 476.60 449.83 566.16 2137.01 647.36 2323.76 626.47 2186.69 758.22 2163.76 879.29 2322.58 861.19
00052028 00000122 2085.92 475.31 450.02 566.08 2137.89 646.07 2324.23 625.11 2187.52 757.39 2164.76 878.93 2322.41 860.87
00052029 00000123 2086.33 471.70 450.27 569.00 2138.48 645.09 2324.97 623.65 2188.43 755.85 2165.63 878.10 2322.40 859.75
00052030 00000124 2086.72 470.94 451.19 570.87 2139.58 644.83 2326.07 623.59 2189.39 756.42 2166.69 878.18 2322.99 859.95
00052031 00000125 2086.02 472.46 452.39 569.89 2139.82 645.87 2326.47 625.00 2190.07 757.79 2166.55 878.88 2323.35 861.07
00052032 00000126 2086.01 474.44 451.93 567.06 2139.87 646.82 2326.35 625.82 2189.88 759.10 2166.75 880.38 2323.91 862.38
00052033 00000127 2086.33 476.08 451.85 565.73 2140.23 646.67 2326.52 626.09 2189.71 759.28 2166.62 880.27 2324.28 862.57
00052034 00000128 2087.64 475.25 450.84 565.90 2140.89 645.05 2327.14 624.62 2189.86 757.56 2166.51 878.48 2323.83 860.97
00052035 00000129 2088.09 473.02 450.03 567.50 2141.84 643.63 2327.47 623.60 2190.32 756.04 2166.59 876.86 2323.57 859.78
00052036 00000130 2088.24 473.75 450.42 566.37 2141.77 644.20 2327.90 623.74 2190.77 755.79 2167.05 877.50 2323.42 860.27
00052037 00000131 2088.60 475.36 449.90 564.84 2142.40 644.35 2328.18 623.94 2191.34 756.24 2167.35 877.66 2323.45 860.43
00052038 00000132 2088.84 476.21 449.88 563.96 2142.62 644.20 2328.17 623.77 2191.59 756.36 2167.23 877.82 2323.24 860.61
00052039 00000133 2089.18 472.84 448.68 566.09 2142.35 644.21 2328.15 622.93 2191.81 754.92 2167.54 877.56 2323.28 859.84
00052040 00000134 2089.40 470.15 449.43 568.49 2143.10 643.68 2328.80 622.44 2192.86 752.75 2167.90 877.05 2322.42 859.72
00052041 00000135 2089.97 470.32 449.31 568.72 2143.40 643.66 2329.04 622.31 2193.09 751.90 2168.17 876.94 2322.62 859.58
00052042 00000136 2090.14 470.76 449.47 568.51 2143.56 643.75 2329.12 622.14 2193.20 751.55 2168.29 876.91 2322.76 859.43
00052043 00000137 2090.36 470.76 448.86 568.44 2143.73 643.64 2329.25 621.99 2193.49 751.12 2168.45 876.52 2322.66 858.97
00052044 00000138 2090.57 470.18 448.76 568.81 2143.95 643.37 2329.38 622.04 2193.60 750.79 2168.30 876.13 2322.60 858.90
00052045 00000139 2090.90 467.56 448.13 571.31 2143.95 643.12 2329.19 621.76 2193.23 750.71 2168.23 876.02 2322.35 858.85
00052046 00000140 2091.07 467.21 447.66 571.55 2144.42 642.66 2329.34 621.82 2193.62 750.74 2168.35 875.52 2322.31 858.68
00052047 00000141 2091.03 468.35 447.92 570.58 2144.27 642.99 2329.45 621.55 2193.59 750.86 2168.69 876.09 2323.31 858.67
00052048 00000142 2090.93 468.35 448.45 569.65 2144.31 642.54 2329.53 621.16 2193.83 751.15 2168.56 876.16 2323.25 858.88
00052049 00000143 2090.92 469.42 448.12 568.81 2144.15 642.71 2329.24 621.12 2193.82 750.82 2168.77 875.98 2323.13 858.50
00052050 00000144 2090.80 471.49 448.83 567.41 2144.17 643.05 2329.60 621.53 2194.04 750.57 2168.67 875.83 2323.38 858.41
00052051 00000145 2090.86 469.86 448.15 568.72 2143.88 643.13 2329.12 621.60 2193.54 750.07 2168.42 875.42 2323.25 858.02
00052052 00000146 2090.60 470.12 448.28 568.33 2144.02 642.29 2328.99 621.38 2193.06 749.95 2168.08 874.34 2323.05 857.32
00052053 00000147 2090.46 469.10 447.97 569.00 2144.08 641.94 2329.34 621.20 2193.40 749.89 2168.01 873.95 2323.17 857.01
00052054 DELETE   2090.79 470.78 448.09 566.67 2144.95 641.83 2329.62 620.66 2193.66 748.86 2168.57 873.18 2324.00 855.89
00052055 00000149 2091.36 470.11 446.15 565.34 2145.31 639.80 2329.45 618.63 2193.90 747.86 2169.08 871.57 2323.28 854.28
00052056 00000150 2088.63 461.71 449.15 567.30 2137.65 634.97 2326.31 616.89 2188.53 743.69 2164.23 861.54 2318.81 847.04
00052057 DELETE   2099.95 449.49 443.97 555.64 2145.61 628.07 2330.76 607.94 2191.13 715.93 2164.95 841.03 2312.39 825.09
CROP_BBOX: 1861 109 2920 1272
