Video ID: 	3D5FOKEiY30
H: 	1080
W: 	1920
FPS: 	25.0

FRAME INDEX X0 Y0 W H [Landmarks (5 Points)]

00002942 00000000 612.67 116.08 577.25 845.35 770.01 480.56 1034.55 446.09 927.15 602.64 816.15 746.88 1062.72 715.33
00002943 DELETE   632.60 130.51 575.19 829.30 786.72 473.58 1050.43 446.31 937.20 614.09 829.81 746.72 1062.43 719.94
00002944 00000002 645.67 134.65 574.77 825.95 807.02 474.42 1064.33 452.26 954.95 611.97 839.85 740.25 1073.37 717.48
00002945 00000003 655.97 132.50 569.61 828.91 822.02 468.43 1077.80 450.02 972.73 610.40 849.61 735.78 1083.21 716.77
00002946 00000004 660.38 115.09 577.29 850.46 834.50 457.94 1102.04 454.35 990.45 601.22 851.01 730.32 1106.26 725.83
00002947 00000005 667.56 122.29 578.53 841.44 841.71 454.59 1110.90 458.74 996.46 602.82 853.84 726.46 1110.42 728.41
00002948 00000006 669.80 122.75 578.41 838.99 847.86 454.18 1117.26 463.15 1003.13 603.03 855.37 724.10 1112.04 730.09
00002949 00000007 671.51 121.93 577.60 838.11 850.29 451.70 1118.97 464.60 1003.47 602.18 853.72 720.10 1111.40 729.36
00002950 00000008 670.11 121.09 575.76 840.09 851.29 449.09 1118.85 465.48 1003.89 601.76 850.38 716.90 1109.27 728.87
00002951 00000009 665.47 118.45 579.23 842.03 850.56 447.82 1117.31 467.20 1001.57 600.56 845.99 714.73 1104.68 729.07
00002952 00000010 661.45 119.04 578.63 840.22 847.11 446.52 1113.48 466.84 997.45 603.31 840.05 713.86 1099.78 728.85
00002953 00000011 654.06 119.68 582.28 841.34 843.54 444.44 1109.89 465.40 993.24 604.04 832.89 712.54 1094.28 727.83
00002954 00000012 648.12 122.40 581.42 836.63 838.98 444.26 1102.69 465.14 986.81 603.34 826.46 712.46 1084.10 727.79
00002955 00000013 647.49 135.81 572.32 820.68 832.52 455.21 1085.69 463.66 980.23 605.66 824.63 713.48 1070.90 718.56
00002956 00000014 643.17 133.56 568.27 822.23 825.68 453.89 1082.04 462.84 972.71 606.41 818.09 714.22 1065.67 719.82
00002957 00000015 631.30 123.06 573.79 833.60 817.48 447.59 1080.37 465.30 962.19 607.59 801.38 713.76 1062.38 726.77
00002958 00000016 622.67 124.81 575.91 831.01 810.31 448.08 1073.99 466.32 953.23 609.35 793.03 714.95 1053.30 728.79
00002959 00000017 613.65 127.21 575.83 825.68 804.06 447.51 1066.99 465.52 946.54 608.37 786.11 714.76 1045.36 728.85
00002960 00000018 607.48 127.33 575.50 824.74 800.28 447.09 1062.52 466.21 941.38 608.26 780.78 712.29 1039.50 727.42
00002961 00000019 605.74 125.73 571.34 825.52 796.87 446.89 1058.07 466.89 935.66 608.27 778.27 711.56 1034.55 727.31
00002962 00000020 601.47 119.52 579.38 832.03 787.20 445.46 1053.76 471.52 934.35 604.28 781.18 713.05 1032.80 733.39
00002963 00000021 597.21 121.08 580.08 831.14 784.94 447.27 1051.16 473.54 932.90 605.05 779.38 714.26 1030.26 734.56
00002964 00000022 592.34 122.04 582.06 832.01 782.44 448.95 1048.71 474.67 931.32 605.36 776.32 715.28 1027.25 734.99
00002965 00000023 588.75 124.21 582.98 830.73 780.35 449.39 1045.72 475.75 928.29 605.93 774.03 714.90 1023.20 735.00
00002966 00000024 585.53 123.89 583.00 831.85 778.25 450.58 1042.84 475.29 926.59 607.94 771.60 715.32 1021.04 733.96
00002967 00000025 582.51 126.08 584.62 830.34 776.08 452.56 1039.01 477.10 922.94 609.32 768.75 714.98 1016.92 733.46
00002968 00000026 579.03 124.07 583.65 834.82 774.27 454.69 1037.40 477.44 922.06 610.82 766.73 717.03 1015.65 733.96
00002969 00000027 579.67 143.11 575.22 816.16 773.94 463.17 1025.19 473.92 921.73 615.82 774.00 721.27 1002.82 728.20
00002970 00000028 574.87 128.02 581.84 831.35 771.56 454.84 1031.44 476.73 919.29 611.64 766.06 718.96 1011.12 735.12
00002971 00000029 576.93 143.15 574.27 815.79 770.89 463.72 1020.79 474.09 917.72 616.46 771.71 721.20 999.49 727.67
00002972 00000030 576.01 141.30 573.61 817.45 768.65 464.98 1019.73 474.32 916.47 615.93 768.93 721.94 1000.26 727.50
00002973 00000031 575.65 141.94 572.52 816.66 767.01 465.37 1017.95 473.93 914.67 614.76 770.10 723.54 999.98 728.41
00002974 00000032 574.45 142.01 572.69 816.16 765.53 465.78 1016.05 473.30 913.23 616.16 769.00 724.64 997.84 728.63
00002975 00000033 573.70 141.41 572.72 815.84 763.85 466.32 1015.17 472.97 911.35 618.72 768.01 724.99 996.65 728.37
00002976 00000034 573.51 143.80 572.35 814.01 761.97 467.38 1014.02 473.21 909.30 618.16 767.49 726.09 997.31 728.65
00002977 00000035 572.46 142.65 573.09 813.91 760.13 468.35 1013.54 472.04 908.19 619.26 767.42 726.32 997.62 727.06
00002978 00000036 572.10 142.36 573.88 814.29 758.79 468.31 1012.42 471.50 906.61 619.24 766.60 726.85 996.80 727.17
00002979 00000037 570.60 130.47 576.97 827.22 757.76 463.37 1017.94 473.91 908.22 613.27 760.39 725.22 1007.89 731.98
00002980 00000038 571.73 142.24 572.73 816.99 757.37 471.23 1010.67 473.09 905.25 620.08 765.21 728.52 997.56 727.65
00002981 00000039 570.36 130.78 576.71 829.24 756.35 464.61 1016.45 473.86 907.39 615.67 758.46 726.78 1007.45 732.48
00002982 00000040 570.24 131.04 576.57 829.92 756.23 465.78 1017.00 475.51 907.51 616.56 757.77 727.22 1007.57 733.34
00002983 00000041 569.96 132.61 576.44 827.71 755.96 465.13 1015.70 474.76 906.98 616.85 758.22 727.58 1006.14 733.70
00002984 00000042 571.36 145.55 570.71 819.49 754.02 472.66 1008.51 473.96 901.04 623.12 761.74 730.90 995.99 729.65
00002985 00000043 570.24 145.49 571.75 821.17 752.47 472.25 1007.55 473.83 898.67 623.51 760.43 731.00 995.06 730.03
00002986 00000044 569.92 144.94 570.36 821.85 750.32 472.17 1006.02 473.09 896.83 623.47 759.67 731.00 994.93 729.41
00002987 00000045 570.24 145.28 568.36 821.28 749.25 472.98 1004.04 473.60 894.73 624.26 757.45 731.34 992.93 729.64
00002988 00000046 570.65 146.20 565.97 819.69 748.17 473.54 1003.26 472.98 894.45 625.38 756.32 732.80 993.53 730.13
00002989 00000047 567.83 145.35 567.53 822.09 745.74 474.33 1002.42 473.67 892.54 628.81 754.45 734.51 992.73 731.77
00002990 00000048 566.82 145.26 568.20 827.94 743.74 476.04 1000.65 473.09 891.03 631.65 753.67 737.69 992.64 733.03
00002991 00000049 564.63 145.92 568.43 828.19 741.71 477.76 998.92 473.53 890.11 634.27 752.39 739.68 993.46 733.90
00002992 00000050 565.04 146.57 567.60 830.97 739.77 478.39 998.46 474.40 887.96 635.09 747.56 739.80 994.61 734.06
00002993 00000051 564.31 147.27 565.75 831.70 736.37 479.86 995.03 473.63 885.82 636.34 746.62 743.70 992.71 736.18
00002994 00000052 563.68 149.83 564.70 831.64 734.41 480.83 991.51 472.33 884.56 636.16 745.99 746.18 992.49 736.73
00002995 00000053 560.92 147.69 566.06 836.36 731.09 481.16 989.95 472.10 882.05 636.90 746.28 749.98 991.49 740.01
00002996 00000054 560.18 145.38 564.97 840.20 727.82 480.40 987.97 471.99 878.14 635.98 746.96 754.02 987.73 744.64
00002997 00000055 559.15 146.94 563.69 839.76 726.61 479.99 986.29 472.44 876.66 635.54 747.03 755.11 985.66 746.51
00002998 00000056 559.06 144.06 562.44 841.49 725.42 479.44 985.53 473.39 874.74 634.91 747.95 756.52 982.74 749.27
00002999 00000057 557.62 145.81 563.67 840.80 724.14 479.37 984.69 473.06 874.20 635.63 747.74 758.18 981.57 750.74
00003000 00000058 555.66 143.41 561.83 845.11 724.08 478.74 983.83 474.52 874.68 635.05 749.11 761.35 977.73 755.74
00003001 00000059 553.31 136.55 566.43 849.68 728.44 476.79 985.90 474.81 877.23 626.52 745.03 762.60 978.04 759.97
00003002 00000060 555.31 142.90 561.21 848.27 721.81 478.36 981.38 473.44 870.70 635.74 751.23 764.87 972.80 758.73
00003003 00000061 554.94 144.29 562.19 847.25 721.14 479.32 980.11 473.12 868.95 637.00 751.86 765.72 970.28 758.66
00003004 00000062 554.02 145.60 562.93 847.27 720.26 478.03 980.72 472.82 868.68 637.20 751.84 767.22 969.78 761.10
00003005 00000063 553.36 144.88 565.06 848.00 719.91 478.35 979.97 473.49 867.37 637.96 752.86 768.76 967.91 762.94
00003006 00000064 553.37 144.50 564.83 847.91 719.42 478.38 980.04 473.67 866.67 637.93 752.63 768.69 968.45 762.95
00003007 00000065 554.07 146.84 563.53 846.08 719.51 478.84 979.89 474.09 866.39 638.02 752.85 768.77 968.39 762.99
00003008 00000066 554.39 145.56 563.33 847.93 718.94 478.97 978.92 473.16 865.99 637.24 752.79 768.54 968.62 761.82
00003009 00000067 555.64 146.15 563.10 846.84 719.51 478.62 979.40 472.85 866.41 637.17 752.56 768.83 968.31 762.26
00003010 00000068 555.23 147.20 563.34 845.47 719.17 478.07 979.71 472.35 866.56 637.65 752.10 768.92 968.25 762.40
00003011 00000069 555.44 146.95 564.47 846.11 719.46 478.30 980.19 472.57 866.88 637.25 752.36 768.26 969.15 761.66
00003012 00000070 552.07 139.00 568.92 848.61 723.79 475.96 982.95 473.78 871.14 629.41 746.10 767.37 969.30 764.58
00003013 00000071 552.60 137.98 568.56 849.69 724.72 475.70 983.79 473.44 872.35 628.99 746.33 766.81 970.29 764.04
00003014 00000072 552.65 137.34 569.49 851.21 724.27 475.59 983.55 473.05 871.88 628.35 745.36 766.50 971.21 763.44
00003015 00000073 553.09 138.20 569.38 849.99 723.51 475.30 983.67 472.69 871.27 628.13 743.92 765.20 972.68 761.98
00003016 00000074 553.19 139.14 569.21 847.50 722.14 474.93 983.66 472.43 870.17 628.95 741.26 763.97 974.08 760.77
00003017 00000075 553.20 138.61 569.71 846.99 721.47 475.03 984.05 472.29 869.84 629.46 739.16 761.97 975.80 758.55
00003018 00000076 552.61 137.46 569.95 847.80 721.05 474.67 984.11 471.91 869.58 629.32 738.13 761.40 975.95 758.00
00003019 00000077 555.12 145.98 566.95 842.29 716.13 478.37 980.50 471.84 863.55 636.61 741.81 759.35 974.00 751.78
00003020 00000078 554.49 145.66 567.86 841.30 716.34 478.40 980.31 472.59 863.39 638.27 737.67 755.84 973.80 749.04
00003021 00000079 553.88 146.72 566.78 839.17 716.49 478.51 980.07 472.74 864.18 638.06 737.72 755.53 973.28 748.85
00003022 00000080 553.84 147.22 566.19 840.22 716.17 478.57 979.80 473.00 863.78 638.62 736.71 755.07 973.93 748.55
00003023 00000081 553.24 149.37 565.97 837.01 715.31 478.04 979.63 473.21 862.16 639.01 735.25 754.62 973.03 748.83
00003024 00000082 553.85 150.05 563.98 836.50 716.07 478.96 978.62 474.01 862.19 639.32 735.52 754.35 973.02 748.40
00003025 00000083 553.22 150.36 563.79 836.63 715.37 478.73 978.71 473.41 862.54 638.40 734.46 754.57 973.38 748.37
00003026 00000084 553.27 151.53 563.96 835.42 714.65 478.65 978.41 473.16 861.39 639.15 735.38 754.61 972.68 748.25
00003027 00000085 552.35 150.65 564.19 837.16 714.51 478.57 978.43 472.29 862.41 637.78 735.34 754.93 972.90 747.91
00003028 00000086 552.42 150.19 564.57 836.35 714.30 478.57 978.38 472.20 861.96 637.76 736.30 754.77 973.08 747.65
00003029 00000087 550.17 137.14 570.50 846.29 719.19 475.49 981.53 473.08 865.46 629.21 733.10 756.11 974.65 752.82
00003030 00000088 551.33 137.76 568.45 845.88 719.10 475.63 981.96 472.94 865.64 628.58 734.81 759.56 972.90 756.14
00003031 00000089 551.61 137.64 568.33 846.60 719.60 475.38 981.58 473.08 865.36 628.40 734.43 759.15 972.20 756.08
00003032 00000090 554.12 145.15 565.97 844.92 714.78 478.67 978.98 471.94 861.91 636.64 738.82 760.83 971.99 753.19
00003033 00000091 555.26 140.63 565.06 850.17 715.76 476.27 977.83 470.30 862.12 634.99 739.08 759.00 972.44 752.09
00003034 00000092 556.94 139.10 564.11 851.96 719.99 478.46 976.35 475.29 862.79 632.74 740.37 756.68 971.87 752.04
00003035 00000093 557.43 129.87 566.09 857.01 721.16 476.35 977.90 473.21 863.87 626.27 741.87 753.76 972.73 748.87
00003036 00000094 558.49 128.80 572.20 854.78 726.56 464.99 987.27 470.22 868.59 614.72 744.78 744.72 971.46 747.20
00003037 00000095 562.92 126.20 571.93 852.35 732.88 456.96 990.69 466.10 871.90 605.28 748.66 736.98 968.65 743.00
00003038 00000096 567.47 122.73 572.36 845.50 740.21 449.26 994.51 461.11 877.13 597.12 752.25 726.18 970.08 734.54
00003039 00000097 570.49 121.98 576.99 834.98 747.88 440.79 999.04 457.42 880.63 591.15 757.58 713.55 971.34 725.73
00003040 00000098 575.13 123.95 580.60 830.59 755.21 433.69 1006.41 453.54 888.72 588.21 757.82 709.43 977.60 724.32
00003041 00000099 579.91 123.68 581.90 827.87 761.81 427.63 1015.40 451.68 897.06 574.25 760.09 702.78 984.14 721.45
00003042 00000100 585.05 116.60 579.68 831.57 773.73 417.67 1028.33 448.13 906.42 559.06 765.62 698.48 989.99 721.93
00003043 00000101 591.53 115.52 578.52 828.44 781.36 415.16 1036.61 449.20 915.16 557.47 768.76 692.90 994.56 719.26
00003044 00000102 596.10 114.90 583.13 817.81 788.22 412.56 1044.44 452.18 919.81 557.75 771.98 686.66 996.45 717.86
00003045 00000103 598.70 111.15 586.77 817.64 791.42 407.40 1049.79 449.27 924.08 554.40 773.52 682.79 1000.48 715.86
00003046 00000104 602.69 110.31 583.53 815.07 796.92 404.42 1054.39 447.63 929.91 550.73 774.96 677.44 1004.83 711.79
00003047 00000105 606.33 104.19 579.38 818.03 799.95 397.63 1055.84 438.84 928.83 552.22 779.72 669.39 1012.15 704.72
00003048 00000106 609.27 103.08 578.58 821.36 805.24 397.76 1059.71 439.14 935.19 551.40 783.95 669.75 1017.34 704.98
00003049 00000107 616.17 122.60 579.23 808.64 809.58 405.23 1061.00 447.56 935.08 562.07 785.40 670.22 1015.39 706.57
00003050 00000108 618.77 128.23 578.21 802.11 812.27 406.47 1063.41 449.71 937.41 563.83 787.20 671.39 1016.72 708.41
00003051 00000109 619.83 128.63 582.25 800.07 813.23 408.41 1067.33 452.80 938.87 564.26 788.02 673.68 1018.10 711.58
00003052 00000110 617.65 111.95 583.51 815.09 816.36 403.82 1068.74 450.01 941.50 554.44 790.39 674.27 1020.21 713.38
00003053 00000111 621.41 115.02 580.99 812.46 819.97 403.84 1070.12 449.01 944.23 554.76 795.37 673.81 1019.84 712.15
00003054 00000112 630.37 132.73 578.09 796.91 820.90 408.19 1072.60 451.56 944.38 564.81 798.93 675.11 1021.77 711.96
00003055 00000113 632.57 132.75 580.83 798.45 822.66 409.10 1074.85 450.52 945.77 564.76 805.60 679.17 1022.17 714.37
00003056 00000114 632.44 118.24 585.88 813.58 829.02 407.91 1075.37 447.33 950.55 554.29 814.31 682.88 1021.84 715.90
00003057 00000115 635.94 131.72 586.14 805.65 829.02 413.79 1078.84 455.35 952.61 566.80 816.51 685.68 1026.64 720.61
00003058 00000116 638.10 130.00 587.74 807.86 831.97 415.74 1082.19 458.81 955.09 572.71 817.12 686.30 1027.34 722.53
00003059 00000117 639.18 129.50 591.83 814.56 834.98 417.68 1085.56 462.16 957.71 575.34 817.15 689.32 1030.54 726.77
CROP_BBOX: 276 0 1522 1080
