Video ID: 	-wC8PyVNpIc
H: 	1080
W: 	1920
FPS: 	25.0

FRAME INDEX X0 Y0 W H [Landmarks (5 Points)]

00005600 00000000 526.20 265.29 472.96 612.05 594.84 569.30 746.16 444.33 668.24 633.21 734.65 765.56 860.26 661.25
00005601 00000001 521.89 272.56 472.31 604.73 590.42 570.55 741.29 447.31 660.96 637.63 731.30 768.01 853.48 665.16
00005602 DELETE   515.78 268.09 474.03 614.87 585.01 573.36 736.03 443.77 653.93 638.60 730.70 777.49 848.90 669.02
00005603 00000003 511.12 267.94 473.36 614.76 581.83 573.75 729.85 445.70 649.24 639.60 731.54 777.59 845.45 670.46
00005604 00000004 506.63 271.31 470.36 614.21 575.09 571.79 725.04 447.46 642.09 637.73 719.19 777.56 835.93 673.81
00005605 00000005 503.12 273.32 463.18 607.02 569.79 571.46 721.10 448.73 637.30 631.64 707.46 773.07 826.21 670.42
00005606 00000006 498.76 272.81 464.70 609.16 564.10 569.59 715.70 447.93 629.90 628.01 700.65 772.63 819.58 670.48
00005607 00000007 495.80 273.50 457.20 614.27 560.83 573.02 711.02 448.54 626.60 631.76 702.88 777.95 818.55 673.84
00005608 00000008 493.58 276.29 458.20 616.08 557.64 577.03 703.78 449.26 619.12 635.60 703.91 782.62 815.98 675.78
00005609 00000009 490.89 277.58 461.25 616.86 556.30 579.35 701.08 449.86 616.51 636.40 704.49 784.35 816.01 675.88
00005610 00000010 488.36 276.17 465.23 617.64 554.38 580.95 697.11 449.83 613.17 637.91 704.79 783.91 814.38 674.11
00005611 00000011 488.83 273.98 460.81 617.98 553.27 580.05 696.74 450.35 613.00 639.32 702.92 782.94 814.05 674.21
00005612 00000012 487.75 276.09 464.10 614.65 553.34 580.94 695.47 450.92 612.90 637.90 703.64 781.15 813.68 672.20
00005613 00000013 487.09 273.42 466.06 612.31 553.07 578.04 696.83 449.43 614.38 636.90 704.23 779.50 813.66 671.71
00005614 00000014 484.60 277.15 456.14 609.16 555.36 571.01 702.10 452.19 627.77 642.82 695.77 772.88 816.12 671.16
00005615 00000015 488.25 276.66 471.82 606.37 552.46 579.02 694.51 447.33 611.21 629.58 703.90 778.29 809.09 668.15
00005616 00000016 488.60 277.68 475.92 604.42 552.87 578.03 694.26 446.07 608.81 626.84 702.74 777.99 806.78 667.52
00005617 00000017 489.12 277.42 476.77 603.31 553.01 576.49 694.08 445.37 607.39 625.64 702.02 775.86 805.93 666.17
00005618 00000018 488.81 276.54 476.78 605.47 553.23 575.37 694.26 444.85 608.56 625.67 702.52 775.85 806.83 666.57
00005619 00000019 493.00 284.34 473.46 596.47 555.93 576.21 698.68 443.37 610.93 623.40 703.42 776.93 807.30 666.07
00005620 00000020 498.60 280.43 465.42 599.13 559.58 577.27 704.95 443.01 615.20 622.83 702.27 776.97 810.29 664.97
00005621 00000021 498.96 280.39 474.20 595.65 562.17 575.87 706.96 440.28 616.10 617.61 701.66 773.54 809.94 660.38
00005622 00000022 498.57 276.32 475.74 597.24 562.00 572.93 711.30 438.34 618.71 616.66 698.90 769.34 813.78 656.86
00005623 00000023 497.08 263.00 481.49 606.00 562.47 572.08 713.05 433.15 622.02 615.90 702.35 766.65 820.46 650.46
00005624 00000024 497.09 252.17 478.12 610.58 563.17 572.36 715.68 430.87 627.15 613.49 700.83 760.65 824.86 641.92
00005625 00000025 496.61 247.27 478.67 610.98 559.78 573.38 718.31 426.45 627.55 608.47 699.21 759.51 829.28 636.50
00005626 00000026 496.87 239.00 481.33 617.78 560.26 567.95 719.97 424.16 625.46 602.63 695.31 755.82 827.94 634.93
00005627 00000027 495.20 237.35 476.75 616.89 560.20 562.16 719.06 422.85 624.20 599.38 694.86 752.63 824.37 634.94
00005628 00000028 496.45 232.39 476.75 623.26 562.11 554.13 719.17 421.58 621.15 597.77 692.06 751.16 818.09 638.61
00005629 00000029 498.26 230.64 473.92 625.87 564.25 549.97 719.67 420.93 617.91 595.92 692.31 752.49 813.59 643.01
00005630 00000030 497.01 228.31 471.13 625.29 563.78 550.06 722.85 418.96 617.10 590.98 691.91 752.69 813.47 642.03
00005631 00000031 497.23 230.48 465.31 617.21 565.57 548.32 722.47 418.48 619.29 589.14 691.75 748.84 810.62 639.28
00005632 00000032 510.44 239.27 455.13 604.48 569.07 544.84 713.34 413.10 625.11 587.87 698.11 737.06 808.00 629.04
00005633 00000033 506.74 236.44 452.97 604.13 565.65 543.00 711.05 410.65 622.32 585.29 694.80 735.99 805.49 627.53
00005634 00000034 503.97 237.29 455.89 601.97 563.40 539.75 709.30 408.46 618.96 582.81 692.26 733.84 802.87 626.33
00005635 00000035 495.66 236.15 443.43 596.34 559.65 529.21 707.23 416.50 613.28 588.33 679.28 728.55 800.42 632.59
00005636 00000036 493.56 237.86 445.71 593.02 558.83 527.47 706.52 417.05 612.39 587.16 678.09 725.90 799.39 631.82
00005637 00000037 488.81 235.59 450.47 593.52 556.87 525.97 704.62 416.69 612.30 586.13 677.84 722.51 800.52 629.20
00005638 00000038 484.56 237.29 455.64 588.33 554.76 527.04 701.88 415.40 610.54 583.70 677.59 721.31 798.97 626.19
00005639 00000039 479.54 236.56 453.16 586.92 548.66 527.57 699.73 412.41 608.27 585.28 674.57 721.74 800.53 623.35
00005640 00000040 476.84 236.64 455.90 586.01 545.24 527.78 698.59 411.01 605.33 583.70 671.07 722.57 797.95 622.87
00005641 00000041 475.90 236.08 451.54 586.50 543.52 527.56 695.06 410.03 603.03 583.40 668.39 722.77 793.51 622.29
00005642 00000042 471.81 233.81 451.01 586.68 540.92 525.47 692.81 408.99 603.04 581.48 664.79 719.96 790.29 620.32
00005643 00000043 471.98 233.72 447.68 586.01 539.99 524.80 690.22 408.43 599.81 580.82 663.40 717.86 788.16 618.39
00005644 00000044 469.13 230.53 451.74 589.74 538.30 522.14 687.34 406.11 597.58 578.35 662.81 715.26 787.67 615.86
00005645 00000045 468.72 223.85 453.83 597.57 537.41 520.55 685.95 404.31 594.56 576.34 660.73 715.00 786.14 615.27
00005646 00000046 471.59 217.54 452.72 601.16 535.24 511.89 689.99 394.21 600.96 576.43 657.41 706.68 786.06 607.25
00005647 00000047 471.71 212.08 456.19 603.66 532.57 512.00 688.54 392.60 598.19 573.91 654.96 705.50 784.59 604.64
00005648 00000048 470.41 212.82 455.35 600.29 530.45 513.21 688.97 391.18 596.72 569.96 650.43 706.36 780.73 603.62
00005649 00000049 467.32 208.84 455.38 603.29 527.97 506.82 687.94 387.72 594.36 569.75 649.65 703.87 780.98 603.64
00005650 00000050 464.17 205.28 453.58 607.47 526.56 503.61 686.99 385.84 592.25 569.23 648.50 702.82 780.49 603.89
00005651 00000051 463.37 203.15 457.21 614.14 525.95 502.46 683.35 383.18 588.79 568.94 649.76 703.72 779.53 603.50
00005652 00000052 458.67 202.08 457.59 618.72 523.19 503.17 682.56 383.05 588.41 569.65 649.35 708.35 778.32 607.53
00005653 00000053 457.09 201.23 452.08 611.67 521.20 499.89 683.22 382.25 588.55 567.84 645.87 704.12 778.40 605.60
00005654 00000054 457.76 198.30 449.90 609.67 520.47 496.44 683.18 381.19 588.13 564.10 643.41 701.29 775.95 604.83
00005655 00000055 457.96 199.04 452.06 610.83 520.50 495.34 683.53 378.97 588.72 561.37 642.89 701.33 776.50 603.94
00005656 00000056 455.71 201.51 460.24 607.18 519.26 492.92 681.53 376.95 584.20 560.46 643.85 700.20 774.74 603.14
00005657 00000057 452.05 201.16 469.27 608.96 517.04 492.32 679.20 373.39 579.26 556.77 642.16 701.27 772.03 601.81
00005658 00000058 450.78 198.29 471.55 610.70 514.42 487.96 677.47 369.47 576.38 549.18 635.49 698.53 766.41 599.62
00005659 00000059 446.96 194.13 475.76 608.06 510.09 482.88 677.31 366.68 573.27 546.98 631.30 694.60 765.46 597.19
00005660 00000060 447.68 192.26 470.35 609.43 509.87 480.50 678.66 363.11 573.82 543.28 629.96 694.45 766.08 595.91
00005661 00000061 448.09 191.59 475.10 603.12 511.89 478.96 683.69 361.40 577.83 539.34 631.11 691.00 768.32 592.42
00005662 00000062 447.75 184.56 480.73 605.25 514.52 482.31 691.02 359.29 585.20 533.16 632.71 690.41 774.57 587.05
00005663 00000063 445.55 183.72 488.20 607.29 515.19 483.61 694.08 357.85 589.45 529.54 633.95 688.19 779.44 582.28
00005664 00000064 442.79 183.70 490.09 605.08 516.25 481.10 694.35 357.11 593.87 526.42 637.09 685.54 781.25 580.77
00005665 00000065 440.81 173.44 498.33 612.26 515.40 479.55 687.42 356.98 587.65 526.52 639.56 682.86 774.16 579.15
00005666 00000066 441.18 172.51 480.49 605.29 513.39 475.25 680.03 358.22 583.45 525.37 633.79 678.54 761.05 579.95
00005667 00000067 439.29 171.63 475.41 599.99 510.91 474.50 674.59 359.93 580.38 524.97 633.27 677.13 753.76 580.65
00005668 00000068 436.90 168.91 476.40 602.18 510.17 474.69 671.72 358.94 578.27 521.63 632.89 676.14 751.43 578.63
00005669 00000069 433.10 168.02 480.69 600.09 509.35 473.98 673.38 356.04 579.76 516.70 634.07 675.88 753.27 576.26
00005670 00000070 431.79 169.77 486.76 596.41 508.80 472.39 671.15 353.78 575.94 518.51 636.92 675.60 753.47 575.04
00005671 00000071 431.15 169.07 494.61 599.84 510.13 473.01 667.81 351.74 572.66 515.91 639.56 673.15 754.45 570.52
00005672 00000072 428.96 170.81 505.22 606.70 509.40 475.12 666.53 350.79 570.47 511.46 639.79 673.98 755.46 568.73
00005673 00000073 427.37 170.41 502.90 606.93 506.88 473.34 664.89 349.28 569.88 513.96 637.68 671.45 758.38 566.32
00005674 00000074 426.10 166.31 499.79 609.33 504.79 472.87 661.67 347.43 567.82 512.60 636.59 670.58 758.06 564.30
00005675 00000075 425.79 163.96 499.95 604.68 504.91 471.72 662.03 346.15 567.70 511.02 638.20 667.95 758.16 561.68
00005676 00000076 435.41 173.24 485.77 592.20 506.02 468.59 660.56 341.33 577.84 511.29 641.17 659.22 755.70 555.04
00005677 00000077 436.76 173.30 483.70 584.59 507.09 467.95 657.87 339.46 578.25 507.56 643.02 651.86 756.29 546.78
00005678 00000078 436.03 172.71 480.55 581.63 505.65 466.71 656.24 338.21 577.41 505.08 640.89 647.95 755.42 542.91
00005679 00000079 434.32 172.59 475.17 577.02 503.22 461.75 654.91 335.67 576.43 500.14 637.53 643.69 752.44 540.81
00005680 00000080 434.62 170.64 472.98 578.74 501.58 462.64 652.55 334.24 574.52 498.56 635.95 644.12 750.40 539.39
00005681 00000081 434.55 169.87 467.64 575.69 501.06 460.13 649.62 333.60 572.44 497.56 634.57 640.88 747.02 537.67
00005682 00000082 434.23 172.72 469.78 574.59 499.51 459.73 647.47 332.43 568.86 497.27 633.65 640.78 745.98 536.77
00005683 00000083 434.13 169.87 467.98 574.96 499.92 461.42 645.71 332.91 567.70 496.23 632.61 639.98 743.09 535.08
00005684 00000084 434.76 170.96 462.84 574.18 499.13 460.92 644.79 333.45 565.89 495.15 629.77 640.55 739.50 536.55
00005685 00000085 435.95 169.58 459.27 576.06 497.54 457.51 641.93 333.49 561.46 493.64 621.57 638.32 731.09 536.99
00005686 00000086 436.45 168.79 456.66 578.78 496.98 451.06 644.30 331.09 560.39 491.00 617.16 637.27 728.47 539.18
00005687 00000087 433.86 160.88 457.22 586.32 495.68 447.22 645.74 327.45 559.56 486.38 616.58 636.91 726.75 538.90
00005688 00000088 433.65 154.50 467.36 587.65 496.79 438.45 648.21 323.86 559.40 482.54 615.10 630.21 726.89 535.71
00005689 00000089 434.40 152.91 472.05 584.21 498.84 437.56 651.56 321.50 563.09 476.86 616.16 626.52 729.19 530.53
00005690 00000090 432.60 148.20 468.22 590.59 495.38 438.59 653.21 318.06 565.04 475.65 617.01 631.19 734.01 531.43
00005691 00000091 430.69 149.04 478.02 590.32 495.26 437.39 655.95 315.24 565.53 474.54 621.40 633.68 739.29 532.42
00005692 00000092 431.01 145.30 480.32 595.90 497.93 440.01 662.04 314.92 567.08 474.28 621.88 636.77 743.74 533.42
00005693 00000093 431.70 148.60 476.82 591.32 497.44 446.11 662.49 322.48 563.34 474.31 618.20 636.75 741.84 534.81
00005694 00000094 430.98 148.28 476.98 588.74 498.04 443.12 662.00 324.46 564.12 475.05 616.83 632.10 739.67 534.13
00005695 00000095 429.38 142.73 471.71 597.45 495.87 444.77 653.70 325.52 559.18 479.70 611.47 631.65 734.85 533.10
00005696 00000096 429.05 147.98 474.95 592.81 494.49 444.48 649.61 322.67 556.34 481.30 613.41 631.71 734.46 530.85
00005697 00000097 426.33 145.55 473.14 600.13 492.78 443.48 644.99 318.85 555.55 484.13 619.60 634.04 738.23 530.52
00005698 00000098 424.47 144.70 470.71 606.97 490.33 444.06 645.87 315.17 554.66 483.92 619.54 639.80 740.65 532.82
00005699 00000099 425.17 144.35 473.08 609.39 489.61 440.80 647.45 312.14 555.69 481.36 620.77 641.53 741.27 534.61
00005700 00000100 423.27 141.46 477.03 613.47 487.64 440.65 649.57 312.46 556.16 478.08 618.80 642.72 740.84 536.19
00005701 00000101 425.29 141.79 477.72 606.26 488.06 440.61 649.49 311.87 555.60 475.82 617.20 639.63 740.02 532.56
00005702 00000102 425.23 138.52 475.60 601.05 489.27 439.49 648.97 313.34 555.87 475.14 615.63 635.63 736.13 530.81
00005703 00000103 425.58 139.53 475.64 597.70 488.87 438.70 648.07 312.80 555.97 475.04 615.13 632.97 736.26 528.24
00005704 00000104 425.63 140.24 476.89 599.13 489.58 437.94 648.99 313.12 556.74 475.25 615.87 633.79 737.26 529.95
00005705 00000105 426.37 139.60 469.07 603.30 489.38 437.37 649.02 311.90 557.28 476.47 617.77 636.73 738.59 532.57
00005706 00000106 427.41 141.48 468.03 601.06 489.56 438.77 650.30 312.61 557.22 476.93 617.68 637.87 738.65 533.06
00005707 00000107 426.38 149.01 474.20 599.76 488.44 443.41 647.07 313.72 556.32 479.54 617.92 641.47 737.30 533.93
00005708 00000108 426.19 148.18 466.42 601.21 487.48 445.75 644.05 313.57 553.56 484.01 618.97 643.06 737.37 533.70
00005709 00000109 423.67 148.37 468.99 600.74 485.41 453.76 642.68 316.06 552.63 483.51 616.66 643.87 737.56 530.58
00005710 00000110 423.73 146.46 459.01 596.70 481.81 455.60 640.27 316.33 553.04 482.86 611.40 641.29 736.41 526.62
00005711 00000111 420.34 142.75 456.90 593.71 478.66 451.89 636.75 313.23 549.90 483.25 607.36 635.18 734.88 520.49
00005712 00000112 418.44 144.93 444.23 579.41 476.06 435.37 639.77 315.52 549.67 490.70 590.83 623.80 732.03 521.85
00005713 00000113 415.43 132.85 445.38 584.47 469.33 427.87 637.39 308.67 541.98 480.49 581.96 620.04 726.86 518.96
00005714 00000114 414.59 128.80 445.64 587.41 468.92 420.42 640.37 304.66 543.98 477.22 579.46 616.20 728.28 517.99
00005715 00000115 416.86 130.35 445.05 589.60 471.61 420.70 644.28 305.73 550.98 480.32 581.58 617.09 733.40 519.23
00005716 00000116 419.42 137.84 448.74 587.18 479.01 422.77 646.51 314.08 554.78 491.24 590.16 617.96 735.54 524.89
00005717 00000117 421.05 142.60 461.81 595.24 480.08 440.08 642.89 312.80 551.21 487.26 602.94 631.04 736.37 525.09
00005718 00000118 415.59 147.69 453.62 588.64 479.50 433.94 649.74 321.09 559.49 497.68 593.54 626.35 739.52 529.80
00005719 00000119 416.66 146.41 450.53 587.63 477.06 429.96 646.84 319.84 552.31 493.38 587.48 627.05 730.56 532.93
CROP_BBOX: 170 0 1242 1047
