Video ID: 	sap0XICOI8s
H: 	1080
W: 	1920
FPS: 	25.0

FRAME INDEX X0 Y0 W H [Landmarks (5 Points)]

00001490 00000000 1029.07 136.83 436.80 610.30 1113.55 329.47 1324.01 355.28 1179.72 464.64 1106.60 570.40 1269.71 593.11
00001491 00000001 1030.36 130.95 437.36 621.01 1114.31 330.05 1324.22 354.84 1179.70 464.24 1107.11 572.68 1269.35 594.78
00001492 00000002 1031.47 129.77 436.92 621.41 1114.28 329.36 1324.12 353.87 1178.34 463.14 1107.28 572.22 1269.77 594.10
00001493 00000003 1030.13 130.68 437.77 617.32 1112.30 329.23 1320.62 353.10 1175.35 462.91 1106.54 572.18 1267.85 593.30
00001494 00000004 1030.34 126.01 437.20 620.52 1112.46 327.73 1320.21 352.10 1175.92 463.25 1106.21 570.52 1267.60 592.13
00001495 00000005 1030.53 128.72 438.22 617.76 1112.76 327.25 1319.73 351.54 1175.72 462.80 1107.01 570.07 1267.27 591.53
00001496 00000006 1031.11 128.21 439.06 617.46 1113.74 327.46 1320.59 351.81 1174.96 463.02 1108.09 570.55 1266.97 592.12
00001497 00000007 1033.49 123.99 439.39 621.57 1115.72 327.97 1322.08 352.32 1175.97 462.29 1108.92 569.24 1267.73 590.94
00001498 00000008 1033.94 121.73 438.96 621.59 1115.80 328.22 1321.76 353.11 1176.88 462.30 1108.80 568.39 1266.72 590.69
00001499 00000009 1035.07 122.73 437.68 622.53 1116.81 328.73 1322.94 353.93 1177.34 463.15 1110.40 569.24 1268.43 591.74
00001500 00000010 1035.91 116.58 437.19 627.34 1117.57 329.51 1322.02 353.22 1176.99 462.99 1111.60 569.38 1267.50 590.66
00001501 00000011 1037.11 120.16 435.43 619.77 1116.80 327.43 1321.04 352.16 1175.12 463.01 1111.55 569.34 1266.34 591.32
00001502 00000012 1035.09 127.25 438.10 614.70 1113.00 324.83 1319.64 350.93 1171.32 462.35 1105.24 568.84 1265.05 592.06
00001503 00000013 1033.48 125.26 440.18 618.40 1110.78 323.39 1317.82 349.62 1168.21 462.53 1103.84 569.70 1264.90 592.99
00001504 00000014 1031.36 125.96 438.58 622.18 1109.37 325.27 1316.17 350.97 1167.87 464.07 1103.65 572.20 1264.45 594.96
00001505 00000015 1028.74 127.46 439.66 622.10 1107.02 328.74 1314.73 355.25 1165.89 464.93 1101.74 572.40 1263.84 595.81
00001506 00000016 1027.72 141.78 439.86 605.83 1105.97 334.00 1311.71 358.55 1167.22 465.34 1103.30 574.07 1264.39 595.22
00001507 DELETE   1025.18 147.74 442.17 600.96 1105.88 338.97 1311.98 359.64 1173.15 471.79 1106.53 579.54 1266.53 598.30
00001508 00000018 1025.81 130.97 433.38 620.74 1101.44 342.80 1307.87 357.88 1170.08 467.96 1104.21 580.16 1260.78 593.87
00001509 00000019 1014.52 131.74 439.61 628.62 1091.80 346.13 1296.87 358.16 1160.03 466.70 1098.60 585.41 1256.17 596.32
00001510 00000020 1002.83 139.82 443.77 618.81 1081.34 349.44 1291.77 361.19 1155.67 472.98 1092.43 591.79 1252.23 602.19
00001511 00000021 994.80 144.30 454.29 620.90 1075.51 354.02 1285.62 367.12 1144.68 487.07 1086.35 598.91 1246.55 610.54
00001512 00000022 990.84 144.06 444.88 624.70 1065.74 356.51 1274.54 367.19 1137.77 487.95 1078.00 602.58 1237.75 611.76
00001513 00000023 986.96 139.29 443.93 627.78 1060.88 361.92 1269.06 371.24 1131.24 493.65 1071.99 605.21 1232.69 613.21
00001514 00000024 981.51 143.44 445.71 623.12 1054.12 364.65 1263.19 375.09 1122.80 497.97 1065.03 606.08 1225.91 614.72
00001515 00000025 978.69 144.55 443.28 630.36 1048.46 367.70 1253.61 375.87 1107.51 492.80 1057.71 605.86 1225.89 611.48
00001516 00000026 975.51 142.13 445.08 644.52 1042.63 369.65 1246.31 375.95 1098.98 495.86 1052.91 611.71 1224.66 615.39
00001517 00000027 977.75 140.32 441.79 651.32 1035.18 373.40 1237.95 376.66 1094.47 502.81 1051.48 620.51 1212.81 624.33
00001518 00000028 977.47 140.29 440.71 651.69 1031.96 376.70 1234.33 377.96 1090.79 504.29 1048.13 622.65 1206.09 625.22
00001519 00000029 973.31 141.77 443.24 648.27 1028.71 377.10 1232.58 378.32 1088.97 507.13 1046.57 623.53 1204.41 626.05
00001520 00000030 971.25 139.41 443.21 648.16 1027.98 378.03 1231.79 379.23 1088.48 508.37 1045.82 622.73 1205.25 625.15
00001521 00000031 969.88 140.71 442.90 647.68 1026.11 380.68 1227.93 381.76 1085.31 510.73 1043.63 624.24 1202.23 626.66
00001522 00000032 970.42 141.70 442.45 647.68 1026.53 382.30 1226.65 384.00 1083.50 513.46 1043.77 627.00 1201.94 629.93
00001523 00000033 968.65 149.86 445.94 642.59 1027.85 384.58 1229.17 389.73 1086.95 518.14 1043.04 629.69 1199.98 635.51
00001524 00000034 971.04 157.76 444.21 636.20 1030.76 386.90 1232.31 394.12 1091.54 523.37 1044.56 630.83 1203.43 638.43
00001525 00000035 973.77 148.86 445.72 650.39 1033.45 387.94 1236.47 396.02 1094.09 525.41 1047.45 633.37 1206.83 641.51
00001526 00000036 974.56 152.83 447.92 647.97 1035.03 392.83 1239.10 399.05 1095.88 526.96 1048.88 635.90 1210.55 642.62
00001527 00000037 975.09 154.79 446.00 645.08 1035.89 392.95 1239.68 399.78 1097.53 527.59 1049.45 634.98 1211.38 642.09
00001528 00000038 974.94 156.88 446.49 644.49 1035.67 393.59 1240.31 401.38 1096.71 528.77 1048.37 635.56 1210.93 643.53
00001529 00000039 975.65 159.21 446.05 642.48 1036.13 394.64 1240.03 402.31 1096.47 530.38 1048.51 636.08 1211.76 643.89
00001530 00000040 977.54 156.42 444.42 643.60 1036.96 395.79 1240.92 403.54 1096.94 531.11 1048.98 636.71 1211.97 644.72
00001531 00000041 978.53 163.58 445.11 637.28 1038.37 396.76 1242.04 405.32 1095.80 533.24 1050.07 638.85 1211.60 647.39
00001532 00000042 978.27 171.68 446.45 635.86 1038.88 400.34 1247.39 410.44 1100.61 539.85 1050.99 643.58 1217.08 653.09
00001533 00000043 976.63 182.80 449.38 640.39 1041.25 405.91 1252.07 418.00 1105.28 550.17 1056.44 651.78 1223.65 662.82
00001534 00000044 979.34 214.79 445.03 614.30 1046.46 422.73 1252.89 431.62 1105.84 553.19 1059.37 662.07 1228.90 668.24
00001535 00000045 978.34 232.96 444.61 594.02 1044.17 426.27 1248.93 431.36 1103.48 551.50 1059.29 664.22 1225.47 667.36
00001536 00000046 971.15 205.47 451.28 623.01 1039.88 428.69 1248.11 432.60 1107.17 561.67 1060.36 671.79 1219.83 674.51
00001537 00000047 978.85 212.95 446.81 617.92 1042.14 422.78 1250.69 427.67 1101.86 550.79 1058.43 664.28 1226.86 667.55
00001538 00000048 974.21 198.16 458.87 635.33 1045.48 426.22 1260.15 432.99 1116.94 564.20 1064.64 670.53 1233.05 676.08
00001539 00000049 976.81 204.90 458.10 630.69 1048.25 428.16 1263.55 434.73 1122.16 566.58 1068.25 670.87 1238.01 676.31
00001540 00000050 980.06 204.49 458.94 631.00 1047.99 430.82 1264.16 435.59 1122.24 570.37 1069.86 671.97 1241.17 675.93
00001541 00000051 979.84 197.83 460.60 641.17 1046.44 431.43 1263.23 435.94 1119.32 571.45 1070.16 673.77 1244.99 677.47
00001542 00000052 980.72 199.17 462.66 638.83 1046.04 436.26 1258.05 435.36 1116.74 571.26 1074.31 676.07 1243.77 675.26
00001543 00000053 987.41 200.07 457.16 636.18 1041.80 432.21 1250.53 427.62 1101.26 559.85 1069.32 675.17 1242.97 669.35
00001544 00000054 979.82 188.48 466.87 646.38 1046.53 429.87 1252.72 429.34 1111.50 565.91 1075.76 676.01 1234.84 675.61
00001545 00000055 980.75 187.55 464.20 646.92 1048.75 428.44 1255.44 427.92 1114.84 562.35 1075.85 677.26 1231.28 676.93
00001546 00000056 985.73 188.07 461.78 648.15 1054.82 427.14 1263.54 427.63 1124.23 561.59 1077.78 680.16 1232.97 681.15
00001547 00000057 997.36 215.27 450.16 622.91 1065.72 429.69 1272.85 436.05 1137.06 565.37 1085.61 679.25 1238.99 685.05
00001548 00000058 1006.72 221.29 449.85 619.45 1082.77 443.40 1281.03 449.40 1149.73 576.48 1104.22 681.44 1253.63 687.07
00001549 00000059 1011.82 229.37 444.11 616.89 1083.98 447.59 1283.60 447.73 1153.68 578.53 1109.95 686.00 1257.36 686.54
00001550 00000060 1015.85 214.03 445.81 636.29 1088.57 447.87 1291.85 449.11 1157.18 581.40 1111.31 691.50 1262.52 693.45
00001551 00000061 1018.43 210.87 444.85 640.40 1091.85 447.81 1294.59 450.23 1161.27 582.38 1113.69 693.35 1263.57 696.39
00001552 00000062 1023.18 216.77 443.54 631.58 1095.06 440.19 1300.77 447.55 1165.80 579.62 1114.11 686.26 1268.27 693.38
00001553 00000063 1027.17 210.01 439.99 638.01 1099.76 436.53 1304.95 445.22 1169.73 574.86 1116.05 681.14 1274.76 689.21
00001554 00000064 1026.21 199.43 440.97 639.53 1102.26 435.42 1308.54 446.50 1176.72 573.46 1117.93 678.12 1275.75 688.28
00001555 00000065 1024.97 197.52 441.88 642.78 1103.78 433.73 1310.41 445.88 1179.27 572.42 1117.99 676.34 1277.25 687.30
00001556 00000066 1025.46 206.31 440.80 633.13 1102.45 427.56 1310.49 442.15 1178.28 569.07 1116.70 672.77 1276.33 685.55
00001557 00000067 1022.57 211.95 436.97 623.52 1095.21 425.81 1306.76 441.55 1168.68 566.27 1111.01 670.89 1271.27 684.81
00001558 00000068 1017.67 205.42 439.72 632.91 1090.77 426.63 1302.98 440.21 1165.68 565.80 1108.95 673.21 1269.01 685.18
00001559 00000069 1014.97 205.41 439.56 634.29 1089.04 426.04 1301.43 440.38 1164.16 565.16 1106.37 672.14 1267.61 684.55
00001560 00000070 1011.63 201.86 442.01 641.37 1086.95 427.60 1299.68 439.17 1161.82 564.56 1104.33 674.83 1266.57 685.14
00001561 00000071 1006.90 205.18 444.48 631.62 1082.68 428.39 1298.00 439.02 1160.63 563.08 1099.21 671.30 1266.79 680.70
00001562 00000072 1006.52 202.54 445.72 631.42 1081.72 427.32 1295.69 437.64 1157.27 562.24 1097.74 669.15 1266.12 678.20
00001563 00000073 1004.09 198.99 447.10 635.23 1080.39 424.36 1293.28 436.25 1155.58 560.84 1095.00 667.88 1262.88 678.27
00001564 00000074 1000.27 192.76 449.37 639.22 1077.38 424.00 1290.27 433.82 1153.67 558.58 1093.24 667.35 1259.67 676.03
00001565 00000075 998.08 187.07 453.31 644.08 1076.22 423.97 1287.91 431.45 1151.00 556.24 1092.42 668.52 1257.96 675.20
00001566 00000076 994.71 179.73 456.97 651.66 1073.62 424.52 1284.31 426.87 1145.94 552.84 1091.93 669.02 1256.52 671.44
00001567 00000077 991.87 180.87 460.33 653.14 1069.13 421.83 1280.65 420.70 1142.45 549.34 1090.67 669.88 1254.01 669.32
00001568 00000078 990.88 185.48 460.03 645.58 1067.65 419.96 1279.96 416.79 1142.01 545.50 1090.30 666.77 1253.79 664.46
00001569 00000079 991.08 189.98 460.03 636.15 1065.24 417.82 1276.60 412.15 1138.93 543.48 1090.86 664.20 1254.32 659.85
00001570 00000080 991.90 186.53 458.73 637.62 1065.24 415.37 1274.02 408.61 1136.52 539.84 1092.21 662.28 1252.79 657.01
00001571 00000081 989.95 185.66 460.95 639.91 1063.66 414.26 1270.66 406.66 1134.30 539.13 1091.87 662.27 1250.81 656.25
00001572 00000082 989.66 182.80 461.09 641.02 1062.10 414.11 1269.73 405.86 1133.38 539.46 1090.48 662.90 1250.52 656.27
00001573 00000083 992.55 178.40 458.40 641.19 1066.01 412.25 1271.10 405.97 1134.60 536.67 1093.06 658.90 1249.10 654.08
00001574 00000084 996.00 170.48 459.19 651.95 1069.29 411.46 1272.53 404.18 1134.67 531.76 1092.86 656.70 1251.17 651.04
00001575 00000085 998.72 166.27 458.31 655.59 1075.02 408.77 1280.33 405.00 1141.88 530.58 1094.76 653.37 1256.29 650.68
00001576 00000086 1003.95 164.67 455.97 653.77 1080.73 405.00 1284.35 403.29 1147.18 528.61 1099.87 649.79 1260.56 648.91
00001577 00000087 1008.68 169.14 452.16 649.14 1086.13 400.85 1292.02 400.51 1154.51 527.03 1103.77 646.71 1265.33 647.12
00001578 00000088 1013.34 162.24 450.50 651.34 1091.09 397.41 1299.03 396.51 1161.19 523.13 1108.93 641.95 1271.17 642.01
00001579 00000089 1019.24 163.65 446.13 642.07 1096.02 394.42 1303.69 395.20 1165.74 520.31 1112.34 637.18 1274.45 638.76
00001580 00000090 1026.45 159.22 439.63 636.83 1101.30 391.13 1307.89 393.47 1172.03 517.60 1116.54 631.61 1276.01 634.50
00001581 00000091 1025.84 156.96 443.66 641.59 1102.40 388.22 1311.11 389.31 1174.64 516.41 1118.89 630.79 1281.33 632.64
00001582 00000092 1028.88 153.92 441.80 642.31 1104.10 386.19 1312.52 387.49 1175.93 515.20 1120.22 629.71 1283.60 631.82
00001583 00000093 1031.36 156.44 440.99 638.70 1107.21 385.63 1315.98 388.67 1180.44 514.49 1122.55 628.28 1284.50 631.88
00001584 00000094 1033.80 156.74 440.80 640.21 1109.84 385.51 1319.49 389.28 1183.21 515.17 1123.84 628.39 1287.14 632.70
00001585 00000095 1034.51 152.59 442.06 646.60 1111.51 384.30 1320.75 390.67 1184.22 514.87 1122.23 627.94 1285.77 634.61
00001586 00000096 1035.72 150.91 440.59 649.36 1112.61 382.84 1321.93 390.93 1185.18 515.95 1122.21 627.13 1287.05 635.11
00001587 00000097 1036.05 148.09 442.04 651.40 1114.04 383.25 1322.88 392.85 1185.79 516.34 1121.70 627.33 1286.25 636.69
00001588 00000098 1037.91 148.84 439.94 647.37 1113.28 384.15 1320.35 393.53 1183.13 516.49 1121.29 627.06 1283.14 636.28
00001589 00000099 1038.53 157.80 440.94 636.52 1112.68 383.06 1321.14 393.21 1181.08 516.23 1120.71 625.79 1283.49 635.63
00001590 00000100 1042.11 152.87 437.58 641.59 1113.37 381.62 1318.57 392.00 1181.19 515.19 1122.36 624.57 1283.65 634.57
00001591 00000101 1044.51 155.70 435.43 637.98 1115.59 378.35 1322.08 390.68 1183.80 514.47 1123.75 623.38 1284.58 634.99
00001592 00000102 1038.41 161.75 440.29 632.55 1121.41 373.15 1329.01 388.89 1183.51 508.20 1121.58 617.35 1290.65 630.18
00001593 00000103 1042.69 156.79 439.90 637.07 1125.80 371.54 1330.90 389.08 1187.17 506.49 1125.61 614.72 1294.54 628.79
00001594 00000104 1043.28 156.61 442.47 639.33 1129.61 369.90 1334.28 387.79 1191.04 503.06 1127.63 613.53 1298.20 627.88
00001595 00000105 1044.98 156.06 443.78 640.41 1131.18 368.82 1335.37 387.94 1190.32 502.74 1128.07 612.74 1298.71 628.05
00001596 00000106 1046.28 148.95 443.04 646.53 1131.67 367.65 1336.83 388.66 1190.90 503.82 1127.62 612.60 1298.91 629.53
00001597 00000107 1049.96 143.05 443.82 656.92 1134.70 365.84 1339.31 388.88 1192.65 505.21 1131.18 614.36 1303.84 632.66
00001598 00000108 1051.28 140.54 443.69 663.11 1136.11 366.79 1342.05 390.87 1196.10 509.97 1132.64 617.15 1309.93 635.99
00001599 00000109 1052.97 143.83 443.03 663.26 1138.81 369.77 1344.38 394.00 1198.78 510.27 1133.59 618.20 1313.11 636.95
00001600 00000110 1054.78 141.01 443.33 666.28 1138.38 371.45 1342.94 394.23 1196.98 511.78 1134.81 619.93 1314.15 637.37
00001601 00000111 1058.03 141.26 442.48 660.66 1140.93 372.07 1343.01 395.46 1196.43 511.58 1140.64 617.34 1314.30 635.43
00001602 00000112 1064.07 147.94 446.10 660.33 1143.92 374.31 1348.13 393.65 1200.57 511.80 1146.70 623.96 1319.69 638.69
00001603 00000113 1066.37 142.59 457.61 664.13 1156.61 381.23 1364.53 396.28 1222.65 516.76 1159.34 627.90 1323.45 640.72
00001604 00000114 1069.17 137.73 457.92 665.90 1160.70 378.59 1369.38 394.61 1228.50 515.59 1164.03 626.59 1327.86 640.41
00001605 00000115 1072.17 130.05 457.97 671.94 1164.83 376.78 1372.12 394.59 1232.18 514.30 1165.97 623.17 1331.34 638.77
00001606 00000116 1075.48 132.79 456.05 668.10 1166.39 374.43 1374.50 392.60 1233.87 512.16 1166.87 621.47 1333.08 637.46
00001607 00000117 1075.75 128.47 456.30 673.85 1165.88 373.33 1373.38 392.07 1232.62 510.03 1165.70 621.02 1333.10 637.43
00001608 00000118 1075.19 130.93 455.54 671.80 1164.40 374.62 1370.95 391.41 1230.56 510.57 1165.71 622.72 1331.37 637.42
00001609 00000119 1074.35 124.58 457.86 678.01 1164.99 373.26 1370.25 389.58 1229.03 507.38 1165.75 621.26 1331.37 635.54
CROP_BBOX: 736 0 1765 998
