Video ID: 	cZqE0y-PlbU
H: 	1080
W: 	1920
FPS: 	25.0

FRAME INDEX X0 Y0 W H [Landmarks (5 Points)]

00004800 00000000 475.14 178.34 505.95 756.87 752.43 481.73 944.70 477.28 928.38 623.91 772.69 755.73 921.00 751.34
00004801 DELETE   481.93 181.35 509.55 760.75 763.88 484.37 956.60 482.19 942.02 626.69 783.53 760.63 931.42 758.69
00004802 DELETE   491.94 182.70 504.01 767.09 770.06 490.98 953.63 484.12 954.75 632.69 785.49 762.81 939.35 757.05
00004803 00000003 497.41 182.59 499.49 771.72 781.57 488.36 961.14 485.44 967.31 634.59 793.62 766.10 944.20 763.97
00004804 00000004 502.30 187.38 499.55 766.81 785.51 487.64 966.52 482.99 972.87 636.06 797.97 768.29 948.90 764.99
00004805 00000005 504.61 190.21 500.21 766.68 789.25 488.04 968.35 482.64 976.77 636.47 800.71 770.04 950.49 766.25
00004806 00000006 507.65 194.86 500.83 761.83 794.17 486.89 970.93 481.01 981.95 636.48 806.15 771.62 951.89 767.72
00004807 00000007 512.02 191.93 497.52 763.26 798.42 487.19 972.61 480.78 984.75 635.66 811.12 771.95 953.07 767.59
00004808 00000008 512.20 192.09 498.31 761.14 800.26 486.05 972.06 478.82 988.01 633.12 816.46 772.02 954.60 766.99
00004809 00000009 508.79 184.89 502.14 760.47 804.35 482.00 983.07 474.87 989.31 629.62 824.58 766.79 959.38 759.91
00004810 00000010 509.95 184.54 500.57 759.57 804.16 481.53 984.31 475.18 989.10 628.06 826.70 765.26 961.54 758.64
00004811 00000011 511.64 181.25 499.15 760.78 806.02 481.17 983.79 472.98 990.63 626.00 830.51 764.91 963.17 756.84
00004812 00000012 513.53 176.54 496.88 762.27 806.99 480.29 984.22 470.14 991.31 623.77 833.17 763.64 964.54 753.93
00004813 00000013 521.37 180.38 489.96 756.90 807.11 480.50 976.61 470.32 991.14 621.75 836.89 763.45 966.08 755.54
00004814 00000014 522.28 179.74 489.29 752.16 806.47 480.46 977.01 470.46 990.31 620.17 838.47 761.53 967.95 753.54
00004815 00000015 522.54 182.54 486.85 742.51 801.09 477.71 977.20 467.82 986.61 619.45 837.90 760.27 970.17 752.13
00004816 00000016 522.75 181.57 486.49 739.42 799.34 476.00 976.55 465.60 983.40 618.77 836.30 757.04 968.65 748.21
00004817 00000017 522.12 179.77 485.94 736.93 797.77 475.66 975.68 464.66 981.15 616.91 834.46 754.57 966.87 745.17
00004818 00000018 520.28 178.54 484.98 736.90 796.60 474.32 974.10 464.83 979.71 615.25 832.55 751.96 965.71 743.72
00004819 00000019 518.63 178.08 485.82 736.25 795.06 474.81 973.67 465.61 978.62 614.92 830.52 751.33 964.87 743.15
00004820 00000020 516.82 178.54 487.60 737.25 794.21 474.11 971.96 466.54 976.67 614.65 830.13 751.38 963.02 744.53
00004821 00000021 516.52 178.30 487.84 740.80 792.28 474.23 971.20 467.60 975.71 615.22 828.19 754.00 962.81 748.08
00004822 00000022 516.38 179.91 486.68 743.30 792.39 472.62 968.21 466.50 974.70 614.10 833.09 755.38 963.02 749.81
00004823 00000023 514.89 179.56 486.37 741.52 788.86 472.22 966.76 466.48 972.28 612.29 833.99 755.22 964.84 749.64
00004824 00000024 514.60 176.70 485.80 743.56 787.85 472.06 965.08 464.28 971.38 611.03 836.54 755.83 965.58 748.45
00004825 00000025 515.79 175.70 484.17 742.18 788.10 470.68 963.83 462.98 969.82 608.66 837.73 753.67 965.70 746.32
00004826 00000026 515.98 174.19 484.33 743.30 786.96 469.74 963.04 461.53 969.20 607.27 837.91 753.30 966.33 745.50
00004827 00000027 514.16 173.06 485.66 745.13 785.85 469.33 962.27 460.94 968.43 608.15 836.61 753.72 965.76 745.70
00004828 00000028 505.94 172.54 492.06 748.09 781.00 468.27 957.80 460.83 964.32 611.12 827.17 753.69 958.09 746.23
00004829 00000029 502.16 171.09 492.51 745.93 773.54 468.85 951.10 462.16 954.29 610.70 817.92 750.62 951.06 743.35
00004830 00000030 489.78 174.52 498.01 736.44 759.87 472.69 943.89 467.43 943.63 610.89 799.45 749.55 942.09 743.06
00004831 00000031 486.60 173.67 496.06 737.28 752.66 461.68 941.36 462.63 927.74 606.78 788.99 747.31 928.92 746.89
00004832 DELETE   475.35 173.97 494.32 727.70 720.30 458.32 919.99 459.58 895.11 602.56 768.88 744.53 911.36 745.13
00004833 DELETE   461.35 169.98 499.53 731.33 700.86 453.44 907.96 459.90 873.48 596.89 741.60 739.30 893.57 743.33
00004834 DELETE   454.02 165.02 504.17 735.59 685.71 449.74 897.64 459.06 852.61 592.44 719.80 732.67 876.58 738.83
00004835 00000035 450.28 159.19 501.99 738.94 676.77 446.04 891.55 457.23 839.87 588.98 701.07 724.22 865.45 732.18
00004836 00000036 447.25 155.87 499.89 731.16 671.08 443.75 887.18 456.09 832.60 587.78 692.45 721.03 856.56 729.95
00004837 00000037 444.45 155.44 500.22 727.28 664.93 442.26 883.09 455.20 823.76 583.30 688.72 720.43 851.12 729.77
00004838 00000038 442.10 153.67 501.55 736.92 663.89 437.93 881.09 455.02 819.06 580.37 681.84 716.58 846.78 729.28
00004839 00000039 440.69 155.02 503.47 737.99 663.21 438.53 879.26 456.12 818.86 580.15 682.03 717.49 845.55 730.54
00004840 00000040 441.03 152.93 501.53 734.34 663.98 438.29 880.43 454.92 821.95 579.69 680.78 713.79 848.87 726.09
00004841 00000041 442.50 153.10 500.99 729.04 664.46 438.81 882.34 454.40 824.16 579.91 683.13 713.66 851.67 725.19
00004842 00000042 443.45 153.75 500.63 729.47 665.82 439.18 883.15 454.78 825.99 580.45 684.08 713.77 853.30 725.29
00004843 00000043 442.70 154.74 502.15 735.56 666.05 439.61 883.46 455.92 826.17 581.10 682.57 714.12 854.35 726.06
00004844 00000044 442.91 156.45 503.57 741.99 665.62 439.90 882.19 457.68 824.68 583.34 678.92 715.90 851.45 729.20
00004845 00000045 444.18 156.53 502.52 742.40 667.97 440.67 883.31 458.32 827.12 584.67 679.58 715.72 852.97 728.88
00004846 00000046 444.27 158.79 502.25 737.83 667.80 442.62 883.67 457.19 828.57 585.60 683.72 717.10 855.68 727.83
00004847 00000047 445.05 158.83 500.25 733.83 666.35 444.63 883.04 456.26 827.72 586.60 686.70 719.73 855.60 728.06
00004848 00000048 441.83 159.70 503.21 729.54 663.29 444.18 881.59 456.22 824.45 586.87 683.58 719.04 853.44 727.64
00004849 00000049 439.12 160.97 504.02 727.61 661.35 443.98 879.65 457.20 822.58 586.33 682.29 719.10 850.85 728.63
00004850 00000050 439.12 160.60 503.95 727.76 660.80 444.66 879.29 456.94 821.68 587.15 682.50 720.22 850.53 728.98
00004851 00000051 439.23 160.67 503.80 725.85 660.91 445.23 879.57 457.19 821.72 586.95 683.16 720.28 850.42 728.77
00004852 00000052 439.67 160.57 503.61 725.16 661.27 445.17 880.12 456.78 822.11 586.68 684.11 720.24 851.21 728.41
00004853 00000053 438.65 161.02 503.68 723.82 660.07 445.46 879.64 456.46 822.58 586.94 684.15 720.91 851.52 728.53
00004854 00000054 440.49 160.62 502.20 723.57 659.76 447.05 879.54 457.50 821.30 587.79 683.09 721.26 851.05 728.58
00004855 00000055 442.29 161.91 501.32 723.74 661.91 447.31 881.04 455.69 824.06 588.25 687.13 722.13 853.80 727.86
00004856 00000056 443.13 160.60 501.82 730.94 666.67 447.35 885.82 457.38 831.49 589.27 691.59 724.07 857.77 731.00
00004857 00000057 443.49 161.81 504.71 729.92 670.79 454.84 887.78 460.77 840.23 587.42 701.50 725.65 865.21 729.41
00004858 00000058 447.38 166.42 504.02 722.34 678.25 456.50 894.11 463.33 848.20 588.75 707.70 725.17 871.54 729.55
00004859 00000059 451.56 164.80 505.05 721.98 686.28 453.48 900.81 464.51 853.46 588.27 713.97 724.11 875.05 732.06
00004860 00000060 452.62 164.62 503.40 723.16 685.92 449.38 901.16 462.18 852.13 587.00 713.28 723.30 874.73 732.67
00004861 00000061 452.15 162.05 503.47 728.59 686.31 447.07 900.55 461.38 851.36 587.23 711.35 723.02 872.79 733.64
00004862 00000062 452.08 162.75 506.09 727.45 689.41 444.75 901.71 459.47 854.67 584.02 716.78 721.82 876.93 732.65
00004863 00000063 452.45 160.90 508.34 726.86 692.02 442.70 902.50 455.58 859.81 580.27 721.43 717.38 882.06 726.75
00004864 00000064 450.73 158.37 510.82 733.31 692.12 440.10 901.71 452.67 861.71 579.08 715.15 712.39 882.66 721.52
00004865 00000065 448.97 156.49 513.22 744.11 690.65 437.10 899.62 450.62 859.50 577.98 706.75 710.10 879.32 720.20
00004866 00000066 448.34 156.49 512.16 748.52 687.96 438.28 898.80 451.68 857.11 579.67 699.99 709.47 877.95 719.59
00004867 00000067 447.26 159.14 512.33 747.14 685.13 440.35 897.08 452.34 854.81 581.15 698.27 711.58 876.15 720.72
00004868 00000068 447.06 161.54 510.51 739.93 681.81 442.85 896.61 453.55 851.37 583.20 701.94 716.62 875.23 724.56
00004869 00000069 441.43 157.20 506.65 739.03 671.18 443.90 887.85 453.03 840.13 582.66 699.94 720.34 867.30 726.33
00004870 00000070 435.51 153.92 504.90 729.42 657.11 442.07 876.85 450.87 821.09 576.76 687.79 715.67 854.00 721.10
00004871 00000071 426.10 150.57 505.16 717.79 643.55 437.53 865.44 446.73 805.85 571.57 672.22 707.37 841.65 713.30
00004872 00000072 427.63 146.61 500.59 714.69 641.23 431.63 862.95 439.75 803.47 565.97 670.66 702.38 841.43 707.36
00004873 00000073 427.23 144.53 503.65 709.94 644.39 430.01 866.07 436.16 808.25 563.29 677.20 699.61 847.31 702.92
00004874 00000074 428.72 143.49 503.04 710.39 646.80 428.36 867.33 433.98 811.46 558.29 682.69 697.83 851.47 700.62
00004875 00000075 422.23 139.80 505.32 717.29 642.72 425.53 863.03 433.98 808.18 560.24 673.42 696.15 845.82 701.08
00004876 00000076 422.24 146.78 499.93 704.38 639.63 421.41 849.99 428.32 794.74 564.87 663.62 694.33 829.58 699.92
00004877 00000077 421.78 145.24 499.84 707.00 637.53 420.82 848.43 427.91 792.07 563.39 659.84 693.49 827.65 699.19
00004878 00000078 422.92 147.03 499.54 707.64 640.45 421.50 850.54 429.09 795.93 564.61 663.52 695.57 828.99 701.86
00004879 00000079 417.96 143.60 505.55 714.60 637.06 423.54 857.68 437.07 800.19 563.65 660.86 696.82 833.91 706.09
00004880 00000080 424.16 151.87 499.14 706.52 639.93 428.84 850.05 435.29 794.40 570.42 664.77 701.33 828.77 706.95
00004881 00000081 423.72 149.64 500.57 712.17 639.95 429.76 849.82 438.59 792.40 572.64 661.08 702.40 826.00 709.97
00004882 00000082 420.39 145.45 504.38 720.85 640.12 427.87 860.96 443.18 800.60 566.89 662.62 700.72 832.80 711.61
00004883 00000083 425.86 145.56 504.08 726.46 647.36 427.62 863.03 443.43 807.02 564.23 671.85 702.23 837.35 713.45
00004884 00000084 425.93 146.20 505.25 730.18 647.59 426.56 863.41 443.76 806.48 564.07 670.81 703.56 836.09 715.93
00004885 00000085 423.86 146.92 504.88 729.59 645.37 423.80 861.21 442.96 802.69 563.90 664.81 700.75 831.10 714.86
00004886 00000086 422.04 144.33 505.55 725.91 642.25 420.68 858.89 438.00 799.09 561.46 662.66 697.45 830.21 710.04
00004887 00000087 422.09 142.78 505.98 724.05 646.30 418.86 862.14 437.48 805.84 559.20 666.55 693.78 835.54 707.40
00004888 00000088 425.82 139.80 506.97 725.03 650.45 417.64 868.73 436.70 811.65 555.24 670.93 691.39 843.50 705.43
00004889 00000089 425.93 138.31 507.51 719.89 650.55 417.86 871.21 437.54 812.65 556.94 668.73 689.66 843.98 704.39
00004890 00000090 424.83 138.85 507.57 717.77 650.06 418.59 868.32 439.20 808.81 559.69 665.03 687.83 838.65 703.47
00004891 00000091 424.19 139.54 506.44 720.10 646.86 418.39 865.36 438.97 804.54 562.28 658.56 688.49 834.39 704.10
00004892 00000092 425.33 143.31 505.37 720.70 648.18 419.96 866.67 441.63 806.62 563.90 661.26 691.57 835.04 707.97
00004893 00000093 424.61 143.84 508.38 722.86 651.28 423.52 870.33 446.99 811.39 566.76 664.26 694.14 837.98 711.85
00004894 00000094 425.91 143.87 508.30 726.43 650.95 424.60 870.67 447.81 810.86 567.93 664.58 697.47 837.90 714.95
00004895 00000095 425.39 145.12 509.32 729.20 649.88 424.70 867.80 448.55 806.64 569.30 661.08 698.23 833.00 716.38
00004896 00000096 426.52 147.97 507.47 722.64 648.51 426.75 866.79 449.51 803.82 571.56 659.12 698.47 830.53 715.86
00004897 00000097 428.01 148.66 507.20 719.14 648.38 429.42 868.47 450.36 805.33 572.48 663.00 701.29 833.29 717.25
00004898 00000098 429.11 149.64 506.70 719.02 652.54 430.06 872.26 451.13 809.61 572.91 669.80 704.50 836.46 720.44
00004899 00000099 429.38 149.13 507.47 718.19 653.25 430.03 874.25 450.24 811.81 572.98 671.03 703.68 839.83 718.85
00004900 00000100 429.07 148.51 507.16 719.58 653.20 430.37 873.36 450.28 811.21 573.32 670.08 703.62 838.84 718.64
00004901 00000101 428.99 148.69 507.14 720.28 651.05 430.87 872.79 451.00 809.31 574.45 666.11 703.84 837.37 719.10
00004902 00000102 429.86 150.30 507.74 726.08 653.17 429.89 873.80 451.73 810.53 574.13 666.41 705.07 836.92 721.72
00004903 00000103 432.29 151.66 508.76 735.23 656.74 430.13 875.39 454.32 813.11 574.74 667.32 708.37 838.17 726.80
00004904 00000104 431.65 152.82 510.29 738.77 656.83 431.98 875.44 455.33 814.60 575.59 667.89 710.10 840.68 727.71
00004905 00000105 432.11 154.26 507.47 734.53 653.70 435.29 873.58 454.99 811.41 576.55 668.14 711.36 840.49 726.20
00004906 00000106 430.25 156.43 505.78 727.37 650.02 439.79 868.79 456.32 806.34 578.92 667.34 712.40 837.18 724.69
00004907 00000107 427.84 157.77 507.01 721.95 646.16 442.41 865.46 456.01 801.97 580.87 666.36 713.48 834.41 723.44
00004908 00000108 426.89 158.16 505.92 721.21 643.78 443.33 861.75 456.46 798.59 581.72 664.33 713.99 830.47 723.69
CROP_BBOX: 35 0 1209 1080
