Video ID: 	9HlFeZjFCe8
H: 	1080
W: 	1920
FPS: 	25.0

FRAME INDEX X0 Y0 W H [Landmarks (5 Points)]

00000062 00000000 782.32 151.90 408.12 564.20 883.28 359.40 1086.79 378.29 974.52 455.98 889.18 571.80 1046.68 586.88
00000063 00000001 771.11 151.05 417.84 574.62 875.74 364.01 1082.41 381.94 969.83 468.26 881.69 580.54 1043.02 594.52
00000064 DELETE   764.15 155.65 415.73 582.32 870.29 368.87 1078.22 385.22 967.54 479.67 873.14 586.80 1036.31 600.24
00000065 00000003 756.23 157.25 424.80 590.26 863.27 376.66 1074.39 392.68 959.82 489.36 865.07 596.21 1032.01 609.62
00000066 00000004 748.52 158.90 428.22 587.47 858.78 381.81 1072.60 396.36 958.85 494.13 861.49 601.23 1031.62 613.15
00000067 00000005 741.87 153.81 439.67 591.67 853.58 383.95 1071.80 394.43 951.95 500.65 859.19 601.87 1031.97 611.45
00000068 00000006 739.11 149.80 441.32 599.14 853.02 384.57 1072.61 394.31 954.28 502.81 858.09 602.21 1034.92 611.27
00000069 00000007 736.02 148.52 445.49 606.48 853.51 386.15 1075.98 395.61 959.25 506.36 858.10 607.28 1036.95 616.13
00000070 00000008 733.62 153.30 454.68 615.76 853.02 388.84 1081.94 399.43 961.59 517.20 858.45 618.29 1041.58 628.00
00000071 00000009 738.16 156.21 450.15 619.86 852.98 389.53 1083.60 405.82 963.26 523.73 857.45 619.63 1044.92 633.05
00000072 00000010 732.12 158.65 453.34 626.85 852.43 394.01 1081.04 410.92 961.66 531.06 858.01 623.06 1043.69 637.19
00000073 00000011 723.48 161.42 460.12 648.24 849.19 400.55 1075.15 413.43 962.65 537.27 862.23 637.21 1042.85 648.63
00000074 00000012 720.56 162.28 461.92 664.90 845.49 404.89 1074.17 415.95 961.84 543.54 856.81 647.82 1042.91 658.01
00000075 00000013 722.43 160.62 461.09 662.66 844.09 407.13 1073.02 415.68 960.54 544.23 857.15 646.15 1046.20 653.91
00000076 00000014 727.92 157.73 459.12 646.63 844.50 405.85 1076.51 414.92 960.33 542.13 858.50 635.21 1052.06 643.00
00000077 00000015 735.43 164.33 463.85 632.44 850.29 406.72 1084.11 416.50 964.47 544.01 862.92 632.35 1058.09 640.69
00000078 00000016 741.78 164.42 468.26 632.86 855.68 409.53 1087.65 419.64 966.94 547.40 868.70 635.99 1060.90 644.48
00000079 00000017 751.77 166.57 465.17 632.39 865.71 411.11 1095.34 423.60 972.61 548.66 877.63 639.23 1068.25 649.58
00000080 00000018 757.46 163.71 465.94 638.30 873.10 409.43 1103.33 423.83 979.63 545.80 881.05 637.89 1076.22 649.66
00000081 00000019 762.22 163.70 467.43 636.80 881.35 406.73 1110.36 421.30 987.98 541.97 885.88 633.55 1084.98 645.19
00000082 00000020 766.21 156.86 472.93 640.43 888.22 401.97 1119.37 419.21 993.88 540.37 889.52 629.42 1092.37 643.07
00000083 00000021 766.48 155.58 476.27 643.72 890.50 401.98 1121.75 419.74 996.75 538.71 891.97 629.12 1094.36 643.19
00000084 00000022 766.78 157.01 480.31 646.87 891.44 401.53 1124.61 420.06 998.57 539.96 892.05 630.13 1097.40 644.86
00000085 00000023 765.13 160.03 481.02 647.45 890.17 404.84 1123.91 420.59 998.75 541.40 892.23 630.92 1101.54 643.37
00000086 00000024 764.46 160.50 483.11 650.71 890.52 407.61 1126.19 422.87 1001.39 547.44 893.06 635.11 1104.42 647.07
00000087 00000025 761.92 162.24 484.29 649.13 888.13 410.36 1127.61 424.10 1002.15 549.66 892.94 638.38 1107.07 649.04
00000088 00000026 761.58 160.94 484.99 654.21 889.36 412.54 1128.70 426.07 1005.86 552.93 896.32 643.97 1105.98 654.34
00000089 00000027 761.90 159.22 488.02 659.80 888.60 414.95 1130.18 427.15 1006.85 556.74 900.34 652.48 1105.85 661.66
00000090 00000028 761.24 159.51 490.31 662.93 888.18 415.60 1128.59 425.36 1006.86 559.45 904.40 655.99 1105.29 663.07
00000091 00000029 762.31 150.25 492.00 686.81 886.98 410.11 1133.24 421.67 1007.27 560.67 902.38 657.27 1100.73 667.40
00000092 00000030 761.81 145.17 498.75 703.28 890.60 407.90 1135.45 422.47 1009.50 558.02 902.35 662.41 1096.83 675.38
00000093 00000031 761.52 143.79 511.05 717.91 898.19 408.12 1139.19 416.69 1013.07 561.89 916.98 668.16 1100.40 676.07
00000094 00000032 762.63 146.36 503.09 705.46 889.79 412.62 1137.70 425.19 1010.18 565.43 903.59 668.58 1102.35 679.84
00000095 00000033 762.54 145.85 499.64 704.91 887.62 417.56 1138.28 429.69 1007.88 571.65 899.25 667.87 1105.97 678.48
00000096 DELETE   765.48 153.44 498.99 705.85 889.75 436.17 1129.89 446.16 999.30 572.44 893.73 675.93 1099.75 684.71
00000097 00000035 763.30 150.64 507.46 724.47 881.38 436.14 1128.71 448.92 990.04 581.19 891.01 689.49 1095.64 700.89
00000098 00000036 757.97 150.48 515.40 731.82 882.11 440.47 1122.19 447.54 986.91 586.34 899.98 693.65 1085.63 699.74
00000099 00000037 758.97 151.18 509.14 737.72 867.89 440.01 1123.62 453.83 981.72 596.62 882.46 704.36 1093.64 716.55
00000100 00000038 758.48 155.94 502.88 730.58 862.10 444.67 1118.90 457.53 977.36 606.62 880.03 710.16 1091.74 721.45
00000101 00000039 749.05 163.97 513.09 711.29 856.68 445.47 1118.19 456.63 973.54 604.39 880.18 712.16 1084.64 720.80
00000102 00000040 748.50 163.98 512.08 713.27 856.24 445.70 1118.15 457.19 974.00 607.78 879.46 713.27 1085.20 722.19
00000103 00000041 746.61 158.52 512.96 727.80 854.70 441.94 1116.14 454.88 971.07 606.54 878.68 717.42 1079.33 727.63
00000104 00000042 748.04 155.86 513.41 756.20 858.23 440.79 1110.61 452.33 968.47 607.58 878.63 720.27 1074.30 730.72
00000105 00000043 744.16 151.69 518.06 769.01 855.89 438.75 1108.58 446.48 966.81 605.99 878.10 727.03 1075.11 734.33
00000106 00000044 743.37 149.07 520.91 764.17 853.03 436.08 1106.66 443.50 961.97 601.42 875.14 719.83 1075.34 726.86
00000107 00000045 740.11 143.87 521.23 752.28 849.20 433.90 1109.09 441.83 960.91 598.56 868.22 704.83 1080.58 711.89
00000108 00000046 747.74 135.28 524.59 749.58 849.85 429.20 1113.26 435.80 962.79 591.80 872.08 695.26 1094.05 700.88
00000109 DELETE   749.53 124.29 535.25 744.06 854.74 417.39 1117.53 422.49 967.28 575.29 878.29 682.24 1095.81 686.43
00000110 00000048 754.33 104.47 535.39 750.23 860.91 399.03 1124.68 404.55 974.15 552.75 883.21 669.90 1098.00 674.87
00000111 DELETE   759.13 85.49 529.89 757.06 869.73 379.40 1131.12 390.03 981.73 528.21 882.05 649.01 1096.93 658.78
00000112 00000050 756.75 71.14 552.38 760.79 883.68 372.24 1140.16 386.26 986.61 512.53 893.58 634.68 1097.60 647.00
00000113 00000051 764.32 76.39 534.79 747.59 879.11 374.72 1136.40 390.41 983.82 507.27 882.48 636.52 1099.81 650.46
00000114 00000052 763.96 73.78 537.21 751.35 877.60 379.12 1137.30 389.75 980.52 496.13 879.12 638.06 1098.72 647.79
00000115 DELETE   751.97 61.12 556.63 769.54 878.99 374.38 1133.88 382.66 976.08 489.13 886.56 633.64 1089.66 641.37
00000116 00000054 751.57 63.08 553.88 768.41 875.54 367.52 1134.20 377.53 975.76 490.32 884.63 637.42 1085.81 647.18
00000117 00000055 750.78 65.63 548.89 761.48 871.29 371.56 1126.96 380.44 970.08 497.35 881.89 636.42 1079.45 645.31
00000118 00000056 750.90 76.77 534.44 748.64 860.95 371.23 1124.75 388.49 964.26 511.17 863.47 644.18 1077.47 658.79
00000119 00000057 743.32 80.30 535.58 757.70 852.09 377.01 1112.73 384.98 956.97 516.58 866.81 652.68 1066.83 660.87
00000120 00000058 736.60 85.91 525.67 753.76 840.83 383.51 1103.42 387.11 950.02 524.05 859.63 660.42 1063.16 664.68
00000121 00000059 727.43 89.32 527.98 751.32 830.56 391.16 1095.44 392.23 941.65 531.01 850.17 667.59 1056.82 669.68
00000122 00000060 722.17 97.05 530.49 746.35 825.02 396.93 1090.26 396.97 935.82 537.60 847.66 673.03 1055.40 674.04
00000123 00000061 717.48 100.35 530.51 749.96 819.16 396.53 1088.43 404.97 934.82 546.93 842.21 673.96 1055.07 682.48
00000124 00000062 711.77 109.08 536.25 747.50 823.35 404.25 1086.52 407.61 938.56 551.89 848.40 678.71 1053.69 680.79
00000125 00000063 712.20 111.97 532.41 750.29 815.72 406.24 1084.50 410.09 935.55 559.22 844.80 683.18 1058.74 687.73
00000126 00000064 714.47 122.49 533.16 746.75 824.22 410.51 1087.12 412.76 942.70 564.93 853.48 685.62 1060.10 686.69
00000127 00000065 717.64 128.75 527.48 742.46 827.26 418.09 1089.90 419.56 948.36 572.53 856.19 692.61 1064.81 693.21
00000128 00000066 724.73 133.69 523.00 735.71 833.60 422.47 1095.45 425.06 954.20 575.99 861.73 696.16 1069.71 697.63
00000129 00000067 729.72 134.77 522.85 733.27 839.24 423.16 1101.46 427.34 958.58 575.84 866.95 695.64 1072.32 698.11
00000130 00000068 742.76 128.28 515.00 742.90 844.90 426.67 1104.17 420.82 962.34 574.35 876.42 692.15 1089.75 688.07
00000131 00000069 748.98 124.15 511.57 735.54 846.87 421.46 1105.27 415.03 963.25 568.18 880.32 685.82 1088.01 681.36
00000132 00000070 752.84 122.01 516.29 731.76 847.77 423.44 1105.26 413.89 963.05 564.51 885.74 687.47 1088.98 680.41
00000133 00000071 754.56 120.46 509.99 737.80 851.80 427.48 1101.12 415.52 963.22 561.88 890.97 690.04 1085.77 681.25
00000134 00000072 754.37 120.40 509.23 747.21 848.75 430.05 1096.69 414.44 959.21 563.15 889.99 694.77 1085.42 683.13
00000135 00000073 754.16 125.22 509.32 750.59 847.25 432.88 1096.00 415.98 957.97 564.91 890.25 701.03 1084.19 688.62
00000136 00000074 746.45 132.36 522.13 754.97 849.26 437.91 1098.71 422.23 955.92 568.11 888.14 704.55 1080.68 691.40
00000137 00000075 756.60 131.85 511.04 756.94 847.15 445.41 1096.03 424.99 954.47 573.06 887.90 710.51 1093.16 694.49
00000138 00000076 759.94 135.37 514.75 757.48 849.40 449.49 1099.54 428.95 956.62 578.88 890.56 715.61 1098.88 699.44
00000139 00000077 763.23 137.36 517.23 757.27 852.71 450.31 1103.23 430.54 960.84 579.80 895.07 716.45 1103.24 701.07
00000140 00000078 769.44 142.81 509.81 751.79 858.32 452.39 1107.33 432.99 966.98 579.92 899.99 716.25 1108.01 701.45
00000141 00000079 772.42 143.85 508.42 753.09 863.25 457.89 1109.30 439.31 973.09 576.57 904.77 716.82 1109.57 702.59
00000142 00000080 774.46 145.19 508.82 763.52 867.98 457.61 1111.87 441.73 976.47 576.82 908.19 719.11 1112.45 706.85
00000143 00000081 775.14 145.31 512.93 772.57 872.57 456.65 1117.07 441.39 983.43 578.74 914.74 724.56 1116.48 713.09
00000144 00000082 772.55 148.45 527.81 767.52 881.85 464.26 1119.70 441.30 983.90 584.18 928.11 727.01 1111.31 707.26
00000145 00000083 775.44 150.11 528.55 762.34 873.66 462.95 1124.18 445.89 983.93 588.03 921.65 728.01 1118.73 714.80
00000146 00000084 783.26 152.22 535.20 761.04 880.47 469.60 1133.98 452.37 993.25 592.19 926.90 731.91 1136.68 718.74
00000147 DELETE   789.61 151.18 530.63 761.80 882.77 464.17 1140.44 448.59 999.37 598.66 928.30 732.29 1143.40 720.65
00000148 00000086 791.66 155.09 528.91 746.28 883.11 464.63 1141.18 446.57 999.62 599.84 935.07 729.48 1140.73 715.05
00000149 00000087 795.40 155.15 532.98 741.79 889.21 462.86 1148.33 447.39 1003.57 601.74 939.98 729.06 1141.59 716.76
00000150 00000088 799.33 149.98 536.06 742.58 891.80 461.12 1153.31 446.83 1004.44 600.55 942.07 726.39 1144.85 714.85
00000151 00000089 799.36 149.27 540.45 748.22 895.93 464.69 1157.65 448.42 1004.60 601.39 941.09 727.05 1143.65 713.47
00000152 00000090 801.11 145.04 539.01 752.21 897.94 463.78 1159.93 446.87 1007.15 600.13 942.61 726.11 1146.88 712.03
00000153 00000091 802.62 138.96 541.96 761.39 898.60 463.06 1161.62 444.81 1007.84 597.34 944.26 726.81 1149.18 711.64
00000154 00000092 801.94 137.43 541.85 764.54 898.39 461.50 1160.33 442.85 1007.11 595.41 944.25 725.36 1150.26 709.74
00000155 00000093 802.15 136.96 541.25 765.59 897.63 461.17 1159.73 441.16 1006.62 594.16 944.18 726.95 1148.86 710.33
00000156 00000094 801.63 138.59 539.63 764.51 895.84 461.30 1158.87 440.90 1005.12 593.05 942.08 727.27 1147.20 710.41
00000157 00000095 802.33 139.40 539.20 763.40 896.59 460.72 1157.90 440.69 1005.04 593.81 943.09 726.40 1146.57 709.78
00000158 00000096 802.56 144.10 535.45 761.37 897.35 460.98 1155.58 443.35 1004.56 597.06 943.45 726.81 1145.85 712.00
00000159 00000097 802.50 146.89 536.49 760.63 899.73 462.48 1155.25 444.46 1006.68 596.94 945.56 726.58 1147.15 711.30
00000160 00000098 803.93 146.30 536.37 760.09 901.96 462.34 1157.61 444.09 1009.48 597.57 947.95 724.94 1150.46 709.34
00000161 00000099 804.08 146.91 539.50 761.13 904.14 462.21 1160.69 443.33 1012.12 596.82 949.38 724.12 1153.65 708.04
00000162 00000100 805.84 149.84 538.46 759.11 905.44 462.75 1160.69 444.21 1012.69 598.39 951.48 724.89 1155.03 709.11
00000163 00000101 806.71 149.91 537.70 760.05 905.61 462.53 1160.48 443.65 1012.79 598.13 951.63 724.24 1155.69 708.11
00000164 00000102 807.76 150.75 539.70 758.35 905.17 464.02 1162.60 446.53 1012.12 600.96 951.09 723.77 1157.49 708.76
00000165 00000103 812.34 151.61 524.72 754.69 909.39 467.33 1159.26 449.06 1012.87 598.93 951.16 722.63 1154.15 706.85
00000166 00000104 810.21 145.72 527.88 758.49 905.27 463.50 1158.94 444.14 1010.59 596.81 950.37 724.03 1151.46 707.59
00000167 00000105 803.73 139.28 544.79 770.28 902.32 450.21 1165.89 432.79 1012.59 592.09 948.67 723.92 1151.65 709.43
00000168 00000106 802.21 136.42 544.62 777.20 902.43 441.45 1161.97 424.13 1012.30 587.62 949.59 723.58 1150.25 709.11
00000169 00000107 802.48 133.09 546.53 768.84 900.74 440.07 1164.12 423.36 1011.06 586.16 946.04 719.56 1148.62 705.74
00000170 00000108 804.11 136.32 541.37 757.31 899.97 439.56 1164.00 423.67 1009.96 583.09 942.08 713.02 1148.33 699.72
00000171 00000109 809.86 128.77 528.38 756.45 895.71 439.33 1159.06 422.44 1007.01 581.09 939.66 710.11 1153.33 696.70
00000172 00000110 806.95 128.77 526.25 747.90 891.09 436.92 1156.49 420.08 1004.40 578.95 935.25 704.42 1152.48 690.83
00000173 00000111 805.33 127.70 525.96 747.98 890.41 435.75 1154.04 417.92 1002.47 575.01 932.46 702.58 1150.69 688.02
00000174 00000112 804.95 132.41 525.30 742.40 885.87 426.78 1151.03 414.02 1001.09 576.52 930.58 703.94 1145.15 694.69
00000175 00000113 802.72 132.24 520.86 739.08 882.04 425.40 1147.93 414.62 997.96 577.59 924.83 701.95 1140.84 694.22
00000176 00000114 798.35 133.70 520.15 735.88 876.91 425.48 1144.19 414.98 994.58 579.06 920.04 701.98 1136.96 694.28
00000177 00000115 792.50 128.57 523.24 746.21 873.36 423.53 1139.62 416.04 989.27 578.75 912.62 703.54 1124.36 698.75
00000178 00000116 786.23 132.51 524.12 752.33 866.69 424.09 1131.15 415.64 981.81 582.59 910.90 710.91 1118.13 705.63
00000179 00000117 777.05 138.05 536.18 760.71 863.31 427.97 1127.31 417.76 979.95 586.34 911.63 720.04 1112.52 713.32
00000180 00000118 770.02 135.99 544.53 773.07 859.47 428.96 1121.56 417.25 973.72 583.69 911.21 726.99 1106.17 719.04
00000181 00000119 767.42 134.66 537.13 785.84 854.99 428.21 1112.76 414.96 966.06 579.06 907.22 733.16 1093.64 723.89
00000182 00000120 764.95 134.51 527.03 786.64 851.82 429.84 1106.40 415.21 962.25 575.86 905.72 737.23 1085.12 727.11
00000183 00000121 760.59 135.64 530.79 781.37 848.29 430.92 1102.24 414.03 958.82 574.85 902.86 733.91 1082.95 721.81
00000184 00000122 751.08 132.95 532.68 771.51 843.27 429.90 1100.06 413.75 952.32 580.26 894.34 726.42 1077.14 714.08
00000185 00000123 750.94 131.88 534.33 768.01 843.06 426.69 1097.86 411.66 948.54 575.44 889.76 719.19 1075.28 707.68
00000186 00000124 753.57 124.51 527.70 776.55 840.16 425.23 1094.14 409.61 945.53 570.66 887.57 713.26 1079.84 701.87
00000187 00000125 747.49 119.85 529.60 766.62 835.91 423.44 1092.22 405.68 944.46 567.49 884.35 707.16 1078.83 693.97
00000188 00000126 745.64 118.32 530.59 752.81 833.14 421.77 1092.44 403.97 941.56 559.88 877.11 696.26 1080.86 682.57
00000189 00000127 741.48 119.11 535.33 748.12 831.16 420.97 1091.74 403.22 940.62 558.96 875.67 693.21 1081.86 679.11
00000190 00000128 740.08 117.77 532.26 752.65 831.32 420.45 1090.62 403.14 941.12 558.72 874.76 693.38 1081.20 679.62
00000191 00000129 739.98 117.09 534.09 754.62 832.75 420.45 1092.70 402.75 943.79 561.19 877.54 694.15 1085.40 680.05
00000192 00000130 742.42 117.59 536.68 754.26 836.01 420.19 1096.29 403.29 949.38 564.58 883.33 694.30 1090.62 680.90
00000193 00000131 745.77 118.50 536.41 754.62 841.48 422.30 1106.45 408.41 959.56 569.46 886.07 697.84 1097.77 687.19
00000194 00000132 746.48 122.51 542.67 761.16 845.01 427.01 1115.06 414.26 965.79 574.60 887.78 702.86 1108.34 693.05
00000195 00000133 747.26 128.22 543.75 766.97 848.49 432.07 1116.82 421.49 970.09 585.33 891.45 711.69 1108.69 703.69
00000196 00000134 744.71 138.82 541.10 766.26 849.85 436.42 1113.79 425.25 968.26 591.00 890.25 720.72 1097.23 712.22
00000197 00000135 745.83 142.28 541.61 769.63 851.22 439.03 1111.71 428.47 967.88 595.38 892.84 725.87 1096.00 718.03
00000198 00000136 753.69 142.10 539.44 777.60 853.57 438.99 1116.56 432.51 971.36 597.05 896.93 729.38 1105.27 724.94
00000199 00000137 754.35 145.14 537.03 775.24 853.81 438.67 1115.79 433.55 971.71 598.50 897.10 730.86 1103.19 727.54
00000200 00000138 755.51 146.25 539.77 773.48 854.55 438.38 1118.12 434.31 972.54 598.94 898.04 730.98 1104.68 728.62
00000201 00000139 756.57 144.19 542.05 768.26 853.35 439.74 1116.85 435.40 968.25 597.46 896.36 729.94 1101.07 727.39
00000202 00000140 758.23 143.47 538.12 761.13 851.09 439.54 1116.20 434.34 966.05 599.33 892.99 727.39 1100.73 724.15
00000203 00000141 758.15 143.01 536.57 759.75 848.22 437.34 1113.64 432.61 962.34 598.31 890.30 725.74 1096.03 722.89
00000204 00000142 757.99 138.28 535.96 764.93 846.15 435.61 1111.64 428.92 958.80 594.57 887.84 724.05 1095.29 719.57
00000205 00000143 756.03 136.74 533.19 764.01 843.95 435.35 1106.87 427.58 954.73 592.23 886.86 722.42 1091.97 717.07
00000206 00000144 754.94 135.49 532.02 770.37 842.69 436.33 1106.42 426.93 954.69 592.70 886.79 723.89 1093.82 717.14
00000207 00000145 752.91 136.90 532.63 774.24 843.53 437.86 1104.24 428.06 955.80 593.72 888.70 726.77 1091.98 719.60
00000208 00000146 753.12 138.40 531.20 773.93 845.48 439.90 1105.37 429.13 957.78 592.23 890.36 728.65 1092.55 720.79
00000209 00000147 755.58 142.42 523.27 770.38 848.32 455.06 1102.72 442.02 956.84 591.44 887.57 730.08 1093.63 720.29
00000210 00000148 755.10 140.98 524.24 767.93 848.27 453.85 1104.33 437.46 959.69 589.46 890.32 727.72 1099.07 715.16
00000211 00000149 753.72 138.50 537.89 770.13 846.43 448.15 1108.84 432.36 959.44 590.96 891.10 726.10 1104.32 714.09
00000212 00000150 753.78 137.58 537.71 772.43 847.78 444.41 1107.33 429.17 961.86 592.26 894.41 725.33 1104.39 713.70
00000213 00000151 754.85 139.91 536.38 773.14 849.05 443.19 1107.50 429.38 963.43 594.83 896.06 726.71 1104.12 716.13
00000214 00000152 752.00 146.63 539.97 764.29 849.82 445.01 1106.75 430.81 961.90 597.17 894.57 724.98 1096.94 713.76
00000215 00000153 756.31 150.35 535.93 760.40 852.56 445.64 1109.59 434.29 964.30 599.84 895.04 723.39 1098.64 714.52
00000216 00000154 765.28 147.86 531.34 766.58 856.16 444.55 1114.47 436.00 970.05 603.50 899.95 723.94 1113.85 717.51
00000217 00000155 766.99 148.56 530.09 763.16 858.14 443.06 1116.71 434.67 972.66 601.95 901.83 720.47 1117.49 714.29
00000218 00000156 766.62 147.11 533.01 764.02 858.72 443.27 1118.23 435.33 972.50 601.40 901.19 719.78 1118.30 714.02
00000219 00000157 767.75 147.86 531.22 761.68 860.13 443.15 1119.35 434.93 973.38 598.52 901.58 717.53 1119.95 711.51
00000220 00000158 767.40 147.36 532.03 763.34 859.97 441.63 1119.77 433.71 971.65 595.19 899.39 715.04 1120.88 709.16
00000221 00000159 766.19 146.77 532.82 763.58 860.41 440.47 1121.14 432.70 972.13 592.45 898.35 713.58 1122.23 707.84
00000222 00000160 763.33 141.67 530.89 765.25 861.89 436.48 1120.17 428.38 972.23 588.17 894.98 706.46 1112.89 699.65
00000223 00000161 769.95 141.28 532.25 758.67 865.87 435.09 1129.04 431.53 981.65 589.34 898.54 706.75 1121.96 704.68
00000224 00000162 773.99 134.91 532.07 757.87 873.16 427.36 1142.31 427.73 994.37 585.04 901.62 701.45 1128.38 702.77
00000225 00000163 778.84 130.81 538.79 761.64 884.37 422.57 1155.04 429.40 1004.72 581.12 908.55 701.47 1131.29 708.46
00000226 00000164 784.75 129.42 533.10 754.57 892.26 421.72 1164.45 429.17 1014.50 581.68 914.97 700.89 1139.13 708.47
00000227 00000165 790.56 132.34 530.19 745.53 901.85 422.26 1173.10 432.59 1022.28 581.02 920.58 698.25 1143.40 708.33
00000228 00000166 791.82 137.29 527.98 739.42 907.13 421.34 1176.60 434.82 1026.16 581.42 919.25 694.76 1143.03 707.53
00000229 00000167 789.93 134.86 533.67 741.65 909.96 418.40 1175.43 437.00 1025.50 584.44 920.76 692.37 1133.65 707.44
