Video ID: 	vnCj9bZJ8_M
H: 	1080
W: 	1920
FPS: 	25.0

FRAME INDEX X0 Y0 W H [Landmarks (5 Points)]

00005311 00000000 1107.33 177.35 345.87 483.26 1157.46 322.14 1311.23 306.69 1203.13 413.68 1181.59 518.95 1297.01 508.87
00005312 00000001 1105.00 172.89 341.06 488.79 1155.64 320.31 1312.26 315.90 1199.70 409.91 1178.52 522.57 1294.72 519.61
00005313 00000002 1104.73 170.15 340.24 491.09 1154.92 320.09 1312.59 315.82 1198.88 410.03 1177.71 523.00 1294.01 520.24
00005314 DELETE   1104.25 170.40 340.12 489.94 1154.46 319.63 1312.77 315.52 1198.79 409.52 1177.01 522.42 1293.31 519.87
00005315 00000004 1104.01 170.42 340.20 490.20 1154.02 319.82 1311.88 315.50 1197.24 409.95 1176.55 523.07 1292.26 520.36
00005316 00000005 1103.40 171.28 339.63 488.66 1153.41 319.98 1310.82 315.68 1196.29 410.13 1175.98 522.76 1291.11 520.04
00005317 DELETE   1102.51 176.75 340.48 484.21 1152.51 319.82 1310.84 316.08 1196.18 410.46 1175.24 523.01 1291.23 520.56
00005318 00000007 1102.50 176.46 339.84 486.15 1152.14 320.96 1309.56 317.19 1194.12 411.03 1174.62 523.96 1290.52 521.52
00005319 00000008 1101.39 180.24 338.96 483.49 1151.27 321.43 1309.43 318.20 1194.59 411.22 1173.49 524.13 1289.96 522.07
00005320 00000009 1101.65 177.72 338.96 487.82 1151.01 322.29 1309.99 319.00 1194.23 412.38 1173.17 525.51 1290.39 523.36
00005321 00000010 1101.26 178.18 339.20 489.05 1150.76 322.90 1309.47 319.19 1193.88 412.85 1173.09 526.46 1291.17 523.94
00005322 00000011 1101.46 178.37 338.38 488.83 1150.72 323.48 1308.29 319.48 1192.52 413.45 1173.08 526.39 1290.71 523.58
00005323 00000012 1101.44 177.63 337.89 489.91 1150.60 323.78 1307.91 319.64 1192.03 413.72 1172.94 526.70 1290.66 523.77
00005324 00000013 1101.09 178.37 338.54 489.35 1150.35 323.93 1307.73 319.97 1191.62 413.96 1172.67 526.80 1290.26 524.00
00005325 DELETE   1102.14 171.60 338.69 496.36 1150.39 325.92 1306.49 320.75 1190.85 414.81 1173.05 527.73 1291.12 524.13
00005326 00000015 1102.47 169.61 339.23 497.04 1152.58 326.60 1308.17 321.68 1193.64 414.32 1174.95 526.67 1292.84 523.46
00005327 00000016 1104.50 165.61 337.18 501.69 1154.46 328.09 1309.20 322.18 1196.58 414.60 1178.04 527.69 1295.68 523.80
00005328 DELETE   1105.55 168.99 340.20 497.94 1156.49 328.07 1312.00 323.24 1198.63 415.25 1179.45 526.57 1298.89 523.48
00005329 00000018 1106.21 165.31 340.63 495.97 1158.39 326.90 1319.07 323.83 1206.03 421.87 1180.54 525.30 1303.35 522.71
00005330 DELETE   1107.90 172.79 341.29 492.45 1160.13 325.70 1321.79 322.64 1207.08 420.24 1183.39 528.86 1308.13 526.77
00005331 00000020 1108.37 176.02 341.65 490.58 1161.78 325.23 1325.43 323.83 1209.75 420.35 1183.93 528.30 1310.25 527.39
00005332 00000021 1108.79 176.18 342.08 490.85 1163.16 325.72 1327.35 325.70 1211.12 422.54 1185.35 528.99 1311.74 529.08
00005333 00000022 1111.05 174.21 343.95 495.94 1164.83 328.21 1329.02 327.96 1208.86 427.80 1187.24 529.14 1313.40 528.85
00005334 00000023 1110.68 173.36 354.23 492.56 1167.83 330.99 1329.83 320.42 1217.95 428.70 1193.09 530.77 1314.52 524.63
00005335 00000024 1111.19 177.49 353.92 489.82 1169.96 334.30 1330.26 323.20 1220.35 428.44 1195.68 532.31 1315.93 526.02
00005336 DELETE   1111.65 175.95 356.69 493.37 1169.93 335.70 1328.95 324.38 1218.91 429.30 1195.70 534.20 1315.59 527.94
00005337 00000026 1111.81 171.55 358.35 498.38 1169.99 337.64 1328.36 325.85 1219.00 430.57 1195.75 536.24 1315.36 529.66
00005338 00000027 1112.84 172.90 357.20 499.14 1171.43 338.35 1329.18 327.04 1220.56 431.43 1196.39 536.83 1316.29 530.75
00005339 00000028 1113.60 171.79 356.62 501.44 1171.96 338.74 1329.21 327.34 1220.63 431.27 1196.59 537.30 1316.94 531.28
00005340 DELETE   1114.65 170.77 354.97 502.34 1172.57 338.51 1329.11 327.66 1220.80 431.28 1196.74 536.52 1316.90 531.17
00005341 00000030 1115.58 172.56 354.99 501.64 1173.89 338.36 1330.34 327.97 1221.40 430.34 1197.16 536.18 1317.48 531.24
00005342 DELETE   1115.38 173.78 355.37 500.47 1174.44 338.32 1330.91 328.04 1222.25 429.75 1197.30 535.59 1317.89 530.78
00005343 00000032 1115.21 173.81 355.96 499.46 1174.78 337.69 1331.04 327.79 1222.81 429.70 1197.53 534.79 1317.81 530.27
00005344 DELETE   1115.18 174.77 355.72 498.73 1174.32 337.91 1331.06 327.95 1222.39 430.12 1197.55 535.28 1318.25 530.55
00005345 00000034 1115.77 173.33 354.76 500.24 1174.20 337.77 1330.92 327.51 1221.64 429.92 1197.36 535.34 1318.30 530.37
00005346 00000035 1115.57 175.97 354.98 498.36 1174.01 338.00 1331.37 328.43 1221.74 430.91 1197.14 535.48 1319.31 530.96
00005347 00000036 1115.32 175.56 355.09 499.19 1173.93 338.73 1331.26 328.88 1221.56 431.06 1197.00 535.93 1319.61 531.18
00005348 00000037 1115.15 176.12 356.20 498.71 1173.72 339.78 1331.40 329.05 1221.19 431.28 1196.88 536.53 1320.33 530.98
00005349 00000038 1115.09 172.10 355.32 501.91 1172.77 340.13 1331.48 329.04 1221.04 432.16 1195.98 536.05 1322.16 530.02
00005350 00000039 1115.10 171.19 352.90 503.31 1172.28 340.08 1330.36 329.52 1221.16 432.73 1195.10 535.69 1321.31 530.26
00005351 00000040 1114.04 177.39 354.97 497.55 1171.87 341.62 1329.48 330.26 1220.55 433.29 1194.75 536.54 1320.82 530.45
00005352 00000041 1113.19 182.09 357.00 493.86 1171.86 342.09 1327.85 331.37 1220.02 433.86 1194.97 535.62 1319.82 530.00
00005353 00000042 1112.62 182.61 358.86 492.22 1171.05 342.72 1327.51 331.63 1219.73 434.12 1194.17 535.54 1319.83 529.69
00005354 00000043 1111.50 187.42 357.30 487.31 1171.55 342.97 1328.09 333.23 1221.79 433.93 1194.36 534.67 1318.88 529.99
00005355 00000044 1111.53 187.04 354.99 489.18 1171.84 344.01 1327.92 334.02 1222.54 434.28 1194.67 535.38 1317.89 530.79
00005356 00000045 1112.50 184.46 355.05 491.16 1171.87 344.94 1326.93 334.43 1221.48 433.79 1193.55 534.40 1317.63 529.56
00005357 00000046 1111.89 182.03 354.20 492.86 1170.98 345.56 1326.36 334.83 1220.60 433.75 1193.31 533.91 1318.20 528.70
00005358 00000047 1111.09 180.19 353.78 494.30 1169.76 347.15 1325.49 335.74 1219.66 434.43 1192.13 534.11 1318.92 528.26
00005359 00000048 1110.11 176.81 352.70 497.15 1167.93 347.10 1323.92 336.22 1217.90 435.39 1190.62 534.10 1317.77 528.58
00005360 00000049 1108.97 181.37 351.25 493.59 1166.32 348.19 1321.24 337.28 1216.61 435.78 1189.07 534.45 1315.09 528.99
00005361 00000050 1106.92 181.71 353.26 493.98 1163.49 349.43 1319.38 338.10 1213.41 435.74 1186.67 535.76 1313.77 529.53
00005362 00000051 1105.74 181.19 352.87 495.32 1160.92 350.82 1316.67 339.23 1209.72 436.63 1184.73 536.97 1313.12 530.33
00005363 00000052 1105.03 182.17 352.92 495.86 1160.46 352.11 1314.46 340.18 1208.72 437.11 1184.88 537.58 1312.47 530.60
00005364 00000053 1104.97 181.72 353.17 496.89 1160.56 353.12 1314.23 341.18 1208.66 437.81 1185.36 538.29 1312.82 531.29
00005365 00000054 1104.31 182.65 355.61 495.73 1159.80 354.54 1313.59 341.83 1208.31 438.30 1184.97 540.00 1312.02 532.32
00005366 00000055 1104.07 182.33 355.46 496.14 1160.51 353.88 1314.23 341.98 1209.26 438.38 1185.35 539.07 1311.93 532.05
00005367 00000056 1103.94 183.91 355.87 495.60 1160.36 353.49 1313.71 341.58 1209.21 438.70 1185.28 539.18 1311.39 532.26
00005368 00000057 1104.20 185.69 356.13 495.25 1160.45 353.20 1313.02 341.84 1208.81 439.19 1185.41 539.94 1310.72 533.48
00005369 00000058 1104.22 188.22 354.82 494.71 1160.08 353.45 1312.17 342.15 1208.40 439.08 1185.34 540.76 1310.07 534.33
00005370 00000059 1104.95 185.15 355.43 498.74 1160.08 353.30 1312.29 342.41 1208.04 439.24 1185.52 541.65 1309.50 535.75
00005371 00000060 1105.15 184.94 355.96 500.14 1160.57 353.68 1312.65 343.56 1207.95 440.22 1185.47 542.34 1309.24 537.17
00005372 00000061 1105.19 182.48 357.27 503.55 1160.78 355.71 1313.92 346.11 1207.80 441.34 1184.98 543.86 1310.03 539.09
00005373 00000062 1104.49 185.73 358.39 500.22 1160.34 357.76 1312.96 348.28 1207.13 442.55 1184.84 545.11 1309.47 540.33
00005374 00000063 1103.39 186.99 359.57 500.54 1159.27 359.06 1312.05 348.46 1206.59 442.44 1184.33 546.38 1309.24 540.62
00005375 00000064 1103.11 186.11 360.37 501.93 1158.97 359.49 1312.14 349.14 1206.00 442.81 1183.78 546.88 1309.26 541.20
00005376 00000065 1103.25 184.00 360.34 504.12 1158.63 359.88 1311.63 348.78 1205.76 443.74 1183.57 546.65 1309.30 540.30
00005377 00000066 1103.53 185.30 359.95 502.62 1158.67 359.51 1311.41 348.80 1205.56 443.89 1183.90 546.45 1309.47 540.37
00005378 00000067 1103.26 184.52 359.94 503.30 1158.34 359.77 1311.41 348.79 1205.52 443.80 1183.35 546.57 1309.59 540.26
00005379 00000068 1103.67 184.21 358.42 503.48 1158.52 359.57 1311.43 348.75 1205.87 443.80 1183.79 546.44 1309.69 540.29
00005380 00000069 1103.54 185.22 358.45 502.56 1158.45 359.76 1311.34 348.82 1205.88 443.83 1183.76 546.51 1309.57 540.27
00005381 00000070 1103.36 184.93 358.80 502.94 1158.27 360.12 1311.16 348.83 1205.50 443.68 1183.62 546.79 1309.68 540.20
00005382 00000071 1102.95 185.11 360.00 503.63 1157.64 360.27 1310.72 348.62 1204.57 443.85 1183.47 547.72 1309.09 540.78
00005383 00000072 1102.47 187.23 359.78 501.17 1157.22 360.53 1310.38 348.75 1204.19 443.57 1183.35 547.48 1308.70 540.52
00005384 00000073 1102.16 187.02 360.47 502.02 1157.08 360.74 1310.01 349.04 1204.25 444.04 1183.34 547.73 1308.82 540.74
00005385 00000074 1101.99 186.66 361.61 502.67 1156.64 361.04 1309.44 348.92 1203.30 444.04 1183.27 547.93 1308.73 540.49
00005386 00000075 1102.10 186.83 361.10 502.45 1156.80 361.51 1309.86 349.41 1203.85 444.54 1183.18 548.07 1309.25 540.69
00005387 00000076 1102.21 187.55 361.03 501.77 1157.11 361.34 1309.75 349.34 1204.20 444.33 1183.27 547.68 1308.91 540.45
00005388 00000077 1102.36 186.60 360.08 502.14 1157.43 361.11 1310.00 349.38 1204.84 444.24 1183.62 547.47 1308.93 540.48
00005389 00000078 1103.10 185.71 359.66 502.73 1158.25 362.34 1310.69 350.74 1204.96 444.51 1183.90 547.23 1309.82 540.36
00005390 00000079 1104.25 186.52 360.24 500.81 1160.49 360.60 1311.30 350.66 1206.22 443.30 1185.17 545.26 1310.41 539.76
00005391 00000080 1103.41 187.35 360.19 499.82 1159.44 360.18 1310.35 349.74 1205.50 443.58 1184.82 545.23 1310.29 539.36
00005392 00000081 1102.94 184.14 360.29 502.54 1157.85 358.34 1309.53 346.91 1204.46 442.99 1184.62 545.65 1310.00 538.85
00005393 00000082 1102.72 181.41 360.76 505.09 1157.72 357.26 1310.16 346.17 1204.99 443.09 1184.42 545.58 1310.01 539.04
00005394 00000083 1102.32 183.24 361.25 504.22 1157.96 356.79 1310.33 345.93 1205.43 443.13 1184.34 545.22 1310.26 538.82
00005395 00000084 1103.04 183.49 359.47 503.51 1158.63 355.95 1310.15 345.15 1206.03 442.37 1184.47 543.68 1309.07 537.57
00005396 00000085 1103.04 184.85 359.46 501.94 1159.43 355.97 1310.52 345.87 1206.57 442.64 1184.88 542.93 1309.52 537.32
00005397 00000086 1102.99 186.09 359.90 500.55 1159.67 356.26 1311.09 346.15 1207.29 442.80 1185.02 542.92 1309.91 537.30
00005398 00000087 1104.07 180.43 358.78 504.38 1159.52 355.09 1311.66 345.06 1207.87 443.23 1185.07 542.86 1310.60 537.32
00005399 00000088 1104.20 181.27 357.77 502.32 1159.95 354.91 1312.05 344.67 1208.78 442.46 1185.71 542.51 1310.23 536.91
00005400 00000089 1104.99 178.77 356.37 503.34 1160.71 354.76 1312.34 344.74 1210.23 442.61 1186.09 541.79 1310.46 536.52
00005401 00000090 1105.04 178.96 355.99 502.26 1160.94 354.24 1312.49 344.11 1210.82 442.33 1186.91 541.62 1309.83 536.34
00005402 00000091 1105.31 181.71 355.02 500.06 1161.47 354.00 1312.58 343.97 1211.37 442.25 1186.95 541.15 1309.44 536.04
00005403 00000092 1105.76 181.90 353.64 499.78 1161.99 352.96 1312.85 343.04 1212.26 441.39 1187.35 540.40 1309.10 535.51
00005404 00000093 1105.42 181.46 353.96 498.76 1161.60 353.11 1313.26 342.81 1212.52 441.63 1187.00 540.58 1309.07 535.30
00005405 00000094 1105.12 181.09 353.95 498.29 1161.18 353.15 1313.01 342.96 1212.48 441.92 1186.97 540.32 1308.80 535.04
00005406 00000095 1105.02 181.14 353.49 498.95 1161.22 352.77 1313.16 342.73 1212.91 441.63 1186.88 540.44 1308.15 535.35
00005407 00000096 1104.77 181.39 353.61 497.03 1161.21 353.00 1313.26 342.99 1213.32 442.05 1186.88 540.10 1308.36 534.95
00005408 00000097 1104.72 181.33 353.54 496.69 1161.23 353.05 1313.26 343.16 1213.22 442.12 1186.79 539.81 1308.16 534.73
00005409 00000098 1105.19 180.08 353.01 497.45 1160.91 352.76 1312.82 342.56 1212.45 441.60 1186.12 539.26 1307.83 533.96
00005410 00000099 1105.15 181.22 353.51 496.62 1161.26 352.10 1313.35 342.45 1212.57 441.86 1186.02 538.64 1307.88 533.81
00005411 00000100 1105.39 180.79 352.83 496.24 1161.27 352.01 1313.19 341.97 1212.60 441.36 1185.86 538.38 1307.51 533.24
00005412 00000101 1105.37 182.12 352.26 494.42 1161.12 351.50 1312.65 341.51 1212.42 441.12 1185.90 537.62 1307.17 532.49
00005413 00000102 1105.79 182.32 350.63 494.38 1161.30 351.19 1312.58 341.01 1212.34 440.57 1186.25 537.45 1307.46 532.17
00005414 00000103 1105.75 182.89 350.41 494.14 1161.38 350.89 1312.58 340.95 1212.49 440.78 1186.16 537.14 1307.40 532.07
00005415 00000104 1105.94 183.67 350.09 493.39 1161.63 350.86 1312.65 340.90 1212.41 440.63 1186.34 536.97 1307.64 531.86
00005416 00000105 1105.90 183.72 349.98 493.34 1161.45 350.98 1312.61 340.77 1212.56 440.64 1186.25 537.16 1307.52 531.84
00005417 00000106 1106.22 183.68 349.74 493.00 1161.49 350.83 1312.47 340.81 1212.37 440.87 1186.20 536.98 1307.50 531.83
00005418 00000107 1106.17 184.09 349.27 492.39 1161.58 350.86 1312.67 340.97 1212.69 441.01 1186.17 536.64 1307.70 531.56
00005419 00000108 1106.42 183.24 349.58 493.15 1161.75 350.76 1313.08 341.01 1212.76 440.94 1186.27 536.73 1308.20 531.78
00005420 00000109 1106.08 182.05 350.11 494.12 1161.45 350.49 1312.86 340.98 1212.46 441.08 1186.15 536.58 1308.02 531.74
00005421 00000110 1105.74 183.64 349.67 492.37 1161.46 350.85 1312.98 341.07 1212.71 440.93 1186.15 536.58 1307.77 531.48
00005422 00000111 1105.90 183.58 349.83 492.45 1161.62 350.71 1313.01 341.10 1212.75 440.90 1186.15 536.43 1307.97 531.50
00005423 00000112 1106.06 182.95 349.57 492.86 1161.59 350.73 1313.13 341.15 1212.72 440.89 1186.13 536.56 1307.95 531.66
00005424 00000113 1106.13 182.33 349.61 493.52 1161.64 350.72 1313.02 341.16 1212.69 440.93 1186.04 536.37 1307.84 531.52
00005425 00000114 1106.31 181.90 349.15 494.20 1161.55 350.66 1313.25 340.80 1212.81 441.04 1186.33 536.94 1308.26 531.87
00005426 00000115 1106.28 181.51 349.94 494.66 1161.59 350.74 1312.99 340.61 1212.51 440.62 1186.35 537.16 1307.89 531.89
00005427 00000116 1106.42 181.64 349.79 494.45 1161.74 350.54 1312.97 340.45 1212.68 440.58 1186.58 536.90 1307.86 531.68
00005428 00000117 1106.60 182.72 350.20 493.45 1161.99 350.19 1313.01 340.46 1212.47 440.51 1186.58 536.49 1308.03 531.55
00005429 00000118 1106.72 185.16 350.20 491.07 1162.18 350.64 1313.14 340.54 1212.59 440.57 1186.95 537.02 1308.11 531.71
00005430 00000119 1107.14 183.35 350.24 492.54 1162.41 350.67 1313.72 340.57 1212.80 440.73 1186.79 536.88 1308.48 531.59
00005431 00000120 1107.06 186.00 349.98 490.20 1163.23 350.68 1314.35 340.39 1214.04 440.80 1187.95 536.96 1309.22 531.44
00005432 00000121 1106.99 184.62 350.13 491.33 1163.58 350.07 1315.07 340.31 1214.58 440.79 1187.72 536.36 1309.53 531.34
00005433 00000122 1107.55 182.17 349.44 494.03 1163.13 350.02 1314.36 339.85 1213.96 440.56 1187.52 536.23 1309.66 530.95
00005434 00000123 1107.42 180.00 350.04 495.12 1162.84 349.98 1314.50 339.92 1213.75 440.60 1187.35 536.42 1309.39 531.19
00005435 00000124 1107.50 180.23 349.71 494.89 1162.69 349.87 1314.29 339.90 1213.45 440.71 1187.21 536.27 1309.41 531.11
00005436 00000125 1107.38 180.77 349.69 494.53 1162.58 349.82 1314.22 339.74 1213.51 440.56 1187.27 536.32 1309.40 531.06
00005437 00000126 1107.39 180.62 349.83 494.53 1162.83 349.93 1314.43 339.77 1213.67 440.52 1187.30 536.17 1309.55 530.87
00005438 00000127 1107.03 181.44 350.01 493.84 1162.79 349.57 1314.50 339.53 1213.71 440.49 1187.45 535.76 1309.71 530.51
00005439 00000128 1107.33 180.26 349.44 494.44 1163.23 349.50 1315.15 339.64 1214.19 440.29 1187.49 535.26 1310.07 530.20
00005440 00000129 1107.30 180.28 349.41 494.39 1163.19 349.42 1315.19 339.60 1214.16 440.28 1187.45 535.24 1310.08 530.19
00005441 00000130 1107.53 179.37 349.28 495.07 1163.21 349.54 1315.07 339.74 1214.04 440.38 1187.35 535.27 1310.33 530.24
00005442 00000131 1107.38 181.17 349.20 493.38 1163.05 349.93 1315.33 339.74 1214.23 440.46 1187.31 535.72 1310.22 530.39
00005443 00000132 1107.43 180.19 349.54 494.24 1163.11 349.94 1315.34 339.87 1214.05 440.46 1187.29 535.70 1310.28 530.49
00005444 00000133 1107.39 179.87 349.62 494.33 1163.09 349.98 1315.52 339.86 1214.12 440.41 1187.41 535.85 1310.53 530.55
00005445 00000134 1107.44 183.12 349.40 491.80 1163.21 350.36 1315.34 340.12 1214.16 440.66 1187.53 536.12 1310.58 530.72
00005446 00000135 1107.39 181.81 349.24 493.31 1163.10 350.50 1315.51 340.21 1214.25 440.76 1187.55 536.35 1310.72 530.90
00005447 00000136 1107.25 181.97 349.37 492.81 1162.95 350.37 1315.34 340.14 1214.02 440.65 1187.40 536.13 1310.49 530.72
00005448 00000137 1107.24 182.42 349.10 492.46 1163.02 350.25 1315.45 340.23 1214.19 440.91 1187.54 536.03 1310.54 530.78
00005449 00000138 1107.40 182.69 349.68 492.39 1163.16 350.93 1315.76 340.66 1213.90 441.18 1187.46 536.32 1310.83 530.89
00005450 00000139 1107.56 182.92 349.10 492.20 1163.43 350.65 1315.75 340.55 1214.21 441.10 1187.71 536.00 1310.85 530.73
00005451 00000140 1107.46 183.54 349.14 491.55 1163.35 350.96 1315.68 340.73 1214.13 441.32 1187.60 536.11 1310.80 530.71
00005452 00000141 1107.41 184.48 349.22 490.91 1163.49 350.74 1315.70 340.74 1214.25 441.23 1187.74 535.97 1310.91 530.75
00005453 00000142 1107.76 184.81 349.12 491.00 1163.85 350.32 1316.04 340.90 1214.31 441.32 1187.51 535.48 1311.25 530.76
00005454 00000143 1107.84 182.82 349.42 492.74 1163.85 350.37 1316.02 341.14 1214.17 441.41 1187.50 535.21 1311.67 530.62
00005455 00000144 1107.74 183.35 349.49 492.46 1164.06 350.67 1316.21 341.09 1214.53 441.35 1187.57 535.25 1311.93 530.38
00005456 00000145 1108.10 183.42 348.94 492.59 1164.06 350.91 1316.23 341.47 1214.19 441.58 1187.50 535.33 1312.23 530.59
00005457 00000146 1108.40 183.29 349.23 493.77 1164.50 351.05 1316.28 341.94 1214.27 442.00 1188.07 535.35 1312.75 530.93
00005458 00000147 1108.67 180.99 351.02 496.22 1164.79 351.97 1316.47 342.34 1213.83 442.26 1188.51 535.54 1313.55 530.79
00005459 00000148 1109.84 178.55 350.29 497.66 1166.12 354.06 1317.00 345.20 1213.94 442.99 1188.58 534.57 1314.35 530.42
00005460 00000149 1109.65 180.81 350.17 495.38 1166.44 355.00 1317.12 346.17 1214.13 442.92 1188.73 534.06 1314.82 529.89
00005461 00000150 1109.91 180.02 350.33 496.37 1166.68 354.98 1317.10 346.06 1214.38 443.01 1188.82 533.64 1315.44 529.38
00005462 00000151 1110.02 185.30 348.02 491.19 1167.19 354.74 1317.63 345.93 1214.82 441.87 1188.51 532.80 1315.60 528.65
00005463 00000152 1110.00 183.65 348.96 492.79 1167.34 355.56 1318.34 346.17 1214.63 441.74 1188.20 532.50 1317.25 527.77
00005464 00000153 1110.17 182.37 349.58 493.13 1167.04 355.22 1318.63 346.10 1214.24 442.18 1188.13 531.16 1319.04 526.44
00005465 00000154 1110.45 182.00 350.02 493.29 1167.29 355.00 1318.92 346.67 1214.06 442.46 1187.19 528.65 1321.15 524.40
00005466 00000155 1110.92 184.64 347.93 491.07 1168.99 353.80 1319.35 346.56 1215.72 441.13 1187.76 525.45 1322.58 522.10
00005467 00000156 1111.18 183.97 348.98 491.77 1169.20 351.28 1319.50 344.47 1216.21 440.86 1187.35 522.68 1323.94 519.55
00005468 00000157 1111.02 187.83 353.23 484.96 1170.85 349.30 1321.00 342.12 1218.25 438.06 1188.62 518.72 1325.24 515.10
00005469 00000158 1111.65 189.51 353.10 482.54 1172.41 346.55 1324.22 338.90 1221.81 434.11 1188.89 514.96 1328.48 510.99
00005470 00000159 1111.41 188.76 355.60 481.03 1171.85 346.79 1325.94 335.95 1222.45 430.83 1187.88 513.54 1331.32 506.71
00005471 00000160 1112.94 188.90 357.92 478.22 1174.12 346.26 1328.99 332.68 1226.18 427.17 1189.65 512.13 1333.65 503.18
00005472 00000161 1115.48 179.18 355.78 487.74 1176.02 345.39 1332.20 331.74 1228.40 426.69 1190.50 511.34 1336.90 502.33
00005473 00000162 1118.32 181.88 354.78 484.56 1178.51 344.22 1333.78 332.13 1230.54 427.63 1192.95 510.84 1338.44 503.09
