Video ID: 	Uz5cLi5khLo
H: 	1080
W: 	1920
FPS: 	25.0

FRAME INDEX X0 Y0 W H [Landmarks (5 Points)]

00007042 00000000 606.78 243.21 460.35 617.93 703.89 500.48 889.86 468.41 799.90 626.51 780.35 719.99 929.82 692.35
00007043 00000001 614.55 238.92 463.29 625.67 712.84 500.62 903.46 469.08 809.32 624.56 785.37 721.97 939.08 694.13
00007044 00000002 625.29 237.69 456.12 625.00 722.62 500.82 912.76 474.48 816.61 626.39 788.92 721.53 940.45 697.87
00007045 00000003 635.02 240.53 450.30 617.95 729.55 497.73 921.87 474.74 823.10 628.96 793.89 721.11 942.58 700.10
00007046 00000004 642.99 228.57 452.90 630.10 736.14 487.21 938.60 469.57 836.63 623.06 791.05 714.76 952.93 699.52
00007047 00000005 654.35 231.89 445.80 626.72 744.97 486.61 946.11 468.64 847.06 618.74 799.44 714.51 958.60 699.62
00007048 00000006 659.08 234.38 444.25 625.41 751.91 488.40 951.07 469.03 856.90 621.67 809.39 716.14 965.08 700.53
00007049 00000007 663.78 245.47 447.20 611.74 757.84 492.38 957.57 475.08 860.50 628.83 814.16 716.73 971.15 702.85
00007050 00000008 669.01 253.91 449.01 601.63 766.13 493.99 965.00 477.83 865.90 631.93 821.19 716.97 977.22 703.86
00007051 DELETE   675.13 251.46 451.36 606.53 775.98 498.80 972.36 485.83 872.39 638.67 828.94 718.82 983.37 707.82
00007052 00000010 680.28 260.47 451.25 604.67 784.23 504.64 979.85 493.44 879.56 646.08 835.55 724.63 988.19 714.91
00007053 DELETE   692.15 272.83 440.94 600.80 788.10 523.90 984.91 509.89 890.37 663.21 842.50 744.28 994.20 730.21
00007054 00000012 697.10 281.26 440.96 599.23 792.97 530.76 990.31 516.44 897.09 676.14 847.14 753.00 1001.23 739.07
00007055 00000013 698.20 283.70 444.12 597.59 796.39 531.67 993.01 518.38 899.69 676.64 849.59 753.92 1001.83 740.66
00007056 00000014 700.57 281.83 441.95 600.32 798.67 527.80 994.26 515.53 900.57 673.03 848.53 751.90 999.20 739.30
00007057 00000015 699.02 280.18 440.77 600.70 797.60 524.69 992.57 512.44 898.94 667.18 845.82 747.68 996.29 735.20
00007058 00000016 694.58 280.10 440.63 599.91 794.85 521.04 987.95 509.45 896.03 661.54 843.07 744.26 990.40 732.36
00007059 00000017 691.65 281.57 438.69 599.15 792.47 518.58 983.15 506.72 892.57 655.42 840.36 741.78 987.05 729.69
00007060 00000018 686.94 277.06 442.35 605.94 788.30 517.09 981.80 506.04 889.41 654.13 835.56 737.91 987.67 726.53
00007061 00000019 683.38 273.78 442.75 605.91 786.82 514.76 981.03 505.00 888.81 652.43 832.29 733.87 986.18 723.82
00007062 00000020 675.23 268.72 449.47 603.56 782.95 508.97 980.79 497.11 882.78 652.11 830.24 726.41 987.64 716.58
00007063 00000021 672.12 268.11 449.41 601.68 780.57 510.01 980.30 498.49 881.22 652.62 826.18 727.02 984.43 717.78
00007064 00000022 670.97 268.14 448.87 600.82 778.33 508.67 979.22 497.63 879.05 655.13 825.35 727.91 983.52 719.07
00007065 00000023 670.10 269.71 448.31 599.38 776.80 507.78 978.39 496.89 877.73 654.40 823.64 727.43 983.23 718.78
00007066 00000024 669.33 269.21 449.15 598.91 776.87 507.20 977.59 495.95 877.61 653.54 823.30 725.99 983.22 717.02
00007067 00000025 669.75 269.00 449.80 599.10 776.91 506.52 977.42 495.28 877.12 651.89 823.28 725.01 983.49 716.00
00007068 00000026 670.66 268.34 450.80 597.87 777.67 504.97 976.56 494.09 876.65 649.63 824.17 723.07 983.56 714.24
00007069 00000027 672.51 266.97 451.14 599.62 779.88 503.67 977.41 493.20 878.51 646.60 825.28 721.44 984.04 712.92
00007070 00000028 673.48 265.31 452.74 602.97 782.30 503.50 978.49 493.45 880.09 646.04 827.72 721.38 985.23 713.12
00007071 00000029 676.10 265.38 453.07 604.60 784.30 503.91 981.10 493.85 882.24 646.48 829.27 722.09 987.78 713.58
00007072 00000030 684.95 268.84 444.36 606.15 788.69 508.56 983.91 500.28 891.15 649.90 832.89 727.87 988.48 718.98
00007073 00000031 689.43 265.98 442.18 609.65 791.04 507.25 986.57 498.34 893.81 649.67 838.79 731.38 990.54 721.67
00007074 00000032 694.48 266.72 440.86 603.28 793.83 506.13 990.76 497.27 896.91 649.29 843.23 731.02 993.66 721.22
00007075 00000033 700.74 267.67 439.47 599.73 798.48 504.56 997.56 494.42 902.11 647.05 844.43 727.02 1001.38 716.11
00007076 00000034 703.54 268.71 437.37 594.86 799.77 504.06 1000.82 494.35 903.72 645.08 844.40 724.62 1004.47 713.94
00007077 00000035 705.30 269.71 435.31 592.73 801.29 503.84 1002.11 494.78 904.39 645.07 840.94 719.14 1006.67 709.07
00007078 00000036 703.03 267.97 438.33 597.32 801.26 503.38 1002.71 494.20 905.50 646.27 842.43 721.04 1006.49 710.78
00007079 00000037 701.83 274.69 440.57 594.69 801.10 506.19 1001.27 496.48 905.36 648.41 844.92 726.37 1005.75 715.68
00007080 00000038 701.40 274.30 441.09 597.02 800.79 508.25 1000.31 498.16 905.24 649.42 845.24 728.50 1005.81 717.42
00007081 00000039 702.86 273.82 440.10 597.63 802.36 507.73 1002.28 497.55 907.05 649.58 846.10 727.92 1006.17 716.91
00007082 00000040 708.23 266.40 438.24 602.18 806.10 506.56 1007.91 496.03 910.00 645.62 848.31 725.56 1011.69 713.95
00007083 00000041 709.80 249.48 442.30 619.80 810.33 497.63 1020.63 491.23 914.57 644.95 848.77 720.58 1019.04 716.38
00007084 00000042 713.62 251.93 440.67 614.68 813.49 494.67 1024.44 488.83 918.72 642.88 851.23 719.23 1022.66 715.46
00007085 00000043 716.82 248.18 442.11 615.66 818.80 495.39 1029.29 488.10 924.96 642.39 854.79 716.71 1028.23 711.76
00007086 00000044 720.43 251.94 443.43 608.18 821.51 494.55 1032.75 488.23 926.42 641.66 856.18 713.94 1031.76 709.57
00007087 00000045 723.52 252.28 443.09 603.93 827.95 496.56 1035.55 488.25 932.77 638.98 863.90 710.50 1037.41 704.23
00007088 00000046 728.45 253.78 444.13 600.44 834.13 496.39 1038.35 486.43 938.21 637.49 871.63 709.01 1042.84 701.47
00007089 00000047 732.21 249.62 447.84 601.02 839.00 498.60 1042.31 486.61 943.72 638.74 879.77 708.03 1050.92 698.50
00007090 00000048 738.41 250.46 445.82 597.88 843.77 499.50 1047.92 487.27 949.03 640.18 885.45 705.80 1061.35 695.78
00007091 00000049 743.30 250.94 446.17 599.02 850.39 501.07 1052.22 487.67 955.48 638.68 889.75 703.17 1068.08 692.13
00007092 00000050 748.55 257.19 447.81 592.35 857.32 499.93 1056.90 488.00 958.99 639.63 891.77 698.52 1070.60 688.79
00007093 00000051 753.55 256.93 449.46 592.86 863.03 499.49 1063.49 487.19 964.51 640.45 895.90 695.25 1079.39 685.15
00007094 00000052 760.50 251.30 448.51 597.71 869.39 498.24 1071.40 486.15 971.89 637.61 897.96 690.74 1086.92 680.83
00007095 00000053 767.86 256.66 445.26 593.72 875.30 496.78 1079.05 485.51 978.53 639.28 902.09 690.08 1093.63 680.82
00007096 00000054 775.88 263.98 440.44 584.97 881.13 498.21 1084.96 487.55 983.94 641.06 907.40 689.22 1100.90 680.25
00007097 00000055 784.88 254.67 438.84 594.95 884.64 499.66 1096.89 488.80 989.16 645.61 910.40 693.49 1109.02 684.90
00007098 00000056 787.66 256.46 441.64 593.61 890.51 500.17 1100.28 490.52 993.47 644.47 914.53 691.68 1111.48 684.19
00007099 00000057 790.74 258.93 440.85 592.77 891.91 499.38 1102.97 489.97 995.60 645.33 915.31 690.86 1115.21 683.61
00007100 00000058 793.14 265.40 440.46 584.75 896.02 499.63 1106.64 491.74 998.48 645.66 916.18 688.58 1116.84 682.73
00007101 00000059 796.28 265.01 439.17 586.08 899.90 499.58 1107.81 492.71 1001.25 646.86 919.22 687.73 1119.01 682.79
00007102 00000060 797.86 263.32 438.70 587.21 901.88 499.70 1108.93 493.63 1002.46 647.28 920.44 687.42 1120.40 683.16
00007103 00000061 798.75 261.94 439.32 589.57 903.29 498.69 1109.92 493.32 1003.51 647.31 920.82 686.49 1121.33 682.82
00007104 00000062 799.31 263.65 439.28 587.43 904.19 498.77 1110.70 494.41 1003.97 648.24 921.63 687.09 1121.29 684.27
00007105 00000063 800.33 268.75 437.93 582.25 904.84 499.28 1112.34 495.02 1004.99 649.61 921.68 686.82 1122.55 684.19
00007106 00000064 801.04 268.24 437.78 583.68 905.65 500.21 1112.41 495.38 1005.99 650.92 922.57 687.61 1123.51 684.61
00007107 00000065 801.20 267.99 436.93 583.43 905.06 501.43 1112.41 496.00 1005.74 651.38 922.07 687.60 1123.82 684.11
00007108 00000066 798.88 273.40 438.12 577.05 902.18 509.51 1112.19 502.82 1004.72 652.56 918.79 687.82 1123.32 683.20
00007109 00000067 797.37 273.17 436.95 578.53 900.11 512.07 1111.23 505.10 1002.97 654.92 915.23 688.50 1122.04 683.91
00007110 00000068 793.97 274.86 438.33 579.70 896.55 513.18 1108.25 505.08 999.77 658.42 911.47 688.92 1120.32 683.65
00007111 00000069 791.91 274.60 437.69 580.35 893.09 514.89 1104.29 505.61 996.05 660.91 909.21 690.63 1117.80 684.53
00007112 00000070 789.73 276.23 436.96 579.51 892.22 514.57 1100.92 504.93 994.52 660.72 908.75 691.52 1112.89 685.35
00007113 00000071 786.86 275.40 435.87 581.61 887.19 515.99 1098.07 504.07 991.22 661.18 904.37 693.37 1111.55 685.41
00007114 00000072 783.85 276.85 435.20 581.58 882.94 516.21 1094.94 503.26 988.03 661.06 900.24 694.00 1109.39 685.11
00007115 00000073 775.94 276.63 440.43 585.12 883.42 511.09 1089.65 502.03 986.94 656.40 896.99 690.88 1104.09 683.95
00007116 00000074 772.81 277.83 440.63 583.26 879.73 510.43 1088.99 502.42 984.51 656.96 893.25 688.80 1104.92 682.89
00007117 00000075 771.06 278.28 441.13 583.12 878.60 510.40 1087.32 503.04 983.49 658.19 891.94 687.45 1104.05 681.99
00007118 00000076 769.68 278.52 440.37 582.03 877.44 510.59 1086.81 504.02 982.56 658.48 889.65 686.69 1103.16 682.05
00007119 00000077 768.88 278.22 440.56 581.07 876.68 510.71 1086.46 503.66 982.54 659.41 889.16 685.88 1103.53 680.87
00007120 00000078 767.81 276.32 440.53 583.56 875.70 510.81 1085.24 503.12 981.85 658.30 888.35 686.16 1102.86 680.50
00007121 00000079 766.26 277.43 442.16 582.32 874.50 509.91 1084.11 502.14 981.09 657.51 887.23 685.23 1101.95 679.49
00007122 00000080 765.47 277.80 442.77 580.84 873.31 509.73 1083.26 501.53 980.16 657.14 886.64 685.03 1100.99 678.94
00007123 00000081 765.19 277.84 442.92 581.27 873.56 510.33 1082.91 501.94 980.46 657.70 886.72 685.29 1100.84 679.08
00007124 00000082 764.32 278.60 442.80 580.41 873.53 509.55 1083.15 501.59 980.93 657.42 885.61 684.58 1100.54 678.80
00007125 00000083 763.96 278.77 442.64 580.97 873.35 509.29 1083.30 501.11 981.32 656.92 885.47 684.73 1100.81 678.75
00007126 00000084 764.44 280.43 442.39 579.12 873.54 508.90 1083.62 501.46 981.33 657.16 885.29 684.61 1100.05 679.26
00007127 00000085 764.41 280.00 442.17 579.97 873.51 508.28 1083.61 500.96 981.19 656.60 884.80 684.42 1100.01 679.10
00007128 00000086 764.16 280.10 441.46 579.93 873.66 507.77 1083.56 500.64 981.53 656.27 884.32 684.07 1099.60 678.99
00007129 00000087 763.74 280.71 441.71 580.03 873.03 507.67 1083.35 500.40 981.43 656.56 883.57 684.25 1099.66 679.05
00007130 00000088 762.87 280.15 441.29 580.16 872.59 508.36 1082.31 500.61 981.01 656.79 882.94 684.53 1098.47 679.04
00007131 00000089 762.38 278.39 441.18 582.17 871.55 508.35 1081.70 500.88 979.42 657.33 880.86 684.07 1098.06 678.82
00007132 00000090 760.86 279.52 440.83 580.55 870.72 509.12 1080.55 501.48 978.59 657.07 880.02 684.53 1096.21 679.18
00007133 00000091 759.87 277.87 439.41 584.24 869.60 509.94 1078.18 501.53 976.89 657.02 878.66 685.55 1094.56 679.54
00007134 00000092 759.38 280.84 439.32 582.48 868.91 510.28 1076.98 502.11 976.41 658.37 878.17 685.68 1094.23 679.88
00007135 00000093 759.12 283.36 438.49 579.64 867.91 509.89 1075.72 502.16 975.49 659.99 876.54 685.14 1092.97 679.80
00007136 00000094 756.51 283.12 438.20 578.23 866.45 511.30 1071.38 502.85 973.13 660.93 876.23 684.60 1089.47 678.67
00007137 00000095 754.91 281.12 437.08 579.63 864.42 512.51 1067.89 503.19 970.51 661.04 874.55 684.84 1086.88 678.23
00007138 00000096 753.76 281.92 435.85 578.33 862.55 512.98 1064.91 503.42 967.68 660.33 873.20 685.05 1084.23 678.20
00007139 00000097 751.51 282.12 435.95 577.46 860.81 514.02 1061.63 504.51 964.76 660.90 871.22 684.31 1081.41 677.55
00007140 00000098 748.97 284.61 434.71 574.53 857.92 515.31 1059.18 505.54 961.99 660.74 868.28 684.83 1078.93 677.82
00007141 00000099 745.48 283.23 436.44 578.58 854.44 516.24 1057.32 506.19 959.26 661.17 866.02 686.23 1077.74 678.85
00007142 00000100 743.89 280.65 436.91 583.83 853.09 516.69 1054.98 506.73 957.22 660.57 865.53 687.73 1076.12 680.32
00007143 00000101 742.33 274.87 435.44 590.81 850.86 518.19 1052.68 507.20 955.61 660.62 864.70 689.44 1075.68 681.00
00007144 00000102 741.97 276.24 434.28 589.86 849.88 519.43 1050.02 507.77 953.77 661.69 864.91 689.91 1074.36 680.95
00007145 00000103 741.60 277.88 433.86 588.49 848.96 521.04 1048.73 509.28 952.43 662.38 864.05 690.13 1073.78 681.02
00007146 00000104 741.67 277.19 431.97 589.41 849.10 522.14 1047.88 510.13 952.87 663.67 865.06 690.97 1073.77 681.56
00007147 00000105 741.56 280.63 431.87 586.62 848.90 523.36 1048.26 511.28 952.80 663.99 864.59 691.47 1073.66 682.05
00007148 00000106 740.81 281.61 432.12 586.47 848.70 524.72 1048.47 512.08 953.44 664.49 865.25 692.85 1073.59 682.98
00007149 00000107 739.45 285.06 433.65 582.73 849.29 527.50 1047.79 515.29 953.71 665.65 866.27 693.67 1071.86 684.27
00007150 00000108 741.28 283.92 432.08 584.51 848.53 531.19 1047.69 519.43 951.63 667.20 864.39 694.44 1073.26 685.39
00007151 00000109 741.57 284.13 431.80 585.06 849.37 528.99 1049.32 518.90 952.42 666.60 864.05 694.01 1073.09 686.33
00007152 00000110 739.94 285.16 434.31 585.06 848.47 528.67 1048.58 518.14 951.70 666.80 863.87 694.83 1071.68 686.87
00007153 00000111 739.95 284.09 434.17 587.55 848.22 529.32 1047.78 518.00 951.50 667.02 864.22 695.71 1072.57 687.04
00007154 00000112 740.73 283.61 434.46 590.12 848.90 529.15 1048.73 518.27 952.41 668.63 864.15 695.68 1073.92 687.46
00007155 00000113 741.79 283.63 435.07 591.86 850.00 530.11 1050.06 518.84 953.81 670.19 865.58 696.95 1075.37 688.37
00007156 00000114 744.48 286.17 435.23 590.91 851.78 530.90 1052.53 520.40 955.52 672.67 867.28 697.84 1077.88 689.84
00007157 00000115 747.42 292.74 435.30 587.49 855.79 532.05 1056.11 521.93 959.88 674.97 870.57 700.13 1079.79 692.32
00007158 00000116 748.75 294.92 437.62 586.62 858.56 532.63 1058.52 521.80 963.34 675.65 874.32 701.44 1082.08 692.99
00007159 00000117 759.31 300.38 428.90 583.70 858.54 532.10 1055.81 518.41 964.18 679.37 878.02 706.93 1088.65 694.28
00007160 00000118 761.04 299.24 428.25 585.83 860.44 532.46 1057.51 518.81 966.48 679.96 880.28 708.52 1090.17 695.84
00007161 00000119 763.00 299.63 428.87 586.72 862.29 532.70 1059.62 519.26 968.60 680.78 882.24 709.41 1092.26 696.87
00007162 00000120 763.79 299.18 428.86 586.72 863.93 533.17 1061.84 519.81 970.89 679.89 883.27 709.84 1093.79 697.41
00007163 00000121 765.11 298.00 429.58 588.99 865.44 532.95 1063.64 519.94 972.52 679.60 883.75 709.72 1094.74 697.54
00007164 00000122 765.03 299.21 430.53 587.35 866.40 532.29 1064.61 519.27 973.64 678.77 884.57 708.80 1095.83 696.58
00007165 00000123 766.46 300.09 430.38 586.57 867.28 532.67 1065.48 519.88 974.33 678.89 885.65 709.14 1096.75 697.13
00007166 00000124 767.26 304.00 431.31 582.65 867.72 532.59 1067.14 519.41 975.28 679.90 886.87 709.77 1098.62 697.47
00007167 00000125 767.18 305.68 432.21 581.70 868.11 532.34 1067.35 519.20 975.28 679.45 887.18 709.73 1098.53 697.47
00007168 00000126 767.16 304.77 432.57 582.94 868.79 532.40 1066.94 519.38 975.56 678.78 887.39 708.95 1098.50 696.69
00007169 00000127 767.30 304.13 432.95 582.75 869.15 532.44 1066.58 519.02 976.15 677.88 887.78 708.22 1098.75 695.56
00007170 00000128 767.01 303.25 432.15 582.86 869.04 530.98 1066.28 517.92 976.07 676.71 887.16 707.01 1098.11 694.72
00007171 00000129 767.45 302.32 431.69 583.59 868.78 530.75 1065.72 517.26 975.87 675.63 887.11 707.26 1097.59 694.56
00007172 00000130 767.36 301.66 431.69 583.91 867.97 530.13 1064.58 516.18 975.19 675.23 886.97 706.97 1097.24 693.85
00007173 00000131 767.40 302.18 432.28 583.49 867.74 529.36 1064.59 515.60 974.85 675.09 886.81 706.71 1097.30 693.73
00007174 00000132 767.34 302.89 432.83 582.69 867.52 529.10 1064.81 514.98 975.02 675.09 886.84 706.87 1097.57 693.59
00007175 00000133 767.36 302.59 432.73 582.82 867.56 529.29 1065.02 514.97 975.37 675.03 886.87 706.93 1097.87 693.50
00007176 00000134 767.65 302.32 433.16 582.74 868.81 530.23 1065.45 516.33 975.83 675.40 888.08 707.11 1097.46 694.03
00007177 00000135 767.44 301.91 433.51 582.59 870.01 532.48 1066.55 518.88 976.82 676.12 889.74 707.51 1098.37 694.69
00007178 00000136 768.33 303.38 432.21 580.16 870.67 538.12 1067.14 524.57 976.01 678.86 890.41 708.59 1099.53 695.76
00007179 00000137 769.63 304.49 432.23 579.73 872.04 538.84 1068.10 526.02 975.88 678.11 890.46 708.21 1100.07 695.95
00007180 00000138 771.08 304.39 431.79 579.80 873.28 537.71 1069.57 524.97 976.44 677.48 892.19 707.77 1101.13 695.57
00007181 00000139 772.04 303.11 433.16 580.86 874.77 536.23 1071.28 524.34 977.08 677.43 892.34 706.55 1101.96 695.11
00007182 00000140 774.13 299.92 432.25 584.85 876.71 535.64 1072.03 524.58 977.31 676.20 893.39 707.09 1101.40 696.22
00007183 00000141 777.04 301.06 432.08 584.47 878.50 533.91 1073.88 522.90 978.56 673.66 894.37 707.35 1101.65 696.59
00007184 00000142 780.88 297.97 429.31 586.31 880.82 533.63 1075.54 522.25 980.21 672.25 896.50 707.91 1103.18 696.97
00007185 00000143 783.10 295.09 429.44 588.09 883.54 533.25 1078.74 521.64 983.01 672.38 899.61 708.41 1105.02 697.19
00007186 00000144 788.16 292.26 427.03 589.72 887.62 534.24 1080.65 523.72 985.19 671.38 901.53 707.26 1106.38 696.92
00007187 00000145 790.33 284.51 427.67 598.47 894.30 531.94 1092.28 519.46 995.42 667.76 911.03 707.31 1110.85 698.23
00007188 00000146 793.38 284.70 426.84 598.67 898.67 531.68 1093.72 519.43 999.03 665.45 914.74 706.14 1112.82 697.26
00007189 00000147 795.87 285.53 427.36 596.06 902.36 532.57 1095.09 519.60 1002.37 665.08 918.20 704.69 1115.74 695.23
00007190 00000148 797.96 282.12 428.00 598.71 903.55 533.02 1097.70 519.68 1004.70 665.13 920.83 704.74 1119.66 694.93
00007191 00000149 798.89 282.61 429.39 598.37 905.79 533.10 1100.44 520.11 1007.32 665.56 922.92 705.45 1122.03 695.93
00007192 00000150 800.49 281.88 431.36 598.78 908.24 532.51 1103.31 520.50 1009.65 666.32 924.83 705.08 1123.63 696.29
00007193 00000151 800.82 284.77 433.78 594.84 910.44 531.54 1105.77 519.81 1012.42 664.95 927.33 704.51 1125.35 695.85
00007194 00000152 800.94 284.86 434.80 595.85 911.00 531.58 1106.59 519.52 1013.36 665.61 928.47 704.67 1126.43 695.67
00007195 00000153 802.27 285.28 434.28 594.84 912.32 531.15 1107.48 519.65 1014.53 665.52 929.55 703.47 1127.86 694.86
00007196 00000154 803.14 286.88 435.21 592.72 913.56 530.79 1108.80 520.49 1015.16 665.54 930.12 702.17 1128.59 694.48
00007197 00000155 804.33 288.11 434.08 590.43 914.52 530.46 1109.11 520.62 1015.59 665.45 931.19 701.40 1129.15 694.03
00007198 00000156 804.60 286.82 433.74 592.15 914.90 530.89 1109.28 520.70 1016.14 665.14 931.47 700.85 1130.54 693.07
00007199 00000157 805.41 286.57 433.14 592.29 915.45 530.45 1109.19 520.65 1016.25 665.51 931.62 699.67 1131.48 692.20
00007200 00000158 805.63 286.28 432.95 592.88 915.49 530.58 1109.55 520.71 1016.38 665.70 931.70 699.78 1132.05 692.25
00007201 00000159 805.89 285.62 432.25 593.23 915.76 531.03 1109.38 521.24 1016.51 666.11 930.59 698.36 1132.65 690.84
00007202 00000160 805.49 284.21 432.84 594.32 915.25 532.09 1109.48 522.05 1016.18 666.39 930.38 698.71 1132.43 690.99
00007203 00000161 804.73 285.72 433.40 592.69 914.70 531.94 1108.72 521.83 1015.72 667.56 929.47 698.57 1131.74 690.89
00007204 00000162 804.49 286.31 433.33 592.95 914.17 532.58 1107.94 522.55 1015.26 668.22 929.22 698.95 1132.01 691.31
CROP_BBOX: 443 0 1401 1044
