Video ID: 	pt6LLNHnIfg
H: 	1080
W: 	1920
FPS: 	23.976023976023978

FRAME INDEX X0 Y0 W H [Landmarks (5 Points)]

00029961 00000000 885.71 114.53 344.58 496.34 940.16 304.01 1012.76 285.45 890.70 352.68 932.92 478.52 1007.04 462.68
00029962 00000001 880.55 113.20 349.01 498.85 924.58 296.96 1015.83 286.09 886.36 363.45 923.97 480.74 1003.18 469.26
00029963 00000002 878.02 111.60 340.45 489.18 927.51 290.10 1010.69 285.19 887.63 367.43 927.41 471.80 1003.58 467.26
00029964 DELETE   878.59 112.01 330.60 504.74 922.28 295.84 1007.01 293.17 881.68 375.91 926.16 479.85 1001.14 476.45
00029965 00000004 875.17 124.78 328.13 514.45 919.19 306.68 997.17 303.15 873.30 394.65 930.48 492.42 1007.11 488.76
00029966 00000005 865.13 133.59 341.59 524.85 916.03 309.12 993.25 308.74 878.15 403.34 932.95 507.64 1013.73 504.07
00029967 00000006 861.41 135.05 341.58 534.60 911.66 309.26 988.91 309.58 869.60 401.02 927.62 511.06 1011.92 507.58
00029968 00000007 856.86 133.80 343.41 540.68 910.08 311.90 984.23 311.00 862.39 397.40 924.42 511.60 1006.80 506.65
00029969 00000008 854.70 133.08 344.05 542.57 908.43 313.34 980.59 314.55 858.10 399.56 920.85 510.35 1003.18 506.99
00029970 00000009 854.56 136.81 345.35 525.17 888.78 321.26 976.31 311.06 847.96 409.27 904.63 517.02 999.18 507.70
00029971 00000010 844.92 142.76 336.68 515.09 886.68 326.34 968.95 311.08 844.98 403.24 900.36 507.95 985.82 493.70
00029972 00000011 840.96 141.54 334.90 514.74 882.86 327.25 965.73 313.74 841.59 405.29 895.07 507.71 979.18 495.17
00029973 00000012 840.91 141.57 338.85 515.63 870.11 331.30 965.93 318.00 837.43 411.87 881.24 520.21 978.07 509.23
00029974 00000013 838.43 139.87 339.95 518.89 868.94 331.79 963.75 317.03 833.91 409.98 877.00 522.09 972.06 509.58
00029975 00000014 834.71 128.97 346.45 534.32 883.60 328.04 958.16 318.89 838.59 393.98 886.01 513.21 960.97 503.26
00029976 00000015 836.36 128.58 347.04 527.73 884.00 328.53 956.42 317.56 835.70 392.20 878.98 514.52 947.25 503.80
00029977 00000016 842.83 128.91 341.90 517.74 881.50 331.92 957.39 319.40 837.48 397.55 874.91 518.87 940.07 507.31
00029978 00000017 847.04 131.27 337.98 515.09 884.57 332.32 961.82 320.26 842.83 399.61 876.80 521.83 939.39 510.53
00029979 00000018 846.19 141.76 329.78 501.45 894.77 317.15 974.78 319.04 845.89 405.91 883.07 514.24 947.97 514.39
00029980 00000019 845.91 145.20 333.98 502.03 896.17 320.68 975.86 317.61 850.86 404.02 890.66 515.86 957.56 511.98
00029981 00000020 849.13 147.72 336.40 503.93 895.98 320.77 979.13 315.73 853.98 402.88 895.86 516.86 969.62 511.19
00029982 00000021 852.55 135.42 344.69 521.38 884.52 325.66 978.79 311.64 846.93 409.12 892.50 525.94 981.73 515.30
00029983 00000022 854.56 135.88 343.77 519.75 886.28 322.85 980.12 312.44 848.08 409.69 895.41 522.67 985.29 514.86
00029984 00000023 855.36 136.82 342.15 512.94 887.15 322.30 980.34 312.68 849.70 409.14 894.70 520.08 983.40 513.46
00029985 00000024 851.70 133.90 345.75 524.02 899.36 320.81 980.86 317.02 855.65 395.85 899.25 512.34 975.24 506.12
00029986 00000025 851.13 133.05 346.31 542.35 903.81 322.99 981.36 316.69 857.98 396.77 906.71 521.03 983.73 512.31
00029987 00000026 852.21 135.35 348.54 540.07 903.27 322.13 985.04 316.14 860.02 399.70 907.12 524.48 986.70 516.00
00029988 00000027 855.28 143.95 344.01 520.22 907.04 321.14 986.40 318.33 859.99 401.89 906.50 515.78 981.41 511.54
00029989 00000028 853.13 138.91 345.14 511.10 907.17 319.86 989.91 319.01 861.35 399.76 898.50 507.90 976.17 506.21
00029990 00000029 854.78 135.91 343.27 507.80 907.73 317.86 992.56 317.32 863.42 396.64 897.28 504.54 975.48 503.41
00029991 00000030 855.04 136.68 345.31 514.85 907.74 317.34 996.07 315.36 867.42 393.39 900.72 505.65 984.98 503.18
00029992 00000031 856.08 133.08 345.96 519.94 908.29 315.89 997.45 313.12 868.31 388.66 902.48 503.91 991.36 500.59
00029993 00000032 856.70 131.99 344.33 519.85 908.37 314.33 997.42 312.11 867.97 387.16 902.78 502.52 992.85 499.53
00029994 00000033 856.19 132.30 343.24 520.03 908.93 313.85 997.17 312.57 868.30 386.91 902.38 502.37 990.80 500.10
00029995 00000034 855.01 133.18 340.47 517.32 909.75 312.88 996.68 312.81 868.81 387.94 901.80 502.43 987.63 501.19
00029996 00000035 854.54 135.51 339.66 514.80 909.68 313.51 994.99 312.24 866.75 388.90 902.03 503.65 986.78 501.28
00029997 00000036 855.13 134.51 338.85 515.93 909.94 313.24 995.05 312.46 866.64 389.26 902.28 503.40 987.59 501.39
00029998 00000037 856.39 133.88 339.04 516.85 910.60 313.49 994.47 312.46 867.44 387.99 904.02 502.69 988.88 500.34
00029999 00000038 856.96 132.96 337.77 517.46 910.91 312.13 994.77 312.34 867.80 386.70 905.12 501.22 989.63 499.74
00030000 00000039 857.08 131.22 336.69 514.29 908.65 312.20 996.78 313.50 867.44 387.22 902.24 498.90 990.68 498.65
00030001 00000040 856.41 133.13 334.85 516.96 905.54 315.36 994.13 311.47 861.83 392.75 902.25 504.00 986.96 500.16
00030002 00000041 854.49 130.90 336.22 514.14 913.65 310.93 992.31 312.79 865.00 385.87 903.02 498.56 981.37 498.59
00030003 00000042 853.10 132.58 337.55 515.87 916.10 309.80 991.63 312.66 865.84 385.00 902.87 499.70 976.50 500.55
00030004 00000043 849.62 133.05 338.07 512.94 920.47 310.58 989.51 312.93 864.57 386.27 898.91 501.99 963.39 502.85
00030005 00000044 847.63 128.91 336.19 511.68 922.68 309.01 986.91 314.60 859.98 388.33 893.43 499.80 951.91 503.20
00030006 00000045 843.34 127.10 337.09 514.60 923.69 308.50 985.56 315.78 858.25 387.53 890.31 499.39 948.73 504.11
00030007 00000046 842.14 124.80 336.88 519.31 926.84 306.32 982.32 314.99 857.65 388.13 893.92 499.81 948.11 505.50
00030008 00000047 843.23 126.03 333.48 518.31 926.74 304.85 980.71 315.03 858.52 389.29 897.50 499.47 950.94 506.29
00030009 00000048 844.28 125.76 331.67 517.80 924.49 304.82 981.39 315.65 858.36 390.01 897.48 499.46 953.01 506.82
00030010 00000049 844.27 125.34 331.83 514.72 924.29 308.32 978.69 318.04 855.54 391.48 894.24 498.74 945.52 505.33
00030011 00000050 842.41 127.95 331.42 510.78 907.80 310.14 972.01 317.26 847.45 392.36 886.50 502.93 939.60 507.12
00030012 00000051 843.13 123.83 324.71 514.06 923.27 308.84 973.83 321.35 846.54 394.57 887.79 499.18 935.73 508.03
00030013 00000052 842.40 121.74 326.51 518.73 925.84 307.31 973.65 321.16 848.35 394.54 891.01 497.80 938.00 507.53
00030014 00000053 849.18 119.57 332.55 532.58 920.08 314.80 966.31 318.51 841.59 385.82 899.73 504.22 946.24 504.58
00030015 00000054 845.04 119.65 340.67 544.68 920.03 311.76 970.09 316.38 845.52 383.49 904.80 505.11 957.94 505.85
00030016 00000055 847.13 119.31 339.20 534.69 917.94 314.21 972.30 317.86 847.27 385.17 899.20 505.09 950.98 505.78
00030017 00000056 840.51 121.98 335.27 517.41 924.08 307.20 980.88 321.11 852.18 389.72 888.59 497.73 941.19 507.56
00030018 00000057 840.59 122.41 332.15 514.65 924.35 307.38 979.14 320.79 850.28 389.72 889.05 496.98 940.14 506.41
00030019 00000058 840.97 121.84 329.82 516.67 922.96 304.41 981.39 319.07 850.94 390.02 891.64 495.53 949.28 506.17
00030020 00000059 845.58 120.35 337.63 534.01 917.67 312.30 970.96 317.66 844.44 383.11 899.77 499.23 956.20 501.24
00030021 00000060 845.56 120.72 336.58 537.70 916.81 310.45 969.59 317.94 844.20 383.34 903.77 498.09 963.49 501.27
00030022 00000061 844.14 120.24 340.34 545.19 921.08 310.03 967.02 316.89 843.44 381.53 908.36 501.00 963.51 503.09
00030023 00000062 845.08 118.26 336.82 543.99 922.68 311.21 966.75 320.23 837.54 382.75 903.04 500.12 953.78 504.13
00030024 00000063 838.27 118.22 335.59 531.64 924.34 293.52 967.36 312.58 847.66 391.91 905.14 493.49 955.00 507.53
00030025 00000064 840.04 114.65 338.53 536.50 925.95 291.58 970.37 312.92 848.79 388.83 904.51 490.97 956.63 507.38
00030026 00000065 845.62 114.43 338.09 537.65 924.75 286.75 978.11 307.66 850.96 381.58 902.27 488.71 964.35 505.35
00030027 00000066 849.89 110.48 346.14 543.15 922.70 285.54 991.08 308.33 857.40 377.37 900.57 485.24 976.18 503.45
00030028 00000067 853.47 107.28 349.73 558.57 934.96 288.63 1017.01 319.08 868.64 366.83 903.97 480.12 992.01 502.86
00030029 00000068 855.13 109.44 351.78 556.23 933.97 291.27 1021.50 319.09 873.05 365.96 904.00 481.32 995.53 502.30
00030030 00000069 854.38 111.19 353.74 552.82 931.11 293.39 1022.28 319.28 873.71 365.87 901.43 481.88 993.92 501.62
00030031 00000070 852.88 111.39 353.67 539.19 924.72 295.86 1023.52 321.16 874.58 367.81 896.14 476.94 992.36 496.99
00030032 00000071 851.40 109.61 352.18 527.54 918.58 298.36 1025.20 324.07 876.78 369.52 892.63 471.23 991.88 492.43
00030033 00000072 853.29 110.29 351.23 522.20 918.40 299.39 1025.21 326.48 877.60 372.25 893.12 470.18 992.22 492.60
00030034 00000073 855.28 108.65 351.67 526.72 921.34 299.97 1025.96 327.91 879.43 374.67 894.47 473.45 990.03 496.36
00030035 00000074 855.74 107.98 354.01 524.76 921.42 302.04 1024.39 327.85 880.57 376.46 893.12 476.71 982.55 498.01
00030036 00000075 853.90 106.75 357.04 526.08 915.99 306.23 1024.72 326.93 879.68 378.99 886.72 482.33 980.02 499.84
00030037 00000076 853.88 106.50 356.95 530.39 918.28 309.00 1024.47 328.50 880.29 380.64 886.12 487.51 974.56 504.10
00030038 00000077 856.95 107.51 352.57 533.77 925.28 304.86 1024.22 326.88 886.82 379.27 892.52 486.01 974.88 504.38
00030039 00000078 859.11 108.76 352.90 538.81 929.97 300.24 1027.38 323.91 888.20 374.74 896.64 484.32 982.69 503.78
00030040 00000079 861.89 110.14 351.54 544.37 931.04 297.87 1031.56 322.67 888.48 371.61 899.74 483.37 990.74 503.69
00030041 00000080 863.90 114.50 350.49 555.12 930.31 300.03 1032.50 324.96 883.32 373.78 903.50 487.28 1005.72 506.84
00030042 00000081 863.43 114.21 349.39 556.09 926.13 303.19 1029.64 327.15 882.03 378.39 902.13 490.66 1004.33 509.34
00030043 00000082 859.14 116.94 349.43 556.29 922.10 304.76 1024.18 329.73 877.49 383.06 898.51 497.42 998.96 516.67
00030044 00000083 852.62 123.24 349.61 548.14 915.46 307.34 1016.35 329.26 872.67 383.86 891.12 502.02 985.12 518.91
00030045 00000084 845.01 122.51 354.61 537.98 912.75 313.98 1011.44 331.17 870.52 385.61 881.00 501.66 968.31 515.34
00030046 00000085 843.61 122.27 353.70 526.08 902.13 315.75 1008.44 331.96 869.00 387.46 872.69 495.66 962.57 508.80
00030047 00000086 837.93 124.29 350.16 528.11 899.83 318.50 1004.51 335.95 864.77 389.39 866.79 500.02 955.07 514.08
00030048 00000087 841.98 131.02 345.26 530.73 898.20 320.31 1001.36 340.62 857.63 392.93 869.00 505.81 956.17 521.59
00030049 00000088 843.51 145.14 334.93 541.17 884.91 333.54 999.85 349.72 854.20 414.43 869.76 529.44 960.42 542.07
00030050 DELETE   835.07 161.92 345.86 545.30 879.52 350.54 979.63 357.83 843.48 437.28 879.80 553.72 974.53 561.86
00030051 DELETE   816.85 172.80 357.25 549.52 860.42 357.94 967.53 369.55 830.26 448.09 862.60 565.44 960.22 576.24
00030052 00000091 804.90 177.84 356.34 540.74 848.36 364.33 957.03 377.10 822.48 451.77 846.40 564.09 942.98 575.00
00030053 00000092 803.79 171.99 358.23 537.67 845.38 353.45 957.69 367.48 820.85 440.90 840.04 551.86 942.61 563.55
00030054 00000093 804.60 169.15 358.74 535.11 845.22 350.70 959.27 362.41 822.75 436.67 842.80 547.70 946.93 557.28
00030055 00000094 801.93 171.14 358.40 533.07 841.35 352.81 954.98 365.22 819.49 440.46 838.89 548.77 943.82 558.90
00030056 00000095 796.04 176.83 357.48 532.53 834.70 360.71 947.65 370.80 811.38 444.77 831.50 553.78 935.53 561.92
00030057 00000096 787.90 175.91 357.61 537.44 829.09 367.03 942.78 378.22 805.65 450.13 825.95 555.94 931.72 564.67
00030058 00000097 781.37 167.60 359.94 546.05 817.49 366.65 935.39 377.89 795.64 460.18 823.53 556.46 935.03 567.07
00030059 00000098 777.30 165.79 362.34 549.34 812.93 365.84 934.47 377.22 793.40 461.45 822.26 555.91 937.30 566.64
00030060 00000099 777.17 168.27 362.58 550.36 811.88 367.03 934.56 377.86 793.90 463.45 821.58 558.17 938.76 568.25
00030061 00000100 778.20 171.58 362.73 552.02 814.30 367.20 935.63 377.95 794.40 463.72 823.43 559.26 941.73 568.69
00030062 00000101 778.38 173.14 362.95 555.47 815.68 367.39 935.58 377.73 794.15 464.22 825.01 561.01 943.44 569.47
00030063 00000102 778.40 174.45 363.89 556.07 817.23 367.94 936.02 379.05 794.54 465.24 825.89 561.51 943.47 570.25
00030064 00000103 777.48 173.69 364.75 554.85 816.82 367.88 936.09 378.93 795.48 464.18 824.90 560.12 942.08 569.16
00030065 00000104 775.18 165.30 362.08 552.94 813.57 362.41 934.28 375.37 794.23 458.81 819.79 550.76 934.96 562.24
00030066 00000105 778.39 147.19 357.76 558.74 820.13 354.69 938.93 369.18 802.51 447.49 821.60 544.04 938.24 553.39
00030067 DELETE   782.12 145.50 355.61 552.18 826.43 345.41 937.36 357.06 803.06 436.44 825.08 535.95 937.93 543.12
00030068 DELETE   786.58 137.13 353.60 553.23 826.37 334.66 945.14 341.85 803.51 411.95 823.86 524.29 934.50 529.08
00030069 00000108 789.90 128.40 354.04 550.95 836.07 321.49 946.99 327.62 807.98 395.15 827.06 512.85 932.18 517.32
00030070 00000109 795.93 121.57 347.93 541.57 841.55 316.29 948.57 319.09 813.63 383.55 830.14 504.75 929.10 506.99
CROP_BBOX: 565 0 1439 855
