Video ID: 	VmFQKQ9tuiQ
H: 	1080
W: 	1920
FPS: 	23.976023976023978

FRAME INDEX X0 Y0 W H [Landmarks (5 Points)]

00000351 00000000 724.34 258.75 358.23 551.21 817.05 508.27 966.13 505.41 896.75 617.31 852.96 681.64 974.59 679.63
00000352 00000001 722.21 257.31 359.54 552.31 816.05 509.44 965.89 507.25 895.37 615.90 851.26 681.44 973.38 679.89
00000353 00000002 722.25 256.76 356.20 552.12 815.83 507.50 965.22 505.45 894.97 613.82 851.38 680.72 971.71 679.41
00000354 00000003 721.39 256.44 356.82 551.91 815.19 505.85 965.04 503.87 894.15 611.85 850.68 680.26 970.75 679.11
00000355 00000004 720.59 255.40 356.41 553.14 815.02 505.24 964.33 502.62 894.36 610.92 851.98 680.39 970.20 678.78
00000356 00000005 718.98 251.87 357.65 556.05 815.07 502.34 964.52 501.15 894.23 609.11 851.67 679.67 967.82 679.40
00000357 00000006 717.83 249.79 358.18 557.97 814.10 499.08 963.91 497.33 893.68 607.30 851.41 678.46 967.19 677.78
00000358 00000007 716.06 247.36 361.42 560.15 813.10 497.08 962.93 495.55 893.06 605.68 850.62 676.65 967.49 675.91
00000359 00000008 714.94 244.14 362.29 561.88 813.24 495.76 962.07 494.12 893.07 600.31 850.83 674.42 966.72 673.53
00000360 00000009 716.08 241.16 364.03 563.72 813.27 488.71 961.97 482.81 894.63 596.49 852.92 671.37 970.16 666.74
00000361 DELETE   718.49 236.54 357.93 561.77 814.14 474.20 965.38 465.80 898.04 582.32 851.93 662.08 971.78 655.35
00000362 00000011 716.72 224.42 356.16 567.07 814.17 447.13 965.77 441.81 900.63 562.22 852.16 647.85 963.74 643.39
00000363 DELETE   713.91 221.30 359.90 558.32 812.90 436.64 967.01 427.75 902.16 542.95 855.16 634.21 967.46 626.70
00000364 00000013 716.03 223.73 361.80 547.83 813.56 428.95 969.06 419.56 902.81 532.17 857.24 627.50 969.33 619.84
00000365 00000014 719.81 218.56 358.05 550.86 814.77 422.27 971.03 412.29 905.22 526.59 858.84 625.14 970.21 617.23
00000366 00000015 721.19 217.38 359.79 550.61 815.09 419.08 974.06 406.42 907.37 521.55 859.00 623.30 972.24 613.55
00000367 00000016 722.82 218.57 360.83 548.36 816.54 417.36 975.64 404.12 908.77 518.74 859.63 622.12 973.21 612.03
00000368 00000017 724.84 221.27 362.21 546.94 818.05 416.10 976.87 402.08 908.59 515.97 860.16 621.51 974.95 610.78
00000369 00000018 725.80 220.00 358.41 553.11 818.72 417.19 973.92 402.31 908.27 515.96 862.51 623.90 975.92 612.59
00000370 00000019 726.55 226.84 357.59 549.99 822.01 422.69 972.03 409.11 908.43 522.09 863.89 626.17 975.99 615.97
00000371 00000020 726.61 228.01 358.65 554.90 826.14 435.90 973.03 427.03 909.93 534.91 861.58 630.73 975.87 624.01
00000372 00000021 729.34 226.03 354.00 564.28 827.90 449.37 971.41 437.98 910.40 552.17 862.19 643.94 975.00 634.89
00000373 00000022 730.48 226.95 355.64 567.97 828.24 458.22 970.25 452.79 908.57 564.56 859.66 649.99 973.39 645.94
00000374 00000023 730.80 235.28 356.63 561.03 829.99 465.96 970.51 459.97 908.91 571.82 862.74 654.49 975.38 649.83
00000375 00000024 730.43 236.53 359.27 559.45 828.76 471.11 972.43 463.50 909.24 579.92 863.36 657.69 979.81 651.73
00000376 00000025 730.89 238.21 360.37 557.97 830.49 473.59 973.27 463.83 911.73 584.13 865.43 659.61 982.16 651.90
00000377 00000026 730.84 237.95 361.89 558.52 832.28 475.43 973.37 466.00 912.74 585.19 867.05 659.37 982.87 651.88
00000378 00000027 732.61 238.05 360.75 556.88 833.72 475.84 974.55 466.06 914.61 586.38 867.73 658.24 984.31 650.41
00000379 00000028 734.53 239.83 359.17 553.52 835.45 476.35 976.68 466.65 916.71 586.76 869.08 658.23 985.59 650.64
00000380 00000029 735.20 240.20 359.32 552.39 836.35 477.62 978.08 466.54 919.26 587.27 870.46 658.27 988.05 649.61
00000381 00000030 734.46 241.28 359.73 549.42 836.42 479.78 978.36 468.66 920.84 587.05 871.37 658.82 987.75 650.41
00000382 00000031 733.86 242.17 360.62 547.70 836.14 480.15 979.24 468.81 921.50 587.58 871.79 659.69 987.84 651.09
00000383 00000032 733.74 242.23 361.70 547.40 836.34 480.43 979.73 469.32 921.82 589.16 872.42 660.51 987.83 652.14
00000384 00000033 733.21 243.36 360.47 545.85 835.60 480.99 979.74 469.39 922.25 590.02 872.90 661.48 988.18 652.69
00000385 00000034 732.56 242.83 361.32 546.53 835.57 480.69 979.78 469.07 922.45 589.89 873.00 661.62 987.92 652.80
00000386 00000035 731.47 243.45 361.60 545.64 834.63 481.02 979.60 469.07 921.99 590.19 872.40 662.07 987.86 652.98
00000387 00000036 730.56 244.00 361.33 545.74 833.51 481.66 979.01 469.56 921.01 590.54 870.19 661.93 986.75 652.67
00000388 00000037 729.63 242.57 362.92 548.06 832.19 480.75 977.93 468.38 919.30 590.61 869.12 662.29 985.40 652.78
00000389 00000038 728.30 243.06 363.72 548.41 830.44 480.80 976.48 468.33 916.96 588.91 868.20 662.75 984.63 653.01
00000390 00000039 729.43 241.39 362.58 550.54 829.39 479.79 975.38 467.47 914.90 588.98 867.27 662.79 984.62 653.06
00000391 00000040 729.39 238.99 362.36 552.47 827.30 477.42 973.57 464.16 912.47 586.66 866.68 662.28 984.10 651.70
00000392 00000041 728.46 237.71 362.63 554.03 826.31 475.53 973.17 464.17 910.91 584.29 864.90 661.55 982.48 652.58
00000393 00000042 728.33 238.27 360.94 553.44 825.12 475.39 972.32 464.29 909.06 584.22 863.76 661.24 981.58 652.48
00000394 00000043 730.13 239.28 358.21 551.29 825.48 473.34 971.64 463.65 907.74 580.27 863.61 659.15 979.42 651.60
00000395 00000044 730.00 237.72 356.22 551.26 826.88 468.95 970.42 461.95 906.86 574.40 862.08 653.81 974.57 648.51
00000396 00000045 725.78 236.23 358.31 547.42 827.90 458.82 969.72 450.73 909.52 562.03 863.35 647.23 968.01 641.02
00000397 00000046 722.91 229.40 358.58 544.93 834.75 444.36 974.29 434.11 919.61 545.82 872.19 635.96 971.10 628.12
00000398 00000047 726.80 229.66 358.87 537.77 831.78 432.98 974.68 419.55 919.17 528.23 872.34 626.04 975.09 616.54
00000399 00000048 725.00 223.10 364.29 546.09 827.59 421.84 978.09 405.04 919.18 514.73 870.46 623.75 980.39 611.04
00000400 00000049 724.73 218.20 365.84 551.49 826.02 415.69 983.68 397.29 919.92 502.75 865.74 620.05 984.89 605.75
00000401 00000050 718.69 205.46 363.61 550.16 823.86 419.57 976.44 402.83 917.31 508.79 858.77 610.80 987.03 598.61
00000402 00000051 717.70 202.09 364.50 537.42 824.97 418.12 976.94 403.46 915.40 506.96 859.53 601.09 985.55 590.70
00000403 00000052 719.08 202.88 362.08 527.68 824.91 416.08 978.05 401.04 915.59 504.39 859.82 594.54 987.95 583.88
00000404 00000053 720.61 202.17 362.27 528.48 826.16 413.36 978.32 399.67 915.92 500.85 859.50 591.52 988.37 582.08
00000405 00000054 717.69 203.81 364.55 531.55 827.09 408.91 976.08 398.86 913.74 498.62 856.25 591.38 979.62 585.26
00000406 00000055 716.14 203.05 366.57 535.78 825.15 407.58 974.42 396.86 912.52 495.02 856.69 592.67 981.34 585.72
00000407 00000056 715.56 200.24 366.70 527.46 820.14 402.63 972.82 392.19 907.21 489.19 857.18 587.20 983.56 580.15
00000408 00000057 710.64 198.33 369.84 523.60 814.78 395.43 969.29 387.01 899.50 479.03 852.42 580.17 977.90 575.02
00000409 00000058 707.80 198.65 367.32 521.69 811.14 392.35 964.94 383.71 896.41 474.20 850.57 577.28 973.63 571.94
00000410 00000059 710.84 203.94 360.04 512.79 813.73 392.06 962.38 382.53 896.04 468.19 850.76 571.19 972.75 565.09
00000411 00000060 710.26 200.76 363.53 510.74 812.61 381.43 964.15 372.08 895.23 457.91 849.55 564.30 972.11 558.13
00000412 00000061 710.68 192.68 367.18 501.95 809.68 371.85 967.78 360.82 894.40 443.81 845.38 552.62 969.06 544.48
00000413 00000062 713.90 182.63 364.15 500.13 812.46 359.48 972.65 349.66 900.07 434.14 847.85 542.60 968.21 535.19
00000414 00000063 715.32 175.70 365.79 500.45 815.20 353.76 975.34 340.40 904.69 426.27 851.62 538.66 970.68 528.50
00000415 00000064 715.43 175.62 363.78 495.38 816.72 349.79 974.78 335.69 905.38 419.19 852.55 533.92 969.73 523.33
00000416 00000065 716.96 177.12 360.06 493.57 818.62 344.46 975.95 330.05 905.37 415.20 853.55 531.45 968.36 520.84
00000417 00000066 717.34 176.90 356.54 495.70 817.25 339.90 972.09 326.00 901.86 410.60 852.38 527.08 965.00 517.29
00000418 00000067 713.97 169.72 357.07 504.52 813.52 335.83 971.35 321.32 899.36 410.22 850.53 530.05 963.73 519.56
00000419 00000068 709.01 165.72 358.96 507.56 810.92 335.18 970.04 322.28 898.82 411.30 849.58 530.74 962.94 521.08
00000420 00000069 703.57 163.03 364.28 507.19 807.66 336.43 965.80 324.86 897.53 415.87 847.82 530.16 960.74 520.95
00000421 00000070 694.70 151.63 370.04 515.36 804.71 342.65 967.72 333.34 896.38 417.56 841.24 528.08 971.11 521.09
00000422 00000071 691.81 151.45 372.82 520.02 803.29 340.84 965.79 332.70 896.71 417.48 840.51 529.14 969.62 523.01
00000423 00000072 691.15 147.50 374.92 528.76 804.23 338.38 966.92 331.04 895.99 418.34 840.52 529.68 968.69 524.36
00000424 00000073 701.78 157.47 368.91 525.37 801.97 326.42 966.21 316.29 890.79 415.34 842.62 532.59 960.46 524.70
00000425 00000074 706.01 149.14 369.14 541.98 804.80 325.44 967.87 315.04 892.17 410.33 844.92 535.06 960.96 527.80
00000426 00000075 705.01 132.48 368.86 556.30 813.35 332.92 976.80 327.47 900.26 414.24 842.62 538.34 968.09 535.75
00000427 00000076 708.76 128.93 372.10 557.68 816.18 333.98 977.78 325.84 903.09 415.96 847.19 539.02 970.70 534.25
00000428 00000077 718.23 146.99 372.72 544.82 818.42 326.55 982.76 312.84 906.04 408.86 854.98 538.43 971.84 528.74
00000429 00000078 728.58 154.58 367.41 538.46 826.90 328.98 988.55 314.04 914.64 409.62 858.99 537.63 976.36 527.93
00000430 00000079 734.96 154.29 370.19 531.30 835.12 334.72 999.77 319.82 925.00 411.99 864.69 539.00 986.97 528.81
00000431 00000080 743.62 150.43 369.87 525.39 842.23 338.10 1009.70 321.82 938.53 412.73 874.61 539.54 1002.52 527.12
00000432 00000081 749.55 145.94 372.18 522.40 847.81 338.20 1017.80 321.74 944.75 415.13 884.84 538.07 1013.53 524.42
00000433 00000082 747.65 127.83 383.29 533.79 861.19 329.02 1025.39 326.00 951.23 412.45 897.16 523.74 1026.53 521.75
00000434 00000083 754.82 115.87 385.62 543.71 864.55 321.48 1030.18 315.21 954.93 408.15 903.28 518.43 1032.55 514.34
00000435 00000084 762.03 114.56 377.64 537.22 866.30 310.45 1031.57 305.70 955.17 399.23 904.76 508.06 1031.25 505.14
00000436 00000085 764.97 106.17 375.05 539.47 868.27 297.45 1033.38 296.27 956.85 389.16 905.26 498.85 1028.73 498.54
00000437 00000086 766.10 102.49 373.60 539.99 868.17 294.51 1033.02 292.79 956.43 384.03 903.90 496.68 1025.87 495.93
00000438 00000087 764.73 101.34 373.08 541.07 866.29 294.43 1029.78 293.18 953.91 383.22 902.73 495.45 1024.27 495.00
00000439 00000088 759.37 110.10 375.86 539.04 862.17 307.31 1027.23 293.20 950.83 389.31 895.28 506.91 1024.47 495.75
00000440 00000089 753.93 107.39 379.41 552.10 857.53 306.67 1021.56 305.21 944.91 398.58 892.69 510.68 1016.19 510.48
00000441 00000090 751.58 121.55 373.32 542.98 853.84 327.38 1015.30 317.94 938.19 412.86 883.08 521.98 1013.86 515.54
00000442 00000091 750.02 142.28 371.57 530.73 847.32 334.57 1014.35 320.86 940.48 411.97 880.62 534.31 1007.13 523.82
00000443 00000092 752.67 152.91 366.05 520.28 848.60 337.98 1011.06 324.05 938.89 412.37 881.25 536.26 1003.32 526.02
00000444 00000093 757.57 158.15 361.33 516.07 852.12 341.81 1010.92 329.00 938.18 410.30 882.22 535.94 1003.27 527.03
00000445 00000094 761.90 158.51 358.57 519.06 856.53 340.40 1016.00 329.17 942.87 409.58 884.93 537.40 1006.89 529.57
00000446 00000095 769.03 166.30 352.49 513.84 863.54 338.19 1020.15 328.99 946.57 409.67 887.17 537.51 1007.44 531.58
00000447 00000096 771.82 166.97 349.62 513.97 866.91 337.58 1026.13 331.20 949.67 409.00 885.65 537.88 1009.43 534.31
00000448 00000097 767.67 167.72 351.67 513.39 864.80 338.37 1026.00 334.58 947.69 409.65 880.24 538.80 1004.09 538.06
00000449 00000098 762.43 167.92 350.48 511.16 860.51 340.48 1020.00 337.36 941.68 410.29 874.07 538.90 994.04 539.34
00000450 00000099 757.25 165.90 348.61 506.37 854.87 343.81 1015.45 340.67 939.31 412.73 872.61 537.96 991.41 538.07
00000451 00000100 758.48 175.54 339.94 481.46 854.76 347.36 1010.16 347.18 936.18 420.59 872.93 528.03 994.64 528.98
00000452 00000101 753.04 175.53 343.25 483.46 850.01 349.54 1006.14 348.09 931.72 422.20 869.46 529.76 991.54 529.72
00000453 00000102 750.76 177.21 343.83 482.44 846.32 350.24 1001.17 348.52 926.33 423.89 867.48 530.88 986.87 530.39
00000454 00000103 750.27 176.87 342.84 482.09 844.44 351.93 996.20 348.98 922.67 424.17 869.35 530.32 980.79 528.44
00000455 00000104 755.49 177.37 340.52 500.82 848.77 346.19 1002.12 341.02 927.12 417.31 863.81 538.28 979.44 537.89
00000456 00000105 757.03 179.08 340.61 507.24 850.19 347.61 1001.83 342.84 925.27 415.54 862.06 541.13 980.33 541.36
00000457 00000106 758.32 179.59 341.34 512.73 852.64 350.08 1004.76 344.59 927.91 416.42 863.31 543.49 984.37 543.11
00000458 00000107 759.05 179.31 342.02 515.10 852.45 346.99 1006.28 340.90 928.49 414.46 862.93 543.83 986.07 543.10
00000459 00000108 759.79 178.33 342.40 515.19 851.84 345.31 1006.59 338.25 927.74 413.64 862.29 540.40 989.05 538.54
00000460 00000109 758.97 174.60 341.75 509.29 851.82 344.69 1007.58 339.01 927.05 412.19 861.15 532.36 991.63 531.04
00000461 00000110 757.41 172.11 339.92 486.01 849.16 346.88 1004.08 343.77 927.65 420.02 867.11 523.66 991.70 522.17
00000462 00000111 757.78 170.11 340.29 483.89 848.69 348.81 1004.78 343.63 928.98 420.01 870.73 524.08 993.37 520.63
00000463 00000112 758.07 175.16 344.25 495.45 851.31 347.48 1006.10 338.69 929.53 414.70 869.01 532.20 989.10 528.11
00000464 00000113 758.76 175.42 345.99 503.30 852.59 346.31 1007.87 338.49 929.60 413.08 864.87 535.51 988.06 532.74
00000465 00000114 759.22 174.01 345.30 500.67 851.32 347.04 1009.26 341.10 928.58 414.70 864.56 534.60 990.65 533.01
00000466 00000115 757.22 173.12 349.61 503.49 851.59 348.02 1010.28 341.64 930.49 417.06 866.33 536.64 992.95 534.19
00000467 00000116 755.53 172.53 351.23 502.68 850.59 351.04 1008.56 344.24 931.32 420.42 867.24 538.54 992.86 535.60
00000468 00000117 753.15 172.92 351.04 501.31 848.74 352.91 1005.62 344.91 930.37 424.78 868.65 541.25 991.10 537.34
00000469 00000118 752.05 174.71 349.50 500.60 848.58 355.09 1000.72 347.40 928.31 425.11 866.49 539.06 988.49 535.61
00000470 00000119 749.45 177.87 351.79 499.47 847.53 355.79 998.92 349.84 925.51 427.26 863.16 538.86 985.30 536.89
00000471 00000120 748.11 176.43 353.08 504.46 845.20 354.03 997.56 350.67 923.07 429.13 861.30 539.83 981.20 539.94
00000472 00000121 746.63 177.51 354.72 505.47 843.12 353.88 996.85 350.35 921.59 429.52 860.08 541.34 980.05 541.26
00000473 00000122 748.01 177.14 352.57 504.29 842.50 353.34 996.89 349.90 919.23 428.38 858.65 540.32 981.76 540.29
00000474 00000123 747.81 176.11 352.14 504.76 841.91 352.76 995.76 347.51 918.85 426.38 859.29 540.52 981.51 539.07
00000475 00000124 747.66 176.49 353.23 504.53 841.09 352.43 995.90 347.24 918.21 427.59 859.94 541.02 981.01 539.51
00000476 00000125 747.25 179.05 352.46 502.76 840.79 353.42 996.89 349.36 917.68 432.71 858.38 543.26 979.80 542.52
00000477 00000126 747.12 178.41 352.32 505.74 839.49 355.20 994.96 350.54 916.35 435.61 858.22 545.65 977.83 544.50
00000478 00000127 746.53 178.64 353.79 506.41 839.91 355.71 993.82 350.07 917.21 435.85 860.12 547.78 974.82 545.93
00000479 00000128 746.59 178.62 354.21 506.74 839.25 355.46 994.46 350.62 916.57 435.70 858.65 546.67 977.87 545.27
00000480 00000129 745.31 178.96 356.03 505.45 838.08 355.01 992.69 351.02 914.75 435.95 857.17 544.64 976.83 543.88
00000481 00000130 744.45 178.76 356.75 505.54 836.82 354.86 991.49 350.37 913.75 435.38 856.06 544.12 976.39 542.94
00000482 00000131 743.89 178.51 357.20 505.41 835.10 355.09 989.84 350.36 911.73 436.09 854.87 544.19 975.55 542.78
00000483 00000132 743.45 177.25 356.76 506.00 834.44 354.95 988.72 350.93 911.31 436.76 854.76 543.81 974.66 542.94
00000484 00000133 743.14 177.88 355.37 505.48 833.45 355.92 989.19 351.43 910.53 438.23 853.88 545.08 974.74 543.75
00000485 00000134 742.75 177.81 354.14 504.03 832.04 357.21 988.07 350.46 909.61 440.50 853.87 546.81 975.52 543.59
00000486 00000135 741.26 176.72 355.52 507.22 830.02 356.75 986.13 350.66 907.55 441.30 853.01 547.36 973.69 544.60
00000487 00000136 741.60 174.45 355.75 510.77 830.43 355.64 984.22 349.06 908.39 440.15 856.83 547.86 971.74 544.89
00000488 00000137 738.93 173.84 360.70 524.36 827.34 353.88 980.04 347.99 901.65 437.30 851.54 549.17 969.76 547.00
00000489 00000138 736.62 173.96 362.98 529.22 824.99 354.92 979.43 350.28 899.20 438.95 847.19 548.26 972.27 546.80
00000490 00000139 737.28 174.14 359.18 518.12 826.51 354.32 981.44 352.45 902.45 441.15 847.04 544.48 971.07 545.43
00000491 00000140 736.89 176.69 358.89 513.01 826.36 356.08 981.59 354.77 901.72 442.85 846.45 543.48 970.62 544.66
00000492 00000141 734.30 177.13 362.26 515.02 825.50 357.26 980.38 354.52 901.98 444.79 848.55 545.64 968.55 545.53
00000493 00000142 732.17 176.66 365.40 518.07 823.61 360.77 978.56 357.16 900.84 448.58 849.41 550.24 968.29 549.27
00000494 00000143 733.32 179.81 363.31 515.70 822.41 361.53 976.63 358.33 897.45 450.07 848.10 552.18 964.44 551.63
00000495 00000144 733.55 179.83 362.13 516.28 822.66 363.09 977.04 359.39 897.64 451.47 848.38 553.27 966.55 552.37
00000496 00000145 734.54 178.87 360.25 516.61 822.74 364.35 977.51 360.88 897.66 453.60 847.55 551.59 970.70 550.70
00000497 00000146 734.14 178.28 360.53 516.96 823.38 363.44 977.71 360.68 898.72 453.38 849.08 553.87 967.08 553.52
00000498 00000147 733.85 178.81 362.86 522.97 823.05 362.59 974.62 356.23 896.95 450.99 852.60 557.45 964.69 554.41
00000499 00000148 734.44 179.65 363.13 518.31 824.55 362.04 976.58 358.15 899.24 450.90 850.16 551.87 966.65 550.89
00000500 00000149 736.35 180.88 360.90 510.92 826.30 362.13 978.56 359.09 902.33 451.77 850.12 548.49 969.54 548.10
00000501 00000150 737.12 180.43 359.83 510.10 825.71 362.80 977.67 359.56 902.09 451.49 849.61 547.78 970.59 547.25
00000502 00000151 735.82 181.77 360.20 513.01 824.38 363.66 976.81 359.68 900.05 453.34 849.39 550.36 969.92 549.31
00000503 00000152 736.01 181.73 360.03 517.49 824.20 363.91 976.13 360.36 897.90 456.96 849.79 552.97 967.00 552.41
00000504 00000153 736.02 183.26 361.19 518.56 824.08 364.06 975.38 359.33 897.50 457.09 850.94 554.63 968.06 553.03
00000505 00000154 737.46 182.69 358.60 514.36 824.13 364.53 977.07 359.19 899.55 457.29 851.14 555.06 970.71 553.02
00000506 00000155 737.07 181.96 358.54 512.03 823.58 364.35 978.02 359.54 900.39 456.68 851.23 554.52 971.11 552.84
00000507 00000156 737.36 181.21 357.83 513.30 823.73 364.76 977.96 359.27 900.64 456.98 850.83 552.38 974.03 549.78
00000508 00000157 737.79 180.98 357.30 513.32 823.94 365.36 976.45 359.69 900.10 457.59 850.62 550.96 974.31 548.12
00000509 00000158 737.92 180.61 357.96 514.35 824.33 366.35 977.01 360.41 900.92 459.37 851.39 552.45 974.62 549.39
00000510 00000159 738.73 180.76 359.19 518.15 825.26 367.32 975.97 360.73 899.98 460.25 851.61 555.79 972.08 552.48
00000511 00000160 737.74 182.37 360.52 519.75 824.95 367.58 974.31 360.99 898.48 460.25 852.30 556.09 971.27 552.76
00000512 00000161 736.39 181.18 361.90 519.32 824.00 366.69 974.88 362.00 898.71 459.85 850.02 553.78 970.62 551.87
00000513 00000162 735.66 182.81 361.45 518.52 824.60 365.71 974.41 362.11 897.99 458.81 850.93 554.03 967.89 553.19
00000514 00000163 735.61 183.70 360.86 523.13 823.86 365.03 974.58 361.58 896.23 458.77 849.35 556.25 967.83 555.51
00000515 00000164 735.63 182.62 360.74 528.64 822.20 366.08 973.36 362.15 894.08 460.00 847.85 558.28 969.30 556.91
00000516 00000165 733.67 182.42 362.42 530.71 820.85 366.46 973.08 362.78 893.98 461.60 847.70 559.27 970.06 557.88
00000517 00000166 733.58 181.44 362.14 531.73 820.79 366.28 972.43 363.14 893.85 462.37 847.16 559.58 969.06 558.66
00000518 00000167 732.98 181.13 362.76 528.68 821.33 366.79 971.93 363.33 894.83 463.08 848.43 558.72 967.81 557.61
00000519 00000168 733.86 181.38 362.18 523.20 821.94 368.02 971.81 363.03 896.33 462.26 849.98 557.48 968.63 555.20
00000520 00000169 735.50 179.70 360.17 521.64 822.03 369.12 972.28 363.60 897.28 461.75 849.28 557.55 969.29 555.08
