Video ID: 	Y1IjInlhAU8
H: 	2160
W: 	3840
FPS: 	23.976023976023978

FRAME INDEX X0 Y0 W H [Landmarks (5 Points)]

00028992 00000000 1694.03 346.92 741.69 957.94 1925.72 808.10 2197.81 700.56 2137.06 901.66 2074.38 1092.13 2302.12 1000.69
00028993 DELETE   1684.04 353.32 733.51 952.95 1913.12 807.38 2185.03 705.39 2125.43 901.58 2065.25 1094.56 2290.37 1007.92
00028994 00000002 1669.61 348.33 724.96 968.84 1898.49 806.39 2178.15 709.60 2116.89 901.17 2051.01 1103.28 2284.79 1021.58
00028995 00000003 1653.97 356.73 740.52 973.07 1896.75 821.38 2162.90 710.54 2111.07 902.70 2049.17 1112.73 2268.06 1018.64
00028996 00000004 1651.18 362.64 732.29 976.50 1869.74 842.47 2160.03 697.01 2113.27 903.17 2015.87 1137.37 2274.12 1017.11
00028997 00000005 1643.49 369.81 728.29 970.64 1861.89 843.11 2146.19 699.43 2101.92 911.18 2000.53 1131.69 2257.56 1013.47
00028998 00000006 1632.12 382.48 738.44 962.38 1846.37 842.95 2136.29 699.57 2082.37 920.01 1983.01 1129.29 2247.90 1011.60
00028999 00000007 1626.27 385.79 736.95 955.79 1840.30 836.10 2130.93 698.01 2073.46 921.57 1978.37 1127.08 2239.30 1013.52
00029000 00000008 1621.87 382.72 739.49 961.44 1834.52 832.14 2123.50 695.78 2066.96 918.27 1977.67 1130.18 2232.09 1017.48
00029001 00000009 1618.64 379.85 739.13 968.57 1830.18 830.45 2119.81 692.56 2062.83 919.05 1970.05 1129.47 2229.78 1015.32
00029002 00000010 1615.34 370.27 733.04 972.60 1823.81 827.08 2110.21 692.76 2053.41 915.00 1970.72 1126.99 2222.98 1015.56
00029003 00000011 1612.06 372.03 732.14 969.03 1820.48 822.91 2109.80 690.83 2050.76 915.51 1969.35 1124.28 2223.45 1014.17
00029004 00000012 1611.15 366.05 727.24 972.99 1820.20 814.91 2104.36 688.29 2046.92 906.42 1966.73 1116.60 2214.69 1010.96
00029005 00000013 1617.05 366.35 717.78 969.24 1824.20 809.78 2102.96 685.98 2048.26 900.25 1973.00 1119.05 2209.17 1015.82
00029006 00000014 1623.73 362.88 709.86 969.27 1830.13 807.78 2107.24 684.54 2056.26 900.33 1979.82 1124.06 2210.86 1021.59
00029007 00000015 1619.78 378.14 719.25 969.74 1836.96 800.29 2103.38 683.40 2062.22 891.04 1995.64 1137.03 2212.85 1040.78
00029008 00000016 1625.94 380.03 718.93 975.57 1849.22 794.14 2113.59 682.73 2073.13 896.24 2001.68 1143.36 2212.80 1052.08
00029009 00000017 1632.25 372.85 721.12 990.44 1858.69 791.64 2126.89 677.21 2090.72 887.36 2007.75 1143.33 2227.25 1049.50
00029010 00000018 1644.81 370.94 719.75 985.63 1866.55 789.53 2140.96 677.83 2099.32 874.69 2013.46 1136.71 2240.38 1045.13
00029011 00000019 1655.61 366.62 711.35 984.74 1877.91 782.76 2153.70 675.82 2111.83 864.98 2019.74 1129.08 2251.77 1041.85
00029012 00000020 1665.34 361.85 707.89 992.84 1879.52 776.28 2161.23 676.36 2119.25 853.76 2018.27 1121.14 2261.61 1039.77
00029013 00000021 1667.78 360.58 711.69 995.53 1885.06 772.11 2172.34 675.82 2127.16 842.31 2020.50 1115.40 2272.42 1036.67
00029014 00000022 1674.96 353.95 710.20 999.74 1888.78 764.96 2177.86 670.62 2130.49 835.22 2020.89 1108.10 2275.32 1030.44
00029015 00000023 1683.09 347.96 708.91 1001.13 1891.27 756.34 2186.63 665.86 2130.58 828.24 2022.16 1100.34 2279.80 1024.96
00029016 00000024 1685.29 346.82 712.75 1002.13 1891.36 752.47 2192.62 659.10 2130.25 826.77 2022.45 1098.25 2285.94 1019.69
00029017 00000025 1682.35 340.37 718.94 1001.19 1888.29 747.21 2194.80 651.85 2130.00 825.46 2021.71 1093.87 2287.81 1012.54
00029018 00000026 1670.48 327.84 722.19 997.11 1896.47 737.53 2186.72 650.40 2135.77 836.61 2050.73 1076.43 2297.13 1003.38
00029019 00000027 1672.17 324.27 722.10 995.90 1900.30 734.75 2187.55 649.08 2136.83 836.66 2051.40 1070.47 2296.41 998.56
00029020 00000028 1679.56 319.77 715.36 991.52 1911.30 734.13 2192.50 652.15 2142.26 841.37 2052.55 1065.30 2292.00 996.88
00029021 00000029 1503.39 262.34 854.82 1123.18 1709.41 719.71 2042.96 612.00 1920.33 842.38 1867.11 1109.23 2152.89 1018.68
00029022 00000030 1514.43 290.98 865.47 1102.53 1731.26 733.17 2055.96 611.17 1944.72 844.61 1892.97 1108.70 2179.08 1005.10
00029023 00000031 1521.72 290.90 861.32 1096.88 1740.19 736.00 2063.60 617.05 1952.56 843.33 1897.23 1106.78 2180.69 1004.85
00029024 00000032 1523.43 292.60 861.33 1093.11 1746.37 732.51 2068.92 618.33 1957.72 845.20 1898.95 1103.77 2182.00 1004.98
00029025 00000033 1528.89 288.79 855.48 1094.63 1755.99 732.47 2074.81 621.26 1966.66 848.79 1904.90 1104.08 2181.38 1008.02
00029026 00000034 1533.95 278.75 858.26 1103.71 1763.09 731.09 2076.99 619.97 1974.62 849.89 1913.17 1104.95 2184.94 1008.68
00029027 00000035 1541.64 265.94 855.32 1111.54 1771.47 732.76 2082.76 623.75 1983.20 850.17 1916.26 1102.67 2189.42 1007.61
00029028 00000036 1553.07 269.69 852.20 1110.80 1785.19 738.98 2097.10 630.14 2002.34 853.72 1927.64 1107.08 2204.60 1011.32
00029029 00000037 1562.14 276.80 859.98 1107.54 1796.17 731.64 2116.73 623.38 2022.99 853.61 1939.49 1110.67 2217.25 1015.36
00029030 00000038 1570.73 279.16 863.68 1108.65 1808.97 739.89 2129.34 618.64 2047.89 847.46 1969.13 1120.20 2240.30 1014.51
00029031 00000039 1590.12 238.04 863.18 1145.40 1836.11 720.56 2161.45 612.64 2081.93 835.75 2014.04 1108.71 2285.48 1019.02
00029032 DELETE   1614.62 242.20 854.18 1141.37 1865.07 713.33 2188.47 595.47 2127.69 823.05 2069.37 1120.49 2336.28 1022.34
00029033 DELETE   1639.00 288.63 869.69 1130.54 1902.18 721.46 2205.35 567.44 2179.83 818.86 2128.17 1145.56 2396.66 1014.13
00029034 00000042 1642.90 298.57 884.50 1123.19 1917.09 724.61 2223.08 572.96 2195.00 818.17 2130.63 1142.34 2405.02 1012.29
00029035 00000043 1643.22 299.20 889.99 1125.14 1919.22 737.03 2228.37 583.76 2195.32 821.13 2133.45 1144.55 2408.69 1013.68
00029036 00000044 1644.36 303.34 890.86 1118.34 1920.55 741.14 2230.31 593.29 2190.86 828.77 2130.09 1143.69 2402.57 1017.56
00029037 00000045 1645.38 297.33 888.79 1127.59 1921.43 743.91 2230.92 598.46 2189.11 834.53 2129.95 1146.33 2400.46 1021.67
00029038 00000046 1646.91 301.53 887.65 1131.23 1917.93 747.06 2230.17 602.78 2183.37 842.37 2127.32 1152.95 2399.90 1028.89
00029039 00000047 1647.04 299.98 883.54 1131.68 1917.74 745.60 2231.36 605.76 2183.29 847.17 2122.47 1152.05 2396.69 1031.44
00029040 00000048 1654.64 296.49 864.06 1134.23 1923.33 769.77 2229.65 642.96 2174.56 849.88 2113.63 1148.76 2382.20 1040.59
00029041 00000049 1645.25 285.62 865.95 1147.71 1917.52 792.71 2220.94 658.83 2168.70 856.54 2107.83 1152.20 2370.36 1039.62
00029042 00000050 1645.43 277.75 862.34 1175.20 1914.33 801.99 2224.07 670.52 2167.89 865.28 2098.03 1164.89 2366.90 1055.56
00029043 00000051 1644.29 279.10 869.23 1187.89 1907.52 804.60 2217.09 674.12 2157.28 872.86 2089.33 1177.09 2362.81 1068.68
00029044 00000052 1641.47 292.23 868.76 1192.99 1900.78 805.48 2209.40 676.95 2153.12 880.80 2088.63 1199.11 2357.14 1092.54
00029045 00000053 1625.75 303.18 885.69 1207.67 1885.24 812.14 2192.82 679.21 2137.53 891.41 2077.66 1222.59 2346.41 1112.84
00029046 00000054 1621.10 317.46 878.82 1198.50 1875.11 823.53 2178.27 695.81 2118.18 919.25 2059.90 1230.86 2327.34 1127.34
00029047 00000055 1617.14 329.22 880.27 1167.79 1865.98 842.57 2177.46 711.33 2108.28 939.33 2043.12 1223.14 2321.16 1116.97
00029048 00000056 1617.64 338.66 876.98 1152.57 1867.25 866.48 2182.11 739.38 2102.10 952.77 2023.95 1215.15 2313.44 1112.99
00029049 00000057 1614.51 339.62 873.27 1140.79 1871.50 870.82 2182.65 746.32 2103.48 956.95 2021.39 1208.80 2300.93 1110.71
00029050 00000058 1613.14 349.00 869.47 1124.85 1867.99 870.08 2178.37 748.11 2099.70 968.39 2018.03 1210.36 2294.22 1114.49
00029051 00000059 1610.30 347.40 872.13 1129.79 1859.36 861.24 2173.55 744.66 2090.05 970.92 2011.70 1210.98 2293.14 1118.00
00029052 00000060 1604.45 348.27 871.80 1125.61 1855.59 859.50 2166.08 744.14 2083.57 964.60 2007.31 1207.06 2283.22 1115.58
00029053 00000061 1602.65 350.62 873.22 1120.40 1849.21 861.79 2160.54 744.05 2073.40 961.01 2002.10 1204.90 2277.57 1111.19
00029054 00000062 1594.73 351.39 879.52 1125.27 1840.28 865.35 2155.14 748.85 2060.08 959.51 1991.20 1204.97 2268.66 1111.98
00029055 00000063 1590.62 345.06 884.40 1135.68 1836.83 887.00 2146.97 757.71 2055.58 961.49 1992.54 1212.48 2268.79 1110.30
00029056 00000064 1584.63 350.22 896.61 1137.67 1828.32 890.60 2141.59 750.82 2054.02 968.67 2000.73 1221.12 2280.53 1109.19
00029057 00000065 1582.15 353.93 891.99 1140.08 1824.04 886.06 2136.91 752.98 2050.23 977.00 1996.18 1221.52 2279.42 1113.74
00029058 00000066 1584.78 355.59 878.31 1135.29 1822.95 873.96 2137.31 758.15 2043.20 982.08 1984.87 1215.24 2264.72 1121.52
00029059 00000067 1579.39 351.96 874.94 1143.84 1816.31 864.30 2138.55 761.39 2034.39 988.99 1965.13 1216.16 2246.79 1133.06
00029060 00000068 1579.98 350.01 873.87 1139.51 1814.17 864.47 2143.12 763.20 2032.60 997.55 1958.42 1214.79 2241.46 1134.09
00029061 00000069 1575.45 354.05 882.15 1136.71 1812.08 869.20 2139.87 768.56 2027.35 1004.32 1957.61 1217.39 2236.91 1137.20
00029062 00000070 1570.16 361.80 889.05 1123.78 1810.23 876.59 2139.53 772.85 2027.37 1006.50 1957.15 1218.56 2238.51 1135.86
00029063 00000071 1570.07 365.52 884.11 1116.22 1809.92 881.84 2136.10 777.00 2025.18 1009.07 1951.82 1215.98 2234.23 1132.41
00029064 00000072 1566.71 364.05 885.52 1120.25 1807.68 886.09 2132.37 780.80 2020.66 1012.50 1946.03 1216.39 2231.55 1132.10
00029065 00000073 1564.01 363.84 886.08 1122.67 1805.47 887.94 2127.04 782.90 2015.35 1012.33 1942.03 1215.12 2227.28 1130.81
00029066 00000074 1562.32 367.30 886.83 1117.58 1804.57 889.10 2126.70 783.37 2015.08 1013.42 1940.89 1214.73 2226.11 1130.07
00029067 00000075 1561.08 365.84 891.70 1121.67 1805.28 891.12 2125.82 783.23 2015.80 1014.12 1942.51 1216.84 2226.26 1130.20
00029068 00000076 1564.44 371.18 889.45 1111.58 1808.62 894.56 2125.89 784.99 2017.70 1015.16 1944.93 1214.54 2227.19 1126.91
00029069 00000077 1566.07 373.29 885.82 1110.86 1808.49 895.06 2126.62 783.93 2019.70 1017.09 1945.45 1215.31 2230.97 1126.17
00029070 00000078 1565.19 377.00 892.22 1104.01 1807.30 897.69 2127.30 782.91 2020.29 1017.08 1948.98 1217.48 2234.88 1125.00
00029071 00000079 1565.20 379.22 894.81 1103.19 1807.06 899.69 2127.62 783.25 2020.86 1017.51 1952.35 1219.25 2237.76 1125.50
00029072 00000080 1567.98 375.76 900.24 1109.38 1807.95 900.99 2130.02 781.66 2022.55 1016.99 1960.76 1224.47 2244.76 1128.58
00029073 00000081 1568.24 372.00 906.27 1125.71 1806.38 899.46 2130.77 778.10 2022.51 1016.34 1964.77 1233.27 2250.29 1135.05
00029074 00000082 1572.07 370.07 906.50 1130.45 1809.78 898.60 2132.88 777.13 2025.91 1015.67 1971.87 1238.08 2255.95 1139.87
00029075 00000083 1572.44 370.60 902.39 1131.27 1813.50 898.42 2136.26 778.10 2032.34 1013.09 1978.53 1240.41 2259.35 1143.07
00029076 00000084 1575.61 376.07 899.92 1123.98 1815.22 899.46 2137.51 778.88 2034.83 1014.08 1983.48 1243.17 2261.36 1145.43
00029077 00000085 1575.16 376.29 904.14 1130.65 1813.78 902.72 2137.53 778.33 2035.26 1014.17 1985.45 1248.66 2265.36 1147.53
00029078 00000086 1570.93 374.12 909.55 1146.71 1810.23 902.68 2137.35 776.89 2034.63 1015.86 1985.54 1257.38 2268.55 1155.02
00029079 00000087 1570.76 379.66 910.05 1142.10 1808.96 899.35 2138.78 773.83 2035.29 1016.11 1986.41 1259.20 2269.72 1156.78
00029080 00000088 1571.25 378.95 908.67 1130.48 1811.13 895.35 2141.44 772.74 2036.72 1012.78 1987.91 1253.06 2267.09 1153.11
00029081 00000089 1571.81 376.27 908.47 1139.79 1810.85 892.73 2139.48 770.36 2035.91 1011.51 1988.02 1254.38 2268.08 1154.53
00029082 00000090 1572.36 369.02 912.57 1151.55 1809.94 891.14 2140.03 766.77 2035.88 1009.64 1989.54 1257.21 2272.37 1155.59
00029083 00000091 1573.67 372.34 909.05 1151.75 1814.13 897.40 2141.49 773.64 2038.91 1007.81 1993.54 1261.09 2273.37 1160.19
00029084 00000092 1570.09 370.15 912.13 1166.52 1815.29 902.33 2142.53 779.02 2040.38 1009.37 1994.07 1269.05 2273.28 1169.42
00029085 00000093 1571.77 371.29 912.64 1169.69 1815.07 902.42 2142.73 777.04 2041.86 1006.38 1994.73 1269.35 2276.06 1168.24
00029086 00000094 1576.26 370.36 910.64 1174.91 1818.31 899.11 2144.20 770.99 2047.58 1003.92 2002.72 1271.38 2282.18 1168.24
00029087 00000095 1582.26 367.99 907.26 1177.65 1822.55 895.31 2147.69 765.50 2053.41 1002.64 2008.14 1272.07 2287.44 1168.02
00029088 00000096 1585.45 367.10 904.77 1180.41 1828.32 896.15 2153.12 768.53 2059.63 1004.11 2012.94 1275.23 2288.63 1173.22
00029089 00000097 1590.76 372.03 895.95 1177.32 1833.13 897.62 2158.31 773.83 2066.03 1012.82 2018.52 1281.06 2291.32 1182.46
00029090 00000098 1592.14 375.93 893.17 1174.89 1839.85 904.52 2164.04 780.64 2075.36 1017.96 2025.88 1287.24 2293.28 1188.95
00029091 00000099 1596.09 381.43 893.00 1177.68 1844.19 903.65 2172.00 782.02 2082.58 1026.46 2029.74 1292.95 2298.97 1196.35
00029092 00000100 1598.66 385.70 895.02 1178.62 1849.66 904.14 2178.89 782.35 2090.89 1028.54 2034.55 1295.14 2304.49 1198.64
00029093 00000101 1600.39 383.95 897.39 1188.62 1852.76 903.87 2184.65 781.03 2098.23 1029.70 2040.31 1300.94 2311.15 1203.51
00029094 00000102 1604.64 386.83 893.59 1186.81 1856.26 902.54 2189.65 781.11 2103.53 1032.69 2044.63 1302.94 2315.18 1206.45
00029095 00000103 1610.51 385.80 886.74 1184.65 1858.97 902.22 2190.85 781.92 2105.08 1034.34 2046.85 1302.39 2317.32 1206.56
00029096 00000104 1611.24 388.05 888.06 1186.51 1861.02 901.10 2193.09 781.72 2108.16 1033.02 2048.27 1302.86 2319.41 1207.84
00029097 00000105 1612.20 386.89 887.76 1190.02 1863.90 899.72 2196.66 782.08 2111.56 1033.72 2051.55 1304.15 2323.07 1210.25
00029098 00000106 1617.04 383.55 888.28 1195.39 1867.86 899.02 2201.89 780.20 2115.98 1033.78 2054.97 1305.54 2327.76 1210.59
00029099 00000107 1621.30 380.12 889.11 1195.51 1873.79 896.72 2206.54 779.54 2121.41 1035.41 2059.70 1304.38 2330.42 1210.41
00029100 00000108 1622.03 380.90 890.74 1195.61 1875.65 896.36 2211.16 778.82 2126.12 1034.75 2063.86 1306.07 2335.47 1211.78
00029101 00000109 1622.56 382.77 892.19 1191.97 1875.87 893.51 2212.24 777.14 2126.16 1034.76 2063.32 1303.90 2334.94 1210.50
00029102 00000110 1623.25 380.63 893.53 1192.54 1877.28 891.20 2213.23 774.66 2126.90 1030.91 2063.68 1300.49 2336.32 1206.61
00029103 00000111 1620.73 376.25 894.32 1185.87 1875.67 886.19 2212.69 772.71 2123.50 1024.66 2060.03 1291.16 2333.89 1199.98
00029104 00000112 1622.18 372.03 895.54 1183.49 1874.47 882.60 2209.09 768.99 2117.99 1014.16 2054.79 1281.28 2329.77 1189.74
00029105 00000113 1616.50 362.08 902.58 1165.44 1874.67 880.65 2202.68 768.76 2110.54 1005.71 2050.26 1259.78 2320.73 1169.95
00029106 00000114 1611.85 354.83 911.89 1170.36 1869.16 877.83 2195.43 763.48 2099.14 999.62 2045.12 1251.01 2317.00 1158.57
00029107 00000115 1601.23 342.01 916.43 1188.77 1849.86 882.77 2182.10 759.96 2076.90 984.74 2027.09 1253.79 2305.23 1155.09
00029108 DELETE   1603.49 341.76 912.28 1182.82 1828.32 865.41 2167.00 747.40 2045.85 982.85 2000.67 1244.07 2289.53 1149.18
00029109 DELETE   1601.75 339.87 914.75 1172.36 1813.40 847.04 2152.22 741.54 2013.69 985.63 1976.70 1231.15 2255.87 1145.00
00029110 00000118 1605.19 330.82 911.72 1161.62 1807.08 838.01 2145.12 736.60 2000.73 980.51 1966.46 1223.95 2239.89 1140.12
00029111 00000119 1601.38 328.48 913.14 1153.78 1803.77 832.74 2144.36 736.06 1995.48 978.95 1961.86 1220.85 2228.02 1141.70
00029112 00000120 1606.00 328.02 910.77 1148.96 1808.53 841.64 2149.28 749.38 1992.56 973.31 1958.33 1218.70 2225.44 1142.17
00029113 00000121 1603.99 326.55 916.99 1150.34 1804.35 834.04 2152.68 743.43 1990.21 976.49 1956.36 1217.78 2225.37 1143.15
00029114 00000122 1607.58 327.72 914.92 1160.63 1806.23 833.00 2146.58 746.45 1988.13 982.72 1958.22 1220.09 2221.47 1149.56
00029115 00000123 1603.87 329.15 916.28 1167.20 1805.73 837.91 2140.60 752.64 1985.02 989.70 1957.53 1225.50 2215.95 1156.72
CROP_BBOX: 1175 0 3471 2108
