Video ID: 	LLJ-BzoFMX0
H: 	2160
W: 	3840
FPS: 	23.976023976023978

FRAME INDEX X0 Y0 W H [Landmarks (5 Points)]

00006608 00000000 1930.52 296.38 639.96 941.78 2050.74 612.42 2302.25 674.77 2046.78 804.29 1983.50 981.69 2191.65 1029.06
00006609 00000001 1925.60 307.72 642.31 931.43 2052.99 604.26 2304.80 672.81 2043.44 788.43 1979.72 965.81 2194.42 1018.47
00006610 00000002 1923.55 300.69 652.01 945.77 2054.10 592.19 2301.22 655.94 2040.57 774.64 1988.64 955.91 2195.86 1006.27
00006611 00000003 1930.22 289.94 659.73 941.81 2063.06 586.73 2321.72 644.52 2057.75 762.41 1999.70 957.15 2215.18 1003.24
00006612 DELETE   1938.27 289.67 665.97 939.14 2070.96 585.26 2338.20 645.45 2078.90 764.22 2010.53 953.62 2231.77 1001.77
00006613 00000005 1947.33 288.19 667.49 948.41 2084.75 584.39 2354.71 651.42 2092.47 774.13 2018.96 950.54 2258.55 1003.68
00006614 00000006 1950.58 288.60 663.85 957.20 2094.19 589.23 2366.43 656.38 2111.53 790.32 2026.22 956.24 2266.72 1010.91
00006615 00000007 1952.15 315.29 655.20 936.12 2091.19 595.92 2371.84 661.64 2117.46 806.67 2026.85 967.30 2275.56 1021.15
00006616 00000008 1946.11 317.39 656.62 938.30 2081.08 603.85 2361.44 669.74 2108.92 821.47 2020.99 978.24 2259.14 1031.15
00006617 00000009 1944.62 325.18 641.63 934.65 2065.21 613.02 2340.23 677.37 2094.84 832.93 2015.60 985.55 2242.71 1037.08
00006618 DELETE   1926.69 324.22 642.60 940.35 2047.06 623.01 2317.42 685.39 2072.20 834.17 1998.99 988.65 2224.91 1039.01
00006619 00000011 1917.63 307.09 637.72 955.66 2034.36 625.56 2297.67 690.79 2043.62 823.15 1976.78 991.90 2204.22 1041.16
00006620 DELETE   1904.73 320.69 632.69 945.90 2027.15 620.89 2276.09 690.13 2020.89 819.35 1957.32 983.57 2179.32 1036.60
00006621 00000013 1892.53 301.95 653.34 976.22 2019.85 604.72 2269.65 681.78 2001.26 814.37 1950.42 981.55 2164.04 1040.77
00006622 00000014 1886.92 298.68 657.36 981.96 2009.71 603.20 2264.14 676.68 1997.72 814.28 1947.91 984.43 2162.92 1040.49
00006623 00000015 1883.60 308.90 653.54 966.85 2004.77 605.09 2264.78 672.90 2003.84 814.65 1946.97 987.41 2165.92 1039.87
00006624 00000016 1886.47 310.42 651.86 967.12 2004.47 606.36 2272.16 672.08 2014.06 819.47 1950.92 985.43 2180.02 1037.12
00006625 00000017 1889.17 310.40 646.51 963.19 2005.16 610.95 2276.87 669.17 2027.72 825.41 1962.35 990.48 2189.84 1036.35
00006626 00000018 1898.09 329.52 630.60 926.58 2005.77 614.38 2281.36 664.99 2036.70 827.26 1972.92 987.65 2203.86 1028.04
00006627 00000019 1897.47 329.93 631.65 918.96 2005.76 615.47 2284.12 662.83 2046.34 829.71 1975.66 983.21 2213.80 1021.53
00006628 00000020 1892.63 335.81 631.99 901.11 2002.07 618.63 2283.02 662.01 2048.47 830.70 1974.43 978.96 2214.88 1013.97
00006629 00000021 1881.47 295.58 637.25 933.27 1992.67 617.79 2271.13 659.92 2042.11 829.33 1967.98 974.62 2205.85 1008.06
00006630 00000022 1871.28 297.40 634.03 936.29 1977.75 619.93 2250.80 662.36 2019.35 834.74 1953.22 974.29 2188.06 1006.58
00006631 DELETE   1850.90 321.12 628.70 913.22 1960.44 623.77 2224.89 672.93 1987.58 825.04 1918.89 981.37 2140.36 1020.11
00006632 DELETE   1835.10 309.13 623.51 944.71 1935.72 622.64 2187.21 670.64 1953.06 823.01 1888.21 1002.23 2085.55 1039.61
00006633 DELETE   1814.18 296.65 628.26 964.08 1911.93 614.83 2161.96 665.68 1919.86 815.15 1867.63 993.44 2054.31 1034.02
00006634 00000026 1799.19 300.78 631.85 941.86 1904.84 622.51 2141.47 673.68 1892.80 816.09 1850.03 992.93 2038.40 1031.84
00006635 00000027 1796.27 305.43 630.13 939.51 1900.58 628.74 2138.45 677.70 1892.17 824.70 1853.32 998.59 2043.85 1035.74
00006636 00000028 1796.13 304.66 625.55 965.27 1896.31 638.56 2146.39 682.14 1901.46 838.00 1862.00 1018.98 2068.51 1051.53
00006637 00000029 1804.64 303.99 620.67 976.19 1900.50 654.00 2161.71 690.47 1924.99 860.07 1881.67 1042.92 2096.25 1069.50
00006638 00000030 1814.90 339.53 612.81 931.80 1908.98 667.12 2177.50 701.68 1954.60 879.80 1891.55 1050.50 2122.31 1077.43
00006639 00000031 1821.75 337.68 627.68 928.15 1919.81 674.08 2200.74 704.59 1983.22 898.99 1913.35 1056.05 2142.65 1079.44
00006640 00000032 1828.44 344.49 634.00 934.29 1931.97 681.93 2213.53 706.56 1998.17 906.50 1926.48 1058.99 2163.43 1077.62
00006641 00000033 1831.83 349.85 632.79 943.94 1935.17 682.28 2218.26 706.22 1997.23 907.35 1928.70 1064.40 2170.48 1081.91
00006642 00000034 1829.16 349.79 633.56 993.75 1932.60 673.10 2210.51 703.74 1980.61 903.97 1921.09 1062.73 2170.44 1086.14
00006643 00000035 1824.16 337.83 623.06 1006.52 1922.89 661.16 2190.77 700.37 1952.71 888.71 1908.08 1057.64 2147.93 1088.20
00006644 00000036 1816.25 321.00 621.62 1017.11 1910.68 654.15 2170.60 696.25 1928.87 870.11 1889.82 1049.77 2122.82 1081.84
00006645 00000037 1803.76 312.17 625.51 1029.99 1902.81 650.41 2157.49 696.29 1906.54 856.97 1874.20 1038.65 2110.28 1073.20
00006646 00000038 1797.50 310.22 628.59 1012.07 1897.02 646.92 2146.93 692.29 1896.02 854.23 1873.05 1038.21 2092.84 1071.74
00006647 00000039 1795.59 308.85 632.67 1000.85 1895.96 645.03 2146.71 692.00 1893.84 854.06 1869.77 1033.59 2090.13 1068.29
00006648 00000040 1802.15 308.87 629.55 996.01 1899.03 644.58 2153.91 690.51 1905.42 852.99 1874.27 1031.07 2097.85 1065.03
00006649 00000041 1814.46 309.76 624.61 991.16 1907.80 649.46 2164.39 690.46 1922.02 858.59 1885.62 1032.85 2111.61 1063.11
00006650 00000042 1825.16 319.39 626.49 973.74 1919.23 648.35 2181.29 691.81 1941.21 862.72 1899.24 1032.89 2123.08 1065.59
00006651 00000043 1836.23 346.28 621.80 936.18 1934.13 656.45 2205.56 693.93 1972.23 868.55 1916.95 1033.85 2145.28 1062.74
00006652 00000044 1848.09 350.14 622.18 937.55 1949.72 657.95 2223.19 691.16 1992.66 869.27 1932.65 1037.68 2164.59 1062.82
00006653 00000045 1856.06 344.50 623.89 944.36 1958.94 660.27 2232.79 687.78 2007.90 865.96 1943.96 1039.82 2181.58 1060.28
00006654 00000046 1860.20 327.92 623.63 962.68 1961.36 656.45 2237.77 684.09 2010.34 862.03 1947.48 1041.59 2184.17 1061.87
00006655 00000047 1859.62 323.09 623.62 960.16 1959.81 654.13 2235.80 682.48 2009.79 860.21 1944.47 1037.68 2179.88 1058.57
00006656 00000048 1856.21 336.36 621.87 945.22 1956.30 651.80 2227.14 681.83 2001.15 856.56 1940.08 1036.22 2163.58 1059.12
00006657 00000049 1847.94 329.25 625.31 957.08 1946.49 647.39 2221.24 683.15 1989.36 854.93 1927.70 1034.82 2146.53 1062.71
00006658 00000050 1843.14 320.71 624.77 963.73 1938.88 646.87 2211.57 683.61 1979.84 851.00 1916.11 1040.00 2123.09 1069.26
00006659 00000051 1843.45 322.25 621.33 969.34 1935.98 644.95 2202.04 681.43 1972.18 848.81 1910.58 1044.49 2105.85 1074.05
00006660 00000052 1842.14 323.55 622.66 967.68 1935.05 644.95 2202.28 684.48 1969.66 849.11 1906.63 1044.23 2102.03 1075.95
00006661 00000053 1845.61 328.63 619.32 962.74 1938.23 646.37 2207.61 683.91 1974.92 853.16 1912.73 1048.81 2109.73 1078.86
00006662 00000054 1847.57 336.16 623.64 953.61 1945.92 648.67 2217.35 686.87 1982.49 856.66 1922.30 1046.70 2126.79 1076.79
00006663 00000055 1856.93 354.39 621.12 941.57 1958.47 655.84 2226.20 688.74 1994.10 860.18 1940.37 1047.89 2151.95 1073.21
00006664 00000056 1866.12 341.59 624.00 957.69 1965.22 659.60 2238.80 690.85 2007.85 865.18 1952.99 1052.39 2170.36 1075.73
00006665 00000057 1875.93 343.49 631.73 959.62 1969.79 672.76 2248.26 692.48 2017.02 868.70 1964.47 1050.64 2188.20 1069.19
00006666 00000058 1877.59 346.68 617.12 952.84 1972.73 666.96 2251.87 689.53 2029.16 869.51 1965.99 1062.05 2199.51 1079.96
00006667 00000059 1878.12 334.83 619.39 969.51 1974.37 667.40 2254.68 690.62 2032.66 872.92 1967.04 1064.80 2204.70 1083.18
00006668 00000060 1878.18 349.44 616.00 954.56 1973.29 668.58 2250.85 695.10 2025.27 874.38 1962.23 1062.35 2197.24 1083.23
00006669 00000061 1875.39 336.75 610.69 970.36 1968.80 667.53 2239.56 697.20 2017.46 879.65 1957.70 1064.75 2180.10 1087.59
00006670 00000062 1868.26 344.94 611.66 964.01 1963.63 667.54 2228.64 700.98 2001.14 877.46 1947.24 1059.27 2161.97 1085.29
00006671 00000063 1857.56 337.74 622.43 968.98 1954.88 663.03 2221.86 704.71 1983.76 877.90 1931.42 1054.67 2149.80 1085.30
00006672 00000064 1850.64 341.06 625.57 972.18 1950.43 667.25 2219.65 708.06 1979.32 884.69 1926.87 1060.82 2147.91 1091.16
00006673 00000065 1850.41 342.47 624.91 975.94 1949.36 668.07 2219.25 709.34 1980.88 887.87 1926.76 1066.38 2144.94 1097.15
00006674 00000066 1860.09 346.01 612.32 977.99 1953.07 672.81 2216.24 708.07 1985.47 890.64 1938.55 1073.58 2152.10 1101.25
00006675 00000067 1860.35 351.38 617.10 983.28 1957.59 675.26 2221.70 710.20 1990.16 899.11 1939.66 1076.52 2162.13 1104.47
00006676 00000068 1863.78 348.41 614.92 990.44 1961.86 678.12 2227.07 714.15 1996.17 904.33 1944.58 1081.01 2169.27 1109.61
00006677 00000069 1866.11 350.58 613.81 979.87 1963.00 679.21 2235.09 712.69 2008.57 905.89 1949.12 1086.74 2175.33 1112.93
00006678 00000070 1867.53 352.72 611.25 973.77 1963.58 681.22 2238.18 714.19 2011.64 908.77 1950.83 1088.56 2180.41 1114.20
00006679 00000071 1866.06 356.79 611.81 960.12 1962.18 681.47 2236.64 713.96 2011.75 909.63 1947.70 1087.72 2178.86 1112.86
00006680 00000072 1862.87 347.85 615.53 977.82 1959.87 681.12 2235.22 714.94 2006.72 907.69 1942.21 1082.78 2175.50 1109.46
00006681 00000073 1859.24 353.89 616.01 967.33 1958.12 679.85 2227.31 715.40 1999.94 907.88 1936.60 1074.98 2167.12 1103.14
00006682 00000074 1855.40 353.81 617.27 970.54 1954.03 676.84 2224.58 715.00 1993.80 909.02 1929.43 1073.08 2165.84 1103.49
00006683 00000075 1846.69 343.51 632.21 986.18 1950.65 674.82 2225.06 717.51 1987.81 906.71 1925.86 1067.15 2160.29 1098.60
00006684 00000076 1851.06 357.71 621.89 974.75 1948.72 677.02 2220.87 716.12 1985.35 909.56 1922.45 1071.79 2164.77 1103.04
00006685 00000077 1848.52 359.18 622.57 975.79 1947.07 678.98 2221.61 717.55 1985.81 910.41 1919.93 1072.22 2167.17 1103.21
00006686 00000078 1848.48 349.79 622.89 988.55 1947.94 679.64 2223.24 718.79 1988.23 911.47 1921.00 1076.39 2164.94 1107.78
00006687 00000079 1842.70 346.71 630.14 988.02 1947.79 679.77 2225.23 723.95 1988.27 911.82 1921.17 1070.80 2156.59 1103.12
00006688 00000080 1846.26 349.89 625.41 986.04 1944.91 681.88 2223.85 721.59 1992.89 912.26 1922.40 1077.36 2159.41 1109.35
00006689 00000081 1848.99 347.14 622.27 987.06 1945.32 682.88 2224.10 721.52 1992.95 911.41 1926.33 1078.16 2160.12 1109.01
00006690 00000082 1846.78 342.61 626.57 993.68 1943.80 683.78 2224.10 721.16 1993.27 913.18 1929.08 1080.62 2159.67 1110.66
00006691 00000083 1848.33 345.34 624.41 987.64 1943.98 687.03 2222.34 721.30 1992.72 911.88 1935.56 1084.02 2160.29 1111.01
00006692 00000084 1850.94 343.30 622.21 990.55 1943.37 688.63 2223.12 721.60 1994.15 910.14 1936.99 1085.55 2159.67 1111.50
00006693 00000085 1852.08 345.24 619.63 984.10 1944.10 690.75 2223.13 722.43 1996.20 911.00 1939.70 1085.61 2161.63 1110.14
00006694 00000086 1852.19 343.36 620.29 987.85 1942.66 691.60 2225.38 723.29 1997.12 911.44 1939.49 1087.47 2164.74 1111.94
00006695 00000087 1848.28 344.85 624.05 981.51 1945.54 692.62 2229.15 727.42 1997.05 914.75 1936.66 1082.42 2161.48 1107.59
00006696 00000088 1849.36 344.34 621.82 978.83 1945.36 692.23 2229.29 727.95 1997.56 917.16 1937.16 1082.63 2162.17 1108.32
00006697 00000089 1849.74 346.43 620.55 969.76 1945.90 691.77 2230.13 727.95 1998.87 918.18 1937.42 1082.72 2161.15 1108.79
00006698 00000090 1849.73 349.03 622.43 969.04 1946.28 691.36 2230.30 727.25 1999.77 918.30 1938.20 1082.14 2161.04 1107.97
00006699 00000091 1851.13 351.41 621.15 962.52 1947.34 692.17 2230.23 726.95 2001.20 919.30 1940.05 1082.53 2160.29 1107.63
00006700 00000092 1851.47 350.77 621.24 956.19 1948.24 692.93 2230.28 727.29 2002.50 920.70 1942.45 1083.24 2159.56 1108.03
00006701 00000093 1850.14 351.65 624.45 961.05 1949.01 693.39 2232.36 727.79 2004.11 921.25 1942.67 1083.27 2163.65 1108.11
00006702 00000094 1850.08 352.24 624.13 959.85 1949.49 693.26 2232.37 727.25 2006.47 921.87 1944.76 1083.95 2162.82 1108.48
00006703 00000095 1852.44 346.64 620.69 960.61 1948.96 692.70 2232.76 727.31 2007.32 920.79 1945.19 1083.00 2161.99 1107.81
00006704 00000096 1851.70 346.76 621.31 967.02 1949.17 693.31 2234.13 726.91 2008.55 923.01 1947.30 1085.55 2166.13 1109.66
00006705 00000097 1852.91 342.14 620.41 978.58 1948.27 691.26 2229.79 722.36 2012.89 920.36 1949.41 1093.68 2166.28 1117.25
00006706 00000098 1851.48 346.30 625.74 982.96 1946.19 692.73 2229.12 720.63 2011.21 918.88 1951.06 1101.35 2161.93 1123.02
00006707 00000099 1852.69 339.68 624.81 992.87 1946.68 694.78 2228.72 723.59 2011.86 917.73 1948.15 1102.08 2157.06 1125.02
00006708 00000100 1851.62 337.90 625.68 1000.81 1943.09 696.61 2226.60 723.48 2008.53 917.78 1948.59 1106.63 2156.99 1128.62
00006709 00000101 1848.34 344.13 626.58 994.75 1939.90 697.22 2223.16 726.11 2004.78 920.08 1942.64 1107.62 2145.51 1131.19
00006710 00000102 1844.57 344.03 627.68 999.30 1936.16 701.28 2219.98 731.38 1998.82 925.54 1937.34 1109.68 2141.55 1133.83
00006711 00000103 1840.20 347.64 631.11 1002.17 1931.08 706.12 2217.42 736.91 1992.67 933.11 1934.08 1116.62 2140.32 1141.09
00006712 00000104 1835.56 358.92 634.88 998.93 1923.73 714.65 2212.30 747.08 1983.57 941.97 1927.60 1125.09 2135.08 1150.86
00006713 00000105 1833.50 357.86 625.62 1003.56 1919.35 720.51 2206.73 757.47 1977.50 950.07 1919.17 1128.71 2125.92 1157.88
00006714 00000106 1827.31 363.07 625.01 998.64 1913.35 724.90 2198.47 763.44 1971.94 961.75 1913.54 1137.69 2118.42 1167.29
00006715 00000107 1821.81 367.93 624.94 983.12 1904.89 733.07 2188.74 770.39 1964.94 970.02 1907.25 1141.99 2111.21 1170.32
00006716 00000108 1816.70 375.56 621.58 982.22 1899.20 745.73 2179.44 779.25 1957.68 982.44 1903.48 1155.18 2108.33 1180.09
00006717 00000109 1812.70 381.38 621.31 991.90 1897.05 753.84 2174.25 790.85 1956.35 995.19 1900.19 1159.31 2098.45 1186.70
00006718 00000110 1803.11 387.63 626.72 990.23 1890.82 760.70 2170.83 798.30 1955.15 1008.40 1894.86 1169.30 2087.32 1197.19
00006719 00000111 1801.14 384.44 623.95 999.79 1890.44 763.71 2167.23 799.73 1953.13 1010.83 1893.41 1182.66 2088.53 1209.41
00006720 00000112 1797.30 390.71 625.72 995.01 1888.21 771.25 2167.97 807.91 1952.69 1015.60 1892.35 1187.66 2088.09 1214.87
00006721 00000113 1794.54 399.49 627.84 986.56 1888.70 775.21 2165.16 811.14 1950.88 1022.36 1894.03 1191.76 2088.79 1218.01
00006722 00000114 1793.08 411.75 632.84 977.46 1887.35 779.30 2168.40 814.53 1952.59 1025.70 1892.94 1195.72 2091.62 1221.43
00006723 00000115 1793.21 409.94 630.59 975.64 1888.38 782.49 2167.48 817.01 1952.68 1033.42 1894.83 1199.79 2094.65 1224.51
00006724 00000116 1794.42 403.44 630.15 980.10 1890.02 782.40 2169.64 815.04 1956.24 1032.79 1898.20 1201.23 2098.18 1224.66
00006725 00000117 1790.09 420.57 635.97 964.43 1885.54 780.73 2176.23 820.15 1959.85 1037.67 1898.06 1186.10 2099.59 1215.04
00006726 00000118 1790.93 419.44 636.08 957.48 1889.44 782.45 2178.34 818.72 1961.03 1040.62 1904.34 1184.71 2105.52 1210.75
00006727 00000119 1793.48 409.09 638.56 963.26 1888.57 778.66 2180.59 810.38 1964.33 1033.49 1910.81 1179.27 2117.54 1201.64
00006728 00000120 1800.11 406.61 630.33 971.33 1893.60 773.71 2182.42 802.75 1968.01 1023.59 1916.23 1176.77 2123.04 1197.62
00006729 00000121 1806.63 383.77 627.08 993.53 1899.33 769.34 2180.22 794.03 1971.05 1013.09 1924.05 1169.48 2129.69 1187.32
00006730 00000122 1808.06 388.35 628.10 967.83 1900.49 763.65 2185.60 786.55 1977.33 1006.12 1927.61 1160.34 2141.74 1176.27
00006731 00000123 1815.83 385.51 625.32 975.49 1907.29 758.19 2193.07 779.12 1980.03 996.51 1933.05 1154.71 2155.26 1169.71
00006732 00000124 1819.13 367.62 629.63 1001.29 1911.30 750.95 2196.35 770.40 1981.77 987.91 1933.61 1147.05 2163.06 1162.01
00006733 00000125 1818.89 378.68 646.35 998.09 1912.48 750.22 2211.36 768.19 1986.45 983.81 1932.08 1140.63 2180.34 1153.11
00006734 00000126 1821.73 378.31 647.47 1001.75 1918.97 741.50 2216.86 759.61 1989.91 978.04 1933.31 1131.33 2187.97 1145.09
00006735 00000127 1826.51 367.32 644.42 1000.36 1924.37 734.31 2222.89 754.89 1998.42 968.21 1935.66 1126.28 2186.90 1141.77
00006736 00000128 1833.43 349.72 638.63 1008.94 1929.29 729.79 2228.96 748.71 2008.84 956.02 1942.53 1130.95 2182.30 1145.05
00006737 00000129 1836.22 333.50 635.72 1016.66 1930.89 725.59 2225.45 739.84 2011.24 947.33 1950.59 1128.90 2173.80 1140.77
00006738 00000130 1838.99 322.89 627.98 1019.35 1934.99 717.96 2219.79 733.27 2003.92 940.13 1951.94 1122.85 2164.54 1135.65
00006739 00000131 1839.49 322.44 628.31 1012.11 1933.97 715.58 2215.08 731.40 1997.83 937.83 1949.29 1120.68 2154.43 1134.15
00006740 00000132 1837.81 328.89 625.91 1017.69 1929.91 704.52 2215.42 725.40 1995.98 939.56 1943.81 1123.69 2158.87 1140.16
00006741 00000133 1833.93 337.34 630.45 1032.06 1930.20 691.46 2214.69 715.11 1980.72 919.92 1934.28 1109.20 2164.54 1128.88
00006742 00000134 1836.79 325.67 629.27 1033.71 1934.93 673.77 2213.33 700.68 1979.27 899.13 1929.92 1086.15 2160.95 1105.74
00006743 00000135 1845.22 339.00 621.44 1008.47 1940.87 659.85 2219.25 686.04 1985.76 874.62 1932.75 1076.33 2153.74 1096.33
00006744 00000136 1854.66 335.57 619.43 1000.70 1948.63 656.70 2229.54 677.44 2000.16 861.38 1940.91 1077.04 2160.00 1093.30
00006745 00000137 1862.81 339.58 620.30 967.65 1960.30 661.72 2238.23 682.69 2017.03 867.90 1952.92 1071.51 2167.83 1087.43
00006746 00000138 1874.58 332.43 611.02 980.26 1969.82 672.50 2239.03 689.49 2035.05 876.84 1966.68 1074.95 2176.98 1088.89
00006747 00000139 1874.80 341.70 614.66 965.30 1974.53 676.79 2245.95 695.60 2042.70 891.04 1971.80 1080.43 2185.81 1095.46
00006748 00000140 1875.49 335.29 614.81 962.97 1975.26 678.21 2248.56 694.00 2047.80 887.16 1973.79 1077.39 2188.74 1090.27
00006749 00000141 1870.75 342.21 632.75 959.16 1970.79 675.45 2252.08 691.57 2035.68 870.01 1970.87 1056.77 2178.97 1072.53
00006750 00000142 1871.55 322.26 630.70 978.09 1972.22 653.63 2247.55 674.09 2034.68 855.29 1966.53 1052.99 2178.12 1068.69
00006751 00000143 1872.53 316.27 628.53 979.69 1973.31 645.44 2246.65 669.31 2031.96 848.94 1963.66 1046.55 2176.15 1065.14
00006752 00000144 1873.35 306.32 630.80 997.34 1973.61 649.61 2247.75 672.77 2034.29 852.16 1965.22 1049.72 2178.11 1067.80
00006753 00000145 1877.64 330.72 618.82 970.72 1975.94 662.82 2250.73 683.57 2043.00 862.39 1968.33 1059.72 2181.52 1076.54
00006754 00000146 1880.00 334.82 616.91 972.25 1978.89 673.73 2255.04 693.07 2048.43 882.63 1975.85 1075.14 2196.32 1090.96
00006755 00000147 1880.94 343.60 616.89 956.24 1980.55 680.97 2258.88 698.37 2054.93 889.98 1981.87 1082.93 2203.13 1097.31
00006756 00000148 1880.53 333.11 622.67 972.96 1980.58 678.87 2261.62 696.93 2054.15 884.66 1980.81 1079.39 2210.44 1094.19
00006757 00000149 1879.79 334.93 623.09 964.29 1979.49 671.75 2260.57 690.33 2053.98 872.20 1978.28 1067.33 2199.48 1082.66
00006758 00000150 1872.88 346.16 639.56 956.72 1975.55 672.37 2262.71 690.04 2044.98 869.42 1974.19 1054.27 2190.24 1071.97
00006759 00000151 1876.46 332.76 622.88 966.08 1974.86 667.62 2254.34 691.31 2041.48 868.72 1966.85 1057.67 2186.01 1077.11
00006760 00000152 1872.48 347.12 618.57 953.93 1977.70 670.32 2249.37 700.64 2036.47 887.96 1960.60 1060.35 2183.58 1084.83
00006761 00000153 1872.62 343.86 615.24 959.34 1976.84 679.51 2250.96 716.59 2036.68 905.35 1959.71 1074.08 2181.02 1102.66
00006762 00000154 1871.82 366.15 616.96 934.63 1973.93 688.17 2251.27 726.27 2036.83 915.48 1959.27 1084.59 2183.45 1113.27
00006763 00000155 1874.77 367.96 614.55 928.79 1978.28 691.78 2253.68 726.15 2042.48 918.52 1968.01 1086.68 2194.82 1112.53
00006764 00000156 1878.25 351.55 615.82 953.01 1980.89 689.96 2259.75 720.66 2047.90 908.28 1971.94 1078.99 2204.48 1102.85
00006765 00000157 1878.21 342.83 619.90 962.12 1982.21 687.92 2263.03 715.99 2051.79 904.74 1971.65 1079.19 2212.28 1101.17
00006766 00000158 1880.85 354.80 617.69 963.05 1983.40 690.71 2267.56 718.65 2051.64 907.84 1974.99 1083.82 2214.73 1105.95
00006767 00000159 1880.95 360.32 621.67 964.06 1985.52 701.16 2270.17 729.37 2056.77 924.94 1982.30 1094.15 2221.15 1116.84
