Video ID: 	UFziGFHqNkM
H: 	1080
W: 	1920
FPS: 	25.0

FRAME INDEX X0 Y0 W H [Landmarks (5 Points)]

00007551 00000000 850.57 213.72 432.18 588.23 1003.08 432.31 1197.60 444.45 1121.51 568.23 1015.53 659.83 1160.02 668.85
00007552 00000001 849.26 214.02 431.93 586.34 1001.06 431.70 1195.37 442.94 1119.12 568.18 1013.32 658.14 1159.80 666.41
00007553 00000002 847.23 211.84 431.76 589.61 999.16 431.40 1191.93 441.89 1116.88 567.15 1012.34 658.23 1157.33 665.84
00007554 00000003 846.38 211.73 431.04 587.98 997.18 430.63 1191.20 442.51 1114.29 566.69 1010.72 656.95 1156.44 665.61
00007555 00000004 844.14 212.44 431.88 585.65 995.80 430.90 1189.34 443.07 1111.70 566.35 1009.27 656.58 1154.23 665.47
00007556 00000005 842.98 211.97 432.16 584.48 993.97 431.75 1188.55 443.43 1109.70 567.18 1007.26 657.08 1153.77 665.51
00007557 00000006 842.69 210.60 431.18 587.07 992.67 432.66 1187.29 443.20 1109.03 567.76 1006.79 658.02 1153.88 665.43
00007558 00000007 842.91 208.45 431.02 588.78 991.54 432.03 1187.28 443.52 1107.85 568.35 1006.22 658.25 1154.31 666.16
00007559 00000008 842.85 209.01 430.03 585.92 990.89 432.77 1187.18 444.77 1107.46 567.92 1006.03 659.31 1154.65 667.48
00007560 00000009 842.29 209.26 430.64 589.87 989.67 433.04 1186.71 444.23 1106.88 567.91 1006.30 661.78 1153.72 669.26
00007561 00000010 840.46 208.87 432.11 593.58 989.26 432.27 1184.52 442.95 1106.15 567.63 1007.52 663.52 1150.73 670.45
00007562 00000011 838.46 210.85 432.85 593.24 987.03 431.59 1182.01 442.33 1103.86 566.38 1006.89 663.36 1148.71 670.27
00007563 00000012 837.63 207.55 431.90 597.25 985.51 430.89 1180.56 443.01 1101.72 565.54 1004.81 662.52 1146.07 670.60
00007564 00000013 838.01 204.74 428.70 595.37 980.70 430.77 1179.25 443.74 1096.98 563.97 1000.02 660.57 1145.25 669.49
00007565 00000014 826.30 185.56 434.39 605.62 979.30 438.23 1172.94 442.86 1093.38 566.19 995.82 655.85 1140.54 660.63
00007566 00000015 827.98 181.11 423.38 601.27 972.15 425.69 1163.04 431.06 1082.77 549.74 989.89 643.51 1137.71 648.72
00007567 DELETE   823.65 164.65 421.69 604.33 956.07 406.12 1148.38 411.08 1067.98 523.73 977.45 624.09 1130.30 628.18
00007568 DELETE   817.43 157.00 414.46 597.46 940.15 388.22 1137.84 387.37 1054.77 505.80 966.05 612.62 1124.65 611.67
00007569 00000018 804.44 148.65 418.42 598.13 930.58 380.17 1129.43 376.24 1049.26 492.64 960.22 603.65 1117.71 600.09
00007570 00000019 798.85 134.23 419.46 601.25 920.41 372.44 1120.32 362.96 1039.07 480.99 954.86 596.91 1113.68 588.08
00007571 00000020 795.40 126.52 420.36 600.37 912.92 364.68 1114.28 351.67 1031.80 471.51 950.79 591.16 1109.97 578.82
00007572 00000021 794.20 127.63 421.80 596.77 912.56 359.69 1111.30 345.48 1030.70 467.70 951.35 585.54 1108.68 571.60
00007573 00000022 795.38 128.39 419.51 592.86 911.95 359.44 1111.23 345.11 1029.13 466.98 950.74 584.80 1109.13 570.85
00007574 00000023 796.11 129.25 420.01 592.77 912.85 358.98 1112.92 345.57 1030.02 469.76 951.26 585.79 1109.47 572.57
00007575 00000024 798.10 128.83 417.80 593.36 913.38 363.18 1112.92 349.52 1029.23 473.28 952.70 589.13 1109.34 575.96
00007576 00000025 798.92 127.24 416.64 594.69 912.94 365.03 1113.27 352.18 1028.15 475.47 951.77 590.51 1109.34 577.98
00007577 00000026 797.57 128.68 416.77 599.45 912.20 364.09 1112.95 351.61 1027.60 477.39 950.71 594.28 1107.62 582.08
00007578 00000027 796.41 128.30 416.28 598.56 909.46 361.46 1110.05 348.77 1024.41 475.67 950.90 594.54 1104.37 581.89
00007579 00000028 794.36 127.31 418.08 599.98 905.77 357.58 1107.45 346.31 1018.79 471.10 944.83 591.89 1098.70 580.56
00007580 00000029 793.91 127.68 416.22 595.02 903.95 352.53 1101.93 343.01 1011.02 458.34 937.84 583.48 1088.57 574.00
00007581 00000030 793.62 128.45 415.41 587.80 901.07 351.10 1098.54 343.41 1004.58 455.09 931.13 576.74 1084.63 568.87
00007582 00000031 792.79 128.84 412.67 580.46 897.40 349.35 1094.27 342.78 998.11 450.19 927.43 571.47 1080.29 564.45
00007583 00000032 791.67 124.71 415.02 580.87 892.10 346.89 1093.29 339.29 994.11 451.27 925.33 572.08 1077.09 564.15
00007584 00000033 791.38 121.09 416.26 584.33 887.39 345.06 1087.59 332.84 988.06 449.38 924.91 570.82 1073.15 559.26
00007585 00000034 791.93 120.22 420.64 589.61 886.12 344.08 1087.33 330.96 984.52 447.29 922.14 570.55 1072.42 558.28
00007586 00000035 796.29 118.73 423.80 592.42 886.78 346.20 1089.57 332.19 981.39 447.42 920.72 570.46 1075.38 557.74
00007587 00000036 801.32 120.08 423.18 592.55 888.50 348.61 1092.53 334.44 980.17 448.29 920.90 573.02 1078.95 560.63
00007588 00000037 807.30 124.79 418.21 591.64 895.43 342.81 1094.57 340.75 983.60 453.03 920.92 567.52 1074.64 567.00
00007589 00000038 810.56 131.87 419.67 584.87 894.80 357.18 1096.45 345.14 980.43 454.20 923.60 578.54 1081.05 568.31
00007590 00000039 816.32 129.34 414.61 596.77 901.05 358.26 1093.53 354.33 980.91 462.22 924.75 578.34 1075.72 576.62
00007591 00000040 815.85 131.58 418.77 602.75 900.58 365.34 1089.78 362.57 976.35 471.44 922.21 584.15 1070.78 583.45
00007592 00000041 813.51 142.10 423.49 598.27 890.43 371.73 1087.25 372.40 967.20 487.70 915.55 594.02 1061.22 594.98
00007593 00000042 809.21 147.51 425.76 598.19 882.39 378.72 1077.88 376.06 955.15 490.25 908.21 601.88 1049.07 599.99
00007594 00000043 801.76 149.24 421.55 596.04 876.28 387.31 1069.46 379.36 942.42 488.44 895.43 606.64 1046.24 600.31
00007595 00000044 791.65 158.49 425.13 594.26 865.60 393.95 1053.87 385.60 929.46 497.05 883.52 612.07 1031.66 604.85
00007596 00000045 780.30 165.16 428.18 594.26 854.95 398.75 1041.96 394.19 919.39 504.44 870.56 618.57 1018.05 614.26
00007597 00000046 771.60 172.86 426.40 590.81 842.05 402.75 1027.98 405.21 902.06 516.97 859.26 624.12 1000.57 625.42
00007598 00000047 766.10 180.46 418.16 584.49 823.98 403.83 1013.79 407.46 885.51 527.44 847.17 633.22 984.19 637.24
00007599 00000048 753.25 183.68 425.77 591.74 814.94 410.98 1001.81 412.73 871.86 526.24 835.89 635.27 968.60 637.80
00007600 00000049 749.56 188.52 418.86 588.88 811.76 416.85 989.92 418.40 865.26 525.16 835.93 638.72 958.63 640.52
00007601 00000050 743.34 183.07 423.08 603.00 807.41 427.57 985.38 427.10 858.27 528.91 833.45 643.44 961.72 643.14
00007602 00000051 738.96 183.68 428.98 605.02 805.99 433.98 984.66 427.91 865.17 536.07 840.59 647.23 970.71 642.26
00007603 00000052 737.18 185.25 431.64 603.44 805.51 437.39 989.80 427.27 872.20 540.56 842.35 646.83 981.97 638.72
00007604 00000053 739.86 183.13 432.64 603.17 809.90 436.72 995.20 426.23 877.64 539.73 846.16 644.48 988.39 636.17
00007605 00000054 744.75 193.09 425.94 592.29 818.42 432.38 1000.91 418.83 890.07 535.87 854.92 639.65 1001.22 628.62
00007606 00000055 748.93 190.26 427.81 595.70 824.52 428.19 1003.68 413.78 895.11 528.80 863.58 638.71 1003.18 627.08
00007607 00000056 760.42 184.66 426.61 593.19 832.51 429.83 1009.72 415.84 894.71 522.78 866.36 635.10 1010.87 622.82
00007608 00000057 765.69 182.35 434.62 589.45 838.77 423.63 1017.66 407.93 901.96 518.66 875.42 632.58 1015.86 618.95
00007609 00000058 781.40 166.22 439.70 604.29 852.04 417.98 1034.48 401.32 911.38 512.18 885.04 633.70 1018.36 619.99
00007610 00000059 787.83 161.80 443.41 609.15 859.31 414.19 1042.59 396.82 916.94 502.44 888.86 632.06 1016.32 618.28
00007611 00000060 799.09 158.95 438.56 611.14 868.33 409.14 1048.36 395.85 917.77 498.35 890.68 626.17 1021.01 615.96
00007612 00000061 808.23 157.01 435.79 610.17 874.58 406.08 1053.84 396.29 922.98 498.97 893.97 622.31 1024.36 615.09
00007613 00000062 817.38 158.33 429.23 608.33 879.61 403.59 1059.45 397.81 924.68 498.20 896.98 619.60 1027.00 615.62
00007614 00000063 823.70 157.57 426.85 609.09 883.78 401.79 1064.08 398.76 932.01 503.34 902.72 619.93 1030.82 618.31
00007615 00000064 828.61 156.96 425.76 604.13 888.41 401.80 1069.14 399.46 939.45 505.49 908.21 618.63 1038.69 617.75
00007616 00000065 833.72 168.13 424.47 591.65 894.56 402.86 1077.94 402.03 950.41 507.47 914.60 619.58 1045.27 620.07
00007617 00000066 837.68 172.06 431.44 594.25 908.83 406.38 1093.19 404.39 960.92 511.28 929.45 626.50 1058.63 625.53
00007618 00000067 844.23 184.57 432.72 591.65 916.73 411.58 1099.71 412.23 969.43 518.45 939.28 632.16 1065.26 632.89
00007619 00000068 850.65 193.41 436.50 597.80 923.99 419.70 1104.43 422.06 975.30 524.64 945.04 640.32 1069.30 642.13
00007620 00000069 855.49 196.92 434.12 606.27 925.75 429.13 1111.84 431.40 980.59 537.83 945.06 652.22 1077.96 654.15
00007621 00000070 858.95 197.35 435.45 609.77 929.88 437.72 1117.03 442.57 986.91 550.01 947.79 656.95 1084.87 661.17
00007622 00000071 860.89 205.15 433.57 603.81 928.94 441.48 1117.96 444.31 988.78 556.89 950.44 663.35 1086.42 665.93
00007623 00000072 860.54 202.68 431.20 605.28 927.68 441.69 1114.69 444.29 984.92 555.25 948.59 662.46 1084.17 664.75
00007624 00000073 860.84 202.72 429.30 602.38 925.65 437.08 1109.82 441.88 978.32 553.70 943.27 657.18 1080.08 661.20
00007625 00000074 861.96 200.42 426.31 597.99 924.81 432.41 1105.85 439.24 975.08 551.31 942.76 651.06 1077.25 656.54
00007626 00000075 861.82 199.63 426.75 593.99 923.33 430.69 1100.79 434.46 971.14 546.01 943.48 649.79 1074.56 652.70
00007627 00000076 862.55 200.25 425.98 587.71 922.85 430.15 1099.58 430.95 971.36 542.38 944.41 649.47 1072.73 650.02
00007628 00000077 861.40 202.63 425.87 584.43 922.06 430.11 1098.65 428.30 970.65 538.78 944.43 649.15 1072.25 647.39
00007629 00000078 859.85 202.19 426.63 586.83 919.79 430.50 1096.09 427.51 967.31 537.04 942.03 649.02 1070.61 646.33
00007630 00000079 859.16 204.31 424.59 584.18 917.66 431.19 1093.56 426.41 964.88 536.87 940.74 648.83 1070.68 644.77
00007631 00000080 857.00 204.69 423.47 585.60 915.75 432.20 1090.75 425.55 962.48 536.11 940.44 649.81 1069.94 644.22
00007632 00000081 854.34 206.47 424.12 590.93 916.23 434.76 1091.33 426.26 964.71 536.57 942.68 652.11 1071.64 644.82
00007633 00000082 853.60 206.39 424.76 596.42 916.55 438.84 1094.05 426.36 968.85 537.52 946.70 659.25 1076.83 648.70
00007634 00000083 853.66 203.30 426.84 602.20 917.15 444.44 1098.66 431.86 974.94 546.26 949.98 663.92 1083.48 653.42
00007635 00000084 855.82 217.80 421.18 588.70 922.00 458.60 1097.21 445.85 981.05 547.12 950.73 663.00 1092.33 651.61
00007636 00000085 860.33 217.73 420.73 588.99 928.61 459.38 1103.02 444.98 989.54 550.31 958.14 664.51 1098.56 651.71
00007637 00000086 863.29 216.47 420.50 589.64 934.07 459.18 1108.62 446.35 995.59 553.63 964.23 665.15 1104.69 653.52
00007638 00000087 864.48 219.72 422.74 584.92 935.68 460.96 1116.06 446.97 999.88 554.06 966.18 667.55 1111.18 655.13
00007639 00000088 868.08 217.16 421.37 585.98 938.98 462.91 1122.89 448.43 1004.11 555.81 969.23 669.04 1115.38 656.54
00007640 00000089 869.68 203.77 428.18 598.27 939.11 456.98 1131.75 450.33 1009.84 556.70 970.72 664.85 1110.47 659.31
00007641 00000090 870.82 205.90 427.69 593.93 940.84 457.68 1132.60 451.43 1012.00 557.94 971.72 663.28 1111.51 658.07
00007642 00000091 873.76 209.75 426.50 588.11 941.47 456.78 1131.41 453.02 1010.37 557.84 972.79 661.90 1110.53 658.60
00007643 00000092 877.61 208.84 423.62 588.60 943.51 455.02 1131.27 452.67 1009.73 558.05 974.52 660.80 1109.40 658.61
00007644 00000093 877.41 209.81 424.36 586.81 943.93 454.55 1126.03 447.49 1008.26 558.64 976.38 661.78 1108.29 655.87
00007645 00000094 881.87 206.77 424.33 587.78 944.52 449.88 1125.87 443.96 1007.25 560.40 974.82 660.91 1105.68 656.08
00007646 00000095 886.45 209.05 424.52 587.56 946.82 448.36 1126.82 443.71 1005.72 561.63 975.58 662.43 1105.26 658.84
00007647 00000096 888.90 211.81 425.52 589.23 949.35 449.87 1131.28 445.86 1007.86 565.33 979.09 669.24 1105.25 666.35
00007648 00000097 887.20 210.09 428.91 599.64 956.15 452.15 1136.58 448.34 1014.51 562.03 982.69 671.17 1107.60 668.37
00007649 00000098 887.33 216.08 427.98 598.46 954.85 454.93 1137.36 452.43 1012.66 567.61 980.37 678.02 1104.28 676.41
00007650 00000099 885.13 221.88 429.73 601.54 953.08 460.33 1135.40 458.84 1011.28 575.04 981.55 686.50 1097.74 685.58
00007651 00000100 885.91 220.27 429.28 618.50 951.75 465.49 1134.44 467.39 1004.56 583.19 973.73 694.28 1096.78 696.56
00007652 00000101 883.03 227.92 425.75 614.93 949.50 470.19 1131.58 474.62 1000.74 589.97 970.34 699.26 1094.07 703.33
00007653 00000102 878.27 237.38 425.55 609.79 945.46 474.72 1129.09 479.36 997.28 594.14 965.47 702.46 1092.44 706.82
00007654 00000103 869.87 243.69 430.36 604.08 939.11 477.96 1127.15 483.26 995.62 601.02 959.68 705.16 1090.12 710.21
00007655 00000104 864.15 246.08 433.67 605.58 935.31 478.42 1125.72 486.44 995.47 606.52 955.55 707.92 1088.13 715.07
00007656 00000105 862.20 248.71 432.68 604.33 934.50 479.19 1126.74 489.13 996.03 607.81 952.84 709.03 1088.59 717.59
00007657 00000106 861.00 250.53 431.83 604.21 937.46 483.25 1130.86 497.03 1001.33 611.26 952.27 709.87 1090.17 721.37
00007658 00000107 865.45 258.29 426.37 600.64 943.27 487.64 1141.45 504.64 1011.62 620.27 952.61 708.90 1100.14 723.16
CROP_BBOX: 440 0 1614 1080
