Video ID: 	5Fiv86I6Rns
H: 	1080
W: 	1920
FPS: 	23.976023976023978

FRAME INDEX X0 Y0 W H [Landmarks (5 Points)]

00000487 00000000 917.38 137.83 490.57 755.10 972.29 435.82 1197.64 457.11 1022.02 588.11 983.98 718.94 1139.86 739.31
00000488 00000001 915.76 138.64 495.56 747.87 980.66 438.74 1199.45 458.15 1021.75 584.70 981.14 716.57 1145.15 736.27
00000489 00000002 919.40 135.04 499.02 750.16 981.65 441.78 1201.62 463.83 1022.11 582.63 980.37 716.17 1147.10 738.00
00000490 00000003 921.83 133.29 494.45 754.07 982.94 441.02 1202.47 462.87 1023.28 582.34 981.75 716.45 1148.68 738.07
00000491 00000004 921.81 132.87 488.09 752.92 986.17 434.27 1203.83 458.99 1024.14 579.73 982.75 711.04 1148.70 735.17
00000492 00000005 920.74 132.99 484.36 750.09 987.83 431.43 1202.56 456.17 1025.89 580.44 985.49 707.68 1150.55 731.72
00000493 00000006 919.97 133.43 486.05 748.32 987.27 430.95 1202.91 454.94 1027.29 581.93 986.44 706.89 1151.09 730.29
00000494 00000007 920.02 133.63 484.78 744.85 986.70 430.14 1201.83 453.63 1026.43 581.11 985.97 704.45 1153.95 727.29
00000495 00000008 919.82 133.11 490.62 745.62 985.74 429.16 1201.90 453.15 1025.40 581.33 984.88 703.69 1154.91 727.07
00000496 00000009 919.17 133.40 492.83 745.48 984.53 431.88 1202.10 455.65 1025.53 583.35 984.04 704.71 1156.10 727.84
00000497 00000010 918.75 133.25 493.60 747.56 984.08 434.01 1203.06 456.96 1026.41 582.92 983.74 706.20 1157.00 728.61
00000498 00000011 919.05 135.44 493.06 743.83 985.19 433.97 1203.73 457.69 1027.87 583.20 985.00 705.97 1156.35 729.04
00000499 00000012 917.95 125.34 491.23 768.91 986.00 429.75 1199.33 459.73 1028.76 582.38 996.85 708.69 1156.25 734.58
00000500 00000013 917.40 126.68 492.73 763.04 986.13 429.93 1200.49 460.01 1029.93 582.78 996.39 707.60 1155.81 733.51
00000501 00000014 918.37 127.19 489.93 760.60 987.12 429.54 1201.10 460.39 1031.50 581.69 996.30 706.31 1154.78 732.89
00000502 00000015 918.71 139.31 493.88 734.72 986.89 434.02 1205.88 457.15 1031.07 577.33 985.27 705.75 1152.56 728.69
00000503 DELETE   917.28 138.93 492.44 736.86 986.21 433.87 1204.15 456.89 1029.18 576.81 984.45 706.36 1148.45 729.26
00000504 00000017 915.25 138.45 495.60 742.38 984.13 435.21 1202.90 456.30 1025.88 578.17 984.75 711.16 1147.07 732.66
00000505 00000018 914.09 135.02 494.16 748.81 982.16 436.34 1200.20 455.25 1022.94 579.78 983.97 715.25 1142.76 735.06
00000506 00000019 917.03 130.26 483.40 757.53 970.76 433.58 1193.94 451.69 1020.18 581.63 981.88 720.47 1132.03 738.51
00000507 00000020 912.53 133.10 485.78 750.62 977.43 436.82 1193.91 455.12 1016.91 580.95 979.50 715.02 1136.73 734.04
00000508 00000021 911.08 134.65 487.73 751.37 975.56 439.21 1192.61 456.54 1015.52 582.30 977.66 717.38 1134.50 735.64
00000509 00000022 908.20 133.34 492.00 757.63 973.84 440.52 1191.61 457.39 1014.86 583.56 977.19 719.79 1133.70 737.64
00000510 00000023 906.54 133.80 490.94 758.20 973.17 441.90 1189.98 457.25 1014.76 583.88 977.77 720.70 1132.97 737.26
00000511 00000024 906.53 134.44 489.71 757.99 972.91 442.92 1190.11 457.46 1015.01 584.76 977.68 721.69 1133.58 737.54
00000512 00000025 906.23 133.28 488.39 758.22 972.04 442.46 1190.95 457.12 1013.52 584.43 977.55 721.71 1135.49 737.49
00000513 00000026 906.13 132.58 489.05 758.93 972.32 441.95 1191.20 456.83 1013.77 584.22 978.40 721.24 1136.33 737.23
00000514 00000027 907.18 135.99 487.06 754.37 973.19 438.09 1193.30 454.10 1015.54 583.60 978.42 720.11 1136.97 737.06
00000515 00000028 908.55 134.71 487.44 754.98 974.26 435.92 1193.44 453.48 1015.45 582.70 978.96 718.63 1137.20 736.94
00000516 00000029 913.67 132.82 482.39 760.76 967.93 432.40 1191.11 448.04 1019.46 582.44 981.45 722.87 1131.89 738.89
00000517 00000030 916.33 133.45 482.25 757.26 970.42 430.11 1193.23 447.45 1022.42 582.50 984.23 720.40 1134.21 737.66
00000518 00000031 918.31 136.03 485.75 753.20 976.53 427.36 1201.20 447.30 1028.77 581.83 987.83 717.32 1138.56 736.76
00000519 00000032 916.67 143.52 491.89 738.25 987.48 431.31 1206.27 451.43 1029.71 578.74 988.83 712.09 1148.99 732.86
00000520 00000033 922.25 139.79 491.81 740.20 992.85 428.91 1210.45 450.18 1034.05 576.52 992.88 708.64 1154.42 730.40
00000521 00000034 928.11 137.87 492.39 739.86 996.02 425.75 1214.66 448.05 1037.89 572.82 995.54 706.04 1157.33 728.75
00000522 00000035 930.17 128.91 491.81 753.24 993.14 425.59 1221.67 444.91 1041.33 575.64 997.15 712.23 1162.81 730.62
00000523 00000036 934.74 127.59 489.57 753.66 997.38 426.04 1225.74 443.00 1046.61 573.15 1001.78 711.99 1166.32 728.77
00000524 00000037 942.14 131.12 487.89 748.43 999.77 425.15 1227.29 442.32 1049.24 572.24 1003.80 711.59 1165.28 728.69
00000525 00000038 946.16 132.68 484.87 743.68 1002.28 425.36 1230.94 442.85 1053.56 571.73 1005.33 711.63 1166.55 729.13
00000526 00000039 948.30 135.65 484.07 739.62 1003.52 425.56 1233.08 443.59 1056.02 571.57 1006.29 710.87 1168.77 728.86
00000527 00000040 949.85 135.23 484.20 740.99 1005.58 424.51 1235.57 442.78 1058.28 570.40 1007.31 711.03 1169.65 729.34
00000528 00000041 949.92 134.85 486.15 741.91 1006.91 424.40 1236.37 442.59 1059.58 569.27 1008.08 710.30 1170.55 728.57
00000529 00000042 952.04 133.28 486.24 741.56 1007.63 426.70 1235.20 444.67 1058.72 568.96 1008.47 710.17 1170.15 728.24
00000530 00000043 940.31 137.78 498.78 749.04 1019.02 429.74 1233.91 460.46 1056.20 572.89 1015.50 706.58 1175.33 732.45
00000531 00000044 940.77 139.16 499.44 749.09 1017.83 432.06 1236.94 460.89 1056.01 574.22 1014.71 708.80 1177.95 733.08
00000532 00000045 939.48 138.33 496.14 751.30 1017.02 433.32 1231.61 463.21 1057.50 575.60 1014.90 709.91 1173.81 734.94
00000533 00000046 947.70 135.37 485.67 746.39 1003.39 434.72 1228.42 452.37 1054.61 575.23 1007.58 716.10 1167.97 733.55
00000534 00000047 945.36 136.66 484.66 747.85 1002.62 432.64 1229.00 449.22 1053.80 576.04 1007.24 717.39 1168.16 733.95
00000535 00000048 942.95 135.69 483.17 748.60 1001.92 433.09 1227.00 448.42 1052.35 574.40 1006.46 716.79 1166.78 732.15
00000536 00000049 942.10 132.15 485.98 751.20 1001.11 431.81 1225.85 447.53 1049.77 571.88 1005.80 715.05 1165.54 730.71
00000537 00000050 938.23 130.35 486.63 751.96 999.83 430.56 1224.83 446.70 1046.57 570.17 1004.06 713.02 1165.34 728.92
00000538 00000051 933.90 127.41 490.67 757.15 999.73 430.05 1223.15 446.12 1044.43 567.97 1002.52 711.61 1162.47 727.58
00000539 00000052 930.60 127.58 486.62 755.86 998.44 429.24 1222.02 445.75 1043.55 568.64 1000.40 710.97 1161.99 727.16
00000540 00000053 930.47 131.19 491.43 744.34 1001.08 430.29 1217.45 448.84 1043.74 566.02 1002.21 705.86 1160.05 725.57
00000541 00000054 930.07 132.45 490.44 741.46 999.92 430.05 1216.07 449.22 1042.58 566.96 1000.26 704.88 1159.24 725.03
00000542 00000055 928.94 132.91 490.86 741.44 998.74 429.17 1214.70 449.13 1040.84 567.57 998.48 704.05 1157.78 724.85
00000543 00000056 928.47 133.69 489.63 735.56 997.54 429.31 1213.01 449.67 1039.77 566.76 996.15 702.70 1156.81 723.70
00000544 00000057 925.16 122.19 480.98 752.21 988.82 428.64 1212.75 451.27 1034.80 570.54 997.12 701.80 1160.90 722.01
00000545 00000058 925.41 123.51 479.21 748.32 987.99 428.61 1212.39 451.71 1034.15 570.30 995.36 700.67 1160.11 721.25
00000546 00000059 925.20 122.98 478.79 748.80 987.45 429.18 1211.80 452.35 1032.79 570.29 994.16 701.87 1159.19 722.50
00000547 00000060 927.82 128.74 485.74 730.82 993.93 426.13 1209.60 450.94 1034.92 564.80 987.85 696.26 1155.75 720.82
00000548 00000061 927.62 129.15 484.06 730.47 994.60 426.23 1209.53 451.50 1035.19 564.96 987.72 696.59 1154.83 721.57
00000549 00000062 928.15 129.66 486.35 734.92 994.76 427.93 1209.87 451.69 1035.82 567.01 989.86 700.27 1154.90 724.03
00000550 00000063 926.91 134.35 490.13 743.38 998.33 429.63 1211.11 452.15 1036.98 569.40 994.82 703.82 1153.16 726.64
00000551 00000064 926.93 134.55 491.00 743.60 997.85 429.15 1212.11 451.68 1037.17 569.48 995.57 703.96 1155.75 726.72
00000552 00000065 927.33 135.20 489.77 741.99 998.07 429.56 1211.79 451.77 1037.73 569.88 996.51 704.04 1156.03 726.53
00000553 00000066 927.75 136.09 487.19 736.25 997.31 429.55 1211.53 453.33 1037.52 570.17 993.56 702.47 1156.79 726.11
00000554 00000067 928.20 135.88 485.79 731.55 996.94 428.85 1211.63 454.45 1037.74 569.65 991.56 700.25 1155.17 725.31
00000555 00000068 927.88 135.80 485.76 729.63 996.46 428.79 1211.31 454.38 1037.80 569.77 991.89 699.62 1155.45 724.58
00000556 00000069 928.10 135.81 485.85 726.66 995.59 428.87 1210.79 454.59 1037.46 569.02 990.63 698.62 1155.20 723.71
00000557 00000070 927.98 134.98 487.30 728.09 995.53 428.52 1211.70 454.80 1037.17 568.55 989.99 698.41 1154.59 723.96
00000558 00000071 923.74 126.92 478.83 750.70 987.46 430.91 1211.82 457.63 1031.53 572.72 992.72 703.90 1154.18 727.50
00000559 00000072 923.66 126.84 479.59 750.40 986.46 431.18 1211.28 457.07 1031.14 573.41 992.30 704.80 1153.59 727.70
00000560 00000073 927.15 134.43 487.84 728.38 995.07 428.76 1211.27 454.60 1036.99 569.05 989.49 698.52 1153.17 723.75
00000561 00000074 926.95 134.19 488.26 728.86 994.58 428.98 1211.01 454.57 1036.92 569.29 989.43 698.83 1153.21 723.86
00000562 00000075 926.24 134.44 488.24 728.39 994.28 428.92 1210.98 454.55 1036.98 568.77 988.88 698.48 1153.02 723.49
00000563 00000076 925.95 133.94 487.18 728.21 994.18 428.62 1209.80 454.10 1036.00 567.29 988.24 697.21 1151.76 722.12
00000564 00000077 925.69 134.05 486.61 727.51 993.60 428.57 1209.46 454.11 1035.89 566.98 987.57 696.76 1151.59 721.70
00000565 00000078 925.46 132.79 486.22 728.85 993.80 428.24 1209.99 454.16 1035.85 566.70 987.09 695.98 1151.96 721.21
00000566 00000079 925.90 133.10 485.72 729.23 994.33 426.96 1210.37 453.82 1035.84 565.45 986.19 695.35 1151.33 721.36
00000567 00000080 925.41 132.81 485.78 729.87 994.28 426.86 1210.25 453.35 1035.82 564.84 986.25 695.26 1151.36 721.00
00000568 00000081 925.59 133.02 484.69 729.30 993.85 427.23 1209.62 453.23 1035.50 565.52 986.17 695.52 1151.10 720.84
00000569 00000082 924.70 133.08 485.08 729.33 992.87 427.45 1209.05 452.98 1034.77 565.93 985.60 696.09 1150.84 721.03
00000570 00000083 924.20 131.08 487.25 730.89 992.24 427.42 1209.36 452.69 1034.30 565.37 985.27 696.14 1151.29 720.90
00000571 00000084 924.26 131.76 486.86 727.79 991.85 427.27 1209.11 452.64 1034.39 565.92 984.96 695.91 1151.32 720.79
00000572 00000085 924.16 131.55 485.61 728.08 991.77 427.09 1208.19 451.94 1034.01 566.13 985.57 695.11 1152.15 719.53
00000573 00000086 923.00 131.25 486.58 733.91 991.88 427.94 1208.18 451.09 1033.74 568.13 987.72 695.13 1156.09 718.07
00000574 00000087 921.54 130.86 493.79 749.32 992.70 429.19 1207.85 447.86 1032.72 569.41 994.20 702.08 1159.49 721.50
00000575 00000088 922.29 123.68 491.73 745.88 988.78 425.69 1207.20 441.66 1033.84 565.65 993.32 693.50 1164.61 710.31
00000576 00000089 910.24 118.47 498.33 752.20 985.90 420.79 1212.05 432.58 1036.72 559.61 992.23 694.51 1174.25 705.65
00000577 00000090 905.23 106.44 509.58 766.21 973.02 408.29 1202.29 420.88 1028.00 555.05 986.33 693.19 1157.44 705.46
00000578 00000091 898.62 115.05 494.14 746.84 956.67 411.74 1178.21 422.26 1007.99 552.70 966.29 689.51 1128.20 701.24
00000579 DELETE   884.96 115.64 495.57 741.33 941.51 416.30 1162.32 427.42 989.24 554.19 950.06 692.02 1111.52 704.01
00000580 00000093 860.28 120.20 498.81 742.37 920.73 419.17 1133.82 431.51 963.82 560.20 933.96 693.62 1094.04 705.78
00000581 00000094 838.10 133.45 491.64 728.26 901.67 419.50 1111.06 427.86 941.31 571.19 921.46 697.65 1078.94 706.11
00000582 DELETE   835.13 127.38 480.11 734.10 876.08 425.28 1083.96 426.16 919.00 565.27 900.57 702.10 1050.08 705.28
00000583 00000096 810.85 121.24 491.05 731.37 863.56 424.60 1067.56 419.44 907.83 563.91 895.33 698.69 1041.12 696.43
00000584 00000097 794.49 131.64 498.33 722.34 852.17 426.43 1054.16 418.68 895.85 563.79 887.21 700.01 1030.57 695.39
00000585 00000098 790.33 140.93 494.07 709.23 846.76 427.51 1046.80 413.66 891.59 561.09 885.92 701.44 1027.27 691.80
00000586 00000099 789.67 132.66 499.80 712.42 845.20 421.55 1048.46 410.51 888.19 555.49 880.58 696.34 1023.80 689.19
00000587 00000100 789.83 129.41 496.82 718.59 847.92 421.39 1049.89 410.48 890.95 553.97 882.95 696.63 1025.32 689.61
00000588 00000101 791.02 128.82 494.96 723.15 849.75 421.43 1049.73 409.78 891.85 554.40 885.43 696.88 1027.66 689.21
00000589 00000102 791.75 135.52 497.42 722.29 850.95 424.97 1051.21 414.10 894.17 560.53 888.50 702.28 1030.91 695.13
00000590 00000103 791.94 138.62 495.30 724.37 850.73 428.84 1052.63 418.41 894.45 566.70 887.95 706.45 1033.47 699.68
00000591 00000104 791.66 140.28 493.45 725.26 849.61 434.64 1051.60 424.02 893.78 573.61 887.86 711.52 1033.43 704.36
00000592 00000105 787.55 140.45 493.18 729.96 848.36 442.07 1048.74 432.75 893.15 584.22 888.42 715.59 1036.35 709.22
00000593 00000106 785.11 141.81 493.41 734.10 845.80 449.75 1045.93 438.28 890.19 589.60 886.96 724.06 1035.46 715.69
00000594 00000107 783.33 140.95 497.38 734.63 844.86 451.22 1045.06 439.60 890.63 590.87 886.72 724.12 1035.99 715.50
00000595 00000108 784.13 140.84 498.56 734.88 844.69 451.53 1044.48 440.40 889.67 591.33 886.79 724.82 1035.10 716.61
00000596 00000109 784.39 142.57 499.46 733.12 844.93 451.16 1044.75 441.07 889.53 591.18 886.08 723.66 1034.71 716.38
00000597 00000110 786.26 143.03 495.75 732.89 846.08 450.17 1044.94 440.97 889.65 591.01 885.77 723.03 1034.49 716.53
00000598 00000111 788.29 142.51 495.93 731.74 847.23 448.23 1046.82 441.10 890.31 591.03 885.31 720.04 1035.44 715.39
00000599 00000112 790.38 143.52 492.01 727.67 848.52 448.58 1050.04 442.24 892.65 590.83 883.92 717.99 1036.49 714.11
00000600 00000113 792.22 145.36 495.04 722.13 850.39 448.15 1049.85 442.91 894.92 589.73 886.05 712.52 1036.77 709.58
00000601 00000114 803.08 133.74 490.11 728.85 858.04 443.96 1062.20 445.08 900.84 586.83 893.86 705.93 1045.43 707.15
00000602 DELETE   806.82 117.20 493.21 734.90 859.15 426.29 1079.63 424.92 907.26 565.75 894.97 693.07 1059.78 692.60
00000603 00000116 829.38 90.06 478.36 731.87 875.18 394.11 1093.62 394.53 923.27 530.92 903.06 663.84 1061.37 664.91
00000604 00000117 845.66 70.33 492.39 719.19 896.11 372.60 1104.96 366.68 938.26 495.09 915.88 637.27 1072.21 636.38
00000605 00000118 859.95 56.61 478.21 724.90 914.91 360.78 1127.98 358.38 961.62 477.38 934.23 622.32 1090.09 621.57
00000606 00000119 871.47 61.54 489.15 718.12 927.28 356.05 1138.84 358.20 973.33 478.62 937.06 621.96 1091.15 626.45
00000607 00000120 877.94 66.20 487.71 734.49 936.82 359.97 1143.29 363.77 977.07 481.37 943.69 628.11 1092.81 634.36
00000608 00000121 887.33 68.29 484.37 735.69 938.38 365.79 1141.55 372.52 973.23 494.25 945.89 633.29 1100.82 641.53
00000609 00000122 886.24 76.07 475.81 745.94 934.87 380.76 1139.37 384.66 974.84 517.31 951.12 656.25 1103.38 662.02
00000610 00000123 890.10 92.04 482.41 735.92 934.59 394.68 1136.34 400.90 970.97 533.28 953.93 667.77 1103.44 675.04
00000611 00000124 890.93 100.99 478.17 740.52 936.35 405.25 1133.82 405.38 971.10 545.75 964.32 684.37 1105.56 686.28
00000612 00000125 890.02 107.90 472.28 741.19 935.93 414.52 1136.13 412.22 974.82 558.46 968.47 695.95 1110.87 695.73
00000613 00000126 890.23 110.83 477.21 743.77 937.68 417.42 1136.93 415.37 975.13 559.32 969.71 698.47 1108.87 698.45
00000614 00000127 899.46 109.52 472.99 744.57 939.87 414.43 1139.57 412.79 976.35 557.10 970.44 698.24 1108.13 698.84
00000615 00000128 904.54 105.81 459.29 739.56 942.32 407.70 1141.82 408.76 979.10 551.67 970.63 691.15 1108.52 694.17
00000616 00000129 908.64 106.06 465.56 740.90 949.11 403.03 1153.62 407.70 986.89 547.92 973.73 686.61 1113.61 692.80
00000617 00000130 910.18 109.50 471.79 742.14 953.72 403.75 1158.58 407.97 990.89 547.75 976.79 686.36 1117.95 692.71
00000618 00000131 912.84 108.23 472.35 751.95 957.90 405.49 1162.97 409.00 992.49 548.20 980.31 690.16 1122.47 696.07
00000619 00000132 911.49 105.97 469.82 752.11 957.44 408.88 1163.75 413.80 995.47 553.11 980.70 691.26 1124.67 698.20
00000620 00000133 913.22 110.36 474.28 744.91 956.10 413.88 1163.13 421.17 995.76 560.12 979.33 693.90 1119.68 702.80
00000621 00000134 909.84 113.61 476.38 741.06 964.50 424.11 1175.93 446.58 996.21 565.50 973.66 692.33 1131.64 711.51
00000622 00000135 911.00 113.77 481.16 750.65 970.34 439.46 1188.51 456.56 1008.39 575.53 983.43 703.41 1148.75 718.53
00000623 DELETE   914.73 134.51 482.25 741.47 977.43 449.76 1200.45 474.07 1027.60 592.91 994.79 710.28 1166.11 731.30
00000624 DELETE   927.68 139.58 480.06 747.67 987.33 457.65 1202.92 485.23 1037.97 607.06 1002.77 720.96 1166.82 745.32
00000625 DELETE   927.97 154.80 482.38 736.43 994.66 465.09 1204.63 494.80 1046.39 620.23 1010.75 724.81 1168.12 750.65
CROP_BBOX: 495 0 1727 1080
