Video ID: 	An_yPqjT45w
H: 	1080
W: 	1920
FPS: 	29.97002997002997

FRAME INDEX X0 Y0 W H [Landmarks (5 Points)]

00005797 00000000 1037.95 210.96 340.64 521.30 1080.18 429.58 1210.47 434.66 1097.72 523.44 1096.89 595.56 1211.00 601.00
00005798 00000001 1035.97 212.52 344.79 522.02 1077.25 430.32 1205.95 434.83 1092.74 524.44 1095.06 597.45 1208.41 602.18
00005799 00000002 1031.71 212.26 350.43 524.06 1075.14 429.80 1204.08 435.77 1089.27 523.78 1090.70 596.99 1204.71 602.88
00005800 00000003 1033.33 210.77 348.83 527.90 1078.96 425.88 1206.10 433.47 1080.40 517.51 1083.89 599.41 1193.32 603.40
00005801 00000004 1025.14 207.59 349.02 536.04 1066.02 429.24 1205.11 442.99 1080.28 525.77 1075.55 601.26 1194.98 610.23
00005802 00000005 1025.10 213.27 346.16 532.35 1066.26 430.48 1206.13 448.45 1080.02 532.56 1071.34 601.79 1196.29 614.15
00005803 00000006 1028.89 222.22 346.36 523.03 1077.00 436.15 1207.81 453.42 1081.43 535.76 1074.49 603.19 1191.70 614.63
00005804 00000007 1030.83 228.48 347.12 514.26 1074.64 441.80 1202.40 456.64 1088.83 541.65 1089.13 603.11 1202.97 615.19
00005805 00000008 1035.39 239.12 347.02 509.03 1073.87 451.07 1198.11 457.32 1087.23 546.89 1095.83 611.47 1208.17 616.40
00005806 00000009 1036.86 241.67 349.96 512.09 1072.28 456.16 1191.81 459.05 1083.73 552.67 1102.45 617.50 1211.27 619.37
00005807 00000010 1034.14 247.98 356.40 515.13 1073.99 460.66 1189.52 456.75 1084.31 553.87 1103.08 623.15 1214.71 620.07
00005808 00000011 1035.18 247.59 355.04 520.41 1073.81 463.09 1187.59 457.35 1080.89 555.61 1106.56 629.55 1216.06 624.88
00005809 00000012 1033.29 237.80 364.34 535.62 1070.28 464.57 1191.30 453.22 1079.82 550.77 1106.98 639.99 1214.76 626.87
00005810 00000013 1036.72 239.19 361.44 528.32 1071.52 470.64 1194.50 458.93 1082.38 553.55 1103.93 641.68 1210.48 628.87
00005811 00000014 1035.10 238.68 363.56 524.77 1068.55 478.53 1192.43 464.03 1078.89 557.36 1102.21 644.28 1212.47 629.24
00005812 00000015 1036.29 237.32 364.59 525.74 1068.60 478.12 1191.58 462.43 1078.42 556.89 1103.13 644.45 1213.00 628.50
00005813 DELETE   1035.06 236.27 368.35 524.94 1068.14 478.19 1192.75 460.19 1081.37 553.99 1104.71 645.18 1212.52 627.55
00005814 00000017 1033.30 236.00 368.86 523.73 1067.66 475.81 1189.04 460.00 1079.34 555.49 1104.03 642.75 1208.94 626.76
00005815 00000018 1031.82 235.41 367.92 524.93 1067.14 472.72 1185.22 460.38 1077.19 558.80 1104.55 639.92 1208.16 626.47
00005816 00000019 1031.89 236.14 363.92 527.70 1066.33 467.39 1180.13 458.85 1073.19 562.55 1104.24 639.73 1205.72 628.78
00005817 00000020 1030.66 246.12 360.37 519.44 1063.20 463.84 1185.30 457.31 1069.48 568.61 1101.62 641.55 1205.50 634.50
00005818 00000021 1029.28 245.19 362.56 520.11 1060.90 461.21 1182.76 454.31 1066.43 566.69 1100.22 641.10 1201.80 633.75
00005819 00000022 1026.03 245.53 362.78 517.47 1058.07 461.18 1178.71 451.41 1063.02 563.43 1097.71 643.01 1196.56 633.77
00005820 00000023 1022.16 242.23 363.63 515.29 1054.84 459.74 1170.95 450.48 1055.11 557.08 1091.14 639.22 1186.26 631.09
00005821 00000024 1015.24 235.83 363.35 521.44 1050.84 458.53 1163.35 452.47 1048.16 554.00 1085.28 635.10 1177.00 629.91
00005822 00000025 1009.62 233.17 362.90 524.33 1046.45 456.19 1154.86 448.67 1041.42 548.72 1083.76 633.71 1167.05 627.93
00005823 00000026 1004.90 220.42 359.61 529.78 1034.71 454.60 1137.95 446.85 1036.02 547.27 1068.95 631.57 1154.07 622.47
00005824 DELETE   992.17 213.81 366.30 531.49 1029.26 443.00 1130.60 440.63 1026.10 538.58 1061.45 617.90 1143.69 612.97
00005825 DELETE   991.69 208.88 361.01 532.42 1029.40 436.55 1122.05 431.45 1020.10 531.01 1066.00 614.78 1139.20 607.30
00005826 DELETE   985.20 200.23 363.28 543.01 1017.30 429.70 1121.77 420.13 1016.46 529.89 1064.99 615.98 1146.52 604.59
00005827 00000030 975.36 196.77 370.34 543.30 1012.76 423.31 1112.61 409.33 1002.68 522.73 1066.10 609.78 1147.89 595.42
00005828 00000031 973.56 190.81 370.79 544.11 1008.16 419.76 1110.19 405.20 997.85 518.18 1063.03 604.60 1143.05 590.64
00005829 00000032 973.83 186.16 370.96 537.69 1000.81 419.49 1113.10 404.18 998.15 516.79 1051.45 601.76 1135.35 589.80
00005830 00000033 976.92 178.61 366.04 541.65 1000.09 418.40 1112.94 399.92 999.19 512.88 1048.28 600.31 1133.15 587.04
00005831 00000034 977.26 174.18 365.13 545.39 999.80 415.50 1113.20 397.07 999.25 509.05 1047.39 598.55 1130.53 585.57
00005832 00000035 976.37 173.58 362.75 546.56 1002.99 413.01 1112.08 395.95 999.26 505.59 1049.82 596.43 1128.70 584.13
00005833 00000036 975.62 173.65 363.89 548.49 1003.45 416.41 1111.99 398.14 998.65 507.29 1049.89 598.42 1129.67 584.80
00005834 00000037 976.65 181.20 363.63 543.07 1004.24 422.69 1111.72 403.60 998.00 512.33 1052.01 601.17 1135.39 586.20
00005835 DELETE   975.72 186.79 368.93 543.66 1008.27 424.53 1113.83 408.50 1001.08 516.95 1058.74 601.47 1143.94 587.29
00005836 00000039 978.89 190.65 372.93 541.19 1014.62 424.86 1119.60 411.25 1005.76 520.67 1064.74 602.78 1148.76 589.62
00005837 00000040 980.64 191.73 374.22 541.14 1018.80 424.23 1124.60 411.46 1011.23 517.79 1066.34 599.27 1153.79 586.34
00005838 00000041 982.84 184.70 371.40 547.00 1020.29 423.18 1127.91 408.98 1011.60 513.34 1067.99 597.10 1157.54 583.11
00005839 00000042 986.46 177.61 368.70 550.85 1020.81 417.68 1129.84 402.92 1011.42 505.67 1066.78 594.30 1156.41 580.49
00005840 00000043 987.47 174.83 369.49 552.54 1020.63 412.11 1127.52 397.32 1009.22 500.35 1064.92 590.50 1155.15 577.32
00005841 00000044 986.50 172.32 368.90 552.45 1018.12 410.09 1124.50 394.40 1004.15 498.48 1062.31 588.74 1151.19 575.55
00005842 00000045 984.46 169.89 366.96 553.31 1016.01 409.42 1118.09 392.67 1000.48 499.75 1063.73 586.37 1151.31 572.48
00005843 00000046 983.29 176.09 368.98 548.13 1014.66 409.05 1117.54 392.26 998.78 500.62 1064.16 586.79 1152.23 572.58
00005844 00000047 982.33 176.22 373.32 550.67 1016.87 409.48 1118.38 392.16 1000.37 500.93 1067.54 589.12 1153.75 573.92
00005845 00000048 981.64 177.59 375.63 549.59 1017.22 409.97 1118.61 393.03 1000.34 502.18 1069.18 588.69 1157.43 573.45
00005846 00000049 984.59 176.27 374.44 549.68 1019.84 410.35 1119.56 394.10 999.78 502.01 1070.91 588.66 1159.55 573.82
00005847 00000050 987.55 174.34 372.69 552.59 1023.66 408.65 1122.20 394.44 1001.34 500.37 1072.98 587.48 1161.27 573.89
00005848 00000051 989.25 170.77 375.69 563.22 1028.22 406.71 1125.13 393.07 1003.73 499.13 1077.25 590.68 1166.50 576.49
00005849 00000052 994.03 168.76 373.99 572.02 1037.09 405.64 1128.54 392.94 1007.34 496.66 1084.64 590.22 1172.86 575.39
00005850 00000053 997.32 170.80 375.15 575.10 1042.68 405.22 1135.44 394.35 1015.20 498.46 1088.74 590.37 1181.44 576.32
00005851 00000054 999.86 171.50 376.94 577.54 1045.57 404.64 1138.59 393.98 1018.72 498.82 1090.59 591.03 1184.53 576.83
00005852 00000055 1004.60 179.15 369.24 561.69 1043.47 405.82 1134.89 396.83 1023.44 507.30 1090.36 592.69 1181.72 582.49
00005853 00000056 1003.01 172.34 376.61 573.03 1047.42 407.95 1140.63 392.59 1022.68 500.93 1098.00 596.43 1190.19 578.61
00005854 00000057 1002.93 170.25 375.20 570.30 1048.00 406.49 1141.67 394.62 1022.77 500.22 1095.85 592.64 1187.24 578.13
00005855 00000058 1003.20 169.22 373.12 569.92 1047.73 405.98 1142.48 395.84 1021.46 500.40 1093.85 591.30 1185.70 578.36
00005856 00000059 1005.84 170.47 371.75 566.42 1048.72 406.48 1144.11 396.18 1022.94 500.39 1093.89 591.13 1187.90 578.33
00005857 00000060 1006.64 174.07 373.34 561.90 1050.25 407.29 1147.74 397.34 1026.97 500.47 1093.93 590.05 1190.22 577.64
00005858 00000061 1008.91 177.84 373.21 557.24 1050.25 409.59 1151.16 399.37 1029.45 501.68 1092.38 591.74 1190.52 579.38
00005859 00000062 1010.27 181.07 376.28 553.28 1049.58 409.42 1154.68 400.21 1031.20 501.02 1089.42 589.46 1191.15 577.98
00005860 00000063 1008.78 190.56 374.14 538.76 1047.75 411.61 1150.48 406.28 1036.54 509.29 1085.62 588.49 1186.21 581.87
00005861 00000064 1009.02 190.99 372.66 535.96 1048.27 411.83 1152.07 408.19 1037.97 509.60 1084.80 586.05 1187.45 580.77
00005862 00000065 1008.94 192.61 373.35 533.46 1048.88 412.16 1153.82 408.38 1040.20 508.67 1083.28 585.53 1186.99 580.25
00005863 00000066 1013.21 184.89 372.15 545.50 1048.81 411.36 1160.88 402.96 1036.08 502.76 1083.85 588.64 1193.69 578.39
00005864 00000067 1013.59 181.77 374.00 548.78 1047.79 408.78 1163.58 398.70 1038.12 500.62 1083.41 588.22 1196.02 576.73
00005865 00000068 1015.49 177.60 375.46 554.39 1050.44 405.37 1167.62 395.85 1041.28 498.02 1083.30 586.44 1197.56 575.37
00005866 00000069 1014.20 177.43 377.79 553.82 1051.04 404.78 1172.88 397.29 1043.58 496.85 1078.73 583.11 1198.14 573.99
00005867 00000070 1014.20 176.41 379.35 554.56 1051.31 404.22 1175.18 397.45 1044.21 495.90 1076.46 583.05 1198.31 574.53
00005868 00000071 1012.22 176.10 380.06 555.55 1051.09 406.99 1178.16 399.70 1046.56 497.10 1073.91 585.97 1197.57 577.47
00005869 00000072 1010.88 177.64 382.07 557.33 1050.96 408.86 1178.71 403.09 1047.87 500.07 1073.25 586.77 1196.29 579.38
00005870 00000073 1011.25 181.19 381.13 552.75 1050.26 412.45 1177.26 404.87 1047.58 501.35 1073.77 590.28 1194.79 581.55
00005871 00000074 1008.44 179.20 382.47 556.11 1047.74 414.43 1175.40 405.30 1045.83 502.27 1071.54 591.40 1194.09 581.52
00005872 00000075 1006.89 180.06 378.93 552.27 1044.91 414.55 1173.11 405.42 1044.41 502.41 1067.08 591.10 1190.09 581.45
00005873 00000076 1004.09 178.38 374.33 551.06 1041.91 414.07 1170.83 405.87 1042.92 502.54 1063.56 589.47 1188.60 580.90
00005874 00000077 1001.19 178.54 371.17 548.78 1037.62 412.46 1167.53 406.51 1037.85 502.57 1058.93 586.50 1186.08 579.90
00005875 00000078 996.64 180.29 372.37 544.81 1034.36 412.39 1163.43 407.90 1034.75 501.14 1055.14 584.43 1179.62 579.26
00005876 00000079 991.94 182.23 375.60 544.39 1033.68 412.13 1159.30 410.81 1032.84 501.99 1053.59 583.83 1173.18 581.13
00005877 00000080 989.55 182.76 373.10 544.25 1030.68 415.17 1157.33 413.52 1030.96 503.67 1049.36 586.00 1167.73 583.43
00005878 00000081 990.66 186.37 365.93 539.84 1029.86 415.84 1155.72 418.90 1028.31 507.57 1044.97 585.51 1162.37 587.00
00005879 00000082 991.09 186.67 364.57 541.62 1030.54 415.51 1157.98 420.21 1028.52 509.01 1044.32 587.63 1160.96 590.25
00005880 00000083 994.25 185.35 367.88 552.10 1040.90 414.12 1165.85 418.52 1037.32 507.12 1055.83 590.49 1170.27 591.53
00005881 00000084 999.88 188.54 371.27 556.93 1047.63 415.24 1174.81 412.72 1049.32 505.50 1068.93 599.66 1179.91 595.15
00005882 00000085 1006.08 187.49 362.82 559.94 1055.74 413.62 1186.20 409.83 1062.54 504.40 1080.34 601.34 1191.15 595.69
00005883 00000086 1010.30 183.48 361.68 566.86 1060.72 412.93 1191.54 405.56 1070.57 501.60 1085.06 601.81 1199.51 593.07
00005884 00000087 1011.55 183.97 359.70 565.93 1063.34 413.19 1198.07 402.63 1078.16 498.02 1090.26 603.32 1205.09 592.09
00005885 00000088 1011.22 185.65 362.98 560.64 1064.50 415.07 1200.81 401.86 1086.15 501.97 1095.29 602.63 1211.65 589.12
00005886 00000089 1009.38 184.73 367.40 553.41 1063.69 419.30 1202.02 403.08 1092.21 507.04 1097.69 601.64 1218.65 585.64
00005887 00000090 1008.53 185.77 374.80 547.35 1063.00 421.44 1204.90 403.01 1096.82 507.86 1098.41 600.42 1223.65 582.87
00005888 00000091 1006.87 190.76 370.84 541.98 1058.87 419.89 1201.04 406.53 1098.66 510.56 1096.80 597.27 1225.25 585.58
00005889 00000092 1008.74 188.03 374.20 545.32 1062.81 421.30 1207.01 404.25 1107.99 511.25 1103.32 598.27 1235.23 583.16
00005890 00000093 1009.81 188.76 379.39 545.79 1066.44 425.13 1213.82 403.06 1119.44 510.99 1109.90 598.91 1246.65 579.12
00005891 00000094 1013.95 191.88 379.53 547.14 1071.64 429.51 1218.99 401.57 1129.90 514.09 1119.88 602.95 1259.26 578.03
00005892 00000095 1015.98 195.43 380.28 546.41 1073.80 435.39 1222.87 404.42 1134.40 519.84 1124.76 606.69 1266.49 579.06
00005893 00000096 1018.41 202.04 382.03 547.36 1077.89 446.70 1228.91 411.57 1142.20 524.81 1130.64 614.16 1273.81 583.18
00005894 00000097 1021.37 205.85 380.66 551.25 1080.65 452.48 1231.76 415.25 1147.22 535.77 1134.31 621.16 1278.34 588.49
00005895 00000098 1023.71 209.81 379.76 558.78 1082.26 455.85 1233.45 418.05 1148.69 539.90 1135.43 626.48 1281.50 593.62
00005896 00000099 1024.38 209.39 380.66 566.72 1084.31 454.68 1236.16 416.29 1151.65 537.60 1136.30 628.57 1283.49 595.28
00005897 00000100 1025.22 207.58 382.20 562.64 1085.41 452.15 1237.38 412.40 1153.24 533.82 1137.67 625.63 1283.90 591.20
00005898 00000101 1025.27 205.19 382.93 556.47 1085.31 449.83 1236.67 409.16 1152.43 528.22 1137.92 620.17 1283.47 584.69
00005899 00000102 1023.72 202.91 383.65 555.75 1083.57 448.19 1235.37 409.98 1151.29 529.30 1135.22 617.49 1281.77 584.02
00005900 00000103 1022.55 204.48 381.78 553.60 1081.88 449.76 1232.98 411.41 1149.51 532.32 1133.79 617.30 1281.03 583.55
00005901 00000104 1019.92 203.54 381.28 554.86 1079.03 449.97 1229.97 414.53 1145.89 536.66 1130.43 617.56 1278.02 585.95
00005902 00000105 1017.91 204.55 381.07 553.32 1076.02 448.92 1225.65 415.90 1140.63 536.26 1127.08 616.64 1273.15 587.01
00005903 00000106 1012.86 204.35 382.82 551.83 1070.92 447.41 1221.40 415.10 1134.62 531.61 1121.81 614.60 1268.97 585.25
00005904 00000107 1009.54 204.97 381.63 544.45 1068.26 442.11 1216.35 413.32 1128.69 528.45 1116.87 608.53 1262.55 582.12
CROP_BBOX: 735 0 1590 902
