Video ID: 	GUKVh9OpxJc
H: 	1080
W: 	1920
FPS: 	23.976023976023978

FRAME INDEX X0 Y0 W H [Landmarks (5 Points)]

00000881 00000000 779.32 207.23 443.47 648.47 946.36 419.09 1147.16 435.72 1073.19 555.29 954.96 677.09 1113.99 689.79
00000882 00000001 774.27 199.69 446.08 648.36 940.03 406.82 1143.97 426.68 1062.38 546.89 948.18 668.85 1102.97 684.11
00000883 DELETE   768.75 187.22 452.11 654.71 933.59 395.17 1139.26 413.53 1056.90 532.73 945.75 659.94 1096.87 673.30
00000884 DELETE   768.18 181.84 456.67 658.35 936.28 391.81 1139.23 410.50 1055.55 525.69 945.16 655.39 1093.85 669.07
00000885 DELETE   771.55 182.28 454.84 661.43 938.45 389.47 1141.56 411.04 1055.52 518.78 943.14 652.76 1094.82 669.06
00000886 00000005 774.09 183.90 455.61 656.87 939.69 387.96 1144.86 411.90 1057.30 514.69 942.66 648.04 1100.18 666.23
00000887 00000006 777.58 179.05 457.04 647.40 940.42 388.87 1146.79 412.31 1060.18 512.73 947.50 639.53 1109.71 657.19
00000888 00000007 775.41 175.16 458.32 660.23 945.88 392.14 1142.21 415.04 1062.51 520.18 947.60 643.72 1110.88 663.70
00000889 00000008 784.44 181.56 450.25 669.54 954.96 392.01 1150.54 420.24 1066.86 530.74 953.11 656.07 1101.19 678.91
00000890 00000009 788.07 186.86 453.10 679.96 958.80 395.69 1163.53 427.42 1083.21 526.03 961.91 667.14 1113.87 693.88
00000891 00000010 794.90 184.04 457.98 674.89 972.39 403.61 1176.25 437.60 1090.86 552.41 970.24 670.95 1121.85 698.28
00000892 00000011 796.66 186.60 457.75 672.21 971.78 409.82 1178.72 441.94 1093.59 559.52 970.64 674.21 1127.71 699.94
00000893 00000012 796.99 184.65 460.32 676.06 969.16 414.14 1178.07 446.57 1091.30 565.01 966.55 676.17 1128.63 701.82
00000894 00000013 795.67 193.27 461.93 670.57 967.66 418.03 1174.79 448.45 1088.37 567.87 963.80 677.65 1129.09 701.77
00000895 00000014 795.38 196.26 465.86 675.05 969.75 422.08 1175.73 451.63 1090.91 572.68 966.60 681.89 1132.64 705.32
00000896 00000015 796.36 199.47 467.69 676.48 978.84 427.28 1179.00 455.23 1100.47 578.26 976.97 688.74 1134.83 710.92
00000897 00000016 799.76 206.47 466.22 675.17 981.70 433.25 1178.93 458.38 1103.00 583.65 982.61 698.24 1134.12 718.48
00000898 00000017 800.75 214.76 461.04 666.01 976.75 437.90 1174.69 461.06 1098.71 588.01 981.39 704.29 1130.68 723.08
00000899 00000018 785.12 223.21 457.76 654.32 945.10 445.07 1153.31 466.74 1063.35 595.49 949.35 705.83 1104.74 724.09
00000900 00000019 774.70 231.18 460.39 620.08 932.06 449.65 1139.84 467.90 1047.64 596.79 946.63 706.58 1097.43 721.14
00000901 00000020 765.44 238.18 458.65 600.59 907.22 465.38 1111.98 479.08 1013.35 603.90 928.24 710.05 1076.60 720.20
00000902 DELETE   755.09 241.71 450.39 609.75 885.39 475.65 1090.45 492.35 986.44 619.08 901.08 720.61 1051.84 734.93
00000903 DELETE   731.19 265.26 445.49 581.45 847.40 489.02 1057.26 504.18 941.33 633.75 856.70 718.54 1015.63 732.23
00000904 DELETE   725.97 262.81 444.41 580.85 837.74 488.09 1047.92 502.23 931.94 635.34 848.96 716.46 1005.42 729.76
00000905 00000024 728.82 264.27 444.57 571.86 839.06 489.27 1049.20 504.82 931.13 639.62 853.78 707.84 1008.21 722.36
00000906 00000025 731.17 269.55 449.54 575.60 851.37 488.35 1059.29 505.58 943.52 633.66 862.72 700.77 1020.01 716.79
00000907 00000026 750.70 273.52 461.36 610.78 884.96 479.97 1089.94 509.20 974.41 632.91 891.05 716.80 1047.79 742.38
00000908 DELETE   763.79 257.07 459.49 632.94 917.41 475.47 1113.55 499.71 1019.99 629.92 924.19 715.55 1068.59 738.07
00000909 00000028 768.40 262.56 462.11 647.64 925.05 471.59 1131.86 500.53 1035.20 618.73 914.46 719.31 1085.94 744.67
00000910 00000029 785.54 258.68 452.94 652.25 950.14 465.25 1147.06 494.00 1059.77 620.47 946.90 726.02 1102.08 751.20
00000911 00000030 801.84 256.55 459.19 668.90 980.99 458.07 1185.54 493.21 1096.95 625.90 969.86 730.86 1123.22 758.79
00000912 00000031 809.93 252.84 454.65 671.90 990.24 456.32 1189.81 491.99 1105.69 622.40 974.10 728.22 1126.93 756.50
00000913 00000032 811.36 251.84 457.71 662.08 996.64 455.90 1194.36 491.24 1112.01 616.89 983.72 722.53 1133.11 750.42
00000914 00000033 810.85 252.11 460.81 653.45 994.10 458.52 1194.67 488.97 1114.93 613.49 990.85 721.44 1139.30 745.01
00000915 00000034 808.89 244.02 461.08 658.75 989.21 453.90 1190.62 484.14 1107.65 602.68 988.88 715.37 1135.50 738.76
00000916 00000035 805.22 240.39 467.79 668.53 987.99 449.20 1187.75 484.12 1099.75 596.75 980.09 712.06 1126.42 739.76
00000917 00000036 807.24 235.73 461.85 676.09 982.01 446.58 1184.38 482.48 1092.97 588.63 967.88 710.21 1123.80 739.31
00000918 00000037 806.78 232.41 462.84 678.16 979.85 445.38 1184.99 483.54 1092.52 583.38 962.79 706.91 1126.34 738.17
00000919 00000038 806.72 228.19 460.92 681.00 980.83 444.79 1184.61 483.93 1094.87 581.33 962.14 703.61 1126.75 735.84
00000920 00000039 806.48 229.76 461.92 677.70 981.32 444.86 1183.76 483.16 1094.47 581.63 964.39 702.39 1126.37 733.82
00000921 00000040 805.85 229.27 461.49 674.10 980.55 444.88 1182.48 481.97 1093.94 581.82 967.92 700.84 1126.03 731.05
00000922 00000041 806.76 221.28 461.31 676.60 981.74 442.32 1176.44 476.10 1095.01 581.03 966.50 699.69 1129.83 727.96
00000923 00000042 807.77 224.29 461.89 672.63 982.08 444.72 1177.47 478.33 1094.04 582.48 966.94 699.64 1130.89 727.82
00000924 00000043 810.13 234.76 461.09 665.17 982.52 448.09 1185.61 484.38 1096.18 586.53 971.33 700.16 1132.05 729.49
00000925 00000044 811.57 234.34 461.32 670.36 985.13 448.64 1187.40 487.10 1097.51 588.46 970.63 702.79 1131.29 733.89
00000926 00000045 812.12 235.23 464.38 673.05 987.44 451.42 1190.50 491.22 1099.26 591.01 970.52 705.40 1133.19 737.45
00000927 00000046 812.82 239.12 468.56 670.08 991.18 454.69 1194.24 497.81 1102.80 592.42 970.58 707.06 1135.15 741.79
00000928 00000047 813.87 236.30 469.97 672.36 992.12 454.22 1195.00 496.96 1103.85 592.69 971.31 706.65 1135.53 741.02
00000929 00000048 814.56 241.44 468.89 666.14 992.39 454.19 1194.63 496.37 1103.77 593.67 973.02 706.68 1135.66 740.61
00000930 00000049 814.13 238.13 470.28 668.06 992.64 453.86 1195.02 495.39 1104.43 593.23 974.65 705.94 1135.80 739.36
00000931 00000050 813.19 234.60 471.60 671.43 994.52 452.99 1195.39 495.35 1105.85 591.78 975.19 704.57 1135.31 738.78
00000932 00000051 812.91 232.72 472.05 673.17 994.69 451.85 1195.24 495.17 1104.79 592.14 973.64 703.86 1133.64 738.95
00000933 00000052 812.79 232.69 473.25 672.60 993.55 450.01 1194.61 493.23 1103.20 590.87 971.92 702.34 1132.68 737.38
00000934 00000053 812.14 232.39 472.56 672.37 992.44 447.45 1193.60 492.67 1101.19 588.56 968.31 699.62 1130.91 736.52
00000935 00000054 810.91 229.50 470.39 674.45 990.82 444.07 1191.52 491.11 1097.85 585.01 963.01 696.51 1127.35 735.40
00000936 00000055 812.26 223.16 468.62 676.99 988.38 440.60 1183.27 482.59 1094.30 584.47 957.25 694.42 1130.01 729.59
00000937 00000056 813.11 222.35 466.20 671.14 988.48 439.45 1183.31 480.24 1095.02 584.50 958.47 691.00 1130.90 725.13
00000938 00000057 811.42 217.28 464.81 661.13 987.32 439.50 1183.59 478.70 1096.11 583.49 960.78 684.24 1133.93 716.87
00000939 00000058 808.58 214.45 464.68 651.64 985.13 438.66 1182.50 476.12 1098.18 579.15 963.75 678.12 1137.01 709.05
00000940 00000059 807.95 211.80 463.75 658.12 985.71 435.96 1181.57 473.08 1099.89 577.92 963.02 677.90 1135.82 708.56
00000941 00000060 806.44 209.46 465.93 666.83 986.12 433.49 1181.04 471.98 1098.88 577.67 960.99 679.96 1130.41 711.90
00000942 00000061 805.43 206.43 466.54 673.39 985.57 432.09 1179.76 471.12 1097.68 577.26 959.33 680.23 1128.50 712.64
00000943 00000062 802.83 203.88 468.57 670.33 985.00 426.83 1182.06 465.88 1097.24 577.00 959.25 678.70 1126.88 710.93
00000944 00000063 802.19 202.85 468.17 668.50 983.91 426.52 1182.49 465.08 1097.07 576.34 960.17 678.29 1127.60 709.93
00000945 00000064 802.08 200.66 466.94 667.28 983.23 425.17 1182.92 463.65 1096.79 576.42 960.95 677.58 1127.29 709.01
00000946 00000065 800.72 196.25 467.32 673.41 982.76 423.48 1182.26 462.14 1096.18 575.28 961.13 676.81 1127.15 708.34
00000947 00000066 797.63 191.49 471.13 678.50 981.49 419.86 1182.03 459.52 1093.99 573.59 960.89 675.69 1124.27 707.88
00000948 00000067 796.56 191.95 469.24 673.71 981.05 419.60 1181.77 458.69 1094.44 573.21 961.91 674.21 1123.72 705.77
00000949 00000068 796.84 192.06 467.53 671.85 979.33 418.18 1181.73 456.56 1094.12 571.72 961.89 673.58 1124.45 704.43
00000950 00000069 797.37 191.14 467.41 674.17 979.86 416.88 1181.50 455.05 1094.07 570.97 961.63 673.08 1123.75 703.84
00000951 00000070 797.90 189.60 467.11 678.73 981.44 415.30 1179.64 454.15 1092.27 569.87 959.34 672.48 1118.99 704.11
00000952 00000071 798.78 191.83 462.35 670.99 979.58 415.43 1178.92 453.66 1091.34 568.93 959.39 670.67 1117.72 701.77
00000953 00000072 799.25 196.22 456.41 660.13 977.80 416.21 1176.64 454.41 1089.44 567.86 958.70 668.10 1114.61 699.16
00000954 00000073 800.72 198.92 453.41 655.07 976.61 416.54 1175.47 453.92 1088.48 567.07 959.24 667.08 1114.40 697.48
00000955 00000074 804.35 200.12 450.19 653.36 977.67 417.97 1176.52 453.94 1090.68 566.80 961.63 667.52 1117.38 696.73
00000956 00000075 806.44 202.16 450.39 651.04 979.69 419.58 1177.62 454.16 1091.75 567.33 963.51 668.19 1119.19 696.23
00000957 00000076 808.22 203.96 451.41 649.26 981.92 421.20 1178.40 454.75 1094.02 568.64 966.30 669.40 1121.28 696.53
00000958 00000077 812.07 203.84 452.21 649.74 984.28 423.71 1179.93 456.44 1096.47 568.73 969.84 670.31 1124.86 696.81
00000959 00000078 822.14 206.53 452.55 645.06 993.68 427.00 1184.91 455.09 1104.34 566.45 985.24 670.38 1136.10 692.58
00000960 00000079 827.63 209.41 452.97 641.57 998.48 428.22 1189.64 453.59 1109.37 564.19 994.12 671.73 1144.71 691.44
00000961 00000080 836.67 208.71 447.43 645.24 1004.24 427.58 1195.47 450.39 1115.77 562.78 1000.69 673.96 1152.87 691.55
00000962 00000081 844.45 208.29 444.82 643.75 1010.54 425.17 1205.45 446.43 1125.17 561.18 1008.65 672.98 1163.75 689.42
00000963 00000082 851.37 198.26 449.88 653.18 1026.10 421.07 1223.22 449.73 1145.14 557.13 1015.84 665.46 1172.45 691.36
00000964 00000083 859.38 201.99 445.30 642.99 1034.21 419.17 1228.54 451.22 1147.52 560.37 1024.02 662.45 1174.21 688.34
00000965 00000084 864.16 201.90 444.16 644.16 1040.52 417.45 1234.41 453.09 1153.20 561.02 1027.12 661.31 1179.07 690.17
00000966 00000085 868.66 202.69 444.19 642.15 1042.98 417.51 1239.18 453.18 1157.07 561.31 1031.14 662.35 1184.03 691.16
00000967 00000086 873.54 200.03 447.26 647.10 1048.00 416.71 1245.91 451.90 1163.84 562.34 1036.25 663.68 1189.75 692.06
00000968 00000087 876.11 199.91 446.28 645.99 1050.02 417.20 1246.91 450.88 1166.37 562.22 1039.73 663.61 1191.86 690.68
00000969 00000088 878.24 197.13 446.54 647.02 1053.48 416.04 1248.01 448.92 1169.74 560.89 1044.09 662.35 1194.65 688.72
00000970 00000089 879.97 194.13 449.23 648.04 1056.28 414.14 1249.26 447.16 1171.62 558.12 1047.60 660.32 1195.78 686.67
00000971 00000090 884.56 191.18 449.93 645.79 1059.83 411.08 1252.23 441.38 1176.70 552.79 1055.38 657.51 1200.55 681.56
00000972 00000091 887.19 188.98 449.42 647.05 1062.09 408.80 1254.17 439.19 1179.16 549.76 1056.98 654.97 1202.91 679.17
00000973 00000092 887.95 187.42 450.02 646.77 1063.04 407.77 1255.57 438.21 1180.87 546.58 1058.99 653.27 1204.68 677.34
00000974 00000093 889.22 186.66 449.82 646.93 1064.81 406.46 1257.13 436.25 1182.13 545.62 1061.23 652.81 1205.73 676.34
00000975 00000094 890.41 186.01 450.62 644.99 1063.22 402.61 1258.72 433.02 1181.31 541.05 1060.90 649.81 1207.88 673.73
00000976 00000095 889.96 187.21 452.81 641.91 1062.20 400.60 1259.00 431.02 1180.18 539.60 1060.71 648.09 1207.77 672.00
00000977 00000096 889.97 186.08 454.84 641.20 1062.96 398.24 1259.91 427.82 1180.62 537.23 1063.12 645.31 1209.24 668.46
00000978 00000097 891.66 183.46 455.75 642.49 1065.66 395.07 1262.01 423.90 1182.73 535.84 1065.50 644.64 1210.42 667.21
00000979 00000098 891.55 185.11 455.79 638.43 1067.31 390.52 1263.48 420.58 1183.17 534.35 1066.61 642.77 1210.00 666.30
00000980 00000099 890.80 184.49 456.22 637.77 1066.30 389.15 1263.23 419.41 1182.41 533.77 1065.94 642.14 1209.18 665.82
00000981 00000100 889.82 182.24 456.36 638.37 1065.69 388.03 1262.81 418.43 1182.29 533.33 1065.91 641.33 1208.14 665.17
00000982 00000101 890.29 183.62 454.84 633.82 1064.51 387.36 1262.71 417.82 1181.24 532.66 1065.05 640.57 1207.69 664.51
00000983 00000102 891.59 180.02 450.35 630.51 1062.30 385.92 1264.12 417.42 1181.80 531.77 1062.57 637.93 1209.79 663.11
00000984 00000103 892.16 180.65 449.22 625.62 1061.31 385.97 1264.73 416.95 1181.60 531.66 1062.37 637.30 1210.85 662.02
00000985 00000104 892.03 176.73 449.78 628.89 1062.42 386.13 1266.19 416.12 1183.75 531.69 1064.74 637.01 1213.21 660.75
00000986 00000105 892.70 176.19 450.70 637.65 1066.77 387.30 1267.37 418.26 1186.69 533.73 1067.64 639.23 1212.56 663.76
00000987 00000106 899.02 186.73 447.19 639.99 1076.68 384.56 1273.58 417.58 1193.99 535.69 1072.02 643.37 1214.15 669.55
00000988 00000107 901.27 191.06 447.33 639.94 1080.03 385.95 1277.14 418.81 1198.47 537.44 1073.57 645.41 1219.33 671.61
00000989 00000108 900.93 195.61 448.33 637.38 1080.06 388.33 1276.76 421.48 1198.72 538.95 1071.48 647.27 1219.85 673.86
00000990 00000109 898.58 196.00 449.01 639.33 1078.58 391.14 1275.25 424.78 1196.39 542.89 1070.11 651.00 1216.74 677.82
00000991 00000110 897.50 200.13 446.58 639.72 1076.72 399.85 1271.04 431.32 1194.98 550.48 1070.17 659.29 1217.79 684.21
00000992 00000111 899.24 201.91 444.06 642.79 1079.60 402.52 1271.76 433.12 1198.75 551.27 1074.20 662.45 1219.63 686.35
00000993 00000112 902.76 203.88 441.75 643.51 1085.44 405.13 1276.09 434.97 1206.49 552.79 1080.45 665.71 1224.68 689.35
00000994 00000113 910.96 205.68 438.47 642.01 1093.94 406.54 1282.95 434.67 1215.52 552.97 1087.32 667.79 1231.66 690.32
00000995 00000114 929.50 210.46 442.13 637.15 1123.34 409.54 1308.85 451.20 1235.99 563.04 1102.44 664.89 1241.76 699.08
CROP_BBOX: 480 0 1619 1080
