Video ID: 	HCLYiFpqUG8
H: 	1080
W: 	1920
FPS: 	29.97002997002997

FRAME INDEX X0 Y0 W H [Landmarks (5 Points)]

00004209 00000000 474.30 95.74 519.29 740.33 598.58 365.07 823.52 390.20 670.98 472.43 582.74 617.95 761.19 640.87
00004210 00000001 477.70 90.35 518.41 737.93 596.13 363.70 826.09 390.72 670.70 475.35 580.44 614.41 769.30 638.52
00004211 00000002 481.83 90.76 519.09 741.81 603.36 363.36 834.35 391.51 679.12 476.16 585.62 615.60 777.85 640.35
00004212 00000003 491.52 96.46 518.45 740.89 620.67 364.16 844.27 390.47 693.74 477.64 604.80 621.94 782.17 645.47
00004213 00000004 501.84 100.88 517.27 741.07 636.04 363.09 857.69 389.54 711.09 478.39 620.44 625.04 791.57 648.56
00004214 00000005 514.70 96.81 512.77 745.56 647.10 361.19 869.95 388.23 726.31 483.26 631.73 625.76 805.53 650.27
00004215 00000006 516.94 86.45 520.40 750.86 651.46 361.33 884.75 391.12 741.75 475.75 642.69 622.10 821.92 649.53
00004216 DELETE   521.54 84.54 523.07 751.95 663.85 365.33 896.78 393.95 757.52 474.26 657.20 621.88 839.68 647.89
00004217 DELETE   535.32 86.72 514.23 742.68 685.16 364.44 915.38 396.26 788.75 475.82 663.15 618.07 859.02 644.59
00004218 DELETE   539.29 85.57 516.85 744.73 697.98 359.12 929.13 392.52 801.58 471.84 671.06 614.94 868.27 642.54
00004219 00000010 545.05 85.77 516.29 751.08 706.99 353.86 939.18 395.46 810.68 466.46 676.85 615.53 872.21 649.79
00004220 00000011 535.90 92.35 533.81 752.95 706.10 352.28 939.55 399.22 810.48 470.24 685.23 616.56 875.22 657.27
00004221 00000012 542.17 95.54 526.45 758.23 708.48 365.33 933.41 402.84 803.61 482.66 684.93 629.06 867.00 661.30
00004222 00000013 545.47 106.87 520.14 747.93 711.18 373.67 930.87 410.54 802.59 486.55 685.61 632.04 862.84 663.73
00004223 00000014 536.41 107.77 530.67 748.10 704.69 377.72 928.63 421.98 798.22 488.35 679.36 629.68 858.76 668.74
00004224 00000015 533.34 102.36 532.88 755.74 698.60 373.12 925.54 419.81 791.17 489.80 670.20 627.17 855.72 668.12
00004225 00000016 530.91 96.86 535.53 761.40 695.77 369.55 924.92 416.19 788.79 485.03 668.06 625.94 854.64 667.04
00004226 00000017 531.94 94.72 534.06 760.62 690.45 365.27 923.54 409.48 784.12 480.55 665.57 624.66 853.67 663.89
00004227 00000018 532.63 96.11 533.88 754.61 688.12 363.86 922.54 406.11 782.99 476.99 665.38 623.22 852.62 660.87
00004228 00000019 532.77 98.58 533.65 751.18 687.52 363.40 922.51 405.22 783.05 476.88 665.83 623.45 852.78 660.53
00004229 00000020 538.70 101.99 523.15 745.18 692.31 369.70 922.02 405.66 782.66 483.78 669.44 626.62 855.97 657.55
00004230 00000021 531.40 103.67 532.16 746.43 684.52 367.37 921.88 408.83 782.34 486.52 664.67 627.88 855.44 664.24
00004231 00000022 533.76 101.46 525.72 742.54 687.02 370.28 920.16 406.34 779.21 487.52 664.37 625.97 856.83 656.65
00004232 00000023 534.23 99.39 521.28 746.84 681.55 367.40 908.75 400.98 771.68 485.07 659.71 627.86 851.84 656.71
00004233 00000024 529.81 93.91 526.05 753.87 676.48 364.69 910.07 396.58 769.29 476.02 661.07 618.49 857.76 646.33
00004234 00000025 530.27 93.74 524.75 748.89 676.23 361.45 910.57 391.52 770.69 471.71 663.53 615.40 859.20 641.44
00004235 00000026 529.54 92.51 524.88 745.06 675.76 360.50 911.21 390.47 772.42 472.35 663.90 612.78 859.98 638.67
00004236 00000027 528.88 91.39 525.05 747.18 674.72 361.02 909.97 390.19 771.04 472.50 663.20 613.09 860.06 638.38
00004237 00000028 529.65 88.69 523.52 750.29 673.16 365.29 906.10 391.91 767.39 473.32 662.92 614.67 859.71 637.88
00004238 00000029 529.05 86.12 522.14 751.88 672.18 369.79 900.82 393.83 765.67 477.02 663.33 617.78 857.05 638.89
00004239 00000030 527.16 86.74 520.47 747.08 666.17 369.96 896.46 392.44 760.83 476.96 660.38 617.63 852.72 637.71
00004240 00000031 526.42 88.41 518.77 746.72 661.33 364.85 890.57 388.26 752.97 473.99 656.76 617.27 839.54 638.78
00004241 00000032 525.57 89.24 516.09 744.89 655.82 358.44 885.63 382.79 744.79 471.42 652.22 617.28 826.61 640.34
00004242 00000033 524.40 94.30 506.83 727.43 647.51 353.51 886.18 383.92 741.69 473.78 634.54 620.36 817.85 646.46
00004243 00000034 521.49 87.56 507.04 727.39 642.31 350.41 879.34 380.10 734.27 472.77 632.06 615.19 815.26 640.38
00004244 00000035 516.09 85.59 509.07 725.38 637.39 349.41 875.02 376.74 729.74 466.55 628.40 612.22 813.84 635.11
00004245 00000036 515.77 85.03 507.36 724.34 632.45 348.29 871.82 373.06 725.95 464.27 625.51 611.63 813.69 632.39
00004246 00000037 510.87 84.47 511.15 724.54 627.94 348.05 867.03 370.00 720.66 462.40 625.41 610.49 813.04 628.70
00004247 00000038 503.03 84.91 515.76 721.89 622.30 348.40 862.11 366.92 719.39 460.89 626.92 610.80 812.35 626.01
00004248 00000039 496.39 82.43 520.32 725.87 618.82 349.26 858.35 365.64 716.82 464.00 626.48 611.80 810.90 625.27
00004249 00000040 493.74 82.41 518.37 733.10 617.06 351.71 854.60 364.26 716.66 464.52 626.92 615.18 807.70 625.73
00004250 00000041 494.38 94.10 513.31 734.28 620.54 357.22 847.79 365.53 708.11 468.28 627.36 624.76 795.76 633.15
00004251 00000042 488.07 95.48 516.39 750.01 616.68 357.01 841.91 363.29 704.60 468.35 625.05 636.20 787.97 643.08
00004252 00000043 486.61 99.19 514.09 750.00 615.76 357.53 838.56 363.68 703.48 465.95 626.84 638.32 781.52 645.09
00004253 00000044 473.59 91.03 525.95 767.07 616.83 361.12 833.56 368.16 710.95 472.04 634.25 641.65 778.29 648.78
00004254 00000045 470.80 92.90 526.69 767.12 615.01 360.32 832.78 366.91 710.13 469.82 634.15 642.32 778.47 649.09
00004255 00000046 472.80 91.09 524.60 762.90 615.86 360.11 835.06 367.27 711.85 471.15 632.88 640.46 780.42 647.70
00004256 00000047 483.17 95.91 514.04 741.47 612.05 357.25 841.36 361.99 705.91 467.46 623.92 633.89 790.11 639.25
00004257 00000048 477.88 78.71 526.73 759.17 607.00 356.08 842.56 359.14 708.52 465.41 624.97 626.57 800.66 629.67
00004258 00000049 480.52 92.80 517.17 728.74 607.86 363.68 842.52 364.32 706.43 475.71 621.19 623.47 809.73 624.28
00004259 00000050 479.30 93.38 518.29 729.28 607.86 364.26 842.00 362.14 708.14 474.65 624.24 624.79 811.61 623.23
00004260 00000051 478.87 93.99 518.87 727.02 607.62 364.43 841.91 360.03 709.86 472.48 626.79 624.42 813.15 620.85
00004261 00000052 476.78 92.26 521.49 727.69 606.16 366.70 841.65 358.29 711.21 470.82 629.65 624.33 818.57 617.21
00004262 00000053 475.86 91.95 522.05 727.13 605.13 367.27 839.92 356.24 710.88 470.11 631.16 624.81 819.16 615.45
00004263 00000054 475.92 93.06 521.11 725.29 603.73 367.20 838.26 355.03 709.69 469.70 631.37 624.00 818.79 613.64
00004264 00000055 473.15 92.63 522.86 725.20 600.98 366.20 836.53 352.63 708.12 468.30 630.52 623.53 818.32 612.00
00004265 00000056 463.81 80.13 533.74 744.19 591.92 359.45 834.50 342.08 707.70 462.14 631.93 626.54 819.63 610.67
00004266 00000057 458.63 76.90 534.85 749.04 587.62 361.63 829.59 339.47 704.01 461.81 630.93 627.68 820.88 607.35
00004267 00000058 455.65 77.05 534.89 752.35 583.07 365.49 824.68 339.15 700.05 459.29 627.73 628.69 823.58 604.55
00004268 00000059 452.42 76.35 536.36 756.36 578.98 369.08 820.92 342.70 695.07 459.17 622.82 628.63 823.80 604.07
00004269 00000060 451.03 80.05 534.96 753.30 575.57 370.30 817.86 342.51 691.33 459.25 620.02 628.65 822.87 602.93
00004270 00000061 449.73 80.92 534.51 755.31 571.58 372.67 813.18 344.82 685.01 459.06 614.88 628.29 821.01 602.39
00004271 00000062 448.38 85.83 532.40 748.90 567.56 377.93 806.72 348.15 677.91 458.30 610.72 627.73 817.96 600.12
00004272 00000063 445.72 86.06 533.57 747.67 563.49 379.37 802.40 348.22 671.86 456.91 606.69 627.50 813.15 598.87
00004273 00000064 445.38 84.82 533.40 748.00 560.80 377.75 800.42 346.49 668.24 454.87 603.00 626.39 810.69 597.83
00004274 00000065 444.42 79.30 533.52 752.47 558.84 375.35 797.21 343.31 666.00 454.44 602.38 625.37 808.55 596.32
00004275 00000066 442.24 78.32 534.80 752.28 557.41 373.46 796.06 340.98 665.50 452.16 602.14 625.54 806.13 596.42
00004276 00000067 441.28 77.98 534.02 752.83 555.99 371.23 793.45 338.15 663.57 450.93 601.77 625.35 804.45 595.74
00004277 00000068 440.25 76.14 529.88 743.70 563.67 369.95 791.05 337.48 669.30 447.48 600.13 620.39 791.72 593.01
00004278 00000069 436.96 73.27 535.28 754.56 551.78 369.95 787.68 333.23 659.02 445.83 603.16 627.22 796.93 595.22
00004279 00000070 426.56 80.13 539.74 736.58 547.54 368.30 786.23 328.04 661.45 440.93 606.67 628.00 795.81 592.58
00004280 00000071 422.47 79.13 540.55 740.45 543.08 367.97 781.13 326.83 657.54 441.20 601.68 629.08 792.54 592.95
00004281 00000072 412.74 78.67 548.40 743.62 537.73 370.39 774.17 327.04 650.48 441.72 597.90 629.74 787.28 591.74
00004282 00000073 405.37 76.84 551.03 747.65 533.63 370.01 766.90 327.43 645.13 442.61 593.69 628.74 780.02 591.30
00004283 00000074 400.71 78.38 551.99 744.92 528.20 371.54 761.64 328.90 639.95 442.06 588.06 628.41 774.73 590.77
00004284 00000075 401.35 77.29 544.28 744.18 520.47 372.79 753.52 330.68 636.87 444.08 582.43 627.23 771.66 592.57
00004285 00000076 395.91 78.22 549.67 744.63 517.48 374.82 749.13 331.94 631.76 443.24 578.93 626.79 766.38 591.31
00004286 00000077 393.90 80.11 550.80 743.28 514.89 376.54 746.72 332.37 627.90 444.32 575.48 627.29 763.51 590.70
00004287 00000078 391.43 80.28 553.19 744.05 512.44 377.50 745.07 332.45 625.49 446.02 573.65 629.45 760.68 592.24
00004288 00000079 391.59 81.06 552.39 742.64 511.94 378.19 743.87 333.05 624.37 447.49 574.14 630.18 758.24 592.82
00004289 00000080 390.54 79.88 553.78 744.34 511.84 378.78 743.79 333.81 624.49 448.51 573.74 630.65 757.81 593.38
00004290 00000081 390.38 79.68 554.33 744.31 511.63 379.07 744.44 334.02 624.89 449.16 573.92 631.11 758.85 593.78
00004291 00000082 390.98 79.44 553.43 743.65 511.71 378.79 745.01 333.54 625.86 448.89 574.26 631.06 760.11 593.62
00004292 00000083 391.66 80.58 553.02 742.28 512.06 378.29 745.81 333.01 626.72 448.44 574.68 630.87 761.51 593.46
00004293 00000084 393.00 80.77 551.69 741.67 512.72 378.64 746.87 333.47 627.91 448.42 574.54 630.37 763.92 593.01
00004294 00000085 396.03 82.38 547.74 742.61 517.17 383.48 746.68 338.28 629.66 446.43 575.76 631.29 764.94 593.69
00004295 00000086 397.18 83.78 546.31 743.40 517.88 385.66 746.51 337.21 630.15 443.94 576.32 632.04 766.60 591.83
00004296 00000087 397.20 81.32 547.73 746.15 517.67 382.74 747.84 334.99 630.96 442.82 577.40 632.28 768.07 592.80
00004297 00000088 398.39 79.00 546.34 747.17 517.84 378.44 750.85 332.40 634.30 443.95 579.35 631.21 772.75 593.30
00004298 00000089 394.25 79.56 555.05 744.00 521.48 376.04 755.89 329.69 635.26 443.21 581.69 631.52 774.37 590.26
00004299 00000090 394.60 77.86 554.65 746.81 523.69 372.49 758.43 326.79 638.97 441.75 584.71 630.08 777.32 589.21
00004300 00000091 396.33 76.64 554.08 750.36 524.96 370.58 761.95 325.23 641.54 438.59 587.50 632.26 781.21 591.91
00004301 00000092 395.39 77.48 556.82 755.46 527.01 368.24 763.04 323.08 642.76 432.85 590.69 632.99 781.40 593.05
00004302 00000093 395.07 76.99 557.24 755.40 529.60 366.66 764.65 320.78 645.84 430.46 595.93 633.17 780.39 592.92
00004303 00000094 397.48 74.35 555.47 747.63 532.47 365.25 764.77 320.25 648.24 430.34 599.15 628.19 777.51 588.70
00004304 00000095 401.77 72.72 553.40 744.90 535.14 365.10 768.54 318.94 652.61 429.05 603.28 626.83 783.53 586.35
00004305 00000096 408.54 76.21 548.57 740.26 539.15 365.16 773.98 318.90 656.66 426.21 606.25 625.97 790.50 585.51
00004306 00000097 414.06 74.06 549.24 743.02 545.67 359.74 783.77 316.98 666.13 423.22 611.45 623.77 796.46 586.26
00004307 00000098 420.41 74.00 544.81 742.25 551.71 355.21 793.28 313.95 674.48 417.62 616.07 622.32 802.61 586.21
00004308 00000099 436.54 71.05 534.22 746.79 562.78 353.89 797.62 317.12 678.24 423.73 619.94 618.44 801.27 586.43
00004309 00000100 441.90 74.76 532.64 734.41 571.50 353.19 804.32 318.98 689.07 424.25 627.56 614.14 805.77 583.86
00004310 00000101 446.73 71.73 533.09 737.74 581.90 354.31 813.84 321.51 703.22 423.97 637.72 614.40 813.08 585.18
00004311 00000102 451.13 70.75 532.75 741.02 592.95 353.14 823.82 323.76 715.33 424.31 645.60 616.62 820.49 590.37
00004312 00000103 457.44 69.09 531.87 739.87 602.58 350.89 834.31 325.94 727.24 425.04 651.95 618.21 825.74 595.93
00004313 00000104 463.17 70.28 528.73 742.52 610.70 347.31 843.98 325.34 739.15 427.59 658.65 619.46 830.83 600.10
00004314 00000105 468.73 76.95 529.32 742.46 619.56 343.38 851.63 325.37 747.27 424.01 664.40 620.65 829.86 605.45
00004315 00000106 470.20 77.18 530.61 737.11 620.57 337.53 854.63 326.52 750.24 422.85 667.79 611.30 835.53 601.02
00004316 00000107 477.22 79.57 527.15 724.46 624.28 339.19 864.49 329.55 757.25 429.43 671.51 610.19 848.63 600.55
00004317 00000108 483.04 80.88 525.08 716.86 629.51 342.31 870.70 333.27 765.71 435.76 679.58 609.89 857.34 600.20
00004318 00000109 487.99 81.52 522.20 713.06 637.55 344.03 880.12 337.93 776.50 440.00 686.12 610.25 865.92 602.65
00004319 00000110 492.05 84.62 519.97 713.39 644.40 344.33 886.29 343.90 784.78 442.11 690.96 612.82 867.93 610.23
00004320 00000111 495.99 86.36 517.95 722.56 648.58 346.71 889.98 346.91 789.81 441.19 693.55 620.29 869.61 618.60
00004321 00000112 501.13 86.41 514.24 727.00 650.80 347.67 895.07 349.78 792.75 448.65 692.85 624.88 873.91 625.07
00004322 00000113 504.19 87.21 510.71 726.11 650.82 348.11 896.62 351.82 792.92 454.24 691.71 626.05 876.08 627.60
00004323 00000114 505.63 89.73 509.04 721.62 650.71 348.40 898.04 352.78 792.92 456.63 690.04 626.30 877.07 628.41
00004324 00000115 504.22 90.51 511.49 727.88 652.33 348.16 896.27 353.79 791.88 453.87 689.36 625.90 872.49 629.58
00004325 00000116 500.08 90.69 515.06 737.03 655.21 354.45 891.54 359.33 792.82 452.46 690.18 628.10 870.56 631.19
00004326 00000117 499.58 93.34 515.35 743.07 654.56 356.69 889.58 361.64 789.52 453.83 686.00 632.09 868.96 635.57
00004327 00000118 498.92 94.90 513.81 742.79 651.00 352.53 888.12 358.64 785.34 455.00 680.79 630.71 866.36 635.24
00004328 00000119 496.16 90.70 516.00 746.34 646.82 350.32 887.03 354.01 783.65 452.42 679.12 629.03 868.16 631.30
CROP_BBOX: 185 0 1292 1018
