Video ID: 	pXyzLlJppaU
H: 	1080
W: 	1920
FPS: 	23.976023976023978

FRAME INDEX X0 Y0 W H [Landmarks (5 Points)]

00024596 00000000 858.20 172.59 355.11 486.42 910.54 391.06 1072.69 356.19 967.17 437.36 949.61 547.38 1084.42 519.51
00024597 00000001 854.47 174.10 356.68 490.37 908.74 389.97 1069.54 356.39 964.65 439.14 946.60 552.90 1076.51 525.96
00024598 00000002 861.09 178.36 346.91 477.56 915.50 399.79 1063.98 358.32 960.62 441.44 946.95 556.41 1073.34 523.41
00024599 00000003 857.34 177.81 354.18 488.50 907.64 395.85 1069.03 352.31 954.20 442.92 941.80 567.86 1079.96 532.75
00024600 00000004 861.62 179.19 348.85 496.73 908.96 394.61 1069.34 352.54 952.82 445.05 945.16 574.40 1078.36 540.10
00024601 00000005 867.12 179.66 347.03 501.03 909.34 392.71 1072.70 353.39 954.78 451.70 945.16 572.79 1091.52 540.41
00024602 00000006 864.21 175.24 354.59 504.06 913.24 392.00 1073.21 354.73 965.66 448.71 958.22 558.92 1097.78 528.69
00024603 00000007 864.82 179.15 362.02 499.58 916.81 391.22 1079.67 351.47 973.21 448.57 964.92 559.64 1106.61 526.60
00024604 00000008 870.88 173.35 361.68 503.92 923.33 389.21 1086.26 347.00 983.11 442.33 971.28 558.49 1112.83 523.44
00024605 DELETE   877.20 164.16 362.31 514.23 930.99 384.90 1092.80 342.51 992.07 434.73 979.89 558.10 1117.16 523.31
00024606 00000010 878.97 157.82 364.34 511.87 938.96 386.50 1103.09 344.79 1006.37 432.90 985.81 554.99 1121.17 520.91
00024607 00000011 883.34 157.77 360.65 503.66 944.93 386.72 1110.52 347.56 1011.60 431.34 988.49 553.02 1121.60 521.62
00024608 00000012 888.91 154.75 356.71 503.13 948.99 383.16 1112.69 347.94 1011.44 430.08 988.89 550.52 1118.67 522.82
00024609 00000013 892.07 153.85 355.76 509.90 948.93 380.07 1110.66 346.79 1006.12 429.05 985.71 549.00 1117.04 522.63
00024610 00000014 894.90 156.99 350.93 512.06 947.65 378.60 1108.70 346.54 1000.76 427.79 982.43 550.18 1113.19 525.17
00024611 00000015 890.82 159.36 352.81 496.16 944.06 379.36 1102.96 347.88 995.59 430.38 977.53 545.72 1103.77 521.24
00024612 00000016 891.19 156.30 353.29 496.54 945.93 374.16 1100.42 344.80 991.87 428.74 969.13 547.32 1101.47 525.78
00024613 00000017 886.51 160.15 352.84 494.37 935.96 378.34 1089.63 350.38 979.29 429.98 963.47 543.30 1086.50 522.10
00024614 00000018 884.97 162.00 351.96 494.85 933.11 377.40 1083.93 350.32 972.85 430.26 957.54 541.59 1080.05 521.39
00024615 00000019 887.94 159.74 356.60 492.85 938.46 375.92 1086.91 342.87 973.57 427.58 957.68 546.98 1096.47 520.50
00024616 00000020 887.98 158.71 356.61 492.44 939.61 375.73 1088.83 343.29 975.62 427.26 957.56 545.63 1100.07 519.46
00024617 00000021 883.20 162.29 357.57 494.07 931.97 379.14 1089.95 350.94 974.57 432.20 958.71 540.24 1091.30 518.05
00024618 00000022 883.28 165.20 356.82 494.27 933.36 380.03 1092.93 349.59 980.85 434.83 966.28 546.34 1096.88 522.06
00024619 00000023 887.64 165.78 359.86 491.49 944.03 376.38 1102.21 347.15 991.89 436.18 971.07 553.14 1111.49 530.06
00024620 00000024 888.63 168.27 359.39 488.32 945.99 377.43 1104.80 349.29 995.73 437.12 972.66 552.63 1112.02 530.57
00024621 00000025 886.24 170.07 362.77 493.33 939.36 382.91 1101.37 349.61 994.10 436.15 970.90 553.99 1107.09 527.47
00024622 00000026 886.92 173.04 361.19 493.13 939.03 386.60 1099.76 352.13 993.35 439.82 972.45 558.07 1106.54 530.66
00024623 00000027 887.14 174.32 361.26 495.18 938.61 389.74 1097.48 354.01 992.37 441.30 973.41 561.10 1105.20 533.00
00024624 00000028 886.48 171.40 363.39 497.11 936.74 391.11 1096.24 354.29 990.13 442.70 972.44 563.10 1104.87 533.77
00024625 00000029 886.81 171.47 362.73 493.14 936.16 390.54 1095.97 354.96 990.24 443.65 970.55 561.05 1105.02 532.46
00024626 00000030 887.10 172.55 361.39 494.82 935.49 390.16 1096.29 355.48 988.09 444.13 967.96 561.38 1104.22 533.68
00024627 00000031 887.77 172.98 359.98 498.16 935.61 391.65 1094.17 355.78 986.68 443.95 968.97 562.31 1102.64 534.08
00024628 00000032 888.81 172.65 359.66 499.89 935.12 392.23 1093.31 356.64 984.53 445.32 967.67 563.40 1103.25 535.34
00024629 00000033 888.46 172.70 358.70 497.33 933.79 393.33 1092.55 358.68 984.21 449.64 965.87 563.44 1103.67 535.75
00024630 00000034 886.84 173.05 358.66 498.50 931.27 393.66 1091.81 359.59 981.29 450.60 962.20 564.24 1103.89 536.87
00024631 00000035 885.90 173.99 359.27 500.81 930.51 393.82 1090.65 360.25 979.37 451.26 961.11 565.03 1103.44 538.14
00024632 00000036 888.02 173.87 357.44 502.24 932.59 397.59 1090.06 362.68 979.49 452.41 961.92 567.10 1101.97 539.36
00024633 00000037 890.16 175.99 357.28 504.16 933.93 401.61 1091.83 366.60 979.28 454.63 962.65 571.73 1102.37 543.92
00024634 00000038 889.17 176.68 358.71 510.03 934.62 400.13 1091.03 368.50 981.43 459.79 964.73 575.49 1103.66 550.51
00024635 00000039 890.21 172.15 357.10 517.62 935.85 399.07 1093.43 369.79 984.02 462.07 966.81 576.74 1106.88 553.61
00024636 00000040 889.79 171.90 356.84 517.98 937.07 400.80 1098.40 370.75 989.41 463.24 969.38 578.25 1111.62 554.34
00024637 00000041 888.10 172.40 360.11 513.52 937.21 401.21 1103.92 370.61 994.46 464.69 972.68 580.56 1116.93 555.99
00024638 00000042 887.69 170.14 361.48 516.02 937.97 401.08 1106.25 370.23 998.14 466.32 974.55 581.15 1120.13 556.23
00024639 00000043 888.25 172.77 360.23 520.18 940.21 401.82 1108.20 371.38 1001.63 466.52 976.06 581.34 1121.69 557.31
00024640 00000044 887.38 174.72 360.44 523.55 939.42 403.15 1105.41 372.17 1000.20 467.91 976.25 582.33 1121.67 557.47
00024641 00000045 887.56 175.78 360.42 521.27 940.22 402.76 1106.88 373.34 1002.33 468.92 976.28 580.00 1123.09 556.37
00024642 00000046 887.77 177.97 359.88 515.49 941.49 402.26 1107.79 374.33 1003.41 469.27 974.86 576.78 1122.58 554.41
00024643 00000047 887.63 176.34 359.16 513.92 942.25 401.09 1108.29 374.52 1004.59 468.19 974.51 574.26 1122.24 553.10
00024644 00000048 887.01 177.44 358.98 512.20 941.96 401.30 1108.35 375.27 1004.76 468.41 973.16 572.58 1122.37 551.82
00024645 00000049 887.95 177.29 357.00 511.77 942.30 401.30 1109.17 376.57 1005.25 468.22 970.90 570.66 1122.27 551.18
00024646 00000050 885.84 179.17 357.93 507.25 940.47 401.98 1106.56 375.25 1003.83 466.96 970.21 569.71 1122.07 548.23
00024647 00000051 884.91 182.07 357.26 501.64 938.91 402.62 1104.72 372.59 1002.03 465.77 970.37 569.26 1122.43 544.85
00024648 00000052 884.63 181.93 356.98 498.77 938.61 402.32 1103.11 370.93 1002.50 464.76 971.74 567.36 1122.95 541.65
00024649 00000053 884.68 182.12 357.51 498.14 939.17 402.21 1103.50 370.13 1003.30 464.05 973.07 566.65 1123.92 540.33
00024650 00000054 886.34 181.32 357.00 498.57 940.49 401.69 1104.96 369.94 1004.79 463.24 974.08 565.39 1125.40 539.34
00024651 00000055 887.13 179.92 357.88 499.62 941.70 400.95 1106.90 369.66 1006.28 462.60 974.87 564.53 1127.66 538.75
00024652 00000056 887.42 179.42 357.82 501.99 943.20 399.10 1108.35 369.15 1007.58 461.37 975.55 563.50 1128.28 538.96
00024653 00000057 888.77 175.45 356.93 506.44 944.43 398.29 1109.83 369.90 1008.28 461.95 976.02 563.84 1128.79 540.74
00024654 00000058 889.21 175.48 355.67 507.16 945.52 397.92 1111.33 370.49 1009.92 462.76 976.85 564.10 1129.78 542.00
00024655 00000059 890.16 174.65 355.28 508.27 946.69 397.65 1112.93 371.39 1011.63 463.75 977.57 564.42 1130.33 543.38
00024656 00000060 890.78 174.69 354.42 508.08 947.19 398.15 1113.42 371.32 1012.67 464.67 979.26 565.02 1131.60 543.46
00024657 00000061 890.68 174.81 354.29 507.19 947.44 397.96 1113.78 370.34 1013.60 463.80 980.44 565.00 1132.38 542.73
00024658 00000062 890.65 173.95 354.89 506.40 947.37 397.31 1113.30 368.64 1013.45 461.28 980.63 563.73 1133.03 540.44
00024659 00000063 889.48 175.63 354.31 504.29 946.73 397.69 1112.29 367.85 1012.64 459.51 980.34 563.34 1132.35 539.10
00024660 00000064 888.09 176.23 354.83 502.31 945.83 396.87 1110.86 366.82 1011.53 456.82 979.32 561.61 1130.94 537.20
00024661 00000065 886.90 178.30 355.77 498.92 944.68 397.15 1109.26 365.91 1010.19 455.24 978.33 561.65 1129.16 536.03
00024662 00000066 885.29 176.86 357.82 500.08 942.18 398.24 1107.32 364.77 1007.45 453.77 976.46 563.48 1127.50 535.85
00024663 00000067 883.27 177.18 358.61 500.83 940.39 397.91 1105.95 364.03 1005.84 452.61 974.69 563.52 1126.25 535.50
00024664 00000068 883.00 176.71 357.17 504.83 938.44 397.82 1103.37 362.54 1002.26 451.45 973.43 565.91 1123.45 537.29
00024665 00000069 881.79 179.54 357.46 504.19 937.52 397.21 1099.89 362.21 999.51 451.69 973.26 566.34 1120.54 538.01
00024666 00000070 875.48 172.89 359.28 506.65 931.54 396.07 1096.72 360.89 993.82 453.66 973.47 563.36 1116.18 534.14
00024667 00000071 873.40 168.84 361.31 506.38 930.05 397.49 1094.53 362.30 993.40 454.97 973.66 564.11 1112.05 535.17
00024668 00000072 875.00 171.05 360.11 506.23 930.83 401.06 1094.42 364.36 992.72 457.76 974.06 567.09 1112.56 536.89
00024669 00000073 878.51 173.09 357.05 509.49 933.53 405.16 1096.26 370.15 992.91 461.94 973.56 570.12 1113.76 541.14
00024670 00000074 886.11 178.51 356.69 509.13 937.55 409.32 1102.47 377.02 998.68 467.21 971.25 575.96 1118.85 549.69
00024671 00000075 886.22 183.33 355.09 509.33 938.38 413.51 1105.84 384.83 1002.07 476.74 971.69 579.01 1121.39 556.12
00024672 00000076 884.69 189.64 357.71 511.48 939.55 420.20 1108.86 394.15 1003.91 486.36 974.64 586.43 1124.27 565.31
00024673 DELETE   883.86 197.82 359.61 511.00 941.43 425.59 1108.67 402.29 1007.41 495.19 979.26 591.44 1126.07 572.30
00024674 00000078 884.00 200.32 359.01 511.75 939.18 434.20 1105.18 404.63 1006.50 499.70 983.30 599.65 1127.75 575.06
00024675 00000079 883.79 200.95 359.03 510.95 938.51 436.14 1103.89 405.41 1005.54 499.37 983.23 600.84 1126.08 575.38
00024676 00000080 880.63 197.72 363.56 511.45 936.50 431.43 1104.98 399.98 1005.03 495.34 981.60 599.24 1125.69 573.33
00024677 00000081 881.10 187.29 363.33 515.51 934.64 425.69 1103.71 393.18 1001.40 487.88 977.19 593.79 1122.79 567.28
00024678 00000082 883.48 183.11 362.31 516.16 936.16 422.19 1102.10 384.63 1000.60 476.39 977.37 588.45 1120.83 558.34
00024679 00000083 885.00 177.47 364.37 515.85 937.99 418.52 1105.39 381.62 1003.31 473.24 978.58 586.52 1123.62 556.37
00024680 DELETE   890.81 169.88 360.18 516.98 945.02 414.32 1110.60 381.01 1009.62 470.28 983.11 581.21 1126.52 554.03
00024681 DELETE   894.77 166.01 358.45 518.00 950.59 410.76 1116.87 378.22 1016.78 468.05 988.60 578.76 1130.97 552.88
00024682 DELETE   898.41 158.80 356.58 524.53 956.50 405.65 1123.16 375.50 1026.23 467.62 994.91 576.62 1137.71 553.04
00024683 00000087 899.44 156.28 358.88 523.96 959.25 400.09 1126.89 372.10 1032.02 466.84 998.84 574.53 1141.32 552.40
00024684 00000088 899.42 154.46 362.17 525.02 960.71 397.94 1130.90 370.54 1035.95 468.91 1001.57 574.64 1147.21 552.18
00024685 00000089 900.45 160.89 363.67 521.82 960.31 400.83 1131.61 371.89 1033.99 474.14 1003.42 580.21 1148.87 556.34
00024686 00000090 899.98 169.59 366.23 518.63 961.31 405.63 1129.98 375.82 1034.43 481.58 1005.52 583.27 1148.68 558.76
00024687 00000091 899.87 178.59 364.86 516.31 961.26 411.62 1129.05 381.20 1032.76 487.12 1006.01 587.69 1149.21 562.89
00024688 00000092 899.64 181.09 364.53 516.91 959.47 414.27 1129.59 384.88 1031.48 491.64 1004.21 590.56 1150.71 566.53
00024689 00000093 897.85 182.94 364.33 518.38 957.54 416.02 1128.05 384.54 1030.02 493.32 1004.27 592.53 1151.73 566.59
00024690 00000094 896.63 183.78 365.03 514.94 956.73 414.01 1126.63 382.68 1028.70 488.90 1003.78 592.09 1147.95 566.45
00024691 00000095 896.87 173.40 362.18 519.70 954.30 409.52 1123.80 378.12 1025.93 483.77 1001.62 591.84 1142.57 566.19
00024692 00000096 895.25 173.82 358.94 515.99 951.27 406.01 1120.51 374.54 1020.97 474.74 993.70 585.29 1135.60 560.40
00024693 00000097 892.97 180.60 356.68 506.45 950.49 400.40 1114.18 366.51 1016.58 463.54 990.71 578.13 1127.41 551.62
00024694 00000098 894.76 176.18 352.83 513.00 947.95 398.42 1110.27 359.46 1011.29 457.06 988.10 572.79 1130.37 542.10
00024695 00000099 896.60 174.75 349.74 522.60 947.09 397.58 1109.27 354.65 1010.07 451.86 989.34 571.12 1137.55 537.30
00024696 00000100 896.89 181.75 353.31 518.81 952.51 394.61 1112.72 353.01 1015.04 449.84 993.70 567.08 1141.73 534.16
00024697 00000101 897.71 182.48 354.50 514.02 954.47 393.47 1115.74 352.57 1018.69 449.36 995.32 566.26 1142.96 534.00
00024698 00000102 898.37 180.13 354.01 512.09 955.05 393.37 1116.67 352.54 1020.76 449.42 995.64 565.13 1143.82 532.83
00024699 00000103 898.23 175.26 356.98 520.83 955.04 395.19 1117.98 355.27 1021.79 454.53 996.45 568.50 1145.89 536.52
00024700 00000104 897.63 174.02 358.22 528.61 955.18 398.28 1119.35 359.71 1023.38 460.78 997.23 574.20 1146.37 543.42
00024701 00000105 896.36 175.62 358.97 530.82 954.61 401.17 1119.57 364.98 1023.52 469.20 997.42 578.37 1146.60 549.25
00024702 00000106 895.98 176.52 360.01 527.04 954.07 404.17 1119.71 368.93 1022.30 470.83 996.61 580.99 1142.55 552.62
00024703 00000107 896.06 174.38 359.59 516.16 954.21 405.80 1120.26 371.04 1023.87 470.62 995.23 579.50 1138.97 551.77
00024704 00000108 896.04 169.71 359.06 515.43 955.01 403.02 1120.89 368.99 1025.95 467.05 996.84 576.83 1138.82 549.69
00024705 00000109 896.11 168.12 360.07 514.45 956.35 399.18 1121.60 364.27 1029.71 462.83 1000.24 575.45 1139.37 547.74
00024706 00000110 895.39 167.81 359.94 510.02 957.97 395.99 1123.55 361.98 1033.39 458.64 1001.66 573.42 1138.97 546.30
00024707 00000111 895.81 168.50 361.05 513.81 958.03 394.91 1122.58 359.24 1031.66 455.92 1000.72 573.30 1137.69 544.96
00024708 00000112 897.70 170.09 360.03 512.60 958.74 395.01 1122.29 358.62 1031.26 456.38 1000.83 571.42 1139.71 542.38
00024709 00000113 897.04 170.06 360.68 508.50 959.14 395.83 1124.12 361.99 1032.52 459.85 1001.95 571.92 1140.18 544.77
CROP_BBOX: 697 0 1511 848
