Video ID: 	UCcgiG38fhA
H: 	1080
W: 	1920
FPS: 	25.0

FRAME INDEX X0 Y0 W H [Landmarks (5 Points)]

00013051 00000000 622.44 91.83 384.44 544.38 740.68 322.45 907.09 298.10 857.68 416.08 786.67 511.58 924.94 492.06
00013052 00000001 612.23 98.15 382.27 538.49 720.70 333.06 892.19 306.92 835.60 419.42 764.27 513.00 913.02 491.19
00013053 00000002 606.45 99.94 384.47 542.17 711.43 335.59 880.50 307.09 824.50 421.76 758.71 516.76 905.73 492.69
00013054 00000003 605.49 101.41 386.01 542.57 708.46 338.67 879.35 308.62 821.13 426.30 755.03 518.43 906.71 493.21
00013055 00000004 604.85 107.39 386.44 537.08 709.05 344.24 879.18 313.68 820.34 430.73 753.95 519.80 906.02 494.47
00013056 00000005 604.90 109.82 384.35 533.16 707.92 349.98 875.84 318.40 816.43 439.29 750.02 521.36 901.52 495.62
00013057 00000006 603.22 119.28 382.78 526.14 703.40 355.92 870.43 323.14 809.53 448.74 743.84 523.46 897.79 497.30
00013058 00000007 600.32 127.11 381.12 522.59 700.13 359.62 866.17 327.17 805.68 454.42 738.67 525.13 893.12 499.66
00013059 00000008 599.02 129.54 381.07 522.88 697.29 361.71 865.75 329.83 803.24 461.57 733.86 527.87 891.63 503.07
00013060 00000009 598.60 129.67 381.18 523.16 696.50 362.09 867.05 330.72 802.20 463.84 731.82 528.20 891.87 503.85
00013061 00000010 598.69 130.22 381.46 522.65 696.71 362.25 866.37 331.11 801.42 463.52 731.13 527.56 890.51 503.43
00013062 00000011 597.88 129.54 382.09 525.88 696.39 360.21 864.50 330.77 799.88 461.89 730.26 527.27 888.17 504.52
00013063 00000012 599.19 129.58 380.27 531.72 696.17 357.32 864.03 330.50 798.42 458.63 728.91 527.37 887.53 506.66
00013064 00000013 599.79 127.70 379.73 537.34 698.63 354.61 864.60 330.16 800.58 454.69 730.06 525.98 888.25 507.15
00013065 00000014 601.96 125.28 378.17 541.04 701.56 351.43 866.98 329.69 802.96 449.91 733.33 526.57 888.18 509.92
00013066 00000015 602.22 116.36 381.18 540.84 703.88 348.75 870.79 329.47 805.03 445.56 738.72 528.88 885.03 513.94
00013067 00000016 605.83 107.64 379.52 536.69 706.64 343.77 878.04 327.65 809.54 440.61 742.95 527.20 888.13 514.33
00013068 00000017 612.24 102.56 375.20 531.46 717.18 338.37 893.23 327.66 826.30 430.52 751.19 520.97 897.44 512.29
00013069 DELETE   621.52 98.36 375.96 539.08 744.18 317.26 911.13 312.55 853.77 417.50 772.84 509.64 911.11 506.27
00013070 DELETE   637.55 88.31 371.84 547.63 776.29 302.22 935.96 300.55 890.40 405.21 801.30 503.09 926.84 501.81
00013071 DELETE   654.47 85.77 367.30 539.25 805.09 295.39 967.59 301.07 930.91 400.10 823.36 493.22 952.82 498.57
00013072 00000021 662.82 82.09 365.47 533.24 814.06 291.58 980.40 299.64 941.16 395.33 828.33 484.08 964.79 491.87
00013073 00000022 662.11 84.08 364.73 527.73 815.23 288.32 981.29 300.07 941.26 393.79 826.26 478.35 963.28 489.61
00013074 00000023 659.55 86.08 365.17 525.30 814.27 285.64 979.47 300.54 938.81 393.16 822.20 476.53 959.90 490.62
00013075 00000024 658.68 85.75 367.22 527.35 814.49 285.79 980.19 300.90 939.12 393.50 821.24 476.99 959.57 491.29
00013076 00000025 658.06 86.11 368.14 530.85 815.00 286.99 979.89 302.04 940.37 395.20 821.84 479.27 959.79 493.43
00013077 00000026 658.67 85.88 368.22 531.05 815.58 287.21 979.17 302.37 939.42 394.62 822.48 479.68 958.27 493.92
00013078 00000027 658.43 86.96 368.17 529.68 815.52 287.58 978.85 301.87 939.54 394.55 823.20 480.19 958.39 493.78
00013079 00000028 659.11 86.28 367.50 528.40 815.52 287.06 978.44 300.71 939.27 394.40 824.50 479.54 959.43 492.64
00013080 00000029 658.65 86.27 367.17 524.93 815.81 287.01 978.73 300.32 939.07 394.57 825.28 479.38 958.36 492.23
00013081 00000030 657.90 86.80 367.32 522.39 814.79 287.37 977.51 301.85 935.89 395.41 825.18 480.03 954.74 493.52
00013082 00000031 657.42 86.43 367.19 521.76 813.87 287.68 978.06 302.69 935.32 396.52 826.42 480.74 955.72 494.42
00013083 00000032 658.60 86.10 365.82 521.47 813.99 287.74 978.03 303.45 933.84 398.44 826.96 481.90 954.33 496.11
00013084 00000033 659.42 85.89 366.30 521.60 813.78 287.09 978.96 304.07 933.12 398.43 826.38 482.16 953.93 497.28
00013085 00000034 659.94 84.84 367.14 523.43 814.99 287.20 980.51 304.45 934.01 399.04 826.60 483.18 953.53 498.51
00013086 00000035 660.72 85.86 367.84 525.14 817.71 289.58 982.93 307.37 935.73 402.20 827.99 486.48 954.04 502.17
00013087 00000036 660.22 85.94 369.76 533.66 819.36 296.25 982.70 312.55 938.52 406.32 831.31 493.43 955.24 507.54
00013088 00000037 658.52 88.83 372.65 541.54 822.08 300.22 981.60 316.45 940.56 410.64 832.63 498.28 955.10 512.08
00013089 00000038 654.74 92.49 370.87 540.11 815.65 302.47 975.43 318.70 932.19 414.70 824.62 499.40 948.97 513.39
00013090 00000039 648.48 93.57 370.41 542.16 809.86 302.87 967.07 318.17 923.71 416.43 818.45 499.91 938.87 512.99
00013091 00000040 643.77 93.31 371.79 539.17 802.37 302.12 961.31 317.19 915.60 413.91 811.82 498.47 933.17 511.25
00013092 00000041 641.65 93.75 372.09 535.38 800.11 301.92 962.18 318.60 914.90 414.27 808.07 496.49 933.82 510.70
00013093 00000042 641.34 92.71 372.06 538.27 801.32 301.96 961.77 319.31 915.17 414.09 809.06 496.21 933.34 510.89
00013094 00000043 637.26 93.34 377.46 552.02 804.23 303.03 958.32 322.27 912.74 416.36 808.43 499.26 927.40 515.08
00013095 00000044 630.54 95.00 380.88 562.47 800.12 303.89 956.29 325.47 910.55 419.50 796.75 501.40 924.86 519.60
00013096 00000045 627.92 97.86 380.92 557.90 796.47 306.74 954.64 329.07 907.02 422.86 791.67 502.70 922.13 521.42
00013097 00000046 629.73 100.90 378.78 547.62 799.55 312.06 957.84 335.67 908.90 427.10 793.85 504.77 919.95 524.94
00013098 00000047 632.39 104.25 379.13 542.30 806.84 315.11 964.18 338.55 916.07 431.81 799.56 505.64 923.73 526.17
00013099 00000048 632.12 106.91 381.10 542.15 809.80 318.04 966.07 339.40 918.71 436.29 802.10 508.24 925.78 527.19
00013100 00000049 627.48 106.19 380.61 544.79 805.80 319.56 961.78 339.05 915.89 438.07 799.79 511.16 922.92 528.39
00013101 00000050 622.76 108.34 378.33 543.87 800.93 320.28 954.38 337.99 910.20 438.69 796.02 514.43 915.42 530.17
00013102 00000051 618.96 108.33 379.93 546.35 797.38 321.30 949.91 337.06 906.59 442.58 795.45 516.99 912.99 530.89
00013103 00000052 619.07 106.48 377.54 547.38 795.90 323.69 947.81 337.51 905.02 445.86 799.03 521.41 911.81 533.38
00013104 00000053 619.63 107.58 375.60 545.02 794.18 324.63 946.63 336.46 903.00 448.66 801.06 524.14 911.11 534.28
00013105 00000054 618.12 108.92 372.58 542.57 788.10 325.75 942.28 336.88 897.71 450.28 798.15 526.44 908.86 535.77
00013106 00000055 614.21 109.32 370.94 543.29 775.03 325.92 932.69 333.62 887.37 451.27 788.93 527.61 906.52 534.50
00013107 00000056 602.32 109.42 378.24 546.35 752.32 330.07 921.23 331.49 875.84 448.94 771.83 529.08 902.58 531.21
00013108 00000057 594.38 109.48 374.26 552.03 742.00 330.22 904.61 331.54 857.56 448.67 762.48 531.80 885.40 533.79
00013109 00000058 592.07 109.70 369.44 549.14 738.70 329.06 898.45 328.97 856.24 441.86 761.12 526.96 884.32 528.04
00013110 00000059 591.82 107.08 367.48 546.90 742.62 325.48 901.87 325.78 863.03 435.77 762.99 520.68 888.59 522.02
00013111 00000060 591.30 105.77 370.31 542.06 746.61 320.44 907.74 323.54 869.21 433.05 762.53 514.53 891.37 518.40
00013112 00000061 591.30 100.62 371.26 543.82 747.75 318.46 912.37 323.99 871.77 431.39 759.98 511.02 894.55 516.99
00013113 00000062 590.08 97.85 371.88 543.64 746.36 315.22 911.05 322.48 869.99 428.01 757.89 508.08 892.83 515.44
00013114 00000063 588.22 96.92 372.08 542.45 741.61 314.84 908.00 321.93 865.95 425.93 754.09 506.41 890.64 513.63
00013115 00000064 586.07 95.56 372.05 544.38 739.47 315.40 905.24 320.99 863.83 426.41 753.72 507.98 888.46 513.83
00013116 00000065 583.32 96.26 373.63 548.84 737.95 317.59 901.94 319.38 862.80 427.19 754.60 510.87 887.97 513.51
00013117 00000066 583.48 95.81 372.52 550.85 735.91 320.81 900.36 317.75 863.34 428.54 757.13 514.24 891.59 512.75
00013118 00000067 584.20 94.36 372.44 549.44 735.01 323.04 900.62 316.64 864.36 429.82 761.63 516.84 895.26 512.20
00013119 00000068 585.90 93.29 371.58 546.85 735.78 323.87 901.78 315.69 866.64 428.49 767.32 519.38 898.27 513.05
00013120 00000069 587.74 93.04 369.54 544.13 737.19 324.50 903.00 315.21 867.88 429.24 771.06 521.16 898.42 513.78
00013121 00000070 588.40 94.02 367.50 543.75 738.95 325.26 901.76 315.40 869.06 428.93 775.63 522.72 898.57 514.89
00013122 00000071 589.00 93.40 366.33 544.13 740.16 325.71 901.36 315.79 869.92 429.49 777.75 523.94 897.73 516.04
00013123 00000072 589.84 92.17 365.44 543.75 742.75 325.12 903.14 315.54 873.04 428.26 779.16 523.75 897.55 516.21
00013124 00000073 590.98 90.44 365.70 543.17 745.46 323.62 908.94 314.34 879.07 426.00 781.16 522.41 903.05 514.93
00013125 00000074 592.58 88.76 365.56 545.32 746.65 321.86 910.62 312.77 880.70 424.18 781.52 521.66 904.06 514.35
00013126 00000075 594.44 89.96 364.85 548.14 748.93 320.56 910.25 310.80 881.91 421.97 782.28 521.51 903.29 513.86
00013127 00000076 596.41 92.06 364.62 547.05 749.64 319.74 911.90 308.62 883.85 419.86 782.41 521.22 906.39 512.59
00013128 00000077 598.82 92.73 364.13 549.73 750.59 320.74 912.56 307.12 886.69 418.56 782.74 520.90 909.86 510.37
00013129 00000078 602.26 89.75 363.02 547.45 751.51 321.85 915.88 304.43 890.32 415.62 786.29 520.66 915.60 507.03
00013130 00000079 604.81 89.08 361.85 543.10 753.32 321.93 920.61 302.92 895.15 411.29 788.91 517.22 923.19 502.28
00013131 00000080 608.92 88.41 362.72 544.97 756.33 320.26 922.89 299.98 896.53 408.40 792.67 517.72 926.90 501.97
00013132 00000081 612.29 91.12 363.11 545.35 760.90 322.92 922.94 300.69 899.20 409.35 796.94 518.79 928.25 501.67
00013133 00000082 615.13 92.10 363.20 541.74 765.79 324.31 927.07 301.31 903.88 409.12 804.56 519.70 933.19 501.96
00013134 00000083 618.63 89.62 361.51 538.08 771.22 324.30 932.62 302.43 908.53 408.06 810.78 517.99 937.31 501.13
00013135 00000084 620.94 92.32 358.22 538.91 776.69 319.38 925.20 298.58 907.20 410.15 827.35 515.68 937.60 498.80
00013136 00000085 625.16 92.96 357.66 546.47 781.49 325.54 928.29 300.76 913.87 416.94 837.08 522.76 945.17 502.24
00013137 00000086 629.49 97.48 360.25 549.06 790.76 336.50 932.54 305.12 923.26 426.73 849.42 532.34 952.20 506.34
00013138 00000087 633.50 106.87 362.21 552.17 795.77 353.68 936.78 311.95 931.84 440.10 856.14 547.95 959.63 513.06
00013139 00000088 641.75 125.85 361.33 554.15 803.36 364.14 944.70 319.10 946.24 445.60 863.26 565.60 968.21 528.50
00013140 DELETE   650.33 143.49 358.25 549.68 813.98 388.97 940.38 330.72 956.25 458.89 873.44 580.86 973.16 534.02
00013141 00000090 651.80 154.50 358.30 543.58 810.34 412.01 938.89 345.59 954.45 472.43 879.29 594.99 979.72 540.84
00013142 00000091 647.44 162.72 359.98 537.78 805.87 416.53 933.80 352.04 950.01 475.39 877.62 596.73 977.71 543.55
00013143 00000092 637.39 154.80 361.75 546.38 798.68 403.89 927.74 347.45 939.01 472.71 866.50 591.58 966.00 544.94
00013144 DELETE   625.10 143.58 363.32 547.08 792.43 377.43 924.50 335.55 928.08 459.52 849.22 574.23 951.16 539.65
00013145 00000094 613.49 131.55 359.62 541.75 774.32 364.66 914.93 324.05 915.34 449.15 831.93 554.84 943.24 521.66
00013146 00000095 609.44 121.77 364.94 542.30 766.00 354.24 909.48 316.68 908.07 439.18 823.03 543.60 939.84 513.27
00013147 00000096 605.61 107.73 367.52 547.66 770.18 347.68 915.73 306.93 915.10 420.71 816.43 533.82 938.06 500.65
00013148 00000097 605.80 99.68 363.62 541.99 771.69 343.41 915.00 302.65 914.75 414.18 818.02 526.73 936.43 494.06
00013149 00000098 611.28 94.34 359.70 539.57 771.47 340.23 918.81 301.90 912.96 408.99 818.88 523.34 939.28 492.89
00013150 00000099 613.47 92.36 360.00 538.67 772.17 336.28 921.05 298.66 914.53 407.15 821.65 521.62 941.61 491.81
00013151 00000100 617.04 93.21 360.09 540.58 773.81 335.62 924.37 299.00 914.74 406.52 822.58 522.25 944.42 493.07
00013152 00000101 619.35 96.12 360.72 543.84 776.69 337.63 924.78 303.76 914.21 407.88 824.77 524.68 944.88 497.51
00013153 00000102 621.54 96.90 358.19 545.59 775.36 332.67 920.37 301.30 908.31 418.66 836.59 525.78 946.31 500.19
00013154 00000103 624.88 99.67 359.34 546.07 776.91 336.13 923.70 303.73 909.74 425.08 837.52 530.05 948.23 503.25
00013155 00000104 627.92 101.18 359.28 546.34 782.45 338.01 926.23 306.54 910.70 430.44 839.17 531.87 946.53 505.68
00013156 00000105 629.74 101.02 362.12 546.87 786.60 339.32 930.09 306.95 915.49 431.40 838.44 530.02 948.89 503.24
00013157 00000106 633.12 102.31 363.77 541.79 787.34 338.66 934.32 306.36 918.09 429.49 836.86 527.07 951.26 500.45
00013158 00000107 637.92 100.90 362.20 541.99 790.50 337.39 937.39 304.23 921.92 427.13 839.77 526.07 954.08 498.75
00013159 00000108 642.07 97.74 359.69 541.96 793.43 335.21 939.13 302.14 925.07 423.54 843.63 524.45 955.60 497.47
00013160 00000109 647.32 95.85 357.88 539.25 798.39 333.35 943.75 300.80 930.74 418.83 850.25 522.73 959.85 496.16
00013161 00000110 652.38 90.66 353.80 539.64 802.67 330.12 950.11 298.43 936.75 414.86 855.82 520.79 964.63 494.81
00013162 00000111 654.35 86.73 355.89 543.66 808.98 328.42 957.95 300.49 944.99 414.47 858.27 518.76 969.40 495.80
00013163 00000112 656.98 87.01 357.72 549.22 812.85 329.26 963.37 305.10 947.81 420.93 858.64 523.93 970.39 504.06
00013164 00000113 657.10 95.18 360.14 557.39 811.88 338.94 962.94 315.26 943.67 434.12 854.94 536.17 966.69 516.89
00013165 00000114 657.86 103.23 360.81 570.26 808.01 346.39 961.63 319.37 940.51 445.95 844.74 545.50 966.70 523.05
00013166 00000115 659.67 110.58 361.78 566.71 811.31 351.39 965.17 320.48 948.22 447.55 839.69 545.61 968.19 520.72
00013167 00000116 659.34 107.26 363.09 563.97 811.78 350.24 965.36 318.09 948.82 445.90 835.63 537.15 970.02 512.06
00013168 00000117 655.83 103.82 366.03 553.81 809.68 346.75 965.69 315.47 945.33 443.13 835.45 528.16 972.37 504.06
00013169 00000118 653.39 99.44 367.83 546.62 807.43 343.49 964.59 311.24 941.94 439.06 835.18 520.53 973.47 495.58
CROP_BBOX: 347 0 1255 830
