Video ID: 	xD88kdlSyvo
H: 	1080
W: 	1920
FPS: 	25.0

FRAME INDEX X0 Y0 W H [Landmarks (5 Points)]

00007836 00000000 674.12 97.26 480.04 700.51 795.27 355.24 1029.80 403.38 872.89 462.94 761.52 601.41 953.83 641.42
00007837 DELETE   667.30 96.94 479.91 700.50 785.34 358.89 1021.00 402.72 866.74 467.57 755.53 604.15 950.34 640.37
00007838 00000002 661.00 96.07 492.20 709.68 776.37 368.92 1007.72 405.51 854.28 465.92 746.47 610.87 941.36 639.97
00007839 00000003 658.51 95.84 488.02 715.72 772.26 369.89 1008.88 406.51 856.89 478.34 747.93 616.11 945.86 646.55
00007840 00000004 657.66 98.48 480.23 725.68 764.67 375.67 998.19 401.03 845.84 485.26 745.52 627.69 942.50 650.82
00007841 00000005 655.54 100.13 480.34 731.46 765.23 381.20 998.41 407.83 842.65 488.41 742.59 632.36 940.26 656.50
00007842 00000006 657.70 101.18 487.96 740.52 766.89 389.83 1005.34 412.51 843.79 488.29 746.88 643.93 943.77 664.88
00007843 00000007 657.40 113.27 485.87 743.22 764.94 399.85 1002.80 420.79 843.10 504.81 745.46 655.01 943.47 674.53
00007844 00000008 658.99 115.38 473.89 747.80 764.71 401.06 997.72 422.96 844.03 512.65 747.16 659.49 941.18 679.94
00007845 00000009 656.48 117.57 475.34 746.54 762.08 408.86 997.63 427.99 843.47 519.31 749.62 667.08 943.56 684.99
00007846 00000010 658.64 119.70 473.51 744.56 760.94 414.29 1000.11 431.72 844.68 524.73 750.08 671.74 948.06 688.20
00007847 00000011 659.53 121.12 476.77 739.16 761.26 417.13 1002.69 435.41 846.90 532.33 750.27 673.33 951.19 690.41
00007848 00000012 666.69 129.04 475.70 734.67 770.30 415.58 1008.23 441.57 855.01 541.28 750.19 673.48 952.55 694.64
00007849 00000013 669.03 130.51 477.32 733.11 770.82 419.15 1009.52 444.44 857.32 546.14 753.10 675.46 957.31 695.72
00007850 00000014 669.22 125.36 477.74 741.12 766.03 424.84 1010.27 441.33 855.56 548.69 754.01 678.48 971.49 693.36
00007851 00000015 671.19 125.79 477.15 743.95 766.90 427.67 1010.63 441.82 857.53 550.38 755.41 678.78 978.16 691.52
00007852 00000016 671.77 123.35 482.50 744.82 766.59 426.70 1011.04 439.88 856.98 549.36 755.54 676.62 981.11 688.29
00007853 00000017 672.81 121.83 479.46 744.18 766.87 427.26 1012.16 441.82 857.01 550.12 755.12 676.37 981.43 689.17
00007854 00000018 673.19 121.64 482.83 748.28 766.20 427.49 1010.06 445.01 853.57 552.57 753.89 676.09 979.49 691.06
00007855 00000019 669.81 114.24 500.73 765.36 768.57 431.09 1008.31 452.71 850.13 554.00 755.57 675.54 975.84 692.77
00007856 00000020 671.04 114.87 494.03 770.27 766.50 429.86 1002.84 453.65 846.21 556.47 755.71 677.18 971.75 696.17
00007857 00000021 678.43 116.64 483.93 771.19 769.12 425.10 996.71 448.98 845.54 556.29 764.49 684.48 960.06 704.45
00007858 00000022 680.46 115.84 479.13 768.33 771.35 422.77 996.58 447.42 846.50 555.43 765.66 681.18 956.26 702.17
00007859 00000023 677.78 116.40 490.06 774.65 778.97 424.10 1005.04 449.13 846.74 550.82 764.97 681.09 954.77 702.91
00007860 00000024 683.38 115.07 483.24 796.39 776.29 420.35 998.98 446.89 849.07 556.78 770.18 695.61 956.42 718.41
00007861 00000025 675.40 118.46 494.14 777.32 774.29 428.75 1001.38 457.74 845.23 557.04 759.93 687.33 956.41 711.92
00007862 00000026 674.78 115.94 495.84 781.76 769.83 428.16 1001.21 455.06 845.24 561.06 758.90 690.93 959.13 713.70
00007863 00000027 681.03 115.61 482.97 793.24 769.82 431.30 999.66 455.94 848.70 566.54 764.49 700.59 960.25 721.64
00007864 00000028 676.26 122.30 488.40 782.71 779.64 426.23 1006.75 452.17 850.83 568.38 771.95 699.46 956.76 722.71
00007865 00000029 678.14 131.18 483.55 781.51 783.01 420.23 1007.28 452.06 858.28 572.99 769.27 694.23 957.34 722.55
00007866 00000030 680.08 126.61 483.90 778.05 792.19 423.69 1016.64 461.81 866.10 577.25 763.26 684.44 963.60 715.29
00007867 00000031 683.67 129.37 480.12 775.67 791.33 420.70 1020.91 463.82 867.97 578.80 766.60 688.08 968.50 723.95
00007868 DELETE   685.16 135.37 471.19 771.18 800.77 417.70 1029.18 471.91 877.90 584.47 772.62 687.18 974.01 732.42
00007869 DELETE   684.09 145.34 483.22 755.11 816.53 428.75 1040.23 485.89 891.14 587.33 775.32 682.80 976.25 730.11
00007870 DELETE   685.52 148.64 492.35 747.61 822.25 429.67 1051.81 489.99 899.81 592.50 783.55 685.84 985.35 735.84
00007871 00000035 688.95 150.38 488.84 748.55 829.62 430.85 1057.98 491.97 908.17 604.57 791.69 687.87 989.06 739.04
00007872 00000036 683.26 154.94 498.42 747.54 824.45 437.14 1056.59 501.82 904.54 605.58 783.82 694.53 985.51 747.88
00007873 00000037 680.75 161.83 497.68 745.16 824.59 441.38 1056.68 506.71 906.90 609.98 784.05 697.62 985.76 751.32
00007874 00000038 678.53 162.90 498.73 747.73 819.84 444.17 1054.30 509.63 904.07 615.15 780.12 700.28 986.99 754.00
00007875 00000039 677.58 165.85 498.36 741.77 816.47 444.77 1052.37 509.15 901.65 615.61 778.15 699.04 988.23 751.58
00007876 00000040 674.32 164.52 496.80 736.83 815.59 441.86 1050.27 507.30 901.19 614.00 775.68 693.56 986.17 746.89
00007877 00000041 675.34 153.91 493.03 747.63 817.77 432.24 1052.72 504.02 899.43 611.89 772.69 688.14 984.72 747.24
00007878 00000042 673.60 155.24 494.79 746.47 817.36 432.05 1052.32 503.60 899.95 610.52 772.52 688.09 984.14 746.93
00007879 00000043 673.44 154.74 494.40 748.56 816.33 432.94 1051.45 504.48 899.77 611.41 773.04 689.98 984.19 749.08
00007880 00000044 670.18 166.12 499.79 737.76 812.60 442.06 1049.55 510.64 896.54 613.76 769.84 695.28 982.58 751.29
00007881 00000045 668.67 167.63 496.62 739.35 812.78 442.95 1047.26 511.37 896.88 612.73 770.33 697.80 978.21 753.83
00007882 00000046 668.75 167.90 492.36 736.22 812.34 442.07 1045.43 508.17 898.36 610.76 771.22 697.50 977.57 751.70
00007883 00000047 666.01 153.34 495.18 748.96 807.98 431.95 1043.45 497.41 895.33 603.90 772.60 694.21 978.36 748.23
00007884 00000048 666.81 148.67 493.33 750.60 806.61 429.43 1042.46 493.08 894.80 598.96 773.10 691.28 979.82 743.51
00007885 00000049 669.19 148.54 491.14 747.17 806.02 426.94 1041.62 489.07 893.48 595.69 773.87 690.81 976.48 741.82
00007886 00000050 670.96 147.59 484.12 744.76 806.64 424.73 1040.68 484.04 895.24 588.60 774.38 687.10 976.37 735.68
00007887 00000051 671.88 139.87 485.66 744.92 807.62 422.30 1040.81 480.53 896.44 582.18 775.79 683.43 973.68 731.24
00007888 00000052 677.48 134.17 480.52 748.54 809.68 418.06 1042.93 477.64 896.09 575.22 774.93 679.04 973.29 727.83
00007889 00000053 679.50 134.84 485.01 740.00 812.65 415.96 1044.95 476.07 897.93 570.55 777.24 675.10 974.10 724.33
00007890 00000054 680.20 131.94 483.45 743.25 813.00 411.84 1044.88 467.81 898.08 565.98 780.48 674.33 975.20 719.85
00007891 00000055 683.09 131.65 486.46 746.31 814.96 409.38 1047.48 462.06 898.01 562.94 784.22 675.72 976.42 718.58
00007892 00000056 686.64 128.99 487.48 752.15 817.45 407.15 1050.42 458.78 901.98 562.86 788.49 676.48 981.42 718.74
00007893 00000057 690.41 130.84 486.53 747.96 819.11 406.59 1052.85 455.43 903.76 561.82 792.21 676.78 985.15 716.90
00007894 00000058 693.20 127.36 487.93 752.14 816.36 407.15 1058.78 450.47 911.30 551.29 796.96 673.97 1000.33 710.90
00007895 00000059 700.21 127.27 486.49 752.26 821.89 406.36 1065.89 448.08 918.55 547.77 800.48 672.47 1005.38 708.29
00007896 00000060 708.68 130.93 481.94 739.23 826.94 409.52 1073.39 450.06 917.29 553.03 803.95 673.81 1010.73 709.15
00007897 00000061 716.38 133.23 474.87 736.87 833.93 410.00 1077.10 450.66 922.16 550.05 808.72 671.34 1017.97 706.73
00007898 00000062 723.09 133.41 473.99 734.05 839.92 404.34 1081.42 443.72 929.50 546.56 814.35 669.32 1020.03 704.18
00007899 00000063 729.63 128.56 473.88 738.72 847.92 401.16 1085.73 440.58 934.95 543.45 822.74 668.54 1025.60 703.27
00007900 00000064 734.18 117.94 481.08 761.73 853.83 398.93 1089.44 441.37 945.68 541.20 831.76 667.22 1030.50 703.18
00007901 00000065 739.23 131.11 481.09 738.23 866.65 400.37 1096.64 450.75 947.41 548.30 832.05 664.15 1026.00 706.19
00007902 00000066 744.67 132.65 478.90 733.30 869.92 400.72 1099.77 450.07 949.43 548.53 834.85 663.11 1029.25 704.28
00007903 00000067 748.66 132.99 479.08 728.38 873.38 400.07 1103.10 448.99 952.46 546.78 838.48 660.51 1033.89 701.10
00007904 00000068 747.99 132.92 479.94 727.64 873.84 399.67 1104.08 448.56 952.81 543.91 837.34 658.57 1033.64 698.97
00007905 00000069 749.41 132.17 477.78 726.15 873.73 399.28 1105.29 446.53 953.40 541.95 838.41 657.69 1035.78 696.65
00007906 00000070 749.75 132.32 477.69 725.45 874.42 398.66 1105.20 445.72 954.30 540.43 838.94 655.72 1036.52 694.38
00007907 00000071 750.01 132.90 476.00 723.93 874.24 398.02 1105.54 445.77 954.10 540.34 838.24 655.33 1036.44 694.52
00007908 00000072 749.00 132.99 479.05 723.35 875.94 401.01 1104.59 450.03 952.31 540.56 840.62 653.93 1037.78 694.14
00007909 00000073 750.77 133.44 485.21 726.29 874.48 410.79 1107.48 460.50 951.71 538.89 838.73 656.89 1043.38 697.19
00007910 00000074 745.97 135.66 482.55 729.18 875.68 413.67 1107.21 468.68 957.38 550.99 840.63 659.21 1046.65 703.66
00007911 00000075 745.01 136.55 479.75 732.96 876.60 419.20 1103.95 474.47 959.21 558.34 841.61 663.49 1047.60 708.11
00007912 00000076 744.07 143.92 478.63 735.41 876.17 427.95 1100.84 480.92 957.26 573.75 838.47 670.74 1045.65 713.48
00007913 00000077 741.70 148.67 481.12 748.93 870.67 432.20 1098.33 482.15 951.82 582.86 837.75 679.66 1049.02 720.06
00007914 00000078 739.87 156.17 478.35 737.23 873.58 438.23 1095.61 487.84 954.83 584.58 838.69 678.17 1049.74 718.13
00007915 00000079 736.16 154.38 482.04 747.66 867.09 433.88 1095.19 481.11 950.83 583.03 836.11 680.94 1050.29 719.30
00007916 00000080 734.16 153.42 483.12 746.51 866.31 433.15 1094.71 478.78 950.76 576.92 833.68 678.60 1049.58 715.07
00007917 00000081 732.66 155.08 485.06 744.28 864.05 433.04 1093.58 476.96 949.12 575.50 832.04 679.33 1047.93 714.47
00007918 00000082 733.12 155.96 482.35 747.25 863.23 436.24 1091.71 479.78 947.98 578.97 832.50 681.25 1048.77 715.93
00007919 00000083 733.83 157.40 482.18 751.84 861.91 438.01 1090.51 483.09 947.12 590.21 833.36 685.47 1050.17 721.86
00007920 00000084 732.07 165.21 476.49 741.70 859.02 444.28 1087.10 491.64 942.58 597.71 830.19 688.34 1052.48 727.52
00007921 00000085 730.87 166.25 473.65 740.55 855.42 450.10 1085.35 495.53 942.21 601.87 827.59 692.45 1051.66 730.27
00007922 00000086 728.30 172.02 469.78 736.65 853.96 453.42 1082.52 500.38 942.09 607.00 824.05 694.75 1045.95 734.22
00007923 00000087 724.23 175.30 469.95 733.01 849.91 456.87 1078.63 503.16 939.48 610.23 819.46 698.04 1035.53 737.59
00007924 00000088 719.20 174.48 466.20 739.89 848.75 453.85 1074.93 503.16 935.22 609.03 815.28 699.65 1024.28 741.83
00007925 00000089 717.39 170.95 462.82 748.84 841.20 452.23 1065.61 501.39 920.32 603.89 805.38 699.45 1014.61 741.60
00007926 00000090 711.34 166.76 468.41 740.89 830.43 449.12 1054.60 497.61 906.51 599.29 794.13 690.89 1003.78 732.68
00007927 00000091 703.30 161.43 474.57 736.57 822.38 443.05 1049.78 492.28 896.33 591.87 786.84 683.68 996.96 725.73
00007928 DELETE   692.81 151.89 480.67 744.66 816.90 436.81 1042.70 489.36 889.91 591.08 781.18 681.60 992.80 724.39
00007929 DELETE   687.08 151.32 482.73 747.09 808.41 436.00 1033.69 487.07 878.91 593.29 772.74 682.34 987.14 724.01
00007930 00000094 684.85 156.04 481.26 746.11 802.04 438.96 1022.74 488.43 868.23 591.26 767.07 688.60 972.26 728.47
00007931 DELETE   690.58 150.17 480.93 770.06 791.47 442.74 1014.72 491.13 849.93 589.98 760.23 688.99 964.37 730.14
00007932 00000096 686.59 161.73 470.42 747.10 780.58 443.07 1001.63 490.09 839.81 598.93 759.65 702.23 943.97 743.19
00007933 00000097 687.02 165.82 468.39 760.06 772.51 448.71 994.40 490.50 827.86 599.48 752.14 713.62 937.30 750.59
00007934 00000098 685.97 153.82 482.03 796.44 776.94 458.95 996.98 500.93 820.15 590.66 753.52 715.32 946.38 751.32
00007935 00000099 688.44 150.75 482.84 793.58 776.70 463.93 999.28 504.57 820.75 592.74 754.70 717.26 949.03 752.08
00007936 00000100 691.28 148.58 481.80 791.95 777.10 455.65 1000.78 496.16 824.90 591.97 757.52 713.09 950.99 748.09
00007937 00000101 698.41 143.97 477.01 794.00 782.75 448.19 1004.67 489.94 828.86 591.14 761.55 708.48 953.72 744.76
00007938 00000102 702.67 142.40 479.40 791.49 788.02 447.33 1009.15 489.75 833.60 588.66 765.11 705.05 957.04 741.93
00007939 00000103 702.84 147.38 486.16 770.84 790.84 449.50 1017.97 482.99 841.80 589.53 767.73 705.66 966.33 735.19
00007940 00000104 706.41 142.39 488.88 767.10 795.45 442.71 1024.56 475.96 850.06 583.96 774.77 700.27 975.27 729.72
00007941 00000105 708.70 137.53 493.86 764.01 804.58 430.21 1032.01 463.42 857.36 571.81 783.38 691.86 980.93 721.27
00007942 00000106 714.35 133.94 496.89 766.47 808.35 428.12 1035.90 457.98 861.62 567.56 791.01 691.10 986.41 717.90
00007943 00000107 720.00 133.68 498.23 770.73 814.08 427.36 1043.01 459.68 865.48 567.98 792.52 690.44 989.37 719.62
00007944 00000108 723.55 138.17 492.59 772.68 815.76 436.01 1045.02 467.02 870.79 576.55 797.15 702.80 989.43 730.95
00007945 00000109 727.34 140.48 488.27 773.33 813.67 442.69 1045.20 468.62 869.93 581.71 797.80 711.05 991.90 735.01
00007946 00000110 733.63 138.68 482.73 778.83 816.11 445.02 1046.38 467.85 871.70 584.01 804.34 719.96 994.53 741.33
00007947 00000111 734.24 144.82 480.41 775.62 818.35 445.85 1049.58 470.97 875.99 586.55 805.49 719.21 1001.49 742.20
00007948 00000112 734.98 145.06 480.85 772.64 819.84 448.30 1052.91 472.48 880.31 588.38 809.00 718.20 1012.30 740.07
00007949 00000113 738.62 141.90 480.27 774.69 821.71 451.19 1056.27 475.68 885.22 594.81 812.97 717.28 1022.08 739.02
00007950 00000114 738.65 147.97 483.38 769.35 823.70 455.28 1057.88 479.10 889.86 599.28 814.86 717.07 1028.29 738.14
00007951 00000115 742.65 149.55 481.49 769.10 827.04 458.89 1061.49 480.87 896.02 603.57 819.77 717.39 1037.97 736.76
00007952 00000116 747.93 155.27 479.17 760.20 832.88 457.37 1063.45 479.77 901.22 603.05 827.30 712.67 1043.09 732.25
00007953 00000117 751.81 154.12 478.38 758.72 837.45 451.62 1065.84 475.49 906.70 601.48 832.20 705.46 1048.21 725.68
00007954 00000118 759.30 152.41 479.60 759.62 846.05 445.82 1069.93 469.20 913.46 593.62 839.60 698.89 1052.25 718.64
00007955 00000119 761.56 144.87 475.37 760.10 853.55 435.88 1071.89 459.66 916.93 584.00 846.04 691.36 1053.38 711.59
00007956 00000120 758.55 121.28 482.04 783.28 853.04 436.64 1076.15 452.85 921.93 568.22 850.20 679.47 1061.02 691.29
00007957 00000121 761.80 118.00 485.06 780.56 858.53 431.04 1083.74 447.65 931.00 560.96 854.93 675.19 1066.54 687.21
00007958 00000122 762.73 115.70 485.36 778.48 861.74 427.50 1090.39 446.68 937.71 561.78 858.83 676.20 1069.17 690.58
00007959 00000123 761.72 130.16 479.48 751.68 857.56 425.06 1087.93 448.51 936.90 562.98 850.26 681.45 1056.29 699.50
00007960 00000124 759.38 132.45 478.25 739.67 853.21 426.72 1085.72 450.02 933.17 559.73 843.26 677.32 1049.22 695.16
CROP_BBOX: 318 0 1617 1080
