Video ID: 	ngVdCpKUuas
H: 	1080
W: 	1920
FPS: 	25.0

FRAME INDEX X0 Y0 W H [Landmarks (5 Points)]

00000434 00000000 741.83 87.80 416.47 542.76 985.01 265.96 1067.71 248.78 1161.45 336.20 1063.42 476.64 1126.93 465.95
00000435 00000001 723.52 77.37 431.56 562.84 978.91 278.43 1081.76 262.92 1156.03 346.27 1049.72 488.70 1124.97 477.80
00000436 DELETE   725.63 99.29 428.08 557.02 981.85 302.91 1089.69 283.70 1149.41 378.56 1029.50 507.68 1110.14 494.36
00000437 DELETE   733.77 126.36 412.35 545.12 993.81 326.66 1090.47 307.61 1155.52 407.78 1027.13 525.09 1102.55 513.88
00000438 DELETE   729.51 116.35 421.61 568.86 1010.14 334.70 1102.78 323.96 1164.40 427.24 1043.71 549.51 1100.90 543.02
00000439 00000005 736.24 146.35 418.50 545.81 1013.43 347.51 1096.90 327.08 1164.76 440.25 1042.34 557.80 1093.68 544.50
00000440 00000006 736.55 145.65 418.08 546.28 1013.03 348.41 1096.47 327.66 1163.48 438.90 1044.33 557.23 1094.65 543.28
00000441 00000007 728.82 133.53 421.22 554.64 1010.26 336.50 1095.08 322.03 1161.95 427.83 1041.29 548.42 1094.31 539.35
00000442 00000008 728.46 140.37 420.88 543.20 1001.96 329.31 1088.06 314.17 1158.15 419.47 1039.73 541.85 1094.22 532.05
00000443 00000009 722.81 130.45 424.63 552.25 999.18 324.19 1086.15 308.41 1153.99 418.21 1030.97 539.30 1088.24 529.22
00000444 00000010 723.80 128.59 418.48 555.81 995.94 321.41 1082.40 307.53 1148.40 419.32 1026.42 538.64 1084.38 529.79
00000445 00000011 717.97 135.14 416.40 552.39 975.17 324.66 1085.90 316.36 1130.08 420.67 1012.59 546.26 1087.52 539.74
00000446 00000012 713.78 139.29 415.47 545.65 971.09 319.05 1082.79 314.94 1125.20 415.40 1009.72 544.07 1084.65 540.34
00000447 00000013 709.92 130.03 417.21 551.41 970.98 319.00 1079.41 308.54 1127.29 413.17 1007.72 540.92 1079.81 532.95
00000448 00000014 698.80 118.13 426.92 562.36 971.62 314.71 1070.77 299.93 1126.99 406.74 1006.76 537.82 1072.02 526.79
00000449 00000015 696.60 126.62 419.26 546.74 961.50 306.95 1062.84 289.75 1115.38 399.70 999.24 534.71 1062.88 521.66
00000450 00000016 698.48 133.88 418.08 540.62 963.40 298.78 1061.62 289.41 1120.18 397.76 983.29 517.73 1055.99 514.27
00000451 00000017 680.45 127.79 427.44 552.69 958.01 302.84 1046.62 290.20 1110.39 402.26 984.08 530.89 1041.42 523.60
00000452 00000018 679.06 135.49 423.00 550.88 960.18 315.24 1043.05 305.99 1111.67 413.51 982.58 536.15 1035.13 532.33
00000453 00000019 689.15 142.38 412.04 545.47 959.53 329.52 1050.90 315.59 1111.40 429.43 980.11 547.99 1035.71 540.85
00000454 00000020 688.92 154.51 416.62 529.73 955.48 340.29 1058.60 328.62 1105.02 436.71 978.01 549.02 1043.05 542.68
00000455 00000021 688.68 152.75 412.24 528.88 955.92 333.59 1055.12 319.78 1101.18 432.94 980.40 547.06 1040.58 538.86
00000456 00000022 683.75 132.76 410.27 550.87 957.92 330.16 1036.57 308.10 1106.25 423.68 982.67 544.79 1029.74 530.63
00000457 00000023 676.73 126.86 415.17 551.01 951.47 331.78 1037.29 308.87 1103.23 424.79 978.98 543.37 1034.15 528.05
00000458 00000024 663.65 127.47 421.24 555.18 946.99 339.49 1028.22 318.20 1093.22 428.91 974.42 543.23 1023.69 529.33
00000459 00000025 655.34 146.94 424.24 537.02 941.13 350.90 1024.65 331.28 1086.65 442.74 970.79 550.82 1020.63 537.47
00000460 00000026 658.07 157.53 419.85 533.22 938.80 354.88 1019.25 334.13 1081.44 447.64 963.82 556.08 1012.94 541.87
00000461 00000027 652.31 143.40 421.72 551.21 938.07 353.40 1013.02 327.50 1078.68 444.80 960.68 558.28 1005.07 540.43
00000462 00000028 655.30 144.23 418.74 548.60 935.15 348.49 1010.33 323.36 1075.94 441.65 955.45 555.66 1001.18 538.76
00000463 00000029 650.80 145.61 421.28 547.14 934.32 351.00 1012.50 327.82 1074.74 443.04 950.34 554.00 999.30 539.13
00000464 00000030 651.97 149.77 419.25 548.52 934.65 353.31 1012.20 332.33 1070.34 448.20 946.17 557.05 995.63 544.09
00000465 00000031 654.98 154.96 418.72 554.10 933.53 354.31 1013.41 335.33 1068.54 455.83 940.05 566.83 992.49 555.62
00000466 00000032 663.02 169.53 415.32 544.75 936.04 353.36 1012.88 333.95 1072.73 458.97 937.68 570.71 989.90 559.84
00000467 00000033 664.89 167.27 413.20 550.49 938.01 356.68 1012.80 336.50 1074.12 460.38 939.24 572.87 990.02 561.58
00000468 00000034 662.83 168.28 416.20 551.41 936.43 356.06 1012.11 337.04 1074.71 459.43 937.69 572.17 989.48 561.78
00000469 00000035 656.09 162.89 422.51 558.69 933.52 363.18 1014.33 345.82 1074.98 459.46 934.84 571.68 991.87 562.78
00000470 00000036 655.43 166.14 423.78 557.17 931.65 363.97 1015.45 348.88 1074.99 460.35 933.37 571.41 992.32 563.88
00000471 00000037 661.07 180.82 419.77 542.86 931.43 366.57 1014.42 348.35 1077.66 464.09 931.50 573.92 990.91 564.40
00000472 00000038 660.73 185.68 418.30 540.73 928.67 368.04 1014.81 348.28 1079.36 465.72 934.46 578.43 994.26 567.36
00000473 00000039 663.88 176.60 412.37 551.61 925.69 373.98 1015.59 350.93 1080.86 468.91 934.06 584.30 992.87 570.79
00000474 00000040 662.89 177.95 412.48 552.50 924.70 382.98 1017.63 355.60 1084.28 474.35 934.74 588.92 996.60 572.08
00000475 00000041 664.27 179.71 412.83 552.03 924.58 387.46 1019.40 358.31 1085.59 475.48 937.44 590.50 1001.25 572.04
00000476 00000042 666.31 184.99 414.47 544.43 928.19 388.95 1021.21 359.05 1088.96 474.84 942.09 587.31 1006.17 568.27
00000477 00000043 675.26 188.59 407.08 539.80 931.85 390.24 1024.45 360.57 1089.66 477.05 945.04 587.20 1008.76 568.70
00000478 00000044 673.58 186.37 410.92 540.85 934.93 388.20 1030.20 361.38 1091.39 473.70 949.80 585.49 1016.04 568.92
00000479 00000045 679.76 190.99 409.07 531.45 935.05 381.98 1034.59 359.09 1089.33 469.77 951.79 581.13 1022.29 567.65
00000480 00000046 679.77 181.75 410.68 534.69 934.32 375.09 1040.86 354.69 1087.37 463.29 956.09 577.82 1030.79 565.41
00000481 00000047 676.95 177.86 413.28 538.40 934.95 375.79 1041.59 355.63 1088.54 461.46 958.74 577.12 1033.51 564.51
00000482 00000048 681.96 180.61 407.29 537.31 934.77 377.35 1039.22 355.18 1088.27 464.40 957.47 579.41 1031.39 565.51
00000483 00000049 675.13 186.13 411.13 536.97 935.39 384.81 1032.44 358.26 1090.25 469.57 955.57 580.44 1025.56 563.71
00000484 00000050 677.05 192.88 402.51 535.85 930.09 393.70 1022.80 365.91 1084.89 477.73 949.75 586.07 1014.91 568.94
00000485 00000051 666.95 182.92 403.99 551.87 926.44 402.81 1013.04 374.84 1079.03 480.71 944.31 592.63 1006.38 575.03
00000486 00000052 654.27 189.01 410.69 549.27 917.41 404.90 1010.34 380.46 1070.74 485.35 938.76 596.26 1006.80 580.77
00000487 00000053 650.00 197.76 407.94 542.84 911.22 407.81 1004.78 384.15 1066.98 488.44 933.03 597.52 1002.75 582.82
00000488 00000054 639.62 189.40 411.50 562.91 894.96 403.56 1005.22 385.47 1052.69 490.80 925.04 614.81 1005.33 601.16
00000489 00000055 626.26 182.23 410.07 571.67 881.95 402.15 991.03 386.09 1040.33 488.23 911.16 614.45 989.94 602.56
00000490 00000056 624.51 192.87 404.92 558.43 873.30 405.37 985.01 386.76 1031.84 492.14 902.47 615.65 985.33 602.21
00000491 00000057 619.00 201.67 403.52 551.23 867.00 404.70 977.30 388.84 1026.16 491.68 898.34 615.21 978.68 604.73
00000492 00000058 608.69 181.74 411.64 568.63 861.03 407.42 978.36 384.07 1022.30 495.31 897.69 620.22 981.07 602.81
00000493 00000059 601.19 191.25 415.88 564.71 855.09 407.10 968.62 386.47 1020.09 493.35 896.80 620.93 975.13 605.49
00000494 00000060 602.13 195.40 410.78 562.24 851.66 409.92 964.18 385.47 1014.06 495.74 899.92 625.35 973.10 607.05
00000495 00000061 606.71 196.81 407.03 560.24 847.78 409.62 966.60 383.86 1014.15 496.06 895.29 627.33 972.92 608.10
00000496 00000062 612.12 196.73 404.42 557.72 847.65 407.23 974.46 383.81 1016.19 498.07 887.10 624.54 974.53 607.91
00000497 00000063 610.66 192.50 409.06 556.08 853.89 406.87 979.66 383.88 1021.39 499.44 886.29 622.53 975.33 606.35
00000498 00000064 613.36 195.10 408.90 552.30 858.66 404.75 983.95 383.86 1024.68 500.77 888.08 621.48 977.35 607.21
00000499 00000065 617.79 198.34 405.82 552.82 863.61 405.07 988.32 384.23 1030.03 500.70 893.33 623.63 981.19 609.67
00000500 00000066 621.93 197.63 402.87 556.08 866.49 406.77 989.02 389.17 1028.69 498.86 896.27 621.91 983.19 610.32
00000501 00000067 623.28 189.36 403.01 563.69 872.47 413.92 990.94 393.96 1033.46 500.40 899.38 622.65 985.76 609.17
00000502 00000068 621.54 179.21 410.20 575.07 882.06 414.92 999.50 397.49 1042.42 504.77 904.73 624.46 990.12 612.75
00000503 00000069 620.28 184.25 413.96 571.03 886.55 414.45 1000.77 398.27 1046.29 505.26 909.36 625.96 990.34 615.35
00000504 00000070 622.95 186.71 413.18 569.10 888.84 414.10 1003.85 399.09 1049.22 505.52 911.09 625.31 991.79 615.78
00000505 00000071 624.17 196.01 409.65 561.11 887.88 411.73 1001.43 395.94 1046.70 503.37 912.40 624.52 989.12 614.45
00000506 00000072 620.63 197.13 412.28 561.34 888.06 411.16 1000.78 396.04 1047.11 502.20 912.73 624.58 987.90 615.19
00000507 00000073 622.56 197.06 409.90 561.38 887.85 411.71 999.33 396.83 1044.82 503.79 910.88 625.58 984.44 616.54
00000508 00000074 619.78 204.56 409.58 553.19 886.46 411.84 995.34 399.25 1042.37 503.21 907.86 622.54 980.78 615.54
00000509 00000075 613.21 209.85 413.78 546.71 885.57 409.62 990.98 397.24 1038.12 503.77 904.03 621.82 975.53 615.18
00000510 00000076 609.69 206.28 413.68 549.94 882.62 410.89 981.78 399.90 1032.50 504.02 901.64 620.80 968.38 615.30
00000511 00000077 603.06 200.53 417.49 555.15 876.87 412.81 973.73 401.66 1027.03 506.90 895.60 621.84 961.00 616.48
00000512 00000078 604.22 208.81 411.63 549.47 873.50 412.49 966.45 396.83 1022.32 508.85 890.20 622.97 950.16 614.83
00000513 00000079 603.77 204.43 409.69 555.13 868.25 410.85 962.94 394.08 1018.39 508.67 886.89 624.56 947.88 615.15
00000514 00000080 598.64 199.69 412.53 556.53 865.65 410.02 961.94 394.17 1015.81 505.96 885.51 621.49 947.98 612.23
00000515 00000081 601.29 204.33 409.80 546.99 865.62 404.17 962.71 388.90 1016.06 500.60 887.41 617.41 951.07 608.64
00000516 00000082 597.33 201.41 417.41 547.96 865.09 400.71 963.77 386.19 1017.49 497.57 885.74 614.62 952.72 606.42
00000517 00000083 600.41 197.88 415.50 560.71 866.06 400.38 960.04 388.01 1015.66 498.38 885.33 618.34 947.53 612.29
00000518 00000084 602.49 195.59 414.14 565.07 872.92 405.45 958.57 391.31 1019.60 499.35 901.92 623.62 956.33 615.35
00000519 00000085 606.72 205.74 417.49 563.87 867.20 402.84 967.37 394.80 1021.68 495.73 908.92 627.89 977.74 623.27
00000520 00000086 622.31 196.68 408.57 580.31 876.95 406.02 977.83 398.32 1028.06 497.92 915.57 629.21 987.64 624.49
00000521 00000087 622.05 182.02 411.83 596.36 884.17 407.13 987.51 400.54 1038.94 499.33 923.61 631.11 991.97 626.21
00000522 00000088 637.92 198.75 399.27 573.13 893.21 410.62 1001.52 406.47 1046.28 507.44 928.37 631.13 999.55 628.63
00000523 00000089 639.24 215.31 405.05 553.87 895.67 417.45 1011.53 413.54 1049.49 512.22 929.13 631.63 1006.39 628.64
00000524 00000090 641.20 220.05 405.22 547.58 896.14 417.71 1019.01 416.60 1051.34 514.48 928.38 630.87 1011.39 629.92
00000525 00000091 638.18 229.81 407.74 533.84 895.89 416.95 1022.02 417.63 1048.40 518.16 924.32 629.93 1008.32 630.64
00000526 00000092 635.64 220.28 406.77 543.83 891.38 418.79 1021.10 419.56 1045.42 518.96 916.53 630.14 1003.21 631.20
00000527 00000093 636.58 223.53 408.48 542.30 892.29 416.74 1021.14 418.33 1044.55 517.96 912.61 629.41 1000.32 631.38
00000528 00000094 636.09 231.16 413.08 531.81 893.92 415.89 1026.03 416.85 1050.13 518.00 914.06 629.16 1004.49 630.85
00000529 00000095 640.23 233.19 417.23 529.84 900.00 419.88 1030.61 414.73 1058.83 521.23 919.18 629.83 1013.36 626.37
00000530 00000096 649.75 240.92 419.29 525.03 908.41 420.55 1033.28 415.82 1061.41 522.41 927.05 628.90 1017.84 625.50
00000531 00000097 655.54 239.15 424.93 522.69 921.59 425.82 1043.13 419.60 1069.16 523.41 947.06 622.38 1032.38 618.84
00000532 00000098 665.08 234.54 421.47 525.26 936.17 424.28 1054.31 424.09 1079.57 524.33 957.98 623.03 1039.54 624.64
00000533 00000099 673.83 232.07 420.72 531.59 945.49 424.15 1067.87 423.88 1089.99 526.48 967.27 630.38 1049.11 631.29
00000534 00000100 689.27 243.51 416.09 518.98 952.43 419.82 1079.05 423.59 1100.42 525.15 979.56 631.82 1063.69 636.12
00000535 00000101 699.71 241.11 414.03 526.99 961.11 421.57 1087.19 424.36 1109.01 527.90 985.87 636.84 1067.77 640.82
00000536 00000102 705.68 245.42 414.72 523.07 966.69 421.70 1094.39 428.03 1114.22 528.27 989.45 636.63 1072.37 643.11
00000537 00000103 710.97 249.29 415.96 518.71 969.63 423.14 1098.39 425.14 1117.53 530.13 990.72 635.47 1078.45 638.55
00000538 00000104 714.66 240.83 421.46 529.16 973.33 423.45 1106.56 422.95 1123.03 530.57 991.49 636.84 1084.33 637.55
00000539 00000105 721.76 245.26 421.80 520.59 975.94 422.21 1111.91 417.98 1125.99 529.18 995.36 633.92 1092.88 631.02
00000540 00000106 713.79 241.42 436.95 521.84 984.15 420.17 1119.49 420.42 1138.12 525.38 1009.03 623.95 1098.76 625.03
00000541 00000107 721.84 224.19 433.27 534.90 989.47 415.42 1126.20 414.96 1141.87 522.12 1010.63 621.11 1104.66 622.02
00000542 00000108 726.43 227.12 430.17 528.45 988.27 411.99 1126.59 410.24 1142.25 518.88 1009.62 618.60 1105.88 618.43
00000543 00000109 729.02 227.62 425.95 531.14 994.03 410.89 1123.87 411.51 1144.44 517.44 1009.42 617.34 1099.89 619.76
00000544 00000110 723.44 229.06 427.96 539.44 991.18 412.11 1113.99 413.28 1136.04 518.84 1011.62 624.61 1090.44 626.44
00000545 00000111 721.81 230.06 426.96 537.12 987.99 410.40 1112.26 412.12 1138.44 514.91 1007.08 620.98 1088.24 623.08
00000546 00000112 715.85 229.04 423.62 538.36 972.64 411.38 1105.50 410.01 1127.57 522.47 982.86 629.13 1077.06 630.01
00000547 00000113 708.82 228.03 422.93 533.33 965.14 414.16 1102.31 413.22 1119.74 523.79 975.50 628.41 1070.81 630.23
00000548 00000114 704.70 225.01 415.46 532.70 959.38 410.09 1096.57 415.62 1111.12 518.91 969.72 624.13 1064.60 630.63
00000549 00000115 701.09 221.78 414.67 534.64 952.81 406.17 1093.05 410.20 1104.92 516.36 963.68 621.95 1062.23 627.68
00000550 00000116 699.32 224.58 413.07 532.30 952.33 405.21 1086.40 410.92 1099.24 519.49 961.23 622.50 1053.35 629.64
00000551 00000117 690.21 221.62 419.10 535.04 947.30 405.47 1081.40 408.96 1096.14 521.70 952.60 621.43 1047.26 627.34
00000552 00000118 675.73 210.59 429.83 542.73 945.00 403.48 1073.20 404.45 1089.50 521.23 948.52 619.03 1036.02 622.54
00000553 00000119 663.42 209.14 436.90 541.95 937.54 396.72 1065.75 398.92 1081.78 514.78 940.59 610.79 1027.53 615.12
00000554 00000120 647.00 188.28 439.86 552.44 929.37 395.59 1042.63 395.36 1068.77 503.95 932.30 592.27 1009.47 595.45
00000555 00000121 638.10 186.16 443.86 551.56 924.08 390.35 1035.99 394.37 1066.81 496.80 925.96 586.95 1002.62 593.05
00000556 00000122 626.95 179.05 447.34 555.57 917.35 387.55 1021.34 392.40 1055.15 493.94 914.41 584.21 985.18 590.95
00000557 00000123 625.43 183.23 439.26 545.04 909.91 380.85 1017.26 388.60 1049.25 492.10 905.80 580.47 982.37 589.44
00000558 00000124 611.68 176.68 446.50 549.71 904.93 377.01 1014.15 384.84 1042.32 491.46 902.21 581.41 978.15 589.82
00000559 00000125 634.06 187.05 414.12 527.36 891.21 370.15 1029.57 376.02 1038.88 488.34 892.44 582.48 984.81 590.44
00000560 00000126 625.05 180.98 422.14 528.41 885.34 365.98 1030.49 370.73 1038.32 483.75 889.90 579.41 986.11 586.28
00000561 00000127 630.29 180.81 421.42 521.25 886.85 362.47 1028.24 367.58 1038.29 480.91 887.99 573.97 982.87 581.67
00000562 00000128 629.03 173.99 426.09 531.97 894.24 358.25 1025.47 362.92 1039.41 479.59 895.14 575.81 980.04 582.63
00000563 00000129 619.75 171.60 445.16 545.62 909.89 356.50 1022.97 370.25 1046.88 480.11 907.90 572.51 982.68 584.75
00000564 00000130 630.89 173.46 443.11 548.00 915.67 367.97 1034.05 377.09 1051.92 481.70 914.44 575.31 993.80 584.44
00000565 00000131 636.21 171.81 443.15 554.44 920.30 375.23 1039.20 378.56 1060.70 484.53 917.06 578.72 996.33 583.57
00000566 00000132 644.74 169.96 436.62 559.16 923.38 384.18 1037.94 381.26 1063.63 493.68 917.77 585.32 995.99 585.89
00000567 00000133 647.35 181.42 435.89 547.37 923.76 388.13 1040.67 383.24 1067.72 495.78 922.96 584.04 1002.32 583.26
00000568 00000134 661.70 176.30 423.91 553.79 927.20 389.26 1045.35 382.03 1069.04 494.77 926.97 587.21 1008.38 584.90
00000569 00000135 663.20 187.24 424.72 540.26 930.72 387.27 1049.52 378.82 1074.95 491.16 933.13 583.07 1015.97 579.59
00000570 00000136 678.43 186.36 414.27 537.50 936.68 384.86 1058.25 377.32 1077.11 493.83 934.30 585.50 1020.65 583.22
00000571 00000137 684.11 183.20 416.55 540.72 942.27 381.44 1072.48 378.30 1083.36 493.62 938.04 585.86 1030.59 587.01
00000572 00000138 693.62 180.07 414.61 542.23 951.46 378.53 1082.27 375.26 1094.68 494.00 947.60 585.94 1038.79 587.14
00000573 00000139 701.02 180.62 413.46 543.90 959.00 381.00 1088.81 371.15 1107.15 494.95 962.42 589.82 1052.98 585.48
00000574 00000140 710.64 178.17 414.58 548.70 965.49 378.09 1097.34 371.16 1113.23 493.82 968.31 590.05 1059.68 587.39
00000575 00000141 702.86 172.47 434.32 557.81 979.80 381.95 1090.17 379.13 1123.27 491.87 978.90 584.40 1057.29 585.01
00000576 00000142 706.46 169.07 440.29 560.68 987.66 383.90 1102.86 377.86 1134.70 489.84 988.45 585.16 1069.04 583.01
00000577 00000143 725.84 171.75 429.92 560.21 996.33 383.68 1115.20 377.10 1140.09 488.90 997.21 585.77 1078.32 583.12
00000578 00000144 741.40 182.09 419.92 542.60 1008.40 379.76 1123.69 373.68 1146.59 488.47 1006.19 582.30 1085.49 580.75
00000579 00000145 740.99 180.96 428.94 540.01 1011.90 375.74 1131.76 370.93 1152.58 484.87 1008.18 579.64 1091.39 579.28
00000580 00000146 753.18 162.82 422.65 545.89 1019.18 367.67 1148.51 359.38 1165.18 477.12 1018.15 578.41 1104.58 575.29
00000581 00000147 757.40 170.21 424.87 528.55 1024.59 363.12 1151.67 353.31 1175.57 474.21 1028.95 574.95 1111.84 570.71
00000582 00000148 763.51 168.90 425.67 527.49 1028.21 359.43 1162.40 351.17 1182.29 471.12 1036.70 573.99 1122.43 570.30
00000583 00000149 766.43 169.86 427.85 525.95 1036.78 358.53 1162.39 350.12 1189.05 471.25 1042.83 572.60 1122.56 569.03
00000584 00000150 765.93 165.54 432.46 533.73 1042.96 355.64 1167.62 349.39 1195.57 469.49 1047.83 573.11 1126.98 571.08
00000585 00000151 770.47 162.83 430.22 542.80 1054.02 360.48 1163.74 353.65 1198.56 472.38 1052.72 572.06 1122.42 569.95
00000586 00000152 770.50 172.22 446.50 547.18 1069.13 361.00 1156.35 354.59 1201.93 475.78 1066.56 571.81 1120.03 569.64
00000587 00000153 774.63 161.70 447.81 556.83 1078.11 361.66 1159.60 349.78 1207.49 473.29 1071.70 571.61 1121.01 565.39
00000588 00000154 784.20 154.56 441.40 555.76 1086.38 363.15 1167.90 348.78 1213.98 468.05 1078.87 567.86 1128.64 559.58
00000589 00000155 784.37 157.93 442.12 544.23 1087.96 363.56 1172.09 349.07 1217.44 467.24 1082.89 563.54 1136.31 555.36
00000590 00000156 791.75 164.28 435.90 537.84 1087.75 362.94 1177.20 350.99 1217.90 468.84 1083.11 563.18 1140.12 556.84
00000591 00000157 789.43 160.77 438.41 539.61 1087.30 358.91 1176.07 346.77 1218.00 467.20 1081.33 561.46 1138.17 555.12
00000592 00000158 791.89 161.52 436.64 532.91 1087.72 356.81 1178.73 344.02 1219.98 464.27 1085.26 556.12 1144.60 549.32
00000593 00000159 798.90 169.25 430.63 521.56 1088.99 355.96 1180.27 343.04 1220.95 464.95 1087.82 553.77 1147.63 547.11
00000594 00000160 797.28 165.87 433.84 532.42 1090.72 355.88 1176.75 340.60 1221.33 465.39 1087.02 561.35 1142.05 552.60
00000595 00000161 798.45 168.25 434.42 532.94 1091.29 355.25 1178.35 341.10 1221.99 467.01 1086.12 563.06 1141.57 555.40
00000596 00000162 801.96 167.62 432.55 531.39 1093.32 353.97 1186.20 341.74 1225.97 465.83 1089.62 562.49 1147.39 555.99
00000597 00000163 436.41 29.30 280.68 387.95
00000598 00000164 437.70 28.39 280.68 388.44
00000599 00000165 438.99 27.49 280.68 388.93
00000600 00000166 439.46 27.46 281.02 389.19
00000601 00000167 439.92 27.43 281.36 389.45
00000602 00000168 440.39 27.40 281.70 389.71
00000603 00000169 440.86 27.38 282.04 389.98
00000604 00000170 800.69 165.78 434.78 527.38 1094.49 353.06 1194.07 347.05 1226.61 463.39 1102.40 559.55 1162.87 556.22
