Video ID: 	4ZNA4sIeTy4
H: 	2160
W: 	3840
FPS: 	24.0

FRAME INDEX X0 Y0 W H [Landmarks (5 Points)]

00009211 00000000 1541.70 240.38 658.20 901.13 1764.20 645.34 2038.70 606.01 1941.54 779.04 1829.97 940.21 2041.76 910.75
00009212 DELETE   1535.22 234.44 660.19 908.91 1756.50 643.83 2029.32 607.28 1930.81 779.29 1819.32 938.71 2031.12 911.88
00009213 DELETE   1533.66 236.19 654.01 906.11 1742.62 642.55 2017.35 611.70 1908.89 781.66 1798.40 936.92 2014.38 915.05
00009214 DELETE   1531.18 238.74 652.00 917.76 1732.07 640.40 2007.21 610.97 1890.79 784.34 1783.99 937.90 2005.32 916.98
00009215 00000004 1530.40 235.23 651.52 924.44 1729.10 636.98 2004.97 607.77 1886.26 782.35 1779.59 935.62 2002.84 914.77
00009216 00000005 1529.92 246.30 653.66 910.58 1732.99 629.07 2016.34 603.15 1896.25 783.80 1794.17 937.27 2002.99 916.25
00009217 00000006 1539.54 244.68 640.48 896.19 1740.13 630.03 2019.40 604.66 1899.51 779.58 1793.85 932.13 2013.99 909.55
00009218 00000007 1539.85 246.84 641.08 886.30 1740.56 631.15 2021.84 606.23 1902.33 780.97 1795.80 930.98 2016.00 908.79
00009219 00000008 1541.16 248.97 640.02 883.51 1739.01 631.23 2020.05 607.53 1898.54 781.34 1792.80 931.19 2012.56 910.09
00009220 00000009 1540.19 250.67 641.12 884.17 1735.11 629.86 2016.53 607.55 1890.24 782.23 1788.20 932.63 2005.96 912.45
00009221 00000010 1539.30 239.23 649.06 897.85 1734.33 633.83 2007.67 608.51 1888.02 781.33 1784.12 927.37 2000.75 909.32
00009222 00000011 1543.20 246.84 642.26 888.53 1736.60 624.71 2017.88 605.76 1888.75 778.13 1787.91 928.65 2003.27 911.52
00009223 00000012 1544.96 242.52 641.94 879.27 1741.39 626.32 2023.55 605.48 1900.41 776.36 1795.23 924.19 2013.38 906.14
00009224 00000013 1546.99 238.28 643.62 881.19 1747.40 626.14 2027.33 601.05 1908.23 772.30 1805.21 922.50 2020.68 901.52
00009225 00000014 1543.96 224.55 650.35 897.84 1750.36 628.43 2024.97 608.25 1908.26 774.30 1805.39 922.77 2014.66 907.78
00009226 00000015 1544.28 230.22 646.15 880.28 1744.29 622.63 2023.60 603.82 1905.88 774.06 1792.40 917.69 2011.99 902.87
00009227 00000016 1542.75 227.98 648.49 892.31 1741.55 627.66 2020.32 611.83 1896.74 777.60 1788.94 919.84 2007.10 908.39
00009228 00000017 1542.71 229.46 651.07 900.93 1743.59 629.82 2020.43 613.49 1897.21 777.10 1794.17 926.73 2004.83 915.17
00009229 00000018 1544.45 230.58 648.92 902.95 1745.16 632.55 2022.00 617.97 1898.79 780.55 1795.98 931.87 2003.52 921.80
00009230 00000019 1546.22 234.13 646.37 905.94 1747.49 630.09 2027.43 617.03 1900.45 785.14 1797.08 935.48 2007.99 923.24
00009231 00000020 1542.41 240.62 649.90 897.26 1741.05 627.94 2020.38 611.64 1896.41 781.84 1787.26 930.98 2003.44 919.28
00009232 00000021 1542.65 237.40 647.06 895.00 1734.47 629.49 2007.22 609.91 1884.53 779.22 1780.50 926.03 1992.26 913.15
00009233 00000022 1539.78 234.36 646.24 898.60 1731.29 625.64 2004.76 607.99 1880.89 775.74 1776.58 925.09 1987.85 913.87
00009234 00000023 1541.94 234.24 644.62 890.46 1734.09 624.72 2007.79 607.74 1885.44 775.11 1778.26 921.88 1992.15 910.98
00009235 00000024 1543.11 242.46 641.96 884.83 1736.72 622.32 2019.37 609.43 1887.31 777.51 1782.51 926.30 1996.66 914.75
00009236 00000025 1544.87 244.96 640.69 883.30 1737.32 624.19 2020.03 611.04 1887.46 778.63 1783.22 927.21 1997.78 915.42
00009237 00000026 1544.02 239.42 643.77 888.64 1735.78 628.48 2007.98 611.16 1885.73 776.85 1780.29 924.58 1990.01 913.66
00009238 00000027 1545.22 237.62 640.77 895.36 1731.71 628.62 2005.06 611.28 1879.98 777.58 1776.47 929.09 1985.30 918.51
00009239 00000028 1542.56 234.87 643.25 896.36 1732.42 624.31 2012.13 614.89 1882.67 780.19 1775.76 928.23 1988.03 922.44
00009240 00000029 1545.27 231.73 643.70 893.01 1735.95 628.60 2016.92 619.89 1884.04 783.90 1778.44 925.52 1994.60 919.92
00009241 00000030 1547.71 236.38 641.99 873.98 1743.19 623.17 2023.66 612.49 1900.32 781.95 1781.36 919.28 2005.81 911.05
00009242 00000031 1548.59 233.10 640.64 875.77 1743.54 621.94 2023.39 612.17 1900.04 781.65 1780.83 919.38 2005.86 911.77
00009243 00000032 1547.62 227.61 642.43 893.32 1738.51 626.30 2019.25 618.19 1887.25 782.18 1779.85 923.28 1997.24 918.19
00009244 00000033 1547.73 228.44 643.43 897.26 1742.30 626.62 2021.11 618.81 1890.33 780.79 1782.78 922.73 1998.01 917.98
00009245 00000034 1547.55 226.43 646.25 902.40 1749.40 625.80 2026.00 615.18 1900.15 774.55 1791.55 920.98 2005.86 914.25
00009246 00000035 1546.19 224.15 650.24 908.60 1753.67 624.64 2026.21 612.59 1904.71 770.90 1799.79 921.46 2009.01 913.37
00009247 00000036 1546.91 225.07 649.78 915.26 1752.56 620.91 2024.77 609.77 1900.34 768.84 1797.02 921.76 2005.81 914.41
00009248 00000037 1546.00 222.26 649.99 916.55 1749.76 618.37 2025.48 609.93 1897.59 770.10 1789.74 920.03 2004.48 914.77
00009249 00000038 1546.80 221.36 647.50 901.33 1747.53 620.31 2026.50 612.58 1898.29 773.06 1789.68 919.07 2002.74 914.40
00009250 00000039 1546.39 222.94 647.28 891.19 1746.66 623.81 2027.33 615.44 1900.12 775.10 1789.43 917.53 2004.76 912.23
00009251 00000040 1548.44 224.81 643.75 893.48 1749.09 625.00 2027.94 617.21 1901.93 778.38 1787.93 917.98 2006.15 913.20
00009252 00000041 1548.23 226.91 644.79 897.31 1750.21 626.91 2026.76 617.72 1901.66 776.95 1790.32 919.18 2005.43 913.61
00009253 00000042 1549.04 226.75 646.76 913.01 1752.25 627.94 2024.64 617.62 1899.59 774.88 1795.29 926.80 2003.27 920.76
00009254 00000043 1548.57 224.28 648.49 924.31 1752.82 624.13 2026.08 614.11 1900.25 773.33 1793.33 927.34 2006.66 921.26
00009255 00000044 1549.15 224.25 647.84 928.81 1755.91 621.49 2027.06 612.45 1901.77 769.10 1793.30 924.39 2008.00 919.10
00009256 00000045 1549.93 223.13 647.07 914.63 1756.15 621.98 2028.24 613.06 1902.87 770.06 1797.23 921.28 2007.12 916.20
00009257 00000046 1548.92 221.33 646.75 909.48 1756.38 622.27 2032.17 614.30 1908.55 769.64 1798.00 921.49 2009.44 916.97
00009258 00000047 1547.43 219.64 648.69 909.97 1751.63 624.13 2031.90 616.02 1905.56 771.20 1793.82 923.79 2008.86 919.21
00009259 00000048 1550.44 223.16 643.09 897.84 1747.68 620.09 2026.69 613.55 1900.22 776.02 1784.37 922.88 2001.39 918.47
00009260 DELETE   1541.87 227.54 649.96 891.76 1735.45 627.86 2016.39 621.76 1885.79 778.33 1769.55 919.81 1995.70 916.56
00009261 DELETE   1542.96 233.59 638.52 888.72 1725.96 627.06 2001.14 621.10 1869.15 776.63 1756.59 917.44 1977.13 916.83
00009262 DELETE   1541.23 227.48 638.65 893.53 1713.99 614.91 1996.57 616.61 1849.95 774.05 1743.90 916.28 1957.10 921.19
00009263 00000052 1540.36 231.91 641.19 882.79 1709.11 606.63 1992.82 621.75 1834.58 775.87 1728.59 910.92 1949.70 924.44
00009264 DELETE   1546.16 225.91 637.79 875.83 1720.13 599.33 1998.43 615.93 1846.45 771.77 1736.95 902.92 1961.38 916.88
00009265 DELETE   1549.56 223.13 640.56 876.15 1731.22 592.30 2013.30 610.89 1865.02 769.84 1742.27 898.31 1976.46 913.40
00009266 00000055 1557.62 222.05 640.40 881.29 1747.22 591.63 2027.07 606.10 1883.39 763.88 1763.45 899.96 1989.31 911.83
00009267 00000056 1558.20 217.59 645.83 893.88 1752.54 593.28 2035.26 604.16 1890.25 763.43 1778.48 904.66 1996.55 914.92
00009268 00000057 1561.17 217.85 646.06 903.23 1753.99 591.20 2034.53 600.62 1889.11 757.61 1781.58 905.35 1997.31 914.48
00009269 00000058 1563.96 219.14 643.54 902.14 1753.61 583.83 2034.26 593.91 1885.07 757.51 1779.47 904.37 1995.23 914.08
00009270 00000059 1564.14 218.58 643.63 900.00 1752.61 581.59 2033.37 592.01 1882.70 754.83 1779.03 903.01 1993.38 913.07
00009271 00000060 1563.93 214.74 642.20 898.20 1753.42 575.71 2031.54 587.12 1886.90 744.96 1776.14 898.31 1991.30 907.36
00009272 00000061 1563.71 211.36 639.81 892.77 1753.09 572.98 2030.34 584.71 1886.45 742.70 1774.82 893.81 1991.55 903.07
00009273 00000062 1562.04 210.48 639.85 893.30 1751.59 571.31 2028.87 582.34 1884.76 738.64 1773.78 890.75 1991.65 899.58
00009274 00000063 1560.25 212.40 641.11 895.78 1750.93 569.16 2029.22 580.99 1884.48 734.92 1771.93 889.40 1990.65 899.02
00009275 00000064 1559.93 214.16 640.73 902.09 1749.12 567.37 2028.92 578.81 1882.77 733.30 1771.70 890.52 1988.23 899.77
00009276 00000065 1560.54 211.59 644.03 915.00 1748.29 570.60 2028.14 580.32 1878.38 738.87 1774.08 897.61 1989.87 906.68
00009277 00000066 1559.75 213.42 644.58 914.61 1748.28 570.19 2027.99 578.89 1879.04 736.59 1773.51 896.00 1991.82 904.21
00009278 00000067 1557.28 213.15 642.94 906.18 1746.59 566.53 2027.06 576.32 1880.87 728.08 1771.53 893.13 1984.68 901.19
00009279 00000068 1554.27 210.63 645.15 887.01 1746.86 566.94 2025.46 576.55 1882.20 730.14 1774.26 885.45 1982.51 893.45
00009280 00000069 1555.40 208.54 643.45 876.54 1745.85 565.98 2025.07 576.13 1880.86 731.15 1771.41 879.36 1985.47 887.89
00009281 00000070 1556.70 207.02 642.83 874.20 1747.07 564.55 2026.23 575.30 1882.25 729.55 1772.35 877.10 1986.28 886.17
00009282 00000071 1558.16 208.01 641.95 871.65 1747.79 565.49 2026.59 575.76 1882.77 730.36 1773.30 877.17 1987.94 885.90
00009283 00000072 1558.12 210.14 643.40 875.77 1749.21 565.99 2027.76 576.06 1883.78 729.93 1774.72 878.04 1988.11 886.50
00009284 00000073 1560.00 208.63 641.47 876.41 1750.42 566.26 2028.75 577.26 1885.27 732.62 1773.90 879.11 1988.95 888.34
00009285 00000074 1560.68 209.68 640.94 875.32 1751.20 566.09 2028.58 577.25 1885.48 731.34 1773.88 877.74 1989.84 887.05
00009286 00000075 1561.54 211.00 641.05 873.76 1751.99 565.35 2029.36 576.61 1885.77 730.10 1774.50 876.15 1990.48 885.54
00009287 00000076 1562.50 210.58 640.37 875.86 1753.01 566.15 2029.99 576.73 1886.93 731.62 1774.44 876.37 1994.15 885.00
00009288 00000077 1564.27 211.85 638.97 874.85 1754.27 566.48 2031.79 577.49 1888.48 732.03 1775.21 876.64 1995.36 885.53
00009289 00000078 1568.18 211.30 638.47 879.79 1760.43 570.75 2039.86 581.32 1897.38 735.40 1782.66 880.74 2002.03 888.96
00009290 00000079 1572.76 211.18 645.18 893.18 1771.54 582.89 2049.28 587.83 1910.26 744.27 1802.29 892.47 2011.94 899.08
00009291 00000080 1578.58 214.81 641.62 888.76 1778.09 587.97 2057.21 592.91 1920.05 750.88 1807.88 898.01 2018.62 904.65
00009292 00000081 1583.88 213.52 637.22 891.74 1786.89 590.52 2063.61 594.59 1931.95 754.35 1808.95 893.02 2031.18 899.13
00009293 00000082 1587.85 213.96 636.51 890.78 1792.89 590.29 2068.97 594.28 1939.51 755.71 1813.63 891.80 2036.73 897.74
00009294 00000083 1591.11 213.20 634.18 890.44 1795.31 589.83 2072.29 593.92 1942.76 756.86 1816.32 892.50 2038.88 898.51
00009295 00000084 1590.51 214.34 637.03 896.63 1798.58 588.37 2072.56 592.75 1944.25 754.73 1817.39 891.27 2038.60 897.52
00009296 00000085 1589.39 213.84 639.87 910.55 1799.66 589.04 2073.32 593.77 1944.06 754.03 1821.82 900.31 2037.30 906.38
00009297 00000086 1586.50 216.21 644.60 917.12 1797.69 596.98 2071.25 602.14 1941.56 758.70 1826.03 912.42 2030.44 919.24
00009298 00000087 1585.31 221.48 646.21 921.04 1798.52 603.18 2071.35 608.58 1941.35 763.84 1824.03 916.46 2029.95 923.84
00009299 00000088 1587.45 224.04 643.92 920.84 1797.80 605.64 2071.51 612.23 1939.98 767.61 1819.24 917.19 2029.39 925.67
00009300 00000089 1587.96 226.53 642.73 919.08 1795.44 605.89 2068.77 612.83 1935.07 767.65 1811.80 913.19 2029.36 922.32
00009301 00000090 1588.51 225.81 641.72 917.94 1793.52 600.82 2065.76 608.28 1929.94 764.07 1809.71 908.67 2026.99 917.97
00009302 00000091 1587.96 218.13 640.69 908.78 1788.42 596.78 2066.17 605.68 1928.51 759.98 1806.36 903.51 2026.96 913.83
00009303 00000092 1584.21 213.19 640.64 892.60 1783.04 586.76 2058.31 593.69 1921.99 752.93 1810.99 897.07 2019.20 905.49
00009304 00000093 1581.44 210.71 639.66 892.92 1780.98 580.89 2054.04 587.99 1918.21 746.95 1804.49 888.54 2017.81 896.94
00009305 00000094 1578.44 209.42 641.06 896.79 1775.08 576.56 2048.79 585.10 1909.85 744.27 1801.87 892.12 2008.74 901.42
00009306 00000095 1572.85 209.46 643.57 892.04 1770.04 574.48 2046.79 583.71 1906.03 742.75 1795.53 887.96 2007.69 897.61
00009307 00000096 1574.09 208.90 638.70 890.49 1766.86 565.78 2042.61 578.41 1900.29 729.42 1790.34 881.74 1997.06 891.43
00009308 00000097 1573.41 208.65 637.33 884.94 1765.14 564.14 2039.80 577.06 1897.88 728.34 1788.10 878.76 1995.50 888.73
00009309 00000098 1572.29 209.68 637.66 876.13 1764.25 561.75 2038.82 575.16 1896.20 727.33 1786.24 874.13 1996.64 884.58
00009310 00000099 1572.92 204.71 637.04 874.08 1763.03 558.97 2037.40 571.47 1894.51 721.32 1785.13 869.04 1996.91 879.05
00009311 00000100 1571.48 198.27 639.85 878.55 1762.29 554.78 2037.22 567.32 1892.88 717.98 1782.68 865.14 1997.55 875.22
00009312 00000101 1573.14 195.89 637.73 879.83 1763.31 553.01 2038.24 564.81 1894.16 713.94 1784.32 862.36 1997.89 871.98
00009313 00000102 1572.97 195.24 638.82 883.21 1763.25 552.68 2038.10 564.59 1893.50 713.95 1786.30 864.36 1995.15 874.14
00009314 00000103 1571.85 197.38 639.45 889.78 1763.05 553.77 2038.27 565.88 1893.77 716.15 1784.73 868.67 1996.90 878.39
00009315 00000104 1571.68 198.03 640.96 899.83 1763.20 553.38 2038.27 565.03 1893.15 713.09 1786.96 872.42 1993.37 881.87
00009316 00000105 1572.92 187.96 640.97 925.64 1763.19 555.33 2039.89 566.51 1889.96 718.02 1784.94 872.99 1994.19 885.74
00009317 00000106 1574.08 190.02 640.06 923.20 1764.09 555.00 2041.02 565.66 1891.15 718.05 1783.24 870.91 1998.23 883.52
00009318 00000107 1575.15 197.38 638.81 897.43 1765.12 552.28 2040.99 563.69 1895.56 711.97 1786.63 870.88 1998.87 880.12
00009319 00000108 1574.14 195.94 639.14 889.54 1764.45 553.06 2039.67 564.20 1895.33 713.89 1789.09 868.81 1995.74 877.89
00009320 00000109 1574.34 197.67 637.91 884.10 1763.34 553.55 2038.84 565.43 1894.15 716.25 1786.96 867.39 1995.52 876.99
00009321 00000110 1574.80 197.61 637.31 882.02 1763.88 553.81 2039.01 566.11 1894.36 717.24 1786.53 867.30 1996.83 877.19
00009322 00000111 1574.93 200.93 637.36 878.28 1764.49 553.94 2040.21 566.85 1895.52 717.97 1786.10 866.89 1997.97 877.28
00009323 00000112 1575.65 200.74 637.06 878.78 1766.38 554.06 2041.53 567.56 1896.59 719.43 1786.72 866.78 1998.71 877.55
00009324 00000113 1575.04 204.37 637.64 881.35 1765.98 557.37 2041.87 570.60 1897.61 722.41 1785.10 868.33 2000.54 878.66
00009325 00000114 1576.44 210.33 636.48 884.73 1767.81 561.34 2043.79 574.92 1900.25 726.13 1787.48 872.74 2002.09 883.10
00009326 00000115 1578.19 208.62 641.26 905.19 1771.90 567.59 2046.98 580.39 1902.46 736.00 1794.22 888.47 2002.86 900.84
00009327 00000116 1578.92 210.02 643.56 923.37 1771.47 570.28 2048.59 583.47 1899.67 740.71 1791.26 897.39 2005.11 910.15
00009328 00000117 1580.42 210.21 642.65 924.70 1772.19 570.02 2049.70 583.34 1900.47 740.05 1790.65 897.68 2006.22 910.57
00009329 00000118 1582.27 211.19 638.85 908.59 1773.66 568.47 2049.85 580.55 1903.33 737.61 1792.35 889.44 2008.83 901.48
00009330 00000119 1582.27 209.11 638.79 899.03 1774.40 563.99 2049.68 576.36 1903.81 733.87 1791.57 879.60 2008.74 891.63
00009331 00000120 1582.37 210.61 634.69 885.53 1770.41 559.17 2045.82 572.43 1900.52 723.94 1790.55 873.74 2001.61 883.89
00009332 00000121 1581.23 208.30 635.23 886.42 1769.61 556.96 2045.43 569.94 1899.88 721.01 1788.81 870.81 2002.00 880.79
00009333 00000122 1580.81 205.93 635.29 886.70 1770.60 556.16 2045.68 568.75 1900.92 719.87 1790.45 869.61 2002.54 879.27
00009334 00000123 1580.47 205.24 635.91 886.27 1771.35 556.38 2046.54 568.87 1902.22 720.05 1792.13 869.10 2003.45 878.66
00009335 00000124 1582.07 206.14 635.67 885.19 1773.87 556.18 2048.80 568.26 1904.53 718.63 1795.91 868.52 2005.25 877.79
00009336 00000125 1582.62 195.19 636.46 899.08 1775.92 562.61 2050.67 573.48 1902.98 729.12 1796.91 866.76 2006.72 879.28
00009337 00000126 1587.37 208.62 634.89 894.94 1784.58 572.97 2054.67 581.84 1915.65 728.61 1803.08 875.74 2014.92 885.50
00009338 00000127 1592.48 218.35 637.07 897.75 1800.42 594.63 2065.60 598.84 1936.33 733.95 1818.26 883.56 2033.47 890.18
00009339 DELETE   1598.12 217.34 635.82 898.56 1809.44 598.35 2078.63 605.50 1950.50 749.25 1823.88 891.54 2041.70 900.73
00009340 DELETE   1598.65 224.59 639.83 898.05 1814.45 599.55 2091.34 609.30 1963.05 752.84 1829.57 896.35 2050.24 907.63
00009341 DELETE   1602.95 226.05 638.59 900.38 1823.95 602.54 2095.83 610.66 1975.47 757.39 1841.44 900.13 2058.31 909.47
00009342 00000131 1606.90 230.68 636.95 899.28 1829.40 602.69 2099.74 610.08 1982.12 756.61 1847.00 900.80 2062.77 909.48
00009343 00000132 1608.18 228.29 638.02 900.04 1833.39 598.43 2103.42 605.72 1988.26 752.89 1850.99 897.66 2067.77 905.83
00009344 00000133 1609.24 222.76 637.36 905.38 1834.71 591.51 2103.45 598.92 1988.55 749.60 1851.35 893.21 2068.39 901.06
00009345 00000134 1610.03 221.09 636.17 905.62 1835.01 589.13 2103.66 597.73 1988.49 748.65 1852.75 895.52 2064.25 904.42
00009346 00000135 1611.11 226.10 636.57 902.02 1836.94 595.05 2104.71 602.09 1990.75 750.09 1856.66 898.87 2065.39 906.83
00009347 00000136 1611.94 229.45 636.70 904.59 1837.34 599.51 2106.84 605.32 1992.55 754.21 1856.85 903.93 2069.86 910.93
00009348 00000137 1613.03 236.03 636.25 903.86 1839.31 609.30 2107.57 615.18 1993.44 761.76 1857.71 909.37 2070.18 916.51
00009349 00000138 1618.50 253.83 629.36 889.75 1835.43 617.97 2109.70 621.54 1988.81 776.60 1861.27 917.80 2074.00 919.37
00009350 00000139 1617.80 261.89 631.62 880.10 1835.33 620.34 2109.52 625.97 1987.84 782.86 1860.90 923.68 2068.89 926.39
00009351 00000140 1615.92 254.71 632.15 884.07 1833.22 617.03 2105.54 621.01 1984.47 777.12 1860.47 920.18 2065.78 921.87
00009352 00000141 1613.30 237.49 637.51 901.22 1832.59 608.93 2099.76 613.07 1983.03 767.58 1854.22 911.87 2061.97 917.28
00009353 00000142 1610.98 230.99 640.17 903.00 1829.40 601.01 2099.62 604.53 1981.52 759.54 1853.77 909.28 2060.84 914.33
00009354 00000143 1609.51 224.55 640.40 904.70 1828.23 597.15 2096.95 600.10 1980.25 757.19 1852.39 904.70 2060.86 908.95
00009355 00000144 1609.10 227.75 639.51 898.59 1826.10 599.51 2097.96 602.71 1978.50 758.01 1849.37 903.95 2061.65 908.72
00009356 00000145 1609.47 229.44 637.23 894.03 1825.61 605.07 2098.67 608.09 1979.01 766.23 1847.23 905.68 2064.24 910.27
00009357 00000146 1610.84 233.55 636.93 890.96 1826.76 606.93 2099.23 611.49 1979.28 769.30 1844.91 904.30 2064.67 909.96
00009358 00000147 1610.08 231.92 640.24 903.23 1828.43 604.50 2098.48 608.88 1980.39 766.79 1844.49 903.01 2066.81 908.42
00009359 00000148 1610.44 229.49 642.30 910.87 1829.58 598.17 2097.51 602.92 1979.10 757.37 1849.17 905.76 2061.26 911.71
00009360 00000149 1609.26 227.87 641.66 917.27 1827.73 591.38 2097.08 596.62 1978.66 751.87 1847.97 909.76 2058.78 915.84
00009361 00000150 1607.88 224.66 642.66 915.41 1825.90 592.31 2096.71 597.47 1977.86 752.99 1847.05 908.62 2058.74 914.75
00009362 00000151 1608.38 225.83 641.11 902.58 1825.57 597.04 2097.78 602.57 1977.31 758.60 1844.47 904.16 2061.80 910.89
00009363 00000152 1608.38 226.90 639.15 898.73 1825.89 600.99 2096.45 606.31 1976.76 762.82 1844.62 904.48 2060.54 910.98
00009364 00000153 1607.59 226.72 640.67 902.10 1826.15 601.50 2096.75 607.21 1976.86 762.10 1844.42 905.03 2060.40 912.01
00009365 00000154 1609.64 225.14 638.70 897.84 1826.57 598.22 2097.16 603.33 1977.57 758.86 1847.95 903.20 2059.67 909.50
00009366 00000155 1610.11 222.01 638.02 894.76 1828.80 593.35 2097.48 598.57 1979.58 755.44 1850.77 899.51 2059.08 905.62
00009367 00000156 1609.73 220.22 639.04 895.51 1830.09 592.63 2098.42 596.64 1982.03 756.15 1850.01 894.80 2065.00 899.64
00009368 00000157 1609.81 220.52 638.52 894.27 1828.75 595.33 2099.30 599.43 1982.07 757.71 1850.83 898.48 2064.26 903.60
00009369 00000158 1609.94 222.52 637.28 894.50 1825.83 600.95 2098.98 603.83 1979.84 763.19 1850.93 905.85 2063.29 910.23
00009370 00000159 1608.06 225.64 640.34 902.74 1826.16 604.78 2099.16 608.44 1980.33 767.06 1848.16 908.86 2065.19 913.81
00009371 00000160 1605.46 227.39 642.52 910.43 1828.15 605.90 2094.98 611.56 1976.35 764.75 1849.54 911.70 2054.45 918.80
00009372 00000161 1606.72 226.80 640.93 912.90 1827.20 604.35 2095.23 610.44 1975.80 763.70 1849.45 914.63 2053.40 921.81
00009373 00000162 1606.06 226.91 643.24 911.06 1825.97 602.69 2095.82 608.12 1975.69 759.78 1847.04 910.50 2056.78 917.45
