Video ID: 	foxrCiYyycY
H: 	1080
W: 	1920
FPS: 	25.0

FRAME INDEX X0 Y0 W H [Landmarks (5 Points)]

00006906 00000000 1013.69 221.13 345.95 482.31 1083.63 413.28 1224.10 430.56 1119.70 528.65 1084.56 586.56 1195.26 600.56
00006907 DELETE   1014.00 221.37 345.32 481.46 1083.13 414.13 1223.71 430.24 1120.21 529.15 1085.47 586.92 1197.31 599.96
00006908 00000002 1016.22 218.84 341.39 481.96 1081.32 415.31 1220.88 430.40 1117.10 525.61 1084.37 588.03 1195.87 599.89
00006909 00000003 1014.41 221.69 342.20 483.17 1078.18 416.40 1216.69 430.56 1112.83 524.86 1081.06 588.48 1192.47 599.78
00006910 00000004 1012.36 225.51 341.70 479.16 1075.88 417.46 1213.27 430.60 1110.40 524.50 1080.27 589.55 1189.74 600.24
00006911 00000005 1010.07 227.96 342.52 474.44 1073.16 417.88 1212.84 430.72 1109.13 527.25 1078.58 591.66 1189.87 602.11
00006912 00000006 1009.68 227.96 342.49 470.89 1072.93 418.01 1213.64 431.34 1109.65 528.15 1078.02 588.69 1191.63 599.43
00006913 00000007 1009.68 227.52 342.61 472.55 1073.61 418.11 1214.10 431.71 1110.73 528.29 1078.14 588.38 1192.31 599.33
00006914 00000008 1010.54 226.07 343.26 475.93 1075.47 418.02 1215.90 430.97 1113.23 527.50 1080.55 589.34 1194.41 599.82
00006915 00000009 1011.78 226.50 342.52 476.20 1076.95 417.99 1217.05 430.48 1114.69 526.42 1081.86 588.81 1195.99 598.85
00006916 00000010 1012.51 226.74 341.81 475.90 1077.89 418.36 1217.64 430.76 1116.17 526.74 1083.04 588.41 1196.98 598.39
00006917 00000011 1013.12 228.29 341.75 474.59 1079.48 418.37 1218.44 431.48 1116.98 528.24 1083.49 587.29 1198.33 597.79
00006918 00000012 1014.38 226.49 342.26 477.06 1081.81 418.58 1220.44 431.92 1119.87 529.07 1085.16 586.48 1200.81 597.15
00006919 00000013 1012.63 226.81 345.44 478.53 1083.19 417.72 1223.18 431.64 1123.07 531.82 1086.23 585.05 1203.31 596.43
00006920 00000014 1014.54 225.24 346.17 478.97 1085.03 417.45 1224.43 431.41 1124.74 530.17 1087.75 582.92 1205.61 594.17
00006921 DELETE   1017.70 224.70 346.72 479.02 1089.08 418.95 1227.51 434.37 1128.01 529.55 1090.88 582.16 1207.64 594.65
00006922 DELETE   1019.75 224.99 347.34 479.94 1093.52 420.65 1232.59 436.13 1133.91 530.02 1094.82 582.26 1211.83 595.02
00006923 00000017 1021.91 226.08 346.34 480.58 1097.47 420.44 1238.78 436.57 1140.14 533.76 1098.57 584.09 1216.74 597.16
00006924 00000018 1025.96 226.54 345.81 484.01 1101.12 423.22 1244.61 439.76 1144.00 536.25 1102.53 591.26 1221.41 604.15
00006925 DELETE   1026.52 227.52 345.70 485.73 1102.23 425.19 1246.48 441.81 1146.00 539.10 1104.14 593.76 1223.10 606.57
00006926 00000020 1025.85 226.53 346.36 485.98 1101.75 424.69 1245.93 441.18 1145.83 538.63 1103.71 593.27 1222.42 606.02
00006927 00000021 1024.53 224.96 345.90 484.11 1100.79 422.34 1244.81 437.82 1145.32 535.89 1103.45 591.43 1221.73 603.52
00006928 00000022 1022.36 223.89 346.82 481.96 1099.79 419.42 1243.87 434.19 1144.85 533.53 1103.64 589.28 1221.54 601.03
00006929 00000023 1017.89 222.91 347.96 482.80 1096.30 416.92 1241.30 431.52 1142.93 533.44 1100.13 585.31 1218.01 597.00
00006930 00000024 1018.98 222.03 347.13 482.21 1095.73 418.43 1239.13 432.14 1140.81 531.10 1100.35 587.79 1217.36 598.74
00006931 00000025 1018.72 220.93 346.39 483.83 1093.83 418.30 1236.47 432.05 1137.86 530.77 1098.90 588.90 1214.47 599.77
00006932 00000026 1018.31 221.95 344.21 482.93 1092.06 419.30 1235.11 432.63 1136.42 531.30 1097.60 590.98 1212.88 601.48
00006933 00000027 1018.50 223.50 343.46 480.84 1091.07 419.64 1234.54 433.21 1135.17 531.39 1096.85 593.24 1210.08 603.85
00006934 00000028 1018.93 223.13 343.07 480.94 1090.55 420.10 1234.50 434.07 1135.00 533.35 1096.55 595.71 1208.17 606.59
00006935 00000029 1019.36 222.20 343.56 483.10 1091.08 420.72 1234.13 435.42 1134.59 534.47 1096.37 597.12 1205.77 608.61
00006936 00000030 1020.52 223.73 343.91 481.22 1092.27 420.66 1235.33 435.40 1135.35 535.11 1097.71 597.66 1206.31 609.09
00006937 00000031 1021.48 222.73 343.72 480.83 1093.91 420.21 1236.93 435.19 1136.82 535.03 1099.41 597.16 1207.73 608.71
00006938 00000032 1022.04 222.54 343.54 479.71 1094.99 419.40 1237.46 434.67 1137.53 534.33 1100.21 596.13 1207.97 607.86
00006939 00000033 1021.93 221.37 344.19 480.72 1095.34 418.85 1237.14 434.15 1137.52 533.35 1100.24 595.27 1207.99 607.03
00006940 00000034 1021.47 220.61 345.67 485.76 1095.04 417.50 1236.39 432.80 1135.85 531.34 1099.78 595.59 1207.15 607.38
00006941 00000035 1020.73 219.74 346.77 488.31 1094.44 416.95 1235.19 432.08 1134.24 529.78 1098.81 595.41 1206.04 607.15
00006942 00000036 1020.54 219.75 346.44 489.31 1094.51 416.80 1234.91 431.69 1134.35 529.57 1099.58 596.56 1205.64 608.14
00006943 00000037 1020.34 221.27 347.37 488.82 1094.54 417.16 1235.88 431.72 1135.31 529.95 1099.64 595.79 1208.84 607.04
00006944 00000038 1017.76 221.04 347.56 486.23 1093.77 415.99 1237.46 430.46 1137.99 532.47 1098.93 590.05 1211.33 601.63
00006945 00000039 1017.19 221.75 347.54 486.37 1093.00 416.59 1236.84 430.27 1137.67 532.30 1098.46 590.08 1212.04 601.07
00006946 00000040 1019.35 221.08 346.82 487.49 1093.66 418.76 1235.28 431.90 1136.62 530.52 1100.57 595.55 1211.20 605.82
00006947 00000041 1019.75 221.86 346.64 486.96 1093.68 418.34 1234.92 431.38 1136.14 530.11 1100.90 595.88 1210.66 606.03
00006948 00000042 1019.61 220.36 347.02 485.87 1093.62 416.93 1235.16 430.36 1136.17 529.83 1100.38 594.14 1210.32 604.61
00006949 00000043 1016.97 221.47 348.00 483.70 1091.57 415.15 1235.45 429.10 1135.31 531.59 1096.79 589.26 1209.15 600.42
00006950 00000044 1017.40 222.26 347.53 482.45 1091.88 415.18 1236.16 429.37 1135.70 531.95 1097.30 589.24 1209.39 600.52
00006951 00000045 1020.38 219.54 346.27 481.74 1094.86 418.17 1236.80 432.02 1138.45 531.13 1101.15 592.81 1210.91 603.64
00006952 00000046 1021.76 221.05 344.83 481.32 1095.81 419.92 1238.09 434.31 1139.58 533.58 1101.54 595.12 1210.83 606.25
00006953 00000047 1022.38 224.39 344.32 479.01 1096.12 420.42 1238.04 435.05 1139.03 534.69 1101.19 596.09 1209.83 607.37
00006954 00000048 1022.18 224.03 344.56 480.66 1096.01 420.78 1237.66 435.32 1138.72 534.74 1101.09 596.69 1209.46 607.94
00006955 00000049 1021.72 223.07 345.06 481.17 1095.04 420.56 1237.21 434.97 1138.15 534.47 1100.78 596.29 1209.72 607.45
00006956 00000050 1021.40 222.86 345.22 480.73 1094.62 420.07 1236.93 434.27 1137.87 533.71 1100.54 595.71 1209.84 606.69
00006957 00000051 1020.94 221.96 345.11 480.88 1094.21 419.46 1236.50 433.43 1137.48 532.96 1100.62 595.41 1210.22 606.23
00006958 00000052 1020.34 222.08 346.00 481.63 1093.78 419.13 1236.82 432.80 1137.45 532.16 1100.75 595.33 1211.14 605.96
00006959 00000053 1020.01 222.62 346.18 481.84 1093.57 419.20 1236.75 432.76 1137.24 532.33 1101.22 595.28 1211.40 605.85
00006960 00000054 1020.17 221.51 345.75 484.07 1093.62 420.04 1236.49 433.36 1137.34 533.21 1101.11 594.83 1212.74 605.14
00006961 00000055 1018.94 224.36 345.60 484.03 1092.98 422.23 1234.59 435.87 1137.19 535.31 1098.64 592.19 1211.69 603.37
00006962 00000056 1023.03 223.89 343.27 485.44 1095.89 425.46 1235.51 439.10 1138.29 534.77 1101.99 594.64 1214.10 605.39
00006963 00000057 1023.94 224.43 343.13 486.21 1097.07 425.66 1237.27 439.48 1139.35 535.86 1103.76 596.42 1214.46 607.30
00006964 00000058 1023.59 226.24 344.66 486.48 1096.74 424.18 1238.34 436.93 1139.44 535.77 1104.61 597.94 1215.87 607.86
00006965 00000059 1023.98 228.61 345.86 485.86 1097.14 423.87 1239.52 437.07 1139.35 536.85 1105.04 599.41 1216.40 609.59
00006966 00000060 1024.34 228.04 345.21 486.04 1097.52 424.40 1239.94 437.68 1140.14 537.68 1105.50 599.95 1216.79 610.18
00006967 00000061 1024.71 228.55 345.25 485.55 1097.68 424.43 1239.99 437.71 1140.13 537.83 1105.57 600.08 1216.76 610.28
00006968 00000062 1024.51 228.74 345.39 485.49 1097.64 424.11 1240.16 437.48 1140.11 537.46 1105.56 599.91 1216.67 610.21
00006969 00000063 1024.64 227.35 345.22 486.91 1097.71 423.67 1239.54 436.73 1139.90 537.39 1105.85 599.96 1216.49 610.01
00006970 00000064 1023.84 228.72 344.98 485.07 1096.84 423.27 1238.48 436.30 1138.83 536.63 1105.11 599.81 1215.18 609.86
00006971 00000065 1022.89 226.93 344.66 485.96 1095.36 423.21 1237.19 436.06 1137.84 536.79 1103.62 600.01 1214.42 609.90
00006972 00000066 1021.65 225.94 345.05 487.93 1094.31 423.07 1235.89 435.85 1136.67 536.14 1102.45 600.32 1212.69 610.24
00006973 00000067 1020.43 226.11 345.55 486.95 1092.48 422.77 1234.21 434.99 1135.08 535.56 1101.32 600.23 1211.35 609.81
00006974 00000068 1018.71 225.61 346.32 485.78 1091.00 421.62 1232.99 433.77 1134.03 534.28 1099.76 599.31 1210.06 608.87
00006975 00000069 1017.61 223.76 346.01 486.81 1089.40 421.03 1231.30 432.95 1132.66 532.87 1098.04 597.98 1209.00 607.42
00006976 00000070 1016.73 222.44 345.95 487.92 1088.45 420.38 1230.47 432.27 1131.73 532.18 1096.92 597.70 1207.86 607.15
00006977 00000071 1015.92 222.60 346.69 487.28 1088.14 420.15 1230.55 431.97 1131.97 532.06 1096.87 597.44 1207.86 606.89
00006978 00000072 1015.63 221.96 346.64 487.53 1087.78 420.10 1229.85 431.76 1131.69 532.26 1096.64 597.36 1207.55 606.70
00006979 00000073 1015.43 219.80 346.30 489.19 1087.28 420.11 1229.46 431.28 1131.77 531.83 1096.83 597.12 1207.82 606.16
00006980 00000074 1015.19 220.18 346.47 488.63 1087.31 419.56 1229.51 431.03 1131.59 531.61 1096.47 596.76 1207.57 606.00
00006981 00000075 1014.95 220.57 346.45 487.78 1087.20 419.61 1229.33 431.01 1131.62 531.65 1096.50 596.51 1207.49 605.71
00006982 00000076 1014.53 220.53 346.79 487.98 1086.96 419.44 1229.18 430.91 1131.43 531.66 1096.21 596.61 1207.20 605.86
00006983 00000077 1014.13 218.94 345.93 489.65 1086.63 419.65 1228.38 430.49 1131.51 531.76 1096.50 596.71 1207.56 605.49
00006984 00000078 1013.93 220.09 345.56 487.88 1086.38 419.44 1228.28 430.12 1131.22 531.15 1096.05 596.37 1207.29 605.02
00006985 00000079 1013.57 220.64 345.25 487.46 1085.95 419.30 1227.72 429.54 1130.98 530.81 1096.04 596.22 1207.55 604.52
00006986 00000080 1012.78 218.55 345.01 489.82 1085.52 419.74 1227.08 429.57 1131.23 530.95 1095.96 596.43 1207.59 604.47
00006987 00000081 1012.57 218.84 344.61 489.18 1085.32 419.74 1227.27 429.49 1131.40 530.91 1095.77 596.35 1207.67 604.30
00006988 00000082 1012.74 218.71 344.18 489.46 1085.39 419.88 1227.19 429.51 1131.48 531.00 1095.96 596.42 1208.04 604.26
00006989 00000083 1013.16 218.68 344.58 489.47 1085.85 420.05 1227.59 429.59 1131.97 531.07 1096.46 596.32 1208.64 604.10
00006990 00000084 1014.03 217.88 344.99 489.97 1086.78 419.48 1228.15 429.57 1132.29 530.47 1097.17 595.93 1208.60 604.13
00006991 00000085 1015.17 218.09 345.32 489.13 1088.56 418.71 1229.77 429.56 1134.07 529.80 1098.43 595.07 1210.03 603.83
00006992 00000086 1017.02 219.25 344.91 489.10 1090.17 418.10 1230.53 429.35 1134.37 529.65 1099.40 595.09 1210.37 604.05
00006993 00000087 1017.90 218.37 345.51 489.86 1091.02 417.56 1231.61 429.06 1134.92 529.48 1100.09 595.27 1210.67 604.38
00006994 00000088 1018.52 217.90 346.22 490.38 1091.76 417.71 1232.62 429.25 1135.80 529.63 1101.22 595.75 1211.12 604.82
00006995 00000089 1018.97 220.53 345.97 489.66 1092.45 418.36 1233.33 430.32 1135.96 530.97 1100.74 596.84 1211.04 606.20
00006996 00000090 1019.10 221.11 345.87 490.85 1092.45 418.58 1233.14 431.11 1135.46 531.92 1100.10 598.10 1209.89 607.86
00006997 00000091 1019.17 223.09 345.05 489.71 1092.61 418.59 1233.02 431.48 1135.44 532.73 1099.83 599.44 1207.79 609.51
00006998 00000092 1018.98 221.49 344.71 491.80 1092.34 418.86 1232.17 431.67 1135.04 532.81 1099.94 600.90 1205.58 610.99
00006999 00000093 1018.34 220.79 344.74 492.52 1091.93 418.50 1232.11 431.49 1134.98 532.92 1099.03 601.68 1204.39 611.94
00007000 00000094 1017.85 220.28 344.34 492.34 1091.75 418.17 1231.23 431.24 1134.75 532.09 1098.84 600.93 1202.97 611.34
00007001 00000095 1017.09 219.74 345.33 493.32 1090.78 417.90 1230.63 431.02 1133.70 531.32 1097.21 599.72 1202.72 610.22
00007002 00000096 1017.49 217.64 344.31 494.36 1090.57 417.97 1230.19 430.98 1133.70 531.30 1097.11 599.42 1202.56 609.83
00007003 00000097 1019.83 213.24 346.05 504.80 1081.96 413.90 1228.63 431.76 1130.88 537.69 1095.71 602.29 1202.22 616.80
00007004 00000098 1019.38 215.86 341.56 493.68 1090.55 424.47 1227.10 437.16 1132.52 531.21 1094.86 596.94 1202.64 607.61
00007005 00000099 1019.41 217.33 342.02 491.42 1090.67 423.34 1226.65 436.76 1131.39 531.50 1094.67 596.40 1201.96 607.47
00007006 00000100 1018.58 212.48 346.04 504.39 1082.70 415.08 1228.60 433.57 1131.63 535.91 1094.45 599.84 1203.96 614.79
00007007 00000101 1019.01 214.84 346.89 505.94 1084.08 414.39 1229.22 429.20 1132.79 534.90 1099.85 600.37 1204.52 612.40
00007008 00000102 1017.72 215.31 348.52 510.21 1084.38 414.04 1230.39 429.08 1133.72 533.83 1101.11 601.60 1204.07 613.81
00007009 00000103 1017.87 214.45 348.16 512.46 1084.47 414.25 1230.05 429.91 1133.49 534.29 1100.72 601.75 1203.78 614.45
00007010 00000104 1017.36 215.02 348.01 509.50 1083.11 414.94 1229.76 431.82 1131.30 536.41 1094.19 597.68 1206.89 611.27
00007011 00000105 1015.44 223.39 345.37 489.07 1090.18 419.10 1230.55 431.32 1133.63 531.47 1095.31 591.11 1211.41 601.04
00007012 00000106 1014.64 223.69 345.82 488.61 1089.19 419.28 1229.72 431.05 1132.78 530.71 1094.94 591.04 1210.70 600.61
00007013 00000107 1014.55 222.43 345.63 491.20 1088.75 419.70 1228.13 430.40 1131.53 529.46 1096.16 593.91 1208.90 602.59
00007014 00000108 1014.42 222.16 345.40 491.24 1088.22 419.66 1227.14 429.71 1130.87 528.72 1096.91 594.36 1208.14 602.55
00007015 00000109 1014.80 221.16 345.35 492.28 1088.49 419.79 1227.21 429.78 1131.04 528.81 1097.37 594.64 1208.53 602.77
00007016 00000110 1015.54 221.49 345.28 490.98 1088.14 419.96 1227.45 429.84 1130.78 528.68 1097.86 595.05 1208.61 603.05
00007017 00000111 1015.81 224.62 345.91 487.53 1088.33 419.95 1229.11 430.21 1131.38 529.48 1097.50 595.38 1209.38 603.59
00007018 00000112 1016.93 223.18 346.46 488.67 1089.51 420.79 1230.75 432.61 1132.29 531.61 1097.19 595.95 1209.52 605.30
00007019 00000113 1018.91 226.39 346.14 488.23 1091.23 422.49 1233.03 435.13 1133.64 534.73 1098.42 598.51 1210.87 608.41
00007020 00000114 1019.83 225.91 346.00 491.34 1092.48 424.40 1234.52 437.73 1135.18 537.96 1098.82 600.38 1212.38 610.68
00007021 00000115 1020.59 226.37 345.66 490.77 1093.33 425.33 1235.94 439.20 1136.25 539.77 1099.18 600.13 1213.95 610.70
00007022 00000116 1021.05 226.49 344.55 490.07 1093.54 425.91 1235.82 439.44 1136.72 540.19 1099.70 600.35 1214.34 610.66
00007023 00000117 1021.15 226.79 344.44 488.50 1093.44 425.67 1235.50 439.34 1136.40 539.23 1099.44 599.46 1213.69 609.92
00007024 00000118 1021.22 225.61 345.11 487.15 1092.83 425.12 1234.38 439.26 1134.96 537.28 1098.40 597.86 1211.63 608.86
00007025 00000119 1022.00 223.38 343.10 485.83 1092.90 425.04 1233.18 438.58 1134.49 535.02 1098.88 596.33 1210.85 607.02
00007026 00000120 1023.32 222.40 343.48 486.51 1095.27 424.04 1234.99 437.91 1136.64 534.15 1100.56 595.03 1212.66 605.84
00007027 00000121 1027.34 216.45 345.47 497.79 1091.50 415.67 1238.23 438.10 1139.58 539.81 1097.24 595.98 1220.28 613.95
00007028 00000122 1029.03 222.27 346.07 496.54 1093.56 418.42 1241.09 444.27 1140.64 542.82 1096.78 596.35 1222.24 617.06
00007029 00000123 1028.37 232.60 344.13 484.74 1100.76 437.85 1238.64 455.11 1139.20 545.74 1101.88 599.87 1215.93 613.46
00007030 00000124 1027.57 236.19 343.06 483.07 1098.15 443.42 1235.78 459.22 1137.69 548.73 1101.06 602.80 1214.34 615.43
00007031 00000125 1027.12 234.77 343.31 483.47 1097.74 444.15 1235.61 459.59 1138.08 548.82 1100.82 602.57 1215.00 615.02
00007032 00000126 1026.87 234.12 344.58 483.15 1098.48 440.68 1238.73 456.66 1140.15 547.29 1101.79 601.02 1217.47 613.73
00007033 00000127 1027.18 234.60 345.88 482.19 1100.51 434.88 1244.10 452.83 1143.14 545.83 1102.81 599.54 1220.10 613.37
00007034 00000128 1027.53 232.12 345.92 485.94 1102.69 433.98 1247.74 451.06 1147.55 546.07 1105.88 600.22 1224.94 613.33
00007035 00000129 1030.03 232.23 342.64 488.83 1108.35 435.32 1253.53 448.04 1156.44 547.19 1110.97 603.80 1233.89 614.71
00007036 DELETE   1032.44 234.64 342.10 483.02 1111.22 438.35 1259.77 447.61 1165.95 548.37 1118.13 606.68 1237.77 614.83
00007037 00000131 1037.39 239.77 338.57 480.04 1120.84 441.96 1265.15 449.23 1177.57 551.42 1126.55 607.99 1245.60 614.69
00007038 DELETE   1040.60 243.20 338.08 479.59 1126.62 445.95 1271.22 451.04 1186.64 554.22 1133.15 610.31 1253.76 615.12
00007039 DELETE   1042.00 245.91 337.86 480.33 1129.34 447.35 1274.97 451.73 1190.96 555.01 1136.47 611.07 1258.49 615.01
00007040 00000134 1042.46 246.36 337.92 480.11 1131.10 447.15 1275.59 451.24 1193.07 555.73 1137.61 611.34 1258.12 614.99
00007041 00000135 1039.97 239.45 339.97 490.25 1128.48 447.51 1275.19 452.75 1193.96 558.08 1138.95 609.87 1262.02 614.15
00007042 00000136 1039.29 236.08 340.58 491.86 1126.98 445.44 1273.51 451.30 1191.55 556.58 1138.26 608.56 1260.04 613.35
00007043 00000137 1037.47 236.36 340.16 487.72 1123.51 444.65 1269.28 451.69 1186.21 552.35 1135.18 610.57 1250.43 617.34
00007044 DELETE   1035.15 234.19 339.89 487.73 1120.17 443.15 1262.20 452.36 1177.63 548.86 1129.92 607.64 1242.08 616.14
00007045 00000139 1031.83 230.62 339.09 486.52 1113.60 438.02 1254.79 445.96 1167.16 541.86 1120.15 606.39 1234.13 613.53
00007046 DELETE   1020.88 222.41 354.69 497.43 1102.45 423.87 1250.28 436.16 1160.81 536.70 1112.36 602.09 1222.64 613.79
00007047 00000141 1022.74 226.07 345.52 482.79 1096.53 424.56 1241.97 436.64 1143.93 535.64 1105.86 598.51 1216.99 608.09
00007048 DELETE   1019.16 222.82 346.51 479.48 1091.31 420.10 1235.95 431.66 1136.22 530.61 1100.42 592.40 1213.58 601.53
00007049 DELETE   1017.19 224.23 345.74 476.83 1086.75 417.68 1229.55 428.59 1129.48 527.16 1095.98 591.38 1207.28 600.12
00007050 00000144 1014.28 224.25 343.58 475.46 1082.10 415.84 1223.89 426.36 1124.47 525.06 1090.50 590.35 1200.57 598.78
00007051 00000145 1012.88 224.26 340.86 472.92 1077.14 414.65 1217.74 424.28 1118.08 523.87 1085.69 588.73 1195.11 596.49
00007052 00000146 1009.26 224.22 341.36 472.15 1072.09 415.80 1211.91 424.57 1112.54 523.83 1081.79 589.02 1190.56 596.27
00007053 00000147 1006.42 223.16 341.49 475.38 1069.02 418.31 1207.02 425.28 1109.48 526.60 1081.07 593.28 1188.09 599.26
00007054 00000148 1003.36 229.07 342.36 473.46 1066.26 421.10 1206.13 427.80 1106.50 530.34 1078.27 597.60 1187.36 603.29
00007055 00000149 1001.55 231.26 342.74 474.05 1063.80 424.65 1202.61 429.23 1105.01 532.04 1077.33 598.07 1187.32 602.27
00007056 00000150 1000.14 237.10 342.12 470.41 1060.03 424.93 1202.89 426.97 1102.83 536.57 1075.89 600.74 1187.63 602.93
00007057 00000151 995.39 234.33 344.02 478.28 1058.55 426.89 1197.48 430.96 1099.74 535.05 1072.38 596.22 1185.48 599.80
00007058 00000152 993.43 232.49 343.96 479.51 1056.94 425.49 1196.29 429.79 1098.44 534.66 1070.86 595.41 1184.57 599.14
00007059 00000153 992.55 233.53 344.59 477.85 1055.82 425.10 1196.09 429.36 1097.75 534.48 1070.56 594.97 1184.89 598.64
00007060 00000154 992.18 234.10 344.62 476.93 1055.36 425.13 1195.67 429.43 1097.35 534.91 1070.65 595.00 1185.01 598.62
00007061 00000155 992.31 233.62 344.31 476.40 1055.11 424.51 1195.41 429.40 1096.49 534.28 1070.08 594.95 1183.73 599.05
00007062 00000156 993.82 233.10 343.60 476.03 1055.37 424.60 1195.83 430.21 1096.02 533.59 1069.79 594.52 1182.62 599.12
00007063 00000157 996.37 232.48 343.53 476.81 1057.46 424.41 1196.33 430.73 1096.49 533.67 1070.58 594.79 1182.25 599.93
00007064 00000158 998.67 233.68 344.11 474.51 1059.88 424.68 1199.05 431.41 1099.67 534.98 1072.45 594.30 1184.53 599.64
00007065 00000159 1000.69 233.62 343.54 470.48 1063.46 424.41 1202.09 430.53 1104.03 533.48 1076.35 596.51 1186.55 601.86
00007066 00000160 1001.30 233.72 343.73 470.80 1064.33 423.79 1203.35 430.35 1104.55 533.56 1076.95 597.28 1186.94 602.91
00007067 00000161 1001.44 230.41 344.51 472.65 1064.51 422.94 1204.37 429.90 1105.17 533.18 1077.21 597.22 1186.79 603.21
00007068 00000162 1001.83 228.95 344.21 474.15 1065.36 422.10 1205.05 429.21 1106.00 532.36 1077.84 596.81 1187.65 602.91
