Video ID: 	_gXFzH7VFXo
H: 	1080
W: 	1920
FPS: 	29.97002997002997

FRAME INDEX X0 Y0 W H [Landmarks (5 Points)]

00018466 00000000 532.65 216.33 344.62 555.37 627.57 450.80 793.26 460.51 714.65 571.33 638.07 644.98 770.07 655.11
00018467 DELETE   530.70 214.60 344.98 550.44 626.43 446.96 792.13 456.55 713.73 566.14 640.77 641.25 770.35 651.03
00018468 00000002 528.81 206.99 346.43 554.16 625.59 443.44 793.30 454.64 712.12 562.11 640.11 637.62 772.23 648.28
00018469 00000003 527.95 202.90 346.82 557.12 624.16 440.35 791.22 452.73 710.31 560.02 638.58 636.33 770.24 647.80
00018470 DELETE   527.18 198.52 347.73 557.39 623.11 438.09 789.49 452.00 707.62 557.96 636.92 633.04 767.79 645.55
00018471 00000005 526.10 196.53 348.68 555.13 622.56 435.60 787.85 449.72 706.21 554.55 637.17 630.01 767.15 642.63
00018472 DELETE   525.95 191.13 346.33 554.45 621.68 433.22 784.24 447.15 704.35 550.32 636.93 627.90 764.60 640.12
00018473 00000007 524.75 186.36 344.91 554.28 618.88 429.72 780.66 443.74 699.89 545.48 634.22 625.63 761.24 637.70
00018474 00000008 523.37 188.01 344.09 550.23 616.51 427.94 776.88 442.03 696.10 542.73 631.41 622.90 756.68 635.42
00018475 00000009 521.75 185.16 343.93 553.27 615.24 425.68 774.68 440.75 694.35 541.05 629.57 620.32 754.64 633.83
00018476 00000010 519.40 183.70 343.05 552.46 613.06 423.55 772.40 437.78 692.47 538.51 627.85 619.98 753.33 632.82
00018477 00000011 516.30 182.16 344.98 552.93 611.23 419.11 771.36 432.18 690.10 534.05 625.69 617.81 750.22 630.00
00018478 00000012 515.78 179.92 345.24 550.09 609.15 413.34 769.46 423.87 688.69 528.13 624.40 615.69 748.59 625.93
00018479 00000013 514.25 177.07 346.14 551.78 608.81 409.53 769.20 418.37 689.62 523.55 623.69 612.54 748.48 621.53
00018480 DELETE   514.74 177.10 346.67 552.88 609.22 409.18 769.65 418.45 689.99 523.62 624.00 612.17 749.08 621.53
00018481 00000015 516.86 179.33 345.31 554.53 610.81 413.40 772.02 425.66 690.34 529.26 623.99 615.67 750.19 627.39
00018482 00000016 517.17 182.64 343.86 554.68 611.55 423.15 772.10 437.12 691.82 538.86 625.85 620.17 754.03 632.68
00018483 00000017 519.00 189.51 342.24 553.90 611.34 428.94 775.02 441.95 693.35 548.88 626.45 627.78 756.11 639.53
00018484 00000018 518.43 193.58 342.28 550.83 612.40 430.96 776.35 443.61 696.15 550.66 627.75 630.63 757.29 642.24
00018485 00000019 519.06 189.35 343.42 550.89 614.31 428.72 775.71 440.32 697.70 543.66 631.89 627.76 757.64 638.18
00018486 00000020 520.04 186.36 344.14 547.27 616.63 424.68 777.42 435.56 700.79 538.50 633.67 623.16 760.33 633.06
00018487 00000021 521.94 183.86 344.67 549.62 617.58 419.81 779.92 429.13 702.67 532.52 633.12 619.47 762.01 628.43
00018488 00000022 524.01 179.97 347.55 549.95 618.11 416.93 781.68 424.43 702.40 529.56 634.97 617.88 765.23 625.24
00018489 00000023 527.09 178.23 346.62 553.22 618.69 415.54 784.49 422.04 705.19 529.53 636.61 619.34 768.19 625.65
00018490 00000024 528.02 178.36 348.66 549.89 620.46 415.48 787.23 421.51 707.67 531.05 639.01 620.28 769.96 626.19
00018491 00000025 529.81 180.45 348.73 546.29 621.23 416.25 789.18 422.17 707.71 532.21 640.19 622.21 772.12 628.04
00018492 00000026 529.12 181.77 348.91 545.64 621.99 417.78 789.40 424.44 707.97 533.40 639.95 622.08 771.79 628.58
00018493 00000027 528.23 183.30 347.52 545.67 621.76 419.05 789.01 427.22 707.50 535.03 638.07 622.22 770.80 630.06
00018494 00000028 525.60 183.50 345.78 545.19 620.27 420.65 785.73 429.12 705.45 535.89 636.91 624.06 768.43 632.19
00018495 00000029 523.28 183.91 343.54 543.87 617.45 420.54 779.91 428.89 701.56 532.81 633.81 622.29 764.21 630.26
00018496 00000030 519.72 181.77 341.56 546.79 614.30 416.61 777.27 425.70 697.92 527.79 630.55 620.08 760.95 628.58
00018497 00000031 517.64 177.79 343.09 549.44 612.08 412.87 776.51 422.76 695.60 524.97 625.82 618.81 757.36 628.03
00018498 00000032 516.84 175.69 343.98 551.45 611.30 409.21 774.58 418.02 695.59 522.44 625.21 615.95 754.73 624.44
00018499 00000033 517.38 175.85 343.28 549.17 610.39 407.71 773.18 414.45 695.01 520.33 624.91 614.97 752.87 621.91
00018500 00000034 516.89 173.48 344.09 551.57 610.82 406.15 773.57 412.40 695.50 518.05 624.65 613.27 752.65 619.98
00018501 00000035 517.82 169.75 345.10 556.24 611.74 404.84 775.31 412.06 695.41 514.36 623.78 609.82 754.25 617.31
00018502 00000036 518.12 168.56 347.04 558.60 613.13 402.44 777.39 410.95 697.41 512.29 624.06 607.03 756.15 615.55
00018503 00000037 519.70 167.56 345.52 560.57 613.52 403.10 778.01 411.41 698.57 512.74 624.87 607.38 758.47 615.62
00018504 00000038 521.32 168.25 344.30 560.13 614.83 403.13 778.44 412.04 698.98 514.48 624.95 604.89 759.76 613.67
00018505 00000039 522.65 172.39 342.35 555.29 616.22 406.16 778.28 417.03 698.39 517.78 624.23 601.34 761.81 611.72
00018506 00000040 522.50 174.45 343.89 554.61 616.20 407.53 779.22 419.20 696.57 518.81 622.68 599.36 763.68 610.41
00018507 00000041 522.52 175.29 345.26 555.60 616.51 407.68 779.83 420.24 696.25 518.77 622.31 599.22 764.13 610.99
00018508 00000042 521.67 176.11 346.55 555.32 616.07 408.74 779.46 419.61 697.70 519.96 625.05 602.74 763.99 613.22
00018509 00000043 522.20 175.13 346.39 556.95 616.25 409.00 779.78 419.23 698.51 519.83 625.92 603.43 764.67 613.28
00018510 00000044 522.89 175.05 346.60 556.73 616.86 408.79 780.96 418.44 699.67 518.89 626.80 603.43 765.57 612.79
00018511 00000045 524.52 173.92 344.68 556.91 617.39 408.24 782.06 416.74 701.43 520.05 628.05 604.77 766.64 613.12
00018512 00000046 525.78 174.01 343.70 554.83 617.95 408.24 782.45 416.24 702.42 519.52 629.19 606.40 765.94 614.38
00018513 00000047 525.66 173.62 344.42 554.83 618.48 407.35 782.90 415.48 703.11 518.18 629.06 606.07 765.59 614.25
00018514 00000048 525.64 172.80 344.77 554.95 619.04 406.38 783.76 414.94 703.71 516.00 629.40 605.11 765.56 613.74
00018515 00000049 525.89 171.71 346.01 555.21 619.06 403.71 784.77 411.79 704.08 512.59 629.85 604.13 766.05 612.38
00018516 00000050 526.24 168.70 344.98 556.68 619.56 401.50 784.67 409.34 703.47 510.53 630.70 603.54 764.74 611.59
00018517 00000051 525.38 165.99 346.17 557.04 618.29 400.03 783.43 407.91 701.46 508.23 629.16 603.14 762.50 611.24
00018518 00000052 524.10 166.15 346.06 556.32 617.27 398.73 781.15 407.24 699.58 507.41 628.24 602.78 759.53 611.47
00018519 00000053 522.11 165.86 345.90 558.02 615.42 399.67 778.66 407.44 698.68 508.43 626.37 603.77 758.23 611.80
00018520 00000054 519.54 167.62 346.65 559.01 614.00 402.08 776.50 409.71 697.12 511.40 626.07 604.62 756.72 612.48
00018521 00000055 517.10 170.95 346.59 560.58 612.07 406.23 774.03 413.90 693.71 517.26 626.46 607.95 755.62 615.84
00018522 00000056 515.32 177.01 346.00 567.99 608.58 412.19 769.79 421.86 688.40 526.54 622.28 613.99 752.06 623.45
00018523 00000057 513.94 179.14 344.95 570.00 607.22 418.61 770.14 429.33 687.89 533.14 622.06 618.72 752.71 628.63
00018524 DELETE   515.47 182.70 342.96 554.46 609.54 416.28 772.94 427.18 692.12 529.62 623.20 616.56 753.95 626.94
00018525 DELETE   518.30 178.50 345.23 550.74 615.44 412.90 776.55 421.34 701.05 523.73 629.73 608.91 759.28 617.21
00018526 DELETE   522.97 171.95 349.35 553.26 622.91 405.71 786.04 411.71 712.28 515.42 635.69 603.52 767.13 609.87
00018527 00000061 529.96 169.89 349.32 549.40 627.89 402.21 793.24 409.46 717.06 511.80 641.30 601.39 771.27 608.65
00018528 00000062 536.97 171.53 349.31 541.68 632.11 400.19 800.46 409.76 719.58 509.22 644.93 599.96 775.60 609.10
00018529 00000063 540.87 171.65 353.77 538.86 634.98 399.86 805.78 409.60 719.97 511.63 646.60 601.26 779.90 610.70
00018530 00000064 546.08 172.40 356.43 542.02 638.48 401.14 809.76 410.82 720.70 516.32 649.70 602.43 783.40 611.86
00018531 00000065 550.21 174.77 355.23 542.03 641.71 401.63 815.08 412.51 723.56 518.02 651.85 603.83 787.48 614.28
00018532 00000066 554.45 174.43 353.14 546.04 644.89 403.19 818.52 414.85 726.86 518.82 654.08 604.75 790.50 615.93
00018533 00000067 555.08 175.15 353.58 544.88 645.62 403.26 819.67 415.42 727.31 518.71 654.98 605.42 791.23 616.96
00018534 00000068 555.15 174.26 353.09 545.60 645.08 402.48 820.08 414.16 727.42 518.23 654.99 605.36 791.88 616.57
00018535 00000069 551.08 174.19 355.32 543.33 642.10 401.77 816.24 412.81 723.69 518.34 652.55 604.41 788.75 614.95
00018536 00000070 548.31 174.86 354.83 541.80 639.03 401.87 811.70 412.31 719.48 517.94 648.38 603.51 784.58 613.59
00018537 00000071 543.83 177.02 355.06 537.29 635.96 402.47 807.21 412.31 716.28 516.04 645.40 602.66 780.75 612.46
00018538 00000072 539.17 174.47 355.82 541.50 631.97 402.00 802.85 412.76 712.20 514.37 640.86 602.10 777.14 612.48
00018539 00000073 537.96 174.05 352.67 543.29 630.44 402.88 799.80 414.30 711.26 514.56 638.57 601.28 775.51 612.20
00018540 00000074 535.98 173.27 352.71 545.61 628.68 402.76 797.94 414.20 711.03 515.95 637.78 601.48 774.61 612.38
00018541 00000075 535.57 172.99 350.82 546.75 627.08 402.96 796.33 414.29 710.02 516.60 636.93 602.70 773.18 613.47
00018542 00000076 534.34 172.98 349.90 547.22 625.50 403.26 793.61 414.50 708.22 516.61 635.15 603.05 770.27 613.73
00018543 00000077 533.24 171.52 349.67 550.36 625.21 402.77 792.92 413.78 708.50 516.56 634.00 602.73 769.65 613.26
00018544 00000078 531.83 171.71 349.44 550.63 624.64 403.23 791.60 413.84 707.77 516.54 633.22 602.91 768.34 613.22
00018545 00000079 530.49 171.91 348.77 551.42 624.35 402.66 790.33 412.99 707.92 514.95 632.70 602.53 766.71 612.74
00018546 00000080 529.51 171.95 348.73 552.29 624.06 402.08 789.56 412.35 707.50 514.33 632.23 602.19 765.86 612.46
00018547 00000081 529.78 171.68 349.04 552.90 623.87 401.79 789.54 411.85 706.55 514.03 631.84 601.61 765.68 611.72
00018548 00000082 529.82 171.13 349.09 553.02 624.07 400.87 789.17 411.35 706.03 512.68 631.58 600.69 764.82 611.16
00018549 00000083 529.74 170.61 349.01 553.33 624.27 399.75 789.06 410.54 705.30 511.28 631.14 599.93 764.32 610.74
00018550 00000084 530.46 169.66 348.25 553.37 624.27 398.73 788.75 409.88 705.08 510.38 631.26 599.57 763.16 610.69
00018551 00000085 530.16 167.54 347.40 556.48 623.98 397.18 788.43 409.53 704.91 508.37 629.88 599.21 761.98 611.21
00018552 00000086 529.39 169.00 346.12 554.35 623.60 396.60 787.44 409.38 703.02 506.71 629.29 598.10 760.45 610.67
00018553 00000087 528.82 168.83 345.40 552.74 623.21 396.32 786.23 409.17 702.91 506.52 628.84 598.48 757.99 611.03
00018554 00000088 527.62 167.56 344.70 552.93 622.30 395.80 785.05 408.72 702.28 506.07 628.28 598.55 757.07 610.98
00018555 00000089 527.40 167.50 343.99 552.43 621.08 395.22 784.00 408.72 699.93 506.07 625.83 597.89 755.65 610.78
00018556 00000090 526.01 167.63 343.64 551.22 620.31 394.26 783.57 408.11 699.87 504.93 625.21 597.61 754.82 610.83
00018557 00000091 525.28 167.25 343.29 550.93 619.38 393.72 782.36 407.12 699.01 505.44 624.51 597.77 753.76 610.60
00018558 00000092 525.05 166.16 342.65 552.58 618.89 393.04 782.10 407.25 697.98 504.70 621.91 596.55 752.79 610.11
00018559 00000093 524.24 166.40 342.79 551.65 618.94 392.30 781.35 407.60 697.23 503.94 620.23 595.49 750.62 610.03
00018560 00000094 524.32 167.48 342.34 549.01 618.01 391.09 779.98 406.56 695.11 503.05 618.45 593.50 749.08 608.32
00018561 00000095 524.10 165.49 342.06 550.80 617.09 390.24 779.18 406.56 693.25 501.48 616.94 592.34 748.71 607.76
00018562 00000096 523.79 165.52 340.93 550.46 616.00 389.90 777.76 406.89 691.25 502.36 615.09 592.25 747.09 608.19
00018563 00000097 522.98 165.53 340.15 550.18 614.54 389.51 775.65 406.15 688.43 502.66 613.58 592.51 744.51 608.34
00018564 00000098 522.22 166.31 339.78 549.60 613.15 389.44 773.93 405.73 687.06 502.98 611.93 592.26 742.84 607.82
00018565 00000099 519.92 167.44 340.65 547.89 612.28 389.45 772.13 405.86 686.20 502.25 611.17 592.35 740.66 608.05
00018566 00000100 519.40 166.94 340.52 548.20 611.54 388.89 771.77 405.63 685.12 502.18 610.24 592.61 739.40 608.61
00018567 00000101 518.21 165.41 340.00 550.62 610.21 389.13 769.57 404.76 684.07 502.85 610.95 593.40 738.42 608.38
00018568 00000102 517.12 164.46 340.05 551.92 608.10 389.56 768.17 404.47 681.95 502.59 608.93 594.12 737.53 608.56
00018569 00000103 514.61 163.33 340.31 551.92 606.91 389.62 766.31 404.39 681.45 502.14 608.06 594.65 735.65 608.89
00018570 00000104 514.30 164.33 338.25 549.98 605.92 390.15 764.62 405.00 680.03 501.73 606.66 594.82 733.49 609.22
00018571 00000105 511.87 164.97 338.15 549.72 604.52 391.24 762.91 406.28 678.68 501.04 605.86 595.47 731.65 610.08
00018572 00000106 510.80 165.76 337.45 547.30 603.25 391.68 761.73 406.83 677.79 501.01 604.16 596.11 729.87 610.87
00018573 00000107 510.25 166.03 336.74 546.48 601.95 390.86 760.67 406.22 675.06 500.34 602.15 594.94 728.35 609.81
00018574 00000108 509.45 166.68 335.84 545.55 600.71 391.19 759.70 406.01 673.84 498.91 601.27 595.04 726.85 609.58
00018575 00000109 507.86 167.21 336.55 546.51 600.23 390.86 758.96 405.69 673.85 497.93 601.70 594.40 726.60 609.11
00018576 00000110 507.42 167.05 338.08 552.24 598.82 391.07 758.86 406.03 671.79 497.00 600.43 592.94 727.13 607.80
00018577 00000111 507.19 166.50 338.88 555.61 598.33 391.04 758.27 405.70 670.54 496.74 601.45 594.19 727.02 608.83
00018578 00000112 507.17 166.74 338.82 555.70 597.25 391.46 756.66 405.35 668.85 496.02 601.15 593.83 726.68 607.88
00018579 00000113 507.36 165.67 338.31 556.79 596.76 391.08 756.18 405.76 667.38 495.46 600.00 593.01 726.51 607.72
00018580 00000114 506.66 165.70 338.70 556.91 595.89 390.78 755.46 404.56 666.68 495.32 600.51 593.33 726.61 607.24
00018581 00000115 506.46 164.11 338.76 558.86 595.43 389.90 755.11 404.32 665.54 494.44 599.67 592.79 726.15 607.16
00018582 00000116 506.16 164.94 338.27 557.61 595.24 389.82 754.87 403.67 665.92 493.88 600.20 592.36 726.93 606.23
00018583 00000117 507.12 165.27 337.25 557.04 595.19 390.24 754.61 404.36 664.94 493.98 599.62 591.33 727.00 605.44
00018584 00000118 506.56 165.14 337.52 557.35 595.37 390.31 754.14 406.48 664.07 494.35 597.25 588.93 726.78 604.72
00018585 00000119 504.67 164.45 339.11 558.42 594.50 390.72 751.58 407.38 662.47 495.61 595.51 588.41 724.58 604.53
00018586 00000120 502.82 164.97 339.45 556.65 593.30 391.05 749.48 409.36 661.19 494.40 592.01 587.42 721.56 604.97
00018587 00000121 500.18 165.15 341.23 556.02 591.51 390.53 747.13 410.94 658.39 495.05 587.13 587.13 716.71 606.50
00018588 00000122 500.29 163.67 341.31 559.77 591.51 391.26 746.85 411.69 658.16 494.70 587.25 588.51 716.80 607.83
CROP_BBOX: 196 0 1086 922
