Video ID: 	AN63JxbmxMM
H: 	1080
W: 	1920
FPS: 	25.0

FRAME INDEX X0 Y0 W H [Landmarks (5 Points)]

00003375 00000000 867.30 210.92 436.28 593.36 932.76 473.35 1102.41 458.92 986.95 562.93 970.91 663.88 1108.28 651.29
00003376 00000001 871.42 220.61 436.62 589.86 939.19 475.68 1108.90 461.87 994.59 566.13 977.42 667.91 1115.35 656.17
00003377 DELETE   873.10 226.33 435.00 581.67 939.56 478.61 1110.64 466.72 995.97 573.02 976.80 670.65 1115.45 660.36
00003378 00000003 872.50 227.69 433.88 594.24 938.46 479.15 1105.93 470.33 985.22 575.27 972.18 677.44 1107.33 669.23
00003379 00000004 869.59 229.82 431.13 586.11 935.52 479.95 1100.31 478.03 978.97 576.38 965.87 678.88 1090.84 675.97
00003380 00000005 871.16 228.49 431.61 591.43 934.66 485.06 1098.48 484.07 971.78 582.14 965.00 677.34 1088.71 675.54
00003381 00000006 874.61 236.75 430.45 583.48 937.83 487.00 1105.13 489.45 978.57 587.49 965.71 676.70 1096.20 677.91
00003382 00000007 882.06 237.20 422.10 579.86 944.64 488.24 1113.39 495.92 990.50 593.43 972.78 675.19 1104.05 680.74
00003383 00000008 887.96 235.11 424.58 596.30 953.30 487.06 1123.98 497.91 998.38 592.24 978.27 676.20 1118.99 684.12
00003384 00000009 893.48 235.68 420.72 588.20 959.70 485.95 1131.49 497.93 1009.15 594.44 987.63 672.85 1127.87 681.48
00003385 00000010 897.32 229.84 419.17 594.85 962.36 484.73 1133.97 498.79 1009.51 596.60 988.21 673.80 1128.22 684.18
00003386 00000011 899.24 230.51 417.15 599.40 963.31 484.35 1135.61 500.24 1009.14 597.78 986.48 676.01 1127.51 688.05
00003387 00000012 902.53 233.04 415.70 602.21 964.11 485.27 1134.60 501.40 1006.44 599.72 985.34 678.63 1127.30 691.08
00003388 00000013 904.06 229.65 416.91 603.30 965.59 485.31 1136.88 501.09 1008.99 600.94 987.73 678.10 1131.14 690.14
00003389 00000014 902.51 230.24 419.91 594.75 967.03 485.03 1138.73 500.19 1014.94 602.40 988.78 673.23 1135.50 684.89
00003390 00000015 903.77 233.70 422.11 595.47 969.65 483.86 1143.67 499.22 1018.86 602.84 990.29 672.45 1138.43 684.60
00003391 00000016 906.18 232.94 421.83 593.24 971.60 484.60 1145.25 499.24 1022.21 602.59 992.37 672.34 1139.29 683.95
00003392 00000017 906.92 231.71 422.30 594.93 972.80 484.48 1146.84 499.16 1023.79 601.12 992.47 671.95 1140.10 683.58
00003393 00000018 910.98 241.96 429.20 584.39 980.07 488.53 1151.02 498.77 1028.36 601.63 997.43 672.98 1140.96 679.88
00003394 00000019 911.93 239.96 428.78 585.62 981.33 488.94 1151.14 499.61 1029.06 601.00 996.13 670.87 1141.09 678.12
00003395 00000020 913.08 236.66 428.09 589.46 982.50 489.56 1153.17 499.81 1030.14 600.35 996.15 670.95 1143.68 677.80
00003396 00000021 914.12 241.24 428.82 585.73 983.92 490.07 1154.80 499.76 1032.50 602.31 998.57 672.46 1146.46 678.86
00003397 00000022 913.49 239.38 431.14 594.07 985.00 490.32 1155.62 500.16 1032.14 603.10 1000.16 674.07 1148.46 680.34
00003398 00000023 912.97 236.33 431.39 597.36 985.56 491.59 1155.47 499.43 1033.01 601.62 1002.08 676.74 1147.08 681.44
00003399 00000024 913.27 237.89 429.65 588.90 984.87 491.92 1154.63 498.83 1034.06 602.24 1005.83 678.25 1145.59 682.43
00003400 00000025 912.81 236.63 419.68 601.42 982.43 486.69 1151.67 497.72 1031.31 601.66 1007.80 686.03 1151.88 693.13
00003401 00000026 912.44 234.49 420.22 602.23 983.62 484.44 1153.62 494.55 1034.99 599.31 1008.49 682.93 1155.42 689.18
00003402 00000027 913.12 240.06 421.36 598.86 985.97 482.32 1156.65 490.87 1038.38 596.97 1009.18 679.58 1161.45 684.29
00003403 00000028 914.45 235.28 422.10 602.98 988.00 480.56 1158.64 487.33 1041.17 593.27 1011.32 678.61 1164.74 681.52
00003404 00000029 912.75 229.62 429.32 602.72 985.32 486.05 1166.47 487.01 1048.39 589.07 1007.32 670.97 1168.84 671.39
00003405 00000030 915.58 226.70 421.02 605.48 992.61 473.86 1163.05 482.37 1044.37 584.93 1010.62 667.54 1167.51 671.49
00003406 00000031 916.63 228.20 419.84 601.11 992.75 471.01 1164.88 479.81 1046.56 583.97 1010.23 665.82 1168.98 670.10
00003407 00000032 917.49 228.22 418.72 598.36 993.09 470.36 1165.98 478.75 1048.20 582.72 1010.99 665.64 1169.51 669.88
00003408 00000033 916.50 221.71 427.67 601.21 986.87 474.25 1171.92 478.30 1051.35 581.99 1005.86 662.54 1170.59 665.75
00003409 00000034 916.99 220.72 428.51 598.02 987.12 472.50 1172.81 476.69 1053.15 582.24 1007.27 660.83 1172.34 663.94
00003410 00000035 915.95 214.01 432.38 604.06 989.07 469.14 1175.37 474.94 1056.19 581.61 1009.46 659.09 1173.78 663.53
00003411 00000036 917.13 216.76 435.02 602.58 992.47 467.43 1177.80 471.46 1059.83 580.55 1013.97 657.37 1179.43 660.11
00003412 00000037 921.58 228.99 432.12 593.29 1001.32 460.18 1178.19 466.61 1062.67 573.75 1023.80 659.12 1181.49 662.67
00003413 00000038 922.88 226.28 435.71 593.56 1003.30 459.22 1181.25 462.51 1067.06 572.46 1028.46 659.21 1185.51 660.18
00003414 00000039 924.27 220.11 438.04 602.76 1006.07 459.59 1185.41 461.39 1070.48 572.56 1033.08 660.20 1191.07 659.71
00003415 00000040 926.60 224.31 436.70 596.21 1008.41 459.64 1188.28 458.87 1074.98 570.28 1036.92 657.85 1197.79 655.09
00003416 00000041 927.20 223.13 439.64 593.84 1012.86 459.04 1193.25 458.11 1082.09 567.92 1042.18 654.16 1202.49 651.14
00003417 00000042 927.68 224.72 439.48 587.25 1014.19 456.84 1197.10 453.53 1088.29 567.95 1045.55 653.68 1204.89 648.88
00003418 00000043 926.75 220.66 441.89 592.63 1015.79 455.24 1200.17 451.36 1092.72 567.26 1046.00 649.56 1210.40 644.22
00003419 00000044 926.91 219.78 441.48 592.55 1017.08 452.71 1201.20 448.67 1095.52 565.54 1047.14 647.28 1211.26 641.87
00003420 00000045 925.93 217.89 442.29 594.75 1017.05 449.72 1202.90 444.63 1098.53 563.03 1047.90 646.35 1212.12 640.02
00003421 00000046 925.46 214.27 441.84 596.79 1017.41 449.29 1203.14 443.87 1099.98 561.28 1048.11 644.08 1213.90 637.44
00003422 00000047 924.74 204.10 441.04 604.98 1017.86 448.15 1203.03 443.77 1099.87 559.03 1047.31 640.51 1215.25 634.72
00003423 00000048 924.96 198.01 439.05 607.90 1018.68 447.77 1204.41 443.41 1102.11 556.91 1048.27 638.87 1217.39 633.02
00003424 00000049 925.25 198.55 438.75 605.41 1020.25 447.91 1206.81 442.87 1105.71 556.07 1049.38 637.73 1220.75 631.21
00003425 00000050 924.90 198.47 439.91 605.39 1022.81 448.19 1209.88 441.54 1111.04 554.97 1052.03 636.14 1226.22 627.99
00003426 00000051 924.62 206.03 442.11 600.55 1025.52 447.02 1213.24 439.10 1115.11 552.38 1053.32 634.03 1230.17 624.69
00003427 00000052 926.20 206.40 440.81 595.93 1027.99 448.04 1215.00 437.42 1118.39 550.02 1056.58 632.03 1233.61 620.41
00003428 00000053 929.06 200.43 435.87 597.92 1034.27 451.22 1215.45 439.49 1123.41 545.32 1061.20 625.88 1239.42 612.94
00003429 00000054 927.59 197.44 440.22 601.22 1034.81 447.47 1219.89 432.03 1128.30 542.26 1063.34 624.91 1245.77 608.82
00003430 00000055 926.34 195.17 441.77 604.26 1034.54 444.17 1224.69 426.38 1132.58 541.26 1062.62 622.66 1251.23 604.60
00003431 00000056 927.34 191.62 443.10 603.96 1035.23 439.66 1228.19 420.01 1135.59 537.26 1064.49 620.03 1252.92 600.50
00003432 00000057 927.82 185.28 443.67 608.90 1035.40 435.01 1230.85 415.01 1137.31 534.16 1066.57 618.78 1253.80 598.92
00003433 00000058 927.75 187.17 443.79 602.01 1035.75 431.37 1232.40 411.82 1139.27 532.47 1068.57 616.57 1253.65 597.04
00003434 00000059 928.70 187.98 446.51 600.28 1038.34 428.58 1234.77 410.18 1142.00 531.08 1071.69 614.16 1255.17 595.33
00003435 00000060 929.40 183.27 445.99 605.00 1039.63 426.25 1236.24 407.93 1143.22 527.92 1072.78 612.16 1256.35 593.31
00003436 00000061 930.48 184.15 444.07 603.17 1040.49 425.02 1236.43 406.42 1143.61 525.04 1073.31 612.37 1255.09 593.45
00003437 00000062 932.98 183.98 442.54 602.22 1041.28 423.92 1237.45 403.28 1144.94 523.20 1075.29 612.31 1257.05 591.78
00003438 00000063 934.12 178.59 441.68 605.36 1042.33 422.69 1238.41 402.53 1145.33 522.52 1076.44 612.04 1256.88 591.89
00003439 00000064 934.85 181.53 441.28 603.04 1042.62 422.35 1238.33 401.17 1145.95 522.23 1076.86 612.21 1257.32 591.26
00003440 00000065 934.95 180.36 440.11 600.80 1042.44 422.23 1237.61 400.38 1145.98 521.94 1077.61 610.93 1257.82 589.42
00003441 00000066 935.05 182.53 440.25 599.46 1043.10 422.19 1237.46 400.35 1146.33 522.02 1077.71 609.42 1258.93 587.93
00003442 00000067 934.29 167.74 438.93 611.25 1045.34 420.97 1239.80 404.47 1148.02 518.81 1073.30 611.15 1257.92 595.95
00003443 00000068 936.27 179.97 440.20 604.12 1043.16 420.76 1238.20 397.30 1146.85 519.28 1077.24 609.76 1259.84 587.14
00003444 00000069 934.25 165.76 439.29 616.77 1045.43 419.54 1240.86 402.79 1148.78 516.98 1073.35 611.66 1259.54 596.11
00003445 00000070 934.06 161.95 439.04 620.16 1046.16 419.77 1241.11 403.05 1149.78 515.33 1074.74 612.09 1259.40 596.38
00003446 00000071 935.23 163.07 439.82 616.78 1048.02 417.74 1241.64 401.52 1150.80 512.31 1077.25 611.95 1256.83 596.71
00003447 00000072 934.08 159.99 439.75 619.18 1048.62 416.88 1241.53 400.64 1151.81 510.48 1078.75 611.10 1256.73 595.60
00003448 00000073 933.50 161.54 439.95 616.67 1047.63 417.49 1240.67 400.83 1150.99 510.97 1078.44 611.86 1255.12 596.16
00003449 00000074 931.78 162.78 439.62 612.38 1045.75 418.01 1237.89 400.28 1149.30 510.98 1077.17 610.36 1253.71 593.72
00003450 00000075 929.95 163.00 440.42 613.87 1043.34 416.53 1235.71 399.70 1145.96 510.43 1074.33 608.28 1253.84 592.20
00003451 00000076 927.89 164.78 438.60 607.41 1038.60 415.60 1230.87 399.75 1139.67 511.07 1068.56 604.19 1250.70 589.03
00003452 00000077 924.94 162.89 436.97 608.95 1033.19 415.56 1222.29 399.29 1131.21 507.92 1063.33 602.32 1244.19 586.81
00003453 00000078 921.52 160.94 435.16 610.09 1027.01 414.64 1214.33 398.52 1122.85 511.19 1058.47 602.25 1238.29 587.07
00003454 00000079 917.01 160.32 435.81 611.60 1023.20 413.90 1207.58 397.62 1117.27 512.40 1056.68 603.85 1231.73 588.45
00003455 00000080 911.44 159.34 439.19 613.01 1019.29 412.26 1202.59 394.05 1113.96 511.64 1055.49 603.81 1229.07 586.54
00003456 00000081 909.08 157.69 438.03 608.57 1015.03 410.70 1197.04 392.79 1109.02 509.33 1053.25 600.50 1224.70 583.14
00003457 00000082 906.44 155.56 438.89 607.37 1011.36 407.27 1193.01 389.42 1104.60 506.63 1050.96 597.27 1221.04 579.66
00003458 00000083 905.08 151.52 439.56 609.68 1008.31 407.19 1189.34 387.78 1101.43 504.81 1049.28 596.25 1219.44 577.10
00003459 00000084 905.47 152.32 439.61 605.95 1006.70 403.85 1188.54 383.22 1100.36 499.92 1048.18 594.19 1220.25 574.02
00003460 00000085 905.56 152.85 438.15 603.34 1006.07 401.98 1186.30 380.31 1099.03 497.03 1047.74 591.90 1220.11 570.88
00003461 00000086 904.58 150.54 438.64 608.10 1004.64 399.03 1184.83 377.96 1096.17 494.20 1045.87 590.34 1216.95 569.92
00003462 00000087 904.03 152.16 436.40 604.33 1000.28 395.23 1180.73 374.42 1089.43 488.61 1043.31 589.91 1209.14 570.19
00003463 00000088 907.59 155.92 421.91 587.95 991.81 392.16 1171.15 375.47 1074.20 482.37 1026.52 583.39 1190.64 567.73
00003464 DELETE   905.27 151.14 412.26 578.24 976.90 385.23 1159.76 376.59 1043.82 473.18 998.95 573.37 1161.79 565.17
00003465 DELETE   899.95 140.55 417.56 576.65 956.23 380.27 1132.07 373.93 1007.92 470.36 971.11 567.73 1127.62 562.52
00003466 DELETE   892.89 140.98 423.01 574.35 947.17 371.35 1119.60 373.00 987.74 462.70 956.26 561.46 1106.11 562.51
00003467 00000092 892.71 132.33 421.45 570.89 944.50 362.87 1113.03 367.79 976.85 455.09 950.72 551.54 1096.49 555.10
00003468 00000093 891.87 130.78 421.37 567.70 942.00 359.63 1108.58 366.50 966.76 448.42 944.37 546.87 1088.27 551.84
00003469 00000094 892.95 130.74 420.49 569.96 944.01 356.83 1107.52 367.69 963.53 446.87 944.30 545.34 1084.49 553.51
00003470 00000095 895.75 129.30 419.13 576.31 946.22 354.61 1107.65 368.55 961.78 448.20 946.02 545.25 1084.31 556.12
00003471 00000096 899.94 125.98 416.16 581.71 947.99 353.63 1107.59 369.01 960.62 448.32 947.44 547.18 1081.44 559.43
00003472 00000097 904.46 121.28 413.01 582.54 949.25 352.86 1107.94 368.95 961.73 450.10 949.42 549.55 1079.56 562.55
00003473 00000098 909.08 121.06 407.21 583.51 952.74 351.21 1111.12 370.48 966.08 453.58 953.03 548.87 1083.67 564.48
00003474 00000099 916.35 120.35 399.21 578.47 955.90 350.12 1114.80 370.90 969.58 454.59 956.25 545.32 1091.15 561.85
00003475 00000100 925.65 121.53 396.04 572.49 962.61 352.60 1121.06 371.23 976.86 451.40 961.92 542.70 1096.84 557.63
00003476 00000101 936.71 123.31 389.81 563.57 973.82 349.73 1128.27 370.87 986.11 448.98 972.83 538.06 1103.88 554.85
00003477 00000102 944.19 119.09 390.49 565.46 980.77 347.88 1136.61 367.91 993.07 445.53 979.90 536.83 1113.07 552.37
00003478 00000103 948.72 113.82 401.19 568.60 999.55 346.14 1146.70 366.46 1002.06 440.80 991.08 533.56 1116.73 548.92
00003479 00000104 952.49 111.60 404.90 568.86 1006.85 346.26 1153.82 365.84 1008.88 436.46 998.07 531.07 1121.29 546.09
00003480 00000105 961.83 109.34 407.59 574.37 1013.39 343.88 1163.40 362.87 1017.14 433.53 1005.34 530.60 1128.34 545.54
00003481 00000106 977.04 106.07 403.15 570.59 1020.00 337.93 1171.05 358.02 1024.48 434.31 1013.62 527.25 1138.27 543.14
CROP_BBOX: 663 0 1735 992
