Video ID: 	OuUooeCQBBQ
H: 	1080
W: 	1920
FPS: 	29.97002997002997

FRAME INDEX X0 Y0 W H [Landmarks (5 Points)]

00001252 00000000 612.63 129.39 346.81 528.95 755.30 344.17 910.65 340.33 882.69 419.41 766.79 518.67 907.94 517.92
00001253 00000001 612.85 126.66 346.39 530.18 755.75 343.42 910.97 339.63 883.96 418.25 767.45 517.66 908.65 517.04
00001254 00000002 612.65 126.45 345.84 530.22 755.85 342.80 910.57 339.47 883.99 417.25 766.87 516.67 908.07 516.51
00001255 00000003 612.63 126.44 345.31 530.55 754.56 343.64 910.35 340.41 882.45 417.78 765.79 517.63 907.69 517.51
00001256 00000004 611.83 125.23 345.75 532.76 753.28 343.06 910.47 341.28 881.22 416.27 765.85 518.76 908.16 519.53
00001257 00000005 608.69 123.36 348.47 535.39 754.07 345.20 911.12 345.86 879.18 414.14 764.12 517.84 906.69 520.44
00001258 00000006 608.34 122.44 351.02 531.24 755.03 335.72 914.69 344.25 880.14 404.38 765.45 509.63 909.61 518.48
00001259 00000007 610.73 117.96 350.83 528.28 756.72 322.34 912.55 333.63 882.15 391.05 769.97 499.85 909.05 511.33
00001260 DELETE   615.85 110.38 347.16 523.92 756.36 303.42 914.51 321.70 886.72 362.88 775.31 484.76 914.09 502.06
00001261 DELETE   619.83 105.58 344.89 511.09 759.08 289.46 919.49 314.33 893.74 345.71 782.62 473.74 916.11 496.05
00001262 00000010 623.67 98.97 348.69 503.56 772.87 282.42 935.08 313.95 910.26 339.25 795.34 465.24 925.27 492.35
00001263 00000011 628.12 100.60 351.06 494.40 779.71 280.42 942.50 313.62 915.71 339.12 801.54 460.65 929.34 488.93
00001264 00000012 627.68 105.13 356.35 490.03 800.15 289.46 953.40 319.68 918.45 362.51 810.04 467.56 936.02 493.09
00001265 00000013 627.01 116.37 366.07 489.83 796.43 290.97 944.24 338.34 916.39 352.87 816.72 456.35 933.02 493.37
00001266 00000014 634.27 122.88 363.28 499.64 806.80 305.65 955.71 351.82 920.41 371.94 814.70 471.43 934.82 508.04
00001267 00000015 637.16 122.76 364.47 515.01 818.25 316.71 969.37 363.94 935.19 392.07 816.12 486.46 938.58 524.75
00001268 00000016 638.14 128.24 370.65 528.82 822.83 328.90 976.38 378.06 940.75 414.11 812.13 503.34 936.37 544.29
00001269 00000017 645.91 157.74 367.68 518.08 822.63 333.99 972.06 379.36 936.92 433.14 810.08 521.21 932.47 559.30
00001270 00000018 640.69 165.47 372.36 526.16 822.93 354.00 969.78 391.39 933.83 454.44 812.71 542.00 930.95 573.70
00001271 00000019 639.82 165.46 373.29 530.30 823.25 359.76 972.00 391.87 938.24 456.57 819.90 548.79 938.88 575.75
00001272 00000020 642.87 160.71 372.95 531.87 821.53 356.53 976.02 385.86 943.71 452.04 823.60 546.16 947.08 571.01
00001273 00000021 643.86 155.59 372.17 531.31 819.70 351.27 975.26 376.50 945.71 444.52 824.84 540.77 951.05 562.37
00001274 00000022 640.56 149.41 371.15 532.32 816.09 346.20 969.83 371.19 944.36 435.47 824.33 533.86 951.36 555.38
00001275 00000023 637.70 146.27 373.09 532.24 813.16 341.12 966.84 364.81 943.55 430.43 823.71 530.19 950.81 550.67
00001276 00000024 637.23 144.26 372.70 533.18 812.35 339.61 966.93 365.95 942.94 429.71 820.81 528.02 949.46 550.74
00001277 00000025 638.85 148.78 372.95 532.77 813.21 341.76 967.70 370.69 940.37 434.36 814.81 529.59 945.31 554.85
00001278 00000026 635.27 152.22 376.90 536.93 814.11 347.86 967.35 375.80 936.96 445.61 809.75 534.72 940.63 559.44
00001279 00000027 635.15 153.49 376.14 540.38 814.48 351.91 967.80 378.77 936.41 453.84 807.16 540.57 938.58 564.83
00001280 00000028 636.32 155.75 375.06 539.99 813.78 356.62 967.21 380.87 935.91 458.16 804.51 543.26 938.90 565.79
00001281 00000029 634.69 158.47 375.78 537.58 811.21 360.04 964.89 382.60 932.07 461.53 800.20 543.74 937.28 565.14
00001282 00000030 632.40 158.53 374.18 533.18 806.08 360.63 959.76 379.63 927.47 460.69 795.89 540.58 935.28 559.33
00001283 00000031 628.01 150.59 371.23 535.39 797.73 362.89 959.41 381.71 923.60 455.20 794.24 536.37 935.22 552.82
00001284 00000032 623.35 143.44 373.72 535.69 792.46 358.14 957.37 375.25 920.65 448.83 792.99 531.59 936.64 546.45
00001285 00000033 619.53 142.55 374.71 536.51 790.13 356.06 954.87 374.83 918.14 447.54 789.00 530.08 933.34 546.30
00001286 00000034 617.08 147.68 372.35 539.00 787.72 357.17 950.30 379.68 912.42 451.93 781.45 532.69 925.55 551.93
00001287 00000035 615.18 158.82 367.86 530.58 797.63 365.06 943.89 384.89 912.05 466.05 773.69 532.55 915.92 551.46
00001288 00000036 617.59 163.59 366.05 538.99 782.35 378.73 937.96 393.99 905.17 482.78 764.40 548.67 918.70 565.86
00001289 00000037 611.81 173.54 365.90 537.04 776.22 389.88 931.81 405.30 898.03 490.00 758.23 555.71 913.23 573.15
00001290 00000038 607.67 178.29 368.63 535.38 773.27 394.75 931.14 411.21 896.39 493.46 752.09 559.04 909.70 577.30
00001291 00000039 606.47 177.86 366.80 535.40 770.00 394.55 926.20 409.79 893.28 490.48 751.23 556.79 908.48 573.97
00001292 00000040 605.25 171.05 366.45 540.14 769.18 388.81 921.03 400.99 891.98 481.80 753.67 551.66 909.36 565.93
00001293 00000041 602.71 168.94 367.83 544.11 767.39 380.66 917.48 391.77 894.98 470.81 753.01 548.65 907.19 562.03
00001294 00000042 601.14 165.41 365.42 546.30 765.43 378.02 915.71 388.15 895.58 465.88 753.07 547.02 906.18 559.65
00001295 00000043 601.20 164.94 362.50 542.23 761.83 376.76 914.71 387.48 891.77 466.02 752.17 547.04 904.44 559.80
00001296 00000044 601.93 166.07 360.53 540.06 760.05 379.54 913.97 390.25 887.78 471.38 749.02 548.69 902.56 561.51
00001297 00000045 603.64 169.51 356.59 538.02 761.14 381.76 912.94 395.29 884.45 476.17 748.46 549.96 900.00 564.86
00001298 00000046 600.57 172.51 358.97 538.19 758.47 386.69 912.76 399.97 880.96 479.98 745.08 552.41 899.08 567.06
00001299 00000047 597.64 176.47 358.95 536.41 756.98 394.36 910.54 407.96 875.92 485.25 740.16 552.59 895.58 567.88
00001300 00000048 594.35 180.13 359.84 535.28 753.72 395.52 906.21 410.28 870.71 487.52 737.99 555.86 890.21 571.51
00001301 00000049 592.23 176.98 358.62 538.40 749.67 393.48 899.56 406.42 865.36 486.83 743.02 562.87 882.56 576.09
00001302 00000050 592.09 174.46 354.08 537.30 744.93 392.70 892.91 400.95 860.40 485.31 746.67 567.56 875.81 576.46
00001303 00000051 590.19 171.53 353.65 536.32 741.93 388.99 891.30 395.67 858.91 482.72 748.85 569.57 872.16 576.74
00001304 00000052 590.23 169.52 353.72 531.82 739.69 386.18 891.74 390.93 858.26 481.93 750.04 569.41 872.74 575.00
00001305 00000053 591.12 168.51 353.07 527.83 737.27 385.89 890.94 388.52 857.11 480.91 748.95 566.83 874.37 570.82
00001306 00000054 591.30 167.48 353.13 527.34 736.43 386.02 891.65 387.38 857.32 480.58 748.10 565.95 876.45 568.92
00001307 00000055 589.54 171.60 352.91 521.16 734.45 395.82 889.20 397.01 854.10 480.44 743.52 563.59 875.77 566.85
00001308 00000056 588.27 174.49 351.76 517.38 733.11 400.41 885.28 399.65 851.78 481.90 741.86 563.55 873.21 565.53
00001309 00000057 588.82 175.57 350.51 517.34 731.88 398.45 887.30 397.89 851.95 483.39 741.86 566.16 873.94 568.19
00001310 00000058 588.76 173.79 350.85 522.64 733.38 397.23 887.10 397.13 851.48 488.55 740.37 566.11 872.92 568.44
00001311 00000059 588.03 174.11 352.28 524.35 733.74 395.78 886.89 396.83 850.33 489.01 738.68 565.96 870.79 569.21
00001312 00000060 589.85 175.15 349.88 522.77 732.68 396.69 887.68 398.34 849.75 490.84 735.36 564.90 871.22 568.90
00001313 00000061 589.87 175.81 350.47 522.37 732.20 398.10 887.78 400.09 848.97 491.83 732.41 563.11 871.38 567.63
00001314 00000062 591.16 176.73 350.66 521.47 732.63 399.46 888.32 400.32 849.31 493.79 733.47 564.00 873.11 567.68
00001315 00000063 591.86 178.28 350.23 520.07 733.83 401.98 889.57 402.23 850.31 495.44 734.80 564.93 874.47 568.17
00001316 00000064 592.04 178.01 350.95 520.88 734.38 402.47 890.71 402.93 851.05 496.76 735.36 565.50 875.43 568.93
00001317 00000065 592.36 178.98 350.94 520.06 734.58 403.32 891.04 403.55 851.26 497.35 735.87 565.51 876.40 568.78
00001318 00000066 592.74 179.22 351.37 520.40 734.62 403.46 891.48 403.54 851.29 497.62 735.98 565.85 876.95 568.95
00001319 00000067 593.35 179.37 351.02 519.80 734.37 403.54 891.81 403.79 851.11 497.67 736.31 566.29 877.53 569.47
00001320 00000068 594.65 178.79 350.60 520.62 735.07 403.23 893.30 403.67 852.83 497.59 737.25 567.09 879.04 570.42
00001321 00000069 594.83 179.35 351.03 521.06 735.07 402.74 893.50 404.21 852.57 497.16 736.60 566.89 879.17 571.03
00001322 00000070 595.07 180.59 350.82 520.09 736.04 403.44 894.30 405.24 853.05 498.36 737.32 567.72 878.78 572.15
00001323 00000071 595.47 180.12 351.97 521.26 736.24 403.74 895.26 405.77 853.52 499.47 737.12 568.38 879.90 573.04
00001324 00000072 596.75 178.59 352.55 523.38 736.89 403.27 896.09 405.12 854.52 500.50 738.88 569.47 881.02 573.91
00001325 00000073 597.30 179.13 351.78 523.75 737.88 402.82 897.11 404.53 856.88 497.81 740.78 570.78 880.84 575.19
00001326 00000074 598.67 175.15 352.68 529.13 738.66 401.25 897.36 402.68 857.75 499.26 744.21 572.33 882.08 576.12
00001327 00000075 598.79 173.38 353.43 531.05 738.56 400.07 895.39 401.50 856.12 498.94 745.41 573.20 879.98 576.77
00001328 00000076 597.64 172.26 353.74 532.49 739.42 397.32 894.74 399.59 856.42 495.66 746.25 572.33 878.08 576.35
00001329 00000077 596.70 171.40 352.35 533.17 737.90 396.63 892.90 398.05 855.11 493.62 745.11 570.03 878.20 573.39
00001330 00000078 595.26 170.63 352.53 531.97 737.49 397.42 891.43 398.73 853.95 491.10 743.02 566.94 877.47 570.37
00001331 00000079 594.29 167.35 352.91 531.94 735.66 393.87 889.10 393.26 851.58 489.81 740.93 563.81 876.05 565.79
00001332 00000080 592.73 163.32 354.65 532.77 735.55 391.22 889.21 387.63 851.66 489.25 742.19 562.26 877.30 561.75
00001333 00000081 593.49 161.47 354.22 529.54 735.27 385.60 890.89 384.32 852.44 485.33 741.39 557.86 878.72 559.45
00001334 00000082 594.23 154.95 356.18 533.03 735.56 380.02 894.39 380.47 855.70 481.33 743.28 555.72 882.07 558.58
00001335 00000083 595.39 148.68 356.23 535.98 735.68 375.63 896.25 376.28 857.64 476.43 744.45 552.43 884.52 555.51
00001336 00000084 594.98 145.32 357.85 536.15 734.72 371.61 895.89 371.52 858.15 473.34 745.01 550.26 884.83 552.77
00001337 00000085 595.21 142.29 359.49 538.09 737.06 368.41 897.72 366.48 862.52 471.47 747.66 550.15 886.02 551.28
00001338 00000086 595.37 139.92 361.05 539.40 738.94 366.25 899.96 363.41 866.63 468.41 750.80 550.25 888.04 550.67
00001339 00000087 595.00 137.89 362.83 540.82 738.95 364.22 901.28 361.27 868.58 465.64 752.49 550.19 889.48 550.39
00001340 00000088 596.94 137.66 362.49 537.36 738.66 361.71 902.77 358.37 868.33 463.05 752.99 548.80 890.88 548.70
00001341 00000089 597.40 135.59 363.92 539.37 739.02 362.40 903.54 357.49 869.28 462.90 753.15 548.94 892.15 547.43
00001342 00000090 597.47 134.84 363.86 539.72 739.26 360.88 903.15 356.55 869.68 461.58 752.90 547.75 891.65 546.87
00001343 00000091 597.63 137.56 358.72 535.77 741.07 368.26 899.68 361.88 861.76 460.53 755.09 545.46 888.28 541.35
00001344 00000092 595.50 136.38 359.47 535.96 739.44 367.06 898.65 361.83 860.04 459.18 754.25 544.37 887.59 541.11
00001345 00000093 594.73 135.13 359.09 536.19 738.71 364.98 897.21 361.15 858.03 457.75 753.02 542.84 885.61 540.78
00001346 00000094 594.13 133.35 359.09 536.81 737.51 363.79 896.82 359.62 857.20 455.81 752.80 541.44 886.18 539.02
00001347 00000095 593.27 131.62 359.98 537.47 736.83 362.29 896.15 358.24 855.77 454.57 751.55 539.03 885.47 536.77
00001348 00000096 593.20 131.20 360.09 537.07 736.26 361.91 895.94 357.43 855.40 454.04 751.33 538.67 885.13 536.09
00001349 00000097 592.69 129.58 359.53 539.10 736.41 362.54 896.22 359.19 855.38 453.50 751.46 539.29 885.10 537.47
00001350 00000098 591.70 127.91 359.16 541.59 736.00 368.51 897.97 363.69 855.52 452.13 748.33 541.60 884.38 538.68
00001351 00000099 591.42 127.22 359.20 543.68 734.68 365.78 895.91 360.84 854.78 451.39 750.47 543.48 884.57 540.43
00001352 00000100 591.92 124.36 358.78 546.87 735.56 362.70 895.38 357.49 856.05 449.49 752.97 543.01 885.38 539.69
00001353 00000101 592.69 121.12 359.71 550.22 738.66 359.51 896.92 353.53 859.44 446.77 756.54 542.81 886.86 538.76
00001354 00000102 592.23 116.18 359.68 551.54 740.89 354.74 897.87 351.24 861.64 442.68 759.18 540.19 886.68 538.19
00001355 00000103 593.96 112.21 358.14 555.63 743.19 348.64 898.93 348.07 863.41 438.62 758.26 535.49 886.44 536.06
00001356 00000104 594.53 109.73 356.90 557.80 743.30 345.81 899.02 347.54 863.94 435.29 757.52 533.01 886.20 535.71
00001357 00000105 594.09 108.59 355.26 559.40 741.93 340.39 896.25 342.64 864.38 432.83 756.15 531.25 882.87 534.54
00001358 00000106 591.48 106.16 357.28 564.41 742.80 335.43 895.36 341.15 864.96 429.95 754.51 529.62 879.41 535.81
00001359 00000107 591.63 104.23 356.22 570.11 741.33 333.93 894.23 340.82 864.39 427.36 752.35 530.16 877.45 537.36
00001360 00000108 590.23 102.73 357.06 574.46 740.63 333.01 891.77 340.83 862.67 424.42 749.47 529.54 874.77 537.78
00001361 00000109 590.33 102.02 356.40 576.04 740.30 331.70 891.61 340.50 862.71 422.11 748.77 528.75 874.23 537.83
00001362 00000110 589.79 101.14 356.97 577.25 740.48 331.66 891.46 340.35 862.61 421.30 748.12 527.16 874.76 536.05
00001363 00000111 589.57 102.09 356.67 576.08 739.70 335.04 890.14 343.54 860.47 422.62 746.77 527.05 874.84 535.72
00001364 00000112 589.85 102.40 356.23 575.08 739.89 335.13 890.67 343.64 860.47 423.18 746.87 526.69 875.46 535.38
00001365 00000113 589.58 102.37 356.61 574.69 740.35 334.99 891.25 343.52 861.11 423.58 746.95 525.93 876.24 534.59
00001366 00000114 589.95 101.95 356.93 573.42 740.59 334.39 893.10 343.00 861.60 423.45 747.58 524.98 878.15 533.59
00001367 00000115 590.06 101.45 356.85 572.19 741.16 333.84 893.98 342.03 863.24 423.29 748.02 523.69 879.34 531.97
00001368 00000116 591.95 103.83 355.71 568.47 742.71 333.22 895.78 342.33 864.70 422.26 747.66 520.93 880.97 530.16
00001369 00000117 592.08 103.13 356.44 568.47 743.66 333.66 896.92 343.07 865.37 422.48 748.05 520.02 882.70 529.32
00001370 00000118 592.79 105.93 357.27 564.30 746.12 338.00 901.11 349.39 866.51 422.79 748.07 519.65 885.01 530.65
00001371 00000119 594.48 105.21 357.68 565.41 748.07 339.72 902.79 350.04 867.56 423.65 747.80 518.78 886.69 529.01
00001372 00000120 594.79 105.62 359.00 564.40 749.04 336.29 905.77 346.66 871.50 420.18 750.14 518.42 889.45 528.80
00001373 00000121 595.08 104.00 356.75 565.20 748.49 332.25 903.41 342.83 872.12 418.22 750.44 516.44 887.30 526.95
CROP_BBOX: 370 0 1233 838
