Video ID: 	YB-p5Toxai0
H: 	1080
W: 	1920
FPS: 	29.97002997002997

FRAME INDEX X0 Y0 W H [Landmarks (5 Points)]

00019621 00000000 816.57 106.50 434.06 629.57 933.61 316.38 1137.81 305.91 1046.28 407.50 973.16 567.24 1115.86 557.83
00019622 DELETE   819.33 114.36 427.55 632.68 930.58 331.16 1134.73 322.01 1038.66 424.67 965.32 575.69 1116.20 567.25
00019623 DELETE   813.06 116.67 428.76 645.11 917.66 345.58 1124.19 337.95 1022.25 448.08 947.79 586.44 1109.54 579.58
00019624 00000003 808.63 122.17 428.93 627.81 905.64 359.87 1113.54 354.45 996.71 462.62 930.05 591.29 1092.10 588.60
00019625 00000004 800.16 132.05 428.74 624.69 894.32 367.71 1101.73 363.65 981.10 486.00 918.31 608.73 1071.50 603.45
00019626 00000005 794.83 143.64 429.58 636.02 886.00 370.66 1089.66 371.95 963.13 493.48 906.23 620.18 1055.75 619.72
00019627 DELETE   790.80 162.16 435.62 631.04 877.15 380.98 1084.41 389.28 952.07 505.81 895.64 633.49 1041.25 639.48
00019628 DELETE   782.30 170.63 433.32 633.18 866.64 386.71 1068.00 396.12 940.04 518.13 885.40 640.29 1026.15 647.27
00019629 00000008 774.02 178.28 434.81 635.05 857.12 394.24 1061.65 406.73 931.59 525.38 873.63 647.35 1015.18 657.68
00019630 00000009 771.79 180.42 428.16 635.01 848.89 399.18 1049.57 409.36 909.25 532.87 857.74 652.86 1006.40 661.87
00019631 00000010 765.61 181.41 431.83 630.03 838.59 400.97 1043.20 413.24 898.47 536.21 844.92 647.23 1003.38 658.08
00019632 00000011 763.00 182.94 434.40 626.50 834.42 400.09 1039.01 411.97 893.63 535.54 840.70 644.76 1000.37 655.06
00019633 00000012 763.00 174.00 433.59 636.43 833.10 396.45 1043.83 408.88 894.16 536.30 842.21 644.57 1000.09 657.16
00019634 00000013 766.93 180.69 433.76 627.04 837.89 397.11 1039.75 411.00 894.30 536.32 843.26 639.40 1005.00 651.03
00019635 00000014 771.72 179.48 435.60 629.26 843.85 399.35 1046.38 411.74 903.05 538.50 850.81 638.58 1018.26 648.40
00019636 00000015 776.46 179.95 435.36 634.23 854.41 405.66 1055.82 414.02 918.08 539.00 863.49 640.14 1036.33 645.92
00019637 00000016 778.99 183.03 434.85 632.35 856.15 409.42 1058.76 417.70 921.66 544.49 866.88 643.85 1041.11 649.41
00019638 00000017 779.11 186.22 433.01 627.28 853.74 413.77 1055.78 421.00 918.96 547.61 865.67 645.80 1038.54 650.69
00019639 00000018 777.39 186.60 433.34 625.58 851.80 413.53 1052.89 421.43 915.56 547.74 862.15 644.09 1034.98 649.63
00019640 00000019 776.38 189.12 433.09 621.28 851.67 413.17 1052.22 422.20 914.96 547.44 860.55 642.68 1032.76 649.29
00019641 00000020 776.84 189.10 431.53 621.74 851.68 413.78 1052.66 423.15 915.52 548.28 860.87 644.58 1032.26 651.68
00019642 00000021 776.77 189.76 430.69 620.19 851.51 413.04 1052.32 422.05 915.55 546.99 861.26 645.60 1030.52 652.56
00019643 00000022 775.58 187.86 430.84 618.61 849.87 410.15 1049.88 417.86 913.70 541.85 860.02 643.26 1027.60 649.22
00019644 00000023 773.84 184.66 431.75 619.75 846.53 405.77 1046.61 414.44 907.86 538.04 855.55 639.84 1020.97 646.72
00019645 00000024 772.23 179.47 432.22 623.10 844.22 400.67 1044.25 409.10 905.05 535.10 855.02 637.06 1019.98 643.58
00019646 00000025 771.69 173.25 431.84 629.29 843.60 397.13 1043.32 403.28 905.14 531.26 856.52 635.20 1023.24 639.65
00019647 00000026 772.29 170.85 430.61 629.39 846.52 393.35 1044.60 398.32 908.26 526.15 858.60 630.44 1026.55 633.69
00019648 00000027 773.61 165.05 429.31 631.39 848.81 390.53 1044.77 395.47 909.06 520.85 861.03 628.38 1026.30 631.51
00019649 00000028 774.24 157.78 429.92 632.72 851.01 387.51 1047.58 388.31 913.29 510.05 864.28 626.31 1024.88 626.08
00019650 00000029 776.24 151.75 430.23 629.50 855.91 378.39 1055.84 380.89 924.35 499.04 870.86 619.07 1029.31 620.04
00019651 00000030 777.22 142.67 431.77 627.62 861.73 371.47 1062.45 370.54 938.14 485.32 882.88 609.97 1037.75 607.89
00019652 00000031 778.62 131.75 430.26 629.71 865.14 369.47 1060.65 366.29 941.97 473.15 889.81 602.49 1039.87 598.58
00019653 00000032 775.54 123.56 429.99 628.03 861.09 364.86 1055.89 356.87 941.94 461.46 892.99 591.44 1045.58 583.49
00019654 00000033 770.05 106.10 436.02 633.51 856.02 362.57 1051.14 348.44 934.75 456.10 885.17 580.93 1046.06 569.50
00019655 00000034 765.04 99.72 433.36 629.33 851.39 356.83 1044.24 343.05 927.77 447.42 877.93 570.53 1040.37 559.30
00019656 00000035 761.98 95.14 429.08 630.92 847.18 353.91 1042.09 339.05 923.79 438.66 869.30 567.93 1033.78 556.47
00019657 00000036 757.88 93.38 426.65 632.77 843.01 351.99 1038.56 336.43 920.18 434.41 862.76 566.62 1028.78 554.96
00019658 00000037 754.41 92.04 425.03 635.06 837.65 351.51 1036.12 336.66 916.07 436.06 855.62 566.81 1025.49 556.14
00019659 00000038 751.74 94.28 425.28 634.29 835.03 353.59 1031.84 339.31 913.63 437.81 853.57 567.00 1021.89 556.70
00019660 00000039 749.94 94.92 425.84 634.34 831.60 356.45 1027.47 341.39 909.85 440.80 852.27 569.02 1019.61 558.13
00019661 00000040 748.21 94.30 426.96 637.82 829.67 358.54 1024.40 342.71 906.77 441.91 851.13 571.23 1017.51 559.65
00019662 00000041 747.97 97.48 426.88 634.17 829.16 361.25 1021.52 344.66 905.72 443.14 852.87 573.15 1013.04 560.81
00019663 00000042 747.94 97.11 425.44 633.75 828.30 360.66 1020.07 344.56 903.20 439.95 850.41 572.39 1010.43 560.46
00019664 00000043 747.58 94.43 425.65 633.71 827.17 357.83 1018.49 341.34 900.10 432.59 847.41 569.26 1006.09 556.95
00019665 00000044 746.23 92.84 426.54 631.00 825.16 355.25 1019.70 338.03 899.52 427.19 844.96 565.68 1006.43 552.36
00019666 00000045 744.91 92.70 427.27 626.40 823.07 353.32 1019.51 335.12 897.93 424.37 843.43 562.67 1007.21 548.37
00019667 00000046 743.75 91.86 429.18 624.23 821.03 353.32 1020.27 335.36 896.83 425.88 841.25 561.45 1009.20 546.94
00019668 00000047 742.79 84.73 434.61 628.82 820.09 353.16 1019.21 337.14 890.08 421.68 838.92 560.04 1002.20 546.90
00019669 00000048 742.84 84.02 434.55 629.08 819.76 354.73 1019.86 339.64 890.80 425.77 838.29 561.41 1004.32 548.95
00019670 00000049 741.71 83.39 436.92 628.18 818.90 356.03 1019.99 340.41 892.17 428.55 838.43 562.50 1005.67 549.60
00019671 00000050 744.41 94.60 431.09 618.19 816.19 359.09 1022.07 341.60 894.40 438.55 839.13 565.09 1016.25 550.75
00019672 00000051 743.52 95.21 431.89 617.21 814.28 360.06 1021.56 342.83 892.69 440.66 837.22 566.16 1015.63 551.83
00019673 00000052 737.71 87.46 439.44 624.76 814.29 360.10 1016.06 345.90 886.05 437.12 833.66 564.52 1002.85 553.16
00019674 00000053 732.14 85.70 443.46 629.58 809.13 360.74 1009.63 345.01 879.66 435.34 828.07 563.91 994.58 551.69
00019675 00000054 722.50 99.50 438.21 621.30 798.68 356.24 997.84 343.46 864.53 439.96 821.30 563.30 989.96 552.32
00019676 DELETE   713.85 101.35 439.28 627.71 790.08 356.13 985.91 346.52 853.05 445.32 808.47 567.55 972.89 559.71
00019677 DELETE   704.65 99.17 438.40 642.65 779.41 357.05 977.76 349.33 841.20 449.60 794.35 576.05 959.67 569.94
00019678 00000057 697.60 103.40 440.78 652.05 772.78 355.45 974.11 352.93 834.29 458.98 783.41 581.27 956.33 579.44
00019679 DELETE   696.45 115.84 442.41 657.51 771.93 363.14 977.46 359.72 837.49 464.49 787.24 597.83 963.16 593.79
00019680 DELETE   693.13 128.13 445.98 656.76 772.82 375.79 981.36 372.17 845.22 482.80 788.80 610.99 971.38 606.54
00019681 DELETE   692.90 140.58 443.84 658.89 770.58 387.12 975.37 378.87 841.96 501.47 793.75 627.64 970.04 620.06
00019682 00000061 688.84 154.03 447.68 654.80 764.41 399.96 969.99 387.92 840.78 521.21 794.39 642.75 965.15 632.54
00019683 00000062 685.05 162.54 447.96 651.55 760.70 404.74 966.49 394.32 838.33 529.83 789.09 644.75 963.00 635.97
00019684 00000063 685.39 160.41 448.46 651.11 763.24 404.16 969.37 393.51 842.69 528.11 791.33 643.53 963.66 634.63
00019685 00000064 690.48 154.58 448.42 650.43 773.05 398.66 977.11 385.78 853.28 521.05 806.33 639.97 972.79 628.79
00019686 00000065 699.03 151.48 444.91 647.10 780.10 389.91 985.24 374.54 862.84 510.01 819.15 636.28 981.90 621.98
00019687 00000066 703.85 146.37 444.23 644.16 789.41 380.97 994.28 366.15 877.61 503.16 831.83 630.07 988.05 615.33
00019688 00000067 707.33 138.18 443.71 648.07 796.28 377.14 1003.08 359.81 889.38 496.15 841.66 625.28 999.72 608.52
00019689 00000068 712.52 136.09 441.53 643.00 803.59 377.33 1009.18 358.70 897.49 493.92 849.30 620.21 1008.02 602.39
00019690 00000069 720.05 132.24 440.68 644.08 810.86 380.36 1019.17 361.30 905.30 492.96 852.28 618.12 1019.15 600.28
00019691 00000070 727.58 129.86 446.51 657.34 817.83 380.21 1029.59 360.75 916.02 492.15 859.93 618.69 1031.54 600.66
00019692 00000071 735.91 134.10 443.47 653.57 824.26 382.25 1035.03 362.62 921.99 495.17 863.95 618.38 1041.07 599.76
00019693 00000072 740.27 137.51 442.64 653.04 825.62 383.92 1039.61 365.43 923.74 498.92 857.09 620.94 1044.60 604.65
00019694 00000073 740.78 144.44 441.49 647.68 828.19 385.32 1041.18 371.72 927.25 503.25 862.88 617.68 1046.52 604.03
00019695 00000074 737.04 145.41 444.89 645.08 824.38 387.31 1039.00 371.61 925.48 504.10 860.57 617.73 1046.85 602.35
00019696 00000075 731.39 143.64 447.49 647.19 821.29 386.82 1035.61 372.14 921.66 504.95 858.88 618.79 1040.14 604.45
00019697 00000076 726.17 142.43 448.42 649.61 817.98 385.35 1033.35 372.42 918.34 504.03 855.55 620.81 1032.63 608.35
00019698 00000077 723.51 141.37 448.59 652.57 815.41 384.30 1031.75 372.97 915.04 503.43 851.37 621.53 1027.07 610.65
00019699 00000078 719.23 143.83 449.27 652.89 812.66 383.12 1029.41 373.83 911.16 502.72 845.97 621.81 1023.14 612.67
00019700 00000079 716.90 152.70 445.48 643.24 810.78 386.24 1022.99 376.18 903.42 504.47 840.41 626.56 1019.49 615.01
00019701 00000080 713.49 151.19 446.78 641.95 807.17 387.77 1017.03 377.32 899.46 506.43 841.67 628.82 1012.86 617.10
00019702 00000081 712.16 145.61 444.92 645.05 806.13 391.07 1011.15 381.59 894.03 506.38 841.14 629.93 1004.59 619.66
00019703 00000082 710.29 135.18 446.12 649.27 805.19 383.74 1011.66 375.79 893.81 494.77 836.87 623.69 999.52 615.32
00019704 DELETE   711.44 122.93 442.99 653.96 801.37 372.89 1011.51 363.86 892.12 484.80 832.42 617.79 995.29 608.89
00019705 00000084 711.79 111.21 446.81 662.26 799.18 356.79 1014.48 349.44 886.94 465.20 827.44 609.15 992.83 601.35
00019706 00000085 712.54 98.73 454.77 672.75 797.72 348.84 1015.11 340.04 877.62 448.09 824.68 600.84 982.12 594.72
00019707 00000086 712.78 93.38 454.64 678.67 796.52 344.75 1013.78 336.29 872.93 442.93 821.33 596.78 982.16 590.95
00019708 00000087 713.54 95.72 453.35 679.94 793.96 344.57 1013.43 335.50 872.17 446.97 817.60 597.05 989.00 590.46
00019709 00000088 709.26 105.44 450.50 675.53 792.26 345.20 1013.83 334.99 878.71 453.28 815.83 601.73 998.84 590.31
00019710 00000089 706.95 112.32 450.67 670.62 790.07 351.43 1008.29 340.05 874.31 464.84 814.18 604.09 1000.41 591.52
00019711 00000090 702.50 120.82 451.24 669.04 783.36 355.40 1000.17 343.06 867.52 471.39 809.46 609.53 997.91 596.46
00019712 00000091 696.28 124.21 451.92 667.61 776.27 357.07 994.27 344.38 860.69 471.04 803.17 613.14 993.17 600.17
00019713 00000092 692.66 121.93 452.44 664.88 773.24 351.88 993.19 338.71 858.89 458.64 803.28 613.47 985.52 600.62
00019714 00000093 693.03 114.46 453.30 661.83 775.66 348.26 996.47 330.87 863.90 450.22 806.91 600.71 989.38 584.10
00019715 00000094 693.41 108.59 453.64 660.17 775.24 343.27 996.13 325.97 864.07 446.29 809.65 594.93 987.32 578.45
00019716 00000095 694.07 107.66 453.96 651.92 775.32 339.64 994.09 322.82 862.70 441.93 811.19 589.27 985.17 573.33
00019717 00000096 694.86 108.11 455.48 646.37 775.11 338.76 993.98 320.75 862.15 439.58 812.61 584.76 986.91 567.66
00019718 00000097 695.43 107.39 455.43 642.96 777.98 335.41 995.89 317.08 865.57 434.81 817.67 584.37 984.46 567.13
00019719 00000098 698.73 103.13 452.13 642.30 782.12 329.49 998.23 312.93 870.15 425.26 818.63 576.96 985.04 561.35
00019720 00000099 702.04 101.63 446.71 641.11 788.42 323.05 1003.70 309.28 875.99 414.06 819.56 568.88 987.66 555.97
00019721 00000100 703.20 100.28 446.23 640.59 791.08 318.40 1004.63 305.11 878.44 409.93 822.70 565.16 987.31 552.72
00019722 00000101 703.62 100.95 446.28 640.95 792.33 317.53 1005.02 305.22 879.45 410.06 823.59 565.80 985.61 554.20
00019723 00000102 704.95 99.61 446.52 641.94 792.86 319.47 1005.27 307.40 878.63 415.07 823.93 566.53 986.03 554.88
00019724 00000103 706.33 99.59 447.54 641.93 793.42 322.48 1008.22 308.93 880.07 419.60 823.84 566.13 992.03 552.81
00019725 00000104 710.76 99.47 446.24 641.41 797.66 323.49 1012.46 308.62 885.60 419.10 826.59 564.16 1001.11 549.74
00019726 00000105 715.79 84.11 458.82 652.38 801.80 332.05 1019.72 317.42 885.51 421.55 823.38 564.37 1003.55 552.49
00019727 00000106 724.36 82.59 453.61 655.28 811.23 342.31 1020.35 328.97 889.27 423.77 825.51 563.02 1008.59 552.23
00019728 00000107 724.88 90.64 453.96 651.29 812.69 354.42 1020.61 341.91 890.73 436.60 826.83 570.71 1012.95 560.40
00019729 00000108 723.99 98.19 455.88 660.93 812.32 360.65 1025.64 349.18 895.12 451.09 825.50 580.85 1018.89 571.83
00019730 DELETE   720.82 113.97 456.65 673.27 810.77 364.52 1028.32 356.87 899.18 475.62 828.92 596.04 1022.89 587.57
00019731 00000110 721.33 132.27 453.20 672.69 809.85 373.30 1029.20 370.30 896.80 494.39 824.72 610.10 1020.42 606.41
00019732 00000111 720.82 137.96 451.80 666.32 811.67 375.86 1030.98 376.26 898.63 498.52 824.52 609.30 1020.66 608.56
00019733 00000112 717.55 131.21 455.96 663.29 809.35 374.81 1030.66 374.14 899.77 496.58 823.31 602.74 1022.16 600.72
00019734 00000113 708.88 133.18 455.85 647.16 805.22 375.67 1023.02 374.14 895.48 490.70 815.02 594.84 1022.38 590.61
00019735 00000114 706.11 130.97 452.78 642.20 799.84 370.02 1016.46 367.78 891.04 485.60 810.60 588.16 1018.66 583.46
00019736 00000115 703.32 128.60 449.71 641.65 793.67 369.00 1005.92 362.31 885.45 482.71 806.82 583.61 1014.30 575.58
00019737 00000116 701.80 131.94 447.71 639.10 791.81 370.16 1000.79 361.87 882.82 483.13 804.66 581.53 1013.05 572.19
00019738 00000117 701.13 132.54 447.27 639.98 791.63 371.95 999.06 362.48 882.68 485.60 805.41 581.23 1014.05 570.97
00019739 00000118 701.82 135.89 446.52 638.83 792.24 371.31 998.70 362.23 882.87 485.87 805.30 581.48 1013.78 571.45
00019740 00000119 701.49 136.73 445.12 641.30 791.88 370.67 998.03 361.88 882.50 485.14 804.48 582.72 1013.48 572.85
00019741 00000120 699.65 136.60 443.91 644.56 789.88 372.83 995.67 364.12 881.51 487.14 802.62 585.22 1012.14 575.44
00019742 00000121 697.16 139.80 442.44 643.24 785.82 376.52 992.27 366.96 878.12 492.06 800.93 590.72 1010.61 579.94
00019743 00000122 693.74 143.64 444.42 640.73 781.97 380.73 987.79 369.84 873.68 496.81 799.72 596.49 1007.04 584.59
00019744 00000123 691.20 149.40 443.83 638.20 779.59 384.29 985.74 373.51 870.28 502.11 798.09 600.98 1004.61 589.25
00019745 00000124 689.45 153.71 436.02 635.81 776.74 388.77 979.73 380.90 863.60 512.03 794.06 607.03 994.77 598.09
00019746 00000125 681.38 162.63 437.30 629.97 768.55 394.79 972.27 385.51 854.97 520.49 786.83 615.10 981.83 605.80
00019747 DELETE   669.62 167.89 439.28 632.16 755.46 403.77 958.45 392.91 842.27 530.13 776.43 622.99 967.73 612.85
00019748 DELETE   653.06 179.74 444.34 620.57 730.93 414.20 938.41 399.92 821.40 546.83 765.50 635.53 941.75 624.76
00019749 00000128 634.05 189.18 450.53 605.75 724.77 425.36 926.09 391.53 830.17 533.99 782.98 652.94 937.61 623.42
00019750 00000129 626.15 189.82 437.44 545.24 705.85 419.18 905.80 397.42 803.55 533.82 746.06 610.25 916.66 591.60
00019751 DELETE   629.47 172.89 448.58 609.06 708.66 409.64 900.66 389.46 786.19 528.72 756.45 634.82 905.83 616.43
00019752 00000131 628.30 163.59 437.27 632.62 712.01 398.74 907.48 375.17 798.47 519.60 760.58 638.02 917.91 616.25
00019753 00000132 628.44 163.00 441.59 632.40 711.00 394.57 909.76 372.04 798.37 518.62 759.26 635.06 922.01 613.97
CROP_BBOX: 340 0 1540 1080
