Video ID: 	M-rHYWDOZH8
H: 	1080
W: 	1920
FPS: 	29.97002997002997

FRAME INDEX X0 Y0 W H [Landmarks (5 Points)]

00001511 00000000 851.90 207.33 449.44 651.59 923.60 489.66 1117.06 498.89 986.87 623.00 935.66 692.01 1108.65 699.11
00001512 00000001 846.30 209.89 442.26 650.05 915.01 497.90 1110.93 509.31 978.48 628.44 925.39 699.22 1105.27 706.91
00001513 00000002 843.25 215.30 442.82 645.21 910.76 499.40 1103.06 512.55 970.04 630.28 923.06 700.15 1099.11 708.92
00001514 00000003 841.85 216.59 442.85 645.76 907.43 497.80 1098.59 512.20 964.66 631.55 920.80 701.37 1095.66 711.14
00001515 00000004 842.09 215.25 448.77 644.46 907.39 489.49 1096.53 504.79 960.42 630.96 921.48 693.02 1090.36 703.94
00001516 00000005 840.38 214.71 449.92 646.29 907.08 489.87 1096.24 504.02 961.74 630.13 922.22 693.57 1091.36 703.57
00001517 00000006 840.02 212.61 449.19 651.43 908.06 490.52 1096.28 501.33 964.03 627.68 924.36 694.99 1092.55 702.16
00001518 00000007 837.99 213.06 443.06 655.20 905.94 497.90 1092.94 507.90 963.99 627.32 924.44 707.35 1090.44 713.67
00001519 DELETE   834.40 212.56 444.79 656.45 899.90 497.46 1089.94 505.69 958.57 629.63 919.44 709.99 1087.35 714.66
00001520 DELETE   835.18 204.86 441.65 657.28 890.19 493.69 1075.63 502.69 948.66 635.82 914.82 702.98 1072.64 710.67
00001521 00000010 830.14 209.37 444.48 651.55 890.20 492.09 1079.21 503.89 947.22 627.29 910.71 701.48 1072.42 711.41
00001522 00000011 823.56 209.06 444.37 648.25 882.55 487.95 1076.91 502.17 943.90 625.70 900.54 697.74 1068.66 709.72
00001523 00000012 823.24 206.43 442.06 646.40 881.11 486.08 1074.65 499.43 940.67 622.24 900.50 696.48 1064.36 708.04
00001524 DELETE   820.90 203.10 444.46 648.86 881.19 484.29 1075.91 494.03 942.73 618.71 903.86 697.49 1065.46 706.11
00001525 00000014 822.39 202.12 445.57 651.03 885.02 484.06 1074.70 491.58 943.66 616.78 909.96 698.53 1067.36 705.10
00001526 00000015 822.34 203.48 446.55 654.42 888.13 483.90 1075.64 488.82 945.02 613.14 914.85 700.28 1068.55 704.61
00001527 00000016 820.64 203.66 444.59 651.75 885.00 486.63 1074.73 493.36 945.48 615.06 907.96 695.62 1069.72 701.37
00001528 00000017 817.80 205.73 445.90 648.63 881.92 487.78 1074.64 497.28 944.45 618.72 901.22 691.56 1072.78 699.09
00001529 00000018 815.98 208.03 447.24 647.81 881.30 487.77 1073.18 498.53 942.46 620.73 900.98 692.26 1072.66 700.58
00001530 00000019 819.31 208.86 445.24 653.36 882.52 488.22 1071.67 500.18 939.78 622.09 901.88 695.44 1068.56 705.17
00001531 00000020 822.43 208.95 441.88 658.12 883.77 487.80 1071.05 500.64 937.72 621.14 902.37 699.90 1063.81 710.67
00001532 00000021 822.42 209.36 442.63 659.53 884.44 487.86 1072.75 500.40 938.79 621.04 903.17 700.42 1066.60 710.70
00001533 00000022 819.46 210.31 443.93 652.42 883.47 486.88 1075.83 501.52 942.06 622.72 899.46 695.26 1070.12 707.22
00001534 00000023 819.94 207.15 445.24 655.25 884.25 488.66 1080.20 502.13 945.49 622.89 900.02 697.29 1073.26 708.30
00001535 00000024 822.31 207.90 443.92 657.53 884.16 490.15 1079.10 503.38 945.26 623.71 899.74 698.89 1072.40 709.79
00001536 00000025 824.41 202.61 442.09 666.45 880.87 488.31 1067.15 500.59 936.59 626.38 896.13 700.23 1057.18 711.00
00001537 00000026 818.03 208.67 446.59 661.72 874.83 490.14 1059.79 501.90 926.74 624.89 890.74 705.05 1047.30 715.80
00001538 DELETE   807.08 213.56 454.94 655.47 863.86 488.93 1052.79 499.88 916.34 627.26 882.93 706.32 1041.84 716.27
00001539 DELETE   799.30 216.16 460.29 655.31 857.69 491.11 1048.04 500.56 908.84 629.68 878.48 708.85 1038.68 717.33
00001540 DELETE   795.12 218.80 456.26 655.19 854.42 491.65 1046.37 501.84 905.45 630.16 871.03 706.48 1037.15 715.33
00001541 00000030 791.14 218.93 455.91 660.09 850.44 495.32 1039.82 506.85 899.40 630.80 865.46 707.96 1033.76 717.66
00001542 00000031 791.58 215.90 453.91 667.88 848.89 498.90 1043.41 513.83 899.15 638.02 861.79 711.46 1035.65 723.77
00001543 00000032 789.42 221.76 456.26 664.42 850.31 503.67 1046.83 518.46 904.21 644.52 867.41 716.41 1038.77 728.56
00001544 DELETE   785.69 227.68 451.16 663.68 847.65 511.65 1047.83 522.24 914.30 652.46 868.74 721.91 1042.95 729.97
00001545 00000034 785.17 226.59 450.02 668.22 847.91 514.40 1052.56 525.78 918.97 656.99 870.09 725.39 1049.49 734.18
00001546 00000035 785.31 226.33 447.84 674.23 849.22 515.88 1054.74 525.30 922.96 658.75 873.78 730.18 1053.68 737.66
00001547 00000036 786.36 233.37 451.36 666.26 855.98 519.63 1058.53 529.55 922.91 660.91 881.34 732.79 1051.34 741.29
00001548 00000037 788.29 230.29 449.70 669.36 857.87 520.46 1059.77 529.72 925.27 660.86 881.51 731.76 1053.50 739.72
00001549 00000038 788.20 230.05 450.33 665.47 857.30 519.21 1060.99 529.36 926.04 660.24 880.78 729.83 1054.05 738.53
00001550 00000039 788.92 227.20 450.59 667.68 856.99 516.60 1060.78 527.70 924.70 659.16 878.56 727.74 1053.41 737.22
00001551 00000040 786.62 220.32 449.58 673.64 851.45 514.31 1058.44 522.43 926.23 654.81 874.19 726.55 1055.99 732.61
00001552 00000041 786.14 227.81 454.14 661.58 854.44 512.60 1054.03 522.72 919.37 651.98 875.45 721.79 1047.95 730.11
00001553 00000042 785.95 223.40 456.08 667.11 855.06 511.05 1052.42 519.54 917.30 645.07 874.51 721.09 1046.45 728.16
00001554 00000043 786.65 220.35 456.93 667.57 857.68 506.78 1052.55 515.61 918.24 640.91 876.25 717.48 1046.85 725.05
00001555 00000044 789.08 216.38 455.19 673.44 859.55 506.37 1053.76 514.26 919.57 638.22 876.49 715.59 1047.76 722.63
00001556 00000045 791.87 213.42 455.91 675.88 863.19 502.97 1057.65 512.42 922.74 635.62 879.06 713.21 1050.20 721.65
00001557 00000046 797.54 213.84 454.47 675.97 868.23 501.51 1062.83 509.88 928.90 633.41 882.18 712.47 1053.83 720.36
00001558 00000047 803.56 211.00 450.86 681.35 872.79 500.66 1066.86 508.54 934.69 634.25 887.40 712.81 1059.89 720.42
00001559 00000048 804.09 208.22 449.84 684.15 877.08 500.25 1070.57 507.28 941.22 633.61 892.22 712.04 1063.14 718.92
00001560 00000049 806.37 209.08 449.80 682.46 879.98 500.55 1072.90 508.11 943.88 635.06 895.63 713.24 1065.73 720.41
00001561 00000050 805.41 209.32 449.51 682.06 881.25 502.58 1075.04 509.62 947.65 637.46 897.64 713.56 1068.77 720.12
00001562 00000051 803.33 212.28 450.13 679.30 880.71 507.86 1076.98 514.88 951.19 644.80 898.64 716.25 1071.46 722.64
00001563 00000052 802.33 215.25 449.77 678.72 878.09 513.14 1077.76 520.13 950.39 650.06 896.70 719.78 1072.00 726.12
00001564 00000053 801.07 216.28 449.53 678.25 878.05 513.92 1076.53 520.93 950.22 652.56 897.76 721.34 1070.55 727.74
00001565 00000054 799.15 216.87 451.67 679.63 876.01 516.03 1075.81 522.40 948.63 655.48 897.12 723.87 1070.47 729.67
00001566 00000055 796.72 218.04 451.91 678.78 874.71 516.17 1074.35 522.41 947.04 654.96 896.25 725.12 1067.27 730.92
00001567 00000056 795.77 218.38 450.82 677.19 873.39 515.03 1073.89 520.56 946.49 654.07 895.21 725.74 1065.09 731.04
00001568 00000057 795.44 216.46 450.73 676.84 873.06 514.61 1075.66 520.30 947.67 653.73 894.10 726.29 1064.22 731.68
00001569 00000058 795.64 209.20 446.54 681.33 874.34 514.39 1082.32 519.69 958.95 650.42 892.98 725.80 1074.09 729.24
00001570 00000059 794.29 208.02 448.51 679.04 873.46 511.66 1082.71 517.32 957.77 647.35 893.74 725.04 1073.65 728.53
00001571 00000060 794.01 209.57 449.11 672.16 870.90 508.01 1076.08 514.10 948.98 645.87 889.70 720.08 1064.28 725.60
00001572 00000061 790.44 209.92 453.43 667.02 868.40 500.91 1069.31 505.82 941.90 636.83 883.16 711.09 1060.01 715.73
00001573 00000062 788.71 205.93 455.86 670.33 866.59 495.68 1063.87 501.32 933.58 626.79 879.97 707.59 1048.58 713.02
00001574 DELETE   788.83 201.10 454.79 671.61 864.65 490.92 1062.21 495.32 931.29 621.33 877.62 700.78 1049.15 705.15
00001575 00000064 789.02 204.27 453.97 667.91 863.18 488.98 1057.22 493.79 925.60 618.99 874.84 698.23 1048.23 702.82
00001576 00000065 786.34 203.39 453.31 669.76 860.30 488.86 1055.44 492.51 924.11 618.56 872.30 697.25 1048.63 700.60
00001577 00000066 783.20 203.30 453.04 670.55 857.84 489.39 1053.25 492.74 922.31 618.81 870.08 699.49 1044.22 702.58
00001578 00000067 782.69 204.86 453.17 668.53 858.26 491.38 1051.52 496.23 920.23 619.07 869.51 701.94 1037.96 706.39
00001579 DELETE   781.91 205.47 454.54 669.21 856.82 492.39 1052.00 497.46 919.25 621.01 868.93 705.26 1037.44 709.84
00001580 DELETE   782.71 208.49 453.41 665.77 857.01 493.48 1050.77 499.25 918.76 623.55 870.62 706.46 1037.96 711.55
00001581 00000070 782.18 212.30 454.34 664.26 854.29 496.45 1048.13 504.97 916.11 632.30 869.58 709.46 1039.38 716.59
00001582 00000071 783.01 216.89 454.68 660.20 851.66 506.35 1050.25 517.27 914.64 643.71 866.64 714.93 1039.96 724.03
00001583 DELETE   783.48 221.68 447.46 665.54 841.16 517.18 1051.99 529.94 915.44 655.37 859.70 724.69 1043.46 734.85
00001584 DELETE   781.06 223.65 449.40 667.60 841.53 521.10 1055.17 535.15 916.05 662.93 859.90 731.43 1043.32 743.40
00001585 00000074 782.25 225.09 448.06 670.64 842.35 520.37 1055.45 534.63 917.38 664.41 859.99 731.17 1047.47 743.23
00001586 00000075 781.87 225.03 448.09 671.84 843.17 519.62 1055.07 534.02 917.38 662.91 860.97 730.47 1047.48 742.53
00001587 00000076 782.29 225.39 448.33 663.95 843.80 513.66 1053.36 528.61 916.28 657.97 863.42 720.71 1049.37 732.60
00001588 00000077 781.95 224.95 454.97 655.52 851.22 506.53 1052.60 521.33 914.87 647.01 865.45 711.22 1044.13 723.32
00001589 DELETE   778.98 217.14 457.54 661.31 851.08 500.07 1048.76 514.95 911.25 638.07 862.63 704.69 1040.40 716.80
00001590 00000079 778.19 215.94 456.83 665.01 849.58 498.65 1047.34 512.01 910.78 636.90 860.27 703.49 1040.47 714.37
00001591 00000080 778.63 213.45 453.57 668.37 848.93 497.02 1046.28 511.91 908.50 636.67 857.41 703.77 1037.04 715.97
00001592 00000081 777.02 209.92 450.67 676.78 839.89 500.77 1042.19 514.77 907.57 641.54 853.81 711.67 1033.90 722.91
00001593 00000082 776.58 222.46 456.20 665.41 843.13 504.30 1043.95 523.24 900.81 646.70 853.24 714.24 1030.41 729.53
00001594 00000083 776.07 217.77 451.84 672.17 837.81 506.70 1040.20 524.72 904.57 650.68 851.65 714.54 1031.49 729.36
00001595 00000084 776.52 217.44 451.88 671.98 838.10 508.95 1042.82 525.90 906.06 650.93 852.88 717.00 1033.54 730.88
00001596 00000085 777.73 218.75 452.21 666.05 838.48 507.88 1044.42 524.83 906.72 650.66 854.61 717.57 1033.29 731.54
00001597 00000086 778.93 215.78 451.87 663.52 839.90 505.31 1044.16 521.51 907.85 646.27 856.92 716.20 1031.03 729.57
00001598 00000087 779.70 213.00 452.28 666.50 840.54 503.03 1044.58 517.07 908.62 643.41 859.50 717.22 1030.61 728.77
00001599 00000088 782.05 218.51 456.52 661.50 847.51 504.44 1046.48 518.88 906.07 642.12 863.60 718.98 1032.04 731.16
00001600 00000089 781.09 215.73 449.75 666.08 841.02 503.54 1042.12 515.82 908.11 643.33 861.97 718.99 1030.04 729.04
00001601 00000090 781.00 214.34 450.10 667.73 841.43 503.40 1040.05 516.38 906.45 642.77 861.62 718.27 1027.84 728.88
00001602 00000091 779.28 218.03 457.87 662.50 843.23 501.08 1039.82 517.36 897.81 644.06 860.21 717.11 1026.49 730.63
00001603 00000092 777.26 219.02 457.25 663.99 841.83 499.02 1034.77 517.39 890.51 639.94 855.83 713.14 1020.68 727.95
00001604 00000093 778.47 216.43 446.44 665.70 832.98 495.63 1021.02 514.63 887.43 643.81 851.66 710.62 1008.77 726.56
00001605 DELETE   775.19 217.17 447.93 663.94 827.88 493.87 1012.63 514.38 877.43 642.42 846.84 709.33 1001.37 726.73
00001606 00000095 768.57 218.87 451.68 658.73 826.32 492.79 1013.14 514.08 865.24 635.70 839.17 709.79 999.54 725.90
00001607 00000096 763.37 215.78 452.96 659.34 820.08 491.22 1006.17 512.19 857.86 633.09 834.40 708.70 992.53 724.14
00001608 00000097 770.35 210.21 445.95 662.86 818.34 491.67 995.35 514.71 858.02 636.32 837.86 704.27 985.61 723.78
00001609 00000098 760.06 215.43 457.15 656.66 813.26 487.72 1002.05 510.07 851.64 634.65 829.94 707.56 992.51 723.88
00001610 00000099 767.06 209.15 449.36 659.92 811.21 491.47 991.46 513.10 853.60 637.29 831.28 703.54 986.74 721.61
00001611 00000100 764.44 209.34 449.59 659.06 809.21 491.93 989.98 513.41 852.65 637.03 826.66 702.99 984.24 721.22
00001612 00000101 764.08 208.10 450.05 664.26 810.34 492.71 989.86 511.19 852.96 635.92 828.84 705.57 984.04 721.42
00001613 00000102 765.61 208.89 450.07 668.76 811.58 495.29 989.92 511.67 852.74 640.27 834.95 711.88 986.26 725.86
00001614 00000103 764.68 213.16 452.18 666.87 812.13 496.09 993.86 512.37 855.84 644.37 839.35 714.93 991.68 728.64
00001615 00000104 765.99 217.06 449.38 668.30 813.92 500.23 995.08 515.36 859.29 647.33 842.32 718.84 994.68 731.56
00001616 00000105 765.44 218.68 448.06 668.94 816.34 503.71 998.79 515.99 864.58 648.35 845.18 722.63 998.35 732.91
00001617 00000106 763.74 220.69 450.12 666.83 817.16 503.18 1000.02 514.17 866.42 647.69 847.54 722.80 1000.78 731.83
00001618 00000107 763.90 215.92 448.69 670.78 817.39 503.83 998.71 512.94 867.27 646.77 847.69 722.40 1001.75 729.96
00001619 00000108 764.07 209.63 445.29 675.61 817.14 503.07 995.79 510.44 865.11 642.93 847.09 721.24 998.54 727.41
00001620 00000109 763.60 205.00 445.14 677.08 815.01 498.57 996.06 507.34 863.41 641.10 845.18 720.08 995.41 727.60
00001621 00000110 759.99 202.10 446.68 671.26 811.80 494.81 992.38 504.41 863.50 638.47 840.76 712.72 992.97 720.93
00001622 00000111 758.68 199.90 445.59 663.67 809.78 490.25 994.40 499.40 865.38 631.18 834.10 706.28 992.32 714.05
00001623 00000112 758.59 206.55 444.83 656.64 814.57 490.51 1004.84 500.46 870.73 624.08 837.50 705.47 998.60 713.79
00001624 00000113 758.24 202.55 445.34 660.12 815.50 490.74 1004.20 500.06 871.23 623.47 839.60 703.95 999.26 711.58
00001625 00000114 756.92 204.83 447.86 656.75 816.08 489.62 1003.13 499.07 871.04 621.50 841.66 701.98 1000.55 709.59
00001626 00000115 756.89 204.73 446.93 658.98 817.54 490.36 1003.33 498.93 872.61 621.15 843.27 700.60 1003.18 707.38
00001627 00000116 758.45 207.00 446.17 658.48 819.24 492.33 1002.95 499.88 872.31 621.25 843.45 701.25 1003.12 707.31
00001628 00000117 758.19 206.62 448.16 658.47 819.63 493.34 1004.60 501.26 873.00 621.51 843.99 702.73 1004.23 708.96
00001629 00000118 760.13 199.69 445.90 662.94 818.96 489.91 999.84 497.25 871.15 623.59 843.75 698.47 1000.12 704.29
00001630 00000119 761.15 202.05 444.40 659.49 820.90 491.11 1000.70 499.28 873.06 623.42 844.27 698.25 1000.01 704.79
00001631 00000120 758.02 207.71 444.87 654.24 824.02 494.16 1006.65 502.55 877.60 621.05 843.52 703.53 1005.26 707.96
00001632 00000121 760.11 210.11 442.01 654.67 826.79 494.75 1008.65 502.63 880.30 621.16 844.93 703.47 1008.25 707.50
00001633 00000122 763.59 205.73 441.36 660.04 823.79 491.57 1003.20 500.15 876.31 625.70 846.40 700.93 1000.77 708.17
00001634 00000123 758.99 205.82 441.48 661.50 824.96 496.21 1007.98 504.60 880.23 624.33 843.93 708.08 1004.74 712.86
00001635 00000124 758.40 206.65 440.53 660.85 822.69 497.24 1007.67 505.36 879.80 626.60 842.83 710.29 1005.12 714.98
00001636 00000125 758.47 205.80 438.62 661.58 820.99 496.17 1006.55 504.61 878.02 626.97 840.83 711.20 1003.50 716.25
00001637 00000126 758.92 210.90 443.62 655.96 819.20 493.23 1006.53 503.75 873.22 627.22 843.04 709.35 998.13 718.08
CROP_BBOX: 529 0 1597 1053
