Video ID: 	yHaDzSCCQoM
H: 	1080
W: 	1920
FPS: 	25.0

FRAME INDEX X0 Y0 W H [Landmarks (5 Points)]

00000960 00000000 817.19 232.06 529.00 691.56 887.00 506.30 1111.28 479.04 960.09 625.61 934.88 762.57 1109.60 741.56
00000961 00000001 817.95 230.14 537.58 697.29 897.54 502.65 1124.19 475.46 975.88 621.89 949.13 763.50 1120.53 742.43
00000962 00000002 826.69 229.66 537.40 699.03 906.06 501.98 1135.34 472.80 987.54 618.20 959.17 766.62 1129.93 743.89
00000963 00000003 832.92 231.17 537.69 699.49 914.14 500.02 1145.76 473.06 998.51 619.79 965.24 768.49 1138.51 747.50
00000964 00000004 839.99 231.53 534.52 694.56 921.27 497.88 1153.38 472.46 1005.23 616.82 969.94 765.54 1143.96 745.83
00000965 00000005 846.91 229.26 533.49 689.40 928.24 492.81 1160.59 469.91 1011.36 613.97 974.21 759.93 1144.77 742.54
00000966 00000006 849.03 211.04 535.56 708.10 928.89 483.15 1161.45 466.04 1008.16 609.13 968.99 755.09 1145.34 741.95
00000967 00000007 855.25 209.01 533.26 705.26 933.06 479.38 1166.86 464.45 1012.02 606.60 970.87 751.00 1148.33 739.60
00000968 00000008 862.15 208.05 528.53 705.75 937.77 480.67 1171.30 467.76 1014.70 608.60 972.07 750.58 1151.38 740.91
00000969 00000009 868.63 217.74 527.04 701.13 949.11 488.66 1181.80 474.72 1027.10 611.11 982.47 753.25 1154.30 743.44
00000970 00000010 873.66 211.05 528.87 711.38 955.75 491.25 1191.55 478.47 1039.58 616.29 989.46 757.22 1169.42 747.20
00000971 DELETE   879.38 217.79 536.42 707.54 972.27 494.44 1212.98 480.97 1065.65 622.75 1009.98 758.22 1195.39 747.10
00000972 00000012 881.92 223.79 535.11 706.04 974.84 493.95 1218.62 482.13 1069.42 623.63 1009.92 758.91 1198.37 749.27
00000973 DELETE   877.97 223.49 530.07 715.70 964.36 490.18 1198.94 485.77 1046.47 625.31 993.07 759.61 1173.42 756.46
00000974 00000014 869.41 229.40 532.07 714.75 955.92 490.49 1182.74 485.94 1028.37 621.39 983.36 759.72 1153.92 756.94
00000975 00000015 868.10 230.78 533.65 710.55 956.33 488.56 1183.64 479.44 1031.89 613.55 987.76 758.44 1158.61 751.67
00000976 00000016 864.79 223.03 535.91 711.68 955.22 487.70 1187.16 474.21 1036.32 608.81 988.28 756.93 1161.81 746.61
00000977 DELETE   858.76 206.62 533.36 720.01 943.10 489.01 1171.81 470.81 1018.06 603.71 975.80 753.66 1151.37 740.02
00000978 DELETE   837.73 203.96 537.22 716.49 917.46 494.33 1140.79 468.85 986.12 599.26 955.15 753.52 1125.28 734.42
00000979 00000019 824.79 204.50 535.82 716.99 899.92 486.75 1124.50 462.63 965.36 598.74 938.12 749.92 1106.73 732.32
00000980 00000020 817.71 202.16 536.38 718.77 892.73 488.38 1116.16 460.35 957.85 600.29 935.38 753.62 1100.29 732.92
00000981 00000021 810.60 205.18 538.52 715.33 884.03 496.82 1107.84 463.35 951.14 607.23 931.62 759.58 1098.37 734.28
00000982 00000022 804.05 217.83 537.39 706.43 873.37 508.33 1098.55 473.32 942.45 621.86 923.32 769.78 1093.61 743.26
00000983 00000023 794.69 226.82 539.29 701.48 867.81 512.69 1088.98 482.13 935.88 626.42 920.11 772.09 1081.98 747.52
00000984 00000024 788.88 221.99 532.96 698.47 856.55 511.10 1078.68 475.99 925.35 617.22 907.28 769.76 1071.26 742.44
00000985 00000025 784.24 211.52 534.62 707.31 850.69 507.28 1073.73 467.78 917.97 608.56 901.64 767.37 1065.71 736.79
00000986 00000026 784.82 208.58 533.37 705.58 850.79 504.97 1072.59 464.66 917.53 604.98 902.83 763.38 1066.52 732.09
00000987 00000027 789.50 207.64 532.54 705.43 853.31 501.49 1076.02 462.15 919.75 603.39 904.55 761.42 1069.80 731.01
00000988 00000028 795.67 209.93 531.78 702.75 858.46 503.04 1080.99 464.28 924.41 606.47 910.76 761.70 1077.23 731.43
00000989 00000029 799.98 216.62 532.61 698.00 865.36 506.33 1087.34 469.13 931.36 609.97 917.52 763.38 1081.35 734.23
00000990 00000030 802.69 225.55 530.97 691.57 868.68 510.44 1091.48 475.50 934.21 620.39 915.75 767.33 1088.53 741.37
00000991 00000031 801.75 224.93 534.94 698.21 867.11 516.67 1097.06 481.41 936.12 628.29 919.66 777.72 1090.83 749.46
00000992 00000032 801.62 227.02 533.40 695.41 867.28 517.28 1096.87 483.84 934.50 629.61 918.21 777.78 1089.17 750.84
00000993 00000033 802.69 222.85 532.99 696.85 867.95 512.94 1097.08 481.68 934.87 626.16 916.08 772.50 1088.80 747.44
00000994 00000034 804.92 228.68 528.15 690.64 870.07 513.46 1092.67 483.97 935.56 630.04 913.52 769.61 1086.70 748.26
00000995 00000035 800.94 229.55 535.24 704.08 868.11 520.85 1095.68 488.46 933.98 636.58 921.82 785.07 1089.80 758.87
00000996 00000036 800.18 234.72 537.24 712.13 872.50 527.60 1095.37 494.71 935.10 641.46 928.39 792.55 1092.60 765.66
00000997 00000037 801.51 234.83 535.84 708.50 872.24 524.33 1097.22 492.57 936.06 641.10 927.31 790.11 1093.17 764.31
00000998 00000038 805.58 229.28 536.52 709.04 873.20 518.85 1100.80 485.07 938.98 634.09 928.96 785.82 1095.97 758.77
00000999 00000039 805.74 230.58 535.88 700.35 879.54 512.93 1100.86 481.34 947.09 631.78 931.18 775.26 1098.09 750.74
00001000 00000040 808.49 228.44 537.81 699.24 883.33 509.65 1106.41 480.07 952.60 628.80 934.35 772.42 1100.82 749.67
00001001 00000041 815.58 226.44 533.85 698.35 886.77 506.58 1113.35 478.02 957.96 623.77 935.10 770.28 1103.00 748.49
00001002 00000042 820.92 224.27 531.80 693.25 889.19 503.47 1119.28 475.60 964.02 623.26 937.28 766.69 1107.65 745.76
00001003 00000043 823.93 220.85 533.73 692.97 893.83 501.35 1124.22 472.63 969.67 620.20 942.73 763.28 1114.16 741.67
00001004 00000044 826.86 223.15 535.07 694.97 897.13 501.27 1127.52 471.46 974.66 621.48 949.53 766.18 1121.36 743.39
00001005 00000045 825.59 224.91 538.97 703.69 901.08 504.33 1129.95 474.36 979.24 622.80 954.15 770.90 1122.86 747.70
00001006 00000046 825.73 226.31 538.04 703.78 901.90 505.57 1129.86 476.37 980.49 624.93 954.62 772.14 1121.26 749.63
00001007 00000047 826.42 225.22 536.23 701.30 901.20 504.77 1129.40 476.18 978.89 623.68 952.87 769.12 1121.08 747.18
00001008 00000048 826.02 225.04 536.58 697.68 900.75 503.52 1128.27 473.75 977.37 619.77 952.97 766.26 1119.16 743.44
00001009 00000049 826.45 224.27 536.81 696.26 900.52 502.52 1128.49 471.50 977.36 617.54 953.73 765.34 1119.69 741.50
00001010 00000050 826.37 224.49 536.42 696.01 900.50 501.95 1128.58 471.18 977.60 618.09 954.00 765.38 1119.33 741.80
00001011 00000051 826.23 224.54 535.83 696.11 900.46 503.45 1128.56 473.36 978.07 620.68 954.12 766.27 1120.40 743.16
00001012 00000052 825.38 225.66 536.57 696.72 900.79 504.96 1128.99 474.49 978.87 621.68 954.62 767.57 1120.24 744.12
00001013 00000053 825.48 224.91 536.98 697.03 900.42 505.16 1128.78 474.53 978.52 621.94 954.32 767.67 1121.04 744.05
00001014 00000054 826.75 225.70 534.87 695.59 900.99 503.91 1128.42 474.27 978.09 621.54 953.68 766.56 1119.47 743.86
00001015 00000055 827.47 224.25 535.14 696.24 900.67 503.53 1128.43 473.64 977.80 621.16 953.75 766.10 1121.20 743.11
00001016 00000056 828.20 223.66 533.98 696.23 900.74 503.66 1128.53 473.68 978.06 621.54 953.65 766.12 1120.73 743.13
00001017 00000057 828.19 225.45 534.02 693.51 900.05 503.84 1129.10 474.23 978.25 622.75 953.57 766.64 1121.90 743.85
00001018 00000058 828.85 224.40 533.84 693.86 899.85 503.43 1129.15 474.49 977.70 623.05 952.79 766.29 1121.76 744.06
00001019 00000059 828.91 225.42 533.75 692.03 900.20 503.71 1128.95 475.12 977.80 623.80 953.12 766.13 1121.08 744.18
00001020 00000060 828.85 224.09 533.56 692.54 900.28 504.58 1129.27 475.95 978.15 624.48 953.31 766.61 1121.37 744.62
00001021 00000061 829.13 224.88 532.14 690.93 898.87 507.08 1126.57 476.88 975.93 625.10 952.03 767.39 1119.44 744.13
00001022 00000062 829.78 225.55 529.94 689.72 899.09 507.69 1125.54 477.86 975.38 625.93 951.40 767.45 1117.76 744.54
00001023 00000063 829.11 225.86 530.40 690.16 897.77 507.66 1123.45 480.30 972.06 629.22 948.47 767.26 1115.37 746.48
00001024 00000064 827.73 221.44 531.41 699.59 892.21 505.81 1120.37 481.57 960.46 635.08 942.93 775.49 1111.23 756.69
00001025 00000065 825.22 232.48 527.51 683.60 890.42 508.32 1115.93 484.53 962.21 636.74 939.38 767.89 1106.83 750.17
00001026 00000066 824.24 229.23 526.51 685.66 888.06 505.77 1110.68 482.85 952.85 631.03 932.03 763.34 1099.23 746.55
00001027 00000067 825.61 220.74 524.83 694.38 886.41 500.07 1107.92 476.65 945.01 621.71 926.74 759.41 1094.40 742.27
00001028 00000068 828.07 219.05 519.11 686.61 885.83 495.86 1108.40 472.49 944.01 615.01 924.17 754.92 1091.56 738.18
00001029 00000069 829.92 216.27 517.93 687.24 886.88 493.63 1109.25 470.67 943.74 612.31 924.87 753.19 1090.69 736.93
00001030 00000070 830.81 216.69 518.09 686.22 888.10 492.90 1110.82 470.80 946.19 612.30 925.57 752.84 1091.38 737.35
00001031 00000071 828.48 206.99 526.19 699.68 893.01 490.52 1113.88 467.40 950.44 608.52 929.62 754.66 1095.83 736.91
00001032 00000072 828.84 204.45 526.61 702.59 895.41 487.78 1115.43 465.60 951.19 604.66 929.40 750.71 1097.25 733.75
00001033 00000073 829.82 204.84 527.53 698.76 896.03 485.86 1116.67 464.42 952.84 603.02 929.41 748.52 1097.13 732.31
00001034 00000074 830.77 205.04 528.33 697.99 897.06 484.03 1119.11 464.08 955.12 603.38 929.73 746.55 1100.02 731.60
00001035 00000075 832.54 204.09 527.71 697.95 898.60 484.17 1121.81 464.04 958.60 603.75 931.37 746.76 1103.22 731.82
00001036 00000076 836.88 213.53 523.75 690.73 901.47 488.50 1127.06 467.12 965.88 605.06 937.66 746.78 1107.34 731.70
00001037 00000077 841.27 220.10 529.16 688.01 912.37 491.04 1137.53 466.56 981.22 605.26 956.12 751.67 1118.28 733.75
00001038 00000078 850.01 222.30 531.06 691.12 924.32 492.05 1153.44 466.91 999.48 606.47 968.40 756.36 1129.93 737.78
00001039 00000079 855.50 220.88 529.49 692.51 932.65 491.58 1161.60 469.63 1007.87 607.03 974.28 754.88 1137.11 738.80
00001040 00000080 860.94 220.58 526.61 689.95 935.66 486.48 1163.76 466.66 1009.18 604.87 975.40 749.80 1138.96 735.42
00001041 00000081 860.32 205.42 528.34 707.04 933.32 479.69 1160.59 463.35 1003.00 602.73 968.43 749.09 1139.86 736.84
00001042 00000082 861.66 201.89 528.34 707.31 935.09 475.56 1161.37 458.72 1004.68 597.73 969.01 745.62 1139.10 732.94
00001043 00000083 864.63 200.13 526.54 705.51 935.85 474.27 1163.85 458.60 1006.41 598.61 969.06 743.16 1142.07 731.43
00001044 00000084 868.11 204.66 523.20 699.26 936.33 478.26 1167.24 465.03 1008.81 604.20 968.58 743.34 1146.17 733.88
00001045 00000085 867.68 207.65 522.70 696.06 936.10 483.10 1167.06 470.03 1008.05 610.84 968.93 747.73 1145.35 738.10
00001046 00000086 865.79 207.56 523.81 694.59 933.92 481.92 1167.38 468.00 1007.31 607.71 967.24 746.07 1146.06 735.99
00001047 00000087 861.88 204.61 526.96 697.79 932.77 477.19 1165.89 463.49 1007.94 605.65 968.14 745.91 1144.80 735.86
00001048 00000088 859.61 201.73 527.23 696.70 931.68 474.42 1165.31 461.25 1009.19 605.72 967.40 742.08 1146.81 732.37
00001049 00000089 859.02 202.51 527.88 694.17 931.37 474.58 1165.88 460.44 1010.67 605.86 968.22 742.53 1147.23 732.10
00001050 00000090 859.14 201.73 527.88 696.40 932.43 474.76 1166.45 460.66 1011.53 605.78 969.45 742.50 1148.57 732.12
00001051 00000091 859.11 202.84 527.70 699.89 931.24 475.54 1164.73 460.39 1009.23 606.66 969.30 746.38 1147.97 734.86
00001052 00000092 859.36 205.94 529.58 706.78 932.67 479.01 1163.41 463.63 1005.55 606.44 969.56 751.96 1142.96 740.43
00001053 00000093 860.32 222.94 527.90 688.68 937.01 484.80 1166.17 466.92 1010.41 604.14 975.98 751.28 1138.30 738.73
00001054 00000094 859.86 226.24 527.11 689.31 935.35 489.45 1163.19 471.06 1007.12 607.00 973.59 755.25 1135.81 742.30
00001055 00000095 858.06 226.78 526.83 690.41 933.04 490.85 1161.10 472.77 1005.06 609.38 970.24 756.36 1132.92 743.67
00001056 00000096 857.37 227.20 525.74 690.16 932.15 491.22 1159.73 473.81 1003.54 608.92 968.36 755.99 1130.25 743.84
00001057 00000097 858.63 225.43 524.62 690.38 932.39 491.50 1159.52 473.92 1003.35 608.87 967.96 755.73 1130.57 743.40
00001058 00000098 859.82 225.92 524.74 688.62 932.98 492.51 1159.91 475.66 1003.24 610.35 968.44 755.24 1132.35 743.40
00001059 00000099 861.04 225.45 525.49 689.67 935.05 495.55 1162.88 479.85 1005.57 614.62 970.74 757.74 1135.43 746.63
00001060 00000100 863.73 230.27 525.69 688.90 937.60 498.69 1164.70 485.16 1007.98 622.75 974.46 761.17 1140.72 751.48
00001061 00000101 863.30 233.30 527.83 692.47 939.40 501.30 1168.42 491.37 1012.47 633.49 976.83 764.70 1145.01 757.85
00001062 00000102 865.37 236.46 528.22 694.87 942.23 503.90 1170.19 495.19 1015.34 638.33 979.36 767.96 1147.81 761.92
00001063 00000103 869.08 235.07 526.49 695.72 944.34 501.96 1172.88 495.35 1017.70 638.81 979.98 766.34 1148.94 762.10
00001064 00000104 876.74 231.87 523.42 692.11 949.06 496.40 1178.93 491.75 1019.47 628.73 980.12 759.86 1149.19 757.26
00001065 00000105 876.53 227.79 525.01 685.57 953.94 488.19 1186.71 481.28 1024.57 616.44 982.47 753.74 1152.02 751.09
00001066 00000106 880.62 222.43 522.54 688.47 959.73 483.08 1194.20 477.10 1032.17 610.65 985.86 748.94 1157.15 746.70
00001067 00000107 884.00 224.12 524.10 688.95 963.86 483.76 1200.46 478.12 1039.36 612.98 991.33 751.48 1163.05 749.38
00001068 00000108 892.40 218.70 524.96 703.83 970.86 493.07 1205.83 494.32 1041.48 625.71 995.86 760.08 1173.25 762.06
00001069 DELETE   894.99 235.24 527.35 698.45 975.42 511.35 1213.84 516.57 1049.34 644.98 1001.44 773.02 1181.74 778.16
00001070 DELETE   894.81 257.69 532.89 690.83 976.68 528.51 1219.70 536.49 1056.22 670.56 1005.83 791.23 1185.80 798.58
00001071 00000111 890.49 269.27 535.11 696.92 974.44 538.91 1219.72 549.25 1056.82 684.21 1002.46 802.45 1186.31 811.52
00001072 00000112 885.83 271.17 533.37 695.50 971.24 539.62 1215.69 554.27 1051.03 685.79 996.71 801.58 1178.59 814.45
00001073 00000113 880.16 266.37 531.08 695.61 965.80 538.63 1209.48 553.37 1044.90 683.01 990.66 798.42 1172.52 811.16
00001074 00000114 879.57 260.06 527.83 687.66 961.60 531.56 1202.39 544.80 1036.00 674.31 985.81 789.88 1165.92 801.21
00001075 DELETE   880.56 252.70 522.93 690.07 958.12 522.86 1199.14 532.60 1029.88 659.86 982.07 784.43 1163.04 793.13
00001076 DELETE   876.82 236.25 530.46 699.68 957.59 507.66 1195.40 516.60 1024.15 641.78 979.89 773.37 1155.31 781.28
00001077 00000117 878.19 221.78 526.08 698.67 958.91 494.59 1194.24 501.02 1026.50 625.38 978.21 758.22 1155.23 764.16
00001078 00000118 885.39 222.63 518.45 693.71 957.63 491.26 1191.07 493.64 1029.26 620.17 976.44 750.61 1152.89 754.20
00001079 00000119 880.30 223.94 519.33 686.02 957.41 484.99 1190.42 488.75 1024.25 618.86 975.16 748.27 1150.32 753.76
00001080 00000120 878.74 218.53 524.43 693.48 959.70 478.44 1191.66 478.32 1027.44 608.55 980.24 745.00 1153.52 747.57
00001081 00000121 879.37 214.98 524.54 692.91 962.33 473.16 1193.78 471.91 1030.45 600.47 981.44 738.52 1153.60 740.35
00001082 00000122 883.88 212.60 519.66 686.48 963.02 467.99 1194.05 466.84 1028.57 593.91 981.47 731.66 1154.08 733.78
00001083 00000123 891.07 198.25 515.44 697.52 959.75 464.69 1187.18 462.34 1024.80 587.41 980.43 724.97 1153.01 724.06
00001084 00000124 890.68 197.90 517.09 694.52 958.61 465.40 1187.29 461.48 1024.70 586.64 980.01 723.78 1154.12 721.54
00001085 00000125 887.62 197.16 518.92 695.33 955.82 468.65 1187.29 462.57 1024.70 589.00 977.70 728.06 1152.62 724.21
00001086 00000126 877.91 215.73 524.60 681.89 955.06 473.83 1192.59 469.82 1019.54 600.81 977.61 740.59 1151.29 737.93
00001087 00000127 881.06 226.75 516.44 673.63 949.98 488.35 1183.44 484.01 1020.07 621.58 976.21 751.54 1149.30 751.19
00001088 00000128 877.61 232.72 522.14 684.20 944.39 501.41 1179.25 497.99 1019.19 638.26 974.90 764.30 1144.24 763.07
00001089 00000129 868.98 238.47 522.20 681.46 939.49 505.73 1169.92 500.60 1013.15 642.73 973.16 767.41 1137.50 764.82
CROP_BBOX: 567 0 1644 1080
