Video ID: 	HtQgQkTY6bk
H: 	1080
W: 	1920
FPS: 	25.0

FRAME INDEX X0 Y0 W H [Landmarks (5 Points)]

00028244 00000000 379.77 122.27 429.68 568.50 617.14 294.59 775.01 346.16 793.71 370.94 658.12 518.65 781.01 558.03
00028245 00000001 380.79 136.89 430.76 561.35 618.22 304.43 772.37 351.06 792.73 376.90 656.69 519.56 780.36 554.73
00028246 DELETE   379.22 123.35 430.20 569.67 622.61 309.84 777.83 358.50 799.10 381.51 655.65 519.36 784.11 556.86
00028247 00000003 378.68 123.27 430.60 564.29 622.58 308.52 776.20 355.12 800.68 378.78 659.95 519.19 784.91 554.86
00028248 DELETE   378.75 122.18 430.24 565.76 618.44 303.54 774.39 350.06 800.25 371.67 660.81 517.49 786.06 552.84
00028249 00000005 380.54 112.39 429.54 579.26 619.42 301.18 777.13 347.52 798.97 373.24 657.80 518.61 783.87 553.66
00028250 00000006 378.89 116.44 431.66 578.51 616.15 302.19 777.69 348.81 798.75 373.09 656.35 519.12 786.51 554.40
00028251 00000007 377.24 116.04 433.54 583.75 615.84 304.57 778.64 350.39 801.57 375.94 653.12 520.13 787.21 555.37
00028252 00000008 378.15 118.20 435.59 588.93 613.06 304.90 778.86 345.93 802.48 374.73 652.81 523.24 792.00 554.50
00028253 00000009 377.89 115.68 436.24 593.77 612.73 304.82 778.48 344.01 802.40 374.99 652.67 524.48 791.68 554.07
00028254 00000010 377.26 110.73 438.16 598.51 613.03 305.64 778.54 344.44 803.41 373.64 654.84 525.62 793.39 554.65
00028255 00000011 375.52 106.99 439.51 602.81 613.78 304.89 778.30 344.11 804.83 372.21 655.14 524.94 793.53 554.41
00028256 00000012 373.90 110.69 441.25 601.12 612.64 304.45 777.63 342.23 803.49 372.84 655.04 525.10 794.28 553.37
00028257 00000013 373.74 111.36 440.20 599.42 612.88 304.83 776.88 342.62 804.19 373.10 654.55 524.53 793.49 552.95
00028258 00000014 373.49 112.94 440.27 599.44 612.33 304.36 777.41 342.80 804.28 371.62 654.70 524.23 794.53 553.23
00028259 00000015 372.94 115.00 441.34 594.81 611.50 304.69 777.64 343.52 803.55 371.22 654.61 524.25 795.56 553.79
00028260 00000016 373.29 116.09 441.50 594.10 611.18 304.36 777.43 342.91 803.52 371.02 654.52 523.95 795.71 553.23
00028261 00000017 373.18 115.91 441.70 593.83 612.61 304.13 777.13 343.18 803.23 371.56 653.32 522.49 793.86 552.33
00028262 00000018 374.50 120.01 441.14 592.80 610.53 303.92 776.59 342.05 800.59 372.38 651.19 523.15 793.88 552.11
00028263 00000019 373.39 114.65 442.77 598.98 612.75 303.64 777.37 341.75 802.08 373.14 652.10 523.46 793.08 552.46
00028264 00000020 373.60 112.55 443.98 601.44 613.81 303.86 777.78 341.49 803.13 372.64 652.98 523.94 793.57 552.53
00028265 00000021 374.20 111.87 442.45 603.71 613.64 303.78 778.43 341.42 802.84 373.42 651.94 524.21 793.66 552.67
00028266 00000022 373.22 111.70 444.82 602.73 613.69 303.70 778.55 341.17 803.46 373.19 651.50 523.88 793.93 552.34
00028267 00000023 373.58 115.05 443.74 598.20 613.00 302.74 778.51 341.23 802.63 372.62 651.09 523.16 793.15 552.43
00028268 00000024 373.33 119.08 443.63 595.05 611.90 302.42 777.34 343.34 800.99 371.17 649.76 522.15 792.46 553.25
00028269 00000025 372.12 115.16 445.19 594.86 611.16 302.79 778.92 345.50 802.11 367.94 649.60 520.28 795.36 553.20
00028270 00000026 373.37 117.41 442.19 590.69 608.82 302.75 777.15 344.50 800.93 365.93 651.35 519.91 796.76 551.95
00028271 00000027 371.51 115.75 442.53 590.84 607.55 302.20 775.00 345.66 798.97 365.11 649.90 520.31 793.69 553.57
00028272 00000028 371.65 112.40 441.99 593.15 605.49 300.73 773.90 343.17 794.91 364.71 647.09 518.86 791.29 551.42
00028273 00000029 371.06 107.89 441.27 597.23 604.06 298.25 772.91 339.99 793.44 363.57 645.89 517.86 790.48 549.86
00028274 00000030 372.14 108.47 440.51 594.35 603.85 297.52 771.81 335.95 792.21 364.68 647.18 518.56 789.64 547.92
00028275 00000031 370.68 109.91 441.87 591.60 603.76 296.45 771.31 335.88 793.52 364.16 646.63 517.15 789.81 547.58
00028276 00000032 370.58 113.84 442.56 586.53 602.32 294.99 772.34 336.58 790.00 363.20 644.48 515.84 789.49 547.92
00028277 00000033 371.34 112.20 441.22 585.58 603.21 294.68 772.94 336.29 789.64 363.13 645.08 515.69 789.03 547.75
00028278 00000034 371.63 111.12 441.48 587.09 603.35 294.76 773.55 335.26 789.96 364.09 645.22 516.60 789.45 547.72
00028279 00000035 371.81 109.83 439.72 585.43 604.76 295.21 773.86 336.31 791.01 365.09 647.48 516.28 789.31 547.69
00028280 00000036 370.80 106.48 441.07 589.24 604.32 295.57 774.79 336.83 791.67 365.49 647.25 517.90 790.09 549.36
00028281 00000037 370.74 105.58 442.31 597.13 605.21 297.76 774.92 339.06 793.70 363.62 648.85 520.15 791.34 551.59
00028282 00000038 371.29 109.13 442.40 597.07 604.74 298.60 771.78 339.25 789.85 364.84 647.01 518.55 787.53 549.42
00028283 00000039 372.33 112.72 441.99 596.42 604.22 299.02 771.92 338.80 788.49 365.34 645.59 518.31 787.37 548.79
00028284 00000040 373.76 108.67 441.52 599.09 607.57 299.07 776.63 337.72 789.26 369.94 644.68 519.65 789.02 549.11
00028285 00000041 373.01 105.67 444.22 604.98 609.09 300.91 777.16 336.26 792.92 373.28 645.14 522.92 792.07 549.92
00028286 00000042 376.26 112.21 442.31 595.86 612.29 304.71 779.67 336.00 796.00 377.19 653.68 526.12 797.57 549.52
00028287 00000043 382.91 106.33 436.03 593.98 619.25 309.56 787.00 339.15 797.51 385.40 659.30 530.62 798.44 552.12
00028288 00000044 386.61 103.33 434.47 592.39 625.12 313.34 791.41 340.16 799.13 392.82 664.86 535.40 799.24 554.51
00028289 00000045 386.03 100.87 437.57 600.55 625.93 318.10 792.10 345.54 799.20 396.87 664.19 537.61 798.77 557.11
00028290 00000046 389.21 108.57 434.34 592.71 626.01 320.86 790.53 346.73 797.33 400.70 665.19 540.03 797.40 558.09
00028291 00000047 390.55 104.70 435.14 600.92 626.61 322.23 793.94 350.15 797.06 403.23 662.87 541.79 796.47 561.44
00028292 00000048 393.02 104.55 436.84 611.19 625.83 324.46 797.63 356.25 794.26 405.72 655.81 544.86 796.71 567.90
00028293 00000049 392.87 107.72 438.73 616.44 620.95 325.67 794.53 355.72 789.08 408.14 650.99 548.80 796.44 570.45
00028294 00000050 391.81 112.83 438.18 611.89 618.29 328.57 794.57 355.43 786.00 413.01 649.80 552.66 795.76 571.90
00028295 00000051 391.94 119.04 438.02 602.94 612.25 331.95 790.07 356.67 777.53 415.86 643.09 552.50 792.53 570.60
00028296 00000052 392.27 125.31 436.07 598.22 610.85 334.10 789.00 356.51 776.16 421.56 639.87 553.58 790.50 570.31
00028297 00000053 390.59 122.89 437.22 597.44 609.55 334.79 786.12 353.25 773.38 425.38 640.22 557.15 788.84 570.94
00028298 00000054 391.12 132.44 436.53 592.16 603.11 336.03 783.50 346.41 766.83 437.98 636.81 567.58 785.89 575.02
00028299 00000055 385.76 126.40 439.55 603.15 597.10 342.01 778.26 347.67 759.69 442.01 631.68 571.01 783.88 574.33
00028300 00000056 381.25 142.47 442.18 601.66 591.24 347.71 773.83 350.66 754.39 447.69 622.00 576.97 778.53 578.27
00028301 00000057 380.92 151.52 440.42 597.13 585.59 350.61 773.47 353.07 751.25 455.17 615.69 582.23 773.11 583.16
00028302 00000058 376.34 140.77 442.21 613.43 583.56 353.29 769.81 353.72 746.98 459.72 610.92 584.09 767.64 583.45
00028303 00000059 375.40 142.45 441.04 614.13 579.23 357.69 768.01 355.36 743.37 463.66 606.81 587.00 767.05 584.29
00028304 00000060 373.88 139.88 443.32 614.25 577.27 360.16 769.25 355.48 743.30 468.63 605.11 587.26 769.11 582.75
00028305 00000061 371.89 140.28 445.08 615.42 576.65 364.06 768.59 358.82 742.27 471.49 604.76 589.62 769.29 584.62
00028306 00000062 369.03 143.23 447.15 611.45 578.73 367.52 769.11 360.78 745.45 474.26 608.25 590.92 770.66 584.70
00028307 00000063 371.13 140.60 444.47 614.96 580.44 367.65 769.33 362.44 744.43 473.61 609.20 591.30 767.38 586.18
00028308 00000064 372.71 137.68 441.37 613.43 581.18 365.43 770.78 361.43 748.21 471.70 615.71 591.42 769.79 586.88
00028309 00000065 372.76 139.34 440.60 610.29 581.61 365.01 769.34 360.81 748.01 472.56 620.32 593.41 769.46 588.44
00028310 00000066 375.15 134.98 439.24 612.31 585.51 365.96 772.17 362.17 750.11 472.78 623.80 593.19 771.89 588.41
00028311 00000067 376.80 131.56 438.99 614.93 587.11 365.90 774.12 360.02 753.22 472.82 626.54 594.88 775.09 588.38
00028312 00000068 377.38 129.63 439.74 614.51 590.22 362.90 774.69 359.09 756.58 467.27 630.60 593.76 776.26 589.12
00028313 00000069 378.54 142.17 438.00 593.75 590.71 356.82 771.94 353.99 758.31 455.24 637.46 586.94 779.00 582.74
00028314 00000070 377.87 147.72 437.26 580.99 586.44 350.49 762.29 342.65 756.01 445.32 638.15 578.53 776.92 570.53
00028315 00000071 377.78 154.84 435.15 569.22 582.51 344.21 755.57 333.09 753.57 438.80 634.35 572.95 775.20 562.41
00028316 DELETE   367.48 129.65 435.81 580.45 575.48 340.79 753.75 332.32 740.61 432.24 628.21 565.18 768.23 555.92
00028317 00000073 344.49 135.54 445.55 586.04 561.89 336.26 734.98 333.64 728.05 425.33 609.82 559.72 754.57 556.07
00028318 DELETE   336.79 128.70 445.58 582.63 546.64 356.79 720.71 336.84 722.64 429.21 603.67 566.11 752.15 545.95
00028319 00000075 336.06 124.92 446.71 596.50 534.84 357.65 713.08 335.87 704.57 429.29 602.96 572.40 750.47 550.23
00028320 00000076 333.68 125.60 427.83 595.06 527.39 350.09 703.78 339.64 696.81 429.63 587.86 571.54 726.17 559.23
00028321 00000077 340.58 132.69 412.72 565.05 530.35 342.36 705.08 337.19 684.85 432.58 581.83 564.00 709.40 557.07
00028322 00000078 337.91 135.67 410.21 556.78 528.45 341.33 705.31 327.58 685.12 444.08 582.99 567.24 706.88 554.19
00028323 00000079 337.86 135.25 408.89 574.20 524.49 344.44 701.58 332.68 689.47 437.58 586.60 573.83 712.54 561.78
00028324 00000080 332.67 125.35 431.57 592.14 522.81 355.58 700.86 328.96 687.20 437.66 585.11 571.49 730.39 546.51
00028325 00000081 324.50 133.87 443.88 599.05 528.68 355.63 698.95 340.43 696.35 433.70 582.75 571.15 726.52 555.87
00028326 00000082 327.31 126.46 442.76 593.62 537.65 369.97 714.86 356.72 712.24 425.95 594.77 568.49 743.82 554.11
00028327 00000083 326.58 129.29 445.27 604.68 531.14 368.06 715.05 358.48 711.41 424.51 592.65 577.19 745.97 565.13
00028328 00000084 328.46 129.80 444.51 601.88 529.39 361.88 715.35 349.34 706.10 428.25 593.39 580.24 743.53 565.31
00028329 00000085 332.19 132.18 437.87 596.38 528.42 357.77 722.30 349.05 705.73 433.78 587.13 581.61 742.30 570.32
00028330 00000086 332.53 134.24 438.06 596.68 527.74 355.70 722.22 348.20 701.84 439.63 578.19 580.88 737.53 571.15
00028331 00000087 329.32 124.65 442.61 609.50 525.69 358.38 716.78 343.52 696.58 441.30 580.52 583.54 737.56 567.75
00028332 00000088 326.50 129.30 447.37 610.91 523.51 356.58 708.79 336.10 696.24 444.12 576.08 582.95 733.49 563.24
00028333 00000089 325.88 124.59 447.21 614.64 523.46 357.34 707.56 334.75 694.45 444.24 576.59 582.48 733.32 560.95
00028334 00000090 324.35 126.05 448.09 613.22 523.75 359.43 706.47 334.83 695.45 445.26 573.90 581.32 731.74 558.51
00028335 00000091 323.49 123.34 449.69 619.11 523.18 361.42 705.27 336.09 693.99 445.25 572.72 581.50 731.34 558.04
00028336 00000092 324.36 124.35 447.91 621.74 522.35 361.82 703.57 333.26 695.66 446.71 570.21 582.44 730.80 556.81
00028337 00000093 322.68 128.59 449.26 618.76 521.33 361.50 703.08 332.33 694.39 447.11 568.81 582.29 730.47 556.03
00028338 00000094 323.64 131.16 447.59 615.73 520.10 362.84 700.65 330.89 693.06 448.15 567.39 582.74 729.63 554.31
00028339 00000095 323.71 129.81 446.79 615.03 520.13 362.87 700.31 329.50 693.96 447.42 569.00 582.00 730.68 552.30
00028340 00000096 324.99 130.01 446.12 612.89 519.80 362.00 702.00 331.08 693.40 446.75 569.07 581.00 732.38 553.31
00028341 00000097 326.22 132.61 444.04 606.51 519.50 360.95 701.01 329.35 693.60 445.74 570.11 579.86 731.55 551.64
00028342 00000098 325.99 131.16 444.28 606.48 518.71 361.37 700.58 328.08 692.90 445.69 571.77 580.97 732.01 551.41
00028343 00000099 325.69 135.09 445.67 600.89 519.97 360.70 700.29 330.38 692.22 445.26 575.73 581.56 730.40 554.07
00028344 00000100 325.22 131.24 446.56 602.12 525.40 366.40 702.94 340.40 693.64 445.02 578.29 580.93 728.64 557.01
00028345 00000101 325.77 133.63 445.99 601.03 523.43 363.13 701.57 338.16 692.95 443.87 578.02 581.60 729.24 558.41
00028346 00000102 324.80 128.21 445.84 604.92 522.35 360.99 700.46 333.37 693.07 441.48 577.91 580.50 730.62 555.09
00028347 00000103 325.70 127.47 443.30 598.73 523.16 359.32 700.39 330.86 692.68 439.64 580.97 578.52 730.34 552.28
00028348 00000104 325.34 124.82 445.00 603.22 522.22 358.78 699.03 328.38 692.77 438.20 582.00 578.53 731.22 550.60
00028349 00000105 325.48 124.54 444.83 597.02 522.11 359.09 699.19 327.74 692.79 437.09 582.52 576.61 730.78 548.01
00028350 00000106 325.19 121.41 444.98 598.77 522.27 358.44 698.60 327.29 691.54 435.69 582.97 574.98 730.30 546.42
00028351 00000107 324.60 117.45 445.76 604.20 521.93 357.61 698.49 326.92 691.77 434.50 582.97 575.07 731.06 546.69
00028352 00000108 323.04 111.41 448.97 614.44 521.77 358.94 698.66 327.34 691.02 434.15 581.51 574.52 732.86 545.14
00028353 00000109 323.02 119.30 447.77 605.65 524.32 359.86 700.09 330.13 695.78 433.10 582.83 572.47 732.83 544.44
00028354 00000110 319.78 116.34 451.44 607.95 526.96 370.65 703.82 345.44 691.63 435.09 577.67 571.02 730.76 547.25
00028355 00000111 318.20 115.49 453.50 612.50 523.87 368.84 701.41 341.84 690.39 434.38 575.31 571.75 730.67 546.59
00028356 00000112 320.84 119.53 449.01 607.19 521.51 363.21 699.60 334.41 689.55 433.78 575.54 571.61 730.99 544.81
00028357 00000113 321.54 121.72 446.87 606.36 520.56 359.82 699.49 330.68 688.71 434.86 574.91 571.72 731.49 544.68
00028358 00000114 321.60 119.08 447.60 609.98 519.20 358.99 699.11 329.12 686.52 434.78 575.14 572.40 732.10 544.73
00028359 00000115 321.21 117.95 448.75 611.12 518.60 359.25 697.43 328.30 686.00 434.52 576.39 573.39 732.41 544.78
00028360 00000116 319.97 114.31 449.97 616.23 519.86 359.90 697.69 329.38 687.17 434.54 579.86 575.71 732.74 547.07
00028361 00000117 320.64 111.85 449.33 616.13 520.19 359.86 697.98 328.33 686.18 434.28 583.29 576.84 732.88 547.09
00028362 00000118 320.42 108.53 448.37 619.03 521.02 359.47 698.32 328.46 687.78 433.16 585.08 578.09 733.08 548.73
00028363 00000119 322.18 110.74 445.17 611.38 520.84 358.68 698.92 328.46 687.57 431.86 587.51 577.76 732.11 548.87
00028364 00000120 322.03 110.46 444.59 611.20 521.66 358.50 700.09 329.97 687.46 432.52 588.53 577.97 731.68 550.33
00028365 00000121 321.77 108.77 444.77 614.76 521.03 357.91 700.08 329.11 687.65 431.82 589.48 579.52 732.73 551.54
00028366 00000122 320.70 101.25 445.54 623.92 521.20 357.42 700.15 329.26 687.80 430.86 591.09 581.75 732.43 554.53
00028367 00000123 320.29 102.33 445.82 625.45 521.02 356.43 699.16 328.57 689.17 430.41 592.30 583.87 733.26 556.96
00028368 00000124 320.39 103.05 444.64 629.42 516.66 355.84 696.42 329.87 685.54 429.21 587.17 584.66 730.91 559.37
00028369 00000125 319.77 98.25 445.19 633.00 515.51 357.11 696.17 328.87 685.27 429.53 586.73 584.69 730.65 557.47
00028370 00000126 319.53 114.62 445.21 612.32 516.34 357.37 692.04 328.19 683.93 430.18 586.54 581.36 727.42 553.43
00028371 00000127 317.69 107.73 447.43 609.75 520.23 370.79 698.26 343.39 685.68 436.21 583.21 577.30 726.16 551.18
00028372 00000128 317.63 113.14 446.24 611.40 513.90 369.84 693.11 338.16 680.85 436.44 576.48 579.99 725.72 550.57
00028373 00000129 316.99 120.19 440.65 600.86 507.72 366.12 683.98 334.90 673.87 433.06 577.61 578.87 718.40 549.24
00028374 00000130 313.52 116.65 437.52 581.41 508.11 362.70 676.65 332.93 668.73 430.39 573.34 566.41 705.02 538.40
00028375 00000131 315.33 112.55 433.20 595.36 505.93 361.91 671.92 329.19 668.34 429.55 578.05 569.87 706.52 539.30
00028376 00000132 318.63 113.00 430.96 581.52 509.07 364.46 683.52 333.23 674.64 435.59 585.61 569.99 720.17 540.55
00028377 00000133 319.02 110.25 438.90 605.60 512.09 368.50 690.93 345.20 678.44 429.65 582.75 575.89 718.45 552.74
00028378 00000134 313.88 111.76 444.19 624.18 511.20 362.26 682.32 347.36 680.33 425.73 574.21 575.42 708.14 560.28
00028379 00000135 320.66 114.35 434.00 605.12 518.89 359.95 690.77 348.09 683.05 428.17 578.07 573.34 704.95 560.90
00028380 00000136 324.67 118.80 428.68 590.38 516.66 354.42 692.41 340.46 687.65 423.14 582.04 568.49 713.62 553.61
00028381 00000137 329.69 113.15 421.28 583.25 520.19 351.01 694.94 336.90 687.28 421.50 590.08 564.13 719.21 548.31
00028382 00000138 325.21 117.90 428.43 577.05 518.92 350.33 690.27 328.38 687.77 421.15 596.32 564.08 723.77 541.36
00028383 00000139 314.26 115.19 444.88 585.73 531.64 351.96 686.21 324.79 703.33 419.71 612.88 562.88 734.02 536.07
00028384 00000140 317.20 108.17 446.11 597.70 534.69 355.91 699.69 331.53 705.74 420.06 590.44 556.92 733.83 534.21
00028385 00000141 314.13 105.25 456.82 630.94 523.54 352.68 698.90 330.86 695.38 424.73 577.70 569.58 734.19 548.10
00028386 00000142 316.12 112.33 453.77 619.04 526.03 351.73 700.62 329.93 697.72 427.02 578.86 568.48 734.25 547.30
00028387 00000143 320.05 110.26 447.98 619.09 525.82 354.03 702.26 330.49 696.44 431.51 583.50 575.07 734.63 552.62
00028388 00000144 320.66 107.10 448.87 624.06 527.49 356.05 704.56 333.55 697.85 434.65 583.98 576.67 735.78 554.95
00028389 00000145 322.27 114.07 448.15 615.12 528.21 356.09 706.25 331.48 700.51 436.61 585.49 578.25 736.89 554.94
00028390 00000146 322.85 108.43 447.64 620.87 531.94 354.74 707.61 330.76 705.16 436.74 589.70 578.00 738.17 555.10
00028391 00000147 323.51 111.16 448.76 619.28 534.58 355.82 708.87 332.59 707.98 437.81 589.20 577.47 738.65 555.60
00028392 00000148 324.45 109.71 448.02 622.87 538.25 355.39 710.34 334.83 712.11 437.65 590.46 577.28 738.59 557.85
00028393 00000149 325.43 117.50 448.60 618.13 538.50 355.10 712.20 335.54 714.52 438.04 589.23 577.27 740.29 558.80
00028394 00000150 325.35 108.80 448.33 624.23 541.51 355.32 712.77 337.61 716.36 436.78 592.65 575.84 740.63 558.84
00028395 00000151 325.55 104.68 449.09 628.67 543.50 354.77 713.30 338.45 718.29 435.20 592.10 573.68 740.97 557.97
00028396 00000152 326.78 109.55 446.38 623.96 543.80 354.64 714.28 338.29 720.10 435.28 592.03 573.20 741.72 557.46
00028397 00000153 325.42 107.13 448.15 626.12 545.07 354.77 714.89 339.60 720.66 435.30 592.17 572.21 741.86 557.43
00028398 00000154 325.67 106.61 446.90 625.85 545.32 354.40 716.21 339.33 721.60 436.15 593.16 572.71 743.33 557.92
00028399 00000155 325.45 101.89 448.07 629.67 547.71 353.73 717.81 338.80 723.81 436.65 594.70 572.37 743.36 557.80
00028400 00000156 325.47 97.59 449.82 630.15 550.20 353.63 717.14 339.94 721.98 435.56 600.30 572.62 742.15 558.79
00028401 00000157 326.29 91.44 448.10 630.69 554.77 351.69 718.65 340.05 723.45 435.90 606.26 573.01 739.63 560.70
00028402 00000158 335.26 85.49 441.30 635.55 545.74 351.93 711.34 330.47 717.49 436.39 620.42 582.08 748.84 563.98
00028403 00000159 336.43 85.37 440.92 630.08 545.86 351.72 712.47 329.40 721.42 435.02 625.10 580.84 753.61 561.97
00028404 00000160 337.88 81.01 441.08 632.80 547.58 350.62 714.40 329.56 722.77 433.35 628.35 580.81 755.73 562.94
00028405 00000161 335.71 87.48 441.54 627.21 544.57 350.23 710.98 331.03 719.76 432.78 627.24 581.53 752.67 565.33
00028406 00000162 331.81 95.02 443.50 621.06 555.23 347.10 719.19 335.65 727.48 427.17 625.90 578.49 747.94 566.04
00028407 00000163 331.49 90.48 443.43 626.76 558.97 347.36 718.77 336.32 729.38 427.04 627.02 577.65 746.67 565.93
00028408 00000164 332.18 89.91 443.66 630.22 549.26 367.02 713.56 348.11 720.39 437.40 627.08 583.07 751.64 566.49
00028409 00000165 332.93 87.91 445.19 628.95 549.56 367.24 714.21 349.60 719.70 436.92 626.27 581.68 751.50 566.25
00028410 00000166 339.83 84.40 436.78 634.11 549.40 359.57 710.79 340.35 715.45 434.29 627.01 582.37 748.90 565.89
00028411 00000167 338.64 82.69 436.62 630.04 550.14 354.24 710.85 334.87 720.82 431.02 629.18 577.75 751.91 561.03
00028412 00000168 339.01 83.58 436.06 627.66 549.91 350.05 710.04 329.98 723.42 428.91 630.72 575.59 752.86 558.54
00028413 00000169 338.19 76.49 436.88 637.08 548.72 347.25 708.90 326.82 720.59 429.57 626.70 576.16 749.41 558.91
00028414 00000170 330.90 88.07 441.61 633.23 559.64 340.90 716.22 332.19 729.62 424.81 621.07 574.10 741.92 564.61
