Video ID: 	OeGQ_R8yDlI
H: 	1080
W: 	1920
FPS: 	29.97002997002997

FRAME INDEX X0 Y0 W H [Landmarks (5 Points)]

00011301 00000000 720.10 187.19 403.38 560.79 829.26 411.53 979.83 398.18 909.28 514.42 853.55 585.02 1001.93 573.92
00011302 DELETE   720.57 183.12 401.66 562.16 828.55 407.43 980.42 395.07 908.39 510.96 849.38 578.18 1003.97 567.99
00011303 DELETE   720.15 181.10 400.11 559.03 825.49 402.87 980.45 389.81 906.74 505.23 844.84 570.56 1005.88 559.59
00011304 DELETE   720.45 178.67 398.78 559.42 825.37 395.62 979.73 384.37 905.11 497.78 842.88 566.21 1002.95 556.63
00011305 00000004 721.14 175.64 397.56 560.46 823.70 391.18 978.64 380.03 902.89 491.39 843.36 566.16 999.71 556.39
00011306 00000005 720.98 175.96 397.58 559.93 823.35 390.87 978.99 379.74 903.01 491.11 843.54 566.45 999.30 556.65
00011307 00000006 720.58 175.77 395.89 555.04 819.75 386.21 973.47 374.32 898.22 478.80 845.57 565.29 993.37 554.49
00011308 00000007 720.00 172.78 393.27 550.94 817.18 379.39 973.47 366.94 898.62 471.87 846.52 561.98 989.51 550.67
00011309 00000008 718.55 169.62 392.65 550.61 814.92 374.05 971.21 362.93 897.00 466.80 845.09 557.81 986.64 547.57
00011310 00000009 716.39 169.58 393.33 548.77 812.00 371.92 968.93 360.71 894.92 461.49 843.78 554.01 986.80 543.65
00011311 DELETE   716.52 169.68 393.48 548.31 812.03 372.05 968.83 360.71 894.92 461.46 843.74 554.01 986.68 543.58
00011312 00000011 716.37 167.11 391.24 549.20 813.67 366.87 968.98 357.28 896.34 454.19 844.29 549.65 986.56 540.74
00011313 00000012 716.64 167.92 391.35 549.92 815.22 363.75 970.05 356.00 896.91 449.38 843.70 548.18 987.17 540.97
00011314 00000013 715.35 164.67 390.97 552.93 815.02 363.58 971.63 356.34 899.62 445.22 844.55 547.54 988.98 540.70
00011315 00000014 711.33 164.04 392.81 553.87 813.46 361.98 973.17 355.57 901.42 441.62 843.49 547.17 989.64 540.94
00011316 00000015 710.98 164.08 393.33 554.09 813.30 361.79 973.11 355.44 901.47 441.50 843.36 547.13 989.78 540.91
00011317 00000016 706.39 163.99 396.67 562.48 811.64 359.99 971.41 353.49 901.40 438.61 843.50 549.87 991.59 543.37
00011318 00000017 703.62 160.07 398.54 566.72 811.31 358.20 970.23 350.30 903.51 433.74 844.11 549.13 992.28 541.41
00011319 00000018 701.02 160.44 401.63 560.95 812.11 356.16 970.66 350.85 904.40 429.85 844.10 545.28 988.62 539.79
00011320 00000019 698.42 169.52 402.58 543.07 812.67 356.33 970.99 351.92 901.46 428.29 843.74 538.22 985.11 533.58
00011321 DELETE   698.48 169.89 402.86 542.87 812.57 356.51 970.50 351.67 901.11 428.08 843.74 538.25 985.08 533.21
00011322 DELETE   699.23 163.78 402.66 543.98 811.76 358.37 974.56 349.24 905.05 426.61 846.92 539.28 994.28 530.36
00011323 00000022 700.72 161.18 400.91 540.14 815.42 356.44 971.07 347.43 905.64 425.73 848.47 532.87 990.51 523.94
00011324 00000023 701.78 156.79 399.61 541.26 818.68 354.83 976.64 344.42 913.73 424.05 851.32 533.35 992.85 523.68
00011325 00000024 708.44 154.13 394.72 534.47 822.13 355.21 982.61 342.06 918.41 420.86 855.59 532.67 995.69 520.79
00011326 00000025 708.13 153.61 395.02 535.24 822.02 355.10 982.51 341.86 918.41 420.61 855.86 532.59 995.96 520.59
00011327 00000026 718.35 156.35 386.22 526.60 826.35 354.48 988.33 339.20 921.96 417.18 856.12 530.96 997.03 517.91
00011328 00000027 723.74 155.26 381.35 522.93 830.55 353.51 994.67 338.58 928.66 420.69 861.58 533.22 1000.81 520.43
00011329 00000028 726.96 151.16 382.10 523.88 833.48 353.40 999.29 337.32 934.72 420.84 867.62 534.49 1007.33 520.35
00011330 00000029 733.78 151.02 380.46 521.52 837.05 355.01 1004.29 337.35 938.06 421.23 871.26 535.01 1014.00 519.77
00011331 00000030 733.66 151.04 380.62 521.48 837.04 354.90 1004.19 337.32 938.05 421.31 871.26 534.84 1014.10 519.65
00011332 00000031 737.27 151.95 379.41 521.50 839.83 354.80 1005.41 338.00 940.16 421.93 874.73 535.08 1015.62 520.70
00011333 00000032 741.16 153.07 379.03 523.34 843.35 354.75 1008.78 338.69 943.69 422.52 878.03 536.65 1018.36 523.04
00011334 DELETE   742.97 153.28 379.83 526.48 846.52 354.36 1010.46 339.43 946.32 422.21 881.09 537.59 1020.49 524.90
00011335 00000034 745.31 155.00 380.06 528.06 849.61 354.54 1013.16 340.40 949.48 420.97 882.88 539.25 1022.91 527.37
00011336 00000035 745.06 155.10 380.83 528.15 849.89 355.02 1013.51 340.77 949.77 421.01 883.18 539.35 1023.32 527.35
00011337 00000036 748.70 154.55 380.83 531.87 854.17 354.59 1016.28 342.53 952.94 422.22 886.05 539.08 1027.73 528.77
00011338 00000037 751.60 155.29 380.40 531.95 857.37 354.51 1019.03 343.12 956.12 421.82 888.31 538.44 1030.41 528.88
00011339 00000038 753.68 154.76 379.74 532.64 860.69 353.92 1021.23 343.87 958.35 422.53 890.26 537.70 1031.97 529.04
00011340 00000039 756.32 155.12 377.87 533.24 862.84 353.46 1022.81 343.94 960.63 422.05 891.45 536.81 1033.62 528.85
00011341 00000040 756.71 155.00 377.29 533.61 863.29 353.17 1023.15 344.14 960.56 421.99 891.27 536.82 1033.21 529.25
00011342 00000041 758.61 156.23 376.98 534.60 864.56 352.58 1025.32 343.85 962.16 420.57 891.39 537.16 1034.59 530.06
00011343 00000042 758.32 155.46 376.90 534.65 865.08 352.65 1025.41 344.69 963.02 422.04 891.83 536.98 1034.45 530.45
00011344 00000043 758.54 156.60 376.92 534.93 865.78 353.18 1025.78 344.54 963.90 421.86 892.86 538.22 1034.89 531.05
00011345 00000044 758.40 156.42 376.80 535.46 865.74 353.16 1025.01 344.68 963.65 422.38 893.08 537.99 1034.59 531.11
00011346 00000045 758.49 157.08 377.37 534.78 865.75 352.92 1025.01 344.14 963.46 421.81 893.25 537.56 1035.23 530.29
00011347 00000046 758.82 157.25 377.32 535.74 866.55 352.37 1025.27 344.38 963.91 422.62 893.25 536.71 1035.82 530.00
00011348 00000047 758.87 157.80 377.44 536.74 867.47 351.82 1025.75 344.48 964.72 422.49 893.59 536.33 1036.47 530.11
00011349 00000048 759.24 158.59 377.81 537.13 867.68 352.02 1026.15 344.15 964.91 422.55 893.89 537.03 1036.99 530.42
00011350 00000049 759.75 158.62 378.64 540.36 868.91 351.92 1026.30 343.24 966.26 423.12 895.12 538.39 1038.06 531.15
00011351 00000050 758.95 158.84 380.23 540.13 868.58 352.11 1026.26 343.46 966.23 423.23 895.02 537.93 1038.61 530.52
00011352 00000051 759.26 159.15 381.27 541.66 870.17 351.15 1027.40 343.41 967.67 424.29 895.27 537.69 1039.21 531.00
00011353 00000052 758.50 156.19 386.89 543.78 871.66 345.71 1027.14 348.99 959.45 426.70 893.28 530.71 1031.02 533.36
00011354 00000053 759.22 156.65 385.69 543.68 872.40 344.27 1028.34 348.22 959.84 424.81 893.25 528.99 1031.91 532.16
00011355 00000054 758.51 156.78 386.41 544.29 871.71 343.79 1027.73 347.62 958.51 423.71 892.14 529.21 1030.70 532.42
00011356 00000055 758.50 156.25 385.66 544.79 871.54 343.60 1027.39 347.21 958.49 424.10 892.04 529.11 1030.58 532.12
00011357 00000056 760.46 156.55 378.46 536.81 869.39 347.78 1028.88 342.35 965.48 421.34 891.99 533.52 1037.32 528.50
00011358 00000057 760.55 155.40 376.23 528.17 866.38 348.31 1028.45 342.83 962.59 422.49 889.74 532.46 1033.37 527.52
00011359 00000058 755.78 148.52 384.45 531.78 871.68 347.98 1032.49 350.40 957.98 428.74 892.76 528.83 1028.33 531.46
00011360 00000059 759.80 153.37 377.92 528.39 866.85 350.79 1027.63 346.30 963.37 429.84 890.05 536.48 1027.25 532.99
00011361 00000060 759.59 153.80 378.08 527.93 866.60 350.96 1027.54 346.08 963.63 430.20 890.22 536.74 1027.41 532.94
00011362 00000061 759.30 155.99 377.52 531.18 865.30 353.17 1025.01 348.87 960.54 436.28 888.13 540.94 1023.63 538.08
00011363 00000062 760.08 156.12 379.76 538.22 868.02 352.85 1025.77 348.14 961.76 434.82 889.81 542.71 1024.93 539.59
00011364 00000063 759.38 156.35 380.00 542.67 869.37 348.63 1028.57 343.08 962.75 425.85 891.15 543.67 1026.70 539.56
00011365 00000064 757.79 153.51 380.97 543.11 866.68 342.42 1026.68 335.54 956.88 415.83 888.00 538.36 1022.66 533.13
00011366 00000065 756.81 152.81 381.12 543.72 867.08 342.13 1026.99 335.66 957.38 415.44 888.35 538.23 1022.65 533.30
00011367 00000066 754.33 148.13 383.38 540.39 865.66 333.70 1026.21 329.98 954.69 414.46 887.16 527.66 1022.00 523.20
00011368 00000067 749.45 134.77 390.26 540.90 863.73 329.72 1023.60 332.02 945.35 411.12 884.71 514.60 1019.00 517.40
00011369 00000068 749.63 135.76 390.98 538.43 864.81 329.57 1024.63 331.64 947.07 410.15 885.33 511.41 1022.90 513.70
00011370 00000069 750.00 136.81 391.64 546.38 867.77 331.93 1027.13 333.99 950.83 412.51 888.00 519.28 1022.86 521.63
00011371 00000070 749.64 136.80 392.12 545.85 867.74 331.91 1027.62 334.15 951.02 412.59 887.97 518.73 1023.39 521.18
00011372 00000071 749.95 136.58 390.98 554.43 869.51 333.88 1028.88 334.04 956.33 412.60 892.07 526.00 1028.59 526.66
00011373 00000072 752.76 134.74 389.14 555.41 871.66 329.82 1029.22 331.24 956.23 408.45 891.71 522.49 1028.71 524.16
00011374 00000073 753.94 135.91 388.74 551.09 874.61 326.27 1031.26 328.35 959.04 405.30 892.97 516.71 1031.89 518.78
00011375 00000074 755.12 135.66 386.55 554.84 878.17 325.90 1030.99 326.07 963.68 404.19 898.48 518.60 1034.46 518.91
00011376 00000075 755.11 136.57 385.96 553.50 878.02 325.86 1031.18 326.11 963.87 404.05 898.23 518.58 1034.24 518.97
00011377 00000076 762.10 147.91 384.04 550.96 874.74 323.52 1031.62 324.72 961.21 411.61 894.13 515.06 1031.51 515.53
00011378 00000077 761.84 151.97 387.20 546.45 878.49 327.26 1033.31 331.04 963.99 414.84 895.38 515.83 1030.55 518.43
00011379 00000078 764.35 153.97 386.59 541.04 879.66 328.31 1039.03 332.49 968.05 415.34 898.53 515.03 1040.28 517.30
00011380 00000079 764.41 154.87 387.60 535.89 883.20 330.81 1038.10 335.54 968.41 417.20 898.68 512.33 1036.62 515.32
00011381 00000080 764.17 154.43 387.73 536.74 883.26 331.01 1038.21 335.91 968.82 417.34 898.54 512.68 1036.46 515.81
00011382 00000081 763.97 153.01 386.83 537.66 883.39 330.94 1039.32 335.04 971.03 414.99 900.65 514.97 1036.68 517.60
00011383 00000082 763.88 154.02 388.00 538.09 883.67 331.42 1039.18 336.22 970.68 415.40 900.15 514.49 1036.54 517.71
00011384 00000083 764.15 154.16 386.71 541.08 882.88 331.92 1037.70 337.26 969.79 416.94 899.70 516.55 1035.55 520.43
00011385 00000084 763.20 155.43 386.10 537.55 881.27 332.46 1036.50 337.87 968.28 418.61 899.28 518.53 1033.25 522.38
00011386 00000085 763.23 154.87 386.20 538.45 881.52 332.35 1036.33 337.93 968.20 418.54 898.90 518.06 1033.34 522.09
00011387 00000086 763.95 155.93 385.40 536.13 881.01 332.52 1036.31 337.97 967.70 418.65 898.97 518.56 1032.85 522.52
00011388 00000087 763.90 155.09 385.42 537.35 881.34 332.93 1036.38 338.45 968.52 418.52 899.56 519.18 1033.47 523.30
00011389 00000088 764.65 155.51 385.74 537.71 882.96 331.84 1037.72 338.50 969.41 418.18 899.29 517.47 1033.91 522.50
00011390 00000089 764.92 155.24 386.60 538.14 883.71 332.12 1038.57 338.83 969.98 417.38 899.82 517.09 1034.65 522.20
00011391 00000090 765.09 155.63 386.84 537.77 883.77 332.18 1039.04 338.98 969.97 417.56 899.72 516.98 1034.85 522.09
00011392 00000091 765.75 155.20 386.10 538.41 884.79 332.23 1040.50 339.80 971.95 417.41 900.46 517.46 1035.94 523.19
00011393 00000092 767.16 155.16 386.34 537.67 885.66 332.61 1042.13 340.50 972.77 416.86 901.51 518.94 1036.19 524.88
00011394 00000093 767.19 155.90 388.17 535.75 886.36 334.34 1045.65 341.45 975.78 417.31 903.28 520.13 1039.99 525.14
00011395 00000094 768.58 154.27 386.95 532.99 886.92 335.43 1048.47 341.52 977.57 417.70 905.28 522.22 1039.99 526.47
00011396 00000095 768.68 154.49 386.63 532.09 886.88 335.40 1048.14 341.32 977.13 417.73 905.18 521.84 1039.63 525.97
00011397 00000096 769.47 151.40 386.14 525.83 888.39 337.85 1048.64 340.02 979.71 420.65 908.50 522.69 1036.68 524.10
00011398 00000097 770.83 153.70 386.10 522.22 888.93 339.71 1048.50 341.40 978.52 421.52 908.60 522.84 1036.49 523.93
00011399 00000098 771.80 155.27 384.18 519.67 888.52 343.54 1048.67 345.22 979.39 425.34 908.64 526.09 1035.75 527.36
00011400 00000099 773.27 154.83 384.69 522.36 888.65 346.10 1050.84 349.07 981.11 429.84 909.52 528.94 1039.25 531.28
00011401 00000100 773.51 154.52 384.40 522.76 888.64 346.18 1050.82 349.09 981.00 429.79 909.52 528.98 1039.43 531.28
00011402 00000101 774.29 157.15 386.57 523.66 888.43 347.68 1052.12 351.20 980.04 431.16 908.91 530.84 1039.19 533.67
00011403 00000102 772.78 161.58 388.73 530.41 889.03 346.61 1052.85 356.09 979.13 431.43 904.74 528.53 1044.01 535.87
00011404 00000103 774.25 162.97 389.72 542.82 889.57 348.32 1055.78 361.35 980.12 437.00 902.98 534.32 1047.88 544.20
00011405 00000104 774.05 165.31 391.50 547.77 888.19 348.54 1056.51 363.06 977.36 441.55 900.16 536.26 1047.69 547.01
00011406 00000105 773.96 165.51 391.65 547.68 888.14 348.50 1056.47 363.14 977.12 441.43 900.05 536.11 1047.60 546.93
00011407 00000106 778.33 166.28 387.70 532.90 891.46 351.93 1057.88 359.97 981.13 448.01 907.88 539.47 1044.57 545.79
00011408 00000107 782.48 165.85 382.27 524.72 897.92 358.59 1060.35 361.82 988.66 454.86 915.86 541.28 1045.91 544.30
00011409 00000108 790.33 170.75 372.96 505.39 904.08 362.97 1065.32 369.32 992.65 461.41 915.27 541.45 1044.54 547.53
00011410 DELETE   792.64 173.59 373.42 491.19 909.86 372.94 1071.28 376.34 998.29 470.71 918.51 547.85 1047.24 551.13
00011411 DELETE   792.71 174.68 372.54 489.28 909.44 373.60 1070.58 376.69 997.46 471.07 918.45 548.25 1047.18 551.22
00011412 DELETE   798.60 176.57 370.04 494.96 912.66 377.73 1073.91 382.75 997.66 480.35 918.54 555.69 1046.02 560.51
00011413 00000112 802.15 176.65 366.79 496.23 912.56 381.79 1074.87 389.54 998.21 488.94 917.14 563.67 1047.35 570.96
00011414 00000113 801.66 180.11 370.52 503.99 913.02 383.94 1075.98 391.42 1000.74 491.18 919.88 568.97 1050.71 576.47
00011415 00000114 802.12 183.75 372.86 505.20 914.38 387.45 1077.06 394.80 1000.84 495.74 921.90 576.46 1049.01 583.96
00011416 00000115 801.66 183.51 373.54 506.65 914.25 387.39 1076.96 394.70 1000.62 496.20 921.93 576.75 1049.03 584.24
00011417 00000116 803.03 190.21 374.59 513.15 916.78 394.64 1079.40 403.38 1002.28 500.82 925.67 584.28 1052.63 593.32
00011418 00000117 804.20 194.57 376.35 516.64 918.10 403.43 1083.02 408.45 1005.90 510.86 930.64 592.43 1060.34 598.52
00011419 00000118 806.45 203.24 376.03 518.54 922.94 411.63 1087.63 416.64 1012.22 521.75 934.50 595.49 1067.99 601.38
00011420 00000119 808.99 209.50 377.89 538.35 932.29 416.03 1091.99 425.95 1020.33 527.45 939.86 602.00 1073.07 611.48
00011421 00000120 808.29 209.51 378.50 539.66 932.52 416.08 1092.40 425.94 1020.84 527.62 940.10 602.62 1073.46 611.97
00011422 00000121 805.56 205.79 387.82 565.96 935.34 409.42 1095.95 420.05 1029.71 524.45 940.32 603.81 1082.36 610.84
00011423 00000122 805.95 201.67 389.18 571.61 937.08 403.57 1099.05 415.23 1030.68 516.96 942.01 601.38 1083.97 609.42
00011424 00000123 809.34 195.39 382.07 565.92 942.54 403.35 1102.19 416.93 1032.14 508.01 941.19 593.85 1086.20 605.94
00011425 00000124 810.97 192.73 379.48 558.65 942.87 399.28 1101.70 410.43 1033.08 504.56 943.73 587.72 1087.84 598.08
00011426 00000125 810.68 192.56 380.11 559.64 942.97 399.14 1102.00 410.60 1033.12 504.32 943.56 587.92 1087.96 598.47
00011427 00000126 811.07 187.58 379.86 560.30 944.10 394.20 1101.91 405.67 1035.56 497.55 945.83 583.14 1089.32 593.60
00011428 00000127 814.25 184.98 377.86 553.52 945.59 390.19 1103.19 399.44 1040.55 492.11 952.31 578.50 1094.25 587.02
00011429 00000128 814.37 184.98 378.14 532.74 942.98 387.86 1106.41 395.25 1044.34 487.30 952.55 572.24 1093.37 579.55
00011430 00000129 816.63 181.80 373.62 533.06 943.40 385.06 1106.91 393.30 1043.83 484.42 951.69 569.64 1092.44 577.80
00011431 DELETE   816.92 181.62 373.67 532.78 942.63 385.15 1107.29 392.65 1044.40 484.36 952.18 569.99 1093.96 577.59
00011432 00000131 816.26 183.53 374.69 530.57 942.45 385.52 1102.77 394.17 1039.23 487.85 949.68 568.66 1088.99 576.90
00011433 DELETE   811.87 180.09 379.14 544.89 940.19 386.25 1101.00 396.20 1033.98 494.12 944.11 569.11 1089.75 578.23
00011434 DELETE   805.07 178.64 383.30 547.10 932.23 388.13 1093.72 397.97 1024.83 493.64 937.97 572.62 1080.12 581.85
00011435 00000134 801.52 182.86 382.72 538.78 921.45 390.10 1083.93 396.49 1011.98 494.94 929.33 571.83 1072.85 578.42
00011436 00000135 802.07 182.05 382.38 539.28 921.62 390.26 1084.15 396.89 1012.01 494.73 929.22 572.10 1072.63 578.88
00011437 00000136 796.46 184.20 384.01 542.70 913.55 392.47 1073.08 398.72 1001.33 493.88 920.18 570.26 1064.59 576.47
00011438 00000137 793.42 182.41 385.06 554.82 912.70 388.82 1065.23 396.41 992.01 494.91 914.50 568.63 1058.47 575.48
00011439 00000138 792.09 179.74 385.50 560.19 910.71 385.61 1062.69 393.13 990.02 488.62 915.47 568.96 1058.91 574.87
00011440 00000139 789.82 178.34 387.91 559.94 910.02 381.66 1062.85 388.88 991.67 483.22 917.29 566.28 1058.87 571.55
00011441 00000140 789.74 178.17 388.38 560.24 909.98 381.93 1062.63 389.19 991.43 482.93 917.35 566.31 1058.92 571.66
00011442 00000141 788.50 175.63 390.94 560.99 906.31 375.33 1063.25 383.71 988.42 473.20 915.80 562.15 1059.77 568.19
00011443 00000142 785.25 177.50 394.39 556.17 900.66 371.93 1060.18 380.35 982.58 467.41 911.21 557.67 1058.63 563.68
00011444 00000143 782.69 177.05 396.87 557.16 897.53 371.13 1059.27 378.83 980.44 465.26 908.63 556.95 1059.38 562.44
00011445 00000144 780.64 174.63 397.60 561.35 896.89 370.55 1060.10 378.84 982.19 467.41 908.72 560.07 1057.33 566.04
00011446 00000145 780.78 175.08 397.54 560.32 896.83 370.82 1060.00 379.00 982.25 467.41 908.55 559.84 1057.28 565.76
00011447 00000146 781.16 175.53 396.32 562.27 897.88 371.95 1060.04 379.82 983.08 468.28 909.58 562.50 1057.42 568.30
00011448 00000147 780.79 176.27 395.23 555.36 897.30 368.82 1058.75 378.60 981.25 468.01 909.94 559.82 1049.12 567.12
00011449 00000148 779.65 175.52 394.88 550.20 894.02 372.17 1057.53 378.07 982.29 466.93 910.89 558.01 1054.92 562.22
00011450 00000149 778.18 174.16 395.74 547.35 894.93 371.13 1058.83 377.05 985.09 463.58 912.25 554.64 1056.50 558.84
00011451 00000150 778.39 173.50 395.66 547.70 895.09 370.86 1058.44 376.11 985.35 464.35 912.87 555.19 1055.62 558.91
00011452 00000151 779.08 173.24 394.84 546.54 897.04 365.40 1061.14 372.88 986.13 461.79 913.87 553.63 1053.09 559.12
00011453 00000152 779.37 171.97 393.88 545.07 898.69 362.50 1064.21 369.86 990.07 457.69 913.64 549.26 1056.64 554.46
00011454 00000153 779.60 169.43 389.69 543.98 900.79 358.82 1064.18 366.21 993.06 453.42 916.06 547.01 1055.55 552.32
00011455 00000154 780.81 166.55 387.64 544.18 901.38 357.11 1063.27 360.50 996.11 446.45 921.34 545.12 1060.55 547.04
00011456 00000155 780.43 167.05 388.75 543.60 901.05 356.80 1063.42 359.77 996.19 446.32 921.53 545.47 1060.17 547.10
00011457 00000156 782.40 165.55 386.62 542.17 903.68 354.76 1065.43 356.51 1000.56 443.92 924.43 542.74 1064.56 543.21
00011458 00000157 782.45 163.65 385.69 541.36 903.82 353.45 1065.82 354.97 1002.21 440.88 925.60 540.96 1064.73 541.13
00011459 00000158 781.66 163.25 383.95 537.70 904.40 353.41 1065.34 354.37 1004.63 437.85 927.02 539.21 1066.01 539.12
00011460 00000159 781.35 162.37 381.86 535.90 903.68 353.22 1064.22 353.37 1004.25 434.44 928.20 537.42 1065.82 536.73
00011461 00000160 781.39 162.30 382.33 536.11 903.87 353.33 1064.45 353.63 1004.29 434.49 928.24 537.47 1065.91 536.88
00011462 00000161 779.54 162.74 381.96 533.84 901.97 351.53 1063.46 351.83 1003.22 432.96 927.23 536.68 1064.24 536.13
CROP_BBOX: 404 0 1427 966
