Video ID: 	VMM6D9vuHkY
H: 	2160
W: 	3840
FPS: 	29.97002997002997

FRAME INDEX X0 Y0 W H [Landmarks (5 Points)]

00130559 00000000 1834.66 356.63 763.94 1136.14 1985.78 772.67 2281.96 815.00 2043.16 996.12 1976.73 1167.79 2218.57 1204.56
00130560 00000001 1836.62 360.06 769.80 1155.87 1989.41 788.24 2289.40 834.52 2047.88 1017.94 1975.14 1180.62 2233.67 1219.34
00130561 00000002 1836.67 357.90 774.47 1150.73 1988.83 794.47 2296.77 841.49 2055.23 1028.01 1987.25 1188.31 2243.25 1227.35
00130562 00000003 1835.70 363.85 779.43 1160.16 1994.64 798.07 2300.62 842.63 2066.14 1036.72 1996.15 1192.09 2262.48 1228.68
00130563 00000004 1840.52 356.14 781.32 1169.22 2001.73 801.00 2307.38 842.23 2077.67 1041.30 2006.89 1188.39 2282.18 1221.16
00130564 00000005 1840.77 356.26 786.49 1156.33 2009.85 795.35 2317.62 832.01 2097.40 1029.78 2021.06 1181.45 2289.89 1211.16
00130565 00000006 1844.79 341.98 784.94 1176.34 2017.64 787.13 2323.99 820.00 2113.64 1023.11 2034.12 1188.15 2298.96 1214.40
00130566 00000007 1842.61 340.69 781.80 1177.59 2012.66 778.56 2318.20 803.93 2109.72 1003.35 2037.54 1191.55 2289.15 1212.02
00130567 DELETE   1838.15 337.07 781.92 1182.76 2001.46 772.36 2307.91 799.32 2091.10 997.06 2023.45 1187.02 2276.76 1208.91
00130568 DELETE   1831.89 336.63 766.54 1168.43 1988.74 774.57 2284.54 807.54 2064.50 987.18 1999.82 1171.06 2255.38 1198.45
00130569 DELETE   1820.10 340.15 766.57 1151.63 1977.97 771.86 2267.14 811.28 2043.50 983.17 1977.49 1151.79 2228.29 1185.03
00130570 00000011 1813.58 335.31 766.41 1155.53 1965.15 763.96 2250.53 801.04 2020.78 977.66 1962.28 1144.79 2205.38 1177.08
00130571 00000012 1810.17 331.37 767.50 1145.59 1962.93 762.75 2250.63 804.83 2020.64 979.09 1959.42 1134.06 2203.67 1170.36
00130572 00000013 1813.12 327.32 770.09 1160.59 1965.14 764.56 2255.41 804.22 2027.40 984.07 1967.39 1143.86 2213.79 1177.43
00130573 00000014 1815.30 333.57 777.57 1156.37 1970.98 763.69 2264.90 803.77 2037.23 986.68 1972.77 1144.37 2222.65 1178.19
00130574 00000015 1817.47 336.85 776.32 1151.38 1971.66 761.16 2264.39 802.07 2036.81 986.08 1976.01 1143.64 2224.91 1177.85
00130575 00000016 1816.23 338.41 773.57 1153.06 1963.49 760.43 2257.30 800.39 2025.51 988.99 1967.51 1144.58 2218.66 1178.20
00130576 00000017 1807.13 339.54 777.19 1147.42 1956.01 756.16 2252.60 799.80 2016.96 981.83 1958.08 1133.92 2213.29 1170.56
00130577 00000018 1805.51 339.61 776.70 1142.72 1955.63 756.19 2253.45 801.21 2018.38 982.88 1958.72 1133.16 2209.91 1171.40
00130578 00000019 1806.91 338.95 783.33 1150.60 1958.15 755.56 2260.74 797.74 2025.48 986.76 1963.61 1135.71 2221.51 1171.10
00130579 00000020 1813.72 332.68 778.11 1161.69 1966.94 758.50 2264.34 800.50 2030.23 991.68 1971.44 1147.85 2220.68 1183.32
00130580 00000021 1819.04 331.80 780.06 1167.80 1974.15 762.22 2270.70 803.31 2035.49 989.20 1978.21 1152.68 2227.16 1187.15
00130581 00000022 1818.33 336.50 778.90 1169.53 1966.74 763.26 2264.92 798.64 2028.56 990.39 1974.07 1160.47 2221.89 1190.62
00130582 00000023 1809.13 331.88 783.47 1176.42 1957.99 762.03 2258.53 798.52 2021.18 985.98 1961.30 1164.55 2203.24 1196.70
00130583 00000024 1805.91 331.46 779.38 1170.25 1950.31 768.86 2254.86 801.18 2018.24 986.61 1954.13 1174.02 2188.45 1202.98
00130584 00000025 1806.22 328.00 777.91 1167.47 1951.85 771.80 2260.65 806.53 2026.12 993.64 1954.86 1177.19 2188.80 1207.97
00130585 00000026 1807.20 324.28 788.97 1180.88 1957.95 774.62 2272.27 808.80 2037.76 1000.33 1961.15 1188.01 2195.40 1218.14
00130586 00000027 1812.42 324.05 789.20 1180.42 1963.20 774.81 2277.86 809.66 2047.08 999.81 1972.95 1191.72 2211.35 1221.98
00130587 00000028 1811.56 322.40 796.87 1187.47 1964.77 771.01 2275.67 804.04 2043.55 997.56 1970.94 1190.16 2207.00 1219.55
00130588 00000029 1812.14 323.36 790.63 1180.49 1964.74 770.81 2267.28 801.95 2037.96 993.37 1972.84 1183.99 2199.26 1211.65
00130589 00000030 1811.61 324.73 785.05 1181.95 1962.48 770.67 2262.97 802.39 2030.03 992.48 1968.63 1181.43 2198.84 1209.50
00130590 00000031 1814.99 325.55 783.12 1179.76 1967.80 771.63 2264.61 806.14 2031.94 994.59 1966.96 1175.64 2197.05 1206.13
00130591 00000032 1815.28 330.59 786.96 1177.29 1972.88 771.22 2268.84 809.36 2038.86 1001.72 1973.93 1177.64 2205.50 1210.49
00130592 00000033 1817.66 328.82 791.56 1179.91 1972.29 773.49 2274.39 809.72 2042.54 1006.09 1976.68 1177.02 2219.31 1207.43
00130593 00000034 1818.40 335.47 791.76 1165.46 1970.60 777.59 2271.80 811.87 2041.39 1002.97 1977.64 1175.65 2220.89 1204.17
00130594 00000035 1816.89 333.74 791.46 1172.16 1971.34 776.90 2272.73 813.96 2040.87 1005.96 1974.08 1173.85 2219.81 1204.97
00130595 00000036 1816.08 336.17 785.49 1164.31 1970.53 774.14 2274.76 814.96 2039.55 1004.36 1970.24 1166.81 2219.24 1201.40
00130596 00000037 1819.99 341.66 789.50 1158.93 1971.33 775.97 2273.07 813.10 2038.35 1004.44 1975.50 1166.42 2228.09 1197.16
00130597 00000038 1819.51 339.37 789.93 1160.36 1971.26 776.14 2271.70 812.11 2039.40 1005.24 1978.51 1168.65 2227.18 1198.68
00130598 00000039 1819.03 341.32 791.86 1155.40 1972.92 773.59 2275.42 811.04 2040.95 998.99 1980.04 1159.42 2234.79 1190.14
00130599 00000040 1820.83 335.68 789.01 1162.88 1977.19 773.27 2279.82 812.51 2046.58 997.92 1982.28 1158.48 2239.30 1190.46
00130600 00000041 1821.21 336.73 786.79 1157.84 1976.04 772.03 2278.40 812.76 2045.95 996.62 1979.03 1159.42 2231.25 1193.27
00130601 00000042 1822.20 339.41 784.70 1152.71 1974.93 773.21 2276.27 810.68 2045.90 992.29 1981.96 1160.58 2233.40 1191.71
00130602 00000043 1824.94 334.90 779.93 1151.60 1976.20 772.18 2278.11 810.96 2047.89 989.76 1983.48 1159.30 2232.41 1192.00
00130603 00000044 1822.57 336.51 793.77 1156.09 1975.76 770.17 2280.76 808.31 2046.44 990.20 1980.24 1164.24 2230.18 1196.48
00130604 00000045 1823.55 335.61 791.91 1154.13 1976.95 769.00 2283.10 809.30 2048.14 989.48 1976.17 1160.14 2226.93 1194.43
00130605 00000046 1823.53 336.18 788.45 1151.74 1975.57 772.20 2283.01 808.73 2051.58 988.44 1981.14 1165.57 2229.37 1196.78
00130606 00000047 1826.89 340.89 792.13 1156.35 1979.36 771.68 2283.83 807.27 2049.71 989.57 1982.85 1167.19 2232.80 1197.36
00130607 00000048 1828.35 338.82 787.90 1157.49 1982.51 771.18 2285.89 808.09 2052.52 989.67 1984.26 1163.42 2238.72 1194.36
00130608 00000049 1829.49 337.73 786.77 1159.19 1984.59 769.71 2287.53 807.69 2055.13 988.58 1985.65 1161.60 2242.56 1193.12
00130609 00000050 1830.18 336.15 787.16 1161.65 1987.98 778.12 2285.36 817.14 2055.58 991.40 1989.28 1162.39 2249.05 1193.53
00130610 00000051 1834.75 336.75 782.64 1160.83 1994.36 780.22 2283.57 824.52 2058.03 993.38 1992.70 1159.33 2251.35 1194.18
00130611 00000052 1832.07 336.17 785.40 1162.56 1992.31 781.53 2283.08 824.87 2058.70 993.88 1991.44 1161.10 2250.82 1195.24
00130612 00000053 1832.61 332.77 782.84 1167.72 1991.12 781.59 2283.21 823.73 2057.22 995.06 1991.32 1163.81 2250.90 1197.21
00130613 00000054 1826.76 330.73 787.62 1168.51 1984.93 781.58 2281.78 819.79 2054.84 993.57 1989.85 1166.27 2247.63 1196.80
00130614 00000055 1828.00 334.61 788.60 1163.74 1982.60 776.21 2283.59 815.02 2052.34 993.75 1986.75 1167.42 2243.18 1199.00
00130615 00000056 1830.90 339.18 789.16 1159.20 1982.61 773.88 2285.26 811.68 2050.36 993.07 1984.50 1165.33 2242.76 1196.17
00130616 00000057 1830.60 335.75 787.19 1163.60 1980.32 774.85 2283.91 812.35 2049.99 996.04 1983.20 1171.19 2237.36 1202.01
00130617 00000058 1828.74 335.86 782.33 1160.32 1978.79 776.23 2281.90 812.21 2050.72 995.09 1983.24 1169.94 2236.54 1199.68
00130618 00000059 1828.04 335.65 780.46 1157.14 1975.82 776.85 2279.08 811.54 2048.23 994.14 1983.24 1170.78 2231.59 1199.64
00130619 00000060 1827.06 337.68 782.81 1154.32 1975.03 775.05 2278.98 810.97 2046.01 995.10 1981.68 1170.36 2227.91 1200.76
00130620 00000061 1824.53 338.07 781.47 1156.33 1975.97 773.78 2278.84 810.45 2046.66 996.63 1981.27 1167.75 2229.39 1198.92
00130621 00000062 1823.23 339.12 782.01 1154.00 1973.02 772.53 2278.72 809.48 2044.79 997.03 1979.73 1169.96 2226.60 1201.35
00130622 00000063 1824.57 337.64 785.88 1160.22 1973.61 773.40 2280.63 808.16 2046.15 997.21 1981.04 1168.02 2235.92 1196.94
00130623 00000064 1824.32 342.73 788.78 1154.41 1972.29 775.90 2277.57 808.86 2043.90 999.20 1979.39 1172.26 2229.01 1199.75
00130624 00000065 1821.76 340.23 791.38 1160.41 1973.43 775.43 2277.40 810.66 2045.13 1000.58 1980.33 1173.24 2227.03 1203.13
00130625 00000066 1820.62 340.70 787.03 1160.28 1969.66 776.28 2275.03 810.32 2043.78 1001.20 1977.29 1178.39 2220.80 1207.46
00130626 00000067 1820.82 340.97 784.18 1154.76 1969.47 776.92 2274.56 811.85 2042.95 998.78 1976.25 1174.11 2220.61 1204.15
00130627 00000068 1820.23 341.11 787.12 1153.39 1969.18 777.82 2274.20 812.63 2043.56 999.92 1976.49 1174.64 2219.12 1204.44
00130628 00000069 1821.19 340.21 783.25 1154.37 1968.89 777.45 2273.21 812.02 2044.02 1001.04 1976.50 1176.02 2219.59 1205.45
00130629 00000070 1822.13 342.69 784.16 1152.46 1968.32 777.24 2272.89 811.27 2041.95 1001.89 1975.26 1177.15 2218.29 1206.16
00130630 00000071 1822.10 342.74 782.96 1153.86 1968.13 776.61 2273.05 810.39 2041.86 1001.29 1975.10 1177.24 2219.09 1205.97
00130631 00000072 1822.14 341.43 786.13 1158.86 1969.12 776.83 2273.72 810.71 2041.04 1000.60 1974.29 1177.12 2220.24 1205.72
00130632 00000073 1820.93 340.39 787.59 1159.88 1969.74 778.12 2273.72 812.41 2041.81 1000.00 1974.13 1176.02 2220.86 1204.81
00130633 00000074 1822.24 339.91 787.18 1160.11 1971.90 777.93 2275.34 813.09 2042.87 999.19 1975.10 1174.28 2222.17 1204.01
00130634 00000075 1821.66 338.85 785.27 1159.73 1971.79 777.84 2275.18 813.06 2043.67 998.64 1975.46 1173.41 2222.22 1203.24
00130635 00000076 1821.33 338.03 783.57 1159.41 1971.57 777.77 2275.34 813.64 2043.77 998.40 1975.74 1172.34 2222.59 1202.76
00130636 00000077 1822.08 339.78 782.68 1158.16 1971.87 776.88 2274.74 812.34 2043.44 998.37 1976.83 1174.81 2221.27 1205.22
00130637 00000078 1824.03 341.70 786.46 1159.30 1974.74 774.03 2274.87 808.66 2044.27 997.23 1981.34 1172.67 2225.40 1202.03
00130638 00000079 1827.13 343.62 789.77 1157.84 1976.42 770.74 2279.27 807.13 2042.54 997.74 1980.05 1168.73 2231.22 1198.86
00130639 00000080 1826.86 342.35 779.86 1153.27 1975.14 774.80 2278.11 810.52 2045.32 993.89 1979.69 1170.56 2230.73 1200.73
00130640 00000081 1834.98 339.72 778.71 1157.14 1987.10 780.39 2278.64 818.05 2049.32 992.36 1988.74 1170.29 2234.90 1201.17
00130641 00000082 1839.50 340.11 775.57 1154.66 1994.48 779.69 2283.58 822.65 2055.71 989.56 1990.77 1159.09 2248.35 1194.05
00130642 00000083 1838.89 337.35 776.04 1160.07 1998.26 780.58 2283.53 827.01 2057.26 989.35 1995.10 1162.03 2240.05 1199.91
00130643 00000084 1842.36 336.54 778.77 1163.09 1998.27 776.95 2287.14 819.42 2058.42 989.22 1996.12 1162.32 2250.91 1196.29
00130644 00000085 1838.65 338.78 782.19 1154.96 1992.01 773.61 2289.61 810.39 2060.88 984.35 1995.37 1163.47 2248.86 1194.26
00130645 00000086 1843.37 340.37 780.34 1153.54 1996.67 770.75 2291.94 810.63 2057.65 985.73 1994.49 1160.71 2247.97 1193.21
00130646 00000087 1844.10 344.58 787.05 1141.23 1997.02 767.04 2298.04 807.31 2062.63 984.52 1995.99 1154.85 2250.56 1188.46
00130647 00000088 1849.44 337.68 780.66 1153.34 2002.85 766.29 2301.26 807.30 2067.12 985.04 2000.11 1157.26 2256.15 1191.04
00130648 00000089 1847.50 342.69 784.93 1143.01 2002.21 765.56 2299.74 807.10 2066.92 982.89 2000.43 1158.67 2246.08 1194.01
00130649 00000090 1850.43 335.21 777.45 1156.65 2006.28 767.33 2304.92 807.25 2074.06 988.67 2006.58 1159.96 2263.56 1192.80
00130650 00000091 1854.28 337.16 778.57 1154.34 2006.71 767.45 2306.92 806.05 2076.79 991.10 2005.67 1162.63 2263.73 1194.84
00130651 00000092 1854.00 333.59 779.10 1162.26 2005.96 769.22 2306.29 805.97 2074.72 990.72 2008.04 1168.46 2262.05 1199.21
00130652 00000093 1855.24 330.93 778.57 1169.62 2006.81 769.44 2308.32 805.89 2073.86 992.06 2011.18 1171.70 2267.08 1201.62
00130653 00000094 1855.49 336.57 780.86 1166.91 2008.64 768.47 2313.52 803.36 2077.70 989.77 2011.12 1170.02 2274.48 1198.49
00130654 00000095 1858.20 341.03 773.53 1155.10 2009.94 767.24 2314.74 804.43 2082.02 989.05 2009.31 1163.67 2274.93 1194.73
00130655 00000096 1859.07 340.38 782.02 1155.14 2009.65 769.82 2314.97 804.78 2080.46 991.92 2010.17 1168.57 2271.00 1198.17
00130656 00000097 1860.47 332.08 782.17 1168.59 2011.52 768.76 2317.12 804.73 2079.66 992.21 2011.43 1170.95 2272.03 1201.30
00130657 00000098 1859.49 337.26 786.35 1160.06 2014.80 766.27 2316.00 802.93 2083.41 986.43 2016.10 1165.44 2274.29 1196.04
00130658 00000099 1857.86 336.71 788.61 1156.01 2014.33 764.06 2317.03 800.39 2087.02 982.31 2016.17 1161.64 2274.60 1192.24
00130659 00000100 1856.62 337.83 783.58 1158.25 2014.05 763.24 2317.06 800.06 2086.51 982.34 2013.75 1162.34 2272.36 1193.29
00130660 00000101 1858.17 334.60 778.01 1158.69 2014.22 763.43 2316.94 801.42 2085.99 985.46 2013.70 1160.61 2271.74 1192.51
00130661 00000102 1859.73 334.94 774.00 1155.07 2014.77 762.93 2317.99 802.27 2087.82 988.51 2015.15 1158.03 2274.69 1191.07
00130662 00000103 1859.55 332.48 774.45 1159.83 2013.75 764.17 2317.89 802.02 2087.18 989.32 2015.67 1161.15 2275.44 1193.04
00130663 00000104 1860.42 333.03 772.68 1155.36 2012.62 765.14 2315.87 802.19 2085.71 991.12 2017.51 1162.13 2274.69 1193.60
00130664 00000105 1861.91 331.55 775.16 1162.44 2013.65 765.56 2317.96 800.81 2086.11 991.98 2018.37 1165.01 2277.50 1194.68
00130665 00000106 1863.72 330.73 774.60 1166.98 2016.39 768.10 2317.59 803.20 2087.23 991.88 2020.20 1163.97 2280.00 1192.96
00130666 00000107 1868.20 333.79 769.73 1164.76 2021.74 775.74 2314.11 813.65 2086.19 995.87 2022.70 1163.74 2281.10 1194.47
00130667 00000108 1870.45 336.62 768.47 1162.63 2029.76 778.16 2313.60 819.05 2093.58 991.23 2029.07 1161.60 2284.08 1194.66
00130668 00000109 1869.22 335.31 771.70 1166.71 2029.04 775.82 2314.95 816.18 2094.23 991.53 2028.87 1163.58 2284.65 1196.22
00130669 00000110 1866.43 334.79 775.98 1165.66 2020.54 773.48 2313.68 811.58 2086.73 993.51 2020.45 1164.07 2282.63 1194.92
00130670 00000111 1860.04 328.80 778.87 1162.81 2014.40 775.10 2311.13 810.30 2087.81 990.84 2017.86 1167.88 2270.10 1197.60
00130671 00000112 1858.28 336.37 782.20 1155.55 2011.26 772.40 2308.92 805.12 2083.81 989.15 2014.28 1169.52 2263.86 1197.70
00130672 00000113 1859.67 343.52 779.31 1144.53 2013.04 770.21 2313.47 804.98 2084.93 989.54 2015.67 1160.71 2275.12 1189.85
00130673 00000114 1860.34 339.71 768.16 1149.86 2013.39 771.90 2311.59 805.96 2084.82 994.79 2018.70 1164.60 2275.91 1193.06
00130674 00000115 1860.87 335.62 770.87 1152.60 2011.41 769.95 2308.90 804.70 2081.58 994.24 2016.74 1164.34 2272.17 1193.54
00130675 00000116 1860.03 332.55 774.54 1157.99 2009.22 767.78 2309.56 802.25 2079.68 992.28 2013.78 1163.67 2274.17 1192.05
00130676 00000117 1857.88 335.08 776.87 1151.73 2008.18 767.70 2309.48 802.13 2079.75 989.23 2012.77 1161.88 2273.40 1190.43
00130677 00000118 1856.57 336.62 775.83 1148.34 2008.02 767.16 2307.56 801.47 2079.91 987.59 2011.88 1159.72 2270.26 1188.43
00130678 00000119 1856.94 337.69 774.71 1150.24 2007.92 765.22 2307.14 800.40 2078.43 987.26 2010.30 1159.38 2268.78 1188.92
00130679 00000120 1858.06 337.06 773.94 1151.18 2008.57 765.27 2308.08 800.70 2078.46 987.21 2011.04 1158.73 2270.21 1188.43
00130680 00000121 1857.75 337.20 774.49 1150.19 2008.70 766.02 2307.89 800.95 2079.12 987.41 2011.64 1159.86 2269.38 1189.31
00130681 00000122 1858.45 336.90 773.85 1151.52 2009.22 764.84 2308.51 800.50 2078.96 989.16 2011.88 1160.67 2269.18 1190.89
00130682 00000123 1859.05 334.61 775.58 1155.91 2010.00 764.58 2310.62 799.95 2080.41 989.85 2013.30 1162.23 2271.79 1192.03
00130683 00000124 1861.15 332.90 771.95 1151.89 2010.27 765.59 2309.69 801.16 2081.43 991.56 2016.15 1161.20 2270.75 1191.60
00130684 00000125 1861.02 333.46 774.20 1153.90 2011.11 766.23 2310.50 802.48 2081.11 994.08 2017.38 1165.44 2268.93 1196.49
00130685 00000126 1860.83 336.56 777.60 1154.82 2011.76 766.92 2313.64 801.14 2082.88 995.01 2017.95 1167.64 2272.49 1196.73
00130686 00000127 1859.44 336.34 777.42 1154.04 2011.33 767.33 2313.25 801.73 2083.77 994.81 2017.90 1168.34 2270.15 1197.58
00130687 00000128 1859.14 338.31 778.65 1152.14 2010.88 766.92 2313.60 800.64 2083.56 993.19 2016.60 1167.68 2269.85 1196.40
00130688 00000129 1859.53 337.68 778.46 1152.25 2011.74 766.50 2314.45 801.23 2084.37 993.99 2016.53 1166.76 2271.42 1196.20
00130689 00000130 1855.95 338.00 778.80 1145.62 2009.48 765.79 2312.53 800.06 2086.19 992.00 2016.13 1165.14 2265.99 1194.70
00130690 00000131 1854.59 332.33 768.97 1156.10 2006.31 764.03 2308.99 798.62 2082.92 992.18 2013.86 1168.71 2261.43 1198.44
00130691 00000132 1853.95 328.13 775.37 1165.94 2002.56 767.58 2309.64 797.04 2083.45 989.23 2011.79 1179.12 2261.48 1204.87
00130692 00000133 1851.73 324.83 780.06 1179.59 2001.70 781.43 2306.26 807.91 2081.18 994.69 2009.10 1198.54 2249.38 1222.06
00130693 00000134 1855.11 323.55 774.52 1186.26 2015.01 790.32 2301.58 822.68 2084.76 994.20 2020.60 1200.13 2246.63 1228.44
00130694 00000135 1852.68 328.95 781.61 1182.58 2014.67 789.96 2306.58 819.89 2090.20 995.58 2025.55 1198.49 2262.07 1223.51
00130695 00000136 1846.23 326.88 777.82 1186.13 2005.71 790.38 2301.39 818.28 2085.78 996.88 2014.71 1207.50 2244.81 1231.90
00130696 00000137 1845.09 328.50 787.52 1188.98 1998.16 789.39 2305.81 816.16 2077.41 1001.63 2004.10 1210.85 2244.80 1234.04
00130697 00000138 1846.54 325.70 789.02 1198.86 1999.17 783.40 2307.16 809.40 2076.86 997.64 2004.70 1210.04 2250.67 1232.41
00130698 00000139 1843.72 327.23 792.67 1195.45 1996.58 781.83 2308.78 805.14 2076.06 995.83 2004.83 1208.95 2254.02 1229.00
00130699 00000140 1842.94 326.56 793.51 1195.24 1996.53 778.87 2310.17 802.59 2077.84 997.37 2004.26 1205.66 2253.97 1226.17
00130700 00000141 1844.63 328.44 790.95 1190.41 1997.45 777.95 2310.07 801.88 2077.31 998.08 2006.95 1202.48 2254.80 1223.23
00130701 00000142 1844.69 327.63 790.63 1189.01 1995.29 775.95 2311.57 798.93 2078.39 996.47 2006.15 1202.56 2256.82 1222.46
00130702 00000143 1845.39 327.78 786.34 1184.17 1994.20 775.55 2309.21 798.78 2076.88 994.07 2005.10 1201.48 2251.70 1222.02
00130703 00000144 1844.48 329.49 784.44 1175.39 1992.74 776.69 2305.18 800.43 2074.84 992.84 2003.67 1198.88 2244.90 1220.06
00130704 00000145 1845.33 328.05 785.43 1180.49 1993.91 777.05 2306.07 801.42 2074.75 992.47 2002.99 1198.37 2247.16 1220.03
00130705 00000146 1846.14 326.38 784.35 1185.59 1994.62 777.94 2306.00 802.55 2073.96 992.45 2002.11 1199.69 2246.99 1221.30
00130706 00000147 1845.66 329.46 783.46 1176.07 1993.63 776.45 2304.63 800.57 2073.08 990.29 2001.38 1197.23 2242.50 1218.97
00130707 00000148 1845.01 330.71 784.77 1178.96 1993.51 773.92 2305.25 797.43 2072.63 988.03 2002.31 1198.91 2244.28 1220.16
00130708 00000149 1844.74 330.73 784.78 1178.98 1994.15 772.08 2307.37 795.23 2075.38 988.44 2006.07 1197.94 2249.09 1218.61
00130709 00000150 1844.68 329.88 784.60 1181.76 1994.33 772.68 2307.40 794.38 2076.78 988.77 2007.06 1200.22 2248.90 1219.92
00130710 00000151 1844.42 330.13 786.69 1182.88 1994.15 773.34 2308.93 793.45 2079.22 988.77 2008.56 1201.53 2253.55 1219.69
00130711 00000152 1844.31 327.96 784.15 1183.65 1996.54 773.76 2308.60 795.42 2080.79 988.29 2009.23 1200.05 2250.65 1220.05
00130712 00000153 1845.12 328.44 787.85 1185.89 1999.03 772.29 2310.22 796.90 2080.82 985.61 2008.16 1197.53 2251.91 1219.96
00130713 00000154 1843.86 329.07 791.74 1189.35 1995.85 770.81 2309.21 793.01 2076.04 987.62 2007.61 1196.95 2258.31 1216.34
00130714 00000155 1841.64 334.08 789.37 1179.71 1992.60 770.80 2303.59 795.19 2067.78 987.51 1996.17 1195.64 2242.72 1217.18
00130715 00000156 1839.46 334.33 793.25 1176.55 1988.77 771.79 2301.19 792.83 2068.98 988.17 1997.90 1198.92 2242.37 1217.48
00130716 00000157 1837.68 334.00 794.86 1174.44 1984.34 770.58 2296.93 791.40 2062.99 983.54 1990.97 1194.73 2236.67 1213.48
