Video ID: 	Jaq2wq1LSCg
H: 	1080
W: 	1920
FPS: 	25.0

FRAME INDEX X0 Y0 W H [Landmarks (5 Points)]

00013711 00000000 914.36 147.74 376.84 534.51 952.65 336.83 1087.96 359.17 938.17 431.81 938.01 537.98 1040.63 555.22
00013712 00000001 910.73 151.39 371.54 530.58 949.48 337.77 1080.72 362.25 932.69 434.32 934.40 538.22 1035.51 556.94
00013713 00000002 907.42 154.07 372.40 529.68 947.90 337.25 1074.58 362.56 925.60 433.99 931.30 537.27 1031.56 556.14
00013714 00000003 904.77 156.81 370.77 525.51 948.09 337.37 1071.43 362.62 922.88 431.63 928.93 534.72 1027.85 553.78
00013715 00000004 906.75 158.44 370.81 525.67 947.68 340.23 1070.91 363.42 924.44 433.71 931.16 537.74 1030.31 555.03
00013716 00000005 911.04 162.39 374.44 526.98 947.19 346.45 1073.90 369.75 928.87 443.96 935.92 544.65 1034.99 562.50
00013717 00000006 911.08 165.64 381.60 536.11 949.62 355.49 1085.24 378.94 930.23 454.81 933.13 561.00 1041.72 583.17
00013718 DELETE   910.26 162.77 382.74 548.32 948.33 362.68 1086.05 390.62 931.26 467.11 936.00 569.82 1045.81 595.34
00013719 00000008 907.29 160.82 386.72 562.85 943.59 369.49 1092.78 400.99 933.10 480.13 935.21 581.55 1051.32 609.44
00013720 00000009 907.74 160.68 388.74 561.61 946.40 368.77 1096.70 400.65 937.41 478.72 935.88 579.30 1053.44 607.53
00013721 00000010 909.28 167.42 387.74 552.71 950.18 367.16 1100.56 399.93 943.08 476.33 937.87 576.64 1056.27 605.57
00013722 DELETE   907.09 167.02 393.90 553.95 948.96 375.05 1097.79 406.74 942.94 478.56 939.43 575.22 1058.05 602.47
00013723 00000012 907.88 169.56 393.86 555.18 949.86 377.13 1098.07 409.61 944.25 482.89 942.62 579.47 1057.99 607.15
00013724 00000013 909.76 176.31 396.30 556.07 956.45 372.38 1109.14 411.69 948.87 489.54 945.99 585.23 1061.86 618.02
00013725 00000014 915.81 171.49 387.85 559.99 956.64 374.43 1106.24 407.48 949.03 493.12 942.23 583.91 1057.94 610.99
00013726 00000015 918.39 169.84 387.00 561.36 959.86 374.29 1110.61 407.32 954.37 492.27 943.74 583.99 1060.33 611.37
00013727 00000016 922.65 169.26 385.66 561.21 961.36 375.70 1112.22 406.30 956.48 490.67 944.99 585.07 1061.78 610.70
00013728 00000017 925.10 169.93 384.57 559.80 962.24 378.04 1112.87 406.79 959.81 490.92 946.22 586.06 1063.28 610.24
00013729 00000018 926.24 168.24 385.25 562.95 962.99 378.85 1113.73 407.96 960.80 493.16 947.59 587.08 1065.64 611.40
00013730 00000019 928.11 169.67 384.90 565.96 964.94 380.74 1115.42 410.72 964.45 498.63 949.72 592.14 1068.34 617.16
00013731 00000020 927.06 171.11 385.46 565.68 964.24 381.01 1115.11 411.97 963.52 500.72 949.63 592.99 1067.92 618.74
00013732 00000021 926.69 171.33 385.17 566.12 964.24 381.20 1114.98 413.43 962.45 502.43 949.64 593.28 1068.38 619.94
00013733 00000022 926.66 172.33 383.71 567.79 964.77 381.68 1115.06 415.46 962.24 504.01 949.64 594.38 1068.19 622.19
00013734 00000023 925.22 175.26 383.90 566.26 963.76 382.64 1114.67 416.65 962.06 506.95 949.72 595.98 1068.27 623.91
00013735 00000024 925.18 178.95 380.50 572.93 963.72 385.80 1113.19 420.37 961.86 510.38 951.86 599.87 1068.33 628.10
00013736 00000025 927.21 184.30 375.69 572.34 962.59 394.00 1107.82 429.05 959.31 512.51 954.77 603.12 1067.84 631.39
00013737 00000026 923.24 181.73 383.95 574.19 972.09 403.07 1108.38 429.33 970.49 513.05 964.71 607.86 1074.38 628.24
00013738 00000027 922.70 179.21 383.97 580.79 970.81 400.98 1108.95 428.22 968.43 512.84 963.40 609.05 1074.60 630.32
00013739 00000028 927.10 180.49 377.59 583.35 961.51 396.12 1109.31 428.37 961.15 510.94 955.03 610.49 1064.93 637.07
00013740 00000029 923.16 174.16 383.57 588.67 961.58 388.25 1111.26 421.57 961.74 510.50 951.17 610.54 1060.30 638.35
00013741 00000030 923.29 173.88 381.43 589.17 960.95 387.75 1111.02 421.61 962.47 511.91 951.02 610.80 1060.02 639.09
00013742 00000031 923.74 179.42 380.23 584.19 960.13 390.93 1110.24 423.93 961.48 514.54 951.30 612.29 1061.43 639.74
00013743 00000032 924.78 180.92 376.13 586.69 960.19 392.74 1110.25 426.64 961.83 516.87 952.49 613.94 1063.90 642.06
00013744 00000033 924.41 188.88 375.30 582.10 960.53 394.55 1108.77 427.15 962.85 517.32 954.29 616.02 1063.72 643.11
00013745 00000034 917.06 174.00 385.72 591.93 963.53 396.64 1107.77 423.15 964.73 517.79 956.97 612.12 1072.11 632.84
00013746 00000035 916.06 172.67 386.93 591.68 962.20 397.50 1106.02 422.92 963.30 516.39 955.43 611.83 1069.55 631.64
00013747 00000036 918.28 184.53 382.87 582.80 953.30 393.31 1104.00 426.20 955.94 516.92 948.12 613.80 1059.08 640.80
00013748 00000037 913.26 178.01 387.19 587.51 959.28 399.51 1102.10 425.25 960.40 519.09 953.26 613.88 1067.14 633.89
00013749 00000038 915.66 192.34 384.72 577.49 951.85 396.60 1102.51 430.48 953.49 522.20 947.44 615.13 1059.96 642.69
00013750 00000039 915.12 197.35 385.34 574.28 951.88 397.47 1101.99 432.10 951.70 524.79 948.13 615.46 1061.47 643.38
00013751 00000040 915.26 197.48 385.44 571.70 951.13 398.30 1100.63 432.61 950.50 524.64 947.84 614.37 1061.06 641.97
00013752 DELETE   912.73 203.52 388.70 559.91 950.60 406.23 1102.35 442.81 946.92 526.91 951.65 614.63 1067.10 642.64
00013753 00000042 910.35 195.88 388.93 566.24 945.71 409.10 1098.22 441.46 943.55 528.13 949.99 616.95 1064.87 641.81
00013754 00000043 908.70 198.28 387.71 563.53 942.53 406.07 1095.16 440.68 940.82 526.39 948.33 614.48 1064.66 640.84
00013755 00000044 903.97 190.22 385.83 566.35 937.07 403.63 1078.75 429.07 932.36 517.82 943.23 612.66 1048.56 631.83
00013756 00000045 897.12 195.42 381.84 560.84 924.90 400.54 1076.42 426.58 924.63 519.16 934.83 618.19 1049.16 639.21
00013757 00000046 898.01 197.24 375.66 558.85 921.98 402.27 1072.99 427.20 920.91 519.28 932.11 620.53 1045.94 640.96
00013758 00000047 904.33 186.40 373.15 566.88 933.20 404.10 1063.03 424.47 922.17 515.67 935.28 615.36 1036.80 630.81
00013759 00000048 901.61 191.03 371.01 567.39 930.97 406.65 1055.83 424.30 918.65 516.33 934.64 618.31 1031.36 631.80
00013760 00000049 894.94 188.40 371.70 578.31 926.13 404.51 1048.19 423.09 910.19 518.69 930.61 620.65 1024.21 635.59
00013761 00000050 893.58 188.29 368.73 577.91 923.73 405.45 1046.10 424.58 908.44 519.59 927.12 620.89 1022.21 636.52
00013762 00000051 893.29 187.03 368.84 576.57 921.93 405.92 1045.64 426.76 907.01 521.54 924.59 620.47 1021.56 637.58
00013763 00000052 893.20 187.26 368.77 573.63 921.70 405.42 1046.54 427.51 906.69 522.32 924.22 619.89 1023.36 637.91
00013764 00000053 892.67 185.78 372.42 573.88 920.37 405.17 1048.66 428.72 907.12 523.46 921.74 619.11 1023.22 638.44
00013765 00000054 894.88 185.03 373.96 573.37 921.34 404.15 1055.39 428.05 913.01 522.47 921.53 618.09 1027.63 637.54
00013766 00000055 896.81 188.15 373.23 568.98 923.81 404.70 1058.15 427.22 916.18 521.09 924.47 618.69 1031.06 636.66
00013767 00000056 899.13 188.54 373.28 568.83 926.02 405.05 1061.55 426.73 918.09 520.58 927.36 619.59 1033.80 636.53
00013768 00000057 901.30 188.14 375.13 569.35 929.65 404.81 1064.93 427.00 921.36 519.91 930.06 619.11 1035.94 636.28
00013769 00000058 904.02 191.71 374.09 565.11 933.80 404.57 1068.54 427.14 924.63 521.15 935.66 619.24 1039.77 636.37
00013770 00000059 903.86 191.60 377.17 577.10 938.74 405.65 1075.37 426.02 933.39 522.96 944.84 622.76 1047.94 638.38
00013771 00000060 904.92 190.63 379.23 579.67 942.17 405.66 1078.47 425.31 936.62 522.17 948.40 622.97 1051.26 637.83
00013772 00000061 905.37 182.11 382.79 586.44 944.05 404.22 1079.92 423.22 939.41 520.15 949.90 620.29 1053.01 634.77
00013773 00000062 906.48 182.44 385.09 584.30 945.64 404.51 1082.11 423.88 942.08 521.31 950.53 618.96 1055.98 633.66
00013774 00000063 907.87 196.83 389.99 573.96 942.51 402.17 1084.14 425.79 938.96 525.43 950.82 620.37 1056.95 638.62
00013775 00000064 909.78 199.22 392.22 569.50 945.06 403.28 1089.38 427.60 944.88 527.10 951.69 621.42 1059.10 640.37
00013776 00000065 912.10 197.67 391.91 569.90 946.86 402.97 1093.29 428.79 947.68 527.99 952.46 621.16 1060.98 641.53
00013777 00000066 913.09 201.12 391.84 566.65 948.65 402.37 1095.92 429.46 950.91 528.81 953.38 620.49 1062.40 641.97
00013778 00000067 915.32 203.02 390.21 563.57 950.13 402.10 1098.67 429.05 953.16 528.41 954.17 620.26 1064.36 641.76
00013779 00000068 918.40 198.36 387.92 568.04 951.58 401.55 1101.48 428.88 955.58 527.10 954.97 619.77 1066.80 641.76
00013780 00000069 920.33 188.30 390.24 579.91 956.42 402.04 1107.66 428.92 960.49 529.03 959.07 620.75 1074.11 642.78
00013781 00000070 923.37 187.98 388.60 580.61 959.78 401.44 1111.26 429.06 965.06 530.44 961.84 619.83 1078.83 642.70
00013782 00000071 926.58 189.69 386.24 578.85 963.12 402.51 1115.13 429.93 969.15 530.51 964.39 619.22 1083.36 642.09
00013783 00000072 929.74 195.84 386.57 571.71 967.88 404.07 1118.73 431.01 974.27 530.43 968.32 618.12 1088.31 640.56
00013784 00000073 932.40 192.11 384.82 575.42 970.76 402.97 1121.00 429.79 977.11 529.25 970.79 617.69 1091.49 640.15
00013785 00000074 937.60 180.10 386.23 583.06 973.92 399.61 1126.75 425.15 985.62 525.77 973.77 615.67 1096.57 637.28
00013786 00000075 938.38 185.03 385.54 575.37 975.89 398.10 1129.27 424.39 988.67 525.78 975.84 613.99 1098.71 636.04
00013787 00000076 939.02 180.27 385.55 579.60 976.22 397.13 1130.47 422.53 988.98 523.67 976.49 613.96 1099.62 635.32
00013788 00000077 939.94 179.49 386.36 580.00 977.01 396.83 1131.32 422.09 990.09 523.13 977.22 613.15 1100.98 634.43
00013789 00000078 940.66 175.35 385.78 583.28 978.05 396.45 1132.47 420.76 991.80 521.86 978.50 612.32 1103.21 632.84
00013790 00000079 942.54 167.95 386.53 588.47 980.43 394.30 1134.99 417.79 994.44 519.27 980.55 611.07 1105.70 631.13
00013791 00000080 944.12 173.90 384.87 580.90 982.32 394.42 1137.39 417.46 997.57 518.94 982.64 610.64 1106.69 630.27
00013792 00000081 944.86 179.28 384.95 575.41 984.30 394.10 1140.06 417.90 999.85 519.29 984.16 609.98 1109.16 630.15
00013793 00000082 945.81 176.15 384.61 578.43 985.85 394.08 1141.69 417.09 1001.61 518.37 985.73 610.50 1109.51 630.03
00013794 00000083 945.78 175.88 382.65 578.51 986.90 393.36 1143.69 416.24 1003.36 518.53 986.33 610.52 1110.84 630.03
00013795 00000084 945.64 176.52 382.63 577.70 986.79 393.37 1143.59 416.53 1003.00 518.84 986.27 610.49 1110.78 630.21
00013796 00000085 945.28 178.31 383.28 575.17 986.62 393.21 1143.57 417.30 1003.17 519.25 986.48 609.26 1111.72 629.64
00013797 00000086 944.90 178.47 383.86 575.31 985.71 393.46 1142.35 417.58 1002.06 519.94 985.80 608.61 1112.38 628.98
00013798 00000087 944.40 178.44 384.00 574.83 984.71 393.26 1140.96 417.33 1000.82 519.97 985.71 608.31 1112.43 628.55
00013799 00000088 944.43 179.35 383.81 574.51 984.28 393.62 1140.52 417.96 1000.28 519.70 985.06 607.41 1112.39 627.88
00013800 00000089 942.00 176.66 387.45 579.71 981.33 393.58 1139.35 419.53 997.99 522.23 980.71 605.59 1112.92 627.58
00013801 00000090 941.71 175.52 387.76 580.95 981.28 393.36 1139.15 419.60 996.96 522.07 979.97 604.87 1112.68 627.07
00013802 00000091 942.00 176.56 387.71 579.78 981.50 393.48 1139.17 419.86 996.94 522.26 979.84 604.19 1113.32 626.46
00013803 00000092 942.59 175.68 386.42 579.90 982.67 393.17 1139.93 420.17 997.76 522.57 980.23 603.29 1114.25 626.03
00013804 00000093 942.36 183.38 384.95 570.70 984.17 394.85 1140.33 425.13 997.65 523.75 980.73 601.71 1114.09 626.58
00013805 00000094 945.21 181.14 385.12 568.76 985.66 397.72 1143.15 430.06 1000.51 523.67 983.50 599.11 1119.21 625.14
00013806 00000095 943.72 179.81 385.63 571.34 986.00 394.43 1144.77 424.95 1001.99 523.44 983.56 599.86 1119.46 624.72
00013807 00000096 944.76 180.06 387.03 572.15 986.79 393.22 1145.75 420.98 1003.15 522.12 984.33 600.24 1119.99 623.27
00013808 00000097 945.69 180.32 386.51 571.21 987.75 391.79 1146.68 420.52 1003.32 522.32 984.81 599.81 1120.05 623.68
00013809 00000098 945.41 180.58 388.03 570.62 987.35 391.65 1146.61 420.39 1003.10 522.54 985.12 599.56 1120.49 623.42
00013810 00000099 945.38 182.95 387.71 567.44 987.72 391.04 1147.71 420.32 1003.45 522.77 985.63 599.06 1122.01 623.27
00013811 00000100 945.38 182.64 388.25 566.62 987.89 390.71 1147.82 420.24 1003.34 522.57 985.85 598.40 1122.54 622.76
00013812 00000101 945.51 184.81 390.17 563.30 987.46 391.02 1147.68 419.46 1003.92 521.89 985.72 598.42 1122.13 621.92
00013813 00000102 946.51 182.19 390.84 565.28 988.84 390.67 1149.37 419.53 1005.72 521.39 986.83 597.72 1123.22 621.60
00013814 00000103 946.77 184.23 390.98 562.97 989.46 390.70 1149.92 419.50 1006.45 521.16 987.52 597.49 1124.06 621.28
00013815 00000104 946.16 180.98 392.89 565.03 990.19 388.44 1151.31 419.41 1007.17 521.63 987.72 593.89 1126.82 619.40
00013816 00000105 946.65 180.58 392.70 564.60 990.32 388.11 1150.82 419.08 1006.74 521.28 988.10 593.54 1126.66 618.99
00013817 00000106 946.83 179.88 393.05 565.10 990.41 387.72 1150.84 418.84 1006.25 520.87 988.03 593.08 1126.55 618.62
00013818 00000107 946.91 180.34 392.93 564.59 991.04 387.46 1150.88 419.07 1006.81 520.86 988.02 592.74 1126.03 618.72
00013819 00000108 946.69 179.59 392.87 565.04 990.75 386.86 1150.62 419.03 1005.55 520.49 987.64 592.20 1126.22 618.60
00013820 00000109 946.61 179.48 392.78 564.33 990.91 386.54 1149.74 418.06 1005.40 519.31 987.60 591.49 1125.61 617.41
00013821 00000110 946.68 179.91 392.31 563.37 990.61 385.27 1149.67 416.70 1004.83 518.52 986.53 591.84 1123.35 617.78
00013822 00000111 946.58 178.01 391.62 565.07 990.58 384.96 1148.92 416.67 1004.09 518.62 986.56 591.16 1123.62 617.35
00013823 00000112 947.26 177.34 391.69 566.18 990.79 385.28 1149.05 416.44 1003.84 517.75 987.06 591.56 1123.34 617.29
00013824 00000113 946.98 177.92 391.79 565.10 990.96 385.16 1149.03 417.09 1004.04 518.20 986.70 591.11 1123.16 617.42
00013825 00000114 947.98 175.23 393.00 568.67 992.40 384.47 1150.39 416.86 1004.55 517.10 987.37 590.88 1123.31 617.61
00013826 00000115 948.57 174.73 392.60 569.35 993.63 384.74 1151.30 415.93 1006.81 514.39 988.51 591.52 1122.91 617.35
00013827 00000116 948.95 176.52 393.97 566.86 994.20 384.95 1152.20 415.84 1006.79 513.12 989.07 591.74 1123.57 617.19
00013828 00000117 950.00 175.99 392.27 566.54 995.54 383.96 1153.37 415.56 1008.79 512.94 989.44 591.69 1123.16 617.76
00013829 00000118 951.32 176.37 392.00 565.85 996.52 383.91 1154.48 414.60 1009.13 510.86 988.78 592.72 1121.55 618.09
00013830 00000119 955.05 164.98 400.75 582.50 1001.31 378.69 1160.42 405.81 1013.12 503.32 992.95 596.22 1118.37 618.86
00013831 00000120 958.48 165.04 404.34 588.03 1008.27 380.76 1168.21 397.81 1024.90 495.80 1006.68 605.16 1119.30 619.92
00013832 DELETE   962.13 162.79 410.19 596.11 1017.54 378.51 1176.41 396.14 1028.58 483.99 1021.35 604.07 1128.37 618.52
00013833 00000122 969.33 158.07 411.43 593.90 1024.77 376.97 1188.12 385.74 1040.87 473.37 1027.77 603.03 1137.19 611.33
00013834 DELETE   980.68 153.28 408.48 590.98 1035.47 372.39 1194.87 379.90 1056.38 465.16 1039.21 595.60 1146.30 603.30
CROP_BBOX: 674 0 1663 912
