Video ID: 	1O5yWoLhnmU
H: 	2160
W: 	3840
FPS: 	23.976023976023978

FRAME INDEX X0 Y0 W H [Landmarks (5 Points)]

00000201 00000000 1474.61 262.47 716.33 868.86 1643.60 538.96 1980.11 552.80 1785.94 671.31 1643.26 873.19 1936.08 886.93
00000202 DELETE   1482.67 248.97 717.86 905.57 1649.77 539.72 1989.71 549.90 1795.52 664.80 1652.14 875.69 1944.16 886.29
00000203 DELETE   1491.19 244.72 720.38 897.67 1660.62 542.88 2002.85 547.90 1808.48 653.23 1658.14 876.62 1963.16 881.86
00000204 00000003 1497.03 255.06 721.64 871.64 1668.10 535.30 2009.70 541.31 1820.60 650.37 1668.91 873.74 1974.05 879.71
00000205 00000004 1493.71 252.04 730.56 876.57 1667.47 525.83 2014.06 536.59 1822.16 652.51 1672.77 875.87 1970.26 886.07
00000206 00000005 1502.18 253.52 721.70 885.07 1667.68 536.69 2011.48 542.70 1815.95 652.96 1670.85 879.77 1971.82 885.38
00000207 00000006 1507.00 250.20 719.74 879.96 1672.10 542.85 2015.03 548.05 1821.13 654.32 1671.14 882.70 1977.50 887.75
00000208 00000007 1507.22 245.35 719.77 877.77 1679.89 540.79 2022.86 552.86 1831.22 653.66 1677.58 878.26 1981.70 889.56
00000209 00000008 1508.03 247.53 725.06 882.40 1683.42 534.10 2028.83 547.86 1838.98 658.00 1680.87 878.14 1991.13 890.78
00000210 00000009 1511.78 245.80 725.93 895.59 1685.59 535.53 2031.59 544.71 1840.19 656.66 1685.05 877.20 1998.50 885.12
00000211 00000010 1511.63 243.36 726.34 896.00 1687.24 534.20 2033.78 542.98 1843.51 653.31 1683.51 875.57 2007.58 882.33
00000212 00000011 1512.06 242.20 726.23 894.41 1687.63 532.33 2034.97 541.72 1845.65 652.92 1684.26 873.25 2009.33 880.36
00000213 00000012 1513.30 238.92 723.89 897.81 1687.20 533.20 2035.15 542.81 1846.00 648.47 1683.54 872.13 2013.00 879.06
00000214 00000013 1512.29 248.29 722.88 883.59 1686.15 530.58 2034.82 538.05 1847.79 646.68 1683.97 870.99 2014.05 875.93
00000215 00000014 1511.51 246.60 718.08 874.06 1686.05 529.69 2031.82 532.45 1851.24 641.31 1687.69 869.60 2014.09 870.18
00000216 00000015 1509.56 238.34 720.31 866.50 1683.52 521.07 2027.21 517.45 1846.83 623.07 1683.20 863.56 2015.30 857.84
00000217 00000016 1508.64 231.63 719.59 856.63 1687.08 511.91 2024.77 503.94 1846.92 603.88 1683.34 850.77 2018.12 840.59
00000218 00000017 1510.10 226.06 719.03 851.90 1687.28 502.85 2020.97 497.20 1845.61 587.79 1678.29 835.00 2017.66 826.88
00000219 00000018 1508.64 220.79 723.07 836.27 1687.83 497.67 2018.35 494.91 1843.63 580.50 1679.92 819.39 2011.99 814.56
00000220 00000019 1505.74 218.90 724.90 829.34 1686.46 496.84 2016.96 492.24 1842.80 576.51 1682.06 812.81 2010.54 806.61
00000221 00000020 1505.54 221.80 726.79 832.52 1687.28 496.01 2020.05 490.37 1846.36 578.34 1681.51 815.96 2016.80 808.43
00000222 00000021 1506.15 228.40 723.63 855.87 1686.20 495.10 2022.31 484.45 1849.46 582.19 1683.96 832.26 2025.79 819.04
00000223 00000022 1511.38 232.31 716.67 875.53 1683.52 504.13 2023.55 489.74 1849.76 602.99 1696.66 855.34 2024.88 839.17
00000224 00000023 1510.50 239.34 718.65 873.18 1680.79 511.91 2023.18 493.72 1852.94 607.19 1699.37 860.99 2027.11 841.68
00000225 00000024 1512.17 237.57 715.28 859.80 1684.13 508.25 2023.45 491.95 1856.98 603.41 1697.38 856.72 2029.24 838.96
00000226 00000025 1510.43 229.91 717.11 861.25 1686.75 507.58 2025.56 490.93 1863.05 598.34 1696.54 852.91 2032.88 834.91
00000227 00000026 1511.09 229.45 714.99 858.41 1686.85 508.65 2023.77 489.00 1861.71 596.51 1699.53 850.85 2031.38 830.26
00000228 00000027 1512.89 235.04 711.22 857.87 1683.44 510.76 2022.02 487.17 1857.85 598.15 1704.36 851.35 2032.81 827.30
00000229 00000028 1513.83 236.58 709.84 859.87 1678.24 514.89 2018.25 487.77 1851.15 602.61 1710.36 855.77 2029.72 828.62
00000230 00000029 1514.63 239.22 708.56 866.21 1677.44 523.01 2016.95 489.99 1852.54 606.64 1719.18 859.01 2036.29 826.68
00000231 00000030 1513.64 237.35 709.55 865.44 1680.55 518.41 2018.43 486.59 1856.54 603.23 1719.76 851.48 2038.58 819.76
00000232 00000031 1516.28 234.40 706.35 855.84 1685.43 508.45 2021.01 479.42 1858.37 588.52 1726.22 835.78 2029.02 807.59
00000233 00000032 1519.72 240.39 702.26 840.38 1690.73 494.59 2022.93 471.10 1857.54 578.23 1727.17 819.75 2020.11 796.43
00000234 00000033 1521.99 249.31 696.81 819.89 1688.43 490.86 2019.59 468.38 1851.71 569.43 1726.99 812.67 2008.47 790.57
00000235 00000034 1518.08 249.27 697.23 818.26 1687.25 487.78 2019.43 468.28 1851.67 567.53 1726.62 810.34 2000.13 791.19
00000236 00000035 1518.20 245.53 697.80 826.88 1689.84 487.24 2021.30 471.63 1853.13 573.87 1728.00 815.27 1998.88 799.48
00000237 00000036 1516.93 241.46 700.44 847.04 1688.98 488.20 2025.04 473.86 1856.81 579.37 1730.89 825.00 2003.69 810.51
00000238 00000037 1516.95 238.63 701.30 862.30 1686.96 492.49 2024.72 477.59 1854.81 579.03 1733.68 831.82 2003.90 816.65
00000239 00000038 1516.66 235.21 699.98 865.36 1685.08 495.12 2023.17 479.73 1855.20 581.05 1731.01 832.71 2007.23 817.02
00000240 00000039 1514.15 235.14 699.39 866.10 1681.52 499.01 2019.58 480.04 1852.44 585.98 1728.15 835.93 2008.09 816.99
00000241 00000040 1510.66 249.78 698.38 846.03 1676.45 497.75 2014.25 474.44 1852.66 589.73 1727.19 842.75 2008.53 819.86
00000242 00000041 1502.45 247.79 706.82 850.21 1676.30 495.68 2013.41 474.96 1852.48 597.49 1723.41 841.77 2008.21 821.24
00000243 00000042 1501.89 239.89 703.20 859.26 1670.91 511.65 2006.56 482.23 1852.96 603.31 1725.07 850.23 2013.53 822.39
00000244 00000043 1496.29 238.40 708.74 877.86 1663.67 520.21 2001.98 479.82 1846.92 604.14 1715.89 873.75 2027.43 834.93
00000245 00000044 1493.13 243.05 714.72 926.14 1659.60 525.81 1999.74 483.94 1841.82 609.13 1726.09 888.66 2022.04 848.48
00000246 00000045 1491.47 236.81 715.48 918.42 1657.60 535.68 1996.34 489.12 1841.96 619.41 1718.66 892.69 2029.56 848.31
00000247 00000046 1489.14 231.66 712.86 889.57 1658.20 538.82 1994.67 493.98 1844.24 628.09 1706.32 888.69 2036.10 845.17
00000248 00000047 1492.57 233.97 709.18 871.62 1659.39 542.56 1992.03 495.87 1843.90 631.58 1709.52 881.24 2033.38 836.78
00000249 00000048 1492.25 233.92 712.43 875.33 1661.15 546.71 1993.18 500.23 1843.24 638.45 1712.80 880.46 2035.38 836.01
00000250 00000049 1490.58 236.53 717.34 882.73 1661.98 551.59 1994.09 506.55 1844.31 645.12 1716.94 884.49 2034.52 841.39
00000251 00000050 1491.85 236.98 717.00 891.28 1663.68 558.58 1993.90 510.97 1844.89 652.84 1716.91 891.46 2040.71 845.11
00000252 00000051 1491.28 242.93 722.48 906.56 1664.12 562.57 1994.75 512.69 1845.39 655.65 1725.71 899.94 2044.22 851.95
00000253 00000052 1488.26 249.55 725.19 928.96 1661.65 567.65 1996.75 516.67 1843.43 653.22 1728.60 916.53 2043.55 867.99
00000254 00000053 1485.31 246.07 740.68 961.17 1669.55 573.06 2001.90 518.39 1846.56 665.98 1730.23 924.85 2033.20 881.24
00000255 00000054 1483.85 255.64 745.53 941.07 1672.34 589.38 2000.99 529.20 1855.76 682.74 1741.18 929.29 2040.57 880.41
00000256 00000055 1481.41 257.24 745.89 937.28 1669.32 603.81 1998.47 540.45 1857.91 695.44 1742.00 937.47 2044.29 886.10
00000257 00000056 1479.71 257.33 749.23 944.15 1664.61 618.70 1995.23 546.36 1855.17 706.56 1741.50 946.77 2046.85 888.14
00000258 00000057 1477.58 262.51 754.72 947.02 1664.16 625.68 1995.18 549.96 1855.06 716.09 1743.23 952.69 2051.12 891.25
00000259 00000058 1479.48 265.97 754.08 960.89 1661.93 627.92 1989.24 551.51 1846.83 719.49 1740.79 958.35 2051.52 896.96
00000260 00000059 1476.30 269.12 757.25 957.19 1661.65 630.52 1987.13 554.34 1847.69 723.30 1741.77 959.55 2048.63 898.29
00000261 00000060 1478.41 269.44 757.11 958.03 1661.56 631.70 1986.73 554.32 1845.63 724.02 1741.33 959.72 2049.03 897.44
00000262 00000061 1476.06 271.80 758.85 948.14 1661.91 631.08 1987.73 555.31 1846.60 723.76 1742.48 958.71 2046.26 897.68
00000263 00000062 1478.67 275.71 760.52 944.22 1663.76 629.38 1989.73 553.95 1847.91 722.35 1743.63 957.06 2048.67 896.43
00000264 00000063 1479.67 269.36 757.49 948.38 1663.10 626.92 1991.01 553.37 1846.85 718.66 1740.25 955.12 2048.14 895.76
00000265 00000064 1480.41 267.37 755.81 946.59 1663.30 623.76 1993.68 550.84 1848.40 712.38 1739.55 954.23 2047.22 895.49
00000266 00000065 1478.94 264.34 755.36 945.42 1663.95 617.65 1995.25 551.53 1847.53 706.63 1734.81 948.39 2041.83 895.17
00000267 00000066 1479.13 265.40 748.37 934.76 1665.39 612.02 1994.16 550.80 1847.81 700.89 1733.10 942.88 2033.97 894.13
00000268 00000067 1480.44 276.09 745.17 914.64 1666.69 600.53 1998.61 546.64 1848.64 693.73 1730.29 934.96 2032.48 892.51
00000269 00000068 1482.70 272.32 740.36 903.12 1656.92 590.83 1993.59 538.87 1840.28 688.94 1716.33 932.47 2051.05 882.71
00000270 00000069 1483.14 272.73 738.02 893.59 1658.92 591.98 1996.07 539.51 1848.14 684.92 1717.82 930.19 2057.36 880.03
00000271 00000070 1474.11 281.37 752.71 907.68 1658.30 585.30 2000.67 529.39 1863.89 682.39 1716.65 931.92 2067.57 878.73
00000272 00000071 1475.20 276.68 753.08 928.81 1660.17 587.11 2003.67 529.37 1868.95 683.93 1722.55 936.25 2075.51 881.03
00000273 00000072 1478.27 272.10 751.67 936.14 1674.75 599.17 2012.97 536.57 1881.62 696.81 1752.31 943.90 2067.10 892.92
00000274 00000073 1478.78 257.55 751.67 945.38 1676.66 605.25 2012.71 540.41 1882.37 693.22 1756.92 944.00 2068.15 890.93
00000275 00000074 1477.13 251.43 740.59 941.39 1672.42 602.50 2008.31 535.60 1878.69 681.60 1755.13 937.05 2065.43 882.64
00000276 00000075 1469.25 252.65 743.29 936.73 1659.28 600.40 1996.68 530.88 1860.28 681.17 1736.65 933.02 2052.89 877.16
00000277 DELETE   1459.78 260.94 748.11 929.18 1647.62 604.49 1981.85 539.44 1834.27 687.71 1722.21 933.21 2031.54 881.05
00000278 00000077 1454.30 265.77 742.82 941.96 1630.90 615.90 1966.50 552.39 1811.84 701.53 1702.80 940.91 2018.26 890.21
00000279 00000078 1453.25 262.78 743.34 968.35 1625.83 610.67 1952.98 555.42 1788.74 698.91 1693.25 943.61 1998.21 900.58
00000280 00000079 1457.87 268.68 738.60 958.70 1628.23 600.88 1951.17 548.51 1783.50 690.06 1687.66 935.27 1989.41 895.41
00000281 00000080 1464.47 258.60 732.39 956.05 1633.82 591.39 1964.39 538.31 1793.22 679.42 1691.42 926.79 2001.88 886.50
00000282 DELETE   1467.48 247.73 728.22 920.67 1635.43 580.28 1979.56 528.64 1814.99 665.07 1689.91 919.83 2025.30 869.40
00000283 00000082 1476.24 247.88 723.94 911.72 1646.49 580.76 1977.46 523.91 1825.71 664.73 1701.25 918.87 2036.05 865.04
00000284 00000083 1478.10 244.10 723.81 917.28 1652.34 580.97 1984.39 525.36 1836.50 663.49 1715.28 918.46 2041.73 866.10
00000285 00000084 1475.85 247.81 738.22 944.08 1660.67 581.09 1995.75 522.81 1847.68 662.11 1730.59 921.27 2039.84 874.43
00000286 00000085 1474.99 247.88 744.88 966.74 1667.15 578.40 1992.35 515.79 1849.66 662.57 1737.09 932.80 2032.28 882.32
00000287 00000086 1474.18 243.43 737.13 966.81 1664.36 581.31 1991.13 518.84 1849.40 662.20 1735.86 933.76 2029.75 883.73
00000288 00000087 1471.65 240.14 734.64 948.72 1661.08 585.68 1989.16 523.12 1846.39 658.58 1738.13 929.05 2029.78 878.40
00000289 00000088 1473.95 247.25 715.91 913.30 1649.41 583.32 1971.64 528.89 1828.12 669.71 1736.38 917.90 2010.97 868.86
00000290 00000089 1472.07 242.13 717.13 921.58 1645.26 583.41 1971.37 525.38 1824.63 666.36 1723.00 922.76 2019.50 869.34
00000291 00000090 1471.04 243.00 717.21 919.84 1645.49 582.85 1971.96 524.97 1825.14 666.87 1722.85 921.78 2018.43 868.46
00000292 00000091 1472.25 241.86 718.79 921.16 1646.55 585.89 1972.57 524.42 1828.78 666.61 1726.38 923.37 2024.33 866.85
00000293 00000092 1471.21 238.73 721.04 926.07 1648.13 585.20 1975.58 522.34 1833.67 662.56 1728.54 923.80 2031.54 866.00
00000294 00000093 1468.61 241.70 735.34 938.22 1654.68 586.14 1987.81 522.95 1843.33 659.95 1730.62 919.24 2036.47 867.66
00000295 00000094 1472.08 235.24 720.26 914.81 1650.10 580.29 1976.94 515.77 1838.48 650.77 1720.70 915.03 2043.66 854.55
00000296 00000095 1473.17 229.16 711.37 885.66 1647.51 570.80 1972.95 506.70 1837.60 642.30 1719.01 897.45 2033.61 838.22
00000297 00000096 1471.62 228.93 706.35 874.35 1643.00 557.43 1968.26 492.29 1833.00 629.17 1708.82 879.93 2029.41 819.13
00000298 00000097 1466.78 224.56 716.11 877.55 1637.82 552.90 1968.17 492.24 1823.24 622.91 1706.95 867.29 2012.69 812.19
00000299 00000098 1470.11 232.14 713.57 876.34 1640.18 549.39 1967.71 489.41 1822.32 618.71 1713.73 864.30 2010.06 810.14
00000300 00000099 1475.10 235.52 703.97 872.98 1643.70 547.01 1966.80 481.79 1829.16 621.64 1725.72 870.68 2017.86 810.73
00000301 00000100 1472.57 234.61 706.10 887.51 1644.28 547.87 1967.35 483.00 1834.85 624.28 1733.43 878.99 2020.19 819.73
00000302 00000101 1470.41 227.30 704.88 890.99 1643.32 549.03 1964.97 485.60 1831.89 626.55 1736.08 878.80 2013.31 821.39
00000303 00000102 1465.81 221.68 714.49 883.44 1642.10 549.92 1964.78 489.65 1827.73 621.58 1724.10 865.40 2007.04 812.41
00000304 00000103 1464.32 222.30 714.36 869.63 1640.18 540.51 1964.01 487.06 1822.27 613.00 1716.96 857.40 1993.59 811.02
00000305 00000104 1465.99 229.19 712.61 871.30 1636.61 538.38 1961.40 480.51 1817.72 606.74 1717.76 858.90 1996.53 808.39
00000306 00000105 1471.31 231.57 706.79 887.64 1641.43 534.67 1964.16 477.33 1821.38 611.31 1728.21 868.17 2001.03 815.58
00000307 00000106 1474.93 238.87 708.46 885.91 1645.83 537.31 1965.60 477.88 1827.16 620.33 1734.75 871.29 2009.44 816.83
00000308 00000107 1472.26 228.21 714.96 921.40 1648.54 549.63 1970.38 490.03 1832.15 632.76 1741.92 885.44 2016.50 831.46
00000309 00000108 1474.03 238.14 726.81 938.05 1661.84 570.12 1973.83 506.00 1832.82 658.19 1730.46 906.12 2009.71 853.82
00000310 00000109 1472.30 243.28 731.95 942.55 1661.58 574.03 1976.34 510.30 1836.56 663.22 1733.56 915.98 2014.74 864.21
00000311 00000110 1475.76 240.63 731.83 946.13 1665.14 580.15 1982.32 517.51 1842.50 667.14 1738.82 920.74 2024.48 869.98
00000312 00000111 1471.80 242.86 737.97 946.17 1660.99 587.07 1985.66 524.33 1843.01 676.46 1737.68 929.09 2027.81 878.13
00000313 00000112 1472.55 254.56 742.54 945.16 1665.09 593.23 1991.77 530.70 1855.76 692.48 1744.02 940.88 2033.87 889.95
00000314 00000113 1474.21 252.38 748.20 967.79 1664.36 604.93 1992.29 534.55 1857.72 702.85 1750.16 958.18 2041.14 900.83
00000315 00000114 1475.15 262.11 753.26 966.55 1663.74 617.19 1993.38 542.50 1857.47 713.78 1752.95 967.44 2049.32 906.55
00000316 00000115 1474.81 266.04 756.76 967.43 1663.22 624.52 1994.27 549.24 1858.56 726.91 1754.54 971.44 2055.81 909.72
00000317 00000116 1472.63 265.48 758.20 970.13 1661.23 630.00 1994.17 554.66 1857.83 736.90 1752.01 975.05 2056.78 913.01
00000318 00000117 1470.29 272.02 762.20 968.32 1659.80 633.27 1991.84 557.57 1855.57 742.59 1752.17 977.83 2057.28 915.35
00000319 00000118 1470.10 270.79 764.18 970.95 1658.45 635.78 1991.23 558.89 1853.42 745.48 1752.69 979.52 2058.43 916.04
00000320 00000119 1468.59 276.69 762.66 965.29 1657.06 637.55 1987.98 560.12 1851.74 746.14 1750.48 981.23 2052.90 917.64
00000321 00000120 1468.16 269.92 762.15 974.92 1656.15 635.62 1987.82 561.25 1850.11 744.62 1746.51 978.77 2052.87 917.38
00000322 00000121 1467.02 277.67 759.08 964.38 1654.79 637.60 1986.56 560.37 1851.76 742.19 1746.83 980.20 2050.58 917.10
00000323 00000122 1463.54 283.06 758.98 951.77 1656.60 631.95 1989.15 561.18 1852.49 736.06 1746.00 975.57 2046.00 918.11
00000324 00000123 1459.49 303.83 760.82 925.97 1652.22 625.01 1996.68 558.68 1851.34 729.72 1739.07 971.06 2049.87 918.06
00000325 00000124 1454.37 288.25 765.90 935.57 1654.46 630.71 1995.92 559.61 1862.11 725.07 1750.49 972.94 2056.19 915.58
00000326 00000125 1453.10 291.63 766.47 931.18 1653.55 635.77 1993.43 555.67 1868.27 728.90 1757.31 978.48 2061.55 913.58
00000327 00000126 1445.43 289.79 768.31 939.52 1646.58 649.58 1976.52 555.02 1871.81 742.75 1764.32 989.31 2058.89 911.45
00000328 DELETE   1434.50 297.60 775.18 937.83 1632.09 655.03 1965.81 549.28 1859.95 743.11 1761.54 998.83 2056.01 911.52
00000329 DELETE   1427.84 293.66 769.83 941.80 1621.29 656.30 1955.53 555.77 1838.45 738.68 1745.77 992.85 2041.09 909.11
00000330 DELETE   1415.48 288.63 772.46 945.64 1608.70 644.29 1947.54 562.63 1813.51 728.14 1715.27 980.64 2012.37 913.38
00000331 00000130 1409.40 284.31 769.11 946.25 1602.39 633.10 1940.46 563.54 1800.71 717.86 1697.53 969.53 1992.58 912.75
00000332 00000131 1406.95 276.73 772.68 950.58 1603.56 624.30 1935.58 555.96 1796.85 712.03 1698.84 963.45 1984.51 907.36
00000333 00000132 1411.48 272.04 767.83 948.13 1610.74 610.16 1938.27 544.24 1805.06 701.15 1708.64 955.99 1985.96 901.88
00000334 00000133 1419.13 259.33 762.41 951.04 1616.05 600.76 1939.56 537.38 1809.18 687.38 1713.38 945.67 1989.07 894.09
00000335 00000134 1422.98 253.98 759.97 952.57 1618.75 598.62 1941.50 533.40 1808.70 674.50 1713.74 941.92 1988.03 889.36
00000336 00000135 1428.15 253.38 750.65 948.31 1615.05 601.02 1947.09 534.32 1804.84 668.26 1710.29 944.23 1997.39 890.22
00000337 00000136 1435.46 247.41 739.27 955.31 1615.88 596.17 1944.90 527.50 1799.50 666.41 1706.37 937.83 1994.72 883.16
00000338 00000137 1439.64 241.75 737.24 963.50 1616.06 595.66 1945.77 526.95 1799.38 663.02 1700.21 933.01 1998.52 879.08
00000339 00000138 1438.23 236.49 745.38 972.63 1620.09 593.57 1953.08 529.51 1804.30 667.18 1702.42 933.26 2005.77 882.61
00000340 00000139 1439.63 242.46 747.50 969.73 1623.36 599.95 1959.71 534.05 1811.01 674.10 1709.08 938.24 2016.30 885.90
00000341 00000140 1444.02 254.67 746.06 965.70 1625.63 608.86 1963.58 536.77 1820.70 691.72 1717.92 948.97 2027.04 891.55
00000342 00000141 1444.07 256.89 750.67 971.13 1628.63 616.93 1962.08 543.07 1824.79 702.00 1722.96 957.49 2026.74 897.50
00000343 00000142 1440.37 259.98 758.23 972.40 1629.04 620.16 1961.45 544.80 1829.18 706.34 1726.75 961.56 2030.35 899.99
00000344 00000143 1440.29 263.67 758.42 970.42 1627.77 625.87 1960.05 548.67 1828.21 713.29 1726.37 965.20 2031.94 901.98
00000345 00000144 1436.45 267.72 762.57 965.39 1627.24 623.69 1960.57 547.17 1828.80 713.76 1729.32 967.20 2030.31 904.26
00000346 00000145 1436.59 261.40 763.47 971.92 1624.35 625.08 1957.99 547.53 1822.99 709.78 1724.01 964.91 2028.84 901.26
00000347 00000146 1436.90 264.19 759.34 966.48 1624.02 623.23 1957.82 545.50 1822.38 703.54 1724.31 962.32 2028.19 898.91
00000348 00000147 1440.62 264.77 754.86 962.31 1624.66 618.41 1956.14 540.47 1818.82 695.11 1723.33 955.85 2025.65 892.68
00000349 00000148 1441.01 259.56 754.21 969.24 1629.42 609.79 1952.92 534.25 1818.98 686.20 1723.99 947.06 2018.96 885.99
00000350 00000149 1444.91 254.50 750.93 975.89 1635.09 598.80 1952.04 528.76 1814.09 676.19 1721.48 939.02 2009.13 882.08
00000351 00000150 1446.56 255.28 749.04 981.52 1634.89 588.95 1945.78 516.30 1812.42 664.04 1720.65 935.30 2004.23 877.10
00000352 00000151 1453.61 253.97 743.15 993.18 1639.28 584.54 1947.34 507.69 1811.97 655.02 1723.87 938.89 2005.45 878.43
00000353 00000152 1457.78 249.29 740.57 1009.43 1642.90 578.68 1953.04 498.89 1819.07 649.14 1732.25 949.01 2013.06 886.51
00000354 00000153 1462.14 245.74 739.99 1009.27 1648.94 578.65 1959.38 497.87 1827.78 648.69 1736.77 948.09 2018.37 884.79
00000355 00000154 1465.06 248.64 736.78 969.94 1655.02 587.73 1972.58 514.74 1843.56 665.96 1743.86 938.50 2027.34 880.13
00000356 00000155 1467.21 264.77 738.03 934.16 1653.29 596.00 1978.41 528.07 1840.36 680.04 1739.69 939.53 2029.01 884.43
00000357 00000156 1466.42 272.62 736.72 925.64 1651.08 604.85 1977.87 540.24 1839.01 692.39 1733.19 942.36 2027.07 890.38
00000358 00000157 1460.32 274.16 740.16 926.75 1648.90 618.38 1972.14 549.26 1839.68 705.99 1736.24 948.23 2025.96 892.59
00000359 00000158 1455.16 288.94 744.70 918.09 1642.85 622.17 1969.04 552.85 1836.84 720.44 1734.10 956.28 2022.14 900.33
00000360 00000159 1459.32 300.95 740.28 913.10 1641.16 632.96 1968.05 560.11 1835.43 736.46 1731.36 966.53 2019.25 907.95
00000361 00000160 1455.60 315.99 748.77 900.55 1636.16 625.71 1969.94 557.73 1834.37 739.86 1728.47 973.82 2026.11 911.18
00000362 00000161 1451.15 321.28 750.58 899.29 1629.63 639.48 1964.85 570.17 1826.25 752.31 1728.87 983.57 2021.04 920.24
