Video ID: 	TIHyqjjAiu8
H: 	1080
W: 	1920
FPS: 	25.0

FRAME INDEX X0 Y0 W H [Landmarks (5 Points)]

00002719 00000000 525.88 127.69 435.41 676.89 632.30 405.17 855.90 403.50 748.15 544.78 655.32 647.20 843.46 645.61
00002720 DELETE   534.94 125.48 440.01 684.26 643.63 402.72 869.37 399.36 764.96 541.41 669.27 650.20 856.53 646.68
00002721 DELETE   542.20 124.09 444.99 689.52 650.51 405.34 881.46 402.38 775.01 546.06 678.73 658.50 867.34 654.61
00002722 00000003 546.04 120.95 452.00 701.49 660.33 412.15 889.38 408.58 786.52 557.03 691.09 667.50 877.76 662.81
00002723 DELETE   555.27 124.54 450.17 703.40 673.44 421.52 898.55 415.90 796.40 556.62 707.42 675.92 887.14 669.28
00002724 00000005 560.74 122.56 451.21 710.54 680.86 418.48 904.25 411.38 803.90 549.28 715.27 678.80 890.27 671.41
00002725 00000006 567.82 109.18 457.06 726.79 684.59 405.36 917.50 405.30 808.85 540.38 708.09 668.06 892.94 668.65
00002726 00000007 571.42 106.24 464.48 732.68 689.05 401.06 929.85 401.79 819.28 542.78 713.22 669.27 905.31 670.30
00002727 00000008 581.90 111.69 464.76 733.44 699.70 403.83 942.79 405.39 828.71 544.64 720.23 672.34 919.62 673.59
00002728 00000009 593.48 115.46 463.99 741.59 705.42 407.00 947.65 407.31 833.90 552.23 728.08 679.10 928.46 679.46
00002729 00000010 598.29 116.62 472.40 753.09 716.97 408.12 957.72 407.16 843.56 555.72 747.48 689.44 935.04 686.47
00002730 00000011 605.08 117.00 471.46 768.34 721.18 411.46 966.64 408.44 851.25 560.88 751.07 698.23 947.61 693.77
00002731 00000012 612.17 118.92 471.37 770.55 730.59 413.18 977.35 410.58 862.14 560.82 764.28 700.55 960.77 696.06
00002732 00000013 621.41 123.49 476.34 756.03 744.01 419.57 982.32 423.69 870.62 563.45 769.42 692.60 968.04 694.69
00002733 00000014 629.53 119.01 472.53 759.52 747.89 417.31 990.04 417.29 877.84 564.56 771.78 692.24 977.73 692.75
00002734 00000015 633.72 118.97 475.73 761.30 752.76 420.16 995.84 418.33 883.99 566.66 779.40 696.05 984.28 695.29
00002735 00000016 640.74 123.60 477.38 761.93 759.26 422.65 1003.84 420.18 892.40 569.93 787.58 704.53 987.86 703.55
00002736 00000017 643.33 125.08 483.98 759.80 767.67 424.64 1016.96 424.55 898.21 572.95 799.79 713.13 990.63 712.27
00002737 00000018 649.96 130.34 488.02 758.11 775.55 427.22 1026.99 426.09 909.81 577.02 814.89 721.36 996.48 719.48
00002738 00000019 657.49 132.22 490.24 762.13 783.37 434.56 1034.95 430.74 918.79 582.67 824.88 729.19 1004.23 724.92
00002739 00000020 659.77 132.85 492.46 775.05 788.88 437.11 1038.03 430.52 923.81 583.65 830.24 733.55 1009.14 727.00
00002740 00000021 661.88 130.21 493.47 785.29 789.03 435.68 1038.54 426.71 923.96 583.47 831.18 734.44 1014.16 726.21
00002741 00000022 663.98 128.01 493.00 784.88 788.35 434.67 1039.75 425.38 921.87 581.45 828.44 728.12 1019.83 719.51
00002742 00000023 667.52 124.70 495.10 778.37 788.24 436.23 1043.88 427.20 923.75 585.17 827.60 721.44 1029.71 712.53
00002743 00000024 670.29 120.81 501.64 775.84 789.77 440.57 1049.73 430.58 928.73 590.91 828.70 719.75 1040.24 709.75
00002744 00000025 681.04 123.84 493.22 778.00 795.44 442.17 1052.20 430.78 933.81 596.48 826.03 720.23 1050.70 710.55
00002745 00000026 681.06 124.34 496.29 781.01 796.72 442.95 1054.43 433.02 935.39 599.73 825.21 721.23 1052.57 712.74
00002746 00000027 680.06 127.31 497.41 790.47 797.83 445.44 1054.92 437.65 937.89 600.64 825.83 728.34 1048.08 721.79
00002747 00000028 671.46 129.41 505.85 801.16 796.01 447.31 1049.80 438.84 927.78 600.22 828.91 739.37 1037.77 732.48
00002748 00000029 669.58 132.16 504.54 790.66 792.19 448.86 1049.54 439.46 927.51 601.16 828.67 740.98 1036.98 733.27
00002749 00000030 665.30 129.11 505.50 783.06 785.74 444.30 1052.44 435.43 932.11 599.62 826.12 736.58 1037.84 727.91
00002750 00000031 659.46 129.85 506.48 792.85 784.26 444.74 1047.42 431.40 932.37 598.75 831.82 746.69 1032.63 734.61
00002751 00000032 653.92 127.62 508.53 797.30 781.50 443.24 1042.67 429.85 928.69 597.03 831.23 747.91 1027.03 735.97
00002752 00000033 648.63 124.42 513.22 801.05 779.11 442.26 1040.27 427.05 925.77 592.18 829.77 745.38 1027.35 731.86
00002753 00000034 644.86 122.88 515.63 801.67 774.94 441.87 1035.09 425.49 919.78 591.08 826.62 744.17 1025.32 729.91
00002754 00000035 643.47 120.17 518.13 798.34 769.16 443.98 1032.44 424.57 915.89 594.92 824.30 744.60 1027.23 727.73
00002755 00000036 641.15 120.57 519.41 796.08 767.74 443.51 1030.25 423.48 915.43 594.50 825.54 744.54 1025.22 727.16
00002756 00000037 638.08 122.09 520.58 797.08 765.06 443.97 1027.11 424.45 912.80 594.99 823.37 747.54 1019.78 730.79
00002757 00000038 636.39 124.51 522.25 797.35 764.69 445.30 1025.70 426.43 911.81 596.26 823.05 748.77 1015.52 732.88
00002758 00000039 636.02 126.14 521.99 799.80 765.89 447.49 1024.70 428.18 913.67 596.57 823.89 749.56 1015.40 733.43
00002759 00000040 636.62 126.97 521.76 805.40 767.37 447.79 1025.23 429.07 914.59 595.79 823.84 749.79 1016.33 734.36
00002760 00000041 638.85 123.16 521.44 810.70 769.68 445.90 1028.67 427.65 916.07 595.51 823.72 748.19 1020.31 733.11
00002761 00000042 643.02 119.53 522.11 808.89 770.91 447.99 1034.04 429.71 918.60 599.32 822.56 745.74 1028.75 730.16
00002762 00000043 645.81 120.89 522.41 802.32 772.25 448.27 1037.83 431.71 918.70 600.43 820.03 739.86 1034.90 725.22
00002763 00000044 647.03 121.40 524.77 799.28 775.14 449.83 1041.08 434.10 921.19 600.35 821.16 737.90 1037.37 723.79
00002764 00000045 648.49 122.83 524.47 798.66 777.01 450.11 1042.85 434.26 923.18 601.41 822.30 738.96 1038.53 724.70
00002765 00000046 650.11 122.28 522.82 803.86 777.09 451.38 1044.07 435.83 924.40 604.75 824.59 745.55 1037.61 731.91
00002766 00000047 653.49 122.11 518.00 811.08 778.77 454.44 1041.36 437.00 917.51 605.69 823.83 753.10 1037.85 738.22
00002767 00000048 655.01 122.63 519.69 813.05 779.61 454.30 1042.48 437.99 916.86 608.91 824.42 751.99 1038.45 738.11
00002768 00000049 658.40 124.80 519.80 810.83 781.12 454.58 1044.42 439.36 918.29 609.88 823.54 749.34 1040.47 736.60
00002769 00000050 660.47 126.37 518.76 810.83 782.21 455.01 1044.99 440.26 918.82 610.69 822.82 747.36 1042.22 735.01
00002770 00000051 662.63 126.81 519.17 814.16 784.16 454.41 1046.06 441.04 919.33 610.61 822.86 746.43 1042.85 735.28
00002771 00000052 665.50 126.64 516.67 813.08 785.94 453.52 1047.34 440.38 920.24 609.56 824.00 744.90 1043.83 734.02
00002772 00000053 667.00 126.71 515.94 810.05 786.53 453.71 1049.13 441.74 921.95 611.14 825.32 746.73 1041.68 736.89
00002773 00000054 669.26 126.66 515.14 802.76 788.75 453.36 1052.72 442.75 925.01 610.98 826.42 745.72 1042.46 737.01
00002774 00000055 671.47 129.61 513.65 797.50 789.78 453.80 1055.00 442.99 926.80 611.90 826.56 745.35 1045.47 736.58
00002775 00000056 672.82 127.56 513.20 795.37 791.53 453.82 1055.66 442.05 928.97 609.44 829.60 746.98 1044.47 737.49
00002776 00000057 674.58 123.85 512.71 796.85 794.93 453.79 1056.94 440.26 932.73 607.10 835.15 749.31 1044.37 738.38
00002777 00000058 675.62 123.29 513.88 794.73 797.04 450.00 1056.71 435.81 935.03 601.02 839.17 748.52 1041.13 736.96
00002778 00000059 677.50 121.76 513.86 796.16 797.94 447.98 1057.57 431.91 937.28 598.09 843.01 750.35 1040.79 737.23
00002779 00000060 681.13 122.03 511.22 795.57 800.79 448.46 1059.50 433.75 939.92 600.46 845.72 751.43 1039.26 739.81
00002780 00000061 693.17 123.37 503.17 796.26 803.75 446.58 1063.27 436.83 944.13 608.36 846.40 750.79 1047.50 743.61
00002781 00000062 686.93 127.65 506.74 801.15 806.62 454.83 1067.59 443.61 944.72 611.73 849.35 758.13 1044.28 749.98
00002782 00000063 687.90 129.47 505.24 803.59 808.68 457.04 1067.75 447.16 945.59 616.15 851.15 760.10 1045.18 753.05
00002783 00000064 689.05 136.16 504.18 795.96 810.10 458.86 1068.41 450.63 947.57 620.81 851.33 759.94 1045.92 754.39
00002784 00000065 696.65 136.65 502.39 790.50 807.71 454.32 1069.67 447.50 945.60 624.64 847.29 755.64 1053.78 750.89
00002785 00000066 689.51 137.84 504.00 796.85 809.80 459.00 1070.65 452.95 946.80 623.72 845.45 756.50 1050.62 752.84
00002786 00000067 688.42 138.74 505.11 806.57 810.38 458.69 1069.75 453.66 945.46 623.58 841.80 756.87 1053.49 754.04
00002787 00000068 686.19 138.17 506.61 803.61 809.07 457.39 1069.66 454.73 944.36 622.21 836.94 749.94 1056.00 748.95
00002788 00000069 684.61 137.61 505.40 805.24 808.57 456.55 1067.78 454.96 941.99 621.63 831.95 744.95 1057.84 744.62
00002789 00000070 682.52 136.83 505.68 807.90 806.84 457.31 1064.63 455.06 938.57 622.55 828.03 742.37 1056.37 741.30
00002790 00000071 681.22 139.35 504.21 811.69 804.23 458.58 1062.25 456.85 934.90 627.08 823.13 742.60 1057.36 741.71
00002791 00000072 675.14 144.86 511.32 806.35 804.91 466.00 1061.43 464.81 933.87 635.54 827.90 740.49 1056.74 737.47
00002792 00000073 675.45 148.91 508.90 805.01 803.72 468.76 1061.14 467.26 933.01 642.19 824.63 742.11 1055.87 739.03
00002793 00000074 676.14 153.67 507.73 803.59 802.90 472.33 1059.44 471.03 929.83 645.10 822.05 744.03 1055.11 741.11
00002794 00000075 677.09 154.94 506.71 803.56 803.26 473.54 1059.08 472.99 928.32 646.03 821.57 743.62 1055.16 741.27
00002795 00000076 679.25 153.89 507.02 802.77 805.82 473.32 1061.17 472.49 931.33 645.69 823.91 744.47 1055.52 742.16
00002796 00000077 680.63 153.92 507.85 804.01 808.73 472.07 1064.67 471.66 935.35 642.24 828.31 745.82 1058.25 743.83
00002797 00000078 683.47 152.16 507.29 804.69 813.63 472.05 1069.09 472.91 939.78 640.01 835.02 746.77 1060.72 745.94
00002798 00000079 690.86 153.18 500.38 800.91 812.81 467.33 1069.96 470.33 941.44 639.40 830.52 747.75 1062.36 750.59
00002799 00000080 693.40 153.69 500.05 797.83 814.38 468.71 1073.29 470.40 945.07 639.03 834.28 749.90 1065.60 751.73
00002800 00000081 703.29 154.42 498.34 793.39 813.48 463.52 1073.89 462.46 945.98 637.33 837.42 749.42 1067.83 748.82
00002801 00000082 703.23 156.34 498.05 788.09 813.98 464.82 1073.09 464.84 944.97 636.93 838.56 751.39 1062.66 751.72
00002802 00000083 702.88 155.40 497.78 788.13 814.15 465.54 1073.43 466.00 944.70 636.77 838.47 751.79 1061.08 752.53
00002803 00000084 704.28 156.37 500.04 786.95 815.54 465.18 1074.84 465.29 944.94 637.62 839.61 751.43 1062.70 751.95
00002804 00000085 700.47 155.95 500.14 788.42 818.83 470.10 1082.29 473.84 950.99 640.25 841.01 753.35 1065.33 757.35
00002805 00000086 702.12 155.77 500.81 790.93 821.21 471.20 1084.39 475.61 953.87 641.25 843.79 755.97 1067.61 760.43
00002806 00000087 704.06 160.74 500.16 785.65 822.72 474.06 1085.17 478.29 955.92 643.89 845.89 757.54 1068.69 761.67
00002807 00000088 705.87 163.12 499.54 784.84 824.00 475.16 1086.36 479.50 957.30 645.96 847.31 759.28 1069.30 763.56
00002808 00000089 707.80 164.54 499.43 784.31 826.37 477.51 1088.27 481.90 959.17 647.31 849.21 761.47 1071.04 765.73
00002809 00000090 711.55 168.50 498.16 780.36 830.41 479.95 1089.56 483.74 962.62 649.62 853.53 762.96 1072.71 766.78
00002810 00000091 715.66 174.17 495.85 777.37 833.27 483.37 1090.36 486.59 964.69 651.84 855.65 765.50 1073.47 768.97
00002811 00000092 718.07 176.06 493.90 776.33 834.85 485.23 1091.28 488.89 966.26 652.56 856.10 766.74 1073.35 770.50
00002812 00000093 719.46 178.52 492.83 774.34 835.57 486.23 1091.67 490.49 965.59 654.82 856.73 767.49 1073.14 771.80
00002813 00000094 719.67 180.09 491.80 772.58 835.62 486.37 1091.60 491.21 964.70 656.25 855.81 767.95 1071.69 772.83
00002814 00000095 717.24 180.45 491.71 771.58 833.42 487.68 1088.39 491.66 962.67 657.65 854.65 767.97 1069.71 772.05
00002815 00000096 714.83 179.15 490.65 772.01 830.74 487.57 1086.04 491.50 959.93 657.49 850.93 767.20 1066.92 771.28
00002816 00000097 711.23 177.58 490.33 771.92 826.60 487.59 1083.03 491.92 956.58 657.26 846.03 765.66 1063.56 769.87
00002817 00000098 707.88 177.20 487.12 770.75 822.19 485.93 1077.80 492.02 951.04 656.12 840.45 763.81 1055.78 769.49
00002818 00000099 705.57 179.14 486.46 767.62 819.48 486.27 1075.69 493.22 946.65 656.48 837.30 762.76 1053.75 769.11
00002819 00000100 703.59 180.59 484.18 764.66 816.62 486.92 1070.66 495.13 942.14 658.21 833.53 762.11 1048.96 769.57
00002820 00000101 701.80 182.56 481.86 762.57 814.12 486.60 1068.56 496.25 939.28 660.20 829.78 762.71 1045.47 771.42
00002821 00000102 699.80 181.91 480.65 762.98 811.35 485.76 1065.09 495.48 935.98 661.12 828.37 763.41 1042.65 772.26
00002822 00000103 697.21 182.26 479.39 763.52 808.40 487.29 1061.60 494.84 933.99 660.52 826.58 764.70 1041.49 771.68
00002823 00000104 692.09 191.86 481.12 753.06 804.72 497.67 1051.00 507.54 926.79 661.96 823.61 764.91 1035.83 771.99
00002824 00000105 690.87 194.57 477.56 750.55 801.89 499.17 1047.73 507.77 923.75 663.29 821.12 765.88 1032.98 772.08
00002825 00000106 683.33 186.90 483.76 753.68 796.71 495.53 1049.00 497.91 923.64 659.15 819.89 767.57 1030.97 767.78
00002826 00000107 680.82 190.00 483.53 752.06 793.75 496.44 1047.44 497.60 922.32 661.09 819.18 770.71 1028.26 769.95
00002827 00000108 677.54 189.97 486.20 752.76 791.81 496.96 1046.34 497.73 921.97 662.25 818.79 771.96 1026.73 770.96
00002828 00000109 676.08 193.92 486.14 749.68 791.16 498.08 1046.29 498.60 922.18 664.15 818.78 773.03 1026.61 771.87
00002829 00000110 674.84 191.96 486.66 751.83 790.71 497.94 1046.63 498.00 923.49 663.82 819.04 773.07 1027.67 771.48
00002830 00000111 673.90 194.97 487.03 748.16 791.19 499.21 1047.46 497.96 926.16 664.34 821.04 774.65 1029.05 772.01
00002831 00000112 673.63 192.43 487.96 749.21 792.03 499.81 1048.29 497.67 928.31 664.12 823.18 774.85 1030.47 771.39
00002832 00000113 673.02 192.36 489.72 749.89 793.82 500.49 1050.31 497.56 932.01 664.35 825.67 774.99 1033.35 770.94
00002833 00000114 673.04 191.08 491.32 750.18 795.12 500.35 1051.90 497.14 933.73 664.15 827.29 774.41 1035.56 770.16
00002834 00000115 678.56 195.37 481.24 747.04 799.90 504.26 1050.19 504.11 933.80 668.01 825.69 771.53 1036.46 771.27
00002835 00000116 678.92 197.38 481.90 745.09 801.41 505.78 1051.70 505.51 935.36 668.06 826.61 772.10 1037.38 771.84
00002836 00000117 679.19 197.04 481.54 745.34 802.09 505.77 1052.70 505.78 936.21 667.89 826.69 772.20 1037.84 772.16
00002837 00000118 674.54 190.76 491.52 750.93 799.19 501.85 1055.94 498.75 939.79 665.53 830.45 775.80 1039.74 771.82
00002838 00000119 680.00 198.75 480.49 745.34 802.22 507.22 1052.72 507.21 935.68 670.49 826.89 774.47 1037.78 774.54
00002839 00000120 675.60 193.19 490.22 751.93 798.85 504.55 1056.35 501.56 939.68 669.14 829.97 780.04 1040.21 776.17
00002840 00000121 675.22 193.84 489.85 752.36 798.43 505.16 1055.96 502.87 938.69 670.97 829.15 781.02 1039.00 777.81
00002841 00000122 675.49 195.50 489.62 752.92 798.40 505.96 1055.12 504.21 937.35 671.24 828.24 781.90 1037.50 779.18
00002842 00000123 675.47 197.84 490.17 752.38 797.20 507.04 1055.18 505.88 935.50 673.58 827.06 784.41 1036.03 782.29
00002843 00000124 674.85 201.15 490.53 750.32 795.74 508.92 1054.75 509.40 932.98 677.93 823.37 785.78 1034.41 785.24
00002844 00000125 674.48 203.39 489.71 749.47 794.43 509.16 1053.14 511.59 929.84 679.81 820.18 785.61 1032.19 786.65
00002845 00000126 672.85 203.97 491.85 751.05 793.35 510.20 1052.81 513.48 928.86 682.36 818.84 786.67 1031.90 788.43
00002846 00000127 671.92 204.78 493.42 752.78 792.81 511.51 1053.77 515.64 927.63 683.39 815.76 786.16 1033.53 788.69
00002847 00000128 670.58 206.52 493.80 753.60 791.68 512.02 1054.26 517.95 926.61 686.15 809.96 782.68 1036.34 786.79
00002848 00000129 669.69 209.87 495.48 749.68 791.53 512.84 1054.54 520.41 925.89 688.33 806.26 777.97 1038.89 783.42
00002849 00000130 668.44 211.86 497.80 749.25 791.32 513.13 1054.25 520.99 924.47 689.07 803.97 774.05 1041.80 779.81
CROP_BBOX: 254 0 1451 1080
