Video ID: 	HtVgvw5o5EQ
H: 	1080
W: 	1920
FPS: 	25.0

FRAME INDEX X0 Y0 W H [Landmarks (5 Points)]

00012240 00000000 448.90 153.77 406.22 561.46 549.03 400.07 734.15 400.25 639.30 498.21 570.22 590.26 724.04 590.25
00012241 00000001 448.45 155.49 407.26 563.65 547.54 403.99 731.76 405.31 634.74 501.98 566.59 590.02 723.66 590.90
00012242 00000002 448.65 154.92 405.57 562.93 547.39 402.51 730.33 404.17 634.27 500.17 565.50 587.42 723.00 588.53
00012243 00000003 449.52 151.67 404.97 567.47 547.00 398.54 729.88 400.39 632.41 497.50 565.64 587.55 720.52 588.69
00012244 00000004 449.50 149.16 407.81 575.39 551.19 395.36 728.45 395.75 637.00 495.08 574.21 590.33 716.96 590.57
00012245 00000005 452.12 144.83 403.91 569.16 545.67 391.47 727.91 389.98 630.48 488.16 568.86 584.35 720.81 582.32
00012246 00000006 452.29 142.68 400.98 563.23 544.29 388.32 725.84 386.10 628.69 481.47 567.09 578.27 719.39 575.39
00012247 00000007 451.94 142.55 398.03 558.18 542.09 386.96 722.23 383.06 625.45 475.01 564.34 573.64 717.90 570.01
00012248 00000008 448.44 139.22 399.75 563.11 539.61 385.91 719.99 381.85 624.00 474.09 561.78 573.26 716.15 569.50
00012249 00000009 447.86 140.06 397.84 565.53 536.76 386.13 716.34 381.76 620.61 476.01 560.06 577.63 711.87 573.53
00012250 00000010 443.64 146.23 399.84 568.68 534.31 390.33 708.79 386.89 615.17 484.94 557.90 583.05 704.78 579.43
00012251 00000011 437.66 152.53 401.96 572.05 527.29 397.27 701.20 394.67 607.91 491.65 552.75 590.75 698.08 588.01
00012252 00000012 431.31 159.22 406.35 570.09 520.03 404.44 692.69 399.97 598.11 496.79 549.91 594.25 694.16 590.13
00012253 DELETE   427.97 152.92 409.36 577.24 514.82 404.44 688.33 401.15 594.46 498.54 546.08 593.02 696.46 589.10
00012254 00000014 435.65 156.12 401.35 576.29 517.12 404.44 687.12 400.50 592.37 495.74 541.32 589.27 693.35 585.83
00012255 DELETE   443.33 150.82 403.76 579.71 527.55 397.74 699.65 396.80 597.14 493.25 547.79 589.06 693.20 586.88
00012256 00000016 449.11 150.75 402.79 574.40 536.84 395.05 707.94 395.49 607.52 491.38 554.26 585.84 696.74 585.49
00012257 00000017 454.42 142.01 400.09 570.01 537.48 391.26 717.66 390.62 609.22 485.02 557.67 582.59 709.13 581.57
00012258 00000018 458.53 142.92 397.46 558.99 541.15 389.60 723.95 389.01 614.27 480.04 557.20 576.44 713.67 575.97
00012259 00000019 456.12 140.43 396.43 559.04 536.56 388.71 722.00 388.90 609.94 482.80 553.45 579.32 710.20 579.58
00012260 00000020 450.28 142.79 396.32 563.52 528.55 392.63 709.09 391.05 601.43 485.90 546.89 582.56 700.32 581.60
00012261 00000021 442.92 145.82 398.39 565.20 516.97 394.51 697.26 391.42 589.20 487.79 533.46 583.08 691.89 580.81
00012262 00000022 433.19 142.00 400.02 561.95 508.54 390.09 684.62 390.65 568.44 488.76 527.80 575.38 673.87 576.76
00012263 DELETE   424.85 143.97 395.00 552.87 493.94 389.77 670.98 389.93 553.16 483.31 512.93 574.58 658.92 574.93
00012264 00000024 412.88 140.28 394.96 549.30 479.20 385.56 653.70 382.64 538.67 477.98 501.57 574.37 641.65 571.74
00012265 DELETE   406.02 136.00 397.11 553.08 466.07 384.83 639.07 378.34 522.94 472.42 490.33 572.16 630.18 566.29
00012266 00000026 401.61 126.57 394.52 565.21 453.45 385.58 622.64 374.37 508.97 467.74 479.72 572.60 619.46 562.60
00012267 00000027 400.72 128.19 394.12 564.20 449.04 387.02 613.59 373.15 501.04 467.08 475.34 573.76 611.45 561.31
00012268 00000028 402.64 130.66 393.88 564.68 448.49 388.19 611.52 372.03 497.18 466.30 475.90 575.84 609.91 561.69
00012269 00000029 406.85 127.53 392.56 570.72 454.07 387.39 613.46 371.46 499.58 465.96 481.98 577.22 611.24 563.87
00012270 00000030 412.87 129.03 394.44 567.46 460.01 383.14 624.30 368.57 503.90 463.16 486.47 576.56 618.62 564.42
00012271 00000031 420.72 133.18 395.59 563.02 469.90 382.47 637.32 371.39 510.52 463.85 491.93 575.29 626.53 565.94
00012272 00000032 427.39 137.12 393.42 561.50 478.03 383.20 643.27 373.08 519.91 465.34 499.83 574.31 634.12 565.92
00012273 00000033 433.62 137.04 394.40 565.14 486.28 386.49 653.31 378.41 529.81 467.96 506.23 574.39 643.79 567.93
00012274 00000034 437.95 142.52 393.54 565.38 494.12 388.55 661.52 382.07 538.93 471.69 513.25 574.34 653.08 569.58
00012275 00000035 439.89 145.62 392.07 562.49 500.16 391.95 669.26 385.15 553.58 477.25 513.96 579.79 665.36 574.88
00012276 00000036 444.17 143.83 390.49 563.03 503.86 392.97 673.91 385.77 558.71 480.97 518.03 578.78 671.95 574.01
00012277 00000037 446.39 143.10 390.63 562.27 506.57 393.55 677.22 386.69 561.66 483.09 521.80 578.02 675.76 573.61
00012278 00000038 446.74 142.81 391.36 559.02 506.69 393.92 680.20 388.35 563.53 484.54 520.91 577.19 677.46 573.64
00012279 00000039 446.98 143.05 390.95 555.72 506.76 393.75 679.76 389.57 562.94 485.69 519.70 575.54 676.50 573.12
00012280 00000040 447.01 145.60 390.21 558.76 504.78 394.17 675.95 390.19 557.30 484.99 517.07 576.48 673.54 574.24
00012281 00000041 444.38 150.73 391.80 564.89 501.31 392.68 668.21 390.84 547.00 484.39 511.22 579.51 663.78 578.43
00012282 00000042 442.68 150.48 392.18 563.62 498.18 391.38 664.45 392.91 539.32 482.39 503.32 579.08 654.12 580.44
00012283 00000043 443.54 151.58 390.97 560.38 498.96 390.98 665.45 392.82 540.93 483.44 503.56 577.78 655.29 579.50
00012284 00000044 447.18 150.62 392.31 564.80 505.44 393.64 673.42 390.91 553.94 485.74 515.95 577.44 670.43 575.85
00012285 DELETE   447.00 155.10 395.93 561.24 511.79 398.72 680.33 389.04 568.96 487.13 531.15 579.30 685.15 571.33
00012286 DELETE   447.38 155.16 397.93 560.20 517.88 401.04 687.55 387.13 583.13 487.37 542.69 580.46 696.68 569.11
00012287 00000047 445.73 148.05 399.44 565.34 518.83 401.34 692.07 383.77 591.54 484.59 548.92 580.86 703.84 566.66
00012288 DELETE   441.44 150.37 398.63 558.95 513.17 402.93 682.67 382.22 584.77 482.61 545.10 579.56 697.15 562.68
00012289 00000049 432.90 148.88 397.30 558.10 500.62 399.62 670.81 385.46 564.67 477.18 522.59 572.53 679.25 560.62
00012290 00000050 427.37 148.49 394.16 556.74 487.68 392.50 656.19 387.04 540.20 475.51 498.30 573.32 650.23 568.36
00012291 00000051 428.10 144.55 392.96 553.06 483.28 388.20 649.50 387.31 526.33 474.30 497.06 568.55 633.19 568.17
00012292 00000052 431.10 141.19 391.56 556.03 489.50 387.31 655.23 385.88 533.60 471.62 503.37 567.68 639.15 567.05
00012293 00000053 431.78 143.95 392.31 554.20 498.20 388.18 664.00 382.90 555.28 468.69 512.56 570.60 651.92 566.70
00012294 00000054 435.62 145.69 393.77 562.73 503.39 386.90 668.00 380.15 559.65 468.53 521.23 573.00 659.10 568.07
00012295 00000055 438.13 147.59 394.15 564.82 504.74 390.35 668.62 380.61 561.08 470.26 525.14 576.35 664.47 568.85
00012296 00000056 441.50 146.25 391.89 565.24 504.70 390.87 669.47 381.61 558.78 473.57 523.65 577.03 665.56 569.92
00012297 00000057 443.54 143.53 390.48 562.27 504.71 391.15 672.72 382.46 559.69 477.28 521.63 576.68 669.25 570.53
00012298 00000058 446.06 141.85 391.32 561.75 507.84 394.19 676.86 383.35 565.06 479.41 525.83 576.85 675.52 569.15
00012299 00000059 447.62 142.07 393.48 566.22 512.24 395.94 680.87 382.53 572.17 478.58 532.73 578.09 681.88 568.23
00012300 00000060 449.80 143.42 393.15 568.55 513.78 396.51 681.58 382.70 572.35 481.03 534.75 579.56 683.33 569.43
00012301 00000061 451.23 146.81 393.62 568.62 514.14 396.49 681.19 384.11 570.61 483.94 534.51 581.04 681.89 571.80
00012302 00000062 452.91 147.05 393.27 569.20 516.57 396.95 683.81 386.59 571.97 486.01 534.65 581.39 682.00 573.60
00012303 00000063 453.28 147.30 394.04 567.49 518.01 398.84 685.81 388.94 575.44 489.89 538.87 582.29 685.57 574.44
00012304 00000064 451.80 148.25 394.47 565.99 519.34 400.57 685.62 389.57 579.30 492.69 543.71 583.65 687.77 574.56
00012305 00000065 450.61 148.59 395.30 566.83 517.95 400.72 681.19 387.80 577.61 493.15 543.66 584.06 685.43 573.12
00012306 00000066 451.61 146.64 393.32 565.26 516.32 399.16 678.52 384.50 575.21 489.63 542.23 581.52 684.95 569.24
00012307 00000067 452.82 143.26 392.12 564.44 516.63 396.75 679.45 384.23 573.86 485.58 537.50 575.39 683.72 565.04
00012308 00000068 460.52 137.51 389.02 584.46 523.82 392.88 682.65 385.19 582.20 479.29 548.43 578.89 676.66 573.05
00012309 00000069 463.85 139.97 391.40 582.04 532.40 392.62 685.74 385.78 586.53 478.14 556.43 580.74 676.60 576.03
00012310 00000070 469.67 140.53 388.82 575.42 537.02 390.16 691.71 386.63 589.96 479.11 558.21 576.36 682.90 574.25
00012311 00000071 473.20 144.96 390.28 560.80 541.90 385.92 702.72 386.24 596.03 479.16 559.89 570.75 690.23 572.00
00012312 00000072 475.13 144.17 393.64 559.71 547.97 383.69 713.82 388.01 603.65 479.82 563.27 569.69 697.12 574.36
00012313 00000073 473.85 149.11 398.50 558.73 552.12 386.74 718.80 390.45 610.67 482.25 569.45 573.69 702.30 577.93
00012314 00000074 470.52 155.28 398.82 559.69 556.52 390.48 725.68 390.57 629.10 487.20 576.09 580.70 708.07 581.80
00012315 00000075 469.28 146.79 406.25 561.72 556.76 385.86 729.73 386.74 626.94 481.80 582.38 574.10 719.95 575.79
00012316 00000076 470.28 143.90 404.80 550.12 563.82 383.74 743.62 380.19 644.88 476.25 591.29 567.50 736.66 564.99
00012317 DELETE   471.95 138.79 409.72 549.14 575.75 379.42 762.61 376.85 666.62 473.47 599.25 558.88 756.38 556.67
00012318 DELETE   478.58 135.39 409.31 543.91 597.91 375.23 784.49 373.40 696.80 464.76 623.24 555.16 776.43 553.31
00012319 DELETE   486.47 134.41 412.00 548.62 616.76 375.20 803.07 371.10 726.01 464.77 646.82 559.08 798.43 554.88
00012320 00000080 504.75 135.05 402.63 559.33 633.24 380.11 810.19 368.54 748.48 465.26 670.19 573.04 813.08 561.41
00012321 DELETE   512.35 138.41 399.32 563.52 650.46 384.77 825.34 378.76 769.26 470.81 682.14 578.06 822.49 571.26
00012322 00000082 521.26 149.12 396.37 558.69 664.06 394.86 836.50 388.42 782.89 481.41 693.11 583.35 832.98 577.28
00012323 00000083 529.28 158.91 393.66 561.76 673.57 399.00 839.39 392.62 789.32 487.34 703.36 586.88 839.98 582.89
00012324 DELETE   535.08 162.38 392.48 568.19 678.75 405.74 843.53 396.84 795.79 494.97 713.53 597.36 845.74 591.08
00012325 00000085 537.81 159.51 395.29 580.09 684.23 409.43 847.03 402.83 800.10 500.12 718.30 604.80 846.06 600.10
00012326 00000086 540.23 158.40 396.77 584.41 686.54 409.24 851.71 403.89 803.89 502.21 721.14 606.99 852.00 602.89
00012327 00000087 541.59 159.18 396.43 581.84 688.32 408.59 856.34 403.92 806.72 502.25 723.46 606.69 856.10 602.91
00012328 00000088 542.68 160.32 394.96 578.36 688.37 408.20 857.93 404.06 807.47 502.03 723.95 606.64 857.47 603.25
00012329 00000089 542.17 161.40 394.10 574.31 687.23 407.50 857.16 404.39 805.70 500.96 722.35 606.03 855.32 603.62
00012330 00000090 538.79 160.56 396.61 575.72 685.34 409.22 853.42 404.50 803.25 502.18 718.88 605.38 852.19 601.99
00012331 00000091 537.76 159.99 393.62 572.64 682.47 409.53 851.87 403.62 800.93 501.38 716.04 605.02 850.24 600.84
00012332 00000092 535.03 161.63 391.12 566.16 678.52 407.84 847.21 399.91 797.42 499.35 712.35 602.63 846.78 597.18
00012333 00000093 532.82 163.07 391.53 560.99 675.92 406.53 846.77 398.28 795.80 497.90 709.44 600.89 846.79 595.27
00012334 00000094 532.74 160.81 390.41 561.64 675.25 405.50 846.46 397.69 796.04 496.56 708.04 600.02 846.56 594.72
00012335 00000095 533.05 161.82 390.04 558.49 676.24 405.03 847.12 397.32 796.67 495.37 708.98 598.50 846.45 593.38
00012336 00000096 534.01 160.49 389.41 557.81 676.64 405.10 848.15 396.37 797.47 495.52 709.57 597.62 847.53 591.73
00012337 00000097 534.86 159.91 388.74 558.79 677.85 403.90 848.67 395.90 798.67 495.19 710.20 597.16 847.69 591.88
00012338 00000098 535.36 159.54 389.62 561.84 679.03 403.43 848.97 396.63 799.00 495.98 711.09 598.64 846.32 594.17
00012339 00000099 536.99 160.93 389.46 563.54 680.77 404.63 848.05 397.82 798.35 495.73 714.23 600.73 844.59 596.21
00012340 00000100 536.19 160.49 390.88 564.66 679.74 404.75 848.64 398.23 797.80 496.08 713.11 600.52 845.38 596.15
00012341 00000101 535.82 160.51 390.69 562.69 677.89 406.12 849.62 397.82 798.62 497.81 710.52 600.05 848.93 594.33
00012342 00000102 536.53 160.12 390.34 558.61 677.34 407.11 849.57 397.28 797.52 497.33 708.63 595.64 850.20 588.78
00012343 00000103 536.72 159.73 389.77 558.05 677.31 406.37 849.10 397.52 796.99 496.17 708.03 594.37 849.77 588.31
00012344 00000104 536.69 159.80 389.50 557.99 677.23 406.11 848.46 396.70 796.90 495.72 708.09 594.04 849.32 587.61
00012345 00000105 536.16 158.86 389.63 559.45 677.29 405.28 846.95 396.38 795.90 495.72 707.86 592.46 848.47 586.43
00012346 00000106 534.87 159.69 390.90 559.14 676.99 405.37 846.56 396.68 795.39 496.02 707.39 592.02 848.09 586.17
00012347 00000107 535.53 159.34 389.99 559.39 676.86 404.96 846.50 396.69 794.96 495.36 707.19 591.95 847.83 586.42
00012348 00000108 535.96 158.87 389.98 559.85 677.28 405.07 846.96 397.07 795.58 496.05 706.78 592.27 847.49 587.01
00012349 00000109 535.82 160.31 389.90 561.34 678.26 405.22 848.42 398.59 797.37 498.06 707.52 595.70 847.72 591.49
00012350 00000110 537.48 157.95 391.31 566.37 684.72 404.57 854.58 401.45 805.35 497.45 714.40 597.44 850.66 595.60
00012351 00000111 542.13 157.88 390.90 564.71 692.65 400.32 866.12 399.59 816.19 492.32 726.44 595.68 860.94 595.20
00012352 00000112 547.57 158.79 388.09 562.06 705.49 399.95 869.58 397.19 827.73 487.78 740.77 592.10 865.72 589.70
00012353 00000113 549.10 153.97 387.19 567.16 707.85 399.87 872.53 396.95 833.29 486.62 744.27 592.01 869.45 589.19
00012354 00000114 548.57 152.98 389.58 566.31 707.02 398.55 876.29 397.03 834.34 486.77 741.60 590.45 872.04 588.80
00012355 00000115 548.00 151.37 390.33 566.98 705.12 398.61 876.35 396.45 833.43 487.48 736.94 587.22 873.83 585.44
00012356 00000116 548.11 152.05 389.53 565.57 704.13 398.55 874.90 396.92 831.66 486.52 737.28 587.16 873.01 585.78
00012357 00000117 545.83 152.85 391.03 568.14 699.69 398.39 871.07 396.72 825.95 486.58 733.16 589.81 868.84 588.27
00012358 00000118 540.38 156.73 393.36 563.74 689.85 401.82 862.14 397.74 811.26 490.92 723.47 592.56 858.52 589.70
00012359 00000119 534.24 160.15 390.62 558.42 676.84 404.34 848.34 394.73 796.90 491.81 708.31 591.41 849.85 584.88
00012360 00000120 529.50 150.63 391.99 556.47 664.97 402.17 844.00 397.59 786.65 491.97 693.77 588.52 840.99 584.31
00012361 00000121 521.23 151.15 396.05 554.88 659.97 400.76 841.85 393.29 783.74 492.14 690.17 588.65 839.45 581.64
00012362 00000122 521.69 151.10 392.87 552.30 659.61 400.39 841.21 391.74 783.80 490.17 692.01 588.32 839.02 580.16
00012363 00000123 520.34 150.14 392.41 553.75 660.36 400.03 840.18 391.71 784.47 489.24 694.16 588.95 837.83 580.86
00012364 00000124 520.96 150.29 389.81 551.69 660.61 399.60 841.21 392.45 784.24 488.25 693.10 587.79 837.42 580.66
00012365 00000125 520.85 149.53 388.78 550.95 661.62 398.19 840.55 390.44 784.80 486.88 693.18 585.79 837.67 578.24
00012366 00000126 528.07 148.69 383.15 549.40 669.23 398.13 846.43 389.99 794.57 486.20 699.67 585.12 843.46 577.82
00012367 00000127 529.56 146.09 386.90 557.14 678.93 398.54 853.65 386.50 800.66 486.08 710.75 579.28 852.95 570.48
00012368 00000128 532.17 148.68 388.09 552.10 684.78 397.35 861.61 386.56 808.34 487.48 715.05 579.37 858.34 571.54
00012369 00000129 535.43 146.36 389.40 553.70 688.25 395.40 868.56 387.83 811.89 488.10 716.46 579.17 862.46 573.59
00012370 00000130 539.12 150.56 389.76 550.63 690.29 391.41 865.02 388.95 816.72 483.06 718.65 581.50 859.26 580.43
00012371 00000131 543.68 147.43 389.95 552.61 694.66 391.26 871.92 392.13 820.80 482.13 722.31 580.76 864.29 581.97
00012372 00000132 545.18 147.24 391.54 553.88 694.20 393.53 874.05 394.67 819.56 483.46 721.54 582.08 866.33 583.38
00012373 00000133 542.20 146.66 393.06 558.57 691.95 391.39 870.52 392.60 817.09 482.17 720.02 582.92 862.87 584.14
00012374 00000134 541.01 148.14 391.64 556.59 688.81 390.05 865.69 390.53 811.62 482.84 716.80 583.41 856.82 584.07
00012375 00000135 539.81 149.56 390.91 553.78 687.46 388.42 861.83 388.18 809.02 479.05 714.54 580.65 852.96 581.08
00012376 00000136 538.99 147.55 391.81 551.49 686.55 387.24 859.93 385.05 808.71 475.93 713.93 578.30 852.96 577.10
00012377 00000137 539.08 143.97 390.27 550.44 685.13 384.71 858.10 382.58 807.64 471.69 712.18 574.92 853.16 573.93
00012378 00000138 535.78 139.45 393.02 548.75 686.41 381.32 864.43 378.62 805.01 469.21 713.99 567.16 855.85 565.42
00012379 00000139 535.50 139.24 391.73 549.56 685.29 382.83 861.00 379.25 803.29 468.73 713.96 567.28 853.95 564.92
00012380 00000140 536.39 144.94 388.71 549.73 682.89 383.97 848.66 376.34 803.94 465.69 712.03 573.43 847.01 568.03
00012381 00000141 535.34 145.49 388.44 552.19 682.65 384.33 846.45 375.58 802.99 464.59 713.02 574.82 844.79 568.57
00012382 00000142 534.24 146.49 388.64 551.92 681.88 382.83 847.12 376.05 803.30 465.32 711.37 575.78 844.85 571.11
00012383 00000143 534.07 146.95 389.21 551.58 681.82 382.57 845.99 375.05 802.55 464.08 712.75 576.29 843.69 570.97
00012384 00000144 533.71 146.61 389.23 552.25 681.10 381.68 845.30 374.25 801.71 462.61 712.68 576.75 842.64 571.47
00012385 00000145 533.53 148.94 388.40 550.73 680.17 380.52 844.72 374.30 799.66 460.61 711.25 575.24 840.96 570.92
00012386 00000146 531.17 149.13 389.54 550.40 678.85 382.97 843.54 376.45 798.51 460.52 709.81 574.51 840.53 569.96
00012387 00000147 530.61 150.28 389.92 548.39 677.91 385.91 841.56 378.68 795.43 459.43 708.34 572.93 838.23 567.75
00012388 00000148 530.25 150.40 390.30 548.84 676.88 383.85 840.92 378.35 794.25 457.65 706.22 571.63 836.84 567.83
00012389 00000149 529.07 147.57 391.41 552.73 675.44 379.95 840.26 374.32 793.69 455.81 705.70 571.19 836.60 567.25
CROP_BBOX: 238 0 1100 866
