Video ID: 	P_ters9eCac
H: 	1080
W: 	1920
FPS: 	25.0

FRAME INDEX X0 Y0 W H [Landmarks (5 Points)]

00067960 00000000 527.96 116.88 422.21 618.44 728.00 386.87 881.77 359.17 878.33 461.61 761.85 583.92 895.74 560.36
00067961 00000001 529.03 120.56 421.10 611.11 730.05 388.63 883.04 358.23 881.50 463.09 762.99 583.19 897.46 557.53
00067962 00000002 528.93 118.39 422.26 613.71 733.72 388.45 884.44 359.16 885.93 464.73 764.22 583.31 898.22 558.92
00067963 DELETE   528.56 115.43 422.51 613.33 738.52 392.36 889.12 363.21 893.82 466.69 766.49 581.84 900.85 557.58
00067964 DELETE   528.01 113.45 423.88 613.66 740.65 394.56 891.42 363.24 897.55 469.64 765.15 581.92 901.48 556.57
00067965 00000005 528.13 114.80 424.47 609.26 740.20 396.72 892.72 361.47 900.06 471.15 761.69 580.47 902.82 552.73
00067966 00000006 529.87 115.53 423.33 609.32 740.27 395.99 892.69 359.58 899.52 472.35 759.40 580.05 902.47 551.66
00067967 DELETE   530.24 115.94 424.14 612.79 740.91 395.79 890.85 358.50 898.77 471.11 756.97 578.07 901.92 548.93
00067968 00000008 531.06 115.35 423.66 624.20 741.27 394.19 889.63 359.93 899.91 469.16 755.89 579.37 902.41 552.52
00067969 00000009 531.23 116.68 421.79 635.75 736.81 393.26 886.04 362.22 898.71 469.69 749.05 581.10 901.13 556.85
00067970 00000010 531.92 119.74 421.30 636.94 733.47 393.50 886.89 362.08 897.71 471.13 747.65 585.79 902.12 561.21
00067971 00000011 531.41 119.77 420.64 634.96 731.48 391.58 887.59 360.92 898.01 472.75 748.30 589.96 900.63 566.19
00067972 00000012 531.19 119.64 421.17 632.66 731.47 391.85 888.14 361.41 896.85 472.64 747.37 588.53 900.05 565.09
00067973 00000013 531.11 119.72 420.50 624.62 733.04 391.06 889.25 361.73 896.58 471.72 750.09 586.27 898.95 563.86
00067974 00000014 530.02 122.01 421.24 616.05 736.58 391.33 888.27 362.39 894.01 469.76 755.57 583.44 897.47 560.79
00067975 00000015 530.79 122.76 419.68 612.82 738.10 390.47 888.40 362.12 893.27 469.16 762.88 586.17 897.46 563.53
00067976 00000016 531.49 121.80 419.74 607.97 740.52 391.77 889.08 360.91 894.24 465.75 774.51 588.43 901.92 562.87
00067977 00000017 531.57 122.11 419.33 600.91 738.96 392.88 888.24 360.30 892.38 465.73 777.73 589.25 903.07 561.95
00067978 DELETE   531.55 124.10 417.56 599.61 739.60 393.44 889.15 361.79 892.08 468.47 780.97 593.19 901.93 566.47
00067979 00000019 532.40 123.14 417.35 605.67 738.18 396.05 887.18 363.81 888.26 467.98 782.15 594.85 903.14 567.36
00067980 00000020 532.02 125.46 416.19 606.55 733.65 396.10 883.44 364.11 882.32 468.06 778.30 596.71 899.09 569.73
00067981 00000021 530.58 120.50 416.98 617.59 730.24 395.92 882.32 363.87 881.26 471.02 771.86 598.84 896.20 572.04
00067982 DELETE   532.68 119.79 415.35 625.19 728.47 393.31 881.68 364.53 879.75 471.01 766.90 599.84 894.59 575.90
00067983 00000023 531.82 118.54 417.45 629.01 728.10 391.35 882.08 363.24 880.34 470.44 763.52 599.25 895.03 575.79
00067984 00000024 531.13 117.22 419.42 630.74 728.00 389.69 882.91 361.01 881.05 468.58 762.23 597.19 896.10 573.34
00067985 00000025 532.36 118.16 417.97 627.72 728.90 389.64 883.57 361.10 880.54 468.26 763.67 596.43 896.27 572.65
00067986 00000026 532.67 119.59 419.26 627.01 730.63 390.88 885.56 360.31 884.09 469.56 764.41 597.02 897.83 571.75
00067987 00000027 532.21 122.16 419.65 625.04 732.23 392.00 887.40 362.00 886.67 472.14 765.27 598.99 898.00 574.31
00067988 00000028 531.62 122.52 422.00 622.04 733.79 393.46 890.46 363.77 887.82 473.64 769.23 599.32 901.67 574.42
00067989 00000029 531.63 123.24 421.21 619.00 736.62 395.52 889.36 364.06 889.60 473.07 768.97 596.73 900.33 570.61
00067990 00000030 532.52 122.21 421.42 620.37 737.91 397.23 890.52 364.24 891.98 475.64 766.84 596.34 901.03 569.44
00067991 00000031 531.20 122.31 422.34 621.54 738.72 397.82 891.84 364.85 894.25 477.62 765.12 596.34 900.36 569.70
00067992 00000032 531.85 121.05 423.06 626.20 740.09 398.61 893.06 366.32 896.77 480.27 765.01 598.75 900.39 572.88
00067993 00000033 531.98 121.09 423.36 626.09 740.60 398.66 893.22 365.73 898.03 480.17 765.44 598.75 900.63 572.38
00067994 00000034 532.63 120.18 422.99 623.19 739.90 397.18 894.22 364.49 897.36 479.87 766.34 599.06 899.42 573.00
00067995 00000035 533.11 119.72 424.11 620.92 739.23 397.26 896.43 363.93 897.90 477.87 771.68 600.70 904.41 573.58
00067996 00000036 534.56 120.52 423.58 616.39 740.25 397.55 899.66 365.06 899.87 478.39 772.51 600.40 907.35 574.08
00067997 00000037 535.45 120.35 423.21 623.60 742.76 398.37 901.43 364.75 903.09 479.06 774.33 602.25 909.86 574.91
00067998 00000038 534.28 121.12 424.82 630.38 745.17 398.50 900.03 368.51 904.22 481.50 769.98 601.78 905.65 577.75
00067999 00000039 534.89 123.06 424.07 628.96 746.54 397.12 898.97 370.49 903.90 482.47 768.30 600.72 901.99 579.70
00068000 00000040 534.38 123.07 424.23 629.57 746.65 397.54 898.28 370.92 904.11 482.42 765.91 598.24 902.27 577.28
00068001 00000041 534.43 122.78 424.44 629.19 747.08 397.77 898.34 370.75 904.88 481.60 764.33 595.31 903.57 574.16
00068002 00000042 535.86 123.01 422.64 623.37 748.06 398.84 900.96 369.26 906.63 481.36 764.85 594.13 904.88 571.14
00068003 00000043 537.29 119.92 422.93 625.35 748.93 399.66 904.06 368.66 909.23 483.00 766.61 596.65 908.37 572.62
00068004 00000044 538.66 120.15 422.04 625.98 750.72 399.61 905.30 369.87 910.60 484.06 767.29 596.24 908.94 573.34
00068005 00000045 540.29 120.94 422.50 626.81 751.61 400.42 907.75 370.03 911.79 485.03 765.51 595.12 911.59 572.03
00068006 00000046 543.50 123.83 420.93 624.86 756.05 400.07 909.11 372.12 914.12 485.54 765.85 593.11 911.43 572.31
00068007 00000047 546.61 123.18 420.20 624.28 759.47 399.29 910.46 371.00 916.00 483.98 769.39 592.17 913.77 571.17
00068008 00000048 547.27 122.85 421.25 622.98 761.19 398.13 912.82 370.76 916.69 483.17 772.96 591.10 916.97 570.48
00068009 00000049 549.66 123.21 419.87 621.82 763.91 397.11 914.42 369.27 919.62 481.97 773.87 588.76 918.92 567.95
00068010 00000050 551.50 121.04 418.14 623.72 767.57 396.28 915.33 367.55 924.03 480.57 774.94 586.11 919.73 564.95
00068011 00000051 556.65 117.79 416.84 625.73 771.23 396.29 918.06 364.76 928.07 481.25 779.03 585.67 924.67 562.21
00068012 00000052 558.22 118.49 417.62 622.69 775.01 395.69 921.04 362.68 933.11 481.76 780.64 584.67 926.36 560.40
00068013 00000053 559.76 116.34 419.10 623.82 778.78 393.30 925.70 361.60 937.35 482.04 783.04 584.82 927.43 561.56
00068014 00000054 561.64 121.21 419.50 618.93 779.89 393.52 926.17 361.68 938.82 478.63 787.26 584.05 930.94 560.34
00068015 00000055 563.55 127.71 423.06 603.34 769.43 391.55 924.26 361.86 930.58 467.88 792.96 579.22 938.82 557.42
00068016 00000056 565.89 130.49 422.04 602.60 768.52 388.20 923.18 358.47 928.72 465.35 790.74 577.46 938.35 555.57
00068017 00000057 564.48 125.24 418.59 618.97 774.09 386.56 924.48 355.11 937.42 469.22 789.76 582.72 938.96 558.73
00068018 00000058 566.34 125.45 415.11 611.44 772.69 385.19 923.00 354.59 933.31 461.32 798.50 582.50 941.20 558.14
00068019 00000059 564.99 119.76 413.74 609.84 774.84 382.79 923.33 348.31 938.16 457.15 801.04 576.52 941.58 549.18
00068020 00000060 565.05 116.32 413.69 602.81 775.86 378.82 926.13 345.80 938.09 454.83 805.73 574.26 941.78 547.90
00068021 00000061 566.49 118.82 411.44 596.35 777.02 376.46 925.97 345.97 935.66 450.61 809.28 571.87 942.53 547.41
00068022 00000062 566.36 119.98 411.89 595.77 777.17 376.16 925.22 346.11 935.49 449.92 809.19 571.12 942.52 546.89
00068023 00000063 566.07 119.75 412.02 598.55 776.07 375.21 924.38 346.89 932.71 448.16 809.99 571.57 942.23 548.26
00068024 00000064 566.77 120.43 410.45 603.07 773.70 374.97 922.71 348.97 929.29 448.81 808.99 574.56 941.01 552.78
00068025 00000065 565.54 123.76 412.13 600.48 775.27 377.35 923.78 351.82 931.36 451.95 810.35 577.05 941.75 555.66
00068026 00000066 566.43 123.02 411.94 605.72 776.91 378.70 924.88 353.38 933.46 454.37 809.69 578.82 942.29 557.84
00068027 00000067 567.53 125.53 412.36 607.89 776.93 378.88 924.31 355.24 932.86 454.77 807.98 579.62 942.25 560.27
00068028 00000068 567.84 125.09 411.69 609.40 777.44 378.94 924.05 355.38 933.17 455.51 807.22 580.01 941.32 560.81
00068029 00000069 564.75 121.55 412.68 607.47 777.95 380.39 923.83 353.67 935.72 456.53 807.84 579.78 939.11 558.30
00068030 00000070 563.13 123.22 412.50 603.48 774.18 384.05 922.04 354.40 933.61 459.23 805.81 582.27 938.02 558.40
00068031 00000071 561.58 120.71 412.28 607.21 772.37 387.18 920.08 355.14 932.99 462.12 803.10 583.67 936.80 558.00
00068032 00000072 561.81 120.94 410.02 601.82 772.54 387.05 920.65 357.17 931.34 462.09 803.83 582.84 934.67 558.57
00068033 00000073 559.81 115.30 412.14 601.08 771.11 386.97 921.49 354.07 931.44 461.66 804.29 580.47 938.18 553.53
00068034 00000074 558.06 111.69 413.37 602.96 768.76 385.86 921.86 352.29 930.98 459.63 802.02 579.02 937.30 551.54
00068035 00000075 556.77 111.83 414.56 600.82 765.54 383.39 921.99 350.21 928.12 457.16 801.57 577.24 938.16 549.71
00068036 00000076 553.77 113.73 414.60 598.47 764.03 380.41 918.38 348.20 925.85 454.09 801.82 575.92 935.99 549.12
00068037 00000077 551.96 112.93 412.73 603.97 758.09 376.71 912.76 347.45 916.78 449.12 802.21 577.12 933.83 551.86
00068038 00000078 547.56 109.34 414.92 613.09 753.69 372.95 909.76 347.96 910.92 446.41 798.89 577.87 929.27 555.67
00068039 00000079 544.68 110.89 416.43 618.11 752.02 370.98 907.47 347.45 909.32 447.06 792.04 577.47 925.15 556.80
00068040 00000080 540.46 111.57 420.04 620.20 751.58 369.58 905.86 346.95 908.76 447.28 786.80 576.60 920.84 556.94
00068041 00000081 537.88 112.89 422.53 619.23 749.17 366.85 904.77 346.53 905.69 445.33 782.56 574.32 918.53 556.27
00068042 00000082 537.32 112.94 422.06 618.26 747.51 364.93 902.03 344.91 902.18 443.96 779.44 572.35 913.78 554.85
00068043 00000083 536.53 113.58 421.88 616.84 745.16 363.73 900.70 343.88 900.60 442.74 777.33 571.51 912.50 554.20
00068044 00000084 534.93 114.16 422.16 616.62 743.97 365.55 899.87 344.95 899.51 443.67 777.89 573.00 911.93 554.87
00068045 00000085 533.52 113.42 423.50 622.40 743.94 367.68 900.23 346.59 901.58 446.15 776.73 575.27 913.30 556.67
00068046 00000086 532.80 112.54 423.12 624.16 744.74 369.16 898.52 347.63 902.61 447.71 775.77 575.45 911.17 557.01
00068047 00000087 533.31 113.50 422.44 624.48 742.99 370.16 898.59 348.75 901.36 448.34 775.17 577.14 911.18 558.68
00068048 00000088 531.79 112.72 423.13 625.95 742.67 370.40 896.44 348.39 900.78 448.42 775.12 577.27 910.29 558.30
00068049 00000089 529.51 114.49 424.63 623.65 741.70 369.45 895.60 348.23 898.54 448.90 772.97 576.43 908.13 558.16
00068050 00000090 527.57 115.43 425.08 619.39 738.66 370.51 892.97 347.08 895.71 450.00 771.59 576.58 905.77 556.58
00068051 00000091 526.56 113.76 424.61 617.03 736.45 370.30 892.11 346.76 893.40 451.26 770.33 576.53 903.12 556.31
00068052 00000092 525.40 113.57 425.30 614.31 735.35 371.41 891.02 346.86 892.06 452.31 770.90 577.21 902.03 555.99
00068053 00000093 524.86 113.12 425.89 611.41 737.21 374.08 892.53 350.88 893.55 456.00 769.80 576.66 902.16 556.74
00068054 00000094 526.34 113.74 424.65 608.47 740.71 376.34 895.26 352.00 897.82 459.06 770.57 577.75 902.68 557.36
00068055 00000095 525.02 111.48 424.36 607.66 743.54 378.16 894.67 352.70 900.10 461.23 772.75 577.78 901.00 556.50
00068056 00000096 524.72 112.94 424.67 605.51 743.82 379.60 894.78 354.08 900.83 461.64 771.48 576.94 900.96 555.83
00068057 00000097 525.13 116.41 423.61 603.96 743.84 383.15 893.76 356.26 900.75 463.86 769.74 579.03 898.32 557.16
00068058 00000098 524.10 117.23 423.78 609.05 743.44 386.38 891.81 358.04 901.62 464.82 767.42 579.86 897.13 557.08
00068059 00000099 524.29 117.04 424.92 613.74 741.88 388.60 890.93 358.36 899.46 467.15 763.53 581.29 897.23 557.13
00068060 00000100 524.84 115.12 425.85 621.11 738.94 390.87 891.97 360.17 896.65 471.10 759.61 584.09 897.62 559.58
00068061 00000101 526.11 114.37 425.38 626.38 737.15 390.83 891.95 361.01 896.67 471.51 755.63 584.28 898.34 560.57
00068062 00000102 526.39 114.58 426.73 634.17 736.12 391.33 891.46 360.33 896.51 472.38 751.38 584.87 899.54 560.41
00068063 00000103 527.88 115.77 427.32 638.66 737.12 390.82 893.14 361.67 897.92 473.85 750.12 585.56 902.66 562.77
00068064 00000104 528.04 118.64 428.34 634.10 738.31 391.71 893.82 361.13 899.22 475.57 752.78 588.32 901.49 564.70
CROP_BBOX: 302 0 1209 886
