Video ID: 	42aRCSGU94k
H: 	1080
W: 	1920
FPS: 	25.0

FRAME INDEX X0 Y0 W H [Landmarks (5 Points)]

00003772 00000000 698.83 128.90 467.10 723.66 978.36 457.62 1113.89 437.69 1140.08 573.87 987.82 695.71 1094.75 682.23
00003773 00000001 702.83 131.13 468.00 722.16 982.69 459.68 1119.62 437.79 1144.32 577.54 989.42 697.81 1096.49 683.20
00003774 00000002 705.41 133.35 468.78 720.19 980.61 459.47 1123.45 436.52 1144.81 578.56 988.54 698.79 1100.96 683.17
00003775 00000003 706.19 130.39 469.97 723.83 983.28 460.22 1124.84 437.82 1146.62 578.73 991.13 698.36 1103.12 683.09
00003776 00000004 706.61 128.21 471.19 726.02 983.88 460.46 1126.87 438.68 1147.86 578.59 991.73 697.78 1105.29 682.97
00003777 00000005 706.61 129.01 471.75 728.10 982.39 460.30 1126.16 439.18 1146.68 578.57 992.40 699.68 1104.92 685.58
00003778 00000006 705.98 126.56 471.97 733.96 983.71 460.23 1125.04 440.03 1146.12 578.34 990.83 699.98 1101.99 686.69
00003779 00000007 706.38 124.86 471.20 738.76 983.86 460.60 1125.00 441.29 1145.60 578.09 988.09 699.48 1101.01 687.09
00003780 00000008 706.73 125.11 471.09 740.25 985.01 459.80 1125.48 442.39 1146.53 578.28 988.01 699.13 1100.76 688.25
00003781 00000009 706.21 127.84 471.83 737.10 984.21 461.59 1126.47 441.48 1147.32 579.97 986.86 700.58 1100.42 687.78
00003782 00000010 706.47 125.61 470.66 740.68 986.01 461.00 1126.60 443.95 1147.61 577.61 985.73 698.49 1099.09 688.02
00003783 DELETE   706.20 121.55 470.68 744.20 986.92 460.72 1126.24 445.84 1145.24 575.95 980.91 693.90 1095.63 685.29
00003784 00000012 705.49 120.84 469.35 741.67 987.92 461.21 1124.73 444.38 1145.80 578.21 981.29 694.64 1090.79 684.72
00003785 00000013 707.38 122.77 466.12 732.98 988.30 462.67 1124.73 444.37 1146.36 576.78 987.01 693.71 1094.21 682.36
00003786 00000014 708.31 122.73 464.31 732.38 988.40 462.00 1122.98 445.00 1145.72 575.70 990.90 695.74 1094.68 685.34
00003787 00000015 709.98 127.50 463.90 723.84 987.81 464.01 1122.66 443.11 1144.83 577.76 992.73 698.57 1094.10 685.34
00003788 00000016 710.49 133.19 463.26 717.00 988.63 468.05 1121.36 445.00 1145.31 579.25 993.91 699.10 1093.93 684.33
00003789 00000017 711.62 138.12 461.00 704.34 989.90 470.74 1121.94 447.20 1145.78 580.92 997.31 698.35 1093.77 683.58
00003790 00000018 712.69 139.17 463.27 710.34 989.18 471.83 1125.30 448.09 1145.95 586.34 999.94 704.06 1099.41 688.50
00003791 00000019 711.63 137.80 467.08 724.19 986.77 473.41 1127.42 446.71 1146.84 593.09 1000.53 713.60 1104.54 694.91
00003792 00000020 711.09 138.89 467.62 726.89 987.83 473.38 1125.96 448.47 1146.66 594.39 999.89 715.12 1101.37 697.95
00003793 00000021 708.60 140.42 469.10 729.76 985.07 470.94 1125.98 447.00 1146.50 591.77 995.96 714.21 1101.68 697.90
00003794 00000022 707.39 140.37 467.62 733.20 982.27 468.35 1125.14 447.65 1147.42 589.02 988.82 711.97 1098.45 698.80
00003795 00000023 703.34 139.67 469.73 733.64 978.92 466.11 1122.15 445.75 1145.59 586.66 985.78 711.52 1096.03 698.61
00003796 00000024 702.93 138.93 466.84 725.52 978.18 468.32 1120.86 444.87 1144.02 586.59 983.01 706.61 1094.81 691.02
00003797 00000025 702.10 140.00 465.73 721.21 977.91 469.57 1118.12 444.84 1142.74 586.24 981.36 704.63 1092.63 687.96
00003798 00000026 702.90 140.85 463.30 715.74 976.81 470.24 1117.67 443.91 1142.34 585.75 980.72 703.32 1092.07 685.44
00003799 00000027 699.68 141.39 463.39 715.08 973.90 470.20 1115.44 445.41 1140.12 586.66 977.44 703.04 1090.50 686.43
00003800 00000028 697.74 141.84 463.40 715.48 971.75 469.96 1114.34 445.05 1139.05 586.11 973.51 702.08 1088.92 685.55
00003801 00000029 695.61 147.42 462.65 707.60 967.59 471.45 1112.49 445.48 1135.24 585.10 972.07 703.03 1087.47 685.73
00003802 00000030 693.54 148.13 462.34 708.98 966.45 469.56 1111.73 445.23 1134.27 585.79 968.86 703.82 1083.68 688.23
00003803 00000031 688.24 149.03 464.81 711.55 963.78 467.13 1108.85 447.22 1130.80 585.19 963.75 704.00 1078.66 692.08
00003804 00000032 686.51 147.90 465.49 715.69 962.12 465.52 1107.25 448.23 1128.73 584.90 960.68 705.16 1074.82 695.51
00003805 00000033 686.24 145.01 464.06 718.33 960.75 464.72 1106.86 448.54 1126.44 584.45 960.53 705.35 1074.03 696.41
00003806 00000034 680.78 141.68 465.40 723.43 958.31 463.47 1104.92 449.05 1124.52 583.71 956.44 703.49 1071.47 695.85
00003807 00000035 679.62 136.73 463.20 728.75 955.57 463.58 1103.95 448.54 1122.77 585.09 952.82 703.99 1070.17 695.60
00003808 00000036 678.56 134.98 462.08 728.99 952.07 464.31 1102.15 448.66 1120.53 584.39 950.93 702.53 1070.07 693.39
00003809 00000037 676.46 133.98 459.39 730.44 952.38 463.76 1099.89 449.94 1120.22 584.91 950.10 701.54 1067.35 693.74
00003810 00000038 675.25 137.49 459.54 726.98 950.33 465.14 1099.51 451.19 1119.60 584.65 948.09 701.79 1067.82 693.77
00003811 00000039 675.79 139.87 457.49 724.47 948.73 462.85 1099.33 450.60 1116.87 584.27 947.21 700.73 1066.78 694.10
00003812 00000040 674.04 141.27 456.22 722.80 944.97 461.86 1099.89 449.98 1115.35 584.36 944.25 699.70 1068.25 693.08
00003813 00000041 670.14 143.10 457.90 719.09 939.54 461.64 1097.15 449.59 1111.26 583.92 940.17 699.14 1066.09 692.30
00003814 00000042 671.00 141.08 457.54 720.73 937.93 462.39 1096.22 449.31 1108.49 583.38 939.11 698.66 1065.38 691.05
00003815 00000043 667.57 140.00 458.34 721.61 935.76 460.28 1096.71 448.66 1108.16 582.58 937.53 699.00 1065.22 692.42
00003816 00000044 668.10 140.40 458.26 719.16 933.58 461.04 1095.62 449.07 1105.34 581.94 935.70 697.63 1064.37 690.92
00003817 00000045 667.12 140.42 458.20 718.83 933.48 460.24 1094.52 448.97 1104.38 581.49 936.17 697.71 1062.80 691.55
00003818 00000046 666.45 139.77 458.20 717.97 932.85 459.84 1093.21 448.44 1102.84 582.15 933.84 696.20 1060.57 689.93
00003819 00000047 664.72 139.21 459.57 718.92 930.95 459.66 1091.34 447.93 1100.67 580.34 932.75 695.49 1059.90 688.79
00003820 00000048 664.36 140.73 459.25 716.94 930.64 459.32 1090.27 448.08 1100.13 580.34 932.10 695.98 1058.12 689.82
00003821 00000049 662.19 137.24 459.71 720.71 929.70 459.85 1087.02 447.49 1098.09 580.84 931.08 696.76 1054.63 689.67
00003822 00000050 660.18 139.59 460.88 720.14 928.57 458.79 1085.51 447.30 1096.90 580.26 928.92 696.27 1053.02 690.01
00003823 00000051 658.90 139.50 461.40 717.80 926.99 458.87 1084.02 446.43 1094.94 579.86 927.25 694.76 1051.46 687.78
00003824 00000052 657.31 140.32 460.18 716.07 924.65 458.07 1083.46 447.13 1092.17 579.34 924.37 694.09 1049.53 688.28
00003825 00000053 657.81 139.43 458.71 715.00 924.03 459.06 1081.97 446.46 1091.25 579.10 925.61 694.09 1049.57 686.98
00003826 00000054 654.95 140.76 460.09 713.11 921.23 459.94 1080.62 446.11 1090.02 579.29 924.30 695.28 1047.82 687.41
00003827 00000055 655.57 139.69 459.24 713.59 920.12 459.48 1079.20 444.71 1088.16 579.19 923.48 694.84 1047.04 686.21
00003828 00000056 653.73 141.05 460.83 714.78 919.47 459.89 1079.00 445.09 1088.36 580.43 921.44 696.12 1045.75 687.52
00003829 00000057 653.21 137.08 460.10 720.29 919.03 460.57 1078.18 446.46 1087.27 580.47 921.05 696.55 1045.07 688.51
00003830 00000058 652.44 137.86 460.49 718.38 917.49 461.37 1076.61 445.06 1086.53 581.13 920.79 697.92 1043.92 688.16
00003831 DELETE   653.06 136.40 459.69 720.12 916.88 462.54 1076.52 446.19 1085.79 582.31 919.18 698.34 1043.18 688.58
00003832 00000060 652.91 139.87 458.93 716.88 915.50 463.08 1076.61 447.21 1085.15 582.52 919.57 699.10 1043.77 689.72
00003833 DELETE   650.50 143.92 460.59 709.12 914.35 465.35 1073.91 444.61 1084.00 582.78 921.05 699.55 1042.75 686.37
00003834 00000062 650.15 144.24 459.66 706.04 913.13 465.39 1073.86 443.25 1083.86 581.42 922.83 698.76 1044.37 684.50
00003835 00000063 649.04 140.93 460.22 708.21 914.21 463.54 1073.32 440.17 1085.19 581.27 924.27 698.28 1044.13 683.04
00003836 00000064 647.96 143.29 460.21 707.06 913.03 464.10 1073.18 440.49 1084.59 581.77 923.98 700.04 1043.57 684.69
00003837 00000065 648.30 142.95 460.36 709.33 911.50 464.70 1073.44 440.95 1082.43 583.13 922.30 701.77 1042.09 686.39
00003838 00000066 646.48 138.28 463.76 717.41 910.29 464.47 1071.88 441.75 1081.49 583.57 917.70 702.56 1038.76 688.08
00003839 00000067 645.79 147.31 466.59 712.87 910.46 466.58 1072.46 444.29 1081.90 588.53 914.01 705.02 1036.29 691.27
00003840 00000068 643.49 146.14 468.57 718.29 910.49 467.66 1071.27 446.41 1079.51 591.75 908.66 706.38 1031.43 693.41
00003841 00000069 640.42 158.94 472.72 701.14 906.01 471.59 1074.14 449.12 1076.86 596.89 903.92 708.21 1031.22 694.53
00003842 DELETE   635.37 163.72 475.95 695.40 909.35 473.03 1070.19 456.99 1074.13 601.27 910.69 712.09 1029.10 702.71
00003843 DELETE   628.68 172.42 485.13 688.05 897.86 474.18 1069.26 467.05 1060.07 604.99 905.46 717.93 1028.30 714.03
00003844 00000072 620.08 160.83 493.63 704.08 887.84 473.28 1063.97 467.95 1050.01 606.55 885.98 716.09 1016.60 713.96
00003845 00000073 614.10 154.28 497.17 715.74 884.16 470.06 1055.92 473.14 1041.29 601.36 872.74 709.71 1003.72 715.01
00003846 00000074 604.48 159.35 502.68 714.98 884.13 461.92 1045.61 472.33 1029.83 605.88 861.07 706.65 992.02 716.62
00003847 00000075 604.56 154.28 502.84 722.10 882.17 458.79 1045.47 473.60 1023.59 605.79 858.83 706.67 987.97 720.11
00003848 00000076 609.50 145.84 499.19 727.47 878.59 463.98 1050.31 476.90 1026.98 599.94 860.21 706.10 990.52 718.78
00003849 00000077 608.26 146.63 502.98 721.24 876.88 464.86 1052.95 478.25 1024.91 603.76 859.18 704.93 989.96 717.88
00003850 00000078 606.33 146.91 504.14 718.71 875.32 464.00 1055.54 478.58 1027.18 603.04 859.30 704.69 994.11 718.30
00003851 00000079 605.32 151.08 505.96 716.97 872.30 461.26 1056.56 476.07 1026.90 600.25 869.66 709.26 1001.57 722.05
00003852 00000080 603.57 144.25 506.17 732.63 873.75 454.60 1055.33 465.42 1029.27 602.05 871.94 716.77 1001.54 726.37
00003853 00000081 602.59 139.72 505.42 736.96 873.89 449.89 1054.67 456.71 1032.00 601.88 873.17 717.23 1001.70 724.16
00003854 00000082 597.89 135.85 506.84 739.32 872.23 443.88 1050.72 449.93 1030.08 596.89 870.04 711.08 997.44 717.47
00003855 00000083 599.29 143.14 503.28 722.86 866.77 437.69 1050.32 446.10 1022.62 592.34 865.74 701.26 996.36 709.31
00003856 00000084 597.52 141.75 505.76 718.39 865.08 433.48 1050.01 447.54 1018.10 590.09 856.16 694.58 990.44 707.57
00003857 00000085 595.23 135.39 504.76 722.33 865.55 430.63 1047.61 445.93 1016.93 587.24 856.49 689.85 989.69 703.84
00003858 00000086 591.55 132.83 506.50 730.00 863.04 427.71 1047.43 445.76 1015.03 587.14 852.61 691.77 987.77 707.64
00003859 00000087 588.28 126.90 508.15 737.09 864.67 424.95 1045.26 447.18 1015.81 588.05 846.27 691.05 979.51 710.79
00003860 00000088 586.69 123.83 508.99 731.59 861.77 421.89 1044.06 445.24 1012.58 587.44 833.13 684.60 971.68 705.90
00003861 00000089 581.45 120.23 510.12 718.65 859.06 420.25 1042.39 445.04 1010.52 586.69 829.18 675.51 969.73 697.84
00003862 00000090 578.57 118.43 511.78 713.74 856.88 414.85 1043.88 443.36 1010.81 584.26 824.22 671.81 967.48 697.43
00003863 00000091 573.95 117.30 512.95 717.32 856.04 412.61 1039.39 439.23 1011.04 581.30 820.59 668.92 964.07 693.22
00003864 00000092 573.78 115.44 511.49 716.66 855.20 410.30 1035.53 436.61 1007.01 578.37 820.33 664.82 963.28 688.60
00003865 00000093 570.27 114.02 511.23 715.77 853.77 408.41 1033.09 434.75 1006.27 576.11 819.10 663.02 961.10 686.91
00003866 00000094 570.62 112.37 510.94 716.11 853.22 407.59 1032.86 431.93 1006.79 575.60 818.70 663.33 960.87 685.83
00003867 00000095 568.68 114.02 513.02 713.00 851.88 406.40 1033.49 429.72 1006.39 573.64 818.32 663.36 961.34 685.12
00003868 00000096 567.92 111.13 515.54 714.83 851.74 404.04 1034.23 430.45 1005.43 571.78 818.01 659.34 963.61 683.08
00003869 00000097 568.18 113.33 516.12 712.64 853.83 402.47 1036.49 430.76 1007.40 570.61 819.85 657.56 965.77 682.68
00003870 00000098 568.44 111.43 517.89 710.25 855.03 401.32 1039.88 427.06 1009.88 568.33 824.31 656.04 970.01 679.07
00003871 00000099 571.19 107.65 518.32 711.09 856.80 400.38 1042.91 426.85 1011.47 564.85 827.11 652.63 973.76 676.09
00003872 00000100 583.76 98.55 515.74 714.67 865.34 397.41 1047.23 427.47 1019.36 558.78 840.68 646.37 983.54 671.68
00003873 00000101 593.40 97.15 514.23 716.35 873.04 397.03 1053.13 425.22 1025.78 556.63 850.69 647.37 989.71 671.58
00003874 00000102 605.39 96.35 509.43 715.68 882.14 401.42 1057.44 425.07 1032.38 558.40 859.93 649.65 994.31 670.88
00003875 00000103 613.89 99.27 505.30 712.95 888.02 404.35 1061.57 428.14 1038.55 555.45 874.12 653.49 1003.14 674.95
00003876 00000104 618.08 108.61 504.77 711.42 902.62 408.36 1072.37 435.67 1045.10 562.74 878.32 653.50 1006.84 677.86
00003877 00000105 626.00 110.27 510.42 717.50 907.77 405.10 1081.99 437.34 1052.73 569.89 870.13 653.50 1010.80 681.67
00003878 00000106 635.07 120.40 509.60 708.86 915.56 409.06 1091.54 439.01 1062.71 573.13 881.87 659.77 1019.54 686.24
00003879 00000107 642.58 119.18 509.57 709.99 924.48 415.45 1105.70 440.75 1076.84 578.06 894.37 667.76 1031.59 690.73
00003880 00000108 648.34 125.67 510.47 704.17 929.88 418.89 1111.73 443.67 1081.14 580.12 904.36 670.99 1039.46 693.40
00003881 00000109 659.71 136.04 505.23 699.28 937.41 424.34 1115.12 443.11 1088.75 581.97 915.31 674.41 1047.62 692.49
00003882 00000110 669.48 141.69 504.12 696.24 947.05 425.49 1120.37 444.40 1097.07 581.76 926.02 676.42 1053.21 694.58
00003883 DELETE   684.74 143.94 497.21 691.22 958.11 429.69 1124.89 445.25 1103.03 583.37 934.72 674.84 1056.97 690.93
00003884 00000112 692.73 145.89 496.84 688.45 966.17 437.24 1133.21 450.25 1112.92 586.78 943.87 679.32 1064.49 693.68
00003885 00000113 697.56 149.46 495.64 690.79 963.65 432.61 1139.42 453.01 1114.42 589.48 933.73 680.09 1069.57 699.63
00003886 00000114 705.12 147.86 492.72 692.01 969.59 432.99 1146.73 456.69 1118.93 587.85 942.24 677.05 1077.54 699.07
00003887 00000115 709.78 142.05 488.48 697.20 978.45 430.55 1151.96 455.16 1125.84 588.63 948.77 673.88 1082.70 696.50
00003888 DELETE   715.34 146.19 484.49 692.16 983.54 431.99 1153.91 451.44 1130.39 589.71 952.70 676.10 1083.40 695.22
00003889 DELETE   719.32 150.83 484.86 683.27 988.23 432.17 1160.02 449.86 1134.40 590.96 958.65 676.53 1086.98 694.53
00003890 00000118 724.67 145.68 480.15 687.82 995.47 434.05 1161.82 452.78 1138.93 591.18 964.51 675.96 1088.51 694.85
00003891 00000119 728.99 150.47 479.12 683.32 998.91 436.30 1165.90 453.78 1143.22 591.40 969.94 677.78 1094.22 695.61
00003892 00000120 735.09 151.79 474.92 683.26 1005.17 435.80 1170.00 455.16 1148.67 590.47 976.08 677.40 1098.63 696.76
00003893 00000121 739.95 149.20 477.04 689.67 1009.59 435.63 1175.79 456.09 1152.81 588.24 982.07 678.40 1104.69 698.31
00003894 00000122 745.36 149.37 479.83 689.74 1013.32 436.88 1181.22 455.97 1156.24 588.44 986.72 679.55 1111.04 698.27
00003895 00000123 749.22 146.42 481.31 690.42 1016.14 436.76 1183.68 455.02 1158.33 587.44 990.77 677.70 1114.74 695.63
00003896 00000124 754.60 147.94 481.49 688.01 1017.04 436.77 1188.40 450.93 1162.07 587.02 996.66 679.61 1122.88 694.24
00003897 00000125 759.19 149.37 480.69 685.32 1018.69 435.18 1190.03 449.46 1163.58 585.62 999.49 678.55 1125.77 693.14
00003898 00000126 761.37 150.50 478.99 683.17 1021.33 434.26 1189.30 446.98 1165.53 586.46 1002.01 677.91 1125.11 691.55
00003899 00000127 764.57 156.59 477.76 677.72 1021.76 433.89 1189.63 448.36 1163.07 585.06 1002.87 676.35 1125.53 691.40
00003900 00000128 763.55 153.18 479.92 680.86 1020.86 433.25 1190.24 448.50 1163.67 584.03 1001.46 676.63 1126.20 692.15
00003901 00000129 763.99 151.29 479.86 679.83 1021.56 432.04 1190.49 448.57 1162.48 583.58 1002.25 675.44 1124.72 691.97
00003902 00000130 763.46 152.75 480.35 677.87 1019.46 429.89 1189.70 446.05 1160.47 583.11 1001.15 673.77 1124.68 690.06
00003903 00000131 762.37 150.54 480.38 681.16 1018.67 428.17 1190.04 446.05 1159.64 582.57 999.02 673.48 1124.41 691.06
00003904 00000132 759.70 154.70 481.58 676.18 1015.42 426.40 1188.51 445.26 1155.51 582.48 995.78 672.63 1121.44 691.24
00003905 00000133 753.94 147.15 483.87 683.05 1011.14 424.11 1184.91 444.46 1151.05 579.42 990.03 671.16 1117.34 690.75
00003906 00000134 749.44 146.69 483.79 681.75 1007.97 422.09 1183.57 445.49 1148.31 578.61 985.00 670.72 1113.59 692.77
00003907 00000135 742.17 145.97 484.03 680.99 1005.50 421.99 1178.67 445.46 1146.05 579.51 979.87 669.89 1106.67 691.99
00003908 00000136 739.40 149.34 480.06 677.41 1000.08 421.27 1173.32 445.57 1141.52 578.59 974.50 667.45 1102.45 690.29
00003909 00000137 732.52 150.64 482.84 674.10 996.27 421.83 1169.68 443.31 1142.19 578.85 970.78 667.56 1100.45 688.31
00003910 00000138 727.62 142.45 482.67 679.09 991.13 416.90 1164.64 442.46 1134.80 574.87 963.58 662.12 1095.29 686.02
00003911 00000139 719.86 144.74 487.63 675.68 984.16 414.58 1161.54 444.00 1128.72 572.70 956.98 660.31 1091.75 687.02
00003912 00000140 715.72 145.96 490.77 676.05 977.40 413.98 1156.96 443.81 1122.09 572.05 950.45 660.20 1087.86 687.04
00003913 00000141 710.70 147.94 492.78 674.33 974.87 414.07 1152.48 446.51 1118.05 572.31 947.26 659.16 1083.82 687.96
00003914 00000142 706.05 144.97 493.04 679.17 970.23 413.40 1146.76 447.27 1113.92 571.64 941.15 660.62 1077.97 690.34
00003915 00000143 701.40 147.20 495.59 676.38 966.10 412.72 1145.28 446.10 1112.17 572.32 936.05 662.13 1075.29 691.53
00003916 00000144 697.94 144.35 495.42 682.44 964.81 412.63 1140.60 446.64 1110.12 572.30 932.96 662.63 1069.95 692.31
00003917 00000145 695.04 139.75 495.51 682.36 963.84 420.38 1131.39 441.49 1107.47 572.17 943.74 665.44 1067.67 685.70
00003918 00000146 690.08 138.91 499.07 680.53 958.97 418.54 1130.16 438.30 1103.77 572.16 938.92 665.27 1064.93 684.45
00003919 00000147 686.85 138.31 500.07 678.96 955.45 414.70 1127.76 435.32 1099.19 570.21 934.96 661.62 1062.85 681.39
00003920 00000148 683.20 131.42 501.34 682.46 953.50 411.66 1127.57 432.93 1097.72 568.48 932.73 659.15 1061.34 679.31
00003921 00000149 681.21 127.44 503.33 684.79 951.17 409.85 1127.43 430.74 1095.14 567.78 929.41 658.23 1058.74 677.76
00003922 00000150 677.73 130.80 506.66 682.62 949.62 409.93 1127.14 430.86 1094.40 569.22 928.08 659.50 1058.46 679.04
00003923 00000151 677.48 126.18 508.03 689.46 949.24 410.44 1127.58 431.10 1093.69 570.10 926.25 660.07 1058.27 679.35
00003924 00000152 675.97 124.58 507.95 692.67 948.15 410.66 1126.88 431.31 1092.36 572.03 924.31 660.84 1056.64 680.17
00003925 00000153 674.73 127.98 510.14 691.58 946.32 411.33 1126.87 430.39 1091.87 572.77 923.41 662.94 1057.35 681.12
00003926 00000154 674.44 125.86 511.27 693.51 946.12 411.52 1127.27 430.66 1092.03 572.74 922.33 662.99 1057.29 681.26
00003927 00000155 674.66 120.18 510.03 699.77 945.12 411.48 1126.50 431.67 1090.27 573.18 922.32 663.10 1056.59 681.94
00003928 00000156 674.89 122.42 510.69 698.01 945.62 411.83 1126.77 431.96 1090.72 573.26 922.74 663.28 1057.12 682.12
00003929 00000157 676.40 119.71 509.35 700.93 945.61 410.90 1127.41 432.04 1089.37 572.82 921.82 662.53 1056.82 682.09
00003930 00000158 676.45 120.71 509.65 700.53 946.65 411.50 1126.99 433.48 1090.51 573.31 921.99 662.92 1055.75 683.22
00003931 00000159 676.98 121.62 508.96 699.20 947.51 413.33 1127.52 434.10 1091.95 574.16 924.70 664.07 1057.00 683.39
00003932 00000160 679.34 124.31 508.53 696.59 947.81 413.60 1127.42 432.65 1091.95 573.18 926.77 664.50 1058.06 682.51
00003933 00000161 681.21 121.20 507.32 698.57 948.47 413.56 1127.65 433.07 1090.74 572.96 929.12 663.77 1058.57 681.91
00003934 00000162 681.96 119.77 507.48 699.86 949.78 413.38 1128.52 433.76 1091.75 572.64 929.04 663.02 1058.70 681.81
00003935 00000163 683.92 119.16 506.27 699.32 951.11 412.53 1129.40 433.11 1093.05 571.98 929.88 661.98 1060.15 681.00
00003936 00000164 686.04 116.29 504.09 702.35 950.80 411.93 1129.73 433.09 1092.20 570.56 930.17 660.83 1061.19 680.13
00003937 00000165 686.17 117.56 504.60 700.26 950.92 411.59 1130.09 432.76 1092.14 569.48 930.35 659.84 1061.64 679.10
00003938 00000166 686.25 121.56 503.84 695.62 951.40 411.86 1129.95 432.06 1092.79 569.95 930.98 660.32 1061.34 678.88
