Video ID: 	hSPZtPajD6M
H: 	2160
W: 	3840
FPS: 	29.97002997002997

FRAME INDEX X0 Y0 W H [Landmarks (5 Points)]

00031177 00000000 1677.27 267.41 666.98 965.03 1879.19 681.54 2187.99 679.36 2055.44 880.13 1914.34 1037.91 2139.42 1038.29
00031178 DELETE   1675.75 262.77 668.00 965.57 1878.43 679.98 2181.72 689.71 2038.92 885.39 1895.92 1034.18 2127.16 1040.63
00031179 00000002 1677.76 262.94 667.04 961.68 1878.22 675.70 2179.89 689.22 2032.25 883.75 1894.60 1030.51 2122.88 1039.70
00031180 00000003 1677.33 263.48 667.01 957.38 1876.87 673.43 2177.06 687.09 2028.75 881.17 1892.86 1028.91 2119.06 1037.88
00031181 00000004 1678.90 262.12 667.70 959.12 1874.85 670.72 2177.69 687.07 2025.85 881.77 1889.03 1030.07 2117.53 1041.27
00031182 00000005 1685.75 242.09 660.86 974.83 1873.66 669.78 2180.62 683.68 2030.45 879.41 1893.60 1029.33 2119.21 1039.63
00031183 00000006 1684.83 244.51 665.76 973.64 1874.65 670.16 2181.99 684.89 2032.27 879.07 1894.27 1029.27 2119.77 1040.31
00031184 00000007 1687.90 253.43 662.30 962.70 1875.92 669.53 2184.30 684.64 2034.38 876.02 1893.74 1026.73 2120.92 1038.49
00031185 00000008 1691.53 253.32 660.81 963.61 1875.83 664.29 2184.69 679.11 2034.37 869.03 1893.06 1020.44 2121.13 1032.17
00031186 00000009 1692.08 238.15 660.38 982.65 1878.79 661.38 2183.53 677.09 2033.25 868.26 1894.47 1019.36 2123.37 1031.62
00031187 00000010 1688.46 242.03 667.65 979.22 1877.84 657.74 2186.05 672.31 2032.28 862.23 1896.52 1017.33 2125.46 1028.55
00031188 00000011 1690.97 247.17 663.75 959.85 1879.24 655.89 2186.31 669.71 2033.81 859.55 1905.76 1007.62 2124.41 1019.10
00031189 00000012 1696.51 245.97 657.24 955.63 1879.03 649.55 2189.79 668.40 2031.56 856.73 1903.54 1003.32 2126.06 1017.99
00031190 00000013 1699.84 241.15 656.93 955.26 1879.58 642.80 2190.92 663.15 2029.42 850.62 1904.57 999.26 2126.80 1015.11
00031191 00000014 1703.65 236.51 658.37 953.68 1881.79 632.78 2196.43 658.16 2027.14 841.52 1902.07 992.35 2123.51 1012.92
00031192 00000015 1709.16 239.42 652.84 938.66 1879.37 625.82 2197.86 652.94 2019.88 834.69 1899.20 988.89 2119.87 1011.15
00031193 00000016 1705.15 231.07 656.02 951.35 1875.85 613.66 2190.55 641.94 2013.00 823.14 1891.17 979.74 2114.31 1002.68
00031194 00000017 1706.06 224.90 648.94 941.48 1872.91 604.31 2187.33 636.43 2009.45 806.30 1885.93 966.73 2105.31 992.79
00031195 00000018 1708.62 202.61 651.32 955.97 1869.12 593.01 2188.49 630.57 2003.64 790.02 1875.39 949.85 2103.36 981.15
00031196 00000019 1708.47 176.55 658.37 981.89 1870.22 581.44 2187.75 621.66 1998.39 779.73 1873.44 943.38 2106.39 976.72
00031197 00000020 1711.70 166.18 662.38 1001.16 1873.63 578.12 2190.88 617.16 2002.37 772.63 1878.39 944.34 2105.18 977.10
00031198 00000021 1718.31 163.39 659.00 1010.72 1878.44 568.18 2194.54 606.82 2003.86 765.33 1882.07 941.35 2106.38 973.86
00031199 00000022 1725.23 152.75 654.26 1013.88 1884.13 560.67 2201.68 599.77 2007.13 761.44 1887.31 936.53 2115.09 968.99
00031200 00000023 1728.27 125.84 687.33 1060.65 1915.14 551.41 2229.75 611.34 2029.92 753.39 1895.63 917.62 2120.99 971.88
00031201 00000024 1735.92 163.28 672.00 1017.78 1896.31 542.29 2218.25 590.68 2008.72 749.17 1888.49 924.73 2120.32 965.90
00031202 00000025 1742.77 170.92 672.47 1004.16 1900.68 539.59 2220.81 588.60 2009.10 744.12 1887.11 917.11 2122.65 959.60
00031203 00000026 1745.62 175.29 661.32 992.53 1903.43 532.52 2221.13 585.90 2015.34 731.79 1884.07 904.33 2125.14 950.56
00031204 00000027 1756.12 195.89 644.66 950.27 1908.64 530.18 2221.90 585.27 2017.03 720.90 1883.43 894.48 2118.69 942.07
00031205 00000028 1760.23 196.46 647.96 947.06 1912.28 527.25 2226.33 581.78 2019.11 709.02 1887.03 885.13 2127.19 932.76
00031206 00000029 1764.06 196.43 643.65 937.59 1918.05 522.70 2227.38 579.78 2021.77 704.40 1886.17 878.82 2126.00 928.55
00031207 00000030 1766.51 215.16 641.29 909.61 1921.29 521.94 2226.83 578.66 2020.51 703.11 1888.58 878.02 2125.89 927.00
00031208 00000031 1767.77 208.66 645.67 926.85 1920.67 522.54 2229.32 578.09 2019.86 700.58 1890.82 879.04 2128.02 927.68
00031209 00000032 1775.59 220.12 641.85 889.57 1919.47 516.00 2237.83 575.00 2024.07 702.06 1894.02 870.32 2130.01 921.15
00031210 00000033 1768.03 209.89 649.54 918.43 1917.96 509.12 2239.23 571.94 2020.32 704.01 1886.85 872.56 2127.11 923.63
00031211 00000034 1772.12 213.18 645.82 911.29 1920.36 509.85 2240.71 575.66 2019.19 703.65 1885.75 870.63 2124.89 923.96
00031212 00000035 1770.18 213.95 647.82 913.20 1922.05 509.63 2247.68 577.70 2024.61 701.91 1885.62 872.76 2127.98 927.91
00031213 00000036 1775.35 214.20 637.63 904.69 1925.62 506.21 2246.15 574.57 2024.83 704.08 1888.24 869.73 2128.75 925.04
00031214 00000037 1774.19 216.61 640.12 900.62 1925.73 506.61 2243.98 574.37 2023.18 704.54 1888.29 869.35 2127.06 924.44
00031215 00000038 1776.61 222.77 637.11 896.49 1925.60 507.63 2243.13 575.10 2023.82 704.67 1885.96 869.02 2128.51 924.15
00031216 00000039 1779.82 207.88 641.76 917.42 1937.12 515.80 2237.65 575.91 2024.84 698.36 1888.86 874.56 2129.90 926.44
00031217 00000040 1775.56 218.13 641.48 910.76 1927.77 506.50 2243.18 573.80 2024.64 705.13 1887.41 866.43 2133.30 921.44
00031218 00000041 1775.24 220.13 641.72 910.68 1927.66 506.91 2243.59 574.18 2024.10 704.47 1885.82 867.40 2133.73 922.52
00031219 00000042 1780.48 208.15 643.99 916.45 1937.76 516.13 2237.20 576.34 2024.95 699.34 1888.38 874.59 2129.86 926.46
00031220 00000043 1775.35 216.00 638.91 914.06 1927.64 506.45 2243.04 575.30 2024.28 706.06 1885.33 867.85 2131.07 924.18
00031221 00000044 1779.62 210.68 643.79 912.81 1938.05 516.26 2238.34 576.45 2028.77 701.50 1888.86 876.66 2129.33 928.47
00031222 00000045 1781.17 212.81 641.58 912.70 1937.88 515.95 2237.90 575.60 2027.71 701.51 1888.91 877.35 2127.05 928.78
00031223 00000046 1780.85 219.71 639.48 900.72 1936.46 516.95 2235.81 575.72 2024.09 700.72 1888.05 876.09 2123.69 926.61
00031224 00000047 1781.09 222.89 633.81 907.57 1923.77 507.78 2241.73 574.83 2019.51 704.28 1884.57 872.42 2126.53 926.83
00031225 00000048 1779.09 216.90 638.04 909.07 1923.61 507.25 2239.75 574.44 2015.98 703.59 1884.28 871.22 2122.88 925.58
00031226 00000049 1777.01 219.51 639.11 905.15 1920.40 505.41 2236.86 571.26 2013.59 703.36 1883.88 873.10 2118.70 926.01
00031227 00000050 1776.94 209.97 645.13 905.54 1922.45 504.45 2232.20 571.62 2009.16 703.00 1882.85 875.24 2113.06 928.34
00031228 00000051 1776.59 221.29 648.75 901.88 1929.05 519.07 2226.54 576.82 2013.90 698.50 1884.99 874.94 2112.35 924.94
00031229 00000052 1781.09 216.24 646.18 895.73 1920.59 511.17 2232.42 573.17 2011.55 700.89 1889.63 872.57 2111.24 925.15
00031230 00000053 1777.14 224.60 649.92 889.46 1917.86 512.66 2229.47 570.86 2008.67 699.15 1889.39 870.68 2112.73 920.66
00031231 00000054 1774.97 220.78 653.30 894.40 1918.51 511.33 2228.02 571.95 2008.32 697.54 1890.43 870.79 2105.28 922.51
00031232 00000055 1767.31 214.33 653.73 910.52 1918.84 519.22 2219.37 575.39 2004.22 694.37 1881.89 873.58 2102.49 923.19
00031233 00000056 1766.87 205.63 646.53 923.78 1916.14 519.80 2214.99 572.02 2004.99 695.04 1883.69 876.01 2104.02 922.42
00031234 00000057 1764.37 195.71 644.70 924.23 1912.08 518.02 2213.62 572.21 1999.54 694.41 1877.32 875.25 2098.62 922.77
00031235 00000058 1760.24 175.09 639.62 950.36 1904.57 503.72 2214.46 566.84 1991.36 690.22 1875.89 870.79 2093.07 921.99
00031236 00000059 1753.22 182.10 654.94 940.24 1899.16 517.03 2198.70 566.18 1986.32 696.58 1873.07 875.54 2089.19 917.08
00031237 00000060 1757.70 186.47 648.17 935.78 1897.18 516.23 2197.85 564.64 1985.53 694.48 1872.10 874.20 2092.30 917.01
00031238 00000061 1749.09 190.53 658.76 932.53 1893.64 508.89 2198.16 559.77 1987.19 696.57 1873.76 873.18 2089.76 917.22
00031239 00000062 1750.27 175.65 647.66 950.56 1889.94 509.56 2192.25 560.33 1982.70 692.11 1864.69 872.72 2087.10 917.35
00031240 00000063 1746.67 178.14 646.92 944.80 1887.16 510.80 2191.08 559.87 1981.08 688.70 1863.71 874.08 2088.65 917.07
00031241 00000064 1742.87 167.79 652.99 965.79 1884.85 508.86 2190.39 558.63 1978.92 688.84 1862.11 875.99 2085.01 919.47
00031242 00000065 1737.27 169.13 658.39 969.56 1883.82 509.35 2189.64 560.62 1978.49 687.88 1858.21 874.77 2081.20 919.93
00031243 00000066 1739.00 178.54 658.78 966.63 1885.74 510.36 2193.37 564.26 1978.49 689.11 1857.45 879.27 2081.82 926.28
00031244 00000067 1739.40 180.15 656.92 966.49 1885.33 510.86 2192.75 563.43 1979.69 692.90 1856.86 883.90 2079.67 929.73
00031245 00000068 1740.43 183.33 658.44 969.73 1884.60 511.14 2194.07 563.44 1979.60 694.17 1862.61 884.10 2088.91 929.63
00031246 00000069 1744.31 182.66 653.42 956.39 1887.19 514.19 2194.62 567.46 1980.67 697.70 1860.35 883.25 2089.37 929.24
00031247 00000070 1743.55 177.26 657.87 966.18 1887.73 510.45 2196.92 564.92 1982.44 697.63 1860.72 884.78 2086.43 931.79
00031248 00000071 1741.60 186.72 660.99 957.60 1887.87 512.26 2199.63 564.79 1983.81 699.17 1860.36 888.20 2087.17 933.77
00031249 00000072 1737.62 181.24 672.44 960.22 1885.62 510.70 2204.76 565.33 1982.78 702.67 1860.72 892.40 2089.08 938.66
00031250 00000073 1739.72 176.30 675.56 961.86 1886.73 510.77 2209.25 565.99 1980.94 703.93 1856.56 891.35 2093.15 937.75
00031251 00000074 1741.34 190.75 669.60 951.04 1889.41 513.92 2212.31 569.70 1986.68 708.57 1859.94 893.56 2097.77 940.39
00031252 00000075 1742.54 184.23 664.70 979.27 1887.46 508.61 2217.69 572.91 1990.35 703.95 1857.50 894.42 2098.81 946.96
00031253 00000076 1745.75 201.45 662.74 941.71 1896.74 510.75 2217.76 573.98 1989.80 713.77 1861.70 894.79 2096.54 944.66
00031254 00000077 1752.37 190.35 664.69 990.55 1899.28 516.13 2222.98 575.04 1993.23 716.89 1876.27 912.28 2106.79 961.01
00031255 00000078 1753.46 194.94 669.94 982.14 1901.81 518.51 2223.21 577.27 1996.15 720.12 1872.01 907.53 2104.73 958.39
00031256 00000079 1752.08 198.05 664.25 976.76 1900.36 514.70 2218.96 576.39 1995.09 717.77 1870.55 907.47 2096.34 957.99
00031257 00000080 1755.01 195.82 674.85 977.21 1908.14 515.64 2227.18 577.54 1998.64 714.81 1869.67 899.94 2105.08 953.90
00031258 00000081 1743.92 207.25 676.21 941.66 1905.47 511.40 2226.86 578.13 1994.08 718.78 1862.63 899.61 2094.14 952.41
00031259 00000082 1743.22 208.93 675.60 945.55 1905.45 512.34 2224.24 577.86 1993.89 717.71 1861.99 900.06 2091.66 951.90
00031260 00000083 1749.19 196.73 680.01 966.70 1907.14 515.22 2227.39 577.43 1996.07 714.37 1861.90 894.22 2100.01 949.04
00031261 00000084 1750.62 188.53 682.25 977.06 1906.98 514.76 2226.51 576.72 1994.68 712.91 1862.25 894.38 2099.82 948.90
00031262 00000085 1745.59 204.63 681.99 955.55 1905.07 509.69 2226.72 577.36 1991.22 715.79 1861.69 898.53 2093.04 952.20
00031263 00000086 1745.74 209.83 682.54 948.00 1903.25 510.79 2225.68 575.31 1993.66 713.94 1864.61 898.46 2096.16 949.89
00031264 00000087 1743.59 212.14 683.96 942.25 1898.91 511.20 2222.52 574.24 1990.56 712.50 1861.46 894.98 2096.65 945.33
00031265 00000088 1741.11 200.58 682.24 955.59 1897.87 511.79 2221.63 574.39 1989.35 710.83 1860.77 892.64 2098.40 942.67
00031266 00000089 1735.40 201.38 693.99 963.23 1889.27 511.73 2218.61 577.51 1985.12 702.38 1853.13 885.40 2099.02 939.82
00031267 00000090 1731.80 214.21 679.60 932.18 1891.48 509.02 2212.25 573.46 1986.26 705.35 1852.04 884.03 2088.42 935.93
00031268 00000091 1728.04 187.58 684.39 959.96 1887.85 507.20 2209.66 570.02 1984.13 704.51 1848.93 881.05 2088.97 931.85
00031269 00000092 1720.86 171.83 703.98 1004.01 1899.66 503.90 2214.79 575.99 1990.48 700.86 1848.47 887.89 2098.18 947.31
00031270 00000093 1721.81 176.28 694.76 982.95 1881.39 510.08 2206.68 568.13 1979.42 699.40 1840.79 884.85 2098.34 935.74
00031271 00000094 1716.29 169.21 702.82 980.18 1872.30 510.87 2204.94 564.96 1974.54 698.47 1845.27 888.51 2089.53 935.09
00031272 00000095 1718.20 165.18 699.13 977.94 1872.44 509.52 2199.73 563.98 1971.17 697.63 1845.18 887.11 2085.92 933.66
00031273 00000096 1717.72 160.70 694.55 981.41 1870.71 510.16 2196.20 566.24 1968.48 699.70 1842.75 889.84 2080.84 937.44
00031274 00000097 1717.04 173.18 683.82 961.33 1869.23 510.02 2192.75 566.20 1966.93 698.99 1839.00 886.46 2076.88 934.48
00031275 00000098 1716.72 169.74 673.17 969.47 1866.76 513.48 2180.36 568.55 1962.49 698.73 1839.27 887.73 2071.76 933.58
00031276 00000099 1711.85 162.12 679.60 971.48 1865.07 510.62 2179.80 569.15 1960.95 698.81 1833.16 883.02 2066.57 931.70
00031277 00000100 1708.51 168.08 678.25 959.63 1862.87 510.14 2175.17 567.66 1960.64 698.45 1829.00 881.74 2063.98 929.39
00031278 00000101 1705.21 169.15 675.76 962.22 1859.75 509.84 2174.77 563.24 1960.72 698.63 1831.83 883.49 2073.78 927.65
CROP_BBOX: 1122 0 2984 1686
