Video ID: 	ro_BxgUSUJI
H: 	1080
W: 	1920
FPS: 	25.0

FRAME INDEX X0 Y0 W H [Landmarks (5 Points)]

00001170 00000000 676.53 83.58 350.51 522.82 768.70 289.76 937.31 321.26 829.55 404.02 760.51 471.46 896.75 499.78
00001171 00000001 677.06 81.36 351.62 526.59 768.68 285.40 937.69 316.34 829.92 400.45 761.01 468.87 898.74 496.63
00001172 00000002 676.80 75.17 350.44 525.62 765.82 282.68 935.55 309.66 828.67 395.76 761.19 469.21 894.68 493.96
00001173 00000003 671.56 70.35 350.27 522.49 760.12 278.05 927.31 305.82 822.90 393.26 754.92 467.45 880.86 493.15
00001174 00000004 670.92 69.25 346.49 522.75 756.92 274.55 920.33 300.59 816.82 387.35 749.40 467.04 870.67 491.74
00001175 00000005 672.10 68.43 343.30 531.86 753.62 275.19 914.05 300.73 808.98 386.37 745.30 468.88 864.27 493.61
00001176 00000006 675.17 75.35 343.26 530.86 750.11 278.36 914.34 301.57 802.98 389.60 735.59 474.19 866.92 495.70
00001177 00000007 673.56 78.61 344.28 528.31 748.81 281.71 911.69 306.62 799.40 392.40 732.64 475.90 864.43 498.65
00001178 00000008 671.61 75.31 347.57 524.29 748.03 284.96 909.56 312.28 800.06 398.09 734.80 474.86 866.98 498.56
00001179 00000009 669.72 75.45 351.28 525.73 749.39 286.59 912.58 316.64 801.75 400.90 734.10 473.65 873.46 499.32
00001180 00000010 666.40 76.04 352.52 521.49 752.58 281.75 918.72 311.95 807.23 396.88 740.66 469.77 870.56 497.36
00001181 00000011 671.35 76.60 351.57 526.64 753.38 285.96 919.74 312.06 812.35 398.38 740.34 478.02 881.98 500.75
00001182 00000012 672.26 76.66 350.13 526.41 753.32 283.86 919.76 308.36 812.52 395.37 741.21 477.07 881.56 498.78
00001183 00000013 672.29 74.78 349.97 525.21 751.90 281.79 917.93 307.47 807.29 393.65 737.28 474.43 880.87 497.04
00001184 00000014 669.34 71.40 347.78 526.05 751.21 276.82 919.85 304.32 807.29 390.52 741.18 466.56 874.20 492.21
00001185 00000015 669.16 71.27 347.59 528.97 750.14 277.01 918.16 304.22 805.44 389.66 740.51 468.76 871.36 494.35
00001186 00000016 673.18 75.60 348.04 529.27 750.92 282.56 918.56 307.11 806.58 394.19 736.03 478.97 877.03 501.04
00001187 00000017 672.63 75.08 348.90 530.29 751.59 286.20 918.93 311.51 808.21 398.63 737.47 482.85 877.81 504.99
00001188 DELETE   672.21 79.56 347.43 525.54 750.42 299.02 914.25 325.10 804.93 405.27 738.36 485.67 881.63 508.36
00001189 00000019 673.79 78.98 346.90 522.74 751.53 299.53 917.17 325.74 806.41 407.27 739.98 484.94 885.96 507.45
00001190 00000020 673.77 78.58 348.66 521.33 753.19 291.79 921.33 320.40 808.86 400.52 738.59 480.91 885.21 505.65
00001191 00000021 670.66 74.45 348.77 523.37 756.77 283.49 925.92 310.36 814.81 392.01 750.29 471.12 882.12 496.10
00001192 00000022 671.30 71.22 348.87 524.10 756.95 279.62 925.22 306.32 816.07 390.15 750.41 467.27 881.87 492.17
00001193 00000023 670.82 69.57 349.97 520.99 755.43 274.04 924.86 301.23 814.65 387.28 747.44 463.03 880.60 488.31
00001194 00000024 670.56 70.54 350.46 521.22 755.60 275.25 925.29 303.01 815.51 389.31 747.64 463.17 881.82 488.87
00001195 00000025 671.78 73.45 351.24 521.83 756.56 281.73 927.17 307.95 816.15 393.88 751.52 468.23 886.63 492.40
00001196 00000026 670.78 76.38 352.59 525.27 757.26 285.25 929.52 311.47 817.37 400.49 753.28 472.49 891.69 496.57
00001197 00000027 670.21 79.82 353.27 523.65 759.63 287.15 932.64 313.49 821.79 405.27 755.83 475.44 895.68 499.49
00001198 00000028 671.51 81.10 352.31 521.29 761.58 287.82 934.28 313.28 823.72 407.27 758.04 477.14 897.86 500.52
00001199 00000029 672.84 81.86 351.73 521.01 763.24 286.66 934.62 311.79 825.66 405.46 760.90 477.29 896.92 500.62
00001200 00000030 672.88 79.64 351.95 521.29 762.67 286.15 935.26 310.31 824.95 403.77 759.86 477.31 897.40 499.69
00001201 00000031 673.68 78.62 352.04 523.67 762.75 284.67 935.95 310.34 825.62 402.59 759.17 475.66 897.24 499.33
00001202 00000032 673.78 78.86 352.24 526.72 763.31 285.51 936.41 311.74 826.34 402.97 759.03 475.90 897.76 500.08
00001203 00000033 675.08 81.60 350.78 530.04 763.20 287.49 935.87 313.21 827.80 406.32 761.12 479.42 899.08 503.26
00001204 00000034 678.78 80.58 348.33 533.69 762.71 291.37 935.01 319.96 825.83 410.97 752.28 488.02 900.50 512.44
00001205 00000035 681.32 85.12 346.26 529.21 763.15 298.03 933.69 326.67 825.50 418.28 754.71 494.09 897.01 518.50
00001206 00000036 681.71 84.53 346.80 530.91 763.93 299.67 932.31 326.66 827.20 420.63 760.11 497.84 895.04 520.58
00001207 00000037 681.79 83.00 345.91 531.74 764.60 296.05 932.21 322.13 827.50 417.62 763.31 495.09 895.91 516.96
00001208 00000038 679.16 84.99 346.63 527.68 764.20 291.04 928.78 315.84 825.90 410.08 767.13 482.37 894.25 505.48
00001209 00000039 675.26 81.11 348.88 527.74 761.73 288.98 931.92 312.56 825.24 408.89 763.61 478.79 898.89 500.66
00001210 00000040 673.81 78.31 349.57 531.21 760.01 287.70 931.73 310.99 823.48 407.22 761.45 478.72 898.17 500.41
00001211 00000041 673.94 78.77 348.55 531.40 760.37 287.90 929.42 311.38 823.33 406.42 762.03 479.41 895.17 501.48
00001212 00000042 678.27 78.52 345.92 531.86 759.96 288.68 927.33 312.28 823.19 408.93 756.78 489.28 890.42 510.06
00001213 00000043 676.19 79.88 347.94 528.85 760.39 290.29 928.44 315.50 823.60 410.29 752.83 488.22 892.20 510.24
00001214 00000044 673.78 84.75 348.06 522.20 760.38 293.44 927.03 318.19 820.48 411.28 759.71 479.70 890.18 502.64
00001215 00000045 676.29 84.55 345.95 519.01 754.64 307.57 920.13 333.28 812.03 416.35 745.02 484.48 894.27 506.71
00001216 00000046 677.25 85.56 344.95 520.73 756.72 303.92 922.70 329.74 814.11 415.27 746.38 486.28 893.05 508.87
00001217 00000047 676.92 86.46 345.00 523.36 759.45 299.27 925.04 326.95 817.95 413.70 746.72 485.82 891.77 510.31
00001218 00000048 677.60 84.16 344.45 527.21 760.76 295.70 926.88 321.20 822.30 412.04 749.95 486.94 893.30 509.68
00001219 00000049 678.13 83.64 343.23 526.47 760.51 294.89 926.26 319.97 821.81 412.74 750.04 487.02 891.81 509.38
00001220 00000050 676.96 83.11 344.35 525.67 759.98 294.15 925.89 319.63 821.47 412.62 749.37 486.18 891.42 508.87
00001221 00000051 675.23 80.34 347.18 526.09 758.42 293.91 925.48 319.30 820.02 413.01 748.86 485.85 892.09 508.01
00001222 00000052 671.92 81.36 347.59 520.16 759.03 291.36 925.69 314.47 819.93 407.67 758.15 477.32 889.17 498.97
00001223 00000053 671.15 80.12 348.33 519.05 758.77 289.90 926.64 313.09 821.41 406.20 758.60 475.73 891.16 497.31
00001224 00000054 671.77 79.93 348.97 517.23 759.67 289.41 927.59 312.16 822.84 406.79 761.22 475.45 893.84 496.43
00001225 00000055 672.28 81.11 348.59 515.40 760.70 289.89 928.28 312.60 823.94 407.00 761.87 475.15 894.10 496.10
00001226 00000056 672.86 81.63 347.81 516.60 761.23 289.91 929.04 313.02 824.07 407.41 761.83 475.39 894.67 496.76
00001227 00000057 674.06 83.32 347.44 518.66 762.09 290.38 929.71 313.98 824.50 408.18 762.70 476.24 895.92 498.00
00001228 00000058 676.20 83.50 346.72 519.46 762.24 290.98 928.93 313.89 824.34 408.57 764.94 477.27 896.27 498.45
00001229 00000059 677.37 83.73 346.73 521.08 762.71 290.68 928.63 313.44 824.49 408.67 766.25 477.98 895.66 499.17
00001230 00000060 678.91 85.48 346.27 524.08 763.80 291.13 928.15 314.41 824.51 408.09 766.35 479.66 894.20 501.50
00001231 00000061 679.36 85.47 346.31 525.84 764.12 291.31 928.09 315.12 824.47 408.34 766.41 480.28 894.23 502.47
00001232 00000062 679.73 85.74 345.86 525.25 764.06 291.77 927.21 315.14 824.11 408.46 767.19 480.87 893.73 502.74
00001233 00000063 681.98 79.63 344.37 530.20 763.01 292.58 928.66 315.84 824.79 410.29 761.39 489.47 896.00 509.66
00001234 00000064 683.09 80.81 342.63 531.20 763.27 292.44 928.67 316.16 824.54 410.65 761.53 490.31 895.72 510.88
00001235 00000065 683.66 80.81 342.29 533.12 762.72 293.60 927.94 317.34 824.27 411.88 761.41 490.87 896.42 511.30
00001236 00000066 686.14 87.11 337.32 526.28 759.75 308.54 922.03 330.07 816.65 415.81 758.16 492.35 898.43 511.15
00001237 00000067 684.44 85.63 338.61 525.83 757.92 308.10 922.18 331.14 813.93 419.10 754.48 491.86 897.29 511.83
00001238 00000068 679.65 80.78 343.53 528.82 757.27 298.52 925.06 324.82 814.09 416.54 748.55 489.29 893.65 511.96
00001239 00000069 676.05 78.40 345.50 529.97 753.93 294.13 920.21 322.29 809.24 411.71 741.73 486.91 885.84 511.20
00001240 00000070 674.32 81.39 344.63 526.35 751.00 291.13 915.67 319.88 804.10 408.46 737.39 484.87 875.98 509.94
00001241 00000071 671.55 80.08 346.46 524.51 747.46 290.14 909.38 318.62 799.24 404.84 732.82 481.57 866.57 506.24
00001242 00000072 671.77 78.81 344.82 520.79 745.48 290.10 906.07 318.79 795.61 404.73 729.92 477.63 863.91 502.34
00001243 00000073 667.58 75.68 346.41 513.91 748.60 289.73 907.58 317.38 796.02 401.54 733.06 480.12 861.88 501.83
00001244 00000074 671.26 78.16 347.36 518.84 747.16 288.56 908.44 317.42 798.04 401.67 729.90 473.80 866.62 498.66
00001245 00000075 671.21 77.42 350.13 522.02 750.00 287.54 914.02 316.52 803.54 401.11 733.78 475.64 873.41 500.53
00001246 00000076 673.83 80.07 350.05 519.84 754.99 289.57 920.14 316.83 811.23 403.26 741.70 478.81 884.30 502.45
00001247 00000077 674.38 78.24 349.81 522.65 756.65 291.17 922.86 316.98 815.70 403.01 745.42 479.69 888.95 501.99
00001248 00000078 674.39 77.88 349.49 523.67 755.56 291.25 922.42 316.48 814.82 404.36 745.24 481.13 889.06 502.96
00001249 00000079 673.90 78.83 347.58 522.76 752.91 290.17 918.13 316.13 808.66 403.52 740.22 479.49 883.54 502.26
00001250 00000080 671.24 79.20 348.69 521.30 749.06 289.44 913.32 314.93 803.68 400.92 736.44 477.03 876.84 499.40
00001251 00000081 670.43 84.48 344.87 516.73 747.19 299.67 903.86 326.03 796.77 398.91 733.47 473.68 874.13 496.96
00001252 DELETE   669.98 86.22 345.39 519.49 748.02 296.39 906.57 322.58 798.58 396.59 733.24 472.97 874.42 496.53
00001253 00000083 675.13 85.24 341.67 523.68 752.72 291.07 916.50 314.79 806.78 395.20 738.28 474.85 881.88 496.88
00001254 00000084 675.25 84.15 343.56 522.80 755.49 289.49 919.60 312.84 814.23 398.44 742.63 475.91 887.05 497.32
00001255 00000085 670.84 77.19 344.73 524.37 754.53 284.95 920.55 309.06 813.41 397.91 750.51 470.28 882.91 492.98
00001256 00000086 672.65 79.75 346.22 521.15 752.13 287.27 914.70 309.63 810.23 397.96 741.86 472.02 884.99 492.31
00001257 00000087 666.20 75.27 347.31 520.89 749.02 282.07 911.81 307.29 804.10 393.21 740.94 461.82 873.01 485.10
00001258 00000088 664.29 71.97 344.97 518.69 744.13 279.39 907.58 305.44 798.05 389.25 734.94 460.39 865.55 484.08
00001259 00000089 664.14 71.44 344.31 522.40 743.33 281.97 905.00 304.38 794.67 389.45 733.11 476.62 869.17 494.90
00001260 00000090 666.16 72.13 344.09 526.27 747.80 279.22 908.49 303.95 803.00 388.21 741.53 466.59 863.96 489.90
00001261 00000091 673.00 77.99 345.01 524.31 749.55 278.75 916.51 298.11 809.48 390.52 740.09 474.29 874.74 492.43
00001262 00000092 675.10 79.07 344.91 521.24 752.99 278.86 920.85 297.05 815.12 391.23 744.88 475.45 880.17 492.72
00001263 00000093 674.01 76.21 342.75 521.54 756.30 278.51 921.93 299.11 819.04 390.99 755.17 471.01 880.50 491.25
00001264 00000094 674.27 77.36 342.66 522.77 755.61 279.04 920.93 299.84 817.08 391.38 753.14 471.48 879.00 492.01
00001265 00000095 675.52 79.42 344.31 521.33 752.58 279.79 919.27 299.45 812.28 391.15 743.48 474.50 880.48 492.93
00001266 00000096 671.74 75.70 342.86 519.63 752.84 276.90 916.89 299.54 811.30 387.93 748.34 468.43 871.63 490.45
00001267 00000097 673.45 78.54 346.31 520.07 752.25 278.85 918.24 299.89 811.74 390.86 742.77 472.49 881.65 491.71
00001268 00000098 672.93 76.68 344.03 517.05 755.66 278.89 922.78 299.52 818.42 391.04 754.47 469.84 882.81 489.84
00001269 00000099 673.07 76.03 346.54 522.86 758.75 281.93 927.22 302.34 824.10 393.48 758.88 470.89 891.04 490.51
00001270 00000100 678.06 79.59 346.08 524.53 761.25 282.94 931.53 301.77 828.35 395.13 756.31 477.25 898.89 494.49
00001271 00000101 679.05 81.31 345.33 526.16 762.64 284.02 932.73 302.22 831.13 396.11 758.90 478.66 902.35 495.53
00001272 00000102 680.10 82.38 344.66 527.04 764.53 284.46 934.53 303.29 833.44 397.31 760.12 480.22 903.21 497.81
00001273 00000103 680.74 80.37 344.16 529.12 765.54 283.91 935.34 303.53 834.87 397.12 762.05 481.83 901.63 500.07
00001274 00000104 682.25 80.05 342.45 529.50 767.13 283.70 936.07 302.80 836.48 396.31 765.41 482.03 902.09 499.67
00001275 00000105 679.61 82.62 344.91 532.19 768.18 285.40 934.63 306.84 837.25 396.95 770.87 477.93 901.89 498.36
00001276 00000106 678.43 81.36 345.39 533.76 765.92 285.07 933.63 306.25 834.30 397.00 769.32 479.44 900.56 499.73
00001277 00000107 681.01 79.88 343.19 530.72 764.88 282.22 933.85 301.63 831.65 395.61 762.98 483.82 896.04 501.60
00001278 00000108 680.01 78.90 344.70 529.05 763.31 282.06 931.43 302.10 829.07 396.00 760.72 482.87 892.93 501.12
00001279 00000109 675.46 79.94 347.02 523.76 762.67 283.76 930.55 305.07 828.29 397.25 765.16 476.13 893.48 496.59
00001280 00000110 675.12 79.95 347.56 518.61 762.63 285.71 933.12 304.93 829.38 398.39 766.82 475.15 899.91 493.41
00001281 00000111 676.02 81.78 347.46 511.89 764.17 286.03 933.35 305.45 831.18 398.16 767.80 471.27 901.92 489.38
00001282 00000112 676.56 82.71 346.61 508.55 765.01 285.63 934.32 306.76 831.99 398.59 766.62 467.88 903.34 487.15
00001283 00000113 676.51 83.40 346.57 508.89 765.07 286.08 934.42 307.66 832.15 398.36 765.13 466.66 904.09 486.31
00001284 00000114 678.15 84.42 346.38 511.72 766.26 286.71 936.29 308.37 832.44 398.53 765.48 468.47 905.61 488.33
00001285 00000115 682.81 81.49 343.79 520.81 763.85 296.65 933.74 317.49 826.91 400.19 756.29 480.70 906.79 499.22
00001286 00000116 685.03 82.87 341.89 521.91 765.25 297.71 934.53 317.31 829.23 401.67 760.51 485.42 905.50 503.43
00001287 00000117 684.98 83.10 342.30 525.90 769.05 293.93 937.42 315.21 835.20 402.30 764.06 486.71 904.60 506.30
00001288 00000118 680.60 87.62 344.68 523.49 768.69 291.04 936.36 314.11 835.82 401.69 770.39 480.08 901.64 501.65
00001289 00000119 680.03 86.82 345.47 521.22 767.03 289.77 934.66 312.50 833.25 401.79 770.62 479.60 899.73 500.85
00001290 00000120 679.55 85.69 346.20 518.81 766.34 288.67 934.91 311.46 832.57 401.19 769.53 477.91 898.44 499.21
00001291 00000121 680.70 85.41 345.86 518.97 767.30 288.24 936.08 311.30 832.13 399.14 768.14 477.17 897.47 498.86
00001292 00000122 682.07 86.44 346.19 518.18 770.09 289.44 937.96 312.98 834.56 400.19 770.18 477.66 899.32 499.74
00001293 00000123 685.32 87.87 346.00 518.51 775.16 292.71 941.48 315.98 841.31 402.33 775.09 481.30 902.10 502.97
00001294 00000124 689.18 89.22 344.61 519.96 779.35 296.15 944.32 320.60 847.15 408.89 779.74 484.06 907.45 506.19
00001295 00000125 689.69 84.24 343.47 526.22 775.20 298.37 946.49 323.64 844.02 412.58 770.47 491.93 910.99 514.06
00001296 00000126 690.77 91.82 340.81 519.65 772.12 309.55 939.84 331.91 836.83 415.74 768.05 493.13 910.63 513.42
00001297 00000127 689.92 90.74 341.12 521.88 771.04 308.76 938.29 331.51 834.67 414.77 766.99 492.53 909.37 512.94
00001298 DELETE   690.51 86.86 340.65 526.46 773.41 304.27 940.16 326.87 837.37 409.62 768.21 491.13 906.93 511.78
00001299 00000129 689.36 91.33 341.90 520.34 779.26 299.41 940.29 324.64 841.59 403.97 775.68 483.37 900.31 506.56
00001300 00000130 688.83 87.19 342.61 519.87 777.27 295.59 942.18 316.92 844.03 402.11 779.71 484.17 903.04 504.07
00001301 00000131 687.20 85.38 344.20 520.60 777.05 294.54 942.61 314.82 846.22 402.14 781.63 483.86 905.01 502.81
00001302 00000132 685.79 86.30 344.96 520.85 775.77 293.62 941.82 313.97 847.35 404.17 782.42 484.92 906.12 503.94
00001303 00000133 684.14 88.59 344.32 518.97 774.68 294.69 940.40 314.88 848.13 408.91 783.79 485.62 909.48 504.17
00001304 00000134 682.24 87.46 344.51 520.18 772.42 296.01 939.90 314.24 846.60 410.51 783.07 485.79 912.40 502.56
00001305 00000135 679.31 86.86 344.44 515.57 768.54 295.87 937.38 313.42 840.86 407.83 779.02 480.48 912.34 496.53
00001306 00000136 677.47 83.86 343.11 510.53 765.15 292.12 935.79 308.28 837.53 401.93 774.93 474.65 911.23 489.63
00001307 00000137 678.07 76.85 342.27 510.81 765.34 285.74 932.35 303.51 838.80 391.81 763.64 474.02 902.97 488.86
00001308 00000138 674.68 75.77 344.12 507.27 762.31 281.47 931.87 301.09 832.54 391.04 764.83 462.48 900.75 480.77
00001309 00000139 674.87 74.82 345.05 509.35 762.84 280.21 932.13 300.44 832.47 390.09 764.57 462.54 899.49 481.41
00001310 00000140 676.03 78.60 344.94 507.98 765.10 284.54 933.05 304.14 833.91 393.42 768.61 467.26 900.00 485.59
00001311 00000141 678.16 84.58 344.47 509.13 767.54 288.58 935.40 309.31 836.05 398.26 770.72 471.22 903.41 490.33
00001312 00000142 679.99 86.36 343.08 509.65 769.71 289.99 936.97 310.70 838.32 399.26 772.88 473.06 904.86 492.17
00001313 00000143 679.53 82.83 344.26 510.10 769.84 286.06 936.04 307.67 838.71 395.14 772.34 470.91 899.27 490.99
00001314 00000144 677.42 79.13 343.89 503.94 768.32 281.18 929.80 304.01 836.63 392.79 773.84 468.34 887.37 489.36
00001315 00000145 674.41 74.91 343.77 508.56 766.78 278.35 926.40 300.71 835.14 389.00 770.53 465.63 883.24 486.32
00001316 00000146 671.94 71.20 344.91 511.67 765.33 274.26 925.27 297.66 833.73 385.20 766.13 462.29 880.82 484.11
00001317 00000147 671.25 71.17 344.95 514.68 763.48 274.30 924.20 298.69 830.65 384.19 761.90 462.26 879.01 485.02
00001318 00000148 671.34 74.62 346.55 512.90 763.32 277.80 926.33 303.32 829.76 389.25 761.00 465.43 880.96 489.19
00001319 00000149 675.15 81.27 346.88 517.75 761.91 282.80 927.37 306.04 827.22 393.89 753.42 476.97 886.56 497.68
00001320 00000150 673.43 84.11 347.00 519.52 758.84 287.42 925.81 310.92 822.90 396.56 749.49 480.34 888.02 501.25
00001321 00000151 676.51 88.68 341.48 517.48 758.88 293.97 923.15 315.51 818.81 395.69 748.06 478.99 892.14 498.94
00001322 00000152 676.04 89.78 340.76 516.56 758.09 298.07 920.09 318.49 816.51 393.04 746.08 474.67 893.27 493.92
00001323 00000153 672.04 81.71 343.01 517.50 758.69 289.25 925.23 312.90 819.21 390.16 755.73 466.69 892.03 488.45
00001324 00000154 673.98 80.21 340.67 510.61 760.18 286.70 925.47 309.86 821.25 389.69 759.42 463.97 892.88 485.29
00001325 00000155 673.93 78.30 341.68 508.84 762.54 285.71 928.65 308.07 827.04 389.16 764.77 464.71 895.63 485.25
00001326 00000156 676.36 83.66 342.79 501.46 766.77 287.68 934.78 309.47 834.14 391.40 771.44 467.69 901.32 487.57
00001327 00000157 680.50 88.14 341.36 502.21 771.41 294.67 937.77 313.23 841.71 396.12 777.18 472.81 907.77 489.90
00001328 00000158 682.94 87.56 343.61 508.13 778.32 297.19 941.53 311.24 856.64 400.73 775.34 479.86 910.23 494.10
00001329 00000159 687.89 85.67 342.69 517.64 776.18 296.85 950.26 318.51 851.42 409.10 773.23 488.28 919.03 507.67
00001330 00000160 690.84 90.17 343.96 515.13 780.40 296.23 956.01 319.67 856.38 410.59 776.98 490.74 919.74 511.75
00001331 DELETE   696.59 95.42 341.65 506.85 787.29 298.38 960.38 324.69 860.31 410.83 780.36 488.77 920.33 512.75
00001332 DELETE   704.22 98.67 337.74 501.91 791.53 306.96 961.80 330.17 863.34 407.25 784.86 487.84 924.82 510.55
00001333 00000163 699.02 95.76 343.77 511.93 797.41 300.79 960.62 325.92 870.66 409.16 783.11 482.99 922.20 506.33
00001334 00000164 703.59 92.98 341.74 517.35 803.10 295.64 967.02 323.77 874.15 407.05 783.24 479.86 927.12 505.76
00001335 00000165 707.97 93.17 338.83 517.88 806.85 292.91 970.63 323.03 876.60 406.77 784.30 477.84 929.63 505.45
00001336 00000166 710.07 92.92 344.50 523.59 813.25 298.65 971.66 335.25 879.78 406.08 792.26 473.75 923.93 505.97
00001337 00000167 706.04 95.44 346.58 519.98 811.04 301.65 966.67 330.91 882.69 407.95 790.93 481.49 928.20 506.12
00001338 00000168 705.10 94.59 349.71 521.79 811.30 305.37 967.28 334.10 886.14 414.57 792.54 488.36 927.64 512.56
00001339 00000169 711.03 100.58 347.51 519.34 812.24 307.87 973.43 340.67 882.25 419.31 796.20 487.31 925.42 516.30
00001340 00000170 705.71 100.59 352.33 522.48 812.61 314.46 971.08 342.59 890.03 428.10 792.45 497.49 933.74 521.74
00001341 DELETE   707.61 105.86 354.37 515.97 816.36 320.64 972.47 346.70 891.06 434.67 794.82 506.79 930.41 529.43
00001342 00000172 712.37 108.36 351.46 518.17 817.84 325.48 973.11 349.70 893.84 440.38 801.90 514.90 931.48 536.21
