Video ID: 	UCKn0a7f5Mw
H: 	1080
W: 	1920
FPS: 	25.0

FRAME INDEX X0 Y0 W H [Landmarks (5 Points)]

00008558 00000000 698.86 239.39 413.64 523.72 786.95 448.90 973.73 446.60 870.32 538.34 805.36 638.95 964.70 636.59
00008559 DELETE   696.04 237.65 410.67 524.57 781.46 449.00 965.69 448.55 863.22 540.95 797.11 638.80 954.79 637.85
00008560 00000002 695.18 235.56 407.89 523.88 775.82 446.48 959.54 446.42 854.27 539.61 788.03 636.30 946.24 635.65
00008561 00000003 692.84 232.27 408.57 523.47 775.26 448.82 957.72 451.12 849.61 536.01 783.05 631.78 941.36 632.85
00008562 00000004 693.59 227.65 405.73 526.49 773.30 437.90 956.91 442.88 846.62 534.45 779.57 627.71 937.77 631.02
00008563 00000005 694.94 230.61 406.35 525.15 776.06 434.73 959.81 441.96 849.00 535.40 780.55 628.84 937.24 634.05
00008564 00000006 696.18 236.79 408.07 524.37 778.90 437.11 962.86 445.29 851.11 537.20 782.46 632.12 938.91 638.41
00008565 00000007 697.33 238.51 407.36 526.33 781.06 440.13 965.14 449.13 853.25 540.96 783.95 634.44 941.98 641.58
00008566 00000008 697.91 238.74 407.78 526.16 781.98 439.93 966.06 448.77 855.02 541.48 784.93 635.21 942.84 642.17
00008567 00000009 698.95 232.95 408.99 526.65 781.96 437.43 966.69 444.95 856.31 537.57 786.81 632.56 945.70 638.23
00008568 DELETE   699.76 224.92 411.63 526.82 783.30 437.60 967.39 445.67 857.04 533.20 787.20 625.22 948.67 631.34
00008569 00000011 700.51 221.02 414.82 527.36 785.99 439.72 971.40 446.05 858.38 529.90 791.03 621.86 953.99 626.53
00008570 DELETE   702.93 218.08 417.19 528.47 790.49 431.19 978.85 434.66 866.09 525.34 799.19 618.49 963.33 620.76
00008571 00000013 706.82 216.57 416.54 525.07 798.10 422.65 989.84 424.83 879.66 522.69 809.95 614.63 975.21 615.39
00008572 00000014 712.78 212.94 416.28 524.67 808.49 418.35 999.64 420.11 893.30 515.04 819.85 609.42 987.21 609.58
00008573 00000015 718.86 214.28 413.90 519.49 817.17 415.05 1007.83 417.32 901.97 508.61 827.58 605.91 994.65 606.35
00008574 00000016 723.44 207.83 414.09 520.56 825.37 408.23 1018.19 412.02 911.29 503.68 833.25 599.30 1001.23 601.60
00008575 00000017 729.36 202.59 414.69 523.58 832.14 405.06 1026.65 412.82 919.39 495.81 845.01 590.63 1011.13 597.50
00008576 00000018 736.08 194.71 411.64 531.06 840.49 401.74 1032.96 404.74 929.02 487.31 856.08 589.90 1019.35 592.07
00008577 00000019 740.50 190.47 411.12 539.30 847.04 397.92 1037.05 400.17 936.07 482.17 864.47 592.44 1021.06 593.49
00008578 00000020 743.36 187.75 410.31 542.40 851.34 395.91 1041.68 398.58 942.87 482.56 867.77 592.92 1024.50 594.35
00008579 00000021 744.88 186.62 410.54 543.50 853.13 394.99 1045.23 397.42 945.18 481.62 869.22 593.01 1027.54 594.18
00008580 00000022 746.80 184.20 407.42 541.54 854.32 403.34 1043.63 405.81 944.53 483.88 868.08 592.36 1027.33 594.04
00008581 00000023 746.42 183.03 405.49 538.07 854.07 405.27 1043.12 409.59 943.62 483.37 865.90 589.85 1026.72 593.24
00008582 00000024 745.28 182.23 404.90 536.79 853.77 403.96 1041.44 409.74 943.04 481.52 863.39 586.44 1024.57 591.16
00008583 00000025 744.16 181.24 404.61 537.62 852.32 402.95 1040.26 409.00 941.86 479.83 861.99 585.40 1024.29 590.36
00008584 00000026 743.51 181.32 405.71 537.86 851.87 402.94 1039.20 409.23 940.67 478.87 861.25 585.31 1022.55 590.41
00008585 00000027 743.59 180.99 404.84 539.57 851.25 403.03 1038.26 409.17 939.54 479.02 860.45 585.90 1021.85 591.00
00008586 00000028 744.25 182.99 406.98 540.74 851.96 404.34 1039.68 411.95 939.13 481.78 860.58 587.88 1022.00 594.13
00008587 00000029 745.45 186.14 410.01 540.52 854.07 406.88 1042.51 414.40 940.96 485.72 863.70 591.34 1023.33 597.33
00008588 00000030 745.93 187.67 412.12 541.83 855.70 408.05 1044.34 415.92 942.24 487.91 865.05 592.66 1024.22 599.03
00008589 00000031 745.44 187.75 413.43 542.04 855.66 409.69 1043.86 417.13 941.76 489.39 865.91 593.82 1023.75 599.79
00008590 00000032 744.19 189.07 412.55 541.31 853.97 411.15 1041.55 418.64 939.78 490.50 864.53 593.94 1022.75 600.02
00008591 00000033 741.98 191.12 411.79 538.93 850.24 413.23 1038.77 420.35 936.79 492.74 861.48 594.07 1022.09 600.05
00008592 00000034 738.86 196.21 412.00 535.52 847.31 417.95 1036.82 425.07 934.42 499.06 858.61 596.03 1020.85 602.30
00008593 00000035 734.40 201.51 414.76 533.53 844.90 425.15 1034.36 431.50 931.52 508.22 857.15 601.27 1017.32 606.83
00008594 00000036 737.93 215.55 411.20 525.80 840.04 438.41 1028.86 434.56 931.42 520.05 853.59 616.35 1020.77 613.01
00008595 00000037 735.27 222.64 412.87 529.08 839.40 445.98 1028.60 444.58 932.55 532.10 853.22 626.36 1019.82 624.83
00008596 00000038 732.56 227.82 415.18 530.77 835.86 446.40 1030.86 447.76 930.95 540.45 848.26 632.93 1020.62 633.08
00008597 00000039 733.53 228.87 413.53 533.08 838.64 441.29 1035.09 446.61 934.63 542.71 849.17 634.41 1020.98 637.95
00008598 00000040 735.47 226.61 412.59 534.83 843.21 436.40 1040.38 441.71 941.62 539.99 853.74 633.62 1023.82 636.99
00008599 00000041 738.22 223.14 410.71 537.00 846.94 431.88 1043.17 435.78 946.86 535.24 859.18 630.66 1028.44 632.97
00008600 00000042 739.48 222.36 409.61 536.31 849.65 430.60 1045.15 434.17 951.23 534.33 862.08 629.29 1030.25 631.41
00008601 00000043 739.06 221.19 408.87 535.38 848.60 431.51 1046.05 434.47 951.48 535.61 860.82 628.92 1032.27 630.55
00008602 00000044 737.23 221.73 408.96 535.80 846.49 433.09 1043.61 434.67 950.27 535.89 859.88 629.98 1031.25 630.41
00008603 00000045 735.00 222.69 409.99 537.10 844.25 434.58 1042.02 435.44 949.23 537.56 857.82 631.70 1030.73 631.54
00008604 00000046 733.94 222.99 409.43 537.98 843.25 434.76 1040.60 435.59 948.54 538.64 857.94 633.68 1029.70 633.44
00008605 00000047 732.43 222.46 411.47 539.77 842.76 434.40 1041.11 435.34 948.89 537.29 856.29 632.45 1031.14 632.27
00008606 00000048 732.69 221.36 411.60 541.79 842.51 434.88 1041.45 433.65 949.46 536.37 856.91 632.60 1033.49 630.59
00008607 00000049 733.59 221.82 410.94 541.70 843.02 436.25 1041.58 433.66 950.99 538.76 858.60 633.99 1034.16 630.97
00008608 00000050 734.30 224.68 410.98 539.81 844.17 439.30 1041.89 434.92 953.11 540.80 861.08 634.96 1036.46 630.42
00008609 00000051 737.66 222.92 409.07 535.08 847.09 436.70 1045.41 430.63 957.12 538.02 865.33 631.39 1041.20 625.43
00008610 00000052 739.74 219.05 408.79 530.88 848.61 430.66 1047.91 425.00 958.14 530.22 866.42 625.73 1041.83 620.19
00008611 00000053 741.61 217.03 408.29 529.20 849.19 427.54 1048.37 419.45 958.87 524.77 869.33 621.61 1045.39 613.99
00008612 00000054 742.44 216.76 407.75 530.63 849.21 427.08 1048.80 418.14 959.03 524.20 870.26 622.93 1045.90 614.62
00008613 00000055 742.13 218.58 408.13 534.85 849.45 429.47 1049.43 420.76 959.62 527.15 871.04 628.74 1044.65 620.65
00008614 00000056 742.76 219.32 407.54 536.96 850.87 431.71 1049.95 423.09 961.51 529.84 872.98 632.04 1044.18 623.94
00008615 00000057 742.94 220.99 408.20 533.77 852.72 432.79 1049.86 424.57 963.97 532.50 874.59 630.80 1043.16 622.91
00008616 00000058 742.78 221.63 405.88 533.40 853.06 435.52 1047.42 426.84 963.96 535.96 874.42 629.55 1043.62 621.51
00008617 00000059 741.98 222.71 405.11 532.49 852.96 435.58 1046.93 426.84 964.36 536.62 873.84 629.19 1042.97 621.05
00008618 00000060 740.61 222.14 405.87 535.91 852.10 436.07 1046.35 428.15 963.42 537.86 872.05 630.90 1041.80 623.47
00008619 00000061 738.64 221.89 407.32 540.65 850.51 436.45 1044.16 430.56 961.08 538.78 868.30 631.74 1039.65 625.95
00008620 00000062 737.70 223.67 407.32 540.65 849.48 437.08 1043.18 431.21 959.62 539.82 868.19 634.12 1038.66 628.32
00008621 00000063 736.30 224.94 408.26 540.69 848.84 437.04 1042.78 430.63 959.95 540.03 868.31 635.51 1038.02 629.13
00008622 00000064 735.14 224.47 407.04 537.39 847.33 437.50 1042.50 429.84 959.20 538.93 867.43 634.46 1038.61 627.11
00008623 00000065 734.16 224.06 407.41 536.09 846.04 436.24 1040.82 427.66 957.89 537.50 867.02 633.32 1037.06 625.15
00008624 00000066 732.19 223.75 407.91 536.06 844.86 436.72 1039.47 428.14 957.15 537.65 865.70 632.97 1036.03 624.77
00008625 00000067 730.29 224.44 409.12 536.20 843.31 437.04 1037.47 428.73 955.23 537.51 864.34 633.40 1033.69 625.31
00008626 00000068 728.14 225.88 409.51 539.26 842.49 438.15 1035.62 431.78 953.79 538.68 862.31 634.69 1030.98 628.24
00008627 00000069 726.20 227.38 409.50 541.33 841.88 439.28 1033.33 433.81 952.33 538.80 861.77 635.89 1028.29 630.11
00008628 00000070 725.48 227.68 408.24 542.58 841.53 438.52 1032.90 434.28 951.51 539.28 860.14 636.57 1026.11 631.91
00008629 00000071 725.14 228.24 407.54 541.70 841.50 438.30 1032.02 433.95 951.00 537.86 860.24 636.61 1024.74 631.89
00008630 00000072 724.83 227.90 407.53 542.97 841.52 439.07 1031.45 434.09 951.38 538.23 860.82 637.24 1024.88 632.02
00008631 00000073 724.65 228.80 407.48 542.24 841.74 439.87 1031.34 435.18 951.85 538.64 860.66 637.11 1025.19 632.16
00008632 00000074 724.59 229.94 407.57 541.03 841.95 440.15 1032.19 435.87 952.17 538.97 860.04 637.08 1025.39 632.49
00008633 00000075 724.62 230.16 407.45 540.13 841.94 439.89 1032.56 435.85 952.57 539.15 859.78 636.96 1025.17 632.58
00008634 00000076 723.89 230.62 408.48 539.62 841.89 440.56 1032.54 436.76 952.94 539.78 858.98 636.38 1025.22 632.24
00008635 00000077 723.54 231.98 409.21 536.72 841.41 440.58 1033.38 437.29 953.11 540.59 857.98 635.53 1025.91 631.71
00008636 00000078 723.05 232.02 409.88 535.99 840.66 440.04 1033.64 437.85 952.13 540.48 855.64 634.01 1025.99 631.19
00008637 00000079 722.32 232.21 411.69 535.04 838.63 441.17 1033.01 439.07 948.60 539.98 854.05 634.51 1026.05 631.69
00008638 00000080 720.96 232.58 411.85 534.05 834.61 441.73 1028.99 439.62 942.35 539.16 851.15 635.63 1022.52 632.76
00008639 00000081 716.70 236.39 413.00 537.43 828.49 446.84 1021.00 441.55 935.21 541.41 848.28 640.87 1017.62 635.32
00008640 DELETE   715.14 238.29 413.88 538.22 826.97 456.36 1014.09 450.69 930.01 544.54 846.73 643.47 1011.13 638.32
00008641 DELETE   708.99 241.09 417.39 534.10 816.54 457.49 1002.30 447.64 916.69 542.01 843.80 647.13 1001.51 638.15
00008642 00000084 698.90 237.84 418.94 531.36 800.14 451.37 990.94 440.70 900.48 542.47 831.24 646.60 991.64 636.56
00008643 00000085 693.83 236.16 415.93 526.94 793.38 447.76 982.48 434.72 892.81 540.75 828.45 643.85 985.27 631.72
00008644 00000086 686.79 236.09 418.09 525.15 783.48 446.48 969.90 426.32 881.29 534.81 824.10 642.20 976.44 624.35
00008645 00000087 684.37 234.10 416.71 526.02 774.48 445.61 961.80 419.20 872.81 532.72 821.73 643.69 972.49 620.78
00008646 00000088 681.74 232.47 417.98 526.89 771.26 444.83 957.71 415.10 870.39 531.02 822.76 642.51 970.63 616.72
00008647 00000089 674.01 230.07 427.31 527.69 767.64 441.78 955.53 411.25 864.05 534.97 826.91 635.41 979.62 609.24
00008648 DELETE   674.43 229.80 427.45 526.60 768.68 448.71 958.77 416.61 867.22 535.65 826.43 636.38 983.02 609.00
00008649 00000091 676.57 229.27 422.81 528.83 770.87 460.92 958.25 424.05 869.15 536.64 827.43 640.01 983.29 609.21
00008650 00000092 674.91 232.52 426.88 529.82 766.84 453.86 958.18 419.68 865.83 540.81 825.55 642.60 982.82 613.82
00008651 00000093 680.09 236.93 422.15 527.75 768.86 450.18 959.74 419.83 869.75 540.57 821.51 650.47 972.96 624.59
00008652 00000094 680.51 237.38 420.41 526.77 769.80 448.57 959.24 418.87 869.75 539.50 822.06 650.01 970.63 624.60
00008653 00000095 683.23 234.01 417.09 524.89 771.94 444.55 961.80 416.17 871.15 532.88 821.03 643.90 971.74 618.89
00008654 00000096 685.24 230.30 417.84 526.97 777.77 442.03 968.61 417.39 875.14 527.67 819.98 636.98 976.86 615.21
00008655 DELETE   690.04 224.25 416.63 529.54 787.58 447.51 981.80 428.91 885.27 529.46 823.74 626.15 991.08 610.21
00008656 DELETE   700.18 225.29 418.13 528.29 801.33 442.34 989.60 427.30 900.65 528.98 837.69 634.59 995.31 619.90
00008657 00000099 709.26 225.46 417.06 531.19 809.62 438.97 1002.63 424.93 911.62 532.98 844.27 639.60 1005.00 625.35
00008658 00000100 714.81 232.95 415.70 528.14 821.91 443.38 1014.48 431.38 928.53 541.75 851.11 639.58 1016.06 627.80
00008659 00000101 720.57 231.69 413.80 534.46 829.07 444.61 1022.42 433.86 935.97 541.97 857.13 641.82 1022.24 630.98
00008660 00000102 725.00 226.85 413.56 538.77 833.43 441.20 1025.79 428.50 941.34 538.39 863.62 642.06 1024.12 629.51
00008661 00000103 727.02 220.93 412.94 538.95 834.58 433.97 1026.28 417.49 944.10 529.60 868.31 636.79 1024.04 620.99
00008662 00000104 726.58 216.83 412.39 539.57 832.50 430.78 1024.48 411.78 941.98 523.25 868.20 633.05 1024.53 614.86
00008663 00000105 723.21 218.90 412.40 534.04 829.99 432.44 1020.02 411.10 939.80 521.43 868.90 632.07 1023.39 611.62
00008664 00000106 716.79 220.93 415.84 532.73 826.10 436.24 1014.84 413.58 936.14 522.32 866.79 633.41 1021.78 611.46
00008665 00000107 712.11 226.35 417.61 531.01 821.68 442.55 1008.35 417.29 931.47 522.71 866.10 637.39 1020.09 613.14
00008666 00000108 708.07 227.93 419.30 533.86 816.97 446.00 1002.04 418.90 926.92 524.09 865.05 640.80 1016.50 615.25
00008667 00000109 705.93 228.90 420.51 532.84 814.90 445.69 998.09 418.13 923.58 523.16 865.33 641.18 1012.11 615.25
00008668 00000110 707.01 225.86 419.89 533.75 815.21 442.83 998.45 415.06 924.05 521.06 866.77 640.13 1011.33 613.88
00008669 00000111 710.36 226.00 418.62 530.70 818.20 440.51 1003.28 412.60 927.99 518.93 867.33 637.04 1015.70 610.48
00008670 00000112 714.90 223.68 417.02 529.19 823.59 438.75 1010.58 412.57 933.92 520.25 869.58 634.62 1020.67 609.65
00008671 00000113 719.94 224.73 414.55 528.26 829.68 438.96 1018.06 415.48 941.57 525.00 869.77 632.96 1027.60 610.89
00008672 00000114 724.10 225.28 413.39 530.54 834.28 444.37 1023.91 424.01 946.69 529.40 867.85 633.62 1031.62 614.61
00008673 00000115 727.55 228.44 412.97 529.19 837.92 452.49 1025.23 434.80 947.39 535.28 869.43 635.99 1031.74 619.40
00008674 00000116 729.42 223.63 412.46 533.52 839.99 449.41 1028.10 432.82 948.80 533.15 870.43 634.95 1032.03 619.23
00008675 00000117 733.36 216.68 407.72 532.35 841.60 442.86 1031.66 426.13 950.34 528.91 871.47 629.92 1034.69 614.54
00008676 00000118 734.64 215.06 406.84 530.85 842.22 441.41 1033.36 423.41 951.43 526.56 871.57 625.49 1040.06 609.37
00008677 00000119 733.35 215.30 407.62 534.04 841.00 444.18 1031.17 423.78 951.43 529.59 871.36 627.26 1040.69 609.22
00008678 00000120 728.35 223.29 411.40 536.16 837.29 449.67 1027.90 427.79 950.21 537.38 868.54 634.43 1040.27 614.73
00008679 00000121 724.29 230.82 413.92 537.33 834.45 452.60 1024.64 429.99 949.18 545.31 869.26 641.10 1039.44 620.64
00008680 00000122 722.07 236.23 414.36 537.76 834.11 456.64 1023.49 435.47 949.04 549.91 867.97 644.15 1038.15 625.16
00008681 00000123 721.40 237.68 414.23 536.81 833.47 457.75 1023.21 436.29 948.73 550.60 868.77 646.23 1038.21 626.91
00008682 00000124 721.18 237.80 414.86 536.44 834.24 457.41 1024.20 435.90 950.24 549.93 869.45 646.03 1038.95 626.65
00008683 00000125 722.28 235.69 414.18 536.16 835.56 454.71 1026.09 432.55 953.17 548.17 870.72 644.51 1040.15 624.62
00008684 00000126 724.31 233.55 413.01 536.88 836.95 452.64 1027.89 429.81 955.06 546.85 872.48 644.17 1041.25 623.72
00008685 00000127 726.10 233.67 412.27 536.57 838.85 452.55 1029.97 428.90 957.60 546.46 873.63 644.26 1042.83 623.38
00008686 00000128 727.09 233.24 412.73 536.32 840.27 451.64 1031.56 427.14 959.87 545.10 875.96 644.32 1044.53 622.54
00008687 00000129 728.66 233.35 413.16 534.68 842.89 450.99 1033.04 426.30 962.33 542.22 879.23 643.42 1045.74 621.31
00008688 00000130 730.41 232.66 413.29 533.34 844.30 449.90 1035.57 424.44 964.99 541.34 881.88 643.37 1047.93 620.45
00008689 00000131 731.63 229.82 413.48 535.48 845.77 448.08 1037.78 423.06 966.97 539.61 882.99 642.90 1048.80 620.21
00008690 00000132 733.70 228.18 411.56 535.53 846.74 446.90 1038.59 421.35 967.73 538.16 884.30 642.33 1049.31 619.26
00008691 00000133 733.00 227.95 411.47 535.08 844.64 447.69 1036.72 424.01 963.28 537.77 881.79 642.73 1046.28 621.13
CROP_BBOX: 470 0 1361 913
