Video ID: 	iZL66TekMsk
H: 	1080
W: 	1920
FPS: 	25.0

FRAME INDEX X0 Y0 W H [Landmarks (5 Points)]

00001508 00000000 903.28 166.50 381.41 510.07 949.67 401.66 1108.41 398.11 1012.66 525.49 1007.00 573.27 1133.52 567.85
00001509 00000001 904.68 165.81 376.48 509.44 946.87 398.99 1099.53 391.72 1007.56 520.57 1008.70 574.43 1130.41 565.73
00001510 00000002 904.58 155.39 379.66 521.20 947.52 397.67 1096.88 387.41 1005.62 513.12 1007.74 571.59 1127.72 560.63
00001511 00000003 906.15 154.09 380.39 522.51 949.59 391.17 1097.17 380.95 1005.00 504.26 1005.53 561.75 1127.92 551.06
00001512 DELETE   906.34 137.42 379.04 541.08 950.59 380.85 1095.57 374.66 996.87 490.67 1004.42 552.84 1128.46 545.16
00001513 DELETE   906.29 122.46 381.05 553.38 954.52 370.74 1096.56 364.59 996.65 471.97 1005.04 544.08 1125.61 536.46
00001514 DELETE   907.46 117.87 378.55 552.78 957.66 356.28 1094.90 348.70 994.27 458.59 1011.73 538.84 1125.15 530.10
00001515 00000007 911.03 107.00 380.00 554.28 957.27 346.05 1097.91 339.99 991.46 453.83 1000.72 531.43 1121.84 524.75
00001516 00000008 913.99 103.97 380.74 548.09 959.20 337.99 1105.36 331.52 995.21 446.59 997.38 523.97 1124.80 517.47
00001517 00000009 916.69 97.16 382.03 555.26 960.51 335.67 1107.64 327.11 996.10 439.98 997.64 524.09 1121.52 516.24
00001518 00000010 918.28 88.98 383.88 568.55 962.33 330.95 1111.43 318.74 997.68 429.78 1002.41 526.94 1121.80 516.23
00001519 00000011 920.30 83.78 384.43 571.31 964.38 324.43 1113.40 306.84 994.34 425.49 1006.04 534.45 1124.64 519.75
00001520 00000012 923.99 86.12 384.09 566.51 966.20 321.55 1113.29 306.87 991.04 424.57 1005.47 532.40 1122.66 519.84
00001521 00000013 927.14 84.14 383.61 566.81 968.01 320.90 1116.92 306.91 991.86 423.69 1005.59 531.52 1124.57 519.54
00001522 00000014 931.70 84.56 387.42 567.29 972.19 320.91 1122.63 305.62 995.77 422.27 1006.53 532.31 1128.17 519.22
00001523 00000015 936.72 82.99 386.70 568.66 976.91 317.96 1125.93 302.84 998.38 420.31 1008.75 530.67 1130.05 517.84
00001524 00000016 939.66 83.97 386.43 565.18 979.19 316.78 1129.06 301.00 1000.66 419.68 1011.47 529.22 1134.28 515.88
00001525 00000017 942.86 83.04 384.65 564.67 982.38 314.28 1131.57 299.02 1003.45 417.85 1013.12 525.11 1137.74 512.14
00001526 00000018 942.19 88.92 379.98 555.47 985.57 314.50 1131.50 310.76 1011.54 415.22 1010.22 513.47 1136.27 510.52
00001527 00000019 945.60 90.33 380.86 556.03 989.45 315.18 1134.96 310.75 1014.65 413.55 1012.66 513.48 1138.83 510.02
00001528 00000020 948.09 87.90 382.60 557.11 990.90 314.31 1138.45 309.59 1015.97 411.90 1012.29 511.68 1140.00 508.11
00001529 00000021 950.25 87.36 381.45 554.74 993.46 312.84 1141.83 310.14 1019.30 411.72 1013.40 508.86 1140.02 507.21
00001530 00000022 952.56 84.39 381.53 556.12 995.33 309.84 1144.21 307.65 1020.57 409.20 1013.00 506.89 1141.13 505.91
00001531 00000023 954.31 83.82 381.84 555.51 996.71 309.12 1146.14 304.52 1022.79 406.96 1014.36 505.63 1144.06 502.92
00001532 00000024 955.65 81.27 383.93 559.28 998.90 306.96 1149.61 301.94 1026.70 404.44 1017.28 503.30 1148.80 500.24
00001533 00000025 956.72 83.47 383.08 558.17 1001.17 305.88 1151.89 300.92 1030.46 402.93 1020.28 502.86 1152.10 499.94
00001534 00000026 958.21 80.37 384.34 561.65 1002.77 305.99 1153.25 298.96 1031.88 401.87 1023.66 502.08 1156.15 497.33
00001535 00000027 968.03 67.41 381.54 580.39 1012.35 302.93 1158.00 297.13 1040.73 395.21 1040.46 504.21 1158.32 497.73
00001536 00000028 974.08 67.38 382.99 568.63 1012.88 303.12 1161.78 297.16 1041.23 394.01 1037.51 497.06 1159.89 491.04
00001537 00000029 981.26 62.16 378.66 560.34 1020.00 300.83 1169.24 296.61 1049.24 392.53 1041.10 491.00 1163.90 486.53
00001538 00000030 991.81 57.85 371.00 556.23 1027.78 295.66 1175.57 292.19 1057.76 386.48 1048.12 485.87 1165.72 482.02
00001539 00000031 995.15 56.26 370.06 547.82 1031.55 287.87 1180.09 284.37 1061.63 382.85 1053.26 480.59 1173.28 476.57
00001540 00000032 997.99 52.31 368.70 543.63 1036.33 281.60 1184.43 282.00 1066.70 381.47 1053.07 474.16 1174.09 473.68
00001541 00000033 1001.31 51.40 367.98 543.35 1039.53 277.93 1190.12 278.55 1071.22 382.46 1054.90 471.92 1180.64 471.98
00001542 00000034 1003.81 53.78 368.71 549.81 1042.91 275.28 1192.51 275.63 1071.52 382.32 1060.52 472.59 1186.22 472.52
00001543 00000035 1006.04 52.50 369.37 552.34 1044.77 274.00 1195.26 274.02 1073.58 381.79 1064.63 474.66 1187.75 474.37
00001544 00000036 1007.63 52.39 366.57 545.81 1047.37 273.72 1197.36 276.33 1075.34 382.84 1063.30 470.08 1189.59 471.93
00001545 00000037 1008.70 52.32 364.91 542.52 1047.74 275.69 1199.07 277.34 1076.99 383.10 1062.70 470.88 1191.03 471.89
00001546 00000038 1010.08 55.69 366.08 545.82 1049.35 276.28 1200.79 277.90 1078.47 385.09 1065.57 473.62 1193.06 474.53
00001547 00000039 1012.95 60.10 367.99 566.33 1051.45 280.09 1202.93 278.69 1075.57 384.09 1071.39 483.55 1195.98 482.42
00001548 00000040 1013.47 62.38 370.24 562.39 1050.07 282.60 1201.19 282.54 1075.42 387.60 1072.16 481.91 1196.71 481.78
00001549 00000041 1012.33 62.65 372.38 558.29 1048.35 283.12 1199.25 284.95 1073.25 389.86 1067.39 478.71 1194.70 480.09
00001550 00000042 1012.12 63.07 370.66 555.33 1047.91 286.09 1198.82 288.35 1073.08 389.33 1064.59 478.22 1192.22 479.85
00001551 00000043 1010.73 62.44 368.29 553.74 1047.51 289.09 1197.81 290.07 1074.84 388.59 1064.59 479.40 1190.89 479.83
00001552 00000044 1008.14 61.76 369.42 553.94 1044.79 293.22 1196.60 291.98 1075.52 391.21 1061.69 484.56 1189.25 483.12
00001553 00000045 1003.13 61.51 372.12 558.33 1039.21 296.35 1192.44 295.23 1072.13 398.62 1055.63 487.94 1185.93 486.71
00001554 00000046 1000.66 66.28 376.54 562.27 1037.01 300.92 1187.67 296.62 1067.92 399.31 1055.72 492.20 1183.96 488.61
00001555 00000047 999.37 72.93 380.59 562.10 1033.34 306.82 1180.83 300.98 1060.36 403.60 1057.04 501.97 1177.81 496.74
00001556 00000048 994.98 75.32 380.70 563.66 1028.73 310.19 1177.60 303.76 1056.82 407.01 1054.59 505.41 1175.92 499.53
00001557 00000049 990.05 77.88 382.48 566.38 1025.17 313.42 1173.44 306.29 1052.05 409.62 1051.81 507.30 1176.64 500.79
00001558 00000050 985.10 77.27 382.37 573.90 1021.52 311.17 1170.06 302.59 1047.18 409.26 1049.38 509.60 1174.62 502.01
00001559 00000051 969.19 72.89 390.50 576.50 1012.79 308.66 1171.57 296.89 1048.36 413.23 1045.32 516.43 1174.43 507.60
00001560 00000052 966.35 74.15 391.75 575.72 1008.55 309.20 1169.63 298.82 1044.85 415.25 1040.17 517.03 1169.86 509.48
00001561 00000053 964.44 78.26 391.83 573.91 1004.59 310.47 1168.15 300.31 1042.72 418.25 1038.38 519.53 1168.78 512.27
00001562 00000054 962.68 79.16 391.58 576.84 1001.85 313.25 1166.15 301.62 1039.25 420.29 1037.23 523.66 1168.34 515.20
00001563 00000055 960.87 83.50 388.24 573.19 998.73 314.48 1164.67 305.61 1037.14 424.45 1034.85 526.21 1165.81 520.06
00001564 00000056 960.73 95.98 381.75 555.73 1006.47 323.19 1156.75 315.00 1037.56 423.16 1032.17 516.68 1165.72 510.00
00001565 00000057 958.94 100.25 381.36 550.35 1005.36 325.32 1154.55 319.40 1035.95 424.54 1029.41 515.57 1162.82 510.78
00001566 00000058 958.49 100.90 378.56 545.53 1004.50 324.64 1152.66 319.62 1033.85 423.30 1026.88 513.14 1159.31 509.24
00001567 00000059 959.07 100.61 376.81 541.79 1003.97 322.38 1150.84 318.82 1031.96 422.40 1024.73 510.53 1155.50 508.01
00001568 00000060 957.64 99.02 375.60 542.64 1001.42 321.41 1147.59 316.04 1029.27 419.36 1022.39 509.96 1152.99 505.96
00001569 00000061 954.39 99.06 376.45 541.80 999.29 319.83 1143.66 313.77 1026.37 415.22 1018.97 508.07 1148.58 503.44
00001570 00000062 952.36 99.48 375.19 537.34 997.25 318.34 1140.89 312.46 1025.04 412.43 1017.16 506.44 1144.09 502.26
00001571 00000063 950.13 100.03 373.59 534.96 995.34 316.67 1136.46 311.69 1023.36 412.89 1016.88 505.04 1139.55 501.65
00001572 00000064 944.84 100.06 377.37 534.56 990.95 316.12 1132.43 312.57 1018.59 413.64 1014.31 505.50 1135.09 503.05
00001573 00000065 940.19 99.10 377.71 539.99 985.94 315.78 1126.84 310.62 1012.05 414.17 1010.50 508.65 1131.34 504.80
00001574 DELETE   935.48 89.52 383.61 557.23 979.17 318.08 1124.95 302.54 1001.98 416.76 1009.75 522.08 1133.68 508.70
00001575 00000067 934.04 93.60 380.88 553.32 975.47 320.56 1124.28 307.26 999.50 421.90 1006.45 525.96 1130.97 514.49
00001576 00000068 930.98 94.15 382.48 559.45 973.92 321.89 1126.47 311.04 1008.46 424.70 1006.13 523.18 1132.71 514.36
00001577 00000069 933.46 93.00 383.13 565.15 976.30 321.77 1128.99 312.74 1010.17 426.48 1007.01 524.76 1134.13 517.67
00001578 00000070 934.21 93.81 384.55 562.31 976.86 321.84 1130.19 313.04 1011.47 428.64 1007.76 524.95 1136.56 518.02
00001579 00000071 935.84 90.98 384.85 567.78 978.22 320.42 1133.04 311.91 1013.13 427.66 1008.91 524.52 1138.95 517.92
00001580 00000072 936.57 97.56 385.39 561.36 983.50 321.93 1128.64 315.31 1008.54 426.05 1011.39 522.96 1141.60 516.72
00001581 00000073 940.61 98.75 380.28 557.59 988.24 319.35 1131.45 315.61 1012.49 424.44 1013.46 519.64 1142.66 516.16
00001582 00000074 942.10 97.31 381.21 556.54 990.39 319.98 1134.53 318.30 1015.16 424.48 1012.84 517.97 1142.64 516.24
00001583 00000075 940.51 90.76 385.20 563.42 982.65 320.34 1139.93 315.75 1016.04 429.58 1008.28 522.02 1144.25 518.71
00001584 00000076 939.75 95.44 385.15 559.73 981.94 322.25 1137.03 319.00 1013.25 431.73 1006.46 523.22 1139.99 520.92
00001585 00000077 937.42 96.34 385.84 560.74 979.56 324.33 1132.72 321.19 1010.41 435.61 1005.87 525.80 1137.83 523.39
00001586 00000078 936.14 98.29 388.54 558.74 975.65 328.54 1128.24 324.01 1004.18 439.56 1000.93 527.62 1133.66 524.25
00001587 00000079 933.65 100.72 388.78 554.05 973.01 332.36 1123.49 325.64 1002.41 441.59 999.28 530.63 1129.89 525.40
00001588 00000080 930.50 101.76 388.85 560.35 971.06 333.55 1121.06 326.30 1002.55 441.59 1001.58 535.56 1125.53 529.73
00001589 00000081 929.49 108.18 388.17 559.98 968.95 333.94 1119.43 328.03 999.38 443.04 999.83 538.38 1124.48 533.49
00001590 00000082 925.80 110.63 387.11 555.48 967.04 334.65 1116.81 330.69 996.61 444.36 995.70 538.11 1121.19 534.64
00001591 00000083 923.46 114.77 386.48 549.57 964.98 335.96 1113.85 332.19 993.92 444.40 991.28 537.83 1116.13 534.43
00001592 00000084 922.66 114.41 384.73 552.99 963.88 338.81 1112.58 335.95 991.36 444.61 988.95 539.03 1114.01 536.22
00001593 00000085 920.62 113.59 384.39 555.30 961.46 342.95 1109.96 339.31 990.28 446.60 988.47 540.29 1114.68 536.69
00001594 00000086 919.79 115.11 384.94 555.16 960.83 343.38 1109.85 340.15 990.21 448.23 989.55 540.40 1116.58 537.04
00001595 00000087 919.59 114.63 383.52 558.13 960.44 347.16 1107.89 343.59 988.32 449.24 990.24 541.40 1116.09 537.61
00001596 00000088 917.93 118.58 382.28 558.91 960.18 349.95 1105.68 344.86 986.37 449.49 991.15 542.83 1114.52 537.68
00001597 00000089 915.98 121.94 382.57 560.87 959.51 351.12 1103.69 346.64 985.34 450.91 992.22 544.70 1113.45 539.75
00001598 00000090 915.02 124.93 382.32 560.81 958.90 353.96 1102.64 349.97 983.65 453.21 991.90 547.62 1111.17 542.97
00001599 00000091 914.55 127.09 382.08 563.13 959.10 355.52 1101.96 351.63 983.08 454.82 991.69 549.81 1110.05 545.30
00001600 00000092 914.24 129.09 383.03 564.47 958.46 356.20 1103.64 353.61 984.08 458.10 990.64 551.98 1110.48 548.55
00001601 00000093 916.37 129.33 385.83 566.16 956.87 359.44 1104.49 354.40 983.72 461.93 990.09 556.62 1112.01 551.48
00001602 00000094 918.12 129.57 386.15 560.88 955.45 362.27 1104.28 354.77 985.50 465.92 992.73 558.51 1114.80 551.49
00001603 00000095 919.77 126.88 382.71 554.09 956.25 361.39 1105.55 353.83 987.70 464.33 994.06 555.90 1116.97 548.76
00001604 00000096 924.94 124.93 374.12 548.97 962.58 358.29 1109.34 351.84 993.63 458.31 998.02 551.13 1116.37 544.78
00001605 00000097 930.56 126.99 374.44 543.79 967.22 350.99 1116.45 348.07 998.22 459.11 999.49 546.51 1120.68 543.25
00001606 00000098 934.43 123.17 374.83 549.48 970.92 347.11 1122.33 344.51 1002.94 457.46 1002.50 547.27 1124.03 544.61
00001607 00000099 936.38 122.81 374.49 547.57 971.88 347.82 1123.02 346.88 1004.08 458.40 1001.12 546.79 1122.97 545.55
00001608 00000100 934.30 126.64 372.24 543.95 970.08 349.71 1122.88 349.22 1003.05 460.18 997.18 547.49 1122.58 546.44
00001609 00000101 933.98 130.51 369.85 543.63 969.40 354.17 1120.23 354.24 1001.53 463.77 996.28 550.30 1120.44 549.58
00001610 00000102 929.32 134.35 374.03 552.49 965.36 360.78 1116.16 356.58 997.11 464.29 996.99 555.11 1120.43 550.91
00001611 00000103 927.93 136.40 374.34 563.07 965.57 364.61 1113.60 356.28 993.24 462.75 998.74 559.94 1123.09 552.36
00001612 00000104 924.93 136.13 374.68 558.23 963.46 366.11 1113.86 358.88 993.77 466.13 993.94 558.13 1123.81 551.31
00001613 00000105 921.95 138.84 376.75 551.99 960.34 368.95 1111.41 362.16 993.85 471.48 989.22 559.67 1120.11 553.33
00001614 00000106 920.02 144.66 378.14 546.79 958.14 374.19 1109.74 366.97 993.33 476.70 987.17 561.89 1118.40 555.26
00001615 00000107 919.12 145.59 379.97 547.50 957.34 377.56 1107.69 369.75 992.14 480.53 986.69 563.81 1118.41 556.72
00001616 00000108 919.03 145.06 380.02 549.08 956.25 379.62 1106.54 371.08 991.25 482.75 985.23 564.95 1118.07 557.30
00001617 00000109 917.03 146.08 382.09 551.70 955.70 382.02 1104.49 371.45 989.17 483.74 986.31 566.91 1117.75 557.58
00001618 00000110 915.48 149.76 385.82 554.27 954.80 385.33 1102.84 373.57 987.05 486.31 985.91 570.23 1117.98 559.92
00001619 00000111 916.35 149.96 386.49 557.86 955.86 385.20 1102.38 372.40 985.44 484.46 988.89 571.36 1119.50 560.15
00001620 00000112 916.29 149.70 387.26 558.12 955.91 384.87 1102.95 372.35 985.90 484.66 989.12 572.33 1119.68 561.42
00001621 00000113 914.81 149.01 387.92 559.72 954.58 384.74 1101.88 372.14 984.53 484.90 987.65 571.85 1119.04 560.77
00001622 00000114 912.06 148.02 389.64 562.48 952.35 382.45 1100.58 371.97 982.07 485.38 985.49 572.24 1116.87 562.75
00001623 00000115 910.16 146.84 390.64 565.11 951.13 381.97 1098.91 372.76 979.88 485.14 984.66 572.55 1114.95 563.94
00001624 00000116 908.80 147.22 387.33 564.62 948.77 382.73 1095.88 372.94 976.89 485.45 984.29 572.69 1113.81 563.28
00001625 00000117 897.61 147.22 392.02 562.82 939.46 375.35 1095.22 363.78 977.47 488.22 981.52 579.23 1113.24 570.05
00001626 00000118 893.39 151.36 394.40 560.41 934.34 381.05 1091.57 367.58 973.22 491.97 978.49 583.06 1109.75 572.50
00001627 00000119 890.07 155.19 393.85 559.62 929.46 383.53 1090.66 371.20 969.96 496.72 974.08 586.91 1105.35 577.57
00001628 00000120 889.64 156.59 390.87 560.33 924.94 384.97 1086.75 373.52 962.68 499.90 971.07 590.03 1101.33 581.41
00001629 00000121 886.67 154.70 391.65 565.67 921.39 387.35 1082.12 376.85 955.53 503.15 967.11 593.02 1094.02 584.95
00001630 00000122 890.70 164.86 383.66 552.51 932.36 394.64 1076.28 389.52 958.91 501.17 964.79 586.16 1092.38 580.76
00001631 00000123 890.87 163.99 384.42 551.73 934.79 395.06 1081.69 390.99 965.25 503.13 968.03 586.76 1096.63 582.28
00001632 00000124 888.84 154.53 392.04 561.52 931.70 394.30 1090.13 376.42 974.43 500.12 979.70 592.25 1104.71 577.99
00001633 00000125 890.28 148.07 400.13 569.40 940.84 391.36 1099.58 373.94 986.30 495.34 984.41 585.72 1115.45 571.49
00001634 00000126 910.55 152.21 384.56 565.41 951.75 398.17 1101.34 380.46 988.80 493.99 993.33 579.47 1125.45 564.11
00001635 00000127 911.65 154.68 384.06 556.21 954.40 397.52 1105.67 381.42 995.01 496.08 995.01 575.91 1128.70 561.89
00001636 00000128 911.20 154.96 383.48 554.20 953.86 397.87 1102.90 382.13 993.52 495.27 993.87 575.99 1124.65 562.14
00001637 00000129 905.92 151.51 387.09 559.49 948.29 395.43 1093.85 380.70 983.18 493.73 988.27 574.60 1119.15 561.26
00001638 00000130 895.63 151.40 388.12 560.89 940.77 393.27 1086.00 378.08 974.68 487.34 980.74 573.50 1112.08 559.26
00001639 00000131 885.06 159.15 383.49 551.01 928.77 393.25 1072.57 377.62 960.38 489.34 965.92 575.23 1099.19 561.07
00001640 00000132 882.38 163.46 382.61 542.68 921.88 398.46 1061.46 378.84 946.79 489.12 959.75 578.53 1087.95 561.34
00001641 DELETE   883.29 161.84 381.53 544.78 924.12 394.42 1063.39 376.12 951.08 487.98 963.22 576.07 1091.48 560.05
00001642 DELETE   889.88 152.48 382.31 552.54 935.14 385.93 1077.47 370.60 967.43 481.03 981.45 571.33 1103.68 555.82
00001643 00000135 901.48 144.37 382.39 554.40 942.84 386.32 1087.86 367.91 979.07 478.38 985.21 565.90 1114.48 548.85
00001644 00000136 908.95 138.22 379.77 558.24 950.32 379.39 1095.93 363.24 985.27 476.48 994.26 561.64 1121.82 546.86
00001645 00000137 910.73 137.28 380.48 557.50 952.77 372.65 1096.78 356.70 984.38 471.08 998.13 559.73 1122.06 545.24
00001646 00000138 909.36 140.16 380.20 546.27 949.37 369.80 1094.62 356.67 980.48 470.44 992.39 556.51 1117.20 544.07
00001647 00000139 902.71 138.20 383.27 547.65 944.70 367.73 1091.30 356.26 975.95 466.04 984.53 555.33 1109.49 544.07
00001648 00000140 898.47 134.95 384.05 552.82 941.50 365.07 1087.09 354.81 969.88 461.85 980.23 554.36 1103.76 543.91
00001649 00000141 893.87 134.00 383.18 547.57 936.44 360.59 1082.48 353.92 966.25 462.42 975.06 550.51 1098.60 542.65
00001650 00000142 891.03 133.16 384.02 538.96 932.30 358.61 1077.58 350.10 962.27 459.48 972.26 548.51 1092.72 539.37
00001651 00000143 890.71 130.61 383.71 539.75 931.99 357.42 1077.58 348.06 961.58 456.20 970.54 547.60 1090.06 537.83
00001652 00000144 884.68 135.40 385.09 531.69 929.31 359.49 1073.89 350.22 957.95 457.12 963.31 541.14 1083.56 533.66
00001653 00000145 883.61 133.94 381.98 532.19 927.75 360.71 1071.66 350.42 957.24 457.14 961.75 541.57 1081.89 533.35
00001654 00000146 884.33 135.46 380.56 533.76 926.02 362.57 1068.02 351.82 951.73 459.61 962.58 545.05 1079.72 536.29
00001655 00000147 887.03 144.99 380.65 529.21 927.57 367.31 1069.36 356.59 953.30 464.63 964.91 547.28 1082.92 538.61
00001656 00000148 897.42 130.68 384.59 556.37 937.24 372.29 1084.27 362.90 968.14 474.66 973.58 559.82 1100.27 550.36
00001657 DELETE   911.41 127.25 380.36 564.62 950.24 371.91 1099.12 363.25 987.32 479.17 987.22 560.05 1116.20 551.77
00001658 00000150 916.78 132.95 383.60 557.63 953.95 373.32 1108.63 363.27 997.62 482.81 991.43 563.31 1123.17 554.33
00001659 00000151 916.93 132.24 383.26 557.82 954.11 376.10 1106.94 365.73 997.79 484.78 992.06 564.78 1121.78 555.46
00001660 00000152 912.09 134.07 383.65 561.04 953.12 375.86 1102.10 367.62 992.25 485.22 990.27 564.50 1118.82 556.65
00001661 00000153 909.89 136.36 381.05 568.13 949.27 379.07 1096.09 367.14 984.51 484.39 989.86 568.30 1116.12 557.20
00001662 00000154 899.10 137.96 386.09 571.15 943.81 381.75 1090.40 367.18 980.93 483.80 987.49 568.94 1116.41 555.17
CROP_BBOX: 597 0 1590 902
