Video ID: 	WbGymZprEMs
H: 	1080
W: 	1920
FPS: 	23.976023976023978

FRAME INDEX X0 Y0 W H [Landmarks (5 Points)]

00013378 00000000 963.51 134.04 461.79 642.38 1107.58 381.00 1298.99 329.45 1251.09 447.13 1190.19 613.55 1345.27 567.51
00013379 00000001 970.18 138.91 459.23 637.32 1123.73 383.04 1304.67 334.80 1264.03 447.33 1192.40 605.82 1342.54 561.74
00013380 00000002 968.16 136.37 466.68 633.34 1118.75 376.80 1316.06 330.38 1265.23 441.97 1197.07 605.41 1356.29 562.69
00013381 00000003 974.83 132.91 462.11 632.73 1124.08 374.54 1320.26 326.64 1271.26 441.06 1202.63 603.56 1359.63 559.86
00013382 00000004 978.06 132.27 462.91 630.71 1130.56 371.85 1324.27 325.65 1276.69 439.84 1206.80 598.91 1362.04 556.71
00013383 00000005 985.85 133.73 456.46 624.72 1133.84 366.83 1327.73 320.25 1279.24 437.04 1207.23 594.13 1364.84 551.86
00013384 00000006 988.38 131.63 457.13 621.70 1136.75 361.40 1331.47 318.42 1281.73 433.50 1206.46 588.33 1365.21 549.39
00013385 00000007 992.22 121.64 455.40 630.14 1139.87 355.71 1335.38 318.51 1281.36 430.42 1201.90 581.63 1363.13 547.56
00013386 00000008 995.08 108.72 450.35 649.35 1135.91 352.06 1333.23 323.46 1269.62 435.96 1196.63 579.14 1367.76 555.39
00013387 00000009 999.32 107.11 449.45 660.27 1142.13 342.52 1338.82 319.53 1276.88 429.96 1196.16 578.75 1368.52 559.76
00013388 DELETE   998.47 88.42 453.81 664.09 1139.59 331.76 1338.55 305.60 1275.83 415.64 1191.09 562.85 1371.17 540.81
00013389 DELETE   1006.59 71.72 447.02 651.87 1142.86 319.61 1333.07 292.93 1268.46 387.76 1191.18 533.49 1370.26 510.31
00013390 DELETE   1006.53 74.14 448.39 634.86 1146.07 310.62 1339.10 285.59 1273.61 378.31 1191.06 517.21 1376.04 495.88
00013391 00000013 1004.64 67.20 452.66 641.62 1149.04 306.80 1340.50 281.73 1278.26 373.23 1200.91 519.05 1377.87 496.66
00013392 00000014 1001.98 75.90 445.54 644.24 1149.24 300.82 1339.22 278.04 1282.40 374.66 1207.59 530.83 1373.47 509.94
00013393 00000015 1001.72 75.65 446.50 645.60 1149.22 301.42 1341.69 279.96 1282.89 375.61 1204.83 531.54 1375.53 511.72
00013394 00000016 1000.64 78.29 445.46 645.95 1149.38 299.96 1342.56 281.08 1285.49 375.74 1202.62 533.52 1373.58 516.06
00013395 00000017 997.72 79.73 447.59 648.04 1149.03 297.40 1342.22 279.07 1285.36 376.51 1204.09 534.00 1372.85 516.80
00013396 00000018 998.13 76.46 445.96 648.39 1145.91 300.76 1340.04 280.74 1281.92 377.45 1199.82 534.41 1372.03 515.80
00013397 00000019 993.52 79.99 447.33 649.18 1143.99 303.16 1335.56 283.33 1278.69 377.76 1198.71 537.29 1367.75 518.95
00013398 00000020 994.29 80.46 443.33 656.95 1141.48 302.61 1335.22 283.50 1279.21 380.65 1195.15 542.28 1366.80 524.97
00013399 00000021 994.29 80.33 443.28 651.35 1141.30 300.54 1336.36 283.42 1277.57 378.68 1191.31 536.53 1365.85 521.00
00013400 00000022 994.91 81.81 441.66 645.64 1139.21 296.73 1333.88 278.10 1274.83 373.52 1190.01 531.37 1364.00 514.64
00013401 00000023 989.66 81.35 447.63 635.27 1140.57 300.69 1340.13 279.00 1279.03 375.38 1190.06 529.22 1361.66 508.36
00013402 00000024 988.09 81.66 448.57 634.78 1140.08 301.49 1340.53 281.37 1277.20 377.97 1187.57 529.08 1360.60 509.40
00013403 00000025 987.16 73.44 445.34 657.22 1140.10 302.41 1339.68 285.27 1277.64 380.39 1186.49 538.01 1357.47 521.32
00013404 00000026 987.78 77.09 446.44 669.61 1140.36 314.10 1334.09 288.06 1280.78 388.87 1187.96 551.64 1352.16 527.83
00013405 00000027 987.96 77.93 445.67 672.55 1140.03 315.13 1332.79 288.12 1279.89 390.20 1188.52 554.47 1351.05 530.08
00013406 00000028 986.96 80.93 451.18 661.10 1142.65 310.67 1333.19 283.95 1281.65 383.97 1192.69 546.28 1353.18 521.73
00013407 00000029 982.38 70.49 454.60 647.04 1136.89 304.26 1334.47 279.56 1276.43 372.53 1191.35 531.25 1360.36 507.66
00013408 00000030 982.55 69.64 455.67 631.75 1135.13 299.15 1325.72 272.56 1270.93 365.59 1191.11 519.23 1350.68 493.92
00013409 00000031 981.61 69.76 455.19 615.16 1133.98 298.87 1324.42 272.82 1268.00 360.78 1190.30 508.65 1352.21 483.33
00013410 00000032 982.80 69.81 454.08 612.39 1134.71 301.73 1323.68 276.30 1266.49 359.38 1189.92 504.75 1352.86 479.58
00013411 00000033 985.63 71.32 451.38 613.37 1137.90 302.88 1327.08 278.67 1271.25 365.49 1192.34 506.93 1356.75 482.84
00013412 00000034 986.70 68.52 451.56 627.97 1142.67 307.10 1335.58 282.36 1283.06 375.37 1200.59 521.43 1364.08 497.18
00013413 00000035 986.53 73.20 451.92 636.55 1145.62 315.01 1338.99 291.96 1288.94 385.07 1202.18 531.45 1366.34 508.78
00013414 00000036 995.56 77.24 445.45 647.29 1148.09 320.32 1333.52 294.40 1285.68 392.03 1206.42 546.54 1368.95 523.31
00013415 00000037 995.73 81.08 447.16 646.58 1148.89 324.76 1333.66 299.12 1287.18 394.92 1210.28 554.86 1367.24 532.07
00013416 00000038 995.65 78.33 447.55 646.86 1149.44 321.77 1331.83 295.49 1287.69 388.40 1211.50 550.15 1368.07 526.44
00013417 00000039 996.70 68.33 444.84 654.67 1149.61 318.71 1332.11 292.39 1287.12 384.18 1210.56 545.14 1369.01 520.99
00013418 00000040 997.48 67.31 444.67 656.18 1150.14 315.96 1333.23 289.99 1287.75 380.97 1210.92 542.54 1370.35 518.66
00013419 00000041 998.15 61.51 442.51 666.75 1151.59 312.09 1334.86 286.44 1291.09 379.90 1211.96 543.60 1370.58 520.25
00013420 00000042 997.55 62.35 443.19 665.09 1150.76 308.69 1336.36 283.78 1291.12 379.61 1209.40 540.68 1372.18 517.87
00013421 00000043 997.05 63.88 445.88 657.37 1149.57 309.37 1335.72 285.39 1288.24 377.93 1205.34 534.75 1372.51 512.76
00013422 00000044 996.52 68.11 447.56 648.80 1148.35 312.07 1333.18 285.74 1286.45 379.19 1207.04 532.98 1374.35 508.75
00013423 00000045 989.58 77.60 451.78 632.42 1146.07 314.42 1338.63 285.35 1291.50 382.87 1206.07 532.63 1372.18 505.13
00013424 00000046 984.83 75.00 455.12 636.30 1142.30 318.83 1333.85 286.91 1289.77 380.88 1203.44 532.85 1370.39 503.21
00013425 00000047 981.20 73.72 456.38 633.62 1139.89 316.79 1330.51 286.07 1286.19 379.62 1203.51 532.46 1365.44 503.72
00013426 00000048 980.30 70.83 459.17 645.59 1139.80 317.65 1332.72 289.21 1285.53 386.13 1200.46 537.38 1364.35 510.72
00013427 00000049 977.14 72.21 460.69 648.84 1136.66 317.86 1336.86 290.13 1285.99 395.09 1200.84 547.08 1365.34 521.05
00013428 00000050 978.50 93.26 459.97 647.17 1136.51 331.16 1330.02 291.58 1283.59 411.35 1202.26 566.66 1356.96 530.75
00013429 00000051 981.39 81.72 456.28 680.59 1141.70 343.25 1324.43 320.25 1274.68 426.26 1204.21 579.15 1355.94 559.56
00013430 00000052 975.77 99.78 457.92 671.78 1131.78 356.07 1325.12 317.81 1275.07 443.19 1199.19 601.30 1346.90 566.82
00013431 00000053 974.17 106.82 457.40 664.35 1126.40 363.60 1318.72 324.27 1267.75 449.38 1193.92 603.52 1342.13 567.67
00013432 00000054 971.30 111.32 462.74 654.82 1122.07 365.88 1315.44 324.76 1261.48 451.37 1187.46 599.16 1342.38 561.39
00013433 00000055 970.56 107.79 463.91 660.10 1120.85 365.19 1314.60 323.53 1258.79 451.52 1184.21 597.03 1343.17 558.69
00013434 00000056 969.90 100.86 462.21 667.50 1121.27 364.56 1313.58 324.07 1258.02 452.42 1183.10 596.79 1340.64 559.43
00013435 00000057 971.52 103.87 460.87 664.47 1123.51 365.68 1317.12 329.74 1259.04 456.51 1181.52 597.02 1340.11 563.60
00013436 00000058 978.48 118.17 454.93 654.23 1129.64 370.43 1321.74 339.64 1263.38 463.01 1184.36 603.92 1340.02 574.84
00013437 00000059 983.73 125.19 448.69 654.80 1133.18 374.60 1331.97 349.87 1271.73 473.18 1189.33 616.41 1343.40 593.03
00013438 00000060 987.71 129.11 446.33 660.60 1139.75 375.74 1340.16 354.46 1279.92 476.48 1190.75 622.80 1347.60 602.63
00013439 00000061 990.51 118.79 440.85 680.37 1145.90 364.10 1337.13 352.04 1283.42 471.66 1188.86 618.78 1345.90 607.16
00013440 00000062 997.54 108.38 438.11 689.99 1150.65 358.72 1346.24 348.41 1289.71 471.19 1188.82 613.21 1353.06 602.73
00013441 00000063 1001.76 107.40 435.58 681.53 1154.84 358.10 1348.81 350.39 1289.67 469.45 1190.10 606.78 1351.70 598.41
00013442 00000064 1002.07 109.63 440.51 672.57 1155.23 365.17 1352.19 353.12 1290.81 471.76 1200.90 602.40 1364.70 593.04
00013443 00000065 1003.61 116.07 439.31 663.37 1159.63 370.58 1360.74 359.89 1296.62 475.92 1202.20 601.99 1368.19 593.61
00013444 00000066 1000.63 121.11 449.31 666.85 1166.16 375.76 1363.25 372.55 1304.50 477.55 1194.20 600.72 1368.34 595.90
00013445 00000067 1001.83 120.51 447.93 670.03 1166.13 380.65 1362.81 373.51 1306.29 480.24 1197.31 605.66 1370.20 597.64
00013446 00000068 999.99 120.24 448.42 671.30 1163.05 379.07 1360.00 370.73 1303.14 477.06 1194.92 605.72 1368.52 596.76
00013447 00000069 1001.85 120.24 445.77 659.43 1163.98 376.13 1355.01 366.92 1298.20 466.88 1195.97 594.88 1364.96 584.85
00013448 00000070 996.43 109.47 447.71 661.94 1163.17 367.84 1358.55 352.76 1302.06 463.13 1201.60 596.41 1366.90 581.37
00013449 00000071 995.67 110.99 444.84 659.52 1162.27 366.63 1356.44 349.87 1302.28 461.00 1204.17 597.81 1366.03 581.30
00013450 00000072 997.61 113.18 443.38 657.10 1161.80 366.05 1358.91 347.12 1304.58 460.02 1210.26 605.28 1368.57 587.15
00013451 00000073 997.13 109.87 443.64 660.73 1166.05 362.25 1362.20 344.13 1312.05 456.32 1211.45 601.59 1372.26 584.42
00013452 00000074 994.99 113.59 449.16 648.66 1166.02 357.07 1359.50 334.46 1312.79 446.62 1212.57 589.64 1374.40 568.29
00013453 00000075 996.62 114.54 449.44 647.71 1165.08 352.43 1360.52 326.89 1312.90 441.06 1211.21 585.41 1379.12 561.65
00013454 00000076 994.39 118.61 450.10 642.52 1162.00 351.39 1358.98 325.93 1311.28 437.45 1209.28 583.95 1378.09 560.31
00013455 00000077 994.28 119.38 451.09 640.03 1162.17 353.07 1358.87 326.13 1311.04 440.95 1210.50 583.93 1378.62 558.79
00013456 00000078 993.86 119.87 450.02 640.59 1161.86 353.65 1358.19 325.56 1311.85 441.57 1212.06 586.03 1378.74 559.87
00013457 00000079 995.23 118.04 447.31 644.24 1163.83 350.90 1359.44 324.22 1314.13 436.71 1214.59 586.34 1379.88 561.32
00013458 00000080 994.53 119.75 448.82 639.22 1165.40 348.84 1358.74 325.71 1312.22 432.51 1217.89 584.79 1377.15 562.73
00013459 00000081 992.26 118.94 450.52 641.06 1164.48 347.57 1358.21 324.02 1312.32 431.97 1218.24 584.87 1376.10 562.33
00013460 00000082 991.27 116.44 451.51 644.33 1165.24 347.06 1358.60 323.71 1313.47 431.70 1219.12 584.72 1376.28 562.28
00013461 00000083 992.04 117.92 449.68 643.59 1166.00 346.63 1358.29 323.44 1312.80 432.76 1219.97 585.61 1374.66 563.29
00013462 00000084 998.54 118.81 441.54 647.37 1163.22 344.45 1359.50 324.72 1307.79 424.57 1224.19 596.99 1372.27 578.65
00013463 00000085 1002.16 115.53 437.38 662.99 1160.49 335.18 1355.26 316.67 1306.99 411.95 1225.04 599.63 1373.05 582.66
00013464 00000086 1000.61 121.82 437.08 654.14 1153.29 331.89 1348.88 307.90 1297.95 404.29 1221.36 596.63 1369.87 575.02
00013465 00000087 996.18 120.25 438.18 657.08 1149.60 330.28 1344.33 306.36 1291.95 405.28 1213.30 594.69 1363.11 573.19
00013466 00000088 990.15 117.15 438.59 653.88 1144.91 329.70 1337.34 305.50 1281.87 413.18 1206.76 594.23 1348.19 572.37
00013467 00000089 984.09 125.40 439.15 644.13 1140.93 329.14 1331.69 310.71 1273.67 420.70 1197.51 592.08 1334.01 574.47
00013468 00000090 978.15 111.27 445.77 655.23 1136.17 337.31 1328.13 319.08 1266.22 432.11 1188.89 591.10 1322.51 573.35
00013469 00000091 978.78 119.05 446.06 649.66 1130.74 343.63 1325.97 332.16 1254.92 447.96 1175.96 592.31 1314.29 579.64
00013470 00000092 978.39 118.51 446.13 652.37 1129.14 343.83 1323.24 335.03 1250.71 449.80 1170.44 591.12 1309.90 580.77
00013471 00000093 976.33 118.58 448.78 653.10 1126.74 342.50 1322.14 333.74 1249.19 446.44 1167.49 588.48 1310.56 578.05
00013472 00000094 974.41 123.99 449.13 644.85 1124.53 339.93 1320.05 329.53 1249.19 444.25 1169.34 588.05 1309.94 576.25
00013473 00000095 975.54 121.89 447.20 648.70 1127.51 339.47 1322.25 329.11 1252.76 447.12 1170.94 591.00 1310.33 579.36
00013474 00000096 974.25 120.21 444.35 669.36 1125.74 336.06 1325.47 327.12 1253.10 443.82 1166.84 601.25 1312.69 590.86
00013475 00000097 970.82 113.17 448.17 661.22 1124.05 332.46 1325.41 321.73 1251.48 439.12 1167.71 590.45 1313.74 578.29
00013476 00000098 968.47 114.68 451.32 640.23 1119.76 324.97 1321.12 313.38 1248.62 426.01 1164.10 565.27 1317.70 552.66
00013477 00000099 967.83 90.92 450.88 646.11 1119.63 318.32 1319.84 312.11 1246.01 417.09 1149.58 545.42 1325.64 538.86
00013478 00000100 971.01 110.90 451.00 627.89 1120.43 323.04 1321.74 310.69 1249.82 424.98 1159.40 546.50 1327.08 533.00
00013479 00000101 971.08 109.22 452.51 641.33 1122.70 327.25 1322.92 315.73 1250.96 429.37 1164.27 558.65 1323.93 546.07
00013480 00000102 974.56 117.48 452.24 637.03 1126.03 329.72 1324.99 317.03 1255.21 431.72 1170.19 568.18 1324.80 554.79
00013481 00000103 974.03 114.60 453.37 637.01 1129.84 330.22 1327.12 318.02 1259.87 428.82 1172.71 561.89 1331.09 548.68
00013482 00000104 979.14 115.50 446.80 619.65 1133.21 328.03 1324.73 314.05 1260.51 419.16 1170.63 543.15 1335.16 528.54
00013483 00000105 980.77 98.36 443.95 633.91 1136.86 323.12 1328.41 305.12 1267.68 409.49 1175.66 542.87 1337.23 525.09
00013484 00000106 985.92 70.04 440.32 660.63 1137.45 312.00 1338.05 300.86 1272.00 396.44 1175.36 543.62 1347.85 532.39
00013485 00000107 985.38 73.06 441.75 665.62 1137.79 312.11 1338.82 299.26 1272.33 398.81 1179.12 551.27 1348.80 538.24
00013486 00000108 987.41 73.80 441.37 670.57 1140.42 313.22 1340.99 300.35 1272.55 406.45 1182.53 559.38 1348.70 546.33
00013487 00000109 989.09 68.96 442.61 674.18 1146.37 316.42 1342.45 304.77 1277.69 409.91 1187.56 558.57 1348.95 546.60
00013488 00000110 989.26 69.57 441.83 663.63 1148.58 312.78 1341.92 301.84 1282.00 399.88 1191.71 546.42 1352.18 534.51
00013489 DELETE   996.13 80.83 440.20 636.34 1152.58 312.69 1346.16 295.22 1287.19 391.32 1198.73 536.87 1365.66 519.23
00013490 00000112 998.74 96.53 437.81 632.59 1163.78 311.36 1354.15 296.51 1301.78 398.54 1199.84 540.28 1365.57 524.76
00013491 00000113 999.56 86.87 440.90 644.47 1163.39 314.36 1352.17 302.98 1298.13 392.72 1207.13 543.33 1370.32 532.81
00013492 00000114 998.34 88.83 442.78 643.14 1164.23 313.62 1352.79 301.45 1299.41 395.30 1208.26 543.02 1371.12 531.99
CROP_BBOX: 635 0 1731 1001
