Video ID: 	pV-UrKqAtX0
H: 	2160
W: 	3840
FPS: 	25.0

FRAME INDEX X0 Y0 W H [Landmarks (5 Points)]

00003795 00000000 1935.88 212.27 625.15 925.93 2060.56 572.84 2340.58 589.25 2152.98 730.49 2064.73 898.44 2278.32 916.08
00003796 00000001 1939.54 208.88 626.41 932.73 2066.11 570.95 2346.63 589.36 2156.42 730.14 2067.99 897.85 2282.85 917.18
00003797 00000002 1942.86 206.63 622.62 922.95 2066.31 569.06 2343.73 589.50 2152.15 725.83 2064.36 889.49 2277.62 911.16
00003798 00000003 1942.30 205.87 622.73 922.07 2064.89 566.88 2340.76 587.48 2148.67 722.40 2059.74 887.90 2272.44 909.76
00003799 00000004 1938.13 209.40 628.48 919.97 2063.78 569.56 2340.68 592.74 2147.38 726.25 2055.86 889.60 2268.27 913.63
00003800 00000005 1933.67 212.23 629.91 909.93 2059.83 572.04 2333.84 593.83 2140.32 728.17 2053.17 889.28 2259.49 911.97
00003801 00000006 1925.21 198.56 629.01 918.29 2047.36 563.77 2333.27 589.83 2136.98 730.60 2042.20 886.52 2260.58 912.46
00003802 DELETE   1914.81 201.58 633.31 916.07 2038.64 565.45 2322.90 593.63 2123.24 732.51 2030.27 885.22 2248.57 912.24
00003803 DELETE   1904.53 194.65 632.36 929.95 2025.38 563.82 2305.57 593.56 2106.31 736.27 2019.26 886.87 2232.07 914.53
00003804 DELETE   1892.03 203.27 632.61 950.58 2012.01 570.39 2291.11 597.29 2092.34 739.86 2013.02 903.31 2222.55 928.45
00003805 00000010 1890.20 221.19 618.14 951.49 2002.01 576.83 2282.92 609.43 2075.57 747.63 1992.58 917.06 2212.24 945.58
00003806 00000011 1885.86 226.59 616.93 945.09 1996.49 582.85 2278.21 617.63 2068.46 758.07 1987.54 922.79 2206.10 952.45
00003807 00000012 1881.66 239.04 618.68 917.93 1993.79 595.36 2275.19 627.13 2070.98 767.57 1987.29 926.41 2203.42 954.02
00003808 00000013 1876.11 242.13 625.70 908.02 1992.89 593.49 2274.97 626.70 2069.02 765.01 1984.90 920.44 2201.80 949.14
00003809 00000014 1869.68 242.05 632.19 902.84 1989.32 587.75 2273.86 623.14 2061.43 758.93 1977.73 913.61 2194.33 944.32
00003810 00000015 1862.37 231.04 638.35 913.81 1989.25 587.17 2263.73 621.77 2056.66 754.96 1975.41 908.03 2183.63 939.77
00003811 00000016 1863.53 232.96 636.91 924.94 1985.79 585.58 2258.23 622.00 2050.58 756.74 1972.52 915.26 2169.43 948.75
00003812 00000017 1868.23 236.92 625.79 937.56 1984.42 584.33 2262.39 623.72 2050.12 760.28 1968.57 929.74 2163.08 962.80
00003813 00000018 1872.10 239.26 622.08 951.25 1988.39 586.57 2264.63 626.30 2053.04 762.71 1973.04 934.77 2168.99 968.19
00003814 00000019 1870.41 251.78 630.77 939.75 1985.67 589.39 2260.51 626.94 2057.09 760.56 1976.22 928.98 2180.58 963.86
00003815 00000020 1879.07 248.69 626.87 930.99 1990.24 589.61 2265.53 628.23 2060.08 760.39 1978.44 921.84 2188.25 957.62
00003816 00000021 1880.64 252.20 627.11 924.75 1993.84 592.01 2268.80 632.70 2065.42 766.01 1977.94 918.79 2192.20 956.28
00003817 00000022 1881.07 248.67 623.60 935.93 1999.75 599.03 2276.87 642.96 2059.54 776.82 1979.13 935.32 2185.85 971.63
00003818 00000023 1878.91 249.50 625.94 944.32 1999.15 607.83 2276.10 651.72 2056.95 791.84 1977.01 946.40 2188.38 981.84
00003819 00000024 1877.61 251.41 626.22 942.30 1996.07 610.65 2274.04 656.74 2053.40 800.06 1972.71 949.33 2188.86 985.64
00003820 00000025 1872.43 253.16 627.19 936.51 1995.17 606.49 2271.70 653.16 2051.27 796.95 1969.37 943.23 2187.24 979.99
00003821 00000026 1869.60 252.86 631.46 934.66 1994.50 602.09 2271.54 649.63 2050.69 790.32 1966.33 937.23 2184.10 974.91
00003822 00000027 1870.90 256.27 631.61 935.65 1996.10 601.77 2272.68 648.68 2052.63 787.56 1969.57 936.64 2182.58 974.41
00003823 00000028 1873.47 253.19 629.15 941.30 1997.45 605.79 2272.68 651.37 2056.39 794.02 1973.94 940.37 2185.24 977.09
00003824 00000029 1874.19 254.38 628.45 946.32 1996.99 609.98 2271.63 655.41 2057.65 799.33 1975.94 944.63 2185.23 981.24
00003825 00000030 1871.92 256.32 628.43 944.31 1995.00 614.03 2267.19 657.26 2055.31 802.48 1974.94 949.49 2177.99 984.50
00003826 00000031 1868.00 257.46 630.94 943.10 1991.41 613.70 2264.32 658.99 2050.15 804.08 1966.70 953.14 2164.43 989.50
00003827 00000032 1865.80 260.60 631.22 938.35 1989.99 613.42 2262.21 657.57 2048.75 802.14 1965.11 951.11 2162.32 986.69
00003828 00000033 1867.49 263.76 629.05 939.87 1990.38 615.45 2262.63 658.71 2049.54 805.32 1969.07 952.50 2167.90 987.35
00003829 00000034 1869.67 260.63 629.23 943.70 1991.68 616.61 2263.87 659.67 2049.81 808.18 1973.36 952.37 2177.64 986.55
00003830 00000035 1872.86 264.66 624.12 942.27 1992.45 617.89 2264.59 660.77 2051.39 811.77 1976.26 953.77 2184.61 987.60
00003831 00000036 1871.84 264.73 626.16 941.68 1992.04 617.44 2264.83 660.04 2051.83 811.44 1975.85 954.32 2184.45 987.93
00003832 00000037 1868.49 268.18 628.10 937.86 1984.64 627.58 2253.79 665.89 2056.47 814.10 1976.17 953.23 2184.93 987.88
00003833 00000038 1869.13 267.61 625.42 938.52 1984.80 628.69 2253.76 666.51 2057.24 814.29 1976.12 957.28 2181.96 991.33
00003834 00000039 1873.20 264.04 623.69 944.16 1992.05 619.04 2265.00 657.36 2053.36 807.35 1976.67 961.12 2179.60 991.90
00003835 00000040 1873.34 262.87 623.76 947.74 1992.24 619.88 2265.87 658.39 2052.50 807.11 1975.96 963.83 2178.47 994.65
00003836 00000041 1873.51 263.96 622.13 954.07 1992.48 622.73 2265.03 662.24 2049.42 811.54 1975.09 968.05 2178.74 999.40
00003837 00000042 1874.80 268.06 621.04 952.71 1991.72 626.96 2264.81 665.95 2050.09 816.66 1976.07 971.88 2179.33 1002.96
00003838 00000043 1874.87 271.81 620.00 952.21 1992.50 636.38 2263.63 681.65 2051.84 826.66 1973.30 978.13 2185.04 1013.41
00003839 00000044 1876.06 275.61 619.55 947.65 1991.26 642.05 2264.33 685.83 2053.50 832.16 1975.13 983.60 2185.76 1017.88
00003840 00000045 1874.31 272.24 620.47 944.66 1988.65 648.51 2263.76 689.71 2055.14 836.67 1975.44 986.62 2184.71 1019.21
00003841 00000046 1872.21 276.06 622.26 933.27 1988.32 644.73 2261.22 689.49 2054.73 836.19 1973.46 977.58 2180.46 1013.07
00003842 00000047 1868.38 272.05 626.95 932.03 1987.87 641.01 2259.91 688.13 2052.35 833.41 1969.82 971.78 2175.41 1009.19
00003843 00000048 1865.90 271.29 628.30 929.05 1985.66 638.63 2259.03 685.96 2052.10 830.87 1966.51 967.64 2173.39 1005.37
00003844 00000049 1862.78 265.97 635.08 930.49 1984.03 632.11 2259.84 675.25 2046.66 825.72 1967.98 965.33 2170.28 999.41
00003845 00000050 1862.81 264.06 633.79 937.04 1984.02 630.85 2259.15 672.00 2045.22 822.48 1966.67 968.32 2166.28 1001.01
00003846 00000051 1865.90 265.66 624.22 947.80 1983.71 636.48 2255.64 678.83 2049.28 826.60 1968.48 980.56 2172.20 1014.05
00003847 00000052 1865.82 267.18 625.20 948.44 1981.98 641.55 2254.25 682.52 2046.21 830.32 1968.52 986.10 2172.34 1018.54
00003848 00000053 1866.93 269.39 622.77 947.41 1981.72 642.77 2251.53 683.61 2043.79 832.46 1968.82 987.24 2171.17 1019.37
00003849 00000054 1868.44 273.29 619.80 939.44 1981.18 646.05 2251.29 686.46 2043.59 834.37 1969.55 983.19 2174.46 1015.06
00003850 00000055 1867.94 279.17 623.68 930.43 1976.54 655.58 2238.23 685.40 2038.74 843.25 1974.77 979.20 2176.44 1006.91
00003851 00000056 1867.38 295.90 620.44 913.76 1975.46 659.22 2234.79 690.52 2035.73 846.81 1970.95 979.16 2173.06 1008.09
00003852 00000057 1866.65 296.79 621.05 919.45 1973.54 656.73 2232.88 690.59 2031.30 846.38 1966.84 980.28 2163.11 1011.27
00003853 00000058 1861.43 281.20 624.12 927.82 1975.25 642.43 2243.71 684.19 2022.94 830.53 1953.86 976.55 2150.62 1009.42
00003854 00000059 1858.40 269.12 625.54 926.12 1977.93 628.03 2244.71 673.40 2024.60 817.92 1949.41 960.66 2145.10 996.35
00003855 00000060 1860.19 263.81 624.99 924.21 1979.65 617.27 2244.10 661.45 2027.49 807.44 1953.46 953.29 2146.69 987.97
00003856 00000061 1864.33 262.22 622.16 932.03 1981.56 614.71 2245.60 656.96 2033.79 804.94 1960.30 954.90 2152.63 988.29
00003857 00000062 1864.99 259.83 622.83 941.42 1982.42 619.72 2247.92 658.64 2035.83 811.62 1963.96 961.54 2161.03 992.01
00003858 00000063 1866.03 258.86 623.51 956.68 1980.43 628.13 2249.63 665.02 2036.10 818.33 1966.62 969.34 2168.96 998.19
00003859 00000064 1867.12 265.17 617.64 966.96 1982.65 631.49 2248.57 672.19 2039.56 820.67 1967.01 979.18 2177.72 1010.68
00003860 00000065 1864.44 256.53 623.74 951.72 1981.92 622.86 2251.06 659.75 2038.38 812.68 1967.15 961.11 2171.94 990.01
00003861 00000066 1858.69 254.19 633.99 944.95 1981.22 618.23 2258.14 656.09 2041.62 801.84 1961.53 944.32 2184.12 974.72
00003862 00000067 1855.47 252.35 637.01 936.59 1979.11 614.76 2264.73 654.31 2045.74 797.83 1957.98 937.08 2193.34 968.86
00003863 00000068 1856.60 248.36 636.61 938.37 1979.78 613.75 2264.46 654.32 2045.74 797.98 1959.25 937.01 2191.50 969.34
00003864 00000069 1860.44 255.45 630.99 936.60 1981.88 615.70 2261.00 653.88 2046.19 800.97 1964.98 945.05 2184.05 975.60
00003865 00000070 1863.50 256.18 626.02 932.79 1982.66 614.56 2259.01 652.42 2046.23 801.80 1967.61 949.80 2177.88 979.84
00003866 00000071 1861.20 251.49 627.59 927.98 1981.31 612.45 2260.76 649.91 2048.86 797.57 1966.59 947.13 2176.67 977.07
00003867 00000072 1862.67 252.97 626.15 922.14 1982.01 611.43 2260.62 648.53 2049.85 795.77 1968.06 945.89 2175.12 975.66
00003868 00000073 1864.79 252.36 624.57 923.10 1982.37 610.98 2261.75 648.18 2049.52 795.87 1968.65 946.69 2176.30 976.38
00003869 00000074 1864.94 252.76 625.65 923.19 1982.50 611.20 2261.90 647.20 2050.61 796.55 1969.70 948.24 2177.43 977.05
00003870 00000075 1864.68 251.91 626.10 921.98 1981.90 610.96 2261.34 646.46 2050.87 796.37 1970.40 947.61 2177.50 976.10
00003871 00000076 1865.56 250.15 624.29 920.19 1981.60 609.70 2259.81 644.45 2050.21 790.37 1969.99 946.41 2173.36 974.49
00003872 00000077 1864.66 249.13 623.05 919.59 1980.65 607.22 2258.21 642.32 2048.98 787.52 1969.89 944.09 2171.98 972.46
00003873 00000078 1864.56 248.08 624.83 925.14 1981.22 607.09 2256.76 639.73 2049.46 783.70 1971.19 943.83 2171.12 970.69
00003874 00000079 1864.15 251.12 624.44 936.13 1980.81 605.04 2254.62 636.79 2049.82 783.12 1972.59 946.91 2170.14 973.34
00003875 00000080 1864.28 250.82 623.78 935.33 1980.90 605.01 2255.18 636.22 2050.67 782.49 1973.24 945.69 2172.41 971.64
00003876 00000081 1865.55 250.59 622.42 924.35 1980.11 604.00 2256.62 634.83 2049.57 780.27 1973.34 943.02 2173.76 968.45
00003877 00000082 1865.77 249.56 623.31 922.21 1978.98 602.54 2257.36 633.42 2050.46 778.89 1973.19 940.61 2174.77 966.17
00003878 00000083 1866.28 249.45 622.54 924.51 1979.32 602.22 2257.72 632.88 2050.88 777.14 1973.52 939.60 2175.92 965.03
00003879 00000084 1866.27 252.43 624.22 930.00 1981.22 603.51 2259.07 633.91 2052.34 778.66 1974.72 943.24 2176.83 968.62
00003880 00000085 1866.89 253.12 623.73 942.48 1983.02 604.55 2258.70 635.99 2053.20 781.48 1974.84 950.24 2173.27 976.35
00003881 00000086 1863.75 247.84 629.23 935.02 1981.27 605.30 2261.51 636.52 2052.38 781.70 1973.04 945.98 2179.75 971.53
00003882 00000087 1863.74 252.38 629.41 925.44 1982.23 600.85 2263.15 634.54 2051.19 779.18 1971.35 939.84 2179.82 967.33
00003883 00000088 1865.98 252.32 627.58 923.75 1981.99 596.41 2263.64 631.09 2051.09 774.17 1969.47 932.15 2182.85 960.59
00003884 00000089 1866.87 252.74 625.30 929.52 1981.99 595.04 2265.91 628.43 2052.20 770.21 1972.50 930.33 2192.08 958.01
00003885 00000090 1867.24 252.11 624.46 937.08 1984.27 599.27 2265.06 628.86 2056.94 772.01 1978.24 937.65 2190.53 962.58
00003886 00000091 1869.13 259.09 622.75 920.16 1982.25 612.56 2256.61 641.69 2064.18 786.10 1978.14 938.94 2196.76 966.73
00003887 00000092 1870.16 250.48 625.00 925.65 1987.98 607.12 2267.95 641.13 2061.78 789.29 1978.76 941.90 2188.66 969.87
00003888 00000093 1864.83 256.63 633.06 906.01 1985.98 609.67 2261.59 641.73 2063.09 791.28 1981.80 937.38 2185.86 966.99
00003889 00000094 1867.52 251.27 627.80 912.32 1986.38 600.32 2267.04 635.70 2060.38 781.08 1974.60 936.88 2174.65 966.43
00003890 00000095 1868.70 249.85 626.49 917.18 1986.09 599.62 2266.57 635.45 2057.55 780.54 1972.00 938.18 2172.11 967.93
00003891 00000096 1869.18 251.59 626.31 923.60 1986.41 603.82 2267.33 638.90 2057.52 784.26 1973.77 943.79 2178.62 972.64
00003892 00000097 1868.15 251.43 627.58 935.72 1986.16 608.54 2266.78 640.97 2059.12 790.65 1979.56 951.31 2186.88 977.89
00003893 00000098 1866.61 251.60 628.25 940.59 1985.68 610.72 2265.62 643.10 2058.31 793.46 1979.15 953.68 2186.30 980.01
00003894 00000099 1864.76 255.35 627.92 936.60 1984.25 609.98 2265.30 642.00 2057.67 789.62 1976.23 949.15 2186.76 975.53
00003895 00000100 1864.53 251.64 627.25 935.34 1983.47 607.78 2264.65 640.08 2057.95 786.18 1974.73 947.19 2182.32 973.98
00003896 00000101 1865.00 249.56 629.27 932.08 1984.13 608.01 2265.31 641.33 2057.64 787.27 1973.40 949.07 2179.20 976.49
00003897 00000102 1865.14 250.41 629.48 930.64 1985.54 610.71 2266.18 644.56 2059.45 795.26 1975.06 951.74 2179.89 979.29
00003898 00000103 1865.11 250.66 629.82 929.31 1986.09 610.83 2266.67 644.72 2060.17 795.92 1975.61 950.49 2180.55 978.12
00003899 00000104 1866.24 250.54 629.86 927.36 1986.71 609.36 2266.28 643.30 2060.05 792.06 1977.03 946.34 2180.48 974.27
00003900 00000105 1868.46 251.95 625.87 917.75 1986.04 607.31 2267.01 641.86 2061.50 789.63 1976.31 942.32 2182.15 970.71
00003901 00000106 1864.15 255.65 633.40 908.79 1984.57 612.00 2260.59 644.18 2061.64 793.99 1980.55 939.22 2186.21 968.86
00003902 00000107 1870.02 252.11 624.20 919.51 1986.71 607.24 2266.15 640.82 2061.38 787.90 1977.84 942.98 2182.00 970.68
00003903 00000108 1867.92 253.53 625.53 920.90 1985.75 608.42 2264.95 640.35 2060.21 787.62 1978.55 945.30 2181.23 971.90
00003904 00000109 1869.01 252.96 623.60 922.36 1985.37 607.77 2264.71 638.64 2060.05 786.41 1979.43 946.16 2181.03 971.96
00003905 00000110 1869.03 251.11 625.06 922.48 1984.15 606.56 2265.12 637.27 2060.00 785.38 1979.10 945.03 2182.77 970.66
00003906 00000111 1868.05 251.67 625.41 915.07 1983.54 606.59 2266.15 640.07 2058.88 785.00 1974.21 939.51 2184.95 967.22
00003907 00000112 1866.48 251.97 627.83 915.27 1984.50 606.78 2267.09 643.08 2058.85 788.98 1972.37 937.69 2184.19 967.52
00003908 00000113 1867.16 251.11 628.37 917.48 1986.19 608.90 2267.15 645.07 2058.89 791.40 1974.25 938.88 2182.03 968.65
00003909 00000114 1869.01 257.56 624.60 912.13 1986.98 608.52 2267.26 643.71 2059.67 790.88 1976.27 943.29 2176.78 972.41
00003910 00000115 1868.68 258.29 623.24 909.94 1987.36 604.65 2264.96 640.28 2057.46 783.54 1975.22 940.17 2170.30 969.89
00003911 00000116 1866.53 255.71 627.97 905.13 1986.70 599.76 2264.15 634.99 2054.94 774.38 1971.99 931.34 2166.96 961.04
00003912 00000117 1862.45 258.18 634.09 894.26 1985.36 600.70 2256.57 632.54 2053.16 772.72 1976.30 921.44 2170.58 951.63
00003913 00000118 1862.50 259.06 633.66 893.43 1985.46 602.61 2256.55 632.11 2054.65 772.97 1977.86 922.96 2173.50 951.27
00003914 00000119 1865.70 263.49 630.53 899.43 1984.87 605.51 2256.14 635.75 2054.91 778.64 1979.84 932.77 2174.88 961.05
00003915 00000120 1868.18 264.48 625.29 908.18 1980.13 606.56 2251.30 635.22 2055.68 777.77 1976.07 934.69 2180.04 962.32
00003916 00000121 1869.02 255.41 623.61 923.10 1985.38 598.28 2264.01 630.74 2055.12 769.11 1973.62 935.77 2173.10 963.31
00003917 00000122 1869.03 261.95 625.03 910.14 1981.99 598.19 2254.37 630.50 2056.85 765.64 1975.35 925.80 2179.64 956.62
00003918 00000123 1868.88 254.04 623.41 917.42 1986.30 593.49 2265.42 629.08 2054.34 764.40 1971.66 931.69 2172.97 961.57
00003919 00000124 1871.20 265.99 620.38 900.48 1987.70 601.60 2263.09 635.01 2056.22 770.22 1973.01 933.33 2176.15 962.42
00003920 00000125 1868.26 260.67 623.80 899.05 1986.28 604.23 2262.78 637.55 2056.14 773.88 1972.61 932.98 2177.33 962.07
00003921 00000126 1867.00 249.05 623.47 903.45 1983.34 600.01 2265.70 633.34 2055.99 770.86 1972.17 930.86 2173.42 959.15
00003922 00000127 1864.48 259.21 629.11 893.91 1985.00 604.99 2257.47 632.23 2054.22 770.70 1978.74 928.70 2175.42 954.99
00003923 00000128 1865.90 263.44 629.21 895.17 1985.67 601.90 2258.05 631.46 2054.41 769.17 1979.32 928.13 2174.51 955.88
00003924 00000129 1864.57 265.59 631.04 893.08 1985.18 603.93 2259.03 633.05 2054.72 771.75 1979.50 930.89 2176.87 958.27
00003925 00000130 1867.66 262.41 627.94 894.89 1985.48 605.91 2259.12 632.54 2055.35 772.14 1981.18 932.96 2179.35 958.43
00003926 00000131 1866.98 263.64 627.80 886.90 1986.42 603.72 2259.34 631.20 2055.07 769.99 1980.35 928.37 2177.65 954.56
00003927 00000132 1867.74 255.63 628.09 889.05 1987.83 599.80 2259.52 627.82 2053.55 763.97 1978.23 922.69 2178.67 949.23
00003928 00000133 1871.07 251.06 625.15 887.76 1989.90 596.25 2259.47 621.80 2052.84 756.47 1979.97 917.09 2181.42 941.45
00003929 00000134 1870.60 243.25 627.17 889.86 1989.55 592.91 2262.04 617.79 2054.72 751.46 1978.45 912.98 2186.48 936.71
00003930 00000135 1871.41 238.93 625.54 887.69 1990.70 590.76 2260.88 614.11 2056.70 746.07 1981.56 907.36 2185.68 930.28
00003931 00000136 1872.15 240.81 624.67 883.56 1991.02 587.87 2260.79 610.02 2059.31 743.31 1983.49 904.71 2187.37 926.82
00003932 00000137 1872.63 238.19 623.80 885.26 1991.41 585.68 2260.99 607.38 2062.11 743.32 1985.84 902.96 2189.63 924.78
00003933 00000138 1872.94 233.23 622.75 886.96 1991.90 583.93 2260.64 604.59 2063.46 740.54 1986.00 899.71 2192.89 920.74
00003934 00000139 1873.81 229.65 621.69 890.69 1991.47 582.09 2261.58 602.78 2064.14 737.27 1983.95 895.39 2197.20 916.49
00003935 00000140 1874.33 227.03 620.93 890.32 1992.83 582.24 2262.21 603.72 2066.06 737.76 1984.51 893.64 2195.82 915.64
00003936 00000141 1875.81 232.27 619.59 887.51 1993.07 584.13 2261.40 605.17 2065.11 738.92 1985.62 894.39 2197.38 915.96
00003937 00000142 1876.23 230.09 620.95 895.97 1993.25 585.00 2264.70 607.82 2066.04 741.50 1985.81 898.80 2202.04 921.40
00003938 00000143 1877.13 234.12 621.67 895.92 1993.54 586.39 2265.21 610.33 2063.14 744.47 1985.65 903.06 2197.93 926.47
00003939 00000144 1878.90 239.96 620.27 893.98 1994.49 586.89 2265.12 611.36 2062.31 745.31 1986.76 907.87 2195.59 931.47
00003940 00000145 1878.96 237.56 620.27 899.22 1993.54 586.14 2265.34 610.88 2061.97 746.18 1985.99 910.03 2196.50 933.63
00003941 00000146 1878.22 232.55 622.01 904.32 1994.51 584.72 2266.08 608.67 2065.22 745.28 1987.47 909.66 2196.95 932.83
00003942 00000147 1876.68 226.72 623.44 908.04 1994.24 582.81 2265.02 605.59 2067.55 743.45 1989.51 906.94 2197.34 929.30
00003943 00000148 1876.56 222.65 624.47 912.06 1994.73 581.18 2265.20 603.87 2069.33 742.91 1990.88 906.19 2197.81 928.53
00003944 00000149 1875.69 221.21 624.48 912.05 1995.03 580.84 2265.63 603.28 2070.00 742.15 1991.54 905.26 2198.28 927.41
00003945 00000150 1875.50 223.63 626.31 910.77 1995.65 581.92 2265.98 605.52 2069.41 743.31 1991.08 906.23 2197.38 929.30
00003946 00000151 1875.65 228.55 626.57 912.69 1997.46 581.40 2268.41 607.37 2072.14 745.20 1994.64 907.67 2196.42 932.52
00003947 00000152 1883.00 229.44 613.11 926.93 1995.48 577.49 2274.63 609.89 2067.89 748.28 1987.52 917.44 2198.94 945.38
00003948 00000153 1885.71 230.26 610.60 940.62 1995.90 578.01 2275.17 609.65 2067.80 749.23 1987.89 921.94 2202.45 949.28
00003949 00000154 1877.82 246.07 626.41 916.58 1994.75 578.85 2277.64 605.19 2082.98 740.68 1995.27 911.71 2212.66 937.35
00003950 00000155 1878.09 231.51 624.45 922.40 1999.27 573.17 2275.94 599.40 2078.85 731.40 1999.33 903.38 2210.14 928.17
00003951 00000156 1879.07 236.10 619.58 904.63 2001.19 565.55 2275.36 589.78 2082.76 718.76 2000.74 892.20 2205.68 916.20
00003952 00000157 1880.41 239.23 616.60 885.46 2002.20 565.63 2275.16 586.01 2085.27 710.15 2000.99 885.94 2206.22 907.65
00003953 00000158 1878.66 235.41 620.60 873.96 2003.49 568.67 2276.40 587.19 2088.28 706.63 2003.15 880.98 2206.11 901.72
00003954 00000159 1882.36 232.51 615.56 865.92 2006.60 568.22 2276.99 588.01 2089.27 707.55 2000.90 876.23 2205.43 897.95
00003955 00000160 1880.14 231.70 621.33 870.33 2006.24 570.71 2274.85 594.06 2085.45 716.43 2000.68 875.10 2200.21 899.52
00003956 00000161 1884.03 230.91 627.59 907.49 2011.96 574.43 2279.83 602.42 2083.91 727.54 2001.81 890.45 2201.58 918.05
