Video ID: 	Gwb6rzcdBrQ
H: 	1080
W: 	1920
FPS: 	23.976023976023978

FRAME INDEX X0 Y0 W H [Landmarks (5 Points)]

00009439 00000000 1212.45 92.19 496.36 682.02 1324.48 336.20 1555.95 377.59 1401.22 485.86 1314.62 587.19 1487.46 623.25
00009440 DELETE   1217.32 102.04 497.91 675.82 1339.64 332.35 1564.88 378.27 1406.98 488.67 1319.89 584.08 1494.01 623.37
00009441 00000002 1227.86 96.33 498.32 684.14 1343.27 325.23 1573.23 375.37 1412.02 483.61 1327.01 579.00 1495.75 621.63
00009442 00000003 1234.40 94.89 499.19 687.31 1349.53 324.88 1581.52 375.06 1418.65 483.30 1331.31 581.02 1503.03 623.59
00009443 00000004 1241.59 98.61 499.18 684.22 1357.53 327.67 1589.78 378.23 1427.84 486.14 1338.21 585.36 1510.44 628.06
00009444 00000005 1246.03 106.10 496.62 677.34 1363.19 331.53 1595.55 383.36 1434.04 490.98 1342.79 588.62 1515.40 631.94
00009445 00000006 1242.82 98.24 499.89 683.86 1363.66 339.08 1597.36 392.14 1429.24 498.72 1336.95 592.48 1520.87 637.07
00009446 00000007 1243.42 104.18 500.54 670.19 1364.36 342.44 1599.78 397.54 1430.21 502.82 1336.23 590.79 1522.06 636.67
00009447 00000008 1242.06 109.69 493.06 665.91 1360.94 347.89 1595.65 402.04 1429.26 509.52 1334.20 594.52 1520.12 639.77
00009448 00000009 1240.47 108.51 496.06 670.52 1359.57 353.73 1594.21 409.06 1427.77 512.45 1329.45 598.40 1514.28 644.88
00009449 00000010 1236.29 116.17 497.16 664.32 1353.59 356.30 1587.63 410.96 1422.10 515.74 1322.79 601.31 1505.20 647.63
00009450 00000011 1228.98 113.70 502.04 671.48 1350.24 359.62 1581.63 413.77 1416.41 516.46 1318.37 604.50 1496.17 650.69
00009451 00000012 1219.67 115.87 507.90 678.92 1345.10 361.45 1573.58 420.81 1408.88 520.80 1308.40 609.76 1483.48 660.10
00009452 00000013 1211.38 108.39 511.00 695.34 1339.36 364.41 1563.54 426.39 1400.39 523.39 1303.61 612.29 1475.25 664.63
00009453 00000014 1202.43 113.11 508.96 693.64 1327.85 363.57 1551.42 428.86 1388.96 526.99 1292.76 612.07 1467.04 666.81
00009454 DELETE   1200.10 117.98 501.12 679.35 1315.20 366.17 1543.11 427.11 1378.67 526.41 1284.59 609.09 1455.25 661.46
00009455 00000016 1193.46 108.42 503.59 693.96 1299.60 358.91 1530.63 431.09 1358.58 525.10 1265.48 606.66 1438.07 668.49
00009456 00000017 1186.57 107.95 501.77 690.93 1285.90 354.02 1521.59 423.58 1344.57 519.63 1252.17 604.23 1427.01 663.56
00009457 DELETE   1176.07 111.14 502.12 690.36 1279.52 349.15 1505.53 412.81 1326.60 507.51 1243.65 602.75 1404.39 658.80
00009458 00000019 1168.69 119.52 501.73 696.08 1270.27 349.04 1495.82 410.53 1314.64 505.15 1234.45 610.30 1394.03 664.88
00009459 00000020 1161.74 114.78 507.60 699.05 1264.74 347.45 1491.11 412.04 1308.84 507.10 1226.46 605.73 1393.14 662.87
00009460 00000021 1159.24 111.49 505.46 701.82 1257.40 351.33 1483.51 417.61 1300.58 513.79 1221.33 608.22 1393.52 666.24
00009461 00000022 1160.42 91.69 504.06 716.62 1250.00 352.33 1480.23 420.30 1295.06 523.17 1218.25 610.25 1394.39 669.87
00009462 00000023 1157.71 88.29 499.86 718.82 1250.07 357.88 1477.33 425.53 1295.44 526.90 1218.33 613.74 1392.92 672.64
00009463 00000024 1155.31 116.02 497.03 696.92 1247.18 364.60 1470.44 427.18 1291.19 534.59 1219.74 621.66 1391.91 676.10
00009464 00000025 1153.30 108.97 501.82 707.12 1239.58 369.57 1467.63 428.83 1285.70 537.79 1215.34 627.18 1394.24 678.66
00009465 00000026 1155.15 102.58 497.96 720.53 1236.71 373.27 1466.77 428.92 1283.00 538.16 1212.77 635.30 1395.01 683.77
00009466 00000027 1150.91 110.19 500.61 725.11 1240.37 375.07 1466.62 431.54 1283.06 535.21 1212.44 636.58 1391.50 685.40
00009467 00000028 1149.45 108.09 503.00 729.07 1238.30 375.51 1467.02 432.01 1282.71 535.90 1210.51 637.82 1389.98 686.82
00009468 00000029 1148.49 106.81 503.06 727.61 1236.51 375.18 1466.42 432.36 1281.90 536.78 1208.73 636.85 1389.31 686.34
00009469 00000030 1147.07 106.46 505.28 728.22 1236.47 374.80 1466.32 431.96 1281.59 535.84 1208.67 636.56 1388.38 686.20
00009470 00000031 1145.69 110.38 503.84 721.15 1235.16 377.40 1465.58 433.31 1282.66 537.50 1208.07 636.77 1388.88 685.20
00009471 00000032 1143.36 110.46 504.97 719.38 1234.57 380.75 1465.07 433.61 1285.02 539.71 1208.59 640.48 1389.72 686.36
00009472 00000033 1142.96 94.15 509.19 736.38 1231.97 382.07 1467.31 436.40 1282.21 542.58 1206.12 642.47 1389.69 689.68
00009473 00000034 1143.15 95.40 509.27 735.95 1232.32 383.41 1467.48 438.17 1282.29 544.11 1206.92 643.52 1391.39 690.90
00009474 00000035 1142.26 101.89 508.64 729.00 1232.49 385.29 1467.88 440.04 1282.83 545.35 1206.96 643.57 1392.04 690.76
00009475 00000036 1141.88 100.53 509.47 726.48 1232.14 384.88 1469.40 440.07 1284.16 546.96 1206.92 643.36 1392.48 691.03
00009476 00000037 1140.88 111.94 511.53 715.18 1234.02 386.52 1471.06 441.71 1286.45 548.40 1208.72 643.39 1396.05 690.84
00009477 00000038 1143.77 113.07 506.23 718.09 1236.69 392.09 1473.48 445.25 1290.62 550.71 1211.99 647.41 1400.77 693.02
00009478 00000039 1151.96 124.39 504.38 711.02 1243.45 399.31 1480.24 452.59 1301.43 557.75 1222.41 650.41 1411.68 696.08
00009479 00000040 1156.62 139.24 502.49 702.18 1250.85 401.02 1481.23 456.45 1308.65 561.24 1231.60 652.98 1411.99 700.54
00009480 00000041 1163.29 160.95 500.39 676.39 1260.23 406.47 1490.32 460.93 1323.73 564.98 1243.11 653.64 1417.88 700.55
00009481 00000042 1166.48 156.79 497.64 678.96 1270.31 410.17 1498.26 462.79 1336.43 568.08 1252.57 655.88 1422.37 701.47
00009482 00000043 1167.12 159.18 502.41 678.34 1275.54 414.07 1508.26 469.35 1346.65 576.56 1257.91 660.69 1429.79 708.31
00009483 00000044 1172.25 166.32 499.55 685.20 1288.14 420.26 1515.05 473.26 1344.13 583.08 1257.51 667.64 1433.70 712.55
00009484 00000045 1174.68 166.52 496.72 691.86 1288.05 421.54 1520.20 473.04 1349.27 588.63 1260.92 676.54 1438.73 720.21
00009485 00000046 1175.91 172.52 493.10 691.99 1287.64 422.68 1521.39 472.65 1352.53 592.08 1264.28 678.88 1448.30 720.85
00009486 00000047 1176.21 170.25 492.78 696.02 1289.43 422.64 1524.46 471.00 1358.29 593.89 1266.23 678.10 1454.84 718.68
00009487 00000048 1177.03 164.45 493.96 697.24 1291.78 423.80 1528.79 471.24 1363.06 592.99 1267.49 676.72 1458.13 716.45
00009488 00000049 1178.35 168.62 491.50 684.64 1292.74 424.62 1531.60 472.63 1364.91 592.22 1269.20 676.53 1457.95 716.68
00009489 00000050 1179.98 176.13 495.93 669.56 1293.12 424.50 1532.55 472.93 1364.05 590.40 1270.88 675.74 1455.66 715.96
00009490 00000051 1181.04 175.80 494.73 667.06 1294.47 423.38 1535.37 470.89 1367.98 589.18 1274.64 675.46 1459.38 714.91
00009491 00000052 1183.08 174.46 493.75 668.13 1295.71 422.94 1538.03 470.62 1371.08 587.74 1276.16 676.25 1462.31 715.81
00009492 00000053 1182.67 174.76 495.07 670.84 1295.95 422.88 1537.70 470.91 1370.92 588.59 1277.05 676.37 1463.70 716.14
00009493 00000054 1183.40 168.92 500.08 685.62 1298.48 422.16 1538.88 472.05 1370.79 589.73 1279.22 678.07 1466.07 719.07
00009494 00000055 1183.66 166.81 498.78 690.65 1298.76 421.76 1538.21 471.04 1371.12 589.72 1280.74 679.19 1467.20 719.63
00009495 00000056 1183.61 174.41 500.11 680.89 1299.20 421.23 1539.12 470.31 1372.25 589.02 1281.32 678.21 1467.51 718.37
00009496 00000057 1184.17 174.53 497.96 678.69 1298.91 420.41 1538.84 470.00 1371.92 588.37 1279.55 676.72 1466.78 717.37
00009497 00000058 1184.00 173.86 496.93 679.29 1298.92 420.17 1538.56 469.81 1371.77 587.65 1279.25 676.12 1466.93 716.95
00009498 00000059 1184.32 171.62 499.01 681.08 1298.01 418.78 1537.86 467.92 1370.49 587.56 1280.95 676.90 1467.33 717.26
00009499 00000060 1184.01 172.76 497.66 678.21 1297.19 420.58 1536.15 468.68 1368.99 587.59 1281.39 677.35 1464.59 717.07
00009500 00000061 1182.47 171.33 503.37 682.12 1300.13 418.90 1537.04 469.80 1380.88 585.38 1285.92 674.14 1457.83 717.91
00009501 00000062 1182.99 174.32 498.62 680.44 1296.75 419.12 1532.77 467.32 1365.11 585.79 1279.48 678.99 1456.60 719.23
00009502 00000063 1183.02 174.95 495.96 677.09 1294.43 420.22 1531.43 468.94 1361.80 587.31 1275.55 678.93 1453.92 719.75
00009503 00000064 1180.56 176.01 497.49 674.76 1292.54 421.70 1529.28 469.79 1359.87 587.67 1273.48 678.46 1451.89 718.78
00009504 00000065 1175.98 170.75 502.96 676.65 1291.79 418.79 1530.15 470.81 1371.34 585.22 1275.75 670.79 1449.51 715.75
00009505 00000066 1173.20 168.08 504.31 677.67 1288.77 416.50 1530.47 469.83 1370.47 586.24 1271.65 667.49 1453.27 713.45
00009506 00000067 1176.52 178.63 496.13 668.20 1288.22 417.74 1526.45 467.45 1357.25 587.67 1264.37 669.27 1454.12 710.57
00009507 00000068 1176.15 173.40 496.21 675.29 1289.00 417.93 1526.17 467.91 1357.28 587.81 1263.70 668.21 1454.82 709.71
00009508 00000069 1171.18 163.63 502.67 684.66 1286.11 418.06 1527.35 470.23 1368.32 585.32 1268.36 666.40 1454.53 711.32
00009509 00000070 1175.28 176.49 497.56 679.52 1288.81 420.27 1525.45 469.94 1357.64 589.47 1266.07 674.38 1453.65 715.69
00009510 00000071 1174.59 175.75 496.51 679.63 1289.17 420.88 1525.56 471.04 1358.59 591.86 1265.90 674.24 1453.90 716.28
00009511 00000072 1173.53 173.46 497.41 678.59 1290.71 421.47 1527.73 472.58 1360.56 591.09 1265.73 672.30 1453.76 715.25
00009512 00000073 1173.80 173.57 497.47 678.21 1290.78 420.80 1528.60 472.11 1361.65 591.64 1265.72 672.72 1455.08 715.89
00009513 00000074 1175.32 173.51 498.38 677.83 1290.55 421.85 1528.72 473.04 1360.88 592.76 1266.33 674.33 1455.00 717.26
00009514 00000075 1175.39 172.31 497.53 681.23 1290.41 422.39 1528.04 473.83 1359.71 593.64 1265.05 674.84 1453.68 718.07
00009515 00000076 1175.50 173.20 497.67 681.24 1291.12 423.65 1528.43 475.72 1360.30 594.38 1265.15 676.47 1452.12 720.25
00009516 00000077 1175.42 170.70 497.24 685.12 1291.43 423.91 1528.79 475.21 1361.56 595.25 1265.49 676.89 1453.63 720.06
00009517 00000078 1175.36 176.19 500.50 677.05 1291.06 424.26 1529.26 475.87 1361.55 595.69 1266.27 677.01 1453.12 720.36
00009518 00000079 1176.93 177.64 496.46 673.94 1290.87 424.90 1528.70 476.40 1361.97 596.53 1265.50 676.79 1452.63 720.08
00009519 00000080 1176.86 176.29 493.09 675.83 1289.98 424.93 1527.55 476.87 1360.85 597.11 1264.35 677.54 1450.64 721.31
00009520 00000081 1176.55 175.52 494.97 676.99 1290.03 425.36 1526.80 476.56 1359.92 597.82 1264.26 677.71 1449.01 720.88
00009521 00000082 1176.54 176.68 495.20 676.26 1290.14 425.73 1525.78 476.98 1359.28 597.48 1265.24 678.06 1448.37 721.15
00009522 00000083 1176.25 175.19 494.95 678.40 1290.03 425.11 1525.76 476.36 1358.88 595.55 1265.09 678.39 1447.90 721.54
00009523 00000084 1175.60 173.80 497.57 679.90 1290.00 424.23 1525.85 475.96 1356.77 593.58 1264.94 677.87 1446.91 721.31
00009524 00000085 1176.01 171.62 495.05 682.60 1289.89 423.24 1525.71 474.62 1356.80 593.16 1265.08 677.66 1447.72 720.75
00009525 00000086 1174.98 171.65 496.32 682.38 1289.95 423.51 1525.50 474.80 1356.54 592.84 1265.59 676.46 1448.39 719.42
00009526 00000087 1175.61 172.80 496.75 680.13 1289.89 423.55 1525.70 474.81 1356.08 593.28 1265.81 676.80 1447.89 719.67
00009527 00000088 1176.03 172.66 495.88 680.98 1289.80 423.55 1526.07 473.53 1356.79 592.77 1266.64 678.05 1448.62 719.91
00009528 00000089 1173.16 163.24 502.84 682.23 1288.59 422.36 1529.40 476.77 1368.62 589.84 1270.16 671.61 1449.73 718.40
00009529 00000090 1174.15 163.75 502.47 681.57 1289.40 422.71 1530.54 476.14 1369.70 589.47 1271.02 672.48 1450.53 718.48
00009530 00000091 1175.58 165.51 501.63 680.45 1289.85 422.89 1531.71 476.50 1370.86 590.67 1271.89 672.93 1452.05 718.96
00009531 00000092 1177.30 162.84 501.56 684.91 1289.66 423.33 1533.24 475.66 1371.27 590.48 1272.83 675.22 1454.08 720.25
00009532 00000093 1180.19 172.29 496.93 681.16 1292.29 424.45 1530.42 473.70 1359.23 590.97 1269.67 680.16 1452.91 721.22
00009533 00000094 1181.51 174.69 492.13 678.72 1292.78 424.69 1530.27 474.25 1360.19 591.15 1270.41 680.33 1453.74 721.58
00009534 00000095 1181.37 174.74 493.35 678.40 1293.56 425.06 1530.67 474.69 1360.53 590.75 1270.19 679.69 1453.94 720.97
00009535 00000096 1182.35 177.34 489.68 674.44 1292.14 424.35 1530.20 473.33 1360.29 590.63 1269.92 679.65 1454.53 720.51
00009536 00000097 1182.02 177.28 491.48 672.09 1292.23 424.00 1530.93 472.23 1360.94 589.45 1270.76 678.30 1454.99 718.46
00009537 00000098 1182.25 174.45 494.88 672.61 1292.77 423.62 1531.48 472.22 1360.41 587.88 1271.61 677.84 1454.74 718.25
00009538 00000099 1182.74 176.28 495.98 669.87 1292.90 422.91 1532.08 472.09 1359.68 587.15 1271.73 677.11 1455.00 717.98
00009539 00000100 1182.02 176.21 496.83 672.16 1293.18 423.73 1532.07 472.01 1360.97 587.54 1273.36 678.30 1456.26 718.42
00009540 00000101 1182.01 179.54 494.84 669.50 1291.76 424.59 1531.37 472.17 1360.34 588.36 1272.84 680.13 1455.92 719.70
00009541 00000102 1181.57 171.99 495.47 676.55 1293.51 424.34 1531.86 473.75 1360.26 588.74 1272.32 678.74 1454.83 719.91
00009542 00000103 1182.50 173.52 492.51 674.49 1293.31 424.52 1531.19 473.89 1360.36 589.07 1271.98 679.23 1453.45 720.40
00009543 00000104 1182.86 175.71 493.34 671.90 1293.32 424.73 1530.87 475.18 1358.99 589.17 1270.79 678.30 1452.23 720.22
00009544 00000105 1182.52 174.98 493.18 672.96 1293.61 423.77 1531.21 475.06 1359.27 589.17 1270.61 678.01 1452.19 720.67
00009545 00000106 1183.71 173.17 493.37 675.46 1293.59 423.06 1531.51 474.38 1358.61 588.98 1270.47 678.51 1452.28 721.31
00009546 00000107 1179.12 165.89 503.08 678.29 1291.26 421.35 1533.26 474.27 1371.32 588.14 1274.50 672.36 1452.88 717.73
00009547 00000108 1179.90 164.94 505.03 677.51 1291.72 420.04 1532.70 473.18 1370.74 585.91 1274.43 670.97 1451.30 716.62
00009548 00000109 1178.80 171.05 508.21 671.63 1290.98 418.30 1531.50 471.66 1369.01 584.16 1274.48 669.59 1449.53 715.37
00009549 00000110 1178.98 172.79 510.88 666.91 1291.86 414.35 1530.07 469.27 1367.10 580.80 1274.10 665.28 1446.44 712.30
00009550 00000111 1182.36 165.73 496.62 668.74 1293.81 410.38 1528.45 463.96 1353.73 569.39 1266.56 661.10 1445.17 705.62
00009551 00000112 1171.57 142.86 508.34 681.06 1283.81 398.09 1516.58 448.19 1355.69 555.06 1266.92 646.82 1435.78 689.67
00009552 DELETE   1166.89 123.67 500.85 684.14 1273.41 379.43 1502.33 428.91 1335.63 535.12 1253.39 631.99 1416.01 675.59
00009553 DELETE   1160.47 120.96 503.40 685.15 1260.85 369.04 1490.23 415.99 1318.73 521.90 1240.07 627.62 1399.82 669.22
00009554 00000115 1151.76 115.43 499.67 706.89 1246.92 361.57 1473.41 404.91 1299.46 512.74 1227.34 629.43 1386.46 668.57
00009555 00000116 1146.39 92.72 500.91 730.53 1237.23 361.70 1464.72 404.31 1286.68 506.95 1217.77 628.08 1383.70 666.18
00009556 00000117 1136.82 101.79 500.08 714.26 1226.75 365.12 1454.46 409.38 1275.32 511.09 1207.38 626.71 1379.05 665.48
00009557 00000118 1135.14 96.70 496.86 715.26 1219.79 367.08 1447.48 410.49 1268.26 513.76 1202.39 625.43 1378.12 662.93
00009558 00000119 1133.47 105.47 495.62 706.98 1216.77 369.04 1442.60 410.08 1264.08 516.37 1202.36 629.57 1375.60 664.63
00009559 00000120 1130.40 104.84 496.31 706.35 1215.85 369.38 1439.31 409.51 1262.41 516.29 1202.40 628.13 1374.93 662.18
00009560 00000121 1129.32 108.03 497.02 702.74 1214.89 369.44 1440.11 408.62 1263.17 514.83 1202.11 627.87 1375.49 661.14
00009561 00000122 1127.84 107.14 498.46 706.74 1215.71 369.78 1439.65 406.53 1263.50 513.15 1202.78 627.84 1375.55 659.17
00009562 00000123 1126.81 108.07 499.81 704.69 1216.51 368.51 1439.21 404.96 1263.94 511.51 1204.38 626.29 1375.76 657.38
00009563 00000124 1126.67 110.31 496.28 700.48 1215.65 368.44 1439.48 403.56 1265.07 511.51 1204.84 626.24 1376.19 656.02
00009564 00000125 1125.02 109.44 498.56 701.54 1214.19 368.34 1438.48 402.81 1264.69 511.38 1204.36 626.30 1376.66 655.55
00009565 00000126 1124.05 108.11 496.84 702.50 1212.94 370.08 1437.65 402.69 1264.10 512.18 1203.21 628.35 1376.65 655.95
00009566 00000127 1123.18 110.19 496.06 699.81 1212.03 372.46 1437.75 403.42 1265.85 513.29 1203.43 630.19 1377.30 656.37
00009567 00000128 1124.37 110.88 493.79 695.29 1211.79 372.05 1437.63 404.15 1266.63 514.83 1203.67 628.43 1378.67 655.45
00009568 00000129 1123.52 108.69 495.61 693.08 1210.50 371.19 1437.51 404.32 1265.73 514.03 1201.08 626.38 1377.37 654.28
00009569 00000130 1129.69 106.90 489.96 690.53 1201.31 370.72 1436.39 409.50 1260.22 519.55 1199.98 624.20 1375.51 657.68
00009570 00000131 1129.40 107.70 491.31 688.43 1201.63 370.04 1436.66 408.45 1260.98 517.60 1200.97 623.80 1375.75 656.98
00009571 00000132 1129.39 107.39 496.62 685.91 1201.76 368.79 1439.04 407.40 1264.13 517.86 1203.31 621.77 1377.91 655.12
00009572 00000133 1132.37 108.06 494.08 682.80 1206.43 369.48 1439.95 410.68 1266.77 515.37 1205.12 618.97 1376.17 654.58
00009573 00000134 1131.11 109.59 497.09 680.22 1205.40 366.38 1441.77 405.92 1269.61 515.06 1205.58 619.74 1377.81 653.90
00009574 00000135 1132.12 106.79 499.77 683.69 1206.63 365.56 1444.74 405.25 1271.18 512.43 1207.10 619.80 1379.08 653.96
CROP_BBOX: 823 0 1917 1022
