Video ID: 	dSeMvTe_ASU
H: 	1080
W: 	1920
FPS: 	25.0

FRAME INDEX X0 Y0 W H [Landmarks (5 Points)]

00023871 00000000 1150.48 112.61 387.98 550.10 1238.96 359.10 1407.30 340.93 1328.37 432.61 1288.27 543.28 1419.04 528.58
00023872 DELETE   1155.94 114.38 380.37 551.06 1243.69 362.04 1410.15 346.95 1330.76 434.67 1289.40 546.51 1416.91 535.00
00023873 DELETE   1158.78 113.79 377.80 556.60 1244.99 364.36 1411.35 349.30 1330.81 437.32 1289.23 552.29 1414.92 540.88
00023874 00000003 1159.26 114.22 378.26 556.60 1245.76 363.76 1412.72 349.08 1329.94 439.14 1289.29 554.06 1412.62 543.21
00023875 00000004 1158.05 113.93 379.56 558.08 1244.90 361.94 1410.88 348.83 1328.77 440.50 1288.85 554.22 1410.56 544.50
00023876 00000005 1156.97 113.57 382.64 556.90 1243.54 361.03 1411.07 348.75 1327.58 440.49 1288.04 552.06 1412.14 542.82
00023877 00000006 1155.41 112.31 385.22 554.31 1242.31 360.61 1412.08 348.25 1327.42 440.94 1286.64 546.87 1416.75 537.12
00023878 00000007 1154.42 113.55 386.59 548.56 1240.15 361.45 1413.41 346.85 1328.10 441.87 1284.92 544.91 1420.88 532.95
00023879 00000008 1153.89 113.20 387.75 545.76 1238.93 361.20 1413.72 346.06 1327.99 442.01 1284.51 543.69 1423.33 531.01
00023880 00000009 1153.41 113.82 387.97 545.73 1238.92 361.07 1413.00 346.15 1327.62 442.22 1284.37 543.19 1422.75 530.73
00023881 00000010 1153.71 114.31 385.67 547.16 1237.06 362.09 1413.82 346.76 1326.33 443.92 1282.21 544.42 1425.06 531.57
00023882 00000011 1153.85 112.57 384.37 552.25 1236.83 362.58 1412.98 348.59 1325.47 445.59 1280.91 545.64 1422.80 533.95
00023883 00000012 1155.19 112.03 383.05 560.46 1236.99 365.15 1413.61 348.61 1325.17 444.50 1282.55 550.79 1424.44 537.22
00023884 00000013 1157.20 109.23 381.64 576.72 1236.79 366.54 1414.34 349.43 1321.69 446.50 1279.13 558.01 1421.83 544.36
00023885 00000014 1156.55 109.10 381.10 570.42 1235.29 365.89 1414.29 349.64 1321.93 447.25 1277.85 552.77 1425.67 539.28
00023886 DELETE   1155.04 108.67 381.59 567.39 1232.99 364.41 1413.21 348.87 1319.98 445.57 1275.16 550.76 1424.56 537.66
00023887 00000016 1154.28 109.47 382.13 568.16 1232.37 365.04 1411.97 348.93 1318.98 445.45 1274.83 550.25 1424.70 536.61
00023888 00000017 1153.22 108.71 383.01 568.02 1232.97 364.04 1410.77 347.32 1319.05 442.64 1276.52 550.52 1421.52 536.76
00023889 00000018 1154.73 107.17 382.40 577.35 1234.14 363.35 1409.99 344.90 1318.54 439.81 1277.41 555.31 1417.78 540.55
00023890 00000019 1153.85 105.56 383.26 570.69 1234.71 360.78 1410.22 344.32 1321.13 435.85 1277.63 548.00 1420.31 534.45
00023891 00000020 1155.21 107.40 382.57 564.07 1235.32 358.56 1410.26 340.30 1322.29 434.03 1279.56 545.28 1422.65 530.05
00023892 00000021 1156.75 107.92 382.39 562.85 1237.73 355.62 1412.73 337.72 1324.79 431.74 1279.91 544.01 1423.35 529.23
00023893 DELETE   1157.36 105.99 382.24 568.92 1241.34 352.77 1411.70 334.81 1326.28 430.77 1282.60 549.21 1415.73 535.03
00023894 00000023 1159.10 106.29 378.25 568.68 1242.89 351.68 1409.26 331.95 1326.63 427.24 1286.55 552.67 1410.05 537.60
00023895 00000024 1158.66 105.94 378.56 567.24 1243.49 349.79 1407.09 331.51 1326.51 425.11 1287.06 551.91 1405.82 538.41
00023896 00000025 1158.00 106.30 379.64 568.16 1242.99 350.67 1407.54 331.77 1326.24 425.77 1287.56 553.29 1406.36 539.32
00023897 00000026 1158.29 105.55 378.69 572.74 1242.81 353.30 1407.42 333.82 1325.23 426.86 1287.56 556.25 1407.29 541.87
00023898 00000027 1158.10 107.70 380.00 572.48 1243.75 354.69 1409.48 335.52 1325.87 426.40 1286.76 557.67 1407.26 543.69
00023899 00000028 1159.93 109.64 378.30 574.60 1245.99 356.72 1411.06 338.84 1327.98 429.75 1287.56 559.11 1407.99 546.15
00023900 DELETE   1160.88 109.38 380.96 574.56 1246.70 358.46 1414.29 340.50 1329.40 429.67 1287.10 558.56 1411.65 545.39
00023901 DELETE   1163.22 106.86 384.00 572.64 1249.68 359.22 1421.43 340.17 1334.55 431.40 1290.11 554.36 1424.62 539.67
00023902 DELETE   1166.07 109.37 386.47 554.94 1251.99 360.04 1425.42 341.10 1338.40 434.35 1293.16 546.83 1430.82 531.48
00023903 00000032 1169.14 112.03 386.96 544.84 1252.25 364.13 1428.76 344.67 1339.47 438.55 1294.33 546.42 1436.56 530.13
00023904 00000033 1171.95 113.07 386.47 544.33 1255.97 366.76 1432.97 348.28 1342.01 442.93 1295.86 547.82 1439.28 532.40
00023905 00000034 1173.01 116.23 385.44 542.15 1257.23 369.52 1431.46 350.87 1342.70 447.09 1297.37 547.64 1439.78 532.18
00023906 00000035 1175.00 117.56 382.40 543.57 1257.28 371.94 1430.61 354.16 1341.70 450.75 1297.20 550.42 1437.92 535.77
00023907 00000036 1173.95 118.80 382.81 543.93 1256.12 374.24 1429.38 356.75 1339.66 453.51 1296.56 553.31 1436.43 538.83
00023908 00000037 1175.77 118.97 380.33 545.69 1256.08 376.81 1429.27 359.29 1338.56 455.92 1295.77 555.96 1435.06 541.47
00023909 00000038 1176.94 119.65 376.84 547.42 1255.90 379.71 1429.12 362.88 1338.01 460.39 1295.38 558.31 1435.36 544.35
00023910 00000039 1176.16 119.90 377.36 547.64 1254.82 382.29 1429.50 365.72 1337.70 462.82 1294.92 559.79 1436.80 545.81
00023911 00000040 1177.19 122.03 374.84 546.84 1254.55 385.40 1429.10 367.86 1337.78 464.82 1294.92 562.25 1436.57 547.51
00023912 00000041 1174.49 122.21 377.20 548.00 1252.26 387.19 1425.72 369.73 1335.42 467.80 1294.31 563.47 1434.73 548.66
00023913 00000042 1172.37 121.74 378.76 549.34 1250.28 387.75 1424.56 369.48 1333.49 469.10 1292.90 564.43 1433.98 549.08
00023914 00000043 1169.44 125.75 379.50 546.16 1248.12 387.87 1422.50 368.17 1332.64 469.74 1293.14 565.77 1433.07 549.47
00023915 00000044 1167.73 123.27 378.99 550.19 1247.19 386.80 1421.13 368.22 1331.96 471.71 1292.48 566.27 1431.45 550.90
00023916 00000045 1166.48 124.43 379.05 549.87 1245.95 386.43 1419.64 367.93 1330.97 472.03 1292.05 566.73 1430.12 551.47
00023917 00000046 1165.69 125.41 380.56 549.68 1245.27 386.99 1418.28 367.95 1330.68 472.41 1292.73 567.41 1429.39 551.63
00023918 00000047 1164.98 126.18 380.25 549.30 1244.53 386.82 1417.90 367.90 1329.47 473.25 1291.96 567.81 1428.57 552.28
00023919 00000048 1164.57 125.99 380.10 549.48 1244.51 386.73 1417.62 367.55 1329.82 473.15 1292.42 567.95 1428.71 552.18
00023920 00000049 1164.66 125.66 380.08 549.64 1244.72 386.31 1417.80 367.47 1329.62 473.03 1292.51 567.96 1428.81 552.46
00023921 00000050 1163.77 124.85 381.03 551.16 1244.00 386.51 1418.34 367.44 1329.18 473.29 1291.50 568.57 1429.48 552.92
00023922 00000051 1163.90 125.41 381.05 550.49 1244.30 386.62 1418.31 367.59 1329.22 473.30 1291.99 568.82 1429.02 553.24
00023923 00000052 1163.63 123.88 381.62 552.71 1243.98 386.86 1418.46 367.63 1329.20 473.05 1291.95 569.45 1429.50 553.66
00023924 00000053 1163.27 124.85 381.58 552.35 1243.82 387.01 1417.97 367.90 1329.36 472.80 1291.68 569.40 1429.13 553.70
00023925 00000054 1163.47 125.54 381.85 551.31 1243.80 387.11 1417.98 368.44 1328.71 473.01 1291.54 569.05 1428.88 553.72
00023926 00000055 1163.67 125.69 380.97 550.90 1243.81 387.17 1417.45 368.79 1328.20 473.05 1291.42 569.09 1428.05 554.02
00023927 00000056 1163.98 125.91 380.69 550.18 1244.35 387.06 1418.17 368.68 1329.11 473.14 1291.90 568.84 1428.69 553.77
00023928 00000057 1163.82 125.82 380.49 550.59 1244.25 387.35 1418.34 368.55 1329.21 473.76 1292.23 569.42 1429.62 554.02
00023929 00000058 1164.23 125.24 380.63 551.47 1244.39 386.92 1418.42 368.66 1328.97 473.82 1292.19 569.66 1429.00 554.67
00023930 00000059 1164.42 124.36 380.48 552.04 1244.83 386.83 1419.10 368.80 1330.01 474.23 1292.44 569.47 1429.70 554.63
00023931 00000060 1164.62 123.86 380.32 552.83 1245.21 386.98 1418.90 368.93 1330.38 473.71 1292.70 569.41 1429.42 554.51
00023932 00000061 1164.29 124.04 380.64 552.99 1245.05 387.22 1418.25 369.09 1330.05 473.88 1292.96 569.56 1428.97 554.56
00023933 00000062 1163.82 124.86 381.64 552.33 1245.04 387.25 1418.46 368.74 1329.82 473.64 1292.40 569.45 1428.74 554.22
00023934 00000063 1164.11 124.79 381.36 552.40 1245.03 387.23 1418.55 368.77 1329.74 473.66 1292.29 569.37 1428.85 554.26
00023935 00000064 1164.37 124.30 380.35 553.15 1245.21 387.38 1418.85 369.21 1330.05 473.80 1292.12 569.35 1429.29 554.41
00023936 00000065 1164.37 124.65 381.60 553.66 1245.23 388.04 1419.05 368.68 1329.88 473.83 1292.41 569.77 1429.57 553.88
00023937 00000066 1164.43 124.56 381.31 554.73 1246.02 388.62 1418.78 370.00 1330.13 473.50 1292.87 570.20 1428.21 554.95
00023938 00000067 1166.13 125.90 376.44 554.52 1249.58 390.80 1415.61 373.54 1331.48 470.40 1295.93 571.44 1421.86 557.77
00023939 00000068 1165.33 127.05 378.89 556.74 1250.42 390.42 1414.79 373.57 1331.35 468.27 1297.07 574.97 1418.86 562.00
00023940 00000069 1162.82 125.95 381.00 558.95 1248.70 387.44 1413.04 371.82 1330.05 468.08 1297.83 575.37 1417.13 563.58
00023941 00000070 1162.18 125.69 380.32 558.49 1248.78 385.86 1412.15 370.99 1331.10 469.10 1298.95 574.01 1416.96 562.76
00023942 00000071 1162.79 125.80 379.05 557.09 1248.28 385.82 1411.65 370.88 1330.42 470.33 1297.93 573.46 1416.66 562.16
00023943 00000072 1162.19 125.52 380.50 556.27 1246.71 387.18 1412.72 369.53 1330.80 471.65 1297.74 572.65 1421.73 558.81
00023944 00000073 1161.18 127.76 383.36 552.26 1244.57 388.38 1414.12 369.48 1328.56 471.85 1294.39 571.49 1423.44 556.41
00023945 00000074 1161.03 128.43 383.26 554.33 1243.17 388.64 1413.81 369.47 1326.18 472.45 1292.44 573.31 1422.47 558.24
00023946 00000075 1161.37 127.08 380.62 564.42 1244.00 389.47 1413.13 369.24 1327.26 473.57 1293.19 576.40 1423.84 560.54
00023947 00000076 1160.51 129.76 382.01 567.33 1242.99 389.54 1411.47 369.84 1325.14 475.53 1292.41 578.99 1422.68 563.76
00023948 00000077 1159.62 129.50 383.39 568.00 1241.46 390.78 1411.79 371.17 1323.70 480.00 1290.25 578.50 1424.05 562.99
00023949 00000078 1158.24 130.96 383.74 565.55 1239.49 390.36 1411.70 371.43 1322.53 481.34 1287.80 578.25 1423.59 563.23
00023950 00000079 1157.57 132.85 383.84 567.61 1238.87 391.51 1410.85 371.95 1321.45 482.71 1285.64 578.98 1423.16 563.49
00023951 DELETE   1162.58 143.53 383.93 566.06 1238.23 396.98 1411.24 371.41 1327.38 483.34 1285.49 586.94 1430.70 566.66
00023952 00000081 1161.45 145.82 384.69 563.67 1236.46 400.54 1410.78 375.28 1326.89 485.99 1285.95 589.59 1432.35 569.24
00023953 00000082 1156.52 140.94 385.08 560.60 1239.98 400.43 1409.38 379.15 1323.27 488.42 1287.59 583.88 1422.80 566.81
00023954 00000083 1153.79 141.31 387.71 550.55 1238.99 399.48 1409.73 378.88 1324.25 487.49 1288.77 580.30 1422.24 563.63
00023955 00000084 1152.20 141.96 389.65 550.76 1238.13 399.06 1409.54 378.62 1324.03 487.79 1288.32 580.57 1421.58 564.00
00023956 00000085 1152.33 141.93 389.37 551.84 1237.91 400.02 1409.54 378.86 1323.79 488.16 1287.59 581.31 1421.67 564.22
00023957 00000086 1151.36 143.13 389.92 549.37 1237.16 400.33 1410.71 379.32 1323.99 488.33 1285.95 580.49 1423.09 563.42
00023958 00000087 1151.93 141.61 389.14 553.87 1236.81 400.87 1412.02 380.40 1323.41 489.59 1283.27 581.31 1423.86 564.72
00023959 00000088 1153.10 142.91 386.82 554.21 1238.07 400.77 1409.86 380.34 1322.72 488.38 1285.41 583.24 1420.77 567.05
00023960 00000089 1154.01 144.00 385.89 554.88 1238.12 400.85 1410.01 380.54 1322.80 489.84 1285.23 585.52 1419.74 569.54
00023961 00000090 1154.24 143.17 385.51 555.54 1238.14 401.31 1409.72 380.62 1322.78 489.33 1285.75 585.13 1420.37 568.76
00023962 00000091 1154.37 142.17 385.37 557.49 1237.94 401.33 1409.33 381.13 1322.41 489.66 1285.90 585.61 1420.24 569.68
00023963 00000092 1154.56 142.92 384.92 556.14 1238.19 401.87 1409.65 381.88 1322.50 489.94 1285.93 586.28 1419.61 570.64
00023964 00000093 1154.44 142.12 384.82 557.06 1238.03 401.90 1409.65 382.17 1322.34 490.39 1285.45 586.06 1420.07 570.54
00023965 00000094 1154.13 141.75 384.15 557.18 1237.65 402.50 1409.82 382.53 1322.57 491.16 1285.19 586.32 1420.74 570.54
00023966 00000095 1154.27 140.74 383.72 557.55 1237.47 402.75 1410.08 382.64 1322.85 491.01 1285.45 586.39 1421.22 570.45
00023967 00000096 1153.26 141.83 385.01 556.38 1237.27 402.99 1410.29 382.64 1323.13 491.21 1285.65 586.82 1421.30 570.69
00023968 00000097 1153.10 142.22 384.92 554.89 1237.10 403.00 1409.92 382.35 1323.48 491.49 1286.05 586.26 1421.32 569.86
00023969 00000098 1154.12 141.71 385.17 557.99 1237.83 402.07 1408.71 381.59 1322.85 490.48 1287.67 587.22 1419.63 570.99
00023970 00000099 1158.15 149.84 387.40 562.72 1237.44 404.42 1407.25 381.60 1327.90 490.66 1292.09 598.53 1420.97 581.03
00023971 00000100 1157.50 150.48 384.98 570.63 1238.51 404.33 1407.84 382.80 1328.09 490.83 1295.59 605.62 1417.66 589.50
00023972 00000101 1157.22 150.13 386.95 578.36 1240.12 404.41 1407.78 381.13 1328.97 489.72 1298.19 608.87 1418.54 591.46
00023973 00000102 1156.72 148.83 387.64 584.20 1239.95 404.14 1408.07 380.19 1329.60 490.72 1299.36 612.40 1418.65 594.57
00023974 00000103 1156.57 149.86 386.98 585.58 1240.66 403.85 1408.42 379.19 1330.75 490.20 1299.80 613.23 1418.93 594.74
00023975 00000104 1156.11 148.14 386.79 587.84 1240.90 402.80 1408.91 379.66 1330.77 491.88 1299.73 614.23 1418.07 596.81
00023976 00000105 1156.37 150.66 388.62 583.19 1240.67 404.47 1407.92 379.79 1330.28 491.87 1300.60 613.52 1418.61 594.95
00023977 00000106 1157.30 150.92 390.29 570.09 1239.31 405.05 1406.37 381.56 1328.01 491.13 1297.01 606.55 1416.52 589.15
00023978 00000107 1159.04 152.24 389.06 554.54 1238.55 403.21 1407.08 381.39 1326.92 489.32 1293.70 599.88 1415.47 583.38
00023979 00000108 1161.17 150.99 387.88 547.50 1238.24 400.71 1407.59 379.25 1324.75 482.97 1292.02 594.89 1414.99 578.29
00023980 DELETE   1161.77 149.60 386.65 549.16 1238.42 398.86 1407.61 377.54 1324.83 481.38 1291.60 593.87 1414.57 577.76
00023981 DELETE   1161.85 146.07 384.37 552.00 1239.27 396.64 1409.34 376.43 1326.65 479.34 1291.74 593.15 1414.60 578.02
00023982 00000111 1156.03 134.85 386.38 562.39 1242.66 389.18 1406.04 374.50 1320.94 477.74 1290.03 583.23 1407.20 573.12
00023983 DELETE   1154.70 132.64 387.91 560.07 1242.66 387.46 1406.96 373.32 1322.34 476.00 1290.86 579.42 1408.70 569.57
00023984 DELETE   1154.40 131.73 387.34 559.66 1242.71 386.21 1406.74 372.89 1322.92 474.69 1291.86 578.39 1408.47 569.15
00023985 00000114 1153.88 132.28 385.68 557.68 1242.88 385.61 1407.63 372.98 1323.49 473.61 1290.83 576.34 1408.53 567.64
00023986 00000115 1153.46 132.92 386.15 559.95 1241.99 385.76 1406.85 371.95 1322.55 472.54 1289.93 577.25 1408.52 567.70
00023987 00000116 1155.26 132.40 383.05 566.02 1241.41 387.62 1407.82 370.48 1322.65 469.65 1289.69 580.98 1412.04 568.71
00023988 00000117 1157.35 131.04 382.16 569.44 1240.33 388.44 1409.60 368.39 1322.59 471.13 1287.98 579.24 1418.58 564.14
00023989 00000118 1157.16 130.49 382.88 568.11 1239.95 387.81 1410.20 367.60 1321.35 470.70 1283.70 574.60 1419.21 559.23
00023990 DELETE   1157.00 131.34 383.59 561.23 1238.91 387.85 1411.59 367.78 1321.26 471.93 1282.57 572.57 1420.38 557.05
00023991 00000120 1155.80 129.72 385.42 552.03 1237.39 387.26 1413.35 366.34 1323.19 472.30 1286.17 570.28 1425.37 553.38
00023992 00000121 1156.68 129.87 384.76 555.05 1238.31 387.03 1412.81 366.28 1323.13 471.63 1286.33 570.56 1424.63 553.89
00023993 00000122 1158.60 130.38 383.10 559.62 1240.05 386.92 1413.06 367.99 1322.46 473.37 1285.66 573.64 1420.68 559.00
00023994 DELETE   1157.67 129.31 383.74 559.16 1240.80 387.96 1412.55 370.46 1323.44 472.40 1288.55 575.26 1418.97 561.91
CROP_BBOX: 885 0 1789 865
