Video ID: 	C2GmjWeE_DA
H: 	1080
W: 	1920
FPS: 	23.976023976023978

FRAME INDEX X0 Y0 W H [Landmarks (5 Points)]

00018545 00000000 797.94 222.12 471.15 636.61 860.34 512.85 1045.23 503.46 916.03 624.80 899.08 727.57 1039.89 719.80
00018546 00000001 798.68 215.59 468.34 636.16 861.50 506.20 1043.21 499.41 913.10 615.80 896.57 718.40 1033.54 712.84
00018547 00000002 799.82 212.78 467.67 636.86 859.35 496.79 1052.05 491.59 909.55 608.72 896.19 719.93 1036.82 714.56
00018548 00000003 797.72 208.98 469.78 645.78 857.52 496.40 1053.47 488.77 908.94 606.03 895.11 722.76 1037.32 715.32
00018549 DELETE   788.08 208.61 474.57 646.97 848.12 493.45 1050.99 488.07 904.55 608.51 888.25 724.96 1032.88 719.51
00018550 DELETE   782.37 211.90 476.48 645.39 843.50 498.52 1034.64 488.50 900.04 607.53 880.78 722.54 1023.16 714.52
00018551 DELETE   783.39 209.92 471.61 642.74 845.74 495.52 1032.52 486.79 899.01 605.50 881.00 717.84 1021.40 710.63
00018552 00000007 782.12 202.79 466.70 635.19 837.22 482.77 1038.69 481.85 890.87 600.94 872.65 712.39 1021.77 710.57
00018553 00000008 779.26 203.53 467.06 628.07 833.79 471.00 1035.59 473.73 885.15 590.47 866.01 698.06 1014.71 699.27
00018554 00000009 779.62 199.29 468.15 629.54 834.85 466.26 1033.88 469.06 885.38 586.71 866.27 691.18 1015.00 692.54
00018555 00000010 782.57 206.89 464.50 617.99 837.12 471.39 1033.80 473.99 886.13 590.17 870.73 693.08 1014.28 693.93
00018556 00000011 784.45 210.66 463.08 611.64 838.69 472.24 1035.44 474.88 888.58 590.80 871.52 695.78 1012.61 696.78
00018557 00000012 785.39 207.66 466.24 611.90 838.02 467.40 1037.90 468.75 890.38 586.49 871.21 693.35 1011.92 693.61
00018558 00000013 787.21 207.30 465.88 612.21 839.83 466.64 1037.50 465.17 890.62 582.06 871.37 692.40 1011.51 690.60
00018559 00000014 790.00 204.19 463.89 615.29 842.14 465.58 1039.03 465.16 892.62 580.28 872.23 691.13 1011.76 690.39
00018560 00000015 790.82 205.33 464.96 614.71 841.91 467.13 1041.18 466.94 893.81 583.70 873.05 694.39 1013.52 693.95
00018561 00000016 790.68 206.00 464.72 614.11 842.45 467.34 1040.66 466.82 893.24 581.96 873.22 693.66 1012.72 692.88
00018562 00000017 789.45 205.50 463.89 616.72 842.31 466.73 1039.72 466.45 892.22 581.11 872.53 693.08 1011.06 692.48
00018563 00000018 787.89 207.16 464.29 613.40 839.89 466.71 1037.26 464.79 889.58 580.44 871.22 693.98 1009.14 691.79
00018564 00000019 783.84 203.27 464.48 616.07 837.09 466.24 1031.65 463.24 885.31 578.47 871.88 691.13 1009.16 687.86
00018565 DELETE   777.52 195.23 470.29 618.66 831.16 467.96 1026.02 455.91 882.43 571.65 873.41 692.10 1011.33 681.71
00018566 DELETE   766.16 197.83 472.72 612.73 817.22 469.98 1013.91 442.64 874.30 566.47 871.69 694.26 1008.36 671.42
00018567 DELETE   758.21 196.23 469.32 609.35 809.20 475.05 1004.17 437.40 866.60 563.56 866.77 695.70 1002.47 664.68
00018568 00000023 756.51 194.64 469.16 612.33 807.69 475.42 1002.29 435.14 865.26 563.47 865.57 696.17 1002.32 663.00
00018569 00000024 759.40 196.29 468.58 608.90 809.93 474.10 1004.47 434.92 868.22 562.88 868.21 694.93 1004.27 662.73
00018570 00000025 760.84 197.26 470.76 608.31 809.99 471.78 1006.84 434.62 869.00 564.48 868.97 695.47 1005.49 665.01
00018571 00000026 762.55 195.03 470.83 608.53 810.47 470.72 1006.22 435.83 868.20 565.05 867.93 694.59 1003.31 665.97
00018572 00000027 763.32 198.01 470.61 606.68 810.53 469.48 1007.33 435.87 868.24 565.47 867.85 695.43 1003.17 667.95
00018573 00000028 764.58 198.85 470.39 604.76 811.51 468.78 1008.74 436.40 869.19 566.11 867.99 694.60 1003.95 668.13
00018574 00000029 764.56 197.74 470.36 606.30 811.43 469.35 1009.55 436.45 870.04 567.03 867.80 695.86 1005.41 668.89
00018575 00000030 764.33 198.60 471.44 605.49 811.49 469.28 1009.93 435.87 870.63 566.84 868.68 695.44 1006.75 668.06
00018576 00000031 764.64 197.17 471.81 607.02 812.82 468.77 1010.35 435.81 871.90 566.09 870.04 694.59 1007.46 667.45
00018577 00000032 767.25 197.47 470.28 605.15 814.20 468.22 1012.14 436.19 873.32 567.15 871.10 695.07 1008.21 668.75
00018578 00000033 767.11 200.03 470.49 604.96 815.17 467.68 1012.85 437.09 874.79 569.02 872.53 695.53 1008.43 670.41
00018579 00000034 764.87 202.55 472.97 610.81 815.51 470.44 1014.08 439.12 874.54 570.65 872.49 701.80 1009.54 676.05
00018580 00000035 756.43 205.84 478.79 623.32 814.93 475.66 1010.71 444.55 871.77 578.48 874.12 709.42 1010.54 683.58
00018581 00000036 750.33 207.35 476.52 630.85 810.13 484.05 1006.24 449.23 868.47 584.71 870.66 717.49 1007.41 688.51
00018582 00000037 745.78 212.01 476.14 626.05 806.52 487.83 1000.04 450.35 866.28 585.66 869.09 720.47 1000.76 689.33
00018583 00000038 749.03 217.04 478.46 620.96 810.56 495.76 984.23 452.31 861.65 583.96 874.29 715.46 993.36 679.08
00018584 00000039 746.19 205.59 467.80 613.21 805.88 484.27 994.09 443.27 863.44 572.04 866.13 709.11 991.98 675.58
00018585 00000040 755.48 193.24 470.18 618.90 809.87 472.73 1002.08 433.13 866.86 560.21 870.50 701.66 998.65 669.57
00018586 00000041 766.22 187.36 470.40 625.80 817.61 466.14 1007.84 430.47 870.45 556.40 875.86 698.72 1005.10 669.38
00018587 00000042 772.22 185.34 472.25 629.67 823.04 463.88 1014.04 435.96 872.88 559.63 876.46 697.49 1007.47 674.36
00018588 00000043 773.81 188.16 473.94 631.09 827.91 463.07 1017.47 439.08 875.08 558.93 876.85 696.67 1007.31 676.85
00018589 00000044 776.60 189.87 474.96 626.83 831.70 463.54 1020.72 439.89 880.14 556.30 880.60 694.64 1010.10 675.20
00018590 00000045 778.14 190.94 475.26 625.49 835.34 463.57 1022.71 439.79 882.75 553.28 883.27 691.82 1011.03 672.37
00018591 00000046 780.52 186.85 475.32 632.56 839.91 461.79 1025.89 439.35 885.28 550.84 884.51 692.25 1011.69 673.95
00018592 00000047 781.50 190.38 474.26 629.99 839.09 460.49 1027.15 438.51 884.26 550.74 883.42 691.34 1012.53 673.47
00018593 00000048 779.04 188.00 476.48 632.24 837.01 461.37 1024.44 439.53 881.77 552.36 882.11 692.26 1011.02 674.33
00018594 00000049 777.26 192.60 474.60 628.20 835.19 462.52 1024.95 443.64 882.24 557.51 879.88 693.81 1009.95 678.33
00018595 00000050 777.14 192.14 473.27 630.06 835.43 462.81 1023.17 445.14 881.84 560.68 880.92 694.20 1010.08 679.56
00018596 00000051 780.68 194.02 472.39 623.77 838.14 461.84 1025.51 444.43 885.00 559.22 882.96 692.96 1009.99 678.77
00018597 00000052 785.94 194.92 469.95 620.03 841.75 459.96 1029.06 443.78 887.07 554.81 881.79 689.17 1010.14 676.11
00018598 00000053 787.86 191.65 471.78 623.67 843.31 460.78 1031.25 442.41 889.08 553.36 882.20 690.25 1011.81 675.54
00018599 00000054 788.23 192.92 472.33 623.94 844.63 461.75 1033.20 445.61 890.32 554.60 882.00 689.76 1011.69 677.09
00018600 00000055 788.64 195.32 471.47 624.34 844.85 463.82 1031.92 447.45 889.85 558.87 883.31 693.32 1010.98 680.31
00018601 00000056 785.42 196.83 472.89 630.40 843.66 464.21 1032.73 450.34 889.75 564.30 881.87 696.14 1011.85 685.07
00018602 00000057 785.28 197.32 475.29 634.44 844.34 464.62 1033.98 452.17 889.19 564.68 881.53 696.77 1012.40 686.87
00018603 00000058 785.69 197.01 474.42 630.48 843.85 464.08 1032.60 450.09 887.72 560.83 881.02 695.00 1011.62 683.79
00018604 00000059 784.57 195.63 472.15 624.37 841.61 461.62 1031.57 447.95 886.56 559.41 878.57 692.29 1010.04 681.34
00018605 00000060 781.39 193.25 472.74 629.45 838.11 459.04 1027.97 447.43 881.90 560.87 876.33 690.92 1010.07 681.35
00018606 00000061 777.21 191.40 471.85 629.48 831.60 458.68 1023.75 446.91 875.45 561.97 870.65 690.49 1007.53 680.52
00018607 00000062 772.94 193.28 472.77 629.75 826.83 460.03 1020.26 450.24 867.97 564.68 864.30 690.83 1003.15 682.44
00018608 00000063 767.55 191.42 470.70 634.57 821.08 460.24 1017.74 451.46 862.89 567.36 856.83 692.80 997.57 685.40
00018609 00000064 763.67 191.27 470.42 640.02 818.41 461.81 1015.75 451.06 860.63 567.58 853.03 696.51 993.34 687.70
00018610 00000065 761.08 190.42 467.34 640.31 814.11 462.88 1011.82 450.57 856.11 567.70 848.22 697.58 989.13 687.46
00018611 00000066 757.93 190.49 467.55 640.83 812.57 464.23 1009.04 449.66 853.94 566.04 846.61 697.60 986.33 685.71
00018612 00000067 757.51 190.31 466.35 640.84 811.29 464.58 1007.15 449.10 853.74 567.35 845.78 698.91 986.12 686.08
00018613 00000068 755.72 189.47 468.65 639.28 809.96 465.30 1005.95 448.35 852.86 566.32 845.85 699.14 985.09 685.16
00018614 00000069 756.57 189.43 468.69 638.27 809.89 464.56 1006.45 447.06 853.10 565.45 845.85 698.52 985.77 684.10
00018615 00000070 756.60 189.37 468.63 637.04 809.64 464.28 1006.76 446.26 853.65 565.08 845.97 697.70 986.94 682.83
00018616 00000071 757.23 188.24 467.51 636.47 810.79 463.30 1007.60 446.75 854.49 564.34 846.00 695.73 986.88 682.06
00018617 00000072 757.71 188.30 467.85 636.34 810.93 463.96 1007.38 447.66 854.77 565.11 846.06 695.47 987.87 681.87
00018618 00000073 758.94 187.65 466.98 635.47 811.49 464.11 1007.23 448.71 853.68 564.77 845.49 693.52 988.17 680.62
00018619 00000074 759.59 188.11 466.04 635.48 813.15 464.18 1009.03 449.69 855.20 564.48 845.72 692.14 990.16 679.91
00018620 00000075 761.02 186.42 465.37 639.36 814.40 464.49 1010.24 450.40 856.61 565.63 847.51 692.72 992.28 680.83
00018621 00000076 762.85 187.09 466.43 637.79 814.48 463.25 1012.35 451.90 856.93 568.14 847.45 692.39 993.10 682.74
00018622 00000077 763.71 188.90 466.76 633.06 815.88 462.26 1012.35 451.72 857.98 566.80 847.67 689.22 991.93 680.33
00018623 00000078 763.79 188.23 466.62 631.59 817.66 461.47 1014.10 450.93 861.33 564.73 849.10 686.84 993.28 678.06
00018624 00000079 764.29 188.26 468.26 632.71 818.31 460.35 1015.26 451.58 862.13 566.29 849.31 687.41 993.50 680.13
00018625 00000080 765.74 187.79 468.28 633.56 819.51 459.65 1016.63 452.31 863.33 567.43 850.79 689.18 992.62 683.20
00018626 00000081 766.67 189.40 468.13 632.85 819.20 460.43 1016.86 453.29 862.79 567.95 850.09 691.10 990.86 685.44
00018627 00000082 766.49 190.42 466.23 632.52 817.84 462.38 1016.54 454.10 861.93 569.58 848.50 693.85 988.86 687.27
00018628 00000083 762.70 191.19 468.13 640.95 814.65 466.24 1012.97 454.57 857.91 573.14 849.95 699.36 992.47 689.58
00018629 00000084 758.91 197.15 466.19 643.19 812.98 469.92 1010.21 457.83 855.08 574.77 847.04 704.63 987.82 694.64
00018630 00000085 757.11 196.52 468.42 646.28 811.86 469.83 1010.14 457.20 855.01 575.43 847.18 705.81 989.44 695.31
00018631 00000086 757.42 195.61 468.35 644.19 812.12 468.65 1010.80 456.78 854.70 574.21 845.43 703.69 988.28 693.98
00018632 00000087 758.01 193.46 468.81 641.67 812.28 466.53 1010.89 453.42 855.38 570.72 846.09 700.62 987.81 689.93
00018633 00000088 760.31 189.53 467.60 641.98 813.95 464.51 1012.44 451.58 857.03 567.65 846.83 697.39 989.15 686.83
00018634 00000089 761.34 186.57 468.60 640.34 815.45 461.83 1013.19 450.35 858.19 566.69 847.10 694.64 989.29 685.23
00018635 00000090 761.98 185.89 467.07 638.87 815.74 461.01 1013.11 449.62 859.07 566.41 846.60 692.85 989.24 683.53
00018636 00000091 762.52 186.68 465.24 633.71 815.69 461.10 1012.70 450.53 858.40 565.03 845.21 689.48 987.94 680.83
00018637 00000092 762.16 186.68 465.88 635.33 815.80 460.71 1013.22 450.34 858.89 565.18 844.53 689.54 987.89 681.15
00018638 00000093 762.07 187.11 465.19 633.65 815.68 460.79 1013.05 450.49 859.13 565.10 844.79 688.89 987.77 680.55
00018639 00000094 762.92 187.21 465.23 632.65 816.52 460.57 1013.23 450.30 859.82 564.25 845.93 688.33 988.06 680.05
00018640 00000095 763.62 186.79 464.76 633.18 817.84 459.28 1012.97 450.55 859.95 563.35 846.12 685.79 987.89 678.73
00018641 00000096 763.70 186.43 465.59 635.03 818.71 458.97 1013.49 450.39 860.15 563.86 846.91 686.01 988.39 679.11
00018642 00000097 764.60 186.27 463.71 634.18 819.69 458.42 1015.12 450.67 861.76 561.98 846.45 684.00 989.03 677.77
00018643 00000098 765.40 188.77 464.09 631.70 820.30 457.26 1016.11 449.85 862.40 560.16 847.34 681.97 989.94 676.01
00018644 00000099 766.54 187.15 464.13 632.91 821.34 456.90 1017.54 450.30 863.25 559.32 848.61 682.60 991.20 677.15
00018645 00000100 766.65 186.50 464.26 633.29 821.18 457.64 1016.70 449.80 863.06 559.16 849.20 683.17 991.46 676.66
00018646 00000101 766.55 187.94 464.68 629.87 821.23 457.40 1016.62 449.40 864.12 558.46 850.30 682.58 991.30 675.95
00018647 00000102 765.93 187.93 465.02 629.91 820.77 457.30 1016.34 448.47 864.07 558.17 850.18 682.68 991.20 675.41
00018648 00000103 765.89 187.31 465.24 631.53 820.99 457.11 1016.85 447.75 864.65 558.06 850.53 683.41 992.01 675.79
00018649 00000104 765.95 185.34 465.13 635.21 821.91 456.77 1016.63 448.17 864.14 557.45 850.41 683.25 991.89 676.22
00018650 00000105 766.10 187.07 465.54 632.34 822.16 456.36 1017.14 447.95 864.74 557.08 850.97 682.45 991.91 675.60
00018651 00000106 766.10 187.32 464.49 631.61 821.79 456.62 1016.66 447.78 864.40 557.42 850.93 682.64 991.66 675.45
00018652 00000107 765.81 185.27 465.61 633.86 821.14 456.99 1016.78 447.63 864.44 557.31 850.17 683.85 991.13 676.29
00018653 00000108 765.66 187.16 464.42 632.20 821.07 456.84 1017.15 447.75 864.68 557.29 849.73 683.09 991.00 675.77
00018654 00000109 765.64 187.32 464.13 631.26 820.83 457.15 1017.52 448.56 864.91 558.14 848.91 683.58 990.27 676.73
00018655 00000110 765.49 187.90 464.18 630.69 820.66 457.39 1017.15 448.78 864.64 558.35 848.82 683.89 989.78 677.03
00018656 00000111 766.38 187.26 463.01 631.54 821.27 456.99 1017.47 449.12 864.89 557.95 848.19 683.04 989.27 676.87
00018657 00000112 766.48 186.24 462.32 633.65 821.25 455.72 1016.59 448.63 863.84 557.71 847.38 682.01 989.13 676.48
00018658 00000113 766.71 186.16 461.90 634.18 821.30 456.70 1016.58 448.25 864.34 556.32 848.24 682.77 989.20 676.16
00018659 00000114 766.27 186.02 463.22 636.91 820.87 456.90 1016.55 448.64 863.50 557.34 847.57 683.20 990.37 676.70
00018660 00000115 767.14 186.77 462.99 636.20 821.37 457.51 1017.22 449.35 863.92 557.90 847.65 683.80 990.06 677.42
00018661 00000116 764.99 189.65 465.42 638.10 820.64 458.05 1018.19 450.39 863.98 562.41 848.71 686.13 993.91 679.98
00018662 00000117 762.96 197.96 466.58 637.70 815.06 465.36 1015.02 454.75 860.48 572.38 848.42 699.15 992.63 690.36
00018663 00000118 761.95 211.37 466.14 631.40 812.26 472.69 1014.26 461.05 860.16 582.37 848.07 710.45 991.21 700.59
00018664 00000119 761.91 212.57 467.84 631.51 811.99 474.70 1015.08 462.23 861.46 583.62 848.87 713.54 991.98 703.04
00018665 00000120 762.77 207.45 464.89 632.32 813.02 469.73 1016.02 458.23 860.70 576.73 845.99 706.74 990.94 697.12
00018666 00000121 768.09 194.72 464.83 629.63 818.64 461.72 1019.91 454.11 863.48 566.65 846.10 692.40 992.79 686.09
00018667 00000122 769.32 188.23 464.17 632.66 823.05 457.39 1019.83 450.18 866.33 557.54 848.61 683.39 994.15 677.43
00018668 00000123 770.75 184.23 464.13 630.06 825.63 454.68 1019.99 446.20 868.62 551.84 851.49 677.53 995.34 670.53
00018669 00000124 771.70 186.27 464.15 629.83 826.67 453.10 1019.60 443.79 868.51 549.81 852.87 676.86 994.54 669.38
00018670 00000125 772.69 186.00 464.88 632.64 828.77 454.47 1021.57 444.08 870.27 549.42 855.37 680.01 995.78 671.71
00018671 00000126 773.46 183.67 466.44 634.56 830.08 455.18 1022.62 442.64 872.20 547.49 858.73 682.16 997.18 672.08
00018672 00000127 775.12 183.28 467.56 633.66 832.44 453.27 1023.93 442.74 873.63 547.11 859.63 681.32 997.13 672.90
00018673 00000128 776.43 183.96 469.26 633.01 834.18 451.73 1025.81 441.79 875.72 545.17 861.16 680.59 997.79 672.79
00018674 00000129 777.95 182.56 469.16 633.76 836.94 449.57 1028.66 440.51 879.35 543.05 862.25 678.68 998.22 671.78
00018675 00000130 781.13 178.55 469.69 634.47 839.16 448.45 1030.70 438.93 880.94 541.33 864.14 675.70 1001.45 668.63
00018676 00000131 783.42 174.48 469.61 633.98 843.37 446.02 1031.69 441.47 881.97 537.40 865.37 669.16 1002.20 666.04
00018677 00000132 784.52 170.06 471.13 630.51 843.40 441.39 1031.26 434.30 881.99 533.09 865.03 663.39 1003.85 658.45
00018678 00000133 784.85 165.64 471.40 629.62 845.88 435.91 1031.94 428.71 884.25 528.09 864.69 658.70 1001.79 653.72
00018679 00000134 782.18 158.81 474.07 624.33 845.16 428.98 1033.53 421.56 886.99 524.41 864.14 651.64 1001.81 646.24
00018680 00000135 779.73 156.05 476.68 625.38 844.81 425.48 1033.95 416.96 887.36 519.57 863.23 646.42 1001.61 640.28
CROP_BBOX: 500 0 1564 1013
