Video ID: 	DLTeVxdz43o
H: 	1080
W: 	1920
FPS: 	25.0

FRAME INDEX X0 Y0 W H [Landmarks (5 Points)]

00001122 00000000 861.45 214.50 411.87 627.57 923.02 471.45 1103.27 469.85 972.96 594.78 946.87 694.66 1102.90 691.66
00001123 00000001 873.00 217.27 404.56 625.07 927.84 472.68 1102.32 471.21 967.63 597.93 953.07 700.68 1099.33 698.07
00001124 00000002 881.70 220.73 403.40 617.86 931.62 472.83 1103.14 471.52 965.41 597.74 957.32 701.13 1099.41 698.59
00001125 00000003 460.50 92.69 280.08 390.31
00001126 00000004 895.32 205.04 407.34 627.52 944.89 467.37 1126.65 469.66 984.77 596.41 966.29 695.66 1109.92 698.04
00001127 00000005 900.84 199.88 407.71 634.52 949.76 466.02 1128.72 468.59 986.29 594.46 970.03 695.31 1113.17 697.99
00001128 00000006 904.34 199.17 406.48 639.60 952.92 465.94 1130.04 466.53 987.81 594.48 975.44 695.17 1121.91 696.03
00001129 00000007 904.97 195.89 406.18 636.19 953.77 461.94 1131.27 463.69 989.61 590.97 975.85 690.85 1122.00 692.68
00001130 00000008 907.63 192.75 408.42 625.91 959.24 456.18 1134.58 458.47 993.69 577.37 980.09 676.08 1121.27 678.11
00001131 00000009 910.58 188.80 409.38 621.95 960.71 450.22 1136.86 449.73 994.22 567.22 980.93 667.55 1126.45 667.14
00001132 00000010 910.56 175.30 411.87 636.75 958.91 442.17 1133.40 438.11 990.25 560.14 984.16 664.79 1130.64 661.19
00001133 00000011 909.12 166.25 412.88 647.12 953.63 436.36 1129.76 432.31 985.78 561.87 985.50 662.61 1132.41 659.72
00001134 00000012 906.46 162.65 416.71 649.23 954.40 429.92 1132.93 423.68 989.10 556.83 984.52 655.89 1139.00 651.29
00001135 00000013 906.11 154.17 426.74 655.05 960.90 425.59 1146.28 411.66 1005.53 551.98 998.07 653.42 1157.34 642.21
00001136 DELETE   905.30 147.14 431.78 661.15 965.35 416.30 1157.92 398.50 1024.19 548.11 1009.79 648.13 1172.11 633.33
00001137 DELETE   903.84 140.65 428.79 661.85 968.51 410.74 1162.11 390.98 1039.88 540.57 1016.23 646.92 1182.49 629.01
00001138 00000016 903.29 136.62 428.36 659.20 973.76 409.49 1166.30 388.35 1050.51 536.45 1023.61 643.28 1188.04 624.06
00001139 00000017 900.77 131.34 431.92 658.41 976.96 406.47 1172.54 385.54 1061.21 532.88 1029.25 639.88 1192.82 621.15
00001140 00000018 902.82 124.09 430.66 667.81 978.90 401.50 1182.08 380.24 1066.62 531.50 1028.12 639.37 1195.38 621.28
00001141 00000019 901.81 126.42 429.30 661.43 979.67 403.04 1185.89 383.24 1068.80 532.17 1024.35 636.96 1194.90 620.14
00001142 00000020 899.19 129.77 430.50 655.68 979.09 404.58 1186.56 384.17 1070.53 531.70 1023.71 635.72 1195.43 618.40
00001143 00000021 897.85 126.58 429.98 652.94 979.37 402.50 1185.74 383.00 1070.66 529.25 1023.33 630.76 1195.49 614.22
00001144 00000022 894.91 122.40 428.68 642.32 980.88 392.35 1188.96 374.68 1076.34 519.60 1025.41 617.18 1199.47 602.11
00001145 00000023 894.84 116.74 423.28 642.73 983.37 386.16 1191.48 367.44 1082.79 510.56 1029.34 612.11 1203.11 596.07
00001146 00000024 891.87 112.55 422.57 641.47 984.68 383.68 1191.39 364.03 1088.25 504.69 1032.49 609.39 1203.73 592.76
00001147 00000025 891.17 115.81 419.83 638.80 985.43 384.37 1191.74 364.38 1092.16 502.89 1034.71 611.21 1203.34 594.32
00001148 00000026 888.03 123.15 419.45 636.11 984.52 387.94 1190.53 366.09 1093.07 503.91 1036.95 616.86 1203.56 598.31
00001149 00000027 881.52 128.03 421.76 637.10 982.36 393.85 1186.91 368.52 1094.69 506.03 1037.13 621.17 1203.09 600.13
00001150 00000028 877.63 137.10 422.60 630.04 980.03 398.87 1183.15 370.76 1094.98 509.07 1039.76 625.67 1203.44 602.55
00001151 00000029 872.90 152.80 415.35 609.04 978.76 404.96 1183.99 376.16 1095.07 513.36 1031.15 628.05 1199.39 603.62
00001152 00000030 875.36 155.58 413.97 609.56 981.07 405.70 1186.43 378.33 1096.99 513.13 1032.28 629.62 1201.05 606.26
00001153 00000031 879.88 156.05 410.66 613.31 985.38 405.68 1189.46 380.24 1099.45 512.46 1032.51 628.33 1203.28 606.62
00001154 00000032 884.63 148.79 413.14 623.89 986.09 401.70 1187.84 378.84 1097.30 505.22 1036.15 626.95 1213.05 607.09
00001155 00000033 886.73 153.48 412.60 622.01 986.85 403.32 1188.80 380.48 1098.04 506.36 1037.13 627.99 1215.06 607.81
00001156 00000034 890.33 155.15 409.71 619.18 989.19 404.23 1191.14 380.17 1102.10 505.72 1039.95 626.54 1218.41 605.84
00001157 00000035 894.15 157.68 406.89 600.70 994.74 417.40 1192.52 390.39 1112.19 506.01 1047.85 620.70 1221.94 598.42
00001158 00000036 897.26 160.78 407.88 593.82 1003.27 418.58 1198.91 390.75 1126.15 504.62 1058.97 617.76 1231.02 594.73
00001159 00000037 899.04 162.68 412.02 599.21 1008.32 417.01 1208.42 385.30 1140.75 508.52 1069.25 623.17 1244.21 596.34
00001160 00000038 897.28 169.50 414.66 601.68 1014.42 419.35 1211.88 383.76 1152.21 515.17 1077.99 632.19 1246.83 602.64
00001161 00000039 897.08 171.04 414.04 597.21 1015.51 420.53 1211.46 384.53 1155.36 515.10 1083.60 635.33 1246.46 605.29
00001162 00000040 897.21 169.10 411.71 589.22 1017.42 416.08 1212.84 381.77 1159.14 507.70 1091.22 635.05 1246.40 606.17
00001163 00000041 893.39 167.37 413.80 584.06 1016.62 413.33 1212.02 378.19 1159.04 504.48 1091.18 631.36 1245.93 602.20
00001164 00000042 888.80 165.06 411.52 585.66 1013.15 412.06 1206.70 377.54 1154.76 502.76 1086.08 628.20 1241.04 599.50
00001165 00000043 883.56 163.73 411.80 591.36 1010.01 413.23 1199.74 379.29 1149.25 504.98 1081.93 631.44 1234.43 603.47
00001166 00000044 876.32 166.61 408.06 589.61 1003.46 415.38 1199.07 381.29 1144.67 508.19 1070.06 638.18 1222.84 609.23
00001167 00000045 867.96 163.97 408.42 596.25 995.44 418.97 1187.48 383.80 1137.86 509.56 1064.10 641.38 1212.45 611.93
00001168 00000046 855.78 161.20 414.46 599.45 984.84 417.95 1174.24 382.18 1124.80 508.81 1056.51 638.57 1202.84 608.25
00001169 00000047 842.70 157.95 419.64 605.23 974.04 415.52 1166.78 375.47 1118.71 510.60 1050.54 641.07 1197.72 606.64
00001170 00000048 834.20 156.43 421.25 610.82 964.60 417.12 1158.83 375.96 1111.16 514.20 1043.53 641.17 1194.35 605.60
00001171 00000049 827.81 160.28 418.97 609.32 958.17 424.20 1151.54 378.88 1108.57 522.21 1039.96 645.81 1191.40 607.49
00001172 00000050 820.41 160.56 425.33 618.51 953.01 429.34 1146.85 380.10 1106.76 529.13 1036.86 654.11 1191.05 612.74
00001173 00000051 813.37 162.31 427.76 630.71 948.30 433.41 1142.08 384.89 1103.34 536.20 1029.17 661.74 1185.30 621.04
00001174 00000052 809.49 166.47 431.09 640.64 944.83 436.96 1140.22 389.10 1101.51 540.43 1022.20 665.74 1186.59 625.78
00001175 00000053 808.10 167.63 430.71 639.47 943.95 438.79 1139.90 389.99 1103.03 541.43 1020.24 665.67 1187.47 625.00
00001176 00000054 806.62 167.70 432.00 640.40 943.88 439.37 1140.18 391.20 1103.33 542.60 1018.73 665.52 1187.77 625.50
00001177 00000055 807.52 169.05 430.49 634.70 944.92 439.66 1140.96 391.57 1105.61 542.78 1020.94 666.10 1188.10 626.22
00001178 00000056 806.88 170.47 431.99 635.48 944.99 442.42 1141.66 393.77 1107.19 544.83 1021.74 669.09 1188.64 628.61
00001179 00000057 807.14 172.38 433.89 639.14 946.32 444.86 1144.64 396.68 1108.44 548.13 1023.59 673.88 1190.11 633.51
00001180 00000058 807.44 174.73 434.41 639.48 947.71 446.94 1146.32 400.32 1107.76 550.37 1025.40 676.50 1189.48 637.49
00001181 00000059 809.07 178.41 433.90 635.57 950.26 450.20 1147.84 403.55 1108.25 552.65 1028.70 677.99 1189.92 638.65
00001182 00000060 811.12 178.96 435.73 636.41 953.34 452.48 1152.60 404.48 1112.48 554.04 1029.72 678.27 1194.45 637.59
00001183 00000061 816.66 175.20 433.13 638.52 956.17 451.56 1156.62 403.14 1114.94 555.52 1029.04 677.45 1196.76 636.21
00001184 00000062 821.07 171.48 431.77 644.05 961.65 449.77 1161.56 401.07 1119.96 556.80 1032.45 677.02 1200.49 635.19
00001185 00000063 828.29 170.72 430.10 635.76 966.37 446.12 1166.68 398.94 1122.48 555.82 1040.45 677.44 1201.74 636.62
00001186 00000064 835.24 164.42 431.73 624.87 975.05 451.24 1176.31 404.71 1126.13 546.24 1048.23 668.26 1212.46 628.12
00001187 00000065 845.39 161.34 427.98 621.23 979.51 441.66 1178.63 398.04 1127.43 534.13 1052.42 659.08 1216.72 621.58
00001188 00000066 855.33 161.78 421.64 622.25 986.82 429.42 1186.12 388.27 1134.57 524.48 1053.07 652.31 1219.45 617.36
00001189 00000067 864.88 158.16 417.72 613.79 996.25 420.49 1195.40 383.69 1142.21 511.33 1060.77 641.44 1225.79 609.92
00001190 00000068 873.64 157.37 415.01 598.97 1006.58 411.00 1206.93 376.57 1156.61 506.08 1068.92 628.81 1236.69 599.77
00001191 00000069 882.84 148.82 418.21 610.79 1017.25 405.09 1210.11 375.39 1161.91 498.57 1080.42 621.50 1242.11 597.30
00001192 00000070 891.92 143.79 417.71 619.12 1025.39 403.90 1221.82 377.14 1170.87 499.38 1087.54 620.16 1252.36 597.18
00001193 00000071 902.16 151.11 416.55 615.73 1032.15 407.70 1229.78 379.49 1177.95 506.02 1095.17 628.30 1257.59 603.82
00001194 00000072 906.87 154.49 420.07 616.90 1040.53 414.56 1233.09 384.04 1182.94 520.65 1106.70 640.47 1255.94 614.19
00001195 00000073 915.43 158.04 420.02 617.80 1049.62 420.07 1242.81 392.91 1189.34 527.58 1113.05 647.22 1260.73 624.41
00001196 00000074 925.08 161.22 414.06 615.61 1055.24 424.13 1252.09 398.09 1193.58 532.40 1112.80 649.57 1267.45 627.92
00001197 00000075 930.96 161.96 412.43 610.08 1058.63 429.76 1257.07 404.97 1192.37 537.28 1113.56 652.58 1269.95 631.52
00001198 00000076 932.47 161.82 409.55 622.59 1055.58 439.17 1254.21 420.08 1180.59 549.12 1102.09 661.32 1259.63 644.81
00001199 00000077 933.50 163.04 411.11 654.84 1051.85 434.81 1248.46 423.14 1168.30 554.04 1089.49 669.19 1249.18 658.74
00001200 00000078 935.58 170.12 409.74 651.50 1047.76 431.74 1247.14 423.11 1161.44 551.86 1083.51 670.54 1238.83 661.65
00001201 00000079 941.71 165.03 408.15 659.96 1045.94 427.68 1245.56 421.83 1149.06 557.25 1076.09 670.03 1237.63 664.69
00001202 00000080 943.59 162.17 408.93 649.34 1044.16 422.00 1247.11 418.18 1142.42 552.64 1073.30 660.61 1238.63 656.54
00001203 00000081 945.35 156.30 410.51 640.33 1044.92 420.01 1247.99 413.53 1142.78 544.61 1074.28 652.21 1239.10 646.36
00001204 00000082 950.41 153.13 410.56 638.96 1048.66 416.06 1252.16 405.73 1148.69 541.07 1081.01 650.17 1246.10 641.15
00001205 00000083 957.70 146.70 410.73 644.56 1053.07 409.87 1258.32 404.10 1155.71 530.68 1078.39 636.91 1258.38 631.95
00001206 00000084 960.82 150.14 409.48 634.77 1057.60 411.94 1263.34 404.20 1161.32 530.99 1085.10 632.93 1269.50 625.83
00001207 00000085 960.60 152.41 409.64 630.97 1056.86 415.44 1263.31 405.27 1161.76 533.79 1087.17 634.49 1273.36 625.27
00001208 00000086 958.87 156.08 409.94 633.62 1052.87 420.14 1259.22 406.50 1159.31 536.79 1086.02 638.56 1273.20 626.70
00001209 00000087 951.01 167.74 409.20 628.33 1048.28 434.80 1254.86 411.89 1163.15 550.32 1085.05 651.16 1270.17 631.00
00001210 00000088 945.66 170.76 410.65 636.35 1043.13 444.18 1248.03 420.87 1156.49 562.64 1081.61 660.16 1268.62 639.63
00001211 00000089 940.50 178.85 411.40 649.10 1043.21 451.05 1238.14 428.71 1149.42 570.37 1081.83 669.67 1253.27 650.02
00001212 00000090 933.82 184.37 413.24 648.89 1035.96 456.00 1231.66 431.55 1142.80 575.38 1076.11 673.38 1249.53 651.66
00001213 00000091 926.36 191.87 416.27 628.41 1025.59 461.98 1227.22 441.09 1137.31 578.67 1067.66 672.92 1251.58 653.27
00001214 00000092 924.72 181.45 415.16 639.76 1025.41 455.21 1226.03 432.27 1133.15 572.81 1063.70 667.29 1240.71 647.04
00001215 00000093 925.06 175.48 414.73 637.69 1023.98 449.87 1226.21 429.98 1130.30 567.83 1061.17 662.51 1237.05 645.06
00001216 00000094 930.21 171.39 414.00 637.02 1027.59 441.36 1227.49 425.85 1130.07 561.74 1066.14 661.15 1234.42 647.38
00001217 00000095 939.29 171.31 406.39 629.03 1037.12 433.14 1230.13 421.54 1134.74 556.21 1075.56 657.05 1233.76 646.78
00001218 00000096 948.45 169.30 403.32 627.52 1046.64 426.67 1240.77 416.23 1143.24 548.02 1081.11 653.71 1237.92 644.90
00001219 00000097 964.60 165.09 401.68 631.73 1059.42 420.24 1254.95 416.84 1158.46 534.95 1088.60 646.55 1249.73 644.28
00001220 00000098 973.28 168.39 401.00 626.67 1067.45 416.96 1264.34 417.07 1161.09 532.67 1090.73 640.98 1258.67 641.11
00001221 00000099 976.45 168.88 404.93 618.69 1074.37 414.01 1271.65 415.75 1170.02 531.52 1098.78 637.41 1265.04 638.52
00001222 00000100 980.81 165.16 404.79 614.33 1079.67 411.03 1276.79 413.12 1177.67 527.50 1105.76 635.46 1269.70 636.46
00001223 00000101 983.88 161.69 404.12 608.23 1083.35 406.67 1279.15 404.88 1183.63 521.22 1116.57 632.94 1277.63 630.29
00001224 00000102 990.45 159.12 401.77 614.31 1087.60 405.30 1283.03 405.38 1185.75 518.53 1116.95 630.21 1280.53 629.43
00001225 00000103 994.17 159.15 399.21 624.86 1091.74 406.95 1284.24 407.94 1187.23 522.52 1115.54 631.83 1279.14 632.48
00001226 00000104 997.86 162.46 395.88 630.73 1094.76 410.39 1287.58 412.83 1188.06 527.87 1113.43 633.35 1280.90 635.17
00001227 00000105 997.23 163.89 395.66 627.87 1094.51 411.53 1287.14 415.28 1187.72 528.38 1112.63 631.52 1280.81 634.42
00001228 00000106 992.66 163.48 398.29 623.18 1092.08 411.97 1285.09 416.03 1187.78 528.06 1111.87 629.42 1280.49 632.50
00001229 00000107 984.75 162.83 402.52 618.39 1087.20 410.86 1279.35 412.88 1185.76 529.27 1110.43 629.03 1276.86 629.95
00001230 00000108 979.34 164.05 402.35 610.03 1080.46 410.11 1276.90 411.33 1180.19 529.68 1104.80 629.23 1272.80 629.33
00001231 00000109 971.86 162.43 401.03 600.94 1072.40 406.67 1272.21 408.49 1173.48 529.05 1096.13 626.16 1268.06 626.90
00001232 00000110 967.16 164.35 393.37 595.78 1065.90 414.05 1261.89 410.19 1160.68 537.26 1091.16 629.99 1254.36 627.16
00001233 00000111 958.86 168.36 393.19 590.95 1056.89 419.71 1256.27 413.33 1155.42 537.22 1083.27 632.53 1249.87 628.04
00001234 00000112 950.34 172.95 392.07 595.43 1048.86 426.01 1248.35 420.93 1148.87 542.49 1073.67 637.25 1240.23 633.87
00001235 00000113 939.96 178.33 390.19 597.65 1039.55 438.90 1235.64 432.11 1137.97 549.86 1065.61 644.49 1228.78 638.94
00001236 00000114 930.99 179.99 390.83 598.21 1030.84 439.84 1226.29 435.02 1129.53 550.63 1057.49 643.77 1222.20 639.53
00001237 00000115 921.01 179.92 396.28 597.13 1021.23 435.57 1217.34 429.43 1124.94 546.16 1052.75 642.97 1217.01 637.47
00001238 00000116 912.77 179.33 399.06 597.83 1013.55 431.97 1210.73 426.57 1119.72 543.83 1047.73 642.51 1212.24 637.28
00001239 00000117 903.89 180.78 400.13 593.24 1007.32 429.07 1202.94 421.91 1114.54 540.52 1044.44 641.27 1206.41 634.82
00001240 00000118 900.48 179.16 397.82 594.95 1001.72 429.21 1196.86 420.81 1106.71 538.50 1039.08 640.54 1202.45 633.10
00001241 00000119 897.71 179.03 396.47 595.75 998.16 430.67 1193.52 420.60 1103.82 538.36 1036.04 642.00 1200.14 633.32
00001242 00000120 894.36 180.50 397.97 595.56 994.68 432.87 1191.93 419.88 1102.32 538.67 1035.32 644.55 1199.68 633.65
00001243 00000121 893.26 179.39 397.09 599.44 992.23 434.97 1189.65 421.32 1100.14 540.45 1034.06 646.59 1197.91 635.25
00001244 00000122 891.23 181.85 398.12 600.79 990.00 437.45 1187.14 423.02 1099.07 543.07 1033.31 649.36 1196.25 637.61
00001245 00000123 891.15 182.54 396.94 604.48 989.64 440.39 1186.69 427.65 1097.91 546.50 1032.23 652.19 1194.88 641.84
00001246 00000124 892.21 186.83 395.18 605.12 989.99 442.54 1186.75 430.82 1096.75 549.34 1032.91 655.23 1194.24 645.72
00001247 00000125 893.70 187.82 394.83 605.57 991.29 443.24 1187.72 432.82 1096.27 550.96 1032.77 655.63 1194.28 647.07
00001248 00000126 894.99 188.79 395.34 601.80 993.93 439.44 1190.15 427.96 1099.56 548.57 1036.02 653.21 1197.18 643.79
00001249 00000127 895.38 189.89 396.68 596.42 996.43 435.81 1193.01 422.53 1103.05 546.42 1041.03 650.83 1202.09 639.62
00001250 00000128 896.75 188.15 398.03 596.27 998.05 432.45 1194.86 418.75 1105.12 540.95 1042.88 647.98 1206.15 636.15
00001251 00000129 898.19 187.90 398.58 592.04 1001.58 428.78 1196.74 415.45 1108.75 539.08 1047.16 645.56 1208.21 634.01
00001252 00000130 900.48 186.01 398.86 591.78 1004.92 427.17 1198.38 414.07 1112.33 536.00 1052.17 644.42 1210.06 633.01
00001253 00000131 901.69 186.63 399.99 589.21 1006.47 426.47 1200.57 413.21 1114.56 534.20 1054.73 644.09 1212.14 632.52
00001254 00000132 901.42 187.65 402.12 588.12 1007.27 425.57 1201.05 412.27 1117.60 531.99 1056.23 642.86 1213.51 631.27
00001255 00000133 903.53 190.06 401.54 584.50 1009.52 424.49 1204.09 411.23 1121.68 531.02 1058.79 641.64 1216.41 629.95
00001256 00000134 906.83 189.11 400.76 585.76 1012.78 424.44 1206.67 412.91 1124.13 528.58 1060.98 640.46 1217.72 630.10
00001257 00000135 911.70 189.55 397.76 584.30 1014.78 424.94 1208.68 414.05 1126.04 526.77 1062.17 639.53 1220.44 629.52
00001258 00000136 914.40 188.77 396.15 585.57 1017.31 424.98 1210.23 415.31 1126.71 525.92 1063.15 638.89 1220.46 629.96
00001259 00000137 916.29 190.17 395.37 584.52 1019.18 425.29 1211.51 416.37 1127.11 524.78 1063.34 638.36 1220.13 630.23
00001260 00000138 919.28 191.09 392.67 579.76 1019.52 426.40 1214.97 418.07 1127.52 525.68 1062.43 638.67 1221.73 631.04
00001261 00000139 918.52 192.92 392.57 580.93 1015.49 427.87 1209.15 422.54 1117.26 527.82 1051.93 637.01 1212.83 632.34
00001262 00000140 914.79 197.26 389.20 582.11 1004.73 429.59 1197.18 425.16 1096.53 531.84 1034.95 642.07 1192.83 638.44
00001263 00000141 914.50 201.92 388.77 585.70 1003.66 434.46 1195.37 429.59 1091.67 536.18 1031.41 645.21 1188.97 641.66
00001264 00000142 918.49 215.56 386.84 584.16 1014.67 441.02 1201.91 435.89 1114.16 543.38 1043.22 655.40 1198.93 651.45
00001265 DELETE   931.11 207.76 388.31 577.91 1032.49 447.13 1224.23 433.68 1145.21 543.81 1071.08 654.84 1231.81 642.83
00001266 00000144 941.17 204.00 385.60 576.02 1045.47 450.09 1238.29 424.07 1167.23 545.54 1095.17 659.33 1254.62 635.94
00001267 DELETE   935.01 208.91 387.96 582.51 1037.56 453.46 1227.79 432.56 1156.02 552.79 1082.91 661.78 1243.95 643.45
00001268 DELETE   921.77 215.30 391.22 599.37 1022.39 452.78 1208.21 435.85 1133.65 557.44 1066.13 669.18 1221.93 654.50
00001269 00000147 917.99 213.64 389.98 606.42 1015.08 452.59 1198.05 437.53 1119.29 559.72 1058.67 672.24 1211.07 658.70
00001270 00000148 917.54 215.75 388.65 595.33 1015.47 450.98 1199.73 433.32 1124.09 556.01 1060.99 665.79 1215.10 650.44
00001271 00000149 916.12 213.70 391.33 589.07 1015.63 452.03 1201.12 430.22 1128.01 554.36 1061.57 661.44 1220.05 643.21
00001272 00000150 913.11 212.99 392.99 596.78 1010.44 454.64 1198.57 431.66 1122.67 557.07 1058.99 665.40 1222.65 645.44
00001273 00000151 907.68 214.42 395.79 604.12 1004.37 460.12 1192.07 435.25 1114.74 565.69 1056.54 672.67 1224.42 650.23
00001274 00000152 904.00 213.11 396.62 608.42 1000.92 461.89 1187.81 437.26 1110.91 568.72 1052.91 675.58 1220.87 653.27
00001275 00000153 897.79 204.44 400.91 610.48 996.67 459.35 1182.92 431.58 1103.52 563.71 1051.43 665.25 1212.78 641.54
00001276 00000154 895.06 196.89 397.95 613.56 992.71 453.28 1182.25 427.96 1100.27 557.30 1046.66 661.59 1209.77 640.16
00001277 00000155 893.57 197.83 395.57 601.62 990.33 446.98 1179.58 422.78 1098.61 550.56 1045.84 656.72 1204.73 636.70
00001278 00000156 892.92 194.62 394.77 600.09 989.41 444.07 1179.28 421.20 1098.22 548.20 1043.97 654.11 1203.32 635.19
00001279 00000157 892.75 191.84 394.76 603.57 988.48 444.13 1179.58 421.79 1096.98 547.99 1042.74 655.18 1202.93 636.68
00001280 00000158 893.23 191.59 395.82 607.60 988.79 451.63 1181.39 427.76 1096.99 553.35 1040.73 657.99 1204.47 638.08
00001281 00000159 898.21 195.31 395.35 602.60 993.33 462.94 1181.20 437.26 1098.97 557.25 1044.93 658.95 1205.80 637.45
00001282 00000160 901.34 195.49 396.29 600.42 997.23 460.83 1186.09 437.92 1099.91 556.38 1044.76 655.26 1208.30 635.72
00001283 00000161 902.81 192.65 399.98 595.86 1000.91 450.78 1191.93 431.01 1103.28 552.39 1047.27 650.63 1209.71 633.71
00001284 00000162 905.16 188.94 400.99 595.38 1004.25 440.53 1195.69 424.03 1106.61 541.87 1046.37 644.44 1208.77 630.63
00001285 00000163 911.20 188.08 401.15 592.35 1007.85 433.51 1202.45 420.30 1110.66 532.41 1046.54 638.95 1213.43 627.48
00001286 00000164 921.84 183.77 397.95 585.78 1015.79 428.25 1212.25 417.75 1117.68 525.84 1053.32 630.77 1223.37 621.22
