Video ID: 	z4wJw0zjTn8
H: 	1080
W: 	1920
FPS: 	25.0

FRAME INDEX X0 Y0 W H [Landmarks (5 Points)]

00005121 00000000 726.70 109.34 452.09 626.33 829.97 377.49 1027.41 356.54 929.18 472.25 868.16 580.31 1040.82 563.24
00005122 00000001 728.64 110.76 453.87 638.51 830.85 379.39 1029.02 358.11 931.17 478.96 870.90 590.17 1044.07 572.92
00005123 00000002 730.67 112.81 454.42 648.42 833.54 379.85 1028.00 361.40 932.60 485.32 878.00 602.99 1038.48 588.55
00005124 00000003 732.31 114.25 454.16 648.82 831.59 381.29 1030.98 363.50 930.68 492.40 872.79 605.29 1039.40 591.16
00005125 00000004 735.58 119.79 456.97 647.39 836.92 379.41 1034.76 366.66 938.23 490.42 875.60 604.56 1035.10 593.12
00005126 00000005 741.04 123.28 458.66 646.87 843.67 378.76 1040.13 368.77 944.42 493.02 881.96 604.33 1039.90 594.86
00005127 00000006 747.18 121.79 455.85 651.80 849.25 379.70 1047.68 367.77 952.04 493.45 889.16 609.79 1049.07 598.58
00005128 00000007 750.52 126.86 453.96 645.75 854.78 382.42 1053.11 370.33 958.78 496.17 894.96 611.10 1054.08 599.51
00005129 00000008 751.55 128.05 455.06 641.67 854.50 383.52 1054.58 371.70 958.23 498.54 895.32 610.82 1055.44 599.33
00005130 00000009 750.90 127.27 454.45 643.60 850.99 385.16 1050.18 373.81 951.84 498.91 889.50 613.14 1048.26 602.27
00005131 00000010 744.66 125.82 458.77 649.22 841.64 385.93 1041.45 373.08 941.15 499.81 879.59 614.61 1042.90 602.54
00005132 00000011 735.94 125.54 461.72 649.36 825.27 388.49 1028.10 371.38 919.65 499.97 864.95 621.28 1025.94 606.35
00005133 00000012 728.50 126.97 461.60 650.94 808.03 392.47 1005.32 375.08 890.30 504.07 845.75 623.71 999.73 608.84
00005134 DELETE   723.97 130.20 465.47 651.59 799.01 401.77 992.48 380.96 866.63 508.78 838.64 632.10 981.20 615.71
00005135 00000014 718.48 136.61 469.18 652.64 790.23 410.86 976.24 385.91 851.99 511.12 824.63 637.04 968.43 617.37
00005136 DELETE   707.94 143.16 465.22 646.94 775.75 410.87 962.87 392.93 835.80 520.75 809.69 634.42 948.97 619.47
00005137 DELETE   703.82 143.30 461.04 640.23 764.46 410.82 950.33 392.97 821.51 523.09 802.01 633.56 939.38 619.12
00005138 00000017 698.81 143.66 465.24 633.08 759.29 406.75 952.07 389.25 815.12 522.27 804.08 641.94 940.00 627.41
00005139 DELETE   698.95 141.44 467.81 641.07 768.13 410.27 958.03 390.12 829.34 520.73 806.48 632.20 946.09 615.78
00005140 00000019 701.86 140.93 469.11 646.40 776.89 410.98 970.29 388.77 846.00 520.30 815.00 633.48 959.59 614.88
00005141 00000020 703.69 140.99 468.74 649.63 779.12 412.26 975.19 388.37 851.94 520.50 819.25 637.76 965.05 617.66
00005142 00000021 700.73 143.58 470.44 649.14 773.53 413.85 966.83 390.40 840.24 521.28 813.08 639.29 954.52 620.05
00005143 00000022 699.89 146.35 461.71 644.03 767.03 412.72 953.19 395.36 825.00 522.66 803.36 637.94 936.06 624.41
00005144 00000023 699.13 148.96 458.11 643.64 763.53 412.56 948.08 397.63 821.67 527.43 801.70 641.63 930.12 630.29
00005145 00000024 698.55 151.71 465.60 645.61 769.41 417.25 958.49 400.17 831.25 531.96 808.54 645.20 943.02 631.73
00005146 00000025 703.11 149.57 469.51 649.94 779.41 419.80 973.86 400.75 850.09 536.46 819.70 648.62 962.37 632.78
00005147 00000026 709.64 151.99 468.53 649.34 791.13 423.42 981.25 402.30 861.54 530.34 830.91 652.33 971.39 635.92
00005148 00000027 718.40 151.76 462.41 651.39 801.26 422.38 992.44 404.46 871.56 531.25 836.31 652.01 977.79 638.33
00005149 00000028 723.16 154.94 454.89 648.59 804.55 418.35 1007.18 405.78 891.68 536.39 840.60 652.16 993.17 642.55
00005150 00000029 726.40 156.37 453.55 647.57 812.82 414.94 1016.07 406.00 903.69 537.58 847.28 650.06 1001.67 643.39
00005151 00000030 727.64 156.53 453.05 644.45 821.29 413.32 1025.76 406.40 916.30 537.36 855.26 649.17 1010.56 644.31
00005152 00000031 730.43 156.41 453.19 642.78 828.82 414.00 1036.64 405.02 930.35 537.27 866.32 648.97 1026.05 642.66
00005153 00000032 737.04 156.81 450.91 640.29 844.36 415.75 1046.96 404.92 949.73 538.43 886.20 648.52 1043.25 640.33
00005154 00000033 740.93 165.27 453.74 636.73 862.45 417.26 1063.91 408.75 974.06 534.81 901.67 647.24 1061.40 640.41
00005155 00000034 744.69 160.82 453.47 643.09 872.68 416.81 1076.17 410.94 989.88 536.99 911.71 650.02 1071.94 645.05
00005156 00000035 748.95 158.93 450.95 647.28 881.98 419.14 1084.61 410.76 1004.09 538.60 920.58 652.09 1083.20 644.79
00005157 00000036 750.91 158.19 452.28 647.81 889.38 418.92 1092.40 410.05 1014.66 537.97 929.50 653.72 1089.98 645.60
00005158 00000037 751.81 155.84 452.08 647.75 891.53 417.45 1095.11 407.80 1017.74 536.02 932.57 653.20 1092.41 644.23
00005159 00000038 750.95 155.52 451.49 645.21 888.76 415.50 1091.60 406.04 1013.75 533.22 928.76 650.22 1089.36 641.59
00005160 00000039 748.28 154.33 450.70 643.70 880.01 410.73 1082.82 401.78 1002.98 530.56 919.72 645.12 1081.71 637.08
00005161 00000040 747.17 154.91 449.35 643.97 873.33 406.87 1074.44 398.63 990.57 528.99 911.81 643.24 1072.28 636.13
00005162 00000041 746.79 156.17 449.41 641.10 870.82 405.62 1071.21 396.46 986.38 529.82 911.43 642.86 1069.80 634.95
00005163 00000042 746.18 158.57 449.92 640.13 867.65 406.84 1068.83 396.59 982.97 530.87 909.01 643.63 1069.24 634.85
00005164 00000043 745.85 159.56 449.37 638.70 861.81 410.32 1063.71 398.97 974.64 529.32 902.99 644.80 1064.84 635.32
00005165 00000044 745.89 160.09 448.75 637.63 857.41 411.51 1059.25 400.52 966.25 530.04 897.04 644.54 1059.26 635.60
00005166 00000045 746.25 161.30 449.47 636.76 857.37 412.79 1058.90 401.17 966.01 530.66 897.75 645.03 1060.12 635.52
00005167 00000046 746.17 161.91 450.13 635.27 857.62 412.87 1059.09 400.11 966.66 530.84 900.55 645.53 1061.85 634.95
00005168 00000047 744.69 158.87 448.48 637.08 853.47 411.51 1054.08 399.22 960.30 531.47 895.74 644.49 1055.99 634.50
00005169 00000048 740.37 153.13 447.82 639.37 843.95 409.69 1045.95 397.01 949.28 534.14 887.14 644.72 1045.26 634.67
00005170 00000049 734.53 152.30 449.23 638.97 837.38 408.85 1039.23 394.68 944.13 533.65 881.79 643.19 1038.75 632.14
00005171 00000050 732.97 152.78 447.69 639.10 834.53 408.90 1037.41 394.44 942.18 532.86 878.92 643.81 1036.36 632.66
00005172 00000051 732.38 152.52 445.76 640.61 831.61 409.62 1034.10 394.41 938.27 531.41 875.50 643.71 1034.26 631.78
00005173 00000052 729.01 156.51 443.71 635.83 824.35 412.83 1028.67 398.10 928.10 531.28 865.68 643.87 1026.23 632.28
00005174 00000053 724.40 158.38 447.34 636.50 818.45 413.92 1021.36 401.63 917.87 534.21 856.20 644.44 1016.33 634.84
00005175 00000054 720.70 159.61 449.08 637.30 815.09 415.80 1019.11 402.81 914.60 535.81 853.19 646.18 1015.77 635.87
00005176 00000055 718.64 161.03 449.36 637.70 815.10 417.20 1018.88 403.83 915.78 538.04 854.68 648.04 1017.25 637.48
00005177 00000056 716.83 160.15 449.25 641.30 812.54 418.09 1017.58 404.43 913.79 538.80 850.96 649.41 1015.63 638.57
00005178 00000057 715.35 158.60 449.06 641.58 808.10 418.21 1013.06 404.49 907.26 538.48 845.41 648.81 1010.99 637.64
00005179 00000058 713.87 159.00 449.81 641.83 805.73 419.28 1008.83 405.13 902.98 539.12 841.69 648.09 1006.91 636.60
00005180 00000059 714.81 160.00 448.61 641.21 806.55 418.75 1010.66 405.07 904.74 539.77 842.75 648.01 1009.41 636.90
00005181 00000060 716.71 158.80 448.40 642.49 810.36 418.30 1015.24 404.19 910.78 538.58 846.96 648.19 1014.78 636.79
00005182 00000061 718.43 161.12 448.11 638.95 813.44 418.58 1017.00 404.00 914.01 537.88 851.32 647.33 1017.78 635.64
00005183 00000062 719.36 161.95 448.23 637.14 813.45 418.54 1017.44 403.93 913.64 538.38 851.43 647.12 1017.94 635.38
00005184 00000063 720.01 161.40 448.44 638.43 814.41 418.71 1017.70 404.54 913.73 538.03 851.70 646.91 1017.88 635.57
00005185 00000064 723.16 162.58 447.01 637.39 818.60 418.78 1021.19 404.56 919.43 537.83 856.64 646.77 1022.55 635.55
00005186 00000065 727.42 162.31 446.66 637.41 824.52 418.45 1029.02 403.23 928.96 536.71 864.13 647.25 1031.91 635.25
00005187 00000066 731.48 161.87 446.70 636.84 831.76 416.89 1033.58 401.19 937.85 537.73 875.06 647.13 1039.67 634.87
00005188 00000067 734.78 162.10 448.30 634.21 836.24 416.43 1035.39 401.44 940.50 536.61 879.69 646.22 1041.26 634.54
00005189 00000068 736.39 159.95 448.41 635.26 837.88 414.91 1035.76 400.23 940.47 535.35 880.38 643.88 1041.11 632.35
00005190 00000069 739.54 158.82 448.59 635.11 840.21 413.80 1037.87 400.23 940.49 535.24 881.24 642.46 1041.61 631.69
00005191 00000070 743.97 157.38 447.60 635.16 844.42 411.20 1042.70 398.64 942.98 532.38 882.84 640.15 1045.07 629.98
00005192 00000071 747.80 154.78 449.59 636.80 850.06 406.66 1048.04 393.11 948.67 525.41 889.21 637.84 1050.26 626.67
00005193 00000072 750.10 154.54 450.15 633.69 854.44 404.19 1053.76 389.00 956.23 520.23 895.52 634.96 1056.53 622.18
00005194 00000073 753.00 154.46 448.08 633.53 855.81 403.22 1055.19 387.75 957.63 518.70 896.90 634.35 1057.87 620.98
00005195 00000074 754.05 154.49 447.90 633.27 855.74 404.62 1054.88 387.87 956.92 518.02 898.89 635.89 1057.74 621.64
00005196 00000075 754.36 155.98 449.33 632.41 853.76 405.20 1052.83 387.88 953.33 517.60 898.01 637.13 1055.07 622.56
00005197 00000076 754.99 156.19 449.63 629.96 853.83 405.56 1051.28 389.34 950.97 519.14 898.13 637.38 1052.09 623.73
00005198 00000077 755.80 157.69 448.93 623.33 853.98 405.73 1050.81 391.49 950.25 521.61 897.00 634.98 1049.55 622.82
00005199 00000078 756.61 158.71 448.74 622.69 855.66 405.21 1052.57 391.78 951.91 521.72 897.64 634.40 1050.69 622.89
00005200 00000079 757.80 158.88 447.36 623.24 857.89 405.14 1052.99 392.37 953.36 521.81 901.03 635.94 1050.68 625.13
00005201 00000080 757.12 158.17 447.59 630.21 858.26 405.61 1053.97 393.33 954.30 522.43 901.06 639.87 1050.39 629.65
00005202 00000081 755.72 159.27 449.05 626.87 856.86 406.61 1053.53 393.04 953.94 524.13 900.82 638.62 1052.23 627.15
00005203 00000082 753.98 158.81 449.23 628.03 854.06 406.37 1052.47 394.30 950.89 528.01 895.17 638.00 1050.63 627.77
00005204 00000083 753.30 158.42 449.42 631.29 852.93 406.14 1050.12 394.12 947.81 527.93 894.42 639.46 1047.89 629.42
00005205 00000084 752.14 155.91 450.18 629.75 850.95 405.89 1047.67 394.79 944.89 526.70 889.71 634.17 1046.27 624.70
00005206 00000085 748.43 155.17 450.71 625.56 845.25 406.55 1044.03 396.54 938.90 527.24 881.88 630.82 1042.21 622.09
00005207 00000086 744.76 155.33 452.14 624.36 841.03 407.20 1039.85 397.89 933.90 526.46 876.87 629.90 1035.76 621.73
00005208 00000087 744.01 156.14 452.23 627.28 840.29 407.89 1036.74 398.37 931.67 526.21 876.93 631.69 1031.74 623.59
00005209 00000088 743.43 156.15 453.44 631.55 842.01 407.43 1037.69 398.09 934.20 527.56 878.69 633.12 1033.63 625.30
00005210 00000089 742.76 157.68 454.67 629.42 841.89 409.63 1037.47 398.41 936.63 530.78 883.52 636.04 1036.21 626.71
00005211 00000090 742.84 159.25 453.62 629.30 839.77 411.88 1035.68 399.23 934.70 531.69 881.79 638.19 1036.29 627.72
00005212 00000091 741.14 157.07 454.60 635.67 835.11 412.46 1032.00 399.06 927.98 530.14 876.76 639.47 1033.16 628.33
00005213 00000092 742.93 156.02 453.19 637.12 833.17 413.70 1030.13 399.35 923.99 529.13 874.25 640.27 1031.22 628.29
00005214 00000093 743.93 154.55 455.93 641.58 834.75 413.01 1032.45 398.15 925.35 528.89 876.59 641.95 1033.71 629.62
00005215 00000094 746.60 152.66 456.72 642.98 837.78 411.65 1035.00 396.02 927.87 525.56 879.57 641.51 1034.80 628.60
00005216 00000095 747.62 152.82 457.49 633.40 835.92 411.15 1036.11 396.91 926.56 527.60 876.40 637.31 1034.97 625.14
00005217 00000096 748.66 153.86 456.78 635.06 835.37 410.15 1033.80 397.29 922.35 528.10 873.46 636.41 1031.01 625.39
00005218 00000097 750.54 155.80 456.92 638.47 837.68 410.57 1034.79 396.99 923.17 527.40 875.90 638.51 1033.38 627.02
00005219 00000098 753.18 158.06 455.97 638.59 840.28 412.45 1036.75 397.51 926.84 529.61 880.14 640.41 1040.11 627.70
00005220 00000099 754.77 161.24 455.83 636.70 843.41 416.51 1038.08 398.76 931.81 532.13 887.01 643.08 1046.29 628.10
00005221 00000100 756.88 163.50 455.11 633.76 843.16 420.20 1037.38 401.87 929.81 534.53 886.44 644.14 1046.18 628.65
00005222 00000101 758.67 163.56 454.48 634.16 840.46 422.92 1033.46 404.03 924.01 535.97 883.77 646.46 1042.92 630.36
00005223 00000102 760.49 163.78 453.23 635.93 838.93 424.67 1030.96 406.04 918.98 536.59 879.87 647.75 1040.03 631.80
00005224 00000103 760.39 163.66 454.23 634.31 838.66 424.21 1031.00 405.61 918.44 536.89 880.41 647.97 1038.93 632.05
00005225 00000104 760.05 161.75 456.84 637.51 839.13 423.28 1032.93 403.93 920.42 536.55 882.70 648.91 1040.63 632.29
00005226 00000105 759.48 161.81 458.54 639.47 838.42 424.22 1033.18 402.93 920.72 538.13 884.78 652.31 1042.15 634.23
00005227 00000106 759.71 161.66 458.28 641.00 838.02 425.27 1032.50 404.07 920.15 539.04 885.04 654.26 1040.66 636.31
00005228 00000107 757.87 162.06 457.07 635.48 833.82 424.03 1029.73 405.34 914.51 538.49 878.67 651.88 1034.80 635.89
00005229 00000108 755.67 162.16 455.97 633.85 829.19 423.03 1026.06 406.97 907.58 539.53 869.65 649.53 1029.12 635.67
00005230 00000109 752.71 162.36 457.78 636.65 828.13 423.48 1024.65 407.41 905.82 540.10 868.62 650.57 1027.68 636.81
00005231 00000110 750.31 163.54 459.58 637.41 826.57 422.36 1025.35 405.45 907.01 539.52 869.41 652.29 1028.35 638.04
00005232 00000111 746.93 161.83 461.15 641.21 825.31 419.80 1024.90 404.07 906.45 538.87 866.72 650.28 1028.40 636.86
00005233 00000112 746.75 150.69 464.43 651.43 828.08 421.30 1022.30 404.49 902.04 539.73 868.83 648.00 1018.22 634.88
00005234 00000113 745.24 148.38 464.76 655.70 828.28 418.62 1023.08 401.72 903.59 537.35 868.36 647.51 1018.86 634.31
00005235 00000114 744.34 145.54 464.48 658.15 828.19 416.86 1024.11 400.22 904.21 536.48 867.21 646.57 1019.61 633.61
00005236 00000115 742.91 144.47 464.69 656.75 827.88 413.16 1024.28 397.02 904.31 533.65 864.97 642.09 1020.36 629.62
00005237 00000116 739.45 147.73 461.53 645.18 824.55 407.62 1026.37 396.70 909.69 532.84 858.78 637.19 1023.40 627.71
00005238 00000117 738.25 147.66 461.66 641.39 823.00 406.62 1026.51 396.04 909.96 532.81 857.01 634.28 1022.61 624.91
00005239 00000118 735.97 146.43 462.23 637.90 820.30 407.18 1023.43 396.17 908.07 532.72 855.19 632.61 1019.93 622.75
00005240 00000119 734.52 148.02 462.62 635.76 818.44 407.80 1022.36 396.87 906.31 533.31 853.65 634.00 1017.72 624.23
00005241 00000120 733.13 149.69 462.23 637.14 817.06 409.24 1021.02 399.37 904.08 535.62 851.14 635.99 1016.36 627.21
00005242 00000121 731.55 152.44 461.62 636.78 815.20 411.61 1017.91 401.74 901.77 538.37 849.10 637.72 1014.48 629.04
00005243 00000122 730.65 150.36 461.49 640.24 814.08 411.86 1017.85 400.59 902.28 538.29 849.55 639.61 1015.37 629.83
00005244 00000123 730.13 149.02 463.29 643.16 816.77 409.67 1022.04 397.86 908.22 536.63 852.63 639.82 1018.68 629.74
00005245 00000124 729.78 150.05 465.18 646.73 820.89 409.10 1026.59 396.79 915.93 536.25 857.17 639.67 1025.27 629.30
00005246 00000125 729.57 147.67 466.55 651.46 823.54 410.09 1029.79 396.65 920.85 535.53 861.19 640.61 1030.32 629.40
00005247 00000126 731.28 149.06 465.81 649.48 824.07 409.79 1029.18 396.96 919.57 535.71 860.91 639.95 1029.56 629.19
00005248 00000127 732.45 148.35 464.98 645.95 822.92 407.67 1027.88 396.16 915.62 535.67 858.88 638.48 1025.85 628.73
00005249 00000128 732.93 147.99 465.58 645.62 823.78 406.37 1028.21 394.73 915.97 533.90 859.71 636.60 1025.20 626.76
00005250 00000129 738.03 145.16 465.68 647.56 827.61 403.34 1031.72 390.65 920.17 530.50 865.40 635.03 1030.23 624.27
00005251 00000130 742.96 139.10 466.47 653.65 835.46 399.58 1039.02 384.51 931.04 525.08 875.97 633.54 1039.83 620.61
00005252 00000131 750.26 138.15 462.32 650.84 843.18 399.20 1046.56 383.62 938.37 520.92 883.20 632.21 1047.89 618.56
00005253 00000132 755.34 137.25 464.66 652.40 847.55 400.07 1050.65 384.36 940.65 518.73 887.11 631.57 1052.96 617.65
00005254 00000133 761.73 140.02 463.69 651.10 852.37 399.73 1054.53 384.86 941.89 517.55 890.45 632.23 1056.30 618.64
00005255 00000134 765.83 143.46 464.53 649.50 856.83 401.38 1057.98 388.91 944.15 518.81 893.82 633.42 1058.42 621.61
00005256 00000135 770.04 147.41 463.92 643.26 861.70 403.35 1062.31 392.26 948.50 521.55 899.80 633.61 1061.77 622.55
00005257 00000136 773.42 150.02 465.05 633.97 867.55 406.00 1068.35 394.93 955.86 521.29 906.29 632.68 1067.85 621.19
00005258 00000137 776.15 138.75 467.67 645.27 871.17 407.84 1077.36 391.09 963.47 525.76 906.31 632.02 1068.76 617.54
00005259 00000138 778.38 138.85 470.99 635.18 872.30 408.13 1076.94 397.60 957.92 529.85 907.80 631.88 1063.17 623.33
00005260 00000139 774.23 151.37 465.00 624.39 867.93 406.79 1067.79 398.54 952.95 521.22 903.94 627.64 1065.02 618.56
00005261 00000140 772.64 150.83 464.49 623.44 864.48 405.53 1065.39 397.33 949.90 522.10 900.00 627.11 1061.65 618.15
00005262 00000141 769.59 149.28 464.49 624.38 861.13 403.93 1062.45 394.25 947.35 520.75 897.82 626.05 1059.27 615.98
00005263 00000142 766.42 144.56 463.02 629.14 854.29 401.83 1056.98 388.94 941.31 516.71 891.84 624.99 1056.75 612.48
00005264 00000143 760.99 140.39 462.90 633.51 847.57 402.18 1049.84 388.28 935.51 516.34 884.57 623.84 1049.08 610.88
00005265 DELETE   754.69 139.37 458.78 635.84 839.91 408.10 1037.72 393.26 925.16 517.50 875.70 624.74 1038.75 611.20
00005266 DELETE   749.32 139.94 459.84 642.79 830.53 408.49 1026.29 391.62 909.31 514.87 866.85 631.01 1025.42 616.31
00005267 DELETE   738.99 139.16 463.63 648.04 822.35 405.40 1018.48 389.23 901.91 516.46 858.83 632.31 1014.64 618.40
00005268 00000147 735.03 139.09 461.32 641.57 815.73 404.53 1014.37 389.57 897.31 519.30 852.69 629.96 1010.03 616.69
00005269 00000148 729.62 139.17 462.07 644.21 811.50 404.96 1007.81 388.90 893.37 518.89 848.92 629.70 1003.61 615.79
00005270 00000149 726.20 138.68 464.09 645.61 808.47 405.64 1001.35 388.24 888.48 516.82 846.62 629.76 995.67 615.02
00005271 00000150 726.08 137.12 467.00 643.58 803.25 410.14 992.43 386.35 873.69 515.77 844.14 631.54 987.39 612.50
00005272 00000151 721.77 138.52 467.48 642.94 794.85 412.78 983.14 387.87 862.58 516.26 832.99 633.77 978.42 613.95
00005273 00000152 715.02 141.74 471.17 642.98 787.97 416.00 976.27 389.01 855.49 517.33 826.25 637.96 972.39 616.48
00005274 00000153 706.82 143.45 473.72 642.64 777.87 416.83 965.86 391.31 844.33 522.48 819.19 640.18 963.02 619.73
00005275 00000154 701.82 145.83 469.92 639.67 766.51 419.12 954.69 395.26 829.24 531.48 810.51 639.31 948.28 619.43
00005276 00000155 698.10 148.58 470.45 636.97 761.55 421.32 949.34 397.74 822.47 535.09 807.60 641.78 946.94 622.22
00005277 00000156 698.78 148.40 468.21 638.78 761.11 423.75 945.64 399.34 820.13 536.61 808.84 645.26 944.71 625.02
00005278 00000157 699.28 151.42 465.85 641.39 757.82 425.89 938.76 402.28 813.90 539.10 805.65 650.80 937.57 631.54
CROP_BBOX: 416 0 1430 972
