Video ID: 	P7cIcaFAAXA
H: 	1080
W: 	1920
FPS: 	25.0

FRAME INDEX X0 Y0 W H [Landmarks (5 Points)]

00008685 00000000 377.79 110.61 373.37 521.19 460.39 322.40 652.20 315.14 551.71 390.63 485.50 512.61 646.01 507.44
00008686 00000001 377.38 111.63 372.94 520.17 458.76 323.93 649.74 316.40 548.31 391.90 483.56 513.35 643.58 507.94
00008687 00000002 376.80 112.17 373.33 520.15 457.85 323.88 648.49 316.18 546.69 391.62 482.35 513.05 642.14 507.40
00008688 00000003 376.71 112.23 373.19 519.34 458.32 323.31 648.97 316.42 546.19 390.61 481.92 512.68 641.31 507.55
00008689 00000004 375.97 112.25 373.57 519.32 458.71 323.71 649.02 317.84 546.04 388.93 480.86 511.73 639.93 507.59
00008690 00000005 375.00 113.43 372.89 518.13 457.98 324.52 646.58 318.64 544.01 387.84 479.90 512.01 636.50 507.51
00008691 00000006 366.95 116.62 370.87 516.97 449.61 326.30 638.02 323.01 534.26 390.57 470.08 511.87 626.00 509.90
00008692 DELETE   350.14 121.10 373.07 518.67 431.10 332.93 620.19 331.52 508.96 399.42 450.37 516.66 606.46 516.34
00008693 DELETE   337.11 126.64 374.74 513.75 413.22 343.90 608.35 330.95 492.36 403.58 427.17 531.97 588.84 521.33
00008694 00000009 323.65 122.62 378.14 527.62 398.46 349.01 582.19 339.06 468.07 421.32 422.76 536.44 572.09 529.52
00008695 DELETE   316.30 129.76 376.31 529.76 390.82 355.24 574.01 342.32 463.03 425.51 418.32 542.26 567.08 532.40
00008696 00000011 310.98 133.22 374.21 529.07 382.11 358.85 565.84 345.66 455.83 428.54 412.22 546.20 559.24 535.90
00008697 00000012 306.14 136.25 375.95 527.08 376.65 358.77 560.64 345.97 449.92 428.14 407.20 545.54 554.56 535.49
00008698 00000013 304.36 135.74 377.71 524.56 376.44 356.84 559.21 342.38 450.79 424.41 407.49 542.17 554.61 530.82
00008699 DELETE   304.67 132.92 377.70 523.17 378.17 352.34 562.69 337.95 454.94 419.17 408.77 539.10 557.24 527.82
00008700 00000015 306.77 127.97 378.67 524.85 386.21 346.38 568.43 333.11 464.84 412.85 416.09 535.55 560.49 525.55
00008701 00000016 317.07 124.87 373.63 529.16 397.47 342.82 581.58 335.93 474.01 416.07 422.48 536.61 569.23 532.65
00008702 00000017 326.76 130.77 371.18 531.46 412.52 345.93 596.01 344.36 491.08 427.98 436.25 542.61 580.39 543.00
00008703 DELETE   333.71 139.27 376.58 536.53 421.66 354.86 610.68 352.98 506.89 442.17 437.55 556.48 590.15 555.44
00008704 00000019 337.28 151.09 373.77 536.31 426.95 363.04 616.19 363.81 512.15 450.67 441.93 564.11 594.94 564.38
00008705 00000020 341.07 151.48 373.00 535.53 430.61 364.05 621.90 362.62 516.75 448.79 447.21 563.97 600.23 562.39
00008706 00000021 348.24 147.30 370.71 536.03 433.51 362.71 624.47 356.93 518.46 443.44 451.74 560.43 604.53 555.35
00008707 00000022 346.83 139.52 375.85 537.45 430.75 355.22 622.45 352.02 513.84 436.94 457.92 551.95 609.44 549.74
00008708 00000023 348.15 140.65 377.65 542.40 430.59 358.86 622.34 351.34 514.72 440.93 462.67 556.69 615.26 550.86
00008709 00000024 346.59 143.90 382.14 546.50 429.21 367.57 621.12 353.64 516.44 447.84 467.61 566.95 617.43 555.58
00008710 00000025 343.78 146.85 385.15 546.27 425.77 373.75 619.90 354.47 515.43 453.32 468.45 574.32 618.96 558.69
00008711 00000026 344.71 146.78 386.89 545.16 425.56 373.22 620.06 353.13 513.65 451.17 468.81 573.65 619.18 557.42
00008712 00000027 347.83 145.76 386.96 541.56 429.98 366.91 624.46 350.23 519.52 445.76 472.40 568.48 623.38 554.57
00008713 00000028 357.65 140.29 381.53 543.23 442.05 364.77 636.25 352.30 533.90 440.45 482.22 563.68 633.08 553.15
00008714 00000029 366.27 134.00 379.86 547.67 455.81 367.40 644.41 358.81 544.65 446.22 490.87 561.07 639.19 554.10
00008715 DELETE   377.33 135.64 376.26 550.46 469.90 374.44 656.86 366.17 558.59 456.95 500.06 568.44 647.71 562.43
00008716 DELETE   388.28 141.41 380.34 550.16 483.29 374.07 668.79 366.21 574.39 465.86 512.71 575.59 657.50 570.00
00008717 00000032 394.05 146.68 379.95 548.68 494.60 374.86 682.19 369.15 589.41 477.10 521.25 579.88 667.07 575.72
00008718 00000033 398.77 146.36 386.59 543.82 504.06 369.91 700.57 372.12 604.91 471.59 527.91 572.56 681.04 574.87
00008719 00000034 403.08 146.41 385.14 542.04 508.41 368.94 706.69 368.99 612.41 469.54 532.85 571.66 690.29 571.89
00008720 00000035 404.48 145.44 386.00 542.85 509.38 366.32 708.72 366.08 613.50 462.80 534.07 564.60 697.26 564.30
00008721 00000036 403.77 143.30 386.27 540.66 508.46 365.00 706.15 364.30 612.85 458.84 536.04 559.62 698.31 558.71
00008722 00000037 398.96 142.95 388.37 545.49 501.87 366.83 700.19 360.24 608.44 461.65 535.34 562.58 697.65 556.97
00008723 00000038 402.75 147.26 374.52 537.21 494.04 375.37 690.62 361.47 602.59 477.55 532.78 585.03 686.21 574.07
00008724 00000039 390.51 151.08 380.47 548.77 486.70 383.85 674.58 365.42 597.18 489.72 533.02 600.25 671.79 585.77
00008725 00000040 383.58 159.60 381.46 547.54 478.88 386.79 661.55 366.33 587.81 493.23 533.04 606.82 663.14 590.57
00008726 00000041 379.17 160.70 383.41 550.42 473.59 386.42 655.80 366.73 580.33 490.33 526.46 605.79 657.59 590.02
00008727 00000042 378.88 156.59 381.89 551.43 472.38 381.55 654.84 362.40 579.38 483.47 523.04 598.85 656.64 583.39
00008728 00000043 380.40 149.92 380.87 555.02 471.44 376.86 655.04 357.49 577.68 478.37 519.16 591.89 657.52 575.69
00008729 00000044 381.22 144.04 379.76 556.44 468.78 373.95 656.82 356.16 576.20 477.08 514.13 587.21 659.71 572.06
00008730 00000045 381.64 140.25 378.24 560.18 468.84 372.09 661.06 356.70 578.49 478.46 511.78 589.39 660.89 576.44
00008731 00000046 383.71 144.81 376.46 556.42 471.78 374.06 660.71 360.52 579.33 483.31 516.89 595.66 655.67 584.76
00008732 00000047 381.01 151.79 379.42 554.70 470.24 378.99 660.83 366.45 577.78 491.39 515.71 601.65 655.37 591.62
00008733 00000048 373.09 159.75 384.71 554.97 468.09 386.10 656.35 374.93 576.79 498.69 515.48 608.17 652.23 598.90
00008734 00000049 369.03 162.79 389.83 559.54 468.33 390.76 658.28 379.37 578.28 502.32 513.33 608.59 657.01 598.73
00008735 00000050 365.88 164.13 394.26 562.13 467.41 391.62 658.74 377.61 579.53 501.89 510.20 604.55 662.86 591.77
00008736 00000051 365.03 163.57 392.94 559.03 465.43 388.21 657.44 372.56 578.85 493.12 507.57 596.92 665.13 582.41
00008737 00000052 368.33 152.86 386.98 556.18 462.12 380.50 657.12 363.83 576.62 487.01 505.36 591.22 664.17 576.13
00008738 DELETE   374.32 142.62 377.82 557.27 467.00 369.71 659.67 355.79 581.29 473.33 507.92 585.91 659.34 573.66
00008739 00000054 377.50 137.68 377.73 554.22 474.05 358.06 661.39 344.74 587.01 458.74 516.32 578.33 652.85 566.43
00008740 00000055 383.48 130.96 378.86 559.15 481.54 353.80 671.22 340.93 595.00 451.83 520.07 575.24 661.08 564.03
00008741 00000056 391.64 129.05 377.73 571.56 496.06 360.58 684.10 354.89 599.00 452.92 524.25 573.35 674.82 569.40
00008742 00000057 398.17 129.98 379.05 578.12 507.94 359.77 697.36 354.77 618.58 453.36 532.98 572.50 688.68 568.98
00008743 00000058 403.66 120.44 388.03 592.10 519.37 352.44 713.24 359.29 632.69 447.57 539.44 559.93 701.76 565.95
00008744 00000059 412.32 130.45 384.37 578.98 535.28 349.22 723.78 358.15 651.54 448.91 550.86 563.62 705.27 570.59
00008745 00000060 422.67 130.51 386.88 575.40 547.77 349.89 736.88 356.02 663.92 448.80 566.38 563.34 718.66 567.40
00008746 00000061 436.67 127.00 384.51 572.64 561.63 350.82 750.83 356.06 682.76 451.16 580.27 560.67 735.89 563.90
00008747 00000062 448.27 128.82 382.47 562.61 570.16 355.65 761.49 358.43 694.06 456.99 590.87 562.77 746.96 564.01
00008748 00000063 459.71 127.35 382.49 560.29 581.01 354.56 771.45 352.93 707.40 453.44 606.00 560.99 761.95 558.84
00008749 00000064 467.87 124.07 392.15 559.54 597.43 351.98 790.62 345.39 728.20 444.64 638.51 554.73 795.36 549.01
00008750 00000065 477.73 123.49 388.99 552.17 607.01 352.64 798.07 340.69 741.53 442.49 655.81 552.30 809.35 541.44
00008751 00000066 484.99 120.10 388.49 549.58 611.25 345.35 799.66 333.63 743.02 431.05 663.06 548.12 810.19 537.81
00008752 00000067 488.68 116.41 384.60 548.72 611.79 337.70 798.03 324.39 742.22 417.08 664.32 541.48 808.99 530.29
00008753 DELETE   490.64 112.68 382.67 542.63 608.96 330.33 795.96 313.84 739.55 405.24 664.55 532.90 811.13 518.66
00008754 00000069 486.52 111.30 383.15 526.93 605.46 324.97 779.52 302.42 728.46 390.05 667.75 518.88 800.60 499.92
00008755 00000070 480.32 109.76 383.76 522.52 600.87 320.94 770.08 300.17 721.50 377.56 658.04 507.95 790.01 491.32
00008756 00000071 474.22 109.89 386.17 521.10 592.39 318.40 763.81 297.91 707.85 372.50 648.00 505.61 780.23 489.20
00008757 00000072 473.72 108.78 381.28 523.29 584.44 316.07 759.61 297.84 697.14 375.55 639.01 507.40 771.30 492.97
00008758 00000073 470.51 112.95 379.69 520.98 576.48 319.40 751.89 301.73 684.57 381.27 628.63 511.58 759.80 497.34
00008759 00000074 467.73 108.16 375.10 527.38 573.20 322.75 748.77 300.08 684.37 391.52 617.37 520.61 753.14 502.44
00008760 00000075 464.17 109.71 375.52 527.95 564.89 327.33 743.31 304.24 673.44 404.29 610.74 528.20 747.11 510.12
00008761 00000076 461.33 115.94 375.33 527.47 558.31 332.59 738.21 309.01 665.62 413.39 603.94 534.34 742.38 515.93
00008762 00000077 456.60 121.81 373.88 527.23 549.37 335.54 730.13 312.07 654.52 410.30 594.48 536.84 733.39 518.40
00008763 00000078 451.83 122.79 373.89 525.71 542.54 337.91 725.46 315.35 646.74 409.71 588.36 535.69 730.69 517.76
00008764 00000079 447.31 122.21 371.94 525.65 533.13 339.65 721.11 319.40 637.04 410.72 577.54 532.52 729.25 516.25
00008765 00000080 440.14 123.02 371.41 524.20 525.60 339.89 709.30 321.54 625.20 411.02 569.70 531.03 714.67 516.85
00008766 00000081 434.14 121.10 370.77 525.96 520.08 339.26 702.96 321.56 619.49 413.25 563.37 530.18 706.70 516.77
00008767 00000082 426.54 123.14 373.63 525.28 512.95 342.49 695.21 323.77 612.31 412.94 559.42 531.92 699.65 517.52
00008768 00000083 422.23 124.28 374.65 527.21 506.35 344.72 693.36 325.23 603.74 412.24 552.44 533.51 697.99 518.51
00008769 00000084 418.56 124.60 374.30 526.35 500.37 345.15 692.53 328.57 595.50 410.98 543.26 530.38 698.79 517.20
00008770 00000085 413.77 124.99 375.73 524.34 495.56 344.09 690.35 328.61 588.63 409.95 535.20 527.35 696.19 514.82
00008771 00000086 408.94 123.41 380.38 522.91 494.12 341.38 679.09 323.64 582.14 415.95 530.40 529.37 682.78 514.92
00008772 00000087 408.25 124.91 378.02 524.04 491.99 339.17 676.69 323.07 578.44 414.30 527.51 528.75 680.48 515.51
00008773 00000088 405.82 122.59 377.77 526.22 491.30 336.44 674.55 320.94 577.40 413.22 526.97 527.97 677.75 515.13
00008774 00000089 403.41 117.53 379.30 525.34 488.83 333.80 673.98 319.62 575.60 413.89 524.21 525.98 676.43 514.23
00008775 00000090 401.69 114.08 378.21 527.46 486.38 331.00 674.08 318.12 573.86 414.09 519.57 527.18 673.07 517.23
00008776 00000091 400.96 112.40 376.55 531.77 485.50 329.64 673.99 316.86 574.51 412.67 518.31 528.21 672.40 518.64
00008777 00000092 398.31 110.51 376.67 537.54 485.92 329.40 670.82 315.07 574.41 410.38 517.84 528.49 668.63 518.06
00008778 00000093 397.31 108.03 374.24 538.45 482.14 328.32 671.72 314.80 572.45 410.08 512.95 527.44 669.61 517.97
00008779 00000094 395.32 105.29 372.80 537.25 477.55 324.77 668.86 313.38 567.93 408.72 507.31 525.58 665.33 517.71
00008780 00000095 393.47 104.26 373.04 535.94 477.62 322.02 665.32 311.65 567.94 405.77 507.63 524.07 659.11 516.83
00008781 00000096 390.21 105.41 373.47 532.39 476.04 318.94 659.87 311.62 565.01 403.79 506.60 522.10 650.24 516.90
00008782 00000097 387.13 107.19 374.66 532.27 473.98 319.40 656.85 313.60 561.81 402.70 503.18 521.22 645.96 517.20
00008783 00000098 382.66 108.58 373.40 534.70 469.90 324.33 652.92 318.69 558.32 401.75 497.09 522.53 640.91 518.99
00008784 00000099 378.95 111.62 372.86 538.42 463.97 327.28 649.26 322.34 552.45 401.23 488.79 523.04 638.01 520.01
00008785 00000100 371.91 115.09 375.87 540.63 457.46 332.85 641.28 325.93 546.45 406.41 485.75 527.72 632.12 522.96
00008786 00000101 366.52 119.79 379.84 546.23 452.69 338.10 636.74 329.94 541.17 413.13 482.04 533.34 629.88 527.53
00008787 00000102 364.21 120.50 382.87 553.97 447.31 341.71 635.42 332.72 536.87 421.75 479.58 537.39 636.02 530.17
00008788 00000103 363.22 119.45 383.55 560.34 445.97 343.38 635.98 335.66 536.91 426.23 477.78 537.83 640.92 531.05
00008789 00000104 362.00 119.89 384.18 560.62 444.52 342.13 636.24 333.80 536.30 425.66 476.15 536.73 642.65 529.41
00008790 00000105 362.36 119.15 385.33 557.03 445.28 339.32 638.04 331.77 537.20 423.32 474.49 533.24 643.07 526.63
00008791 00000106 363.10 117.61 383.97 554.36 446.63 336.92 639.72 329.70 539.13 418.89 474.65 529.70 644.17 523.44
00008792 00000107 365.39 118.06 382.42 545.85 448.84 336.41 642.56 329.62 542.40 416.95 474.62 525.32 646.06 519.49
00008793 00000108 368.74 119.31 378.92 539.64 451.41 335.82 645.08 329.45 544.46 415.01 476.66 521.43 650.09 515.94
00008794 00000109 372.58 119.38 376.59 537.18 455.31 335.60 649.16 330.47 549.12 414.62 480.59 519.73 655.01 515.04
00008795 00000110 381.13 121.69 372.85 531.01 462.19 335.35 655.89 330.68 554.04 415.96 485.54 518.35 660.08 514.58
00008796 00000111 387.34 125.93 368.88 524.33 466.75 336.12 659.75 331.77 556.40 417.00 487.43 517.26 663.26 514.16
00008797 00000112 393.69 126.81 369.74 520.78 479.62 336.17 669.56 336.79 567.93 417.41 495.66 515.27 668.35 516.80
00008798 00000113 405.79 128.98 371.20 522.38 500.18 340.55 686.24 344.13 589.21 422.49 515.80 517.01 682.43 521.04
00008799 00000114 415.31 126.19 367.88 526.89 520.75 333.92 708.13 346.89 618.72 415.83 534.53 512.79 695.85 524.08
00008800 00000115 425.88 126.10 365.46 523.99 532.45 333.19 720.15 350.18 631.12 415.40 545.11 514.14 703.23 528.90
00008801 00000116 431.19 127.48 363.67 520.57 535.96 335.40 727.65 353.56 636.00 418.86 548.08 520.12 703.81 536.09
00008802 00000117 438.68 127.18 362.87 523.06 540.70 336.17 731.86 353.21 638.47 424.42 551.49 525.00 704.43 540.25
00008803 00000118 444.73 125.39 364.62 530.16 547.04 336.21 738.69 353.43 645.12 429.09 557.73 529.57 710.88 544.97
00008804 00000119 449.59 127.08 365.88 534.10 551.65 337.34 743.46 353.21 648.95 433.58 564.44 532.90 719.12 547.40
00008805 00000120 451.13 129.12 364.94 535.86 552.72 339.38 744.57 354.21 650.72 438.53 566.01 533.89 724.07 547.47
00008806 00000121 453.32 130.01 364.89 536.37 555.48 340.21 746.16 355.56 651.99 439.23 567.99 533.32 726.82 547.22
00008807 00000122 454.25 129.12 365.94 534.75 557.70 339.56 747.11 354.77 654.62 437.28 569.60 532.37 726.54 546.30
00008808 00000123 454.89 127.37 366.57 532.31 562.03 337.54 746.96 353.91 658.58 433.78 572.39 529.95 722.39 545.25
00008809 00000124 454.75 125.74 368.17 526.55 564.75 336.37 747.90 351.12 661.82 431.96 578.02 529.62 721.69 543.66
00008810 00000125 456.78 127.57 367.04 522.00 568.43 335.44 748.55 351.26 666.04 431.01 581.58 528.53 721.71 543.63
00008811 00000126 458.33 128.75 366.49 520.99 572.33 340.40 751.57 356.60 669.78 430.96 585.47 529.40 725.31 544.58
00008812 DELETE   465.17 129.63 367.65 521.48 586.73 341.39 764.93 360.76 688.38 429.13 596.32 526.86 737.43 544.38
00008813 DELETE   474.17 123.58 369.70 519.78 608.53 334.19 788.84 356.09 725.81 420.88 623.39 523.29 762.07 542.08
00008814 00000129 481.23 118.58 371.83 527.34 630.76 334.41 805.10 349.97 752.93 415.39 656.05 519.21 786.72 532.32
00008815 00000130 488.32 117.57 364.43 525.78 638.85 330.67 808.27 345.71 765.30 410.43 662.82 513.47 793.39 526.54
00008816 00000131 483.77 115.78 367.93 526.74 636.20 323.93 803.79 338.88 763.17 407.42 662.90 514.90 789.83 527.83
00008817 00000132 478.71 114.85 368.36 526.90 627.71 322.03 797.53 333.75 754.78 404.40 657.83 512.60 788.54 522.50
00008818 00000133 477.39 108.65 367.55 527.83 621.84 317.45 801.83 326.30 759.39 398.66 649.13 510.71 795.01 518.33
00008819 00000134 473.06 108.58 362.58 522.27 614.35 319.17 792.64 324.18 751.26 398.93 644.20 511.03 789.31 515.63
00008820 00000135 463.96 109.41 365.01 516.79 601.39 325.23 783.33 327.42 737.15 400.46 635.76 513.85 783.37 515.33
00008821 00000136 456.21 115.19 365.91 516.97 586.48 329.70 767.50 328.00 715.36 404.01 620.33 518.31 765.08 517.19
00008822 00000137 442.08 120.12 366.85 525.09 569.88 335.29 748.71 333.66 697.26 409.73 605.92 527.75 747.36 526.34
00008823 00000138 432.29 123.73 368.00 529.92 553.56 339.39 737.24 334.01 678.22 419.27 594.64 534.00 739.22 529.33
00008824 00000139 426.65 126.75 370.10 530.23 546.06 339.43 732.92 339.08 668.25 423.77 582.32 533.91 731.82 533.72
00008825 00000140 428.48 125.14 371.42 533.27 548.83 335.53 738.08 342.38 668.80 420.24 577.52 529.47 731.09 535.52
00008826 00000141 436.08 124.74 373.25 530.19 559.16 333.84 745.24 342.69 676.22 417.53 584.45 527.20 733.72 535.18
00008827 00000142 439.98 122.97 372.57 531.19 569.78 334.63 750.38 345.54 686.85 418.21 592.50 527.47 735.46 537.28
00008828 00000143 440.82 120.70 372.69 534.03 570.43 333.75 749.40 345.11 686.04 419.11 594.18 529.28 731.90 539.44
00008829 00000144 436.02 117.79 377.45 538.95 559.59 331.98 744.24 340.61 673.86 421.54 587.67 532.04 728.21 539.59
00008830 00000145 424.36 115.07 377.84 546.97 538.15 335.98 729.45 344.08 650.78 424.39 567.77 535.96 715.35 542.87
00008831 00000146 412.98 115.07 378.85 548.51 520.88 335.91 710.43 344.75 623.54 427.74 547.78 534.58 693.40 542.00
00008832 00000147 405.56 119.13 380.48 547.74 508.67 334.42 698.45 342.82 604.38 435.48 530.65 537.43 680.15 544.52
00008833 00000148 405.74 123.72 375.72 544.28 496.45 340.18 683.90 340.25 583.00 443.20 523.49 546.68 669.14 546.82
00008834 00000149 408.29 125.02 372.78 545.22 494.97 341.47 685.15 344.37 577.93 441.53 507.30 546.01 662.52 549.27
00008835 00000150 402.58 121.67 377.15 542.85 486.88 337.62 674.51 339.05 565.31 441.02 511.35 543.29 657.05 545.26
00008836 00000151 406.27 120.89 374.26 545.93 487.04 337.27 673.42 338.14 563.04 440.63 510.65 543.85 655.37 545.53
00008837 00000152 415.97 123.28 367.02 548.90 492.22 341.01 681.67 342.69 566.84 438.26 505.46 547.81 655.42 549.70
00008838 00000153 421.51 123.05 367.31 552.31 497.99 341.30 686.98 342.76 570.74 439.03 509.80 547.18 661.92 548.93
00008839 00000154 425.00 119.01 369.54 551.27 504.74 338.16 697.81 344.35 581.29 438.62 519.91 539.13 676.45 544.76
00008840 00000155 436.61 117.39 370.98 547.98 522.61 339.27 712.00 345.01 608.10 437.79 545.69 539.38 694.86 544.59
00008841 DELETE   447.65 115.71 374.74 545.69 542.00 336.04 734.47 340.56 638.44 437.72 566.65 538.65 717.86 542.99
00008842 DELETE   462.61 118.24 375.08 533.69 566.34 342.13 752.90 344.44 667.12 434.14 592.13 534.33 743.00 536.68
00008843 DELETE   473.66 115.53 378.14 530.44 592.10 336.57 774.29 335.09 703.74 423.75 628.53 527.76 770.96 526.67
00008844 00000159 493.27 111.27 369.23 530.67 612.11 328.09 793.69 318.98 735.59 414.29 656.57 525.25 796.42 517.43
00008845 00000160 502.81 104.03 369.25 527.82 626.73 321.88 798.75 304.88 754.62 403.83 679.58 520.94 806.69 506.62
00008846 00000161 505.00 102.60 365.74 526.94 630.27 321.68 796.58 299.42 759.74 398.63 687.53 518.76 809.46 499.67
00008847 00000162 498.22 103.82 368.41 528.20 625.27 322.49 789.26 298.83 752.11 398.38 684.92 518.59 804.16 498.51
00008848 00000163 485.76 109.89 372.18 529.51 611.16 329.19 778.37 303.76 739.86 403.34 673.86 521.15 802.49 499.64
00008849 00000164 473.41 115.60 374.19 531.13 598.90 337.69 774.04 312.72 731.17 412.96 654.34 524.94 798.69 504.85
00008850 00000165 471.62 118.93 377.31 525.06 594.10 346.25 774.26 314.50 728.37 416.77 646.85 532.55 796.71 505.45
00008851 00000166 464.93 126.47 381.26 525.08 589.46 351.39 768.93 320.74 722.17 430.32 648.28 536.06 798.52 510.62
00008852 00000167 465.54 128.73 381.09 518.37 589.16 356.62 769.40 324.66 721.73 431.80 641.15 537.59 790.92 510.06
00008853 00000168 464.74 126.90 380.80 514.71 585.49 356.53 768.49 327.43 715.37 432.32 635.53 536.61 786.54 511.48
00008854 00000169 465.32 121.69 379.68 516.52 579.49 352.74 767.22 327.15 706.44 431.68 627.65 535.71 781.89 513.82
00008855 00000170 463.67 115.96 378.92 520.24 574.95 348.29 764.89 325.67 700.75 431.18 621.37 533.01 777.84 513.82
