Video ID: 	-bxCkmr1bdo
H: 	1080
W: 	1920
FPS: 	25.0

FRAME INDEX X0 Y0 W H [Landmarks (5 Points)]

00014808 00000000 917.02 79.21 408.27 606.74 974.79 333.07 1156.80 303.91 1040.94 409.96 1005.76 541.20 1166.03 517.10
00014809 00000001 918.10 76.14 408.09 612.51 974.34 333.30 1156.89 304.87 1039.60 412.78 1004.95 543.99 1165.47 520.48
00014810 DELETE   918.26 74.77 408.71 618.94 972.00 339.81 1156.61 309.58 1037.07 420.94 1005.16 551.04 1167.41 525.68
00014811 00000003 920.13 73.57 408.59 623.07 974.71 341.09 1158.85 314.16 1037.39 426.62 1006.56 553.34 1166.98 530.58
00014812 00000004 922.52 76.53 409.64 622.54 981.61 341.47 1165.27 316.32 1046.20 426.60 1011.53 552.66 1173.36 531.34
00014813 00000005 924.15 80.62 412.34 615.62 986.71 342.42 1170.00 319.16 1051.23 427.57 1015.02 551.13 1175.57 531.11
00014814 00000006 926.89 80.82 411.71 606.03 990.22 342.84 1172.57 324.39 1053.86 429.31 1015.66 546.77 1173.06 531.12
00014815 00000007 928.70 79.72 408.87 598.59 989.24 342.33 1171.92 326.66 1052.12 429.20 1011.01 543.03 1167.75 529.80
00014816 00000008 928.89 79.82 407.79 598.75 988.35 341.32 1170.68 327.36 1049.52 428.74 1007.49 540.76 1164.29 529.10
00014817 00000009 928.84 80.31 402.97 598.88 985.99 341.06 1166.45 329.03 1044.40 430.50 1002.74 541.84 1157.65 531.49
00014818 00000010 927.38 80.81 400.99 597.49 984.04 342.77 1162.50 331.93 1041.46 433.00 1001.06 543.90 1151.99 534.37
00014819 00000011 926.41 82.86 400.66 596.39 981.64 344.07 1160.32 333.00 1038.19 434.64 998.34 546.74 1148.24 537.07
00014820 00000012 926.05 84.61 400.55 597.99 982.88 343.81 1160.19 332.86 1038.79 434.19 999.15 547.90 1146.92 538.50
00014821 00000013 926.33 85.10 399.43 597.24 983.20 343.80 1159.68 333.66 1038.67 435.25 999.10 548.37 1144.32 539.83
00014822 00000014 927.27 85.60 397.73 597.91 984.05 344.32 1159.49 334.80 1037.83 435.55 998.44 549.47 1141.70 541.58
00014823 00000015 927.33 87.24 397.62 595.40 984.11 345.08 1159.18 336.57 1037.25 436.16 996.85 549.20 1137.70 542.26
00014824 00000016 926.91 88.69 397.30 592.88 984.33 345.42 1159.06 337.42 1037.84 435.88 996.43 548.37 1136.60 541.87
00014825 00000017 926.56 88.59 396.69 593.56 983.45 345.28 1158.30 337.25 1036.11 436.65 995.21 548.79 1135.79 542.25
00014826 00000018 926.96 89.99 395.94 592.41 984.01 344.88 1158.02 337.74 1035.80 436.91 995.14 548.46 1134.83 542.65
00014827 00000019 927.40 90.33 396.17 593.03 984.42 345.99 1158.12 338.61 1036.26 437.06 995.39 548.81 1135.26 542.80
00014828 00000020 928.43 91.07 395.53 593.57 985.32 346.37 1157.38 339.64 1035.81 437.49 995.47 549.04 1134.52 543.53
00014829 00000021 929.19 91.01 394.93 595.29 986.31 346.62 1157.25 340.12 1034.70 438.17 995.88 549.78 1133.78 544.55
00014830 00000022 930.46 92.09 395.17 595.25 987.60 348.19 1157.33 341.56 1035.35 440.17 998.58 551.04 1134.55 545.76
00014831 00000023 931.33 94.02 396.59 590.97 989.42 349.23 1160.64 343.13 1037.78 441.64 1000.46 549.04 1139.89 544.05
00014832 00000024 935.16 95.06 396.76 587.25 994.32 348.64 1167.01 343.58 1042.31 438.74 1001.98 546.08 1145.09 542.18
00014833 00000025 937.91 95.85 400.04 582.41 999.49 349.02 1172.63 342.84 1049.47 436.95 1008.27 543.53 1152.59 538.92
00014834 00000026 946.31 95.02 399.28 581.16 1006.15 347.46 1177.80 341.08 1054.39 437.43 1015.70 541.08 1158.51 536.50
00014835 00000027 954.00 95.70 396.19 578.15 1011.49 349.15 1181.88 341.65 1058.11 438.13 1023.31 538.61 1166.00 533.55
00014836 00000028 960.53 96.11 396.20 574.91 1016.25 350.00 1188.85 342.51 1065.35 441.07 1030.73 538.36 1174.83 533.31
00014837 00000029 965.41 96.21 397.48 579.48 1022.84 350.03 1198.85 341.85 1086.10 438.54 1038.14 544.11 1174.36 537.64
00014838 00000030 974.95 95.91 395.15 581.34 1032.73 348.82 1207.94 344.16 1095.87 442.05 1047.95 545.17 1185.06 541.74
00014839 00000031 979.72 95.20 397.29 586.62 1041.13 349.21 1219.33 346.37 1105.45 441.53 1054.16 545.68 1195.68 543.43
00014840 00000032 981.60 95.12 399.33 587.80 1045.34 348.37 1225.62 347.19 1110.08 442.39 1055.15 544.86 1200.10 543.81
00014841 00000033 983.48 95.61 399.52 588.51 1047.43 347.05 1228.85 346.85 1112.05 443.51 1055.76 544.65 1202.27 544.37
00014842 00000034 983.43 94.52 399.62 592.09 1047.52 346.75 1231.76 346.39 1113.38 444.20 1055.46 545.28 1205.88 544.77
00014843 00000035 983.33 94.49 399.90 594.56 1048.89 348.59 1234.47 348.64 1116.07 446.02 1055.37 546.20 1209.09 545.96
00014844 00000036 983.52 96.34 400.32 597.33 1050.16 349.83 1235.83 350.12 1116.05 448.33 1056.30 548.17 1211.58 548.12
00014845 00000037 984.45 96.76 400.32 596.25 1050.92 350.03 1237.34 350.47 1116.97 448.55 1056.73 548.42 1213.23 548.58
00014846 00000038 985.60 96.71 400.22 594.12 1051.50 348.02 1238.14 348.53 1117.17 445.64 1057.06 546.70 1212.59 547.01
00014847 00000039 986.39 97.03 401.11 589.09 1052.19 345.10 1238.81 346.65 1115.02 441.91 1056.97 544.39 1210.82 545.69
00014848 00000040 986.84 97.20 401.93 587.29 1052.65 344.47 1239.87 346.10 1115.61 439.56 1056.37 543.15 1210.63 544.59
00014849 00000041 987.13 97.46 403.42 587.75 1052.85 345.10 1241.36 346.89 1115.76 439.53 1055.73 543.93 1211.13 545.47
00014850 00000042 987.84 97.84 403.60 590.81 1053.47 345.53 1242.26 347.28 1115.79 442.17 1056.20 545.50 1213.09 546.96
00014851 00000043 989.05 97.67 404.48 591.71 1055.13 347.58 1245.07 348.97 1119.81 444.25 1058.24 546.57 1217.88 547.63
00014852 00000044 989.95 97.76 406.28 594.95 1056.26 347.94 1247.18 348.84 1121.76 446.14 1059.51 548.51 1221.07 549.13
00014853 00000045 989.38 97.51 408.38 595.73 1055.92 347.38 1247.30 349.08 1121.93 446.87 1059.11 548.46 1221.56 549.65
00014854 00000046 988.01 96.95 409.73 596.30 1053.61 347.55 1246.53 349.27 1120.25 447.47 1057.04 549.01 1220.70 550.11
00014855 00000047 986.98 95.38 410.49 601.10 1052.13 348.76 1244.17 349.24 1119.59 450.45 1057.02 551.68 1220.10 551.79
00014856 00000048 987.02 95.27 412.12 612.21 1052.88 351.59 1244.12 350.70 1119.45 451.54 1058.07 557.23 1224.10 556.10
00014857 00000049 989.35 94.57 411.70 613.27 1053.58 352.11 1244.02 349.22 1118.10 453.01 1063.14 559.99 1227.78 557.24
00014858 00000050 990.08 93.83 414.12 613.25 1053.94 350.58 1246.28 347.72 1118.78 452.80 1063.61 557.69 1230.88 554.71
00014859 00000051 990.19 94.33 415.48 611.77 1055.22 350.15 1247.24 347.83 1120.36 453.54 1065.35 556.53 1232.37 553.98
00014860 00000052 991.40 92.95 415.95 607.25 1054.90 351.85 1249.36 351.57 1120.85 456.08 1063.68 554.10 1233.78 553.02
00014861 00000053 992.06 93.49 415.86 607.03 1056.79 352.37 1249.88 352.21 1122.21 455.70 1064.71 551.77 1234.58 550.79
00014862 00000054 992.75 95.29 417.20 613.22 1059.68 351.54 1249.62 351.29 1122.15 453.11 1065.29 552.44 1233.47 551.35
00014863 00000055 994.53 94.25 419.54 615.93 1062.66 350.39 1252.12 350.34 1124.95 452.42 1068.26 550.26 1238.68 548.99
00014864 00000056 993.23 95.69 423.94 616.18 1065.73 347.89 1254.65 349.21 1126.96 450.38 1069.40 546.30 1242.52 546.02
00014865 00000057 991.65 95.37 426.60 621.73 1065.62 346.35 1254.97 346.85 1127.78 448.34 1069.07 547.99 1242.85 547.18
00014866 00000058 995.07 101.40 429.05 633.38 1064.38 351.47 1261.32 341.50 1133.87 452.55 1079.02 560.68 1252.37 550.96
00014867 00000059 992.88 94.10 429.32 636.57 1067.05 349.80 1256.37 347.04 1131.20 456.09 1079.65 559.02 1252.12 555.61
00014868 00000060 996.95 92.25 425.89 633.36 1070.07 352.37 1259.13 352.17 1132.39 457.97 1080.29 560.28 1247.62 559.26
00014869 00000061 997.92 92.66 422.79 627.46 1069.66 353.26 1259.83 356.96 1130.94 458.31 1075.48 560.37 1240.50 562.80
00014870 00000062 997.72 94.74 422.84 624.02 1070.10 353.92 1259.63 359.62 1129.71 458.80 1073.01 558.36 1237.60 562.51
00014871 00000063 997.78 96.54 422.13 623.89 1069.67 355.96 1260.22 361.33 1130.43 461.13 1072.46 560.29 1237.83 564.23
00014872 00000064 997.39 96.84 422.62 625.69 1069.35 358.02 1260.11 363.83 1129.86 462.10 1071.38 561.70 1236.53 565.96
00014873 00000065 995.89 96.92 422.34 627.92 1066.35 358.28 1259.67 365.03 1129.29 463.87 1068.71 563.82 1235.85 568.70
00014874 00000066 995.09 98.05 421.73 628.83 1062.91 359.40 1255.61 366.28 1124.54 465.98 1065.24 566.06 1231.67 571.07
00014875 00000067 996.80 99.90 417.18 624.71 1059.75 362.58 1248.15 368.20 1117.55 468.67 1064.14 567.86 1226.44 571.86
00014876 00000068 997.02 101.47 416.64 622.49 1057.64 364.68 1245.54 370.23 1113.76 471.46 1063.33 568.73 1224.98 572.74
00014877 00000069 997.41 101.49 416.15 619.45 1056.35 364.98 1244.09 370.47 1111.77 472.25 1063.44 568.74 1223.82 572.72
00014878 00000070 997.69 101.49 416.13 619.19 1055.51 365.83 1243.14 371.22 1110.87 474.27 1064.30 569.90 1224.40 573.76
00014879 00000071 998.16 102.18 416.53 616.83 1056.15 367.75 1243.48 373.73 1110.69 476.08 1065.25 569.90 1224.87 574.25
00014880 00000072 997.54 102.13 418.27 618.00 1055.90 368.33 1244.66 374.56 1112.41 478.13 1065.41 569.67 1228.33 574.11
00014881 00000073 997.55 101.94 419.49 618.02 1056.61 368.67 1245.39 375.18 1112.78 478.04 1065.77 569.18 1228.83 573.82
00014882 00000074 997.59 102.21 419.65 616.49 1056.12 368.77 1245.72 375.11 1113.21 478.69 1065.70 568.90 1229.96 573.37
00014883 00000075 997.76 102.80 419.99 616.66 1056.56 369.32 1246.42 375.22 1114.22 479.51 1066.35 569.26 1230.91 573.40
00014884 00000076 996.91 103.17 421.85 616.24 1056.09 369.19 1247.82 374.08 1115.62 480.20 1066.21 570.18 1232.48 573.51
00014885 00000077 997.78 102.55 423.30 617.64 1056.71 370.71 1249.45 374.68 1116.38 480.55 1067.31 571.59 1234.29 574.06
00014886 00000078 998.16 102.74 423.95 618.38 1057.42 371.34 1250.89 374.83 1117.75 481.70 1068.42 572.25 1236.39 574.29
00014887 00000079 997.87 103.36 424.52 617.38 1057.59 371.68 1251.78 374.89 1118.58 482.12 1068.71 572.67 1237.36 574.46
00014888 00000080 998.23 103.13 425.08 620.20 1057.19 372.34 1252.20 375.03 1118.53 483.78 1069.86 574.91 1238.65 576.22
00014889 00000081 998.41 103.11 426.22 623.61 1057.99 374.29 1253.26 376.28 1119.66 485.78 1071.35 576.60 1240.89 577.30
00014890 00000082 998.03 103.63 427.46 625.73 1057.53 375.40 1254.16 377.02 1119.56 487.33 1071.58 578.90 1241.92 579.28
00014891 00000083 997.82 103.87 429.74 628.16 1057.55 377.35 1254.64 377.67 1120.09 489.14 1073.15 581.07 1244.12 580.36
00014892 00000084 997.49 104.36 430.69 628.26 1057.49 377.46 1255.68 378.06 1120.24 490.70 1073.35 581.91 1245.05 581.39
00014893 00000085 998.36 104.45 431.17 630.34 1059.43 378.33 1257.79 378.92 1122.94 492.04 1074.63 582.29 1246.52 581.81
00014894 00000086 998.97 103.51 431.18 633.38 1061.22 378.18 1259.55 378.57 1125.61 492.59 1075.53 582.69 1247.60 582.06
00014895 00000087 1001.64 90.94 433.51 643.62 1063.09 379.93 1261.43 376.84 1137.09 493.08 1075.65 584.84 1249.33 582.05
00014896 00000088 998.63 104.81 430.60 632.38 1059.60 379.80 1258.30 379.88 1123.59 494.21 1074.31 584.48 1246.45 583.66
00014897 00000089 997.55 104.94 429.95 633.36 1056.21 380.89 1254.28 380.36 1119.26 496.11 1072.13 586.50 1243.91 585.20
00014898 00000090 995.01 106.90 430.90 631.07 1053.36 382.35 1251.83 381.21 1116.88 497.70 1069.97 588.00 1242.53 586.28
00014899 00000091 992.93 106.02 431.14 631.17 1051.28 382.98 1249.35 382.33 1114.59 497.87 1068.37 588.42 1240.31 587.00
00014900 00000092 989.75 105.30 431.26 630.11 1048.78 382.99 1246.49 382.84 1112.14 497.83 1065.30 587.76 1237.83 586.69
00014901 00000093 988.33 106.12 430.93 630.01 1046.90 383.28 1243.86 383.12 1108.78 497.65 1062.51 587.81 1235.40 586.82
00014902 00000094 987.34 105.83 427.85 629.36 1044.83 383.49 1240.36 383.61 1106.54 497.53 1059.30 587.60 1231.51 586.86
00014903 00000095 985.07 105.04 426.82 628.99 1042.31 384.25 1238.32 383.20 1105.28 497.21 1057.03 588.03 1229.58 586.41
00014904 00000096 982.24 104.39 427.18 628.67 1040.79 384.68 1236.23 383.51 1104.12 497.65 1054.62 587.80 1226.59 586.20
00014905 00000097 980.62 101.16 425.56 630.78 1040.25 385.22 1235.37 384.81 1104.16 498.17 1052.68 586.97 1224.22 585.97
00014906 00000098 978.59 101.33 425.75 630.43 1038.73 386.31 1234.38 386.48 1103.50 498.79 1050.90 587.16 1222.54 586.55
00014907 00000099 977.11 99.39 424.88 633.99 1036.89 387.17 1232.39 386.58 1102.50 501.04 1050.10 589.34 1220.78 588.12
00014908 00000100 975.34 99.49 423.43 636.25 1033.36 388.59 1228.08 385.12 1099.11 501.13 1047.98 591.25 1218.20 587.85
00014909 00000101 972.98 99.12 421.89 639.15 1029.08 389.86 1224.06 384.22 1096.31 501.35 1045.17 593.57 1215.18 588.47
00014910 00000102 970.51 98.17 421.08 641.29 1024.43 391.39 1218.73 383.78 1092.38 501.56 1042.67 595.99 1211.03 589.38
00014911 00000103 967.42 99.64 421.21 645.05 1020.78 393.66 1213.01 385.67 1087.69 503.85 1038.10 598.14 1204.41 591.44
00014912 00000104 963.87 97.72 420.79 654.01 1016.94 393.81 1208.91 387.12 1083.30 504.68 1033.13 600.96 1197.81 595.48
00014913 00000105 960.89 98.97 419.72 655.55 1012.91 394.31 1203.30 387.76 1081.27 506.28 1031.53 603.95 1190.58 598.85
00014914 00000106 955.97 98.07 419.67 655.01 1009.43 393.63 1198.94 387.09 1078.96 504.72 1028.91 603.84 1184.32 598.97
00014915 00000107 953.55 98.93 417.88 655.35 1008.16 391.04 1196.31 385.99 1077.36 503.75 1026.30 603.30 1178.12 599.76
00014916 00000108 951.13 96.58 419.96 658.67 1007.42 389.08 1195.12 385.26 1076.05 503.48 1024.50 600.16 1177.74 597.60
00014917 00000109 947.67 96.00 422.80 660.52 1006.76 388.32 1194.61 384.17 1075.82 502.83 1025.02 600.34 1177.66 597.47
00014918 00000110 943.69 94.22 426.72 661.03 1004.16 385.97 1194.48 382.57 1073.90 502.13 1022.38 597.55 1179.80 595.15
00014919 00000111 941.76 93.56 427.97 657.78 1002.20 385.11 1194.24 381.64 1072.85 501.32 1019.30 593.59 1182.05 590.98
00014920 00000112 940.92 93.85 427.62 658.75 1001.89 384.19 1193.72 381.12 1071.03 498.93 1017.39 591.97 1181.38 589.64
00014921 00000113 938.85 94.08 427.89 659.36 1000.91 384.66 1192.01 380.44 1069.79 497.93 1016.03 590.83 1181.31 587.42
00014922 00000114 933.81 93.34 430.75 661.07 997.17 384.51 1189.15 379.72 1067.34 499.79 1013.75 589.79 1181.68 585.60
00014923 00000115 931.89 95.20 431.15 663.01 994.60 385.97 1186.04 379.82 1064.05 501.80 1012.00 591.65 1180.91 586.38
00014924 00000116 932.42 97.54 429.33 665.65 993.20 387.31 1182.80 380.34 1060.40 503.27 1012.82 598.09 1176.33 592.44
00014925 00000117 934.07 96.97 426.42 671.78 992.90 388.69 1183.48 381.34 1059.41 506.37 1013.17 605.34 1176.24 599.48
00014926 00000118 933.55 96.89 425.57 666.16 990.86 391.05 1182.46 383.99 1057.90 506.07 1010.84 605.48 1171.68 600.02
00014927 00000119 934.01 97.14 424.15 661.14 989.66 391.13 1180.62 384.78 1056.44 505.96 1009.15 603.91 1168.00 599.12
00014928 00000120 933.30 106.77 420.15 646.88 988.05 385.93 1176.90 385.40 1044.70 504.24 1003.37 598.57 1165.21 597.64
00014929 00000121 932.99 107.54 418.88 643.79 988.19 385.06 1176.48 384.89 1044.73 502.34 1002.90 595.85 1164.55 595.37
00014930 00000122 932.69 105.62 417.95 644.19 987.71 382.78 1175.93 382.72 1042.96 499.30 1002.79 594.63 1163.26 594.31
00014931 00000123 932.27 105.53 417.62 640.97 987.61 380.17 1175.28 380.69 1041.94 495.02 1002.15 592.28 1161.22 592.43
00014932 00000124 931.73 103.67 417.85 640.60 988.07 378.09 1175.61 379.08 1042.77 492.56 1001.95 588.54 1162.02 589.04
00014933 00000125 931.39 104.38 420.09 637.42 989.09 376.10 1176.79 377.34 1044.12 490.62 1003.13 585.02 1164.26 585.48
00014934 00000126 930.04 102.90 423.31 638.60 991.79 378.02 1179.74 375.50 1049.96 487.17 1005.59 576.70 1175.84 573.25
00014935 00000127 926.77 105.23 426.00 634.40 992.92 376.28 1183.09 369.88 1055.03 481.20 1007.09 568.27 1186.67 561.34
00014936 00000128 928.47 113.63 426.63 629.74 996.23 371.93 1189.44 362.86 1062.39 476.16 1008.28 566.96 1198.05 556.76
00014937 00000129 929.59 112.20 429.04 630.50 998.63 366.29 1190.88 358.35 1062.64 467.93 1012.58 565.36 1195.66 556.39
00014938 00000130 929.93 110.96 429.67 634.22 999.60 360.55 1192.08 352.65 1062.32 461.89 1014.80 566.42 1193.74 557.75
00014939 00000131 931.33 100.15 431.92 644.07 1000.77 355.08 1195.70 347.84 1063.44 456.51 1016.32 565.75 1193.42 557.69
00014940 00000132 932.86 95.30 431.30 644.38 1001.66 352.32 1196.94 345.61 1065.17 454.11 1016.94 562.68 1193.38 555.04
00014941 00000133 930.06 88.15 428.98 636.48 1002.08 350.01 1193.26 346.38 1063.20 452.99 1011.35 551.17 1189.64 546.69
00014942 00000134 930.34 89.06 427.62 621.02 1001.77 350.04 1192.13 346.92 1062.85 451.03 1009.54 543.55 1186.54 539.26
00014943 00000135 928.23 86.76 427.81 618.41 1000.17 348.24 1191.68 344.37 1063.11 449.54 1008.32 542.04 1185.24 537.03
00014944 00000136 927.01 84.16 427.69 626.11 1000.17 346.37 1192.13 342.51 1063.71 447.86 1008.12 544.59 1185.17 539.68
00014945 00000137 927.28 83.34 427.60 630.81 998.93 346.40 1189.72 341.98 1060.97 449.35 1008.24 547.17 1184.12 541.81
00014946 00000138 927.20 82.37 428.82 637.86 999.05 345.09 1189.41 341.75 1059.97 449.09 1008.16 550.66 1182.22 546.45
00014947 00000139 931.57 81.27 426.58 650.99 995.37 348.19 1192.68 341.95 1059.81 453.97 1013.24 567.94 1180.58 561.39
00014948 00000140 934.98 80.95 424.39 652.86 997.35 349.21 1194.62 346.07 1061.74 456.95 1013.10 572.69 1175.27 569.20
00014949 00000141 935.21 79.20 424.19 650.98 997.20 349.87 1192.72 346.06 1061.56 454.80 1012.68 572.71 1168.31 569.29
00014950 00000142 932.85 81.85 423.09 642.94 995.36 351.12 1188.13 345.77 1058.85 451.76 1010.81 571.40 1160.74 567.45
00014951 00000143 930.43 82.07 422.98 640.49 992.90 350.23 1184.94 344.22 1056.90 450.86 1008.90 567.94 1159.06 563.54
00014952 00000144 924.27 82.27 420.96 642.21 993.81 344.50 1177.08 345.09 1049.63 451.97 1000.63 560.80 1157.09 560.97
00014953 00000145 920.03 81.31 423.63 651.14 988.73 344.33 1176.54 343.69 1049.68 454.20 997.67 565.02 1161.62 564.14
00014954 00000146 918.15 80.38 423.67 652.29 988.23 346.59 1176.78 346.56 1051.02 457.87 996.55 566.36 1161.40 565.98
00014955 00000147 914.64 81.50 424.15 646.48 985.43 349.64 1174.47 349.28 1049.37 460.24 993.91 566.00 1158.38 565.34
00014956 00000148 912.07 82.68 422.03 638.67 981.33 354.58 1173.81 356.77 1048.02 465.40 987.60 566.58 1153.47 568.16
00014957 00000149 910.46 86.28 420.84 634.98 974.49 359.80 1170.03 362.25 1041.76 473.32 982.07 570.65 1151.63 572.29
00014958 00000150 907.90 86.33 422.88 636.76 968.97 365.12 1165.64 365.39 1035.40 481.03 980.81 575.45 1151.00 575.21
00014959 00000151 907.55 87.26 423.38 638.60 966.70 372.89 1160.35 371.16 1030.17 486.94 981.44 579.69 1150.18 577.84
00014960 00000152 908.19 89.06 425.13 640.22 967.97 377.41 1162.18 375.53 1032.98 492.90 983.64 583.66 1154.01 581.43
00014961 00000153 912.01 92.99 423.55 635.40 970.91 378.22 1167.03 376.97 1036.86 494.88 988.06 584.98 1159.07 583.32
00014962 00000154 915.62 94.42 422.34 634.98 975.68 378.50 1171.87 378.08 1041.24 495.39 993.59 585.16 1164.67 584.05
00014963 00000155 916.25 96.96 422.44 632.23 976.93 381.38 1174.57 379.99 1042.96 496.79 995.81 587.61 1166.75 585.82
00014964 00000156 916.51 98.84 422.38 629.83 978.00 382.84 1174.57 381.18 1044.44 497.56 997.31 587.36 1167.52 585.34
00014965 00000157 916.81 99.76 421.24 631.92 977.91 385.05 1174.04 382.80 1044.78 500.43 998.27 589.69 1168.41 587.09
00014966 00000158 916.51 99.46 420.89 631.87 977.97 387.14 1174.19 384.07 1046.35 501.66 998.85 590.34 1168.92 587.08
00014967 00000159 917.85 99.90 420.69 631.49 979.08 386.46 1175.04 384.03 1047.23 502.14 1000.05 590.13 1169.29 587.40
00014968 00000160 918.87 99.06 420.70 632.03 980.02 385.72 1175.27 383.76 1047.03 502.18 1001.55 590.04 1169.48 587.66
00014969 00000161 921.90 98.74 420.15 633.17 982.07 384.38 1177.32 381.82 1048.35 500.82 1003.56 590.00 1170.93 587.14
00014970 00000162 923.62 98.71 422.03 632.52 984.71 382.37 1180.58 380.03 1052.26 500.71 1006.03 588.21 1173.82 585.55
00014971 00000163 926.26 97.40 424.45 632.57 987.35 381.61 1183.61 378.50 1055.95 498.89 1009.74 587.20 1176.69 583.80
00014972 00000164 929.57 95.38 424.61 634.32 991.89 379.62 1187.83 375.35 1062.53 497.20 1015.43 585.79 1182.02 581.34
00014973 00000165 932.28 93.56 425.28 635.61 996.35 379.02 1191.87 374.15 1067.22 496.94 1020.19 585.46 1186.03 580.53
