Video ID: 	GZgukKKkItg
H: 	1080
W: 	1920
FPS: 	23.976023976023978

FRAME INDEX X0 Y0 W H [Landmarks (5 Points)]

00003971 00000000 893.78 165.12 402.99 567.99 989.01 397.85 1181.11 408.80 1064.96 501.74 992.05 590.56 1160.62 599.88
00003972 00000001 889.03 154.31 399.86 565.67 983.97 386.13 1179.01 397.92 1060.31 488.30 982.34 580.85 1155.69 591.17
00003973 00000002 886.35 151.11 399.86 567.22 980.00 382.04 1177.42 395.38 1058.03 485.42 974.23 576.86 1152.51 588.36
00003974 00000003 886.30 152.28 401.28 569.54 981.32 386.17 1177.41 401.91 1056.72 491.73 977.01 581.11 1152.24 594.23
00003975 00000004 885.89 166.37 405.54 565.93 982.04 395.80 1178.83 413.73 1058.21 511.24 979.09 591.63 1152.38 607.09
00003976 00000005 887.79 180.75 403.56 568.83 983.27 403.06 1181.06 422.64 1061.43 523.03 980.08 603.97 1151.39 621.50
00003977 00000006 883.72 175.18 401.75 572.24 977.46 399.09 1175.86 419.69 1051.29 519.83 972.86 600.36 1145.19 618.61
00003978 DELETE   879.68 162.32 398.53 573.91 973.28 387.40 1165.45 410.21 1037.03 498.54 964.66 588.35 1131.55 607.47
00003979 00000008 874.44 154.70 396.70 582.03 966.11 367.89 1158.79 394.74 1025.16 482.02 952.40 577.25 1115.95 599.52
00003980 00000009 869.94 152.65 399.23 580.96 959.84 352.14 1150.57 388.40 1004.20 469.09 934.49 561.23 1094.85 592.21
00003981 00000010 866.81 146.87 394.95 578.85 958.84 340.99 1147.04 391.36 992.01 459.57 919.33 545.95 1078.33 588.96
00003982 DELETE   867.80 136.53 406.60 585.28 964.42 338.64 1154.05 398.14 993.62 462.11 918.26 543.58 1072.53 593.45
00003983 DELETE   875.97 150.39 424.57 578.73 976.54 350.37 1169.18 416.33 1002.95 478.90 929.80 553.25 1092.25 607.71
00003984 00000013 885.37 161.84 421.05 576.91 983.90 369.27 1177.48 432.54 1018.89 505.60 942.73 572.46 1105.67 625.06
00003985 00000014 883.18 156.02 415.72 583.93 981.17 374.87 1173.56 426.57 1025.61 511.29 948.51 580.48 1108.12 623.61
00003986 00000015 877.41 151.29 417.53 581.64 977.36 367.78 1169.74 416.26 1027.93 504.71 948.78 572.30 1111.82 612.65
00003987 00000016 874.95 148.18 413.54 584.79 976.81 365.77 1168.79 406.37 1035.09 496.24 951.78 573.60 1114.36 607.44
00003988 00000017 875.82 153.96 416.11 582.81 978.69 373.43 1169.96 407.48 1039.44 500.30 962.23 586.91 1110.55 615.03
00003989 00000018 874.79 165.73 419.07 593.34 979.60 383.75 1172.03 417.96 1043.81 512.53 965.18 601.96 1116.73 630.29
00003990 00000019 876.15 185.74 416.11 588.09 976.06 399.92 1179.51 434.12 1048.85 534.97 962.65 622.22 1118.65 650.94
00003991 00000020 871.78 182.52 412.61 595.51 972.99 407.36 1174.38 447.63 1045.10 553.67 952.39 626.88 1115.87 660.68
00003992 00000021 870.19 182.90 409.95 593.35 968.29 407.87 1169.96 447.70 1039.53 553.40 947.39 627.47 1111.93 660.65
00003993 00000022 865.74 185.37 416.52 592.18 963.38 398.46 1169.88 434.80 1036.33 537.55 948.00 621.25 1110.98 651.58
00003994 00000023 859.60 175.35 414.46 601.58 964.49 388.31 1164.52 422.38 1038.73 522.83 947.28 607.16 1110.70 635.64
00003995 00000024 849.66 153.60 417.90 624.72 962.12 377.97 1155.44 412.66 1031.95 510.64 938.57 598.48 1110.69 626.84
00003996 00000025 849.82 172.04 415.16 604.09 956.30 380.62 1154.02 416.21 1030.61 515.87 935.39 597.47 1106.22 627.40
00003997 00000026 845.22 184.18 415.22 594.55 954.25 383.58 1150.19 419.28 1028.70 520.59 934.09 601.18 1098.77 631.15
00003998 00000027 836.67 170.41 420.79 606.52 951.02 383.69 1147.11 417.20 1021.86 520.13 928.33 604.10 1098.13 632.18
00003999 00000028 835.11 169.95 418.97 599.11 948.32 384.29 1144.63 416.33 1021.28 517.12 926.90 602.40 1097.64 629.35
00004000 00000029 833.20 167.97 418.07 596.09 946.87 382.39 1144.35 415.11 1022.24 513.50 924.34 598.95 1096.90 626.28
00004001 00000030 833.37 168.62 419.42 592.57 947.59 382.19 1145.40 415.90 1022.80 513.49 925.43 598.31 1097.59 626.34
00004002 00000031 831.70 169.73 419.59 591.51 946.11 383.02 1142.43 415.71 1020.98 516.06 924.83 599.42 1094.50 626.74
00004003 00000032 831.21 167.87 417.92 589.38 944.41 381.29 1140.31 413.68 1019.68 512.25 923.10 596.65 1092.29 623.61
00004004 00000033 831.34 166.15 416.11 588.60 943.09 379.08 1139.03 411.45 1017.15 508.40 922.50 593.54 1091.80 620.31
00004005 00000034 831.08 166.29 418.93 590.07 944.52 377.48 1140.58 411.50 1018.16 509.14 923.80 592.78 1093.42 620.88
00004006 00000035 830.25 167.92 419.34 588.61 944.19 377.45 1141.82 411.35 1018.98 508.09 923.93 592.86 1094.49 620.90
00004007 00000036 828.93 167.92 418.48 586.08 942.59 377.95 1139.02 409.61 1018.56 506.95 923.86 593.10 1092.67 619.35
00004008 00000037 827.61 168.35 419.00 586.67 942.36 379.06 1138.57 409.42 1020.02 507.50 923.83 594.14 1092.83 619.39
00004009 00000038 827.09 166.86 416.93 586.63 941.36 378.44 1136.29 409.14 1017.39 507.02 924.02 593.76 1089.98 619.25
00004010 00000039 824.97 165.47 416.78 584.49 940.03 378.43 1134.83 408.29 1017.39 504.95 923.15 593.15 1086.10 618.06
00004011 00000040 824.46 164.06 417.38 584.85 939.25 378.24 1134.51 406.75 1017.50 503.67 922.26 593.81 1084.19 617.79
00004012 00000041 822.75 163.21 417.58 584.75 938.45 377.96 1134.90 406.05 1020.09 504.16 921.85 593.35 1085.97 616.98
00004013 00000042 820.79 160.45 418.86 584.32 936.23 371.47 1135.68 403.74 1021.47 507.92 923.50 589.35 1081.93 617.73
00004014 00000043 821.67 156.81 419.86 583.06 936.21 371.14 1137.83 401.89 1024.46 503.14 924.82 585.05 1086.12 611.95
00004015 00000044 825.72 159.29 414.92 577.34 940.63 372.20 1140.66 398.00 1028.89 490.98 928.26 585.01 1095.99 606.74
00004016 00000045 829.97 152.66 409.72 586.15 943.95 368.37 1142.53 395.55 1033.30 484.59 930.83 580.52 1099.64 603.18
00004017 00000046 832.54 151.50 413.34 592.63 948.07 369.42 1147.34 398.11 1035.77 485.51 934.99 581.22 1100.16 604.97
00004018 00000047 833.35 158.24 417.15 589.02 950.56 376.60 1148.81 407.69 1037.42 495.03 938.86 584.77 1109.24 609.95
00004019 00000048 830.35 172.30 423.21 591.32 953.40 389.65 1151.80 418.37 1044.64 521.65 942.00 600.64 1115.18 624.65
00004020 00000049 833.42 183.98 425.90 590.95 956.01 399.14 1157.70 430.10 1045.14 540.87 943.20 612.76 1117.41 639.22
00004021 00000050 833.36 180.13 427.61 606.49 960.63 397.28 1162.67 428.22 1053.38 540.24 945.63 614.87 1122.25 641.26
00004022 00000051 840.64 190.13 418.57 593.12 966.78 389.85 1164.76 423.43 1063.32 531.80 948.21 604.43 1119.51 632.64
00004023 00000052 835.99 168.43 426.04 599.81 963.35 380.42 1161.19 410.96 1056.25 511.09 946.56 596.45 1125.04 621.49
00004024 00000053 835.29 163.78 421.59 591.11 959.37 376.14 1159.92 405.45 1054.21 499.55 944.47 591.95 1121.07 615.78
00004025 00000054 833.62 163.66 417.34 580.26 957.23 373.83 1159.25 404.77 1052.56 497.84 940.47 587.69 1117.79 613.18
00004026 00000055 832.85 165.58 415.87 573.10 956.37 372.46 1158.93 404.19 1051.64 495.05 939.18 584.68 1117.08 611.02
00004027 00000056 833.23 166.27 412.04 568.08 955.67 366.22 1159.09 399.01 1051.15 488.68 937.28 579.91 1114.81 607.17
00004028 00000057 832.89 160.59 410.08 569.90 956.19 360.64 1160.07 394.52 1052.49 484.80 934.55 575.27 1113.25 603.70
00004029 00000058 833.72 158.74 414.57 573.18 959.43 361.41 1162.52 398.09 1052.66 484.75 933.51 573.63 1115.05 604.51
00004030 00000059 836.32 159.48 419.10 577.16 962.75 365.19 1165.98 403.11 1053.55 490.31 937.06 578.14 1118.08 609.93
00004031 00000060 837.95 165.80 422.68 576.48 964.50 373.74 1167.71 408.73 1057.05 495.52 941.61 585.13 1122.20 614.37
00004032 00000061 841.02 163.54 422.90 582.96 965.69 374.98 1167.77 407.66 1058.49 494.39 945.62 588.48 1123.85 615.29
00004033 00000062 838.38 162.27 420.21 584.52 961.66 368.33 1164.36 400.38 1054.49 489.00 941.51 584.74 1119.12 611.21
00004034 00000063 838.84 154.30 419.27 598.33 958.88 363.72 1164.80 394.05 1053.97 486.12 941.27 585.80 1117.59 610.48
00004035 00000064 838.25 156.54 418.94 604.42 958.13 364.58 1164.46 394.16 1055.74 488.36 941.00 589.16 1117.83 613.30
00004036 00000065 838.05 170.47 418.59 584.58 957.88 368.27 1161.38 400.13 1051.47 496.82 940.35 587.35 1112.73 613.84
00004037 00000066 834.37 165.63 419.50 591.25 952.54 375.95 1157.85 404.64 1046.91 506.58 938.50 593.26 1112.14 616.89
00004038 00000067 829.84 168.13 414.24 592.80 945.53 383.07 1151.77 406.46 1042.67 508.98 936.26 600.36 1116.66 619.79
00004039 00000068 831.84 170.17 418.73 580.12 949.62 384.18 1155.82 407.74 1048.87 513.89 940.08 598.42 1115.71 618.06
00004040 00000069 830.58 165.39 413.71 581.78 947.28 377.57 1156.61 398.70 1049.57 497.47 943.96 595.20 1120.47 612.56
00004041 00000070 836.39 160.11 413.10 581.55 952.44 369.53 1163.19 387.33 1060.29 485.26 955.10 595.13 1122.22 609.36
00004042 00000071 843.12 149.53 412.98 587.51 960.07 362.48 1173.47 381.06 1073.82 482.03 966.42 593.91 1136.14 607.58
00004043 00000072 848.96 144.15 415.62 586.01 971.95 362.53 1183.40 379.13 1089.75 481.25 982.81 590.76 1153.36 602.10
00004044 00000073 851.76 143.14 418.47 592.67 984.99 363.47 1190.22 381.73 1103.93 482.69 995.03 589.11 1161.01 602.13
00004045 00000074 854.01 149.74 420.73 592.11 997.26 366.43 1191.03 385.34 1115.74 483.50 1005.83 588.51 1160.45 602.96
00004046 00000075 854.01 154.75 424.01 589.12 1004.80 372.02 1195.16 390.45 1123.16 489.19 1009.80 590.34 1164.48 605.06
00004047 00000076 851.62 152.71 424.85 597.46 1003.10 375.62 1194.74 394.61 1121.86 494.70 1005.40 593.16 1164.52 608.39
00004048 00000077 847.25 159.61 427.22 600.47 997.74 377.31 1191.43 396.22 1115.48 503.12 995.93 597.12 1162.80 612.41
00004049 00000078 845.38 160.75 428.43 600.74 995.32 378.28 1190.57 398.13 1112.17 505.23 992.77 598.17 1160.95 614.26
00004050 00000079 841.95 158.99 427.49 599.67 994.44 374.41 1188.62 395.41 1114.00 500.22 991.76 594.68 1158.45 611.48
00004051 00000080 841.81 150.64 421.81 599.66 991.87 367.26 1188.01 387.45 1114.23 490.99 990.15 588.41 1156.29 604.46
00004052 00000081 841.72 143.54 421.18 601.74 988.29 362.36 1186.76 382.63 1110.88 482.14 986.75 582.29 1156.56 598.08
00004053 00000082 843.84 139.55 423.56 599.81 991.05 356.30 1189.07 376.71 1111.94 477.76 986.84 575.72 1157.08 592.12
00004054 00000083 843.94 139.37 421.95 598.85 990.31 357.22 1185.99 378.16 1108.86 477.05 985.01 574.06 1154.81 590.94
00004055 00000084 846.22 138.82 419.39 602.05 984.38 361.40 1182.02 382.10 1100.42 477.96 980.35 577.20 1153.60 593.28
00004056 00000085 846.84 141.69 415.89 600.12 975.62 366.51 1177.10 387.24 1086.41 482.39 968.90 581.40 1147.46 597.58
00004057 00000086 840.84 156.12 414.97 588.19 959.56 366.11 1165.67 385.84 1064.81 484.17 952.91 585.14 1131.90 601.10
00004058 00000087 837.80 149.47 412.18 601.28 949.55 368.67 1157.43 389.90 1049.39 490.89 943.09 591.66 1119.96 608.55
00004059 00000088 831.39 156.92 415.87 601.61 940.27 377.98 1142.08 399.15 1028.02 502.81 931.24 596.76 1108.71 613.94
00004060 00000089 827.18 160.17 414.11 601.68 930.55 387.32 1130.96 407.33 1012.28 513.14 922.65 602.56 1100.46 618.49
00004061 00000090 815.01 149.58 418.00 607.67 914.83 388.20 1120.00 405.39 997.97 521.60 914.34 602.50 1094.77 616.12
00004062 00000091 808.90 152.96 417.29 598.14 909.32 383.23 1113.44 398.53 990.38 509.04 911.31 596.40 1090.13 608.47
00004063 00000092 805.07 142.73 411.02 607.93 906.02 374.02 1104.53 387.50 984.92 495.47 907.18 588.20 1082.01 598.40
00004064 00000093 803.98 135.30 408.31 609.72 899.35 367.14 1100.07 376.68 980.57 488.57 904.96 585.57 1077.34 592.38
00004065 00000094 804.09 128.44 405.49 606.95 894.10 364.61 1097.73 371.33 978.71 485.56 902.91 582.60 1078.25 587.69
00004066 00000095 807.51 127.51 403.14 600.28 893.11 369.47 1097.50 369.09 980.76 484.75 908.01 583.14 1085.29 582.61
00004067 00000096 811.49 129.36 402.62 594.52 894.42 374.50 1098.25 365.37 984.33 485.58 915.06 585.97 1092.38 578.39
00004068 00000097 810.23 125.13 408.96 599.00 894.24 377.81 1099.24 360.96 988.78 487.59 922.48 589.78 1098.42 575.54
00004069 00000098 807.93 127.94 414.16 594.75 892.31 379.03 1095.83 356.23 989.55 487.76 927.53 590.10 1100.85 570.53
00004070 00000099 806.20 130.85 415.36 588.89 890.51 378.45 1093.84 352.25 990.60 486.31 930.75 588.83 1103.49 566.06
00004071 00000100 807.60 124.69 414.41 593.80 890.28 378.34 1096.10 350.21 992.11 485.75 931.36 588.97 1108.05 564.60
00004072 00000101 807.95 123.43 412.98 596.75 891.12 377.91 1097.16 353.43 991.26 487.61 930.04 589.50 1106.68 568.27
00004073 00000102 809.62 127.81 410.40 602.99 893.71 382.49 1099.86 358.82 991.43 492.58 930.80 597.58 1105.99 577.22
00004074 00000103 807.23 138.18 410.24 605.80 897.04 384.03 1096.83 364.81 990.65 497.18 934.82 604.92 1097.67 587.67
00004075 00000104 807.05 142.04 410.33 609.88 897.53 388.46 1095.48 370.06 990.05 503.03 932.96 608.01 1099.34 590.85
00004076 00000105 803.95 145.06 412.31 606.18 892.23 391.70 1092.45 374.35 983.90 508.31 927.56 610.75 1096.51 594.57
00004077 00000106 801.37 147.56 412.81 607.06 888.09 392.72 1089.66 377.67 978.82 513.72 923.02 613.91 1093.00 599.65
00004078 00000107 799.18 152.53 413.35 612.91 887.12 392.91 1088.56 380.19 978.39 519.32 921.18 618.06 1092.59 605.57
00004079 00000108 800.14 153.23 412.47 620.62 888.54 394.51 1089.73 382.65 978.99 521.61 921.24 621.82 1093.42 609.94
00004080 00000109 802.87 152.01 412.77 624.50 889.81 393.07 1093.40 380.12 980.90 520.95 923.03 622.99 1097.94 610.08
00004081 00000110 801.67 147.67 414.81 615.73 891.30 388.85 1094.62 376.46 983.00 512.42 922.68 613.26 1097.18 600.98
00004082 00000111 797.29 136.34 417.93 617.10 887.63 381.28 1093.12 370.29 982.73 505.99 919.75 607.05 1091.22 596.31
00004083 00000112 798.30 138.08 417.63 611.56 888.77 379.28 1093.04 368.04 983.58 503.20 921.20 605.33 1089.18 594.78
00004084 00000113 801.62 138.86 415.09 607.82 891.84 380.76 1094.54 369.93 985.48 505.02 923.84 605.16 1090.57 594.84
00004085 00000114 802.36 140.33 414.27 603.76 893.62 382.67 1095.86 372.03 987.53 506.23 924.41 604.70 1091.23 594.67
00004086 00000115 802.77 142.00 414.29 600.34 893.53 384.46 1097.05 373.84 987.32 508.83 923.91 605.23 1092.36 595.31
00004087 00000116 804.30 145.40 412.85 594.19 893.99 386.62 1097.68 376.31 986.88 511.58 922.59 605.18 1094.47 595.56
00004088 00000117 805.60 146.90 412.54 590.65 894.50 385.46 1098.49 376.46 987.33 511.74 922.25 603.14 1095.38 594.74
00004089 00000118 806.95 145.05 411.79 591.46 895.39 384.95 1099.17 377.07 987.01 510.92 921.34 601.31 1095.94 593.82
00004090 00000119 809.01 142.00 410.54 593.47 897.29 384.84 1100.86 376.17 988.97 511.10 922.62 601.81 1097.24 593.88
00004091 00000120 809.42 140.61 410.72 594.78 896.94 383.15 1102.06 374.13 988.71 510.36 923.04 602.62 1096.38 594.52
00004092 00000121 811.11 137.34 412.48 598.77 898.05 380.75 1103.78 373.12 989.48 507.47 923.09 601.89 1096.05 594.99
00004093 00000122 810.11 136.50 412.69 598.83 897.08 380.90 1102.86 372.87 987.89 506.41 921.29 601.26 1094.66 594.07
00004094 00000123 810.57 133.72 411.15 600.92 898.40 381.06 1103.75 372.96 989.52 506.86 922.49 601.10 1095.29 593.96
00004095 00000124 814.15 133.38 412.40 601.59 900.78 380.04 1108.10 373.70 990.46 506.17 923.36 600.89 1098.13 595.10
00004096 00000125 825.42 128.32 412.22 615.50 906.97 368.08 1116.34 367.69 994.19 498.70 928.91 596.03 1100.03 596.62
00004097 00000126 825.51 123.67 413.82 617.77 909.45 367.85 1119.69 367.88 998.25 497.75 930.60 594.12 1103.36 595.05
00004098 00000127 827.22 124.71 412.54 614.81 910.26 367.19 1123.61 368.53 1000.69 497.91 929.61 591.77 1105.97 593.69
00004099 00000128 828.43 127.34 411.09 609.20 910.76 366.27 1126.01 368.29 1001.93 498.98 929.16 588.29 1108.98 590.77
00004100 00000129 830.66 127.96 413.14 608.60 914.08 366.73 1129.33 370.12 1004.92 498.90 931.41 585.40 1113.91 588.96
00004101 00000130 836.63 132.97 412.53 598.59 919.41 368.32 1132.25 372.91 1010.61 497.44 934.11 582.10 1115.98 586.46
00004102 00000131 841.14 129.13 413.97 598.13 929.62 368.49 1143.99 375.60 1022.52 496.43 939.65 580.33 1123.54 586.51
00004103 00000132 846.97 131.10 412.67 594.61 939.72 370.10 1150.59 377.92 1037.51 488.89 947.78 579.94 1134.34 585.68
00004104 DELETE   851.47 128.27 417.35 587.36 945.19 365.83 1157.70 369.61 1045.93 484.04 954.24 574.57 1143.31 576.93
00004105 DELETE   858.30 118.86 417.89 586.91 954.50 359.45 1168.01 361.92 1055.41 471.22 962.61 564.85 1155.68 565.95
00004106 DELETE   863.23 114.27 420.29 578.38 964.54 341.40 1176.90 345.57 1066.61 451.78 973.25 545.38 1165.19 549.71
00004107 00000136 874.46 98.14 418.65 573.84 978.07 332.37 1187.21 335.13 1079.42 438.88 985.54 532.90 1173.88 536.06
00004108 DELETE   887.97 84.98 413.49 580.92 994.82 323.44 1205.16 327.54 1100.00 425.91 1005.11 530.05 1187.54 533.55
00004109 DELETE   902.14 86.38 415.53 588.39 1014.82 312.29 1227.49 325.79 1124.35 406.83 1020.48 526.13 1200.54 536.86
00004110 00000139 910.21 76.42 414.59 599.09 1026.83 302.36 1236.35 316.42 1138.83 397.11 1034.39 520.56 1209.71 531.10
00004111 00000140 913.49 78.89 418.51 588.87 1035.60 298.49 1242.36 312.30 1149.99 386.17 1046.06 512.50 1219.68 522.50
00004112 00000141 917.45 82.64 420.85 576.96 1044.85 296.43 1249.07 312.77 1159.68 382.91 1052.40 505.29 1226.16 517.61
00004113 00000142 922.77 80.71 420.33 573.11 1050.38 294.46 1251.20 309.45 1163.80 380.94 1058.07 501.74 1230.15 512.93
00004114 00000143 928.00 80.39 419.25 570.12 1057.07 295.34 1254.48 307.12 1169.58 382.37 1065.29 501.11 1234.22 509.89
00004115 00000144 933.04 78.49 416.71 569.17 1063.83 295.36 1257.55 305.91 1178.41 382.67 1074.49 500.59 1239.77 508.66
00004116 00000145 935.74 78.39 415.63 567.82 1069.40 293.80 1262.10 303.69 1185.36 381.29 1079.08 498.81 1244.48 506.70
00004117 00000146 936.05 76.67 415.79 571.13 1071.88 292.98 1264.41 303.34 1189.79 382.04 1080.68 497.85 1247.08 506.17
00004118 00000147 936.03 78.94 416.55 568.83 1073.44 292.95 1265.74 304.34 1191.80 383.36 1081.89 498.26 1247.70 507.58
00004119 00000148 935.96 78.16 416.95 569.71 1073.91 293.09 1266.25 305.80 1192.24 383.85 1081.69 498.14 1247.55 508.52
00004120 00000149 935.89 78.35 416.99 568.62 1073.61 293.48 1266.93 306.73 1191.98 385.19 1080.18 497.87 1247.25 508.75
00004121 00000150 935.70 77.12 417.82 568.35 1072.53 293.62 1270.36 308.72 1192.64 386.49 1077.80 497.86 1250.06 510.41
00004122 00000151 935.15 77.56 416.64 566.82 1072.70 293.72 1271.52 310.40 1191.78 392.59 1077.09 499.24 1248.74 513.23
00004123 00000152 930.71 79.76 418.05 565.04 1069.59 293.82 1269.87 311.41 1189.85 398.25 1073.95 500.23 1247.82 514.81
00004124 00000153 927.58 75.66 418.56 572.42 1066.89 294.85 1266.39 312.00 1185.51 399.83 1071.54 500.93 1245.41 514.97
00004125 00000154 917.32 73.51 423.50 579.60 1059.16 293.70 1260.28 311.58 1178.28 399.14 1061.43 501.94 1237.36 516.20
00004126 00000155 911.92 80.22 421.46 572.44 1051.20 293.87 1253.78 312.52 1167.75 395.29 1051.25 502.49 1226.72 517.64
00004127 00000156 907.34 83.45 424.14 573.73 1045.69 297.00 1250.88 314.88 1163.57 397.86 1044.53 505.16 1223.80 519.76
00004128 00000157 905.57 88.09 424.21 577.70 1043.55 299.59 1248.61 318.21 1161.80 401.04 1042.92 509.06 1222.45 524.35
00004129 00000158 905.85 89.74 425.64 585.39 1045.86 300.23 1248.12 320.76 1162.59 403.49 1048.62 515.31 1220.20 531.82
00004130 00000159 904.99 88.33 426.58 591.23 1045.08 301.85 1248.37 322.03 1163.31 404.85 1048.94 518.62 1221.00 534.84
00004131 00000160 902.50 87.92 422.92 590.29 1042.27 301.35 1245.46 321.81 1161.42 402.71 1047.01 516.62 1219.58 533.02
00004132 00000161 901.04 87.24 419.20 587.08 1038.34 301.94 1243.23 323.34 1157.36 401.48 1044.16 515.31 1217.37 532.42
00004133 00000162 898.98 86.96 417.84 586.77 1036.30 305.97 1240.33 326.27 1155.06 403.50 1043.28 515.75 1215.86 531.94
00004134 00000163 895.91 90.25 418.66 582.29 1031.72 307.18 1235.87 328.89 1147.50 403.85 1036.48 514.38 1209.89 531.78
00004135 00000164 894.87 91.74 417.22 580.29 1030.39 308.88 1230.37 332.05 1142.61 407.55 1031.99 514.60 1202.40 533.39
00004136 00000165 891.62 91.53 419.28 580.51 1027.63 312.75 1226.83 335.47 1138.94 410.19 1030.03 516.87 1198.74 535.32
00004137 00000166 888.26 97.20 418.76 574.75 1023.95 315.30 1223.58 337.58 1134.53 413.64 1026.82 517.69 1195.89 535.95
