Video ID: 	q2x6m2Lctk4
H: 	1080
W: 	1920
FPS: 	25.0

FRAME INDEX X0 Y0 W H [Landmarks (5 Points)]

00002714 00000000 818.16 277.20 396.99 588.49 874.89 526.40 949.04 540.92 827.77 635.80 897.39 731.92 949.81 740.93
00002715 00000001 814.86 275.58 391.80 584.56 867.50 521.30 944.42 536.25 821.01 632.06 891.58 725.83 944.80 735.22
00002716 DELETE   808.85 272.50 394.82 591.41 865.43 518.32 942.54 538.04 811.85 639.52 882.51 730.78 938.81 745.47
00002717 DELETE   805.35 269.72 394.25 593.97 858.93 519.34 940.09 537.41 812.77 638.97 881.80 730.93 943.20 744.50
00002718 00000004 804.24 273.33 399.39 593.16 853.18 524.68 946.70 537.89 813.81 640.15 879.28 732.66 953.09 741.81
00002719 DELETE   797.01 261.47 413.09 603.72 842.44 519.21 947.63 529.52 815.81 637.37 879.93 724.02 958.07 729.38
00002720 DELETE   795.60 271.89 424.11 595.45 836.93 512.89 959.16 524.25 820.73 637.21 873.62 727.23 961.73 733.63
00002721 00000007 802.16 270.32 420.00 600.45 837.04 510.74 963.57 522.70 829.77 641.28 873.40 728.32 971.88 735.34
00002722 DELETE   800.48 263.51 422.88 603.24 832.98 506.15 972.18 517.48 836.40 639.06 870.97 725.96 977.59 733.08
00002723 DELETE   785.49 263.30 437.08 603.64 824.56 504.93 980.93 510.66 839.13 636.39 865.99 728.68 982.89 731.47
00002724 00000010 787.57 252.76 440.52 616.86 826.63 503.98 992.19 510.64 846.53 638.02 866.67 728.41 993.25 732.25
00002725 DELETE   787.73 253.35 445.34 614.20 830.50 503.50 1001.72 507.20 859.20 637.44 872.41 728.54 1000.91 730.49
00002726 00000012 786.31 256.39 451.93 615.18 835.16 504.65 1015.05 508.83 875.50 642.46 878.67 729.98 1012.53 732.47
00002727 00000013 789.71 246.44 455.13 625.93 842.81 503.06 1024.58 506.95 887.19 641.24 886.68 729.72 1023.15 732.08
00002728 00000014 794.74 250.64 455.89 617.66 847.62 504.21 1031.42 505.87 898.61 642.28 892.00 728.40 1029.80 729.20
00002729 00000015 795.34 252.16 460.87 615.09 850.96 505.20 1036.72 505.43 904.42 640.86 895.53 727.42 1035.79 727.27
00002730 00000016 800.69 246.95 459.15 621.31 856.74 504.54 1042.21 505.88 911.11 640.93 899.39 727.47 1040.85 728.52
00002731 00000017 813.09 247.02 446.08 620.87 863.33 506.31 1052.85 502.33 916.86 635.80 902.32 728.34 1049.81 724.29
00002732 00000018 818.35 254.39 443.55 616.78 869.64 507.50 1057.86 505.80 921.42 639.81 907.64 731.59 1055.23 729.86
00002733 00000019 815.05 248.61 456.16 631.04 871.93 509.71 1060.40 513.54 928.12 654.56 914.91 737.49 1057.43 740.96
00002734 00000020 823.24 260.78 447.04 621.16 879.90 515.74 1070.33 516.93 935.88 650.92 916.66 743.44 1065.06 744.18
00002735 00000021 826.03 264.23 447.52 623.27 882.19 525.68 1075.36 521.71 941.13 655.60 920.81 751.99 1073.44 748.42
00002736 00000022 827.30 267.69 448.00 624.40 884.76 526.78 1078.72 525.61 944.65 663.55 925.07 756.12 1077.38 754.67
00002737 00000023 828.17 268.44 448.89 627.02 886.53 530.72 1082.35 528.68 947.15 667.61 927.14 759.05 1080.69 757.14
00002738 00000024 828.91 271.09 447.78 626.00 887.16 533.76 1083.55 531.42 949.06 670.31 927.07 761.63 1080.42 759.67
00002739 00000025 828.36 271.22 447.72 628.46 886.10 535.29 1082.78 533.72 947.57 673.30 926.06 763.80 1079.47 762.43
00002740 00000026 827.87 272.19 447.12 627.12 885.36 535.08 1081.96 533.48 946.62 673.76 926.00 764.21 1079.07 762.86
00002741 00000027 828.20 270.90 445.45 627.86 884.86 534.78 1079.19 533.38 944.99 673.42 925.73 764.64 1076.61 763.35
00002742 00000028 828.02 270.19 444.47 627.85 883.62 534.29 1076.51 533.17 942.85 672.02 922.41 763.92 1072.81 762.83
00002743 00000029 824.37 268.54 445.26 628.51 880.29 533.02 1073.50 532.85 939.62 671.35 917.73 762.50 1068.25 762.18
00002744 00000030 810.22 265.95 457.62 634.43 868.29 531.26 1066.17 538.05 932.94 683.83 909.85 763.16 1056.40 769.26
00002745 00000031 804.14 266.44 458.13 635.34 859.83 531.41 1062.36 537.73 927.74 684.36 901.50 766.33 1050.67 772.37
00002746 00000032 799.52 261.95 456.93 640.03 852.24 537.53 1060.84 540.33 923.71 685.99 894.72 770.99 1046.28 774.12
00002747 00000033 794.25 264.49 458.51 637.77 844.24 537.24 1056.75 541.32 916.23 687.57 888.69 772.24 1041.02 776.17
00002748 00000034 786.89 263.16 461.33 641.18 836.31 538.08 1051.87 541.83 908.78 690.44 883.51 773.72 1039.64 776.81
00002749 00000035 776.12 273.88 466.82 631.32 829.45 537.57 1047.72 541.24 904.59 693.85 879.76 775.67 1035.58 778.18
00002750 00000036 772.98 273.85 462.88 636.86 829.23 537.79 1034.29 546.87 897.73 690.93 871.32 765.35 1025.76 772.82
00002751 00000037 767.28 274.47 467.78 635.59 820.87 537.48 1038.30 540.84 896.04 696.24 872.33 777.11 1028.71 779.16
00002752 00000038 766.23 274.05 465.81 639.07 822.71 541.96 1029.48 546.01 893.74 694.25 867.41 769.48 1023.99 772.74
00002753 00000039 765.88 275.06 464.45 637.56 821.44 542.29 1027.39 545.61 892.81 693.90 866.30 769.39 1022.41 772.06
00002754 00000040 765.25 278.22 463.34 635.57 821.22 543.19 1026.41 545.95 892.41 694.35 866.30 771.59 1020.85 773.89
00002755 00000041 763.60 277.34 463.83 637.80 821.23 544.54 1024.23 547.28 891.37 696.19 867.40 772.19 1020.50 774.45
00002756 00000042 763.84 282.01 463.76 634.86 821.07 546.30 1023.08 547.69 890.55 697.23 867.99 775.14 1019.52 776.32
00002757 00000043 763.82 280.29 463.42 636.79 820.79 546.92 1022.69 547.53 890.65 697.40 868.06 775.63 1019.65 776.16
00002758 00000044 763.67 282.31 464.31 633.94 821.67 545.17 1023.33 546.64 890.96 696.10 868.90 774.87 1019.21 776.17
00002759 00000045 764.13 277.49 464.43 637.03 822.78 544.52 1025.57 546.59 893.33 694.70 869.21 772.55 1020.99 774.36
00002760 00000046 767.12 274.83 462.62 636.86 823.04 542.91 1028.98 544.37 895.61 693.65 868.94 769.04 1025.40 770.30
00002761 00000047 768.06 276.26 463.00 631.37 826.38 539.45 1033.94 540.69 901.00 690.34 873.01 765.81 1028.18 767.13
00002762 00000048 770.49 266.50 462.90 638.72 829.28 536.27 1037.29 539.58 903.10 688.76 876.52 763.72 1029.76 766.60
00002763 00000049 775.61 263.68 457.75 638.03 833.42 533.90 1042.70 535.54 909.15 684.82 878.32 761.54 1034.29 763.37
00002764 00000050 781.68 260.22 453.20 637.51 837.87 532.53 1049.73 531.50 917.71 678.01 881.42 760.24 1038.89 759.91
00002765 00000051 786.40 253.31 449.08 641.61 843.11 529.91 1056.34 526.91 924.77 674.51 885.52 756.98 1046.50 755.10
00002766 00000052 784.93 255.49 458.62 637.79 843.95 526.84 1058.61 525.00 925.08 674.29 889.43 759.55 1048.19 758.52
00002767 00000053 794.54 242.76 444.01 647.22 851.22 521.03 1063.72 518.56 932.69 665.13 892.79 748.98 1056.40 747.16
00002768 00000054 797.44 246.32 442.66 639.00 854.05 518.10 1066.84 515.55 936.55 662.10 894.33 745.03 1058.72 743.29
00002769 00000055 788.79 249.89 457.70 633.96 850.94 518.05 1063.67 517.07 932.80 662.13 895.05 746.67 1054.10 746.23
00002770 00000056 792.05 244.60 445.78 639.39 850.90 516.22 1065.27 512.66 933.94 660.15 892.15 744.04 1056.55 741.48
00002771 00000057 788.16 247.36 446.98 636.80 846.11 516.37 1062.89 513.35 930.68 661.51 887.35 744.65 1053.24 742.57
00002772 00000058 786.22 245.92 447.80 638.34 843.94 517.31 1061.08 514.32 928.98 661.68 885.10 745.22 1050.89 743.22
00002773 00000059 785.83 247.85 447.24 636.20 843.89 517.65 1060.63 515.01 928.49 661.93 884.70 745.24 1049.89 743.54
00002774 00000060 786.14 248.73 446.47 635.35 844.62 516.96 1060.72 514.64 929.15 661.66 885.10 744.88 1050.11 743.43
00002775 00000061 786.53 248.34 445.52 634.58 844.70 515.90 1060.04 514.14 928.86 660.96 884.92 744.12 1048.75 743.15
00002776 00000062 785.24 247.49 445.45 633.40 843.70 515.08 1058.99 513.60 928.02 658.88 882.89 742.04 1046.44 741.30
00002777 00000063 783.89 247.02 445.99 633.44 840.72 512.86 1057.69 511.34 925.49 658.23 880.76 741.53 1045.30 740.69
00002778 00000064 779.58 248.63 449.62 630.62 838.53 512.82 1055.38 511.63 922.84 658.61 880.34 741.44 1041.91 740.84
00002779 00000065 772.29 253.37 451.00 634.60 835.65 513.96 1040.91 508.79 911.62 654.78 880.94 749.71 1041.83 744.00
00002780 00000066 768.09 252.38 453.87 634.75 832.89 512.17 1037.24 506.56 908.94 653.82 879.40 748.60 1040.14 742.71
00002781 00000067 766.82 252.08 453.02 634.41 830.84 510.80 1033.13 505.25 904.42 652.40 876.36 747.86 1035.79 742.08
00002782 00000068 765.88 251.82 452.64 634.55 828.89 508.90 1029.98 503.31 900.03 649.69 871.87 745.89 1031.31 740.24
00002783 00000069 764.17 251.59 452.01 634.73 826.69 509.10 1027.32 504.89 895.64 647.70 866.80 744.84 1026.17 740.44
00002784 00000070 761.28 249.55 450.80 636.83 822.95 509.17 1024.51 504.60 892.85 648.57 864.09 745.88 1024.15 741.50
00002785 00000071 758.91 250.47 450.33 636.79 819.34 511.64 1021.31 506.99 890.44 651.92 862.44 748.28 1022.43 743.88
00002786 00000072 760.00 249.97 448.47 638.78 818.70 515.66 1020.34 509.71 890.05 653.88 862.58 751.95 1021.95 746.38
00002787 00000073 759.86 255.44 445.51 632.51 817.81 520.66 1017.66 515.81 888.38 655.53 859.65 752.11 1018.50 747.68
00002788 00000074 759.43 254.86 444.24 631.54 817.46 524.91 1015.97 519.42 887.48 656.92 858.44 751.47 1018.46 746.37
00002789 00000075 758.69 256.49 444.57 629.83 815.10 526.10 1014.23 518.53 884.75 656.45 855.77 752.76 1016.34 746.05
00002790 00000076 757.83 257.72 443.80 628.44 814.53 523.51 1011.02 517.10 882.93 655.45 855.61 752.58 1012.06 747.12
00002791 00000077 751.72 254.01 444.67 630.44 808.95 518.38 1007.67 514.32 879.33 656.06 851.47 750.21 1005.22 746.77
00002792 00000078 746.44 253.07 445.65 630.14 804.83 516.74 1002.60 514.52 872.26 654.72 845.11 747.38 995.88 745.56
00002793 00000079 733.20 250.09 457.25 636.25 792.23 515.94 992.08 518.39 862.14 667.16 839.91 748.46 985.54 750.98
00002794 00000080 734.54 251.60 442.56 636.81 791.49 519.64 991.28 516.84 861.95 658.16 832.88 748.57 982.57 746.64
00002795 00000081 724.45 246.05 445.85 647.20 782.66 523.12 981.90 522.13 853.93 662.61 825.29 751.17 973.69 750.42
00002796 00000082 714.88 246.13 450.01 653.97 775.77 529.43 978.13 530.23 849.36 669.84 819.26 756.66 967.15 757.34
00002797 00000083 706.88 253.99 456.45 650.32 769.58 535.57 973.85 535.47 843.89 676.24 816.11 763.46 961.13 763.57
00002798 00000084 704.36 264.05 464.49 644.67 761.73 540.35 970.29 535.44 835.74 684.17 816.35 778.73 961.71 774.57
00002799 00000085 699.57 269.16 468.08 645.26 758.20 542.76 970.74 537.90 833.96 690.03 814.59 784.32 961.78 779.81
00002800 00000086 697.41 273.79 466.41 643.88 756.49 546.04 970.77 542.49 833.82 696.47 812.13 788.51 960.13 784.85
00002801 00000087 696.19 273.91 467.44 645.29 755.33 548.44 970.42 545.49 832.83 698.83 811.55 791.65 958.68 788.34
00002802 00000088 695.37 274.07 469.31 650.41 756.46 552.55 970.57 550.24 831.84 703.21 811.08 795.90 958.72 792.94
00002803 00000089 693.55 279.67 468.03 648.05 754.99 554.93 971.86 553.85 832.65 707.98 809.17 799.19 958.34 797.18
00002804 00000090 692.58 287.34 466.28 647.60 755.95 558.31 972.69 558.01 835.12 713.65 811.03 805.45 957.75 803.98
00002805 00000091 694.80 290.42 464.81 645.85 756.78 564.45 959.01 563.42 827.41 716.38 810.53 797.41 950.50 796.28
00002806 00000092 694.09 292.15 465.60 646.90 756.67 566.44 958.50 565.83 827.54 719.67 811.78 799.52 951.05 798.72
00002807 00000093 693.29 292.41 467.61 647.81 756.91 566.97 959.62 566.82 828.10 721.06 812.00 799.51 952.41 799.00
00002808 00000094 693.62 294.39 469.79 645.62 758.58 566.21 963.68 566.39 830.36 721.05 812.07 798.61 955.37 798.39
00002809 00000095 696.06 291.04 467.61 647.40 762.09 564.89 967.55 566.50 833.72 718.04 812.36 797.44 956.45 798.28
00002810 00000096 693.28 297.86 472.26 644.25 760.39 567.45 969.05 564.73 837.44 708.60 815.01 803.68 962.30 800.81
00002811 00000097 697.78 283.55 470.15 657.29 762.39 561.31 979.83 559.48 842.29 714.28 818.51 809.45 965.47 806.94
00002812 00000098 701.56 277.02 468.00 659.62 765.58 562.45 982.18 556.69 847.10 709.92 821.91 808.13 968.90 802.44
00002813 00000099 702.17 278.60 469.91 660.06 766.63 562.88 985.23 555.80 849.61 711.01 824.13 809.06 972.61 802.30
00002814 00000100 703.30 277.57 469.05 661.37 767.10 562.53 985.34 556.19 849.62 711.53 824.20 809.40 972.00 803.33
00002815 00000101 703.79 279.87 471.13 661.25 768.10 563.12 985.42 557.66 849.52 713.40 826.25 810.78 972.89 805.41
00002816 00000102 706.07 280.84 471.47 660.20 770.28 563.01 986.93 559.29 850.44 714.42 827.74 810.22 973.95 806.36
00002817 00000103 705.22 280.21 475.77 660.12 770.82 561.22 987.63 559.90 849.56 714.42 828.01 810.04 973.27 808.22
00002818 00000104 706.15 282.38 474.53 658.01 772.43 560.46 988.22 561.29 849.83 714.01 828.08 808.91 972.44 808.78
00002819 00000105 708.08 282.95 473.45 657.49 774.89 562.07 988.31 563.26 851.21 712.91 830.30 809.86 972.13 809.97
00002820 00000106 708.63 282.31 472.92 659.28 774.15 562.72 987.56 563.91 850.07 714.05 829.64 810.10 972.03 810.23
00002821 00000107 704.69 288.01 473.75 653.87 771.08 567.57 976.12 566.12 843.66 709.62 822.11 802.39 970.07 801.10
00002822 00000108 706.03 288.89 473.43 654.15 767.68 567.13 973.76 564.31 839.53 710.48 820.39 804.32 970.16 802.00
00002823 00000109 707.57 289.04 473.59 652.61 766.47 564.74 972.29 559.96 837.47 709.52 820.18 803.71 969.00 799.89
00002824 00000110 705.41 286.40 478.59 654.45 763.26 557.04 978.93 556.13 836.34 714.76 823.93 810.74 968.83 808.70
00002825 00000111 703.35 287.72 479.63 647.89 760.90 553.08 976.34 553.61 832.40 712.90 821.53 805.66 966.54 804.73
00002826 00000112 700.03 290.79 481.83 643.18 755.44 550.40 972.22 551.39 825.53 710.92 816.91 801.22 965.80 800.45
00002827 00000113 698.48 285.77 481.48 640.46 752.15 541.98 969.05 545.40 821.23 706.34 811.97 791.92 963.01 793.59
00002828 00000114 698.84 278.24 478.95 645.70 749.79 538.69 958.78 542.26 810.06 699.99 807.21 784.28 958.53 785.71
00002829 00000115 694.28 283.71 477.15 640.83 745.22 534.69 949.14 540.46 799.34 697.85 801.98 781.78 950.05 785.04
00002830 00000116 691.47 286.22 473.41 630.37 736.54 528.35 937.97 538.13 786.55 695.19 791.96 774.69 939.84 781.19
00002831 00000117 684.97 279.74 472.29 631.00 732.94 524.93 931.98 537.28 782.03 691.23 784.22 768.53 930.69 777.42
00002832 DELETE   681.32 286.98 481.58 620.66 729.88 526.30 910.80 536.67 771.22 687.32 787.11 761.22 919.82 768.46
00002833 00000119 675.12 284.18 475.03 620.26 721.43 522.95 902.88 536.70 760.31 685.78 774.37 758.20 908.10 768.65
00002834 00000120 674.47 281.75 470.06 619.38 718.52 519.20 893.56 534.81 748.26 681.26 768.53 754.54 898.18 766.72
00002835 00000121 677.43 282.95 463.37 613.84 719.97 518.53 885.70 529.74 740.55 672.03 767.48 752.24 888.92 761.12
00002836 DELETE   677.62 287.03 456.23 605.67 718.29 518.35 879.33 526.13 734.37 665.87 763.51 751.33 882.70 757.19
00002837 00000123 671.27 284.21 458.35 606.75 711.34 515.44 874.71 525.96 728.36 666.85 759.08 750.66 879.08 758.35
00002838 DELETE   663.12 283.59 459.61 608.13 705.81 515.32 867.79 526.53 721.34 663.62 752.25 751.60 870.70 759.52
00002839 DELETE   660.40 285.22 455.04 606.66 701.77 515.41 861.20 529.84 711.62 663.37 746.38 751.74 863.67 761.88
00002840 DELETE   659.46 288.65 453.39 601.80 701.70 518.28 852.88 531.32 704.91 662.81 745.03 752.48 856.35 761.37
00002841 00000127 658.36 290.12 449.05 598.72 699.51 519.10 845.56 530.68 698.56 661.01 743.89 751.65 851.55 758.98
00002842 DELETE   657.35 289.17 445.31 600.00 698.68 521.57 836.78 531.42 692.08 660.40 743.26 753.04 844.27 758.78
00002843 00000129 652.47 291.99 442.43 597.16 691.01 524.55 833.72 532.18 689.69 662.35 737.91 756.09 840.60 759.97
00002844 00000130 651.08 294.64 437.74 596.30 687.53 527.91 829.26 533.76 686.41 665.92 736.18 758.47 838.85 760.87
00002845 00000131 654.54 309.86 434.54 580.77 692.26 538.38 828.37 546.13 693.06 670.35 735.17 755.07 834.21 760.04
00002846 00000132 649.89 310.87 436.85 584.67 690.48 541.35 830.60 548.07 694.57 675.06 740.14 757.47 840.73 761.91
00002847 00000133 646.90 311.29 441.14 591.40 688.82 548.59 830.37 553.51 695.79 681.21 740.81 765.05 842.09 768.01
00002848 00000134 647.30 321.56 442.25 584.30 691.29 556.41 830.01 559.44 696.81 684.88 744.18 769.69 843.95 771.13
CROP_BBOX: 380 0 1575 1080
