Video ID: 	eaInxbD8hqs
H: 	1080
W: 	1920
FPS: 	25.0

FRAME INDEX X0 Y0 W H [Landmarks (5 Points)]

00000703 00000000 834.01 192.98 401.32 556.53 881.36 418.99 1017.59 411.55 896.49 508.39 909.51 606.38 1024.66 599.15
00000704 00000001 833.48 197.09 401.73 555.41 881.02 419.05 1017.52 410.80 895.33 505.37 907.22 604.84 1024.30 596.86
00000705 00000002 833.12 197.18 399.79 556.65 882.40 418.36 1015.61 409.18 894.72 502.17 910.52 602.92 1027.10 593.99
00000706 00000003 831.96 197.28 399.84 556.64 881.48 417.61 1015.26 407.56 893.14 500.96 909.77 602.00 1030.07 592.36
00000707 00000004 831.40 203.24 400.92 553.23 879.03 416.74 1011.91 404.98 891.40 501.01 912.43 603.39 1031.76 592.13
00000708 00000005 830.29 206.42 401.98 554.41 877.63 418.20 1009.85 404.52 890.71 504.81 915.36 606.73 1035.39 593.60
00000709 00000006 829.62 200.91 402.42 560.31 876.53 420.79 1009.39 407.72 890.41 508.30 914.23 609.05 1032.21 596.50
00000710 00000007 827.59 198.84 406.05 561.65 874.70 421.82 1009.96 410.16 891.00 511.30 910.66 610.55 1028.99 599.36
00000711 00000008 829.47 201.88 406.37 556.22 875.82 424.26 1010.40 413.10 893.23 516.69 912.85 610.69 1031.61 599.87
00000712 00000009 831.45 205.30 403.33 552.93 877.43 427.85 1012.91 416.47 896.08 518.25 913.47 614.07 1030.33 603.23
00000713 00000010 833.13 212.70 405.02 547.31 878.41 429.08 1014.74 418.58 897.90 521.80 912.44 616.01 1029.88 605.96
00000714 00000011 835.59 203.52 403.05 559.74 882.59 428.34 1018.92 419.49 900.80 519.77 913.23 617.02 1029.73 608.52
00000715 00000012 838.41 205.73 402.41 557.91 885.27 425.60 1023.89 418.62 904.64 521.19 916.14 616.25 1035.42 609.37
00000716 00000013 841.79 204.55 399.87 561.06 887.48 423.64 1026.45 416.69 905.50 519.72 917.51 614.95 1038.39 608.22
00000717 00000014 841.39 204.71 400.10 559.82 887.09 424.38 1027.66 415.69 906.90 519.53 917.58 615.98 1040.88 607.91
00000718 00000015 839.13 197.18 401.60 563.52 884.74 423.36 1026.41 414.69 904.60 520.03 916.39 617.54 1039.77 609.36
00000719 00000016 836.18 207.90 403.66 553.98 882.62 427.60 1022.51 418.07 904.46 522.99 914.55 620.06 1035.17 611.18
00000720 DELETE   834.11 212.70 403.85 550.07 880.38 429.60 1021.11 419.75 902.52 523.97 911.29 621.49 1030.78 612.49
00000721 00000018 832.77 216.97 404.26 546.58 879.19 429.81 1022.54 420.50 903.42 525.43 910.26 621.47 1032.21 612.96
00000722 00000019 835.01 219.23 401.53 546.27 881.79 429.57 1026.60 420.44 907.64 525.23 913.31 620.49 1038.03 612.12
00000723 DELETE   837.39 211.06 399.99 554.16 885.75 428.88 1035.31 421.25 913.09 526.87 914.52 621.84 1045.38 614.88
00000724 00000021 843.20 204.88 397.22 567.40 891.98 429.06 1046.59 420.57 920.72 529.67 921.23 626.53 1056.09 619.36
00000725 00000022 843.71 207.94 398.55 562.20 897.19 428.77 1051.87 423.32 931.55 536.07 926.21 626.45 1059.59 621.81
00000726 DELETE   843.66 203.86 399.26 571.61 894.56 431.35 1048.96 428.48 926.35 537.67 920.98 629.05 1051.90 626.59
00000727 00000024 837.91 202.73 403.46 571.77 887.94 431.54 1035.82 427.77 913.04 532.43 913.28 632.21 1032.49 628.77
00000728 00000025 835.09 214.54 401.95 562.12 883.09 432.19 1028.07 430.57 906.74 534.42 905.78 632.89 1021.23 631.07
00000729 00000026 835.27 214.80 403.19 561.80 882.28 431.91 1027.60 430.37 905.71 535.50 905.69 633.33 1022.98 631.61
00000730 00000027 836.30 210.74 402.71 558.72 883.56 431.80 1029.70 427.65 909.11 532.81 909.31 630.97 1028.31 627.26
00000731 00000028 837.37 212.22 397.25 548.52 884.51 430.95 1031.89 427.98 910.93 531.21 907.50 626.60 1026.80 623.71
00000732 00000029 838.46 213.70 397.48 545.15 884.25 430.46 1030.34 429.12 908.34 532.13 904.74 623.33 1024.88 621.77
00000733 00000030 836.81 217.68 399.19 549.18 882.98 430.46 1027.98 430.05 907.59 534.17 904.62 628.53 1020.80 627.80
00000734 00000031 836.14 219.82 403.08 556.67 881.40 433.34 1024.52 429.22 903.64 534.88 907.84 636.24 1022.46 632.17
00000735 00000032 836.18 219.12 402.06 564.29 881.17 434.61 1024.35 430.79 902.29 537.96 908.26 638.90 1023.59 635.00
00000736 00000033 834.70 216.61 403.55 561.75 879.43 433.37 1025.83 432.28 903.92 541.04 907.50 637.48 1026.14 635.89
00000737 00000034 835.43 216.21 402.81 559.65 879.78 432.95 1025.86 430.30 903.65 538.24 908.32 635.80 1027.82 632.81
00000738 00000035 836.16 217.17 400.26 558.12 881.83 431.60 1027.64 430.16 905.23 534.84 907.15 632.43 1027.88 630.54
00000739 00000036 836.42 216.85 399.94 554.61 880.36 432.51 1025.81 429.86 903.31 534.13 906.81 630.40 1029.18 627.43
00000740 00000037 836.04 214.79 399.60 554.79 878.91 434.56 1025.81 431.17 902.25 535.63 905.43 629.49 1030.98 625.91
00000741 00000038 834.46 213.67 398.92 556.80 878.75 437.87 1026.65 433.84 904.75 539.56 906.50 629.49 1035.57 625.35
00000742 00000039 834.78 212.34 399.73 559.21 879.26 440.34 1027.00 436.73 907.02 544.33 907.12 629.86 1038.19 626.04
00000743 00000040 836.37 225.06 397.47 544.38 881.18 441.22 1030.00 438.38 910.98 548.04 909.04 629.81 1039.94 626.43
00000744 00000041 838.77 223.01 396.16 546.69 885.38 441.17 1033.44 439.82 915.54 548.12 911.45 630.41 1039.52 628.32
00000745 00000042 843.31 218.32 397.22 552.73 888.25 439.14 1037.16 439.11 918.51 546.60 911.51 630.20 1038.75 629.67
00000746 00000043 842.64 217.37 399.20 552.68 888.25 436.39 1039.90 436.55 919.46 545.70 912.55 631.96 1039.00 631.69
00000747 00000044 842.52 214.24 400.09 556.26 888.60 437.80 1039.93 436.20 920.70 546.33 914.89 633.10 1040.96 631.34
00000748 00000045 843.80 219.60 398.51 552.72 888.90 438.65 1039.78 435.73 921.86 547.19 917.62 634.28 1043.87 631.51
00000749 00000046 845.22 211.89 399.07 556.17 889.88 436.75 1041.28 433.08 922.08 546.43 920.05 635.82 1047.18 632.31
00000750 00000047 849.12 205.79 396.72 559.24 893.85 433.25 1046.03 432.02 924.69 544.26 919.68 631.02 1050.20 629.55
00000751 00000048 854.59 201.27 392.57 561.20 900.16 430.59 1054.71 430.03 934.32 542.01 926.22 626.18 1057.51 625.52
00000752 00000049 859.19 200.82 392.03 561.71 904.40 428.37 1057.93 428.07 938.48 542.39 932.81 625.73 1064.41 625.28
00000753 00000050 860.39 199.68 393.58 567.56 907.30 429.03 1060.81 426.42 942.43 541.51 936.74 631.05 1065.61 628.83
00000754 00000051 861.94 197.26 393.56 573.89 909.19 429.46 1060.20 424.82 941.93 539.66 941.76 630.75 1067.89 626.61
00000755 00000052 861.55 206.16 393.97 565.94 909.20 429.55 1058.50 424.83 938.15 538.39 943.39 631.54 1067.23 627.21
00000756 00000053 859.22 206.40 393.88 560.31 905.32 428.91 1056.92 426.01 936.31 539.08 935.55 630.07 1063.53 627.42
00000757 00000054 858.03 203.61 391.42 557.15 900.65 429.00 1054.91 428.06 933.54 541.20 927.43 627.62 1059.95 626.57
00000758 00000055 853.63 209.05 393.66 554.87 898.05 431.97 1051.49 430.39 932.46 544.48 925.35 627.95 1055.61 626.49
00000759 00000056 849.85 207.13 397.66 557.94 892.35 436.45 1043.87 433.68 924.36 546.73 920.57 633.16 1049.69 630.40
00000760 00000057 846.79 217.27 399.72 554.87 889.66 441.38 1037.64 436.54 920.31 548.96 920.03 635.55 1045.31 631.33
00000761 00000058 846.90 212.47 399.24 559.99 890.59 441.70 1037.98 435.98 920.82 548.90 921.52 636.50 1046.96 631.46
00000762 00000059 851.75 209.32 397.83 562.27 894.21 435.49 1044.59 433.87 924.14 546.05 922.62 633.24 1051.18 631.63
00000763 00000060 856.20 205.16 395.27 561.64 898.92 430.66 1052.26 430.21 931.42 540.43 924.85 628.08 1053.06 627.63
00000764 00000061 858.34 205.65 392.27 549.25 902.13 423.16 1054.72 423.81 934.25 534.75 929.41 619.71 1056.21 619.75
00000765 00000062 858.95 201.42 394.00 549.14 902.29 419.52 1056.98 417.71 936.00 529.24 930.42 616.26 1057.90 614.31
00000766 00000063 860.99 199.53 393.38 551.32 903.90 418.33 1058.09 417.23 935.41 528.31 930.92 616.06 1059.47 614.66
00000767 00000064 861.40 206.52 394.13 545.53 904.15 418.85 1058.86 419.07 935.52 530.51 931.79 617.51 1061.52 616.97
00000768 00000065 864.65 211.06 393.32 542.79 906.84 421.07 1062.15 420.43 938.95 531.19 934.56 619.69 1065.53 618.35
00000769 00000066 870.52 213.41 392.24 545.01 914.26 428.67 1068.46 426.55 947.51 530.52 940.97 618.96 1072.40 616.19
00000770 00000067 870.76 211.44 400.70 547.89 925.89 436.24 1071.16 424.45 955.82 522.74 956.03 620.23 1080.22 608.19
00000771 00000068 876.26 206.98 400.27 550.52 929.62 434.05 1074.06 423.23 956.60 519.93 961.95 618.64 1085.10 607.63
00000772 DELETE   879.19 201.38 399.25 557.66 931.85 435.44 1076.33 423.88 960.01 521.99 965.25 621.22 1085.96 609.83
00000773 DELETE   878.64 204.21 401.33 561.08 932.19 438.09 1077.34 426.69 961.40 526.69 964.96 626.22 1086.79 614.96
00000774 00000071 880.60 208.83 400.39 556.30 932.21 439.52 1077.55 428.58 961.50 531.18 966.32 630.81 1086.49 620.09
00000775 00000072 884.85 209.02 396.43 557.35 931.78 436.87 1080.28 426.17 962.12 532.21 964.52 631.87 1088.35 620.93
00000776 00000073 885.17 209.58 402.76 551.71 935.21 437.48 1082.10 427.60 964.77 529.37 968.07 627.67 1087.66 618.33
00000777 00000074 888.03 210.74 398.66 541.89 936.20 431.14 1080.94 420.73 963.97 523.88 970.95 618.72 1090.34 608.74
00000778 00000075 885.71 198.73 399.78 544.85 935.77 422.11 1080.63 413.64 965.49 519.37 969.69 609.92 1090.97 601.50
00000779 00000076 883.54 190.09 402.17 551.79 936.23 418.37 1082.21 411.61 964.11 516.88 966.12 606.02 1088.09 599.14
00000780 00000077 883.92 191.78 402.76 552.44 936.05 417.78 1080.25 411.81 961.63 517.29 965.15 606.72 1085.23 600.62
00000781 00000078 882.78 191.83 401.50 552.96 935.55 417.21 1080.01 411.93 961.57 516.61 964.96 608.35 1081.90 602.98
00000782 00000079 881.72 190.71 401.07 549.05 935.25 416.98 1079.88 410.77 962.09 515.71 962.51 606.46 1082.69 600.54
00000783 00000080 883.65 194.61 404.41 544.36 937.12 414.16 1080.39 406.76 960.96 508.15 962.50 603.04 1083.15 595.96
00000784 00000081 891.31 189.05 401.02 549.66 944.83 410.88 1086.13 402.79 964.98 499.29 966.58 601.57 1084.28 594.15
00000785 00000082 897.34 191.24 397.97 540.91 950.93 407.50 1092.83 399.77 971.40 496.39 969.59 600.72 1091.10 593.75
00000786 00000083 899.09 184.46 396.85 546.61 952.65 406.92 1098.24 400.99 974.96 497.82 969.41 600.60 1095.56 595.14
00000787 00000084 901.34 184.18 395.42 548.16 955.70 409.07 1100.14 403.54 977.71 500.20 971.95 600.96 1098.42 595.79
00000788 00000085 900.06 188.20 395.71 546.34 953.69 411.15 1097.69 405.74 976.36 503.74 973.79 603.71 1097.66 598.39
00000789 00000086 901.04 196.36 396.88 544.91 951.99 411.51 1094.23 405.81 972.26 505.89 976.85 607.42 1096.82 601.73
00000790 00000087 899.88 195.87 397.05 545.78 950.36 412.20 1091.68 406.74 971.23 508.63 977.23 609.28 1095.27 603.64
00000791 00000088 899.06 195.72 397.75 544.62 949.04 411.72 1090.70 407.23 970.29 509.46 975.12 607.58 1095.07 602.67
00000792 00000089 898.22 193.12 399.43 547.21 949.05 412.12 1091.92 406.75 970.11 507.33 974.06 606.75 1094.63 601.30
00000793 00000090 897.74 191.15 399.62 545.51 948.79 412.18 1091.92 406.19 970.26 506.16 972.42 605.12 1094.44 599.21
00000794 00000091 896.65 191.29 399.07 544.83 948.04 412.13 1090.16 406.16 968.74 505.72 971.97 604.27 1093.52 598.34
00000795 00000092 894.17 194.21 400.71 540.19 944.38 412.78 1086.02 407.02 967.53 508.50 969.65 603.69 1091.06 597.76
00000796 00000093 892.61 189.65 397.58 545.89 942.47 412.00 1084.67 407.33 964.43 508.01 966.31 601.43 1087.28 596.46
00000797 00000094 891.65 192.96 397.71 540.34 942.18 411.41 1082.95 406.42 963.70 506.27 966.12 598.97 1087.69 593.67
00000798 00000095 892.53 190.54 398.08 542.81 943.57 410.00 1085.28 404.23 963.35 501.45 966.92 597.93 1087.99 592.20
00000799 00000096 892.63 190.68 399.18 542.10 944.54 408.23 1086.32 402.92 965.40 500.74 967.02 597.73 1087.08 592.43
00000800 00000097 893.19 187.65 399.64 545.12 945.43 407.66 1087.09 403.10 967.28 502.23 966.82 598.39 1086.45 593.82
00000801 00000098 893.80 193.39 398.84 541.07 944.11 409.72 1084.70 404.67 966.91 505.70 968.48 601.36 1085.55 596.24
00000802 00000099 892.81 191.72 399.30 547.00 941.43 411.54 1081.47 406.25 963.38 510.02 968.28 603.50 1083.78 598.07
00000803 00000100 891.35 192.43 400.26 549.35 941.36 412.81 1080.87 405.88 962.80 507.86 970.10 605.17 1081.98 598.46
00000804 00000101 892.47 191.26 399.40 549.73 941.97 412.16 1080.90 404.94 962.32 506.35 971.19 605.17 1083.57 598.11
00000805 00000102 892.83 186.25 400.18 555.15 942.93 410.55 1082.94 402.78 963.35 503.26 971.54 604.29 1085.34 596.67
00000806 00000103 894.14 189.30 398.91 549.37 945.27 408.28 1085.46 401.08 966.84 500.71 971.50 602.73 1085.91 595.68
00000807 00000104 894.81 187.00 399.79 550.48 946.23 406.62 1086.61 399.35 966.68 499.32 972.25 602.16 1088.00 595.11
00000808 00000105 893.79 185.10 400.83 549.38 946.37 406.09 1087.08 398.97 968.02 499.20 971.63 599.79 1090.42 592.92
00000809 00000106 893.74 186.72 400.16 548.82 946.19 406.46 1087.41 400.47 967.30 499.99 969.94 598.34 1090.12 592.38
00000810 00000107 892.99 188.90 400.83 547.86 945.11 407.08 1086.70 401.26 967.02 500.88 969.89 598.78 1089.43 592.82
00000811 00000108 893.38 187.49 404.00 551.53 945.84 405.10 1087.55 399.94 967.00 500.90 971.54 600.82 1087.95 595.55
00000812 00000109 895.03 166.72 407.75 576.73 949.33 400.40 1092.87 394.59 968.46 495.11 972.77 600.84 1090.88 595.47
00000813 DELETE   899.64 172.76 402.12 562.12 953.16 395.29 1100.32 391.78 974.29 491.30 971.36 595.15 1094.65 591.51
00000814 00000111 903.15 168.33 400.05 560.93 959.84 388.49 1110.48 387.11 985.56 490.88 973.39 588.20 1104.33 586.53
00000815 00000112 905.57 161.23 406.76 572.74 962.35 386.86 1121.06 386.88 990.90 493.39 982.86 593.09 1111.72 593.56
00000816 00000113 910.29 166.82 401.99 567.86 965.99 391.33 1121.38 387.79 991.16 494.47 989.21 596.52 1116.42 593.92
00000817 00000114 909.05 166.98 399.39 572.76 964.83 396.14 1111.96 388.71 988.47 491.64 984.97 596.94 1114.80 590.30
00000818 00000115 908.46 175.79 396.56 564.75 962.89 397.92 1104.27 393.00 978.57 492.77 982.40 595.70 1109.22 590.86
00000819 00000116 908.43 183.88 397.93 561.42 959.41 400.08 1098.70 393.79 969.77 489.04 980.35 599.64 1099.73 593.76
00000820 00000117 907.75 178.35 399.10 568.82 957.50 398.92 1095.13 393.11 966.16 488.80 979.55 601.51 1095.43 595.89
00000821 00000118 905.95 180.64 399.35 560.70 955.61 400.99 1094.45 394.05 967.02 491.60 977.40 599.91 1096.64 593.46
00000822 00000119 903.02 188.31 399.60 544.04 954.29 402.17 1095.85 396.19 971.62 497.13 973.38 597.29 1100.67 591.67
00000823 00000120 901.37 189.15 399.43 540.09 952.09 403.12 1091.11 398.11 968.72 499.27 969.91 594.96 1094.36 590.03
00000824 00000121 895.57 185.81 403.23 547.23 945.15 404.37 1086.95 399.80 960.04 498.31 962.65 594.28 1083.70 590.06
00000825 00000122 891.85 183.69 402.68 545.80 942.76 403.28 1083.89 398.86 957.24 496.65 959.74 592.78 1078.41 588.85
00000826 00000123 891.00 180.53 402.08 550.69 941.40 402.09 1082.81 398.00 955.59 496.17 958.48 592.39 1078.01 588.69
00000827 00000124 890.59 180.13 401.08 553.78 941.12 403.57 1082.35 399.62 956.90 498.68 959.61 595.91 1078.29 592.06
00000828 00000125 890.11 196.22 398.70 543.53 939.23 408.97 1077.21 403.66 957.65 505.10 966.83 601.74 1078.62 596.30
00000829 00000126 886.77 194.94 399.87 553.16 934.88 416.44 1076.28 408.05 958.00 513.02 969.25 609.43 1083.87 601.12
00000830 00000127 883.00 202.03 397.67 561.31 926.92 426.60 1077.12 414.11 955.46 521.83 957.54 617.63 1093.55 606.85
00000831 00000128 877.04 205.46 395.56 560.50 923.12 432.00 1074.26 420.40 955.77 529.56 952.54 620.36 1092.51 609.92
00000832 00000129 875.10 213.82 393.97 553.29 921.82 436.79 1069.17 425.55 952.50 534.07 951.46 623.80 1090.42 613.26
00000833 00000130 874.48 215.97 390.99 548.66 920.43 437.26 1068.66 426.14 952.10 534.69 949.04 623.48 1088.37 613.10
00000834 00000131 874.00 211.46 393.25 548.87 919.83 435.91 1073.21 425.76 954.69 533.37 946.56 620.79 1090.36 611.21
00000835 00000132 876.03 209.98 404.19 549.30 928.30 433.33 1073.92 426.61 958.59 538.26 961.52 619.95 1089.40 612.01
00000836 00000133 879.00 210.40 397.38 558.13 927.35 438.75 1079.24 429.83 962.31 536.91 954.23 625.21 1092.11 617.28
00000837 00000134 885.70 212.67 401.01 556.55 931.97 438.11 1079.63 433.07 962.13 543.00 966.26 627.40 1092.43 620.93
00000838 00000135 886.02 217.01 399.95 553.30 933.80 440.55 1079.67 435.00 964.39 544.24 969.85 628.59 1095.45 621.52
00000839 00000136 887.71 210.36 401.51 557.22 934.83 439.34 1079.95 434.55 964.52 544.93 972.20 627.70 1095.66 621.33
00000840 00000137 886.23 220.50 407.01 545.80 934.27 441.23 1080.59 434.74 964.92 546.42 973.00 627.69 1094.47 620.65
00000841 00000138 888.70 213.55 407.32 555.77 936.90 439.52 1086.00 435.85 967.71 546.51 970.68 628.81 1093.97 624.41
00000842 00000139 892.25 208.49 406.64 562.32 939.64 437.18 1087.58 434.84 967.19 542.62 971.21 630.10 1091.52 627.08
00000843 00000140 895.27 207.79 405.16 563.63 943.05 435.03 1089.39 433.82 967.79 538.11 970.27 627.93 1090.78 626.03
00000844 00000141 897.24 205.83 406.75 564.20 944.37 435.13 1090.20 432.80 968.33 537.19 971.80 627.03 1093.81 624.24
00000845 00000142 896.58 205.53 408.12 564.58 943.85 436.46 1092.04 433.21 969.15 538.19 971.81 627.34 1097.39 623.78
00000846 00000143 898.50 211.63 407.01 559.32 945.05 442.41 1094.67 436.90 970.61 537.28 973.46 628.90 1101.06 623.30
00000847 00000144 900.55 213.27 404.91 559.32 948.22 441.45 1097.68 435.82 974.18 535.33 977.27 629.09 1105.86 623.37
00000848 DELETE   909.00 210.84 400.88 564.35 956.98 434.51 1104.98 428.73 979.23 528.75 984.91 631.12 1110.47 625.59
00000849 DELETE   914.09 207.19 396.87 559.28 962.58 426.33 1113.43 423.43 984.37 525.34 987.42 624.83 1117.64 621.71
00000850 DELETE   917.02 199.45 396.38 562.93 965.12 423.03 1116.58 422.13 988.47 523.09 986.92 618.59 1117.59 617.12
00000851 00000148 917.54 199.78 396.85 560.59 966.28 421.09 1118.32 419.94 991.01 522.28 987.61 618.05 1116.04 616.39
00000852 00000149 917.52 202.25 397.81 558.61 965.39 421.67 1117.64 419.21 990.30 522.57 988.76 621.24 1114.87 618.56
00000853 00000150 917.02 206.06 399.52 560.97 965.25 421.87 1119.40 420.14 991.55 525.21 990.04 624.20 1116.75 622.24
00000854 00000151 919.48 215.39 400.91 554.39 967.24 420.45 1122.44 420.83 994.98 528.46 991.35 624.56 1119.00 624.63
00000855 00000152 920.60 218.90 400.53 553.59 967.88 420.63 1125.39 420.38 997.96 529.48 993.14 627.70 1120.97 627.41
00000856 00000153 921.19 215.04 399.24 550.57 970.36 420.90 1128.25 419.51 1002.96 531.46 998.47 628.09 1127.83 626.71
00000857 00000154 923.52 213.24 396.54 548.80 971.90 422.99 1128.32 421.38 1005.49 533.37 998.60 627.13 1129.62 625.58
00000858 00000155 923.27 213.96 394.80 549.66 972.02 426.71 1128.28 424.88 1005.76 536.09 996.02 627.23 1129.71 625.59
00000859 00000156 921.62 210.80 396.07 555.33 971.37 427.90 1126.59 428.61 1002.70 536.15 992.94 628.05 1121.53 628.55
00000860 00000157 920.52 208.57 394.53 556.66 968.75 428.87 1123.44 431.10 999.39 537.80 989.11 628.67 1115.54 630.31
00000861 00000158 919.41 203.84 395.54 560.64 967.93 427.86 1121.57 431.04 996.07 534.53 986.72 626.01 1111.55 628.34
00000862 00000159 919.00 205.08 394.69 562.38 967.06 428.70 1120.14 430.55 994.16 533.03 986.69 628.75 1110.50 629.99
00000863 00000160 918.71 203.78 394.89 566.92 965.31 429.48 1119.32 429.35 990.76 532.19 984.87 632.04 1112.15 631.82
00000864 00000161 917.29 207.76 395.40 564.88 965.70 428.99 1116.45 428.41 988.90 530.93 987.36 631.89 1111.76 631.17
00000865 00000162 916.81 207.78 397.14 564.33 964.52 430.32 1112.78 427.54 986.26 530.09 988.49 634.21 1109.31 631.64
00000866 00000163 917.38 211.37 396.93 561.57 963.94 429.90 1112.17 427.01 984.93 530.31 988.63 634.09 1110.38 631.43
00000867 00000164 916.52 210.38 397.34 560.63 964.13 428.32 1112.27 426.32 984.42 528.74 988.39 631.92 1110.34 630.02
00000868 00000165 917.61 209.68 395.77 558.42 964.20 426.42 1112.48 425.03 983.27 529.49 986.67 629.22 1112.45 627.76
00000869 00000166 917.46 209.17 395.88 555.65 964.58 425.83 1112.74 423.92 985.55 529.13 987.16 628.34 1113.14 626.36
00000870 00000167 915.88 210.25 397.90 551.02 962.08 425.49 1112.57 423.03 984.89 527.51 985.79 628.27 1111.49 625.77
CROP_BBOX: 567 0 1644 1080
