Video ID: 	4PNns9XFvsI
H: 	1080
W: 	1920
FPS: 	23.976023976023978

FRAME INDEX X0 Y0 W H [Landmarks (5 Points)]

00001765 00000000 451.76 178.12 387.22 572.07 615.11 413.28 774.85 413.04 722.76 552.31 595.28 575.01 762.80 578.60
00001766 00000001 450.75 176.89 388.14 571.85 614.16 411.97 774.55 410.83 722.26 550.61 595.13 573.99 763.01 576.76
00001767 00000002 450.78 172.88 388.61 575.19 612.76 411.68 774.01 409.94 721.67 549.17 594.99 573.97 762.91 576.07
00001768 00000003 449.73 181.85 389.40 567.80 612.65 412.30 773.96 411.77 720.32 552.35 593.94 574.29 761.69 577.85
00001769 00000004 449.08 181.08 389.95 572.07 612.84 416.82 774.55 414.61 722.28 554.11 595.94 579.75 761.45 581.81
00001770 00000005 450.29 191.66 389.52 558.95 612.76 420.46 776.50 415.38 724.67 557.37 602.68 586.09 764.95 585.82
00001771 00000006 449.34 187.75 389.85 563.73 612.62 419.35 774.62 414.91 722.70 554.32 603.43 586.89 762.07 586.87
00001772 00000007 449.45 178.11 389.37 570.72 611.16 414.91 771.91 409.67 719.96 549.47 604.06 584.98 760.25 583.75
00001773 00000008 446.42 176.82 393.09 565.11 609.88 410.46 773.80 403.24 721.27 545.12 604.19 583.88 761.00 581.17
00001774 00000009 446.86 178.91 386.64 562.53 605.13 408.52 775.70 405.21 724.04 538.29 598.23 583.78 764.29 583.63
00001775 00000010 445.76 178.08 387.48 561.23 605.08 404.60 773.63 399.83 724.23 535.70 601.80 583.05 763.60 581.45
00001776 00000011 446.79 178.68 386.11 557.15 605.09 402.79 772.93 399.01 724.26 531.33 603.45 579.66 764.33 578.76
00001777 00000012 449.19 172.56 383.48 564.36 607.17 402.05 773.47 397.97 726.21 529.90 606.08 579.40 766.96 578.02
00001778 00000013 451.24 169.15 383.22 569.69 612.21 402.50 777.01 398.86 732.14 527.76 608.34 579.79 769.16 578.90
00001779 00000014 448.33 180.65 391.23 553.44 615.22 402.90 778.90 395.46 730.19 536.85 614.65 584.69 763.57 581.52
00001780 00000015 450.55 172.60 391.59 568.26 616.53 410.98 780.63 402.62 732.32 541.51 614.98 587.50 768.23 583.52
00001781 00000016 454.73 173.02 390.24 572.72 622.50 417.41 782.33 413.09 732.77 548.80 617.19 591.67 765.98 590.64
00001782 00000017 459.50 176.03 390.37 580.74 625.09 426.94 787.13 422.17 736.66 556.77 616.85 599.05 766.75 598.19
00001783 00000018 461.89 189.47 393.31 572.76 628.83 430.30 791.96 427.12 741.14 568.50 619.63 603.17 770.04 604.03
00001784 00000019 462.33 185.05 392.45 585.52 631.09 427.74 789.85 425.55 738.50 565.37 616.75 600.26 769.70 601.47
00001785 DELETE   465.68 166.30 394.49 595.39 633.85 417.91 791.08 416.01 741.33 554.14 618.00 587.61 779.84 588.16
00001786 00000021 466.91 159.05 399.26 592.27 631.93 404.63 795.13 402.92 745.39 535.75 622.58 575.84 791.02 575.93
00001787 00000022 469.68 170.05 396.09 573.20 631.31 395.95 799.27 395.12 745.84 529.32 620.69 566.22 797.06 567.34
00001788 00000023 472.94 177.82 394.57 564.64 633.30 400.06 803.73 398.00 748.07 536.94 618.42 569.42 797.32 570.46
00001789 00000024 477.90 177.31 393.66 568.27 635.63 409.01 806.49 405.78 747.96 545.05 617.33 573.60 797.30 574.13
00001790 00000025 478.68 184.03 394.88 560.84 637.65 411.34 808.56 407.02 749.43 548.18 618.61 574.92 797.51 575.01
00001791 00000026 478.88 187.34 394.19 554.26 638.55 408.48 809.63 406.20 750.75 541.61 619.41 571.59 797.37 573.37
00001792 00000027 481.40 185.85 392.95 553.29 638.14 405.26 810.61 403.08 750.95 537.08 619.96 568.79 799.64 570.50
00001793 00000028 481.23 188.58 391.95 547.20 638.83 404.01 811.31 401.71 752.46 536.09 620.82 565.84 800.32 567.47
00001794 00000029 481.90 192.28 391.08 542.65 639.29 401.51 811.47 400.36 752.62 535.60 620.88 564.28 799.77 566.91
00001795 00000030 481.42 181.22 390.42 554.16 639.82 402.30 810.69 399.43 753.52 534.72 622.23 563.79 801.15 564.64
00001796 00000031 480.88 186.27 391.51 549.13 638.91 401.80 810.54 399.88 752.12 534.87 621.22 564.42 799.94 566.16
00001797 00000032 478.40 184.50 393.44 552.27 638.10 402.68 809.03 399.69 751.91 535.30 622.63 567.48 799.32 568.27
00001798 00000033 476.14 179.95 395.65 559.63 638.95 406.30 808.54 400.65 753.38 535.65 630.40 575.88 798.73 574.00
00001799 00000034 473.92 171.23 396.84 570.38 637.39 407.97 806.79 399.36 753.53 537.44 635.61 582.93 798.64 577.98
00001800 00000035 471.68 174.55 394.72 562.52 632.90 408.06 803.48 399.30 749.95 537.04 633.46 583.59 793.63 578.62
00001801 00000036 467.06 171.53 395.65 563.11 628.65 405.17 799.28 398.93 744.39 536.54 629.88 584.10 786.40 580.98
00001802 00000037 463.04 167.67 392.69 563.98 620.31 403.98 789.59 398.86 734.30 536.77 621.98 581.36 779.72 578.97
00001803 00000038 450.46 182.54 397.46 547.31 606.19 400.53 774.70 391.09 718.64 538.66 613.93 580.63 768.15 575.51
00001804 00000039 440.97 177.35 393.74 554.52 584.22 405.60 759.95 391.13 702.20 536.14 596.81 584.55 758.13 573.97
00001805 00000040 436.18 172.10 396.26 557.09 581.53 403.01 757.65 386.49 701.09 530.10 596.60 582.33 757.35 569.52
00001806 DELETE   449.00 160.09 392.57 570.86 604.58 395.13 771.70 383.13 724.51 526.14 608.18 571.11 770.59 562.28
00001807 DELETE   462.88 141.12 403.43 583.37 635.65 386.85 796.99 383.27 744.70 520.73 633.26 567.40 779.11 565.77
00001808 00000043 483.94 147.77 400.19 580.46 662.71 384.82 819.91 392.58 770.37 517.01 650.11 564.34 794.11 571.80
00001809 00000044 501.24 150.26 391.56 575.21 672.01 381.82 829.41 393.36 775.60 524.59 655.22 560.87 803.16 572.06
00001810 00000045 503.72 149.70 391.40 571.77 670.72 377.38 830.76 389.60 775.18 519.36 654.28 556.13 804.10 567.82
00001811 00000046 497.60 134.86 397.04 581.32 662.10 373.19 826.80 382.92 768.47 513.12 649.36 553.16 802.75 561.88
00001812 00000047 497.11 149.34 394.22 563.68 660.59 372.33 825.92 379.90 767.25 509.19 650.04 552.91 800.85 560.25
00001813 00000048 501.85 129.88 397.66 577.18 668.45 369.68 837.42 375.40 783.40 505.82 661.28 550.40 815.07 555.82
00001814 00000049 516.32 138.95 389.52 566.72 682.61 375.70 846.76 375.45 796.49 500.39 676.93 546.45 823.18 549.76
00001815 DELETE   501.26 134.39 394.14 573.80 667.31 370.07 835.70 372.21 783.41 505.70 660.27 549.75 816.09 552.39
00001816 00000051 479.73 145.28 400.30 564.86 643.45 368.40 813.94 364.65 754.82 505.43 638.07 554.31 790.65 552.12
00001817 00000052 469.51 136.01 396.67 567.99 627.03 373.04 796.56 365.67 744.61 505.38 625.63 546.72 782.75 543.08
00001818 DELETE   479.10 144.78 398.37 564.37 644.35 364.71 811.25 362.21 754.15 499.53 640.72 549.33 792.70 547.91
00001819 00000054 485.16 142.31 398.67 566.81 652.61 365.64 820.30 368.79 764.93 498.35 647.57 546.10 801.17 549.36
00001820 00000055 485.14 138.82 400.33 572.53 651.65 364.16 819.61 369.74 761.36 502.64 642.85 548.00 796.53 552.99
00001821 00000056 487.49 142.36 397.33 570.53 650.75 365.14 816.40 370.38 757.60 502.86 640.87 548.09 793.59 553.14
00001822 00000057 498.21 136.38 397.41 572.23 661.01 363.94 832.69 370.22 774.94 503.50 652.35 545.13 810.91 550.91
00001823 00000058 510.44 145.65 398.18 564.24 678.82 365.18 846.38 369.56 795.53 504.66 666.76 545.21 825.36 549.38
00001824 00000059 509.24 143.91 396.48 575.13 670.95 360.78 836.19 370.35 782.04 505.77 655.11 536.98 822.06 545.66
00001825 00000060 495.36 141.32 399.99 583.59 658.91 358.71 825.83 371.57 767.76 502.35 642.63 539.04 807.67 550.01
00001826 00000061 490.26 137.00 400.59 587.84 655.30 359.62 823.22 370.06 767.05 500.48 640.04 536.52 808.96 545.27
00001827 00000062 494.44 136.09 399.78 586.33 661.03 357.92 828.30 369.25 774.38 500.75 643.56 533.10 814.04 543.38
00001828 00000063 495.54 138.82 399.02 579.73 661.19 360.06 828.47 370.81 773.76 505.13 642.93 532.12 814.10 542.25
00001829 00000064 491.93 134.49 398.39 582.69 652.25 363.02 822.35 371.47 764.50 504.63 636.95 534.28 809.96 541.88
00001830 00000065 489.77 134.76 399.46 580.06 653.01 364.65 820.76 370.57 765.02 500.61 643.04 539.30 806.68 544.67
00001831 00000066 495.98 131.03 400.19 581.18 662.20 363.98 831.38 367.66 779.38 499.72 654.35 541.37 817.28 544.92
00001832 00000067 499.59 132.52 400.44 577.52 669.82 367.18 836.73 366.40 790.50 502.79 658.69 541.75 821.04 542.46
00001833 00000068 497.94 128.65 402.50 581.37 662.90 363.86 834.10 367.96 780.10 505.48 652.31 540.84 818.08 545.07
00001834 00000069 495.02 134.25 400.52 575.12 657.42 362.32 828.38 370.36 770.56 501.75 646.64 541.13 809.57 548.64
00001835 00000070 499.05 136.52 398.12 571.64 659.46 363.40 831.42 368.44 775.39 502.54 652.39 543.10 814.52 547.99
00001836 00000071 502.01 131.43 399.23 576.05 664.89 366.69 837.10 365.87 785.58 504.17 656.60 542.80 822.13 543.14
00001837 00000072 501.76 135.44 399.78 573.24 663.94 367.61 835.61 369.68 781.60 506.22 654.38 542.91 819.78 545.56
00001838 00000073 499.82 139.45 397.47 567.93 659.21 365.20 831.00 371.50 771.87 506.64 649.76 544.37 810.91 550.31
00001839 00000074 498.78 136.47 397.63 572.16 658.57 366.52 829.35 371.78 771.42 504.96 651.24 545.03 811.36 550.09
00001840 00000075 500.73 135.70 397.21 571.68 660.57 367.43 831.85 371.10 775.37 506.40 652.35 544.12 814.69 548.02
00001841 00000076 500.18 137.51 398.52 569.39 658.38 366.22 831.65 368.66 774.83 506.58 651.21 542.44 817.48 545.38
00001842 00000077 494.77 134.62 401.49 572.63 653.77 361.43 828.48 366.66 769.09 500.93 646.63 540.34 812.69 545.29
00001843 00000078 490.72 135.96 403.06 571.81 650.49 362.98 825.16 366.08 766.57 499.76 644.74 540.57 811.09 543.54
00001844 00000079 494.70 142.51 399.07 563.90 650.95 362.49 825.99 365.66 766.73 502.07 643.94 536.26 813.56 539.95
00001845 00000080 494.87 141.63 399.43 563.12 650.85 361.17 827.86 365.03 768.17 499.74 644.94 536.55 814.75 540.79
00001846 00000081 491.70 145.24 400.25 560.78 649.11 361.13 823.10 365.94 762.42 500.66 640.46 535.50 808.75 540.20
00001847 00000082 490.39 143.03 398.78 565.41 643.74 358.48 817.03 365.59 752.95 502.13 632.74 535.83 801.21 542.18
00001848 00000083 488.57 157.68 397.78 554.72 637.66 355.99 813.07 360.81 746.07 501.04 627.33 538.51 797.72 542.87
00001849 00000084 483.01 149.17 402.82 566.07 636.87 355.07 810.79 360.82 744.69 500.25 625.49 537.58 796.41 542.61
00001850 00000085 482.77 147.02 400.75 563.70 634.94 353.52 808.53 361.41 739.91 498.74 623.24 534.55 791.37 541.46
00001851 00000086 476.38 140.83 401.31 560.99 625.65 355.33 798.53 358.49 732.81 497.28 614.60 530.82 783.43 536.17
00001852 00000087 469.86 145.57 403.28 549.44 616.64 353.57 790.77 359.48 720.70 497.29 605.44 526.96 773.82 535.08
00001853 00000088 464.43 148.44 403.98 543.06 609.43 352.04 782.59 358.68 711.11 496.13 598.88 524.16 765.73 533.07
00001854 00000089 462.02 142.75 402.50 548.35 601.69 353.17 774.78 357.11 702.61 493.64 594.45 524.77 761.47 531.45
00001855 00000090 461.73 142.63 400.84 544.89 598.02 352.47 771.94 356.39 697.45 492.87 591.74 523.48 759.39 529.96
00001856 00000091 458.76 142.10 402.42 545.93 593.43 351.24 770.37 355.11 693.10 490.69 586.99 523.42 757.24 530.04
00001857 00000092 456.47 137.25 401.97 549.47 591.24 352.43 768.98 355.10 691.27 489.87 585.13 523.87 755.58 529.50
00001858 00000093 456.97 134.48 400.29 551.73 590.99 352.31 767.66 353.97 690.58 489.15 584.57 522.16 756.31 526.88
00001859 00000094 456.76 134.46 400.69 551.40 590.34 353.35 767.65 354.27 690.21 489.42 584.44 521.87 757.96 525.92
00001860 00000095 457.69 136.76 399.19 548.95 589.91 355.22 766.58 356.58 688.51 490.35 582.65 521.58 757.34 526.00
00001861 00000096 458.14 135.02 398.96 551.97 590.76 356.22 767.15 356.93 689.70 490.15 582.60 520.77 759.61 524.43
00001862 00000097 459.13 132.08 399.40 559.63 592.91 357.84 767.85 357.06 692.44 492.40 584.96 521.80 763.03 523.87
00001863 00000098 459.34 130.86 399.20 564.30 595.49 359.03 768.17 357.69 695.80 493.56 585.80 521.96 764.42 523.60
00001864 00000099 461.33 131.41 397.54 566.30 596.69 359.56 768.30 360.63 694.92 495.44 584.31 520.37 765.20 524.02
00001865 00000100 461.44 133.17 396.13 566.53 596.61 362.43 768.17 365.13 693.91 498.36 581.83 521.62 763.46 526.64
00001866 00000101 462.21 137.72 395.39 563.22 597.05 364.04 768.38 367.00 693.90 502.32 580.98 522.41 763.46 527.87
00001867 00000102 462.30 145.24 395.58 557.62 597.67 367.65 770.17 368.60 696.94 506.83 582.68 525.12 767.70 529.00
00001868 00000103 464.05 144.53 394.84 561.13 599.88 372.59 771.81 372.29 700.73 508.76 585.14 528.10 771.05 530.94
00001869 00000104 464.10 145.64 394.86 559.23 599.56 375.37 773.01 376.45 700.28 512.92 584.34 530.04 769.96 533.91
00001870 00000105 462.00 150.76 396.76 555.04 598.36 376.02 772.51 377.81 698.74 514.64 583.86 531.76 767.12 536.35
00001871 00000106 466.95 147.46 393.55 559.36 601.73 380.42 776.43 379.99 704.97 519.12 587.28 535.31 773.59 538.11
00001872 00000107 469.20 152.62 393.39 558.87 611.00 384.38 786.05 382.87 719.90 520.15 596.91 542.09 779.95 544.00
00001873 00000108 472.28 150.49 392.33 562.41 614.81 387.04 789.00 383.44 725.37 523.60 600.05 542.39 786.02 542.46
00001874 00000109 472.93 156.23 390.97 558.24 613.40 387.28 789.59 386.27 722.77 524.77 597.32 544.23 783.51 546.50
00001875 00000110 471.66 154.35 391.41 561.07 611.72 388.68 788.51 389.52 719.17 526.82 592.65 544.57 779.25 548.50
00001876 00000111 471.46 158.29 392.97 560.25 613.56 389.65 790.23 391.90 720.98 529.43 593.61 546.33 779.06 551.27
00001877 00000112 471.38 167.78 396.98 553.12 619.27 387.38 793.22 391.66 724.27 531.13 600.32 547.69 781.02 553.16
00001878 00000113 471.53 164.31 399.34 559.27 621.49 383.12 795.22 389.36 728.26 524.22 604.61 548.54 784.15 555.24
00001879 00000114 473.50 149.30 400.26 578.28 627.66 380.03 792.04 385.83 730.47 517.54 611.18 545.94 784.72 551.71
00001880 00000115 473.09 152.02 403.88 573.12 633.97 379.69 796.44 382.14 736.95 515.91 622.31 549.32 787.09 552.12
00001881 00000116 475.48 151.82 401.03 572.02 635.94 387.56 799.68 386.10 741.89 524.00 629.37 559.19 788.18 558.99
00001882 00000117 474.85 159.44 399.68 565.38 633.74 396.29 800.82 394.69 740.68 531.47 626.44 565.54 788.83 565.63
00001883 00000118 474.91 172.44 398.70 552.31 631.84 394.74 803.81 393.69 740.33 534.36 624.16 568.16 788.20 569.58
00001884 00000119 472.21 166.28 398.98 553.47 630.51 394.40 801.08 392.97 739.37 529.68 624.55 567.83 783.65 568.93
00001885 00000120 472.91 166.12 396.43 554.13 633.23 392.06 799.31 391.96 738.54 529.58 625.09 564.05 782.83 565.92
00001886 00000121 470.36 160.01 398.82 566.45 631.75 388.68 796.96 391.05 736.18 527.53 621.07 561.23 781.86 564.71
00001887 00000122 471.16 160.71 397.56 567.44 631.41 386.27 796.42 390.64 735.01 526.65 618.96 559.77 781.13 564.83
00001888 00000123 474.63 167.96 395.52 560.66 635.06 385.68 795.83 389.08 734.54 526.02 614.88 552.91 781.46 557.61
00001889 00000124 475.75 168.31 393.69 560.18 636.69 385.58 795.78 390.38 734.22 525.70 614.95 551.00 781.24 556.88
00001890 00000125 474.17 164.74 396.87 563.38 636.42 386.70 796.26 389.69 735.24 524.79 616.32 550.73 782.36 555.05
00001891 00000126 475.97 167.41 395.69 557.27 638.97 386.57 798.01 386.37 738.16 526.38 619.83 551.44 783.80 553.23
00001892 00000127 470.36 150.74 402.35 570.89 636.79 387.41 801.02 381.74 745.67 521.90 626.74 555.54 788.25 552.35
00001893 00000128 470.03 143.83 405.56 577.61 638.87 384.97 802.27 381.18 748.48 519.95 632.59 555.26 791.45 552.97
00001894 00000129 475.54 151.25 399.81 568.77 644.41 388.16 806.44 381.38 753.60 516.96 636.85 557.79 792.32 553.97
00001895 00000130 478.74 150.64 397.27 569.67 651.10 390.70 808.33 384.41 758.80 517.37 643.20 558.78 792.67 555.42
00001896 00000131 478.05 151.58 397.65 570.05 644.89 389.78 802.92 385.22 749.92 516.85 636.59 555.92 790.29 553.68
00001897 00000132 472.00 156.50 398.93 569.86 638.66 386.78 794.50 388.20 738.92 518.17 625.01 555.04 778.34 557.80
00001898 00000133 470.81 159.69 399.63 568.78 637.17 390.78 794.78 391.48 738.44 522.75 623.42 558.73 779.10 560.95
00001899 00000134 474.86 168.53 398.95 564.02 639.42 393.64 799.59 393.35 743.39 528.23 625.31 558.88 789.21 560.43
00001900 00000135 479.31 172.10 395.09 560.27 639.02 396.61 804.02 393.75 745.84 532.88 624.64 562.93 792.88 562.89
00001901 00000136 476.39 182.26 397.76 549.55 632.19 394.71 802.64 395.61 737.31 534.43 617.86 563.57 787.55 567.08
00001902 00000137 479.24 195.41 399.28 536.11 632.46 397.57 803.59 400.04 735.39 534.49 617.20 564.47 786.55 570.14
00001903 00000138 485.90 187.12 394.87 547.60 636.47 408.07 807.43 404.83 743.03 536.34 622.13 569.39 794.02 570.35
00001904 00000139 484.03 193.74 398.05 542.55 634.81 405.32 807.67 403.84 741.27 537.69 619.48 569.03 793.15 571.53
00001905 00000140 483.53 192.45 397.09 544.20 631.22 403.09 802.97 405.79 732.93 539.15 613.58 568.62 786.10 574.54
00001906 00000141 484.03 190.60 396.44 545.15 633.53 409.40 804.30 409.05 736.67 540.56 616.42 570.86 787.64 574.48
00001907 00000142 489.33 192.38 391.72 538.62 641.87 410.26 810.74 408.13 746.30 541.19 622.52 569.06 793.13 571.66
00001908 00000143 490.56 199.45 391.04 524.24 644.04 411.76 812.50 407.94 748.60 545.14 626.96 567.87 794.25 569.34
00001909 00000144 487.49 207.11 392.85 515.79 640.63 406.29 809.73 405.89 742.19 546.86 624.81 568.90 787.41 573.05
00001910 00000145 484.73 207.32 394.42 521.69 638.04 408.21 808.64 405.63 741.29 549.01 625.27 577.25 785.88 579.24
00001911 00000146 486.01 204.64 394.39 527.24 639.80 412.48 810.50 409.23 744.60 548.19 627.67 579.05 788.72 580.30
00001912 00000147 487.73 209.12 392.98 528.92 643.37 410.94 811.59 409.65 747.00 548.13 627.60 579.46 790.87 582.13
CROP_BBOX: 223 0 1121 898
