Video ID: 	xxwZU0fRDLc
H: 	1080
W: 	1920
FPS: 	25.0

FRAME INDEX X0 Y0 W H [Landmarks (5 Points)]

00003789 00000000 866.72 176.60 473.66 644.38 1148.98 371.36 1296.55 372.11 1305.26 521.95 1146.06 632.92 1261.12 636.08
00003790 00000001 864.94 160.85 478.34 663.02 1157.74 365.66 1295.04 368.50 1311.81 512.92 1134.69 617.81 1252.70 624.19
00003791 00000002 865.52 146.89 477.04 666.02 1162.37 359.06 1293.94 358.52 1315.25 507.42 1139.22 610.90 1252.39 614.98
00003792 00000003 876.32 155.93 467.78 633.79 1160.12 356.19 1295.38 353.48 1315.73 500.87 1152.73 607.80 1261.73 608.77
00003793 00000004 879.31 154.20 467.55 630.05 1164.61 357.35 1296.10 349.08 1321.05 498.70 1162.36 607.76 1267.25 604.01
00003794 00000005 882.01 152.04 466.78 635.50 1169.10 357.53 1298.53 350.16 1324.77 498.50 1167.71 610.13 1270.20 607.26
00003795 00000006 881.85 161.05 471.47 641.23 1172.57 357.54 1299.72 353.44 1327.67 502.19 1164.25 610.21 1268.28 610.60
00003796 00000007 881.08 152.48 481.83 664.30 1178.91 360.21 1301.42 357.57 1333.28 505.29 1165.02 617.68 1264.75 619.99
00003797 DELETE   886.14 156.20 483.90 652.85 1181.27 363.97 1311.31 360.62 1337.79 510.55 1167.41 618.38 1272.81 620.08
00003798 00000009 878.59 160.53 486.00 633.55 1186.51 372.75 1305.53 358.64 1346.73 516.43 1173.05 624.57 1267.72 617.18
00003799 00000010 890.75 174.69 477.92 623.56 1191.82 375.01 1319.00 365.78 1343.40 515.70 1179.10 622.40 1278.34 618.01
00003800 00000011 890.99 168.59 480.93 648.01 1182.26 369.68 1312.90 367.63 1336.86 514.48 1169.70 624.15 1275.95 626.36
00003801 00000012 892.19 172.51 478.46 643.89 1181.60 371.90 1312.43 370.74 1335.45 515.20 1167.10 623.25 1274.69 626.11
00003802 00000013 892.43 173.03 478.03 641.36 1179.80 372.95 1312.98 371.10 1334.72 515.16 1167.58 624.15 1275.93 626.38
00003803 00000014 894.49 176.15 472.80 638.16 1180.14 374.09 1311.27 371.63 1334.53 515.88 1171.28 627.33 1276.77 629.01
00003804 00000015 896.00 174.25 469.13 633.38 1181.70 374.94 1311.79 372.54 1335.74 516.31 1176.14 627.88 1277.47 629.76
00003805 00000016 898.91 177.20 464.09 625.24 1182.04 377.78 1311.86 373.34 1335.43 518.46 1177.81 628.52 1278.51 628.84
00003806 00000017 897.88 176.16 464.19 628.89 1182.53 378.77 1311.04 372.85 1337.40 519.10 1180.70 631.31 1279.61 630.55
00003807 00000018 900.73 178.01 462.05 630.51 1181.90 380.91 1311.97 372.62 1337.43 522.21 1180.58 634.95 1280.77 632.53
00003808 00000019 898.54 180.10 463.61 630.14 1179.80 381.52 1310.95 373.26 1335.08 525.08 1179.09 637.36 1279.01 634.77
00003809 00000020 894.76 179.10 464.57 633.52 1177.52 382.68 1310.42 378.20 1332.55 526.54 1177.00 637.99 1277.14 638.19
00003810 00000021 893.38 180.49 462.92 632.67 1173.90 384.94 1308.57 384.26 1328.52 526.93 1174.90 637.81 1277.27 640.27
00003811 00000022 891.45 184.74 462.82 630.13 1170.12 384.49 1307.28 385.02 1324.61 528.05 1169.72 637.92 1274.16 641.29
00003812 00000023 888.73 187.36 463.39 628.35 1166.27 384.54 1306.27 385.50 1320.74 529.08 1167.11 639.18 1273.77 642.50
00003813 00000024 885.72 184.77 461.98 629.64 1163.83 385.72 1303.61 388.64 1317.59 530.10 1164.54 639.62 1270.13 644.47
00003814 00000025 884.58 188.33 461.02 626.50 1160.08 387.75 1302.53 388.51 1314.32 532.38 1160.91 641.70 1268.55 644.65
00003815 00000026 884.87 188.71 460.00 626.86 1158.06 388.98 1303.26 390.36 1312.10 533.24 1159.13 641.54 1269.51 644.76
00003816 00000027 885.26 189.37 457.83 626.54 1156.10 388.96 1302.34 390.53 1310.17 533.90 1157.29 641.69 1268.76 644.90
00003817 00000028 880.10 187.31 460.99 629.88 1155.32 389.20 1302.02 390.38 1309.86 535.17 1152.91 642.36 1266.03 645.35
00003818 00000029 875.69 184.29 463.22 633.94 1154.60 390.02 1299.92 390.89 1309.50 535.56 1150.93 643.35 1263.00 646.32
00003819 00000030 876.02 193.71 462.66 623.28 1151.10 388.27 1299.14 388.76 1306.68 534.25 1149.64 644.02 1262.94 646.58
00003820 00000031 868.99 190.62 469.70 635.52 1146.35 388.10 1295.38 387.09 1302.11 533.30 1147.67 646.42 1262.79 647.49
00003821 00000032 863.46 181.25 472.63 645.68 1144.88 385.48 1291.19 383.51 1298.50 531.04 1145.33 645.53 1257.42 645.77
00003822 00000033 855.88 180.04 478.27 652.00 1140.67 385.77 1284.39 380.18 1295.45 531.09 1142.12 649.19 1251.88 646.42
00003823 00000034 848.84 177.77 481.53 654.49 1136.77 386.17 1279.24 378.98 1292.31 530.55 1135.09 648.96 1245.73 644.91
00003824 00000035 843.87 176.68 484.14 655.72 1136.58 386.84 1275.65 378.44 1290.73 532.77 1128.58 647.16 1238.33 642.28
00003825 00000036 841.67 179.03 483.34 652.63 1133.24 389.94 1271.29 379.86 1286.99 533.56 1123.80 645.77 1235.02 639.46
00003826 00000037 837.90 176.29 483.59 655.00 1132.41 391.89 1267.75 382.28 1286.58 536.25 1119.42 646.97 1228.15 641.17
00003827 00000038 838.49 169.63 482.19 664.33 1132.41 394.78 1265.44 385.28 1285.25 538.01 1116.22 646.99 1224.92 641.44
00003828 00000039 838.53 159.63 481.91 674.70 1136.13 395.88 1264.18 385.81 1287.68 540.09 1115.36 646.67 1220.79 641.17
00003829 00000040 838.02 179.06 482.85 656.68 1136.60 398.10 1261.66 388.45 1287.29 544.45 1112.40 647.45 1216.52 642.44
00003830 00000041 837.65 183.77 484.33 651.92 1138.54 401.04 1262.75 392.10 1289.18 548.70 1109.76 648.72 1213.37 644.60
00003831 00000042 837.37 180.70 486.18 656.77 1141.24 404.47 1262.49 394.90 1291.30 552.02 1108.82 649.46 1210.47 645.28
00003832 00000043 837.90 185.80 487.80 652.48 1138.37 406.89 1264.25 396.41 1289.63 554.97 1106.63 651.54 1211.89 646.53
00003833 00000044 835.72 187.12 488.82 651.36 1134.73 407.89 1264.16 396.71 1287.17 555.92 1103.15 653.20 1209.76 647.29
00003834 00000045 836.33 191.47 486.46 646.81 1132.82 409.25 1263.17 399.61 1283.84 559.26 1099.16 653.35 1207.78 648.73
00003835 00000046 834.26 189.68 485.30 647.73 1131.18 409.85 1261.99 400.10 1281.20 561.32 1096.41 653.73 1205.20 648.98
00003836 00000047 830.75 186.58 486.42 650.70 1130.87 411.20 1258.71 400.57 1280.82 562.74 1096.20 655.63 1200.61 650.15
00003837 00000048 829.02 192.76 485.63 643.71 1128.21 412.89 1255.88 401.03 1277.98 563.61 1094.80 656.61 1198.25 650.07
00003838 00000049 828.10 193.10 485.13 641.73 1126.13 411.73 1255.49 400.02 1276.31 562.92 1095.51 657.51 1198.55 650.83
00003839 00000050 826.83 189.96 483.10 642.15 1124.18 409.97 1254.02 399.59 1274.56 561.25 1094.82 657.98 1196.52 652.13
00003840 00000051 825.70 185.55 481.14 645.66 1121.98 410.61 1253.33 399.43 1271.78 560.71 1095.14 659.67 1197.04 652.81
00003841 00000052 823.47 171.21 479.75 660.23 1122.02 410.24 1252.49 398.35 1271.33 559.54 1094.45 659.36 1195.10 651.86
00003842 00000053 821.45 170.23 478.47 659.13 1118.20 410.68 1251.81 399.48 1268.19 559.01 1093.88 659.34 1196.10 652.10
00003843 00000054 820.93 181.43 474.93 646.24 1114.12 410.85 1250.74 398.96 1266.05 560.35 1092.93 660.26 1196.59 652.33
00003844 00000055 819.73 178.00 475.91 649.18 1110.56 411.32 1252.07 397.02 1264.04 560.03 1092.67 660.70 1199.37 650.59
00003845 00000056 825.87 184.24 470.23 640.72 1102.22 412.65 1252.15 399.10 1260.58 559.65 1083.96 652.44 1209.86 644.93
00003846 00000057 823.51 176.43 472.43 650.32 1102.10 409.57 1252.82 398.38 1260.99 555.95 1085.14 651.91 1210.89 646.39
00003847 00000058 823.00 172.87 473.33 653.94 1102.09 407.59 1254.20 396.69 1262.26 553.38 1090.55 653.96 1214.85 648.17
00003848 00000059 822.40 170.20 470.98 663.12 1103.79 402.40 1249.89 394.89 1262.44 547.99 1100.39 660.98 1214.50 657.86
00003849 00000060 821.47 179.43 468.18 652.26 1100.71 402.37 1244.87 395.11 1259.03 547.93 1097.74 659.80 1209.51 656.51
00003850 00000061 821.11 177.58 466.95 652.24 1099.85 400.70 1247.07 394.70 1259.83 548.63 1095.73 657.94 1209.94 655.62
00003851 00000062 822.03 179.90 468.11 647.87 1100.27 402.87 1248.37 397.32 1259.05 548.21 1094.10 653.98 1211.49 651.75
00003852 00000063 819.96 182.02 471.92 646.25 1096.09 402.86 1248.17 395.80 1256.22 548.26 1089.17 652.95 1210.84 649.52
00003853 00000064 815.31 173.09 477.90 656.52 1097.43 400.96 1247.60 393.47 1256.36 548.16 1085.71 651.85 1205.92 648.39
00003854 00000065 818.50 177.03 475.78 653.25 1098.14 402.62 1248.48 395.11 1256.02 550.25 1085.53 652.05 1207.44 648.68
00003855 00000066 820.85 171.05 474.42 656.79 1100.99 403.79 1251.26 396.58 1257.64 550.41 1088.21 652.37 1209.54 649.51
00003856 00000067 821.31 175.80 473.69 651.36 1100.48 404.93 1250.60 396.99 1257.27 550.93 1088.25 651.96 1209.97 648.39
00003857 00000068 813.53 171.25 480.67 657.28 1106.22 401.98 1255.88 395.19 1261.07 554.30 1095.20 658.40 1203.52 653.44
00003858 00000069 819.72 169.72 474.39 658.49 1098.53 400.84 1251.02 395.66 1255.97 549.47 1085.86 650.18 1209.95 648.83
00003859 00000070 811.46 143.50 480.77 684.60 1097.53 396.81 1253.78 392.81 1257.22 549.22 1083.22 650.63 1208.15 650.83
00003860 00000071 809.60 150.76 478.07 678.53 1090.42 395.96 1253.56 392.82 1250.75 550.67 1077.15 651.65 1207.41 652.03
00003861 00000072 808.33 159.20 477.43 670.52 1086.07 397.25 1251.68 393.78 1245.82 553.41 1072.19 651.71 1205.85 651.73
00003862 00000073 809.20 150.17 478.02 681.45 1089.27 398.81 1253.57 395.88 1248.66 555.22 1073.38 653.00 1206.60 653.68
00003863 00000074 812.09 162.92 478.09 670.32 1089.59 402.77 1253.39 398.43 1249.09 557.42 1071.87 654.23 1207.64 653.77
00003864 00000075 816.10 176.13 474.63 656.92 1088.51 403.96 1253.07 399.25 1247.90 558.69 1072.07 655.00 1208.96 654.10
00003865 00000076 814.30 173.66 477.01 659.13 1086.90 403.88 1253.44 399.03 1246.55 559.78 1068.96 654.94 1207.96 654.03
00003866 00000077 810.76 165.98 478.20 666.04 1086.26 402.06 1253.25 397.85 1246.09 559.46 1067.69 654.02 1206.20 653.87
00003867 00000078 808.74 165.03 480.05 665.63 1085.23 401.40 1253.21 396.70 1246.22 559.94 1066.57 654.09 1204.88 653.62
00003868 00000079 808.07 162.29 480.34 667.74 1085.16 401.02 1252.56 395.67 1246.28 559.44 1066.88 653.05 1204.44 652.14
00003869 00000080 808.38 161.12 480.86 667.56 1085.54 401.10 1253.08 395.58 1246.53 559.21 1067.05 652.53 1204.91 651.45
00003870 00000081 808.35 157.22 483.02 671.49 1086.51 400.94 1254.24 395.39 1247.79 559.34 1067.41 652.44 1205.46 651.38
00003871 00000082 810.04 160.12 483.12 667.78 1086.34 401.16 1255.01 395.08 1247.04 558.81 1067.85 652.52 1206.65 650.98
00003872 00000083 818.64 184.11 473.33 641.85 1087.32 410.95 1254.06 407.32 1244.81 563.07 1070.61 653.22 1208.74 652.76
00003873 00000084 807.21 160.80 483.16 660.38 1091.40 417.13 1245.92 402.12 1250.85 566.67 1082.50 664.11 1200.39 656.46
00003874 00000085 812.68 178.68 479.74 648.54 1095.89 415.38 1259.19 413.93 1249.63 565.01 1078.88 663.48 1203.96 662.82
00003875 00000086 812.31 182.98 480.32 644.96 1095.00 417.14 1259.39 413.96 1249.45 567.55 1076.40 664.49 1203.66 662.53
00003876 00000087 815.52 185.14 476.76 640.84 1094.63 417.49 1257.24 415.74 1245.43 567.32 1077.13 664.04 1201.49 663.28
00003877 00000088 811.73 166.76 479.41 653.61 1086.87 421.77 1245.01 406.29 1243.81 569.24 1078.83 664.40 1199.65 656.65
00003878 00000089 811.54 169.67 479.30 649.79 1086.12 421.84 1244.99 405.67 1243.60 568.95 1078.82 664.05 1200.30 655.81
00003879 00000090 811.77 169.86 479.56 648.16 1086.35 421.66 1246.64 405.47 1243.76 568.81 1077.92 662.49 1200.31 654.18
00003880 00000091 812.02 166.19 480.89 655.21 1088.39 420.78 1246.52 407.99 1243.98 568.81 1075.72 661.40 1199.19 655.69
00003881 00000092 809.02 166.18 489.67 664.73 1089.46 418.59 1246.64 407.26 1247.19 569.03 1069.02 661.01 1198.94 656.95
00003882 00000093 812.04 181.76 486.15 651.39 1095.68 414.93 1257.82 415.59 1246.63 568.44 1058.69 656.05 1196.60 658.08
00003883 00000094 817.66 183.64 482.94 639.94 1095.35 410.43 1263.03 406.26 1248.23 560.39 1070.86 652.35 1205.23 650.46
00003884 00000095 825.15 176.30 475.70 641.01 1096.46 404.91 1264.29 398.61 1250.09 550.40 1079.54 645.17 1212.62 641.24
00003885 00000096 829.80 184.81 470.93 624.24 1099.42 395.38 1262.40 389.99 1251.57 542.01 1084.94 637.51 1212.74 634.49
00003886 00000097 834.06 174.49 465.69 629.40 1104.39 390.52 1264.56 383.15 1257.11 535.10 1093.33 631.59 1219.60 627.16
00003887 00000098 837.75 167.87 463.36 638.02 1109.36 385.06 1265.64 377.97 1262.25 530.09 1099.18 630.38 1222.04 626.28
00003888 00000099 839.34 164.32 464.53 643.12 1111.82 382.24 1265.64 373.62 1264.96 528.07 1096.73 628.21 1220.74 623.48
00003889 00000100 837.49 167.06 468.87 645.64 1112.90 379.19 1261.93 371.63 1266.37 526.29 1091.51 626.07 1216.70 622.57
00003890 00000101 838.47 173.71 475.18 648.02 1112.70 378.50 1260.92 370.61 1266.11 525.33 1088.71 626.41 1218.95 622.49
00003891 00000102 836.31 177.12 481.19 647.87 1114.44 378.83 1262.50 369.70 1269.23 525.45 1089.01 626.75 1221.37 621.83
00003892 00000103 841.20 182.67 478.55 642.31 1116.69 379.36 1266.10 369.85 1270.93 528.57 1092.44 629.75 1224.34 624.47
00003893 00000104 843.27 179.45 475.95 641.42 1122.23 385.99 1270.75 375.20 1277.54 534.61 1102.68 634.02 1228.42 627.96
00003894 00000105 850.02 171.22 471.87 647.32 1123.21 390.59 1278.52 375.01 1280.81 537.87 1110.07 639.22 1238.19 629.17
00003895 00000106 853.96 172.55 469.91 646.57 1125.61 391.14 1281.01 374.93 1283.06 538.55 1112.46 639.01 1240.90 628.69
00003896 00000107 854.57 171.69 472.15 646.68 1126.36 389.17 1284.17 374.81 1283.32 537.01 1112.92 636.49 1243.67 627.75
00003897 00000108 854.82 174.67 472.53 640.76 1127.13 385.64 1284.29 372.43 1282.96 533.57 1113.01 632.31 1243.92 624.43
00003898 00000109 854.39 171.85 473.11 638.81 1128.70 380.39 1284.65 368.06 1283.35 529.47 1111.20 627.13 1241.30 620.45
00003899 00000110 853.59 173.40 473.38 635.68 1128.59 377.38 1283.71 366.60 1283.04 525.11 1108.64 622.69 1238.99 617.59
00003900 00000111 853.21 183.88 474.30 624.72 1126.59 375.20 1282.53 364.88 1282.07 522.69 1105.86 619.57 1238.69 615.06
00003901 00000112 852.89 182.25 474.54 627.06 1128.52 372.65 1283.06 365.62 1283.34 522.05 1105.22 618.08 1237.57 616.39
00003902 00000113 853.06 179.52 477.45 633.48 1133.74 372.31 1287.40 367.69 1288.76 523.10 1108.05 618.15 1241.06 618.44
00003903 00000114 859.35 184.45 477.44 633.35 1137.38 373.82 1293.88 367.99 1294.28 527.24 1109.93 619.89 1249.13 619.20
00003904 00000115 871.19 182.66 473.59 637.30 1144.28 377.48 1302.92 373.11 1298.33 534.05 1111.82 621.03 1256.05 621.43
00003905 00000116 872.90 191.13 473.55 628.77 1144.73 379.94 1304.41 376.49 1299.85 536.05 1114.32 623.49 1259.10 624.42
00003906 00000117 873.03 195.05 474.08 625.40 1142.60 381.03 1304.84 377.25 1298.18 537.42 1114.28 624.63 1261.11 624.97
00003907 00000118 870.35 179.81 475.46 642.87 1142.84 379.54 1304.81 375.56 1296.77 535.70 1112.69 623.86 1259.26 624.21
00003908 00000119 867.90 175.20 478.93 647.63 1141.29 376.98 1303.92 369.90 1297.20 532.77 1112.68 622.68 1260.02 620.60
00003909 00000120 874.82 180.32 473.40 641.59 1142.39 376.40 1307.34 371.53 1298.48 532.70 1115.78 623.51 1264.47 623.11
00003910 00000121 880.11 184.02 470.19 638.59 1144.55 379.10 1309.50 375.44 1299.96 534.48 1116.81 623.44 1268.44 623.70
00003911 00000122 880.60 183.11 471.36 643.62 1146.82 381.97 1311.03 378.11 1303.26 537.04 1120.47 626.39 1271.48 626.42
00003912 00000123 882.68 184.87 470.70 640.75 1145.75 385.49 1311.59 381.04 1302.90 539.08 1121.85 628.13 1274.31 627.68
00003913 00000124 881.57 180.12 470.82 645.43 1146.48 386.05 1311.71 382.31 1303.36 539.45 1122.64 628.15 1274.09 628.26
00003914 00000125 883.28 180.77 467.37 642.59 1144.02 386.54 1311.45 381.42 1301.87 539.78 1121.84 628.60 1275.04 627.70
00003915 00000126 880.51 183.69 469.82 639.07 1137.55 386.09 1311.25 379.40 1297.04 540.54 1117.99 630.23 1274.76 627.82
CROP_BBOX: 534 0 1566 1000
