Video ID: 	BNIR2Ka7dR0
H: 	1080
W: 	1920
FPS: 	23.976023976023978

FRAME INDEX X0 Y0 W H [Landmarks (5 Points)]

00009880 00000000 1022.59 122.40 422.46 583.16 1056.40 350.78 1170.97 297.49 1039.83 414.79 1101.83 556.93 1193.07 511.28
00009881 00000001 1013.03 120.51 427.09 593.73 1039.19 366.89 1165.57 305.62 1037.13 427.19 1098.53 572.80 1193.91 521.01
00009882 00000002 1012.99 115.76 433.38 599.01 1037.53 371.47 1161.70 314.39 1035.89 433.94 1087.26 567.83 1193.91 519.17
00009883 00000003 1009.45 108.46 435.05 596.24 1033.85 359.24 1172.28 306.37 1033.83 424.49 1082.45 560.85 1191.47 517.01
00009884 00000004 1020.07 105.81 436.08 588.48 1046.79 346.14 1186.13 300.31 1044.28 409.93 1085.44 546.76 1193.54 509.08
00009885 00000005 1032.08 102.56 443.28 586.78 1069.28 332.62 1204.56 299.29 1053.56 406.61 1091.70 538.00 1198.29 512.15
00009886 DELETE   1057.49 101.08 431.53 577.91 1086.60 327.49 1224.65 298.23 1082.55 394.32 1107.84 528.98 1214.70 505.13
00009887 DELETE   1073.93 88.80 444.34 602.07 1106.40 322.55 1247.01 297.07 1104.96 393.19 1128.73 531.11 1237.47 509.68
00009888 00000008 1088.63 103.47 447.28 590.11 1120.26 323.86 1270.55 300.15 1123.81 396.30 1139.71 534.94 1256.86 514.11
00009889 00000009 1091.39 100.45 445.21 598.86 1135.02 318.04 1290.52 301.13 1128.96 397.53 1146.53 535.38 1263.05 521.49
00009890 00000010 1092.61 99.21 445.45 600.73 1136.48 318.33 1294.20 305.63 1132.21 402.25 1148.04 538.25 1262.22 527.84
00009891 00000011 1092.58 93.18 445.28 609.54 1134.45 317.96 1290.47 310.12 1124.60 407.63 1141.00 543.16 1257.34 537.77
00009892 00000012 1092.67 93.55 443.70 608.13 1123.59 320.95 1280.31 312.40 1127.21 410.47 1132.31 543.71 1248.52 536.02
00009893 00000013 1086.46 99.16 437.61 598.02 1122.41 316.99 1272.64 309.65 1122.13 404.65 1126.37 539.54 1232.86 533.12
00009894 00000014 1081.84 92.29 442.45 600.31 1122.46 312.81 1269.17 305.93 1116.60 394.27 1126.96 529.13 1236.12 523.06
00009895 00000015 1080.38 94.81 446.14 589.37 1118.23 311.99 1268.94 304.43 1115.27 390.56 1124.51 522.67 1241.16 515.94
00009896 00000016 1081.86 99.20 444.92 576.06 1118.25 310.80 1268.90 302.10 1118.13 387.31 1124.40 517.17 1241.74 509.51
00009897 00000017 1085.63 101.64 446.23 571.10 1120.36 314.38 1269.60 303.06 1120.53 388.46 1128.24 518.54 1243.68 508.44
00009898 00000018 1086.48 96.59 445.24 575.66 1122.08 318.24 1269.27 305.09 1121.73 389.67 1131.69 519.32 1245.81 507.83
00009899 00000019 1080.09 87.40 446.51 586.76 1116.75 315.77 1277.52 303.16 1112.25 389.45 1128.75 517.21 1249.86 506.09
00009900 00000020 1087.88 83.79 446.60 586.88 1120.02 322.20 1268.19 305.59 1119.94 389.57 1132.41 519.39 1246.31 505.64
00009901 00000021 1084.77 83.32 445.08 585.90 1116.20 316.65 1264.11 300.29 1115.96 386.85 1127.57 515.42 1244.62 502.08
00009902 00000022 1082.24 90.02 444.66 578.53 1113.47 313.57 1260.87 297.51 1111.86 382.74 1123.63 513.31 1241.37 499.89
00009903 00000023 1079.42 91.96 448.01 578.71 1113.51 313.68 1256.49 295.94 1107.21 379.98 1124.33 514.73 1236.50 499.77
00009904 00000024 1078.88 90.64 448.43 585.23 1113.88 313.95 1257.76 295.51 1108.31 381.37 1126.21 515.75 1239.44 500.20
00009905 00000025 1079.33 91.20 448.28 589.34 1114.06 313.63 1258.81 295.35 1109.85 383.34 1127.52 517.65 1242.48 502.03
00009906 00000026 1080.37 93.17 447.78 586.36 1114.77 313.06 1260.01 295.16 1110.63 383.80 1128.29 517.87 1243.92 502.51
00009907 00000027 1081.41 93.97 445.51 585.15 1115.22 312.97 1260.34 295.23 1111.65 384.07 1129.62 516.62 1246.30 501.28
00009908 00000028 1082.76 93.56 443.48 586.44 1115.64 312.53 1260.59 294.55 1112.65 383.58 1130.98 516.77 1247.28 501.17
00009909 00000029 1082.75 94.16 443.38 588.23 1115.61 312.20 1260.84 294.23 1112.33 383.61 1130.83 517.38 1247.28 501.70
00009910 00000030 1083.46 96.69 443.15 593.10 1118.21 311.53 1260.32 293.43 1111.23 385.03 1133.09 519.33 1248.05 503.26
00009911 00000031 1083.92 91.34 441.58 599.08 1120.55 311.51 1255.17 293.52 1108.42 386.67 1134.11 521.53 1244.28 505.70
00009912 00000032 1085.39 90.58 440.44 601.81 1123.52 309.20 1252.26 295.87 1104.74 390.35 1136.67 521.97 1241.23 509.69
00009913 00000033 1086.45 88.75 436.32 603.51 1127.66 311.74 1248.10 300.71 1101.59 392.56 1140.63 523.45 1236.63 512.74
00009914 00000034 1086.99 87.06 431.10 605.52 1130.56 309.88 1245.17 302.22 1098.36 392.52 1140.91 522.81 1233.42 514.68
00009915 00000035 1084.80 86.60 430.60 606.79 1129.93 305.66 1241.16 302.45 1095.13 392.25 1138.33 519.72 1229.82 515.06
00009916 00000036 1078.12 94.08 427.22 599.60 1134.70 293.81 1242.08 294.74 1086.72 387.10 1136.72 514.47 1223.51 513.65
00009917 00000037 1076.65 93.56 427.17 600.35 1132.77 293.42 1239.68 294.82 1083.83 387.51 1134.60 514.23 1221.77 513.71
00009918 00000038 1075.21 93.92 428.00 599.95 1130.83 293.36 1238.04 295.65 1081.60 388.92 1132.71 514.41 1219.77 514.68
00009919 00000039 1079.90 90.82 427.27 608.40 1125.56 303.79 1233.05 303.96 1087.77 396.09 1133.15 520.70 1225.06 518.70
00009920 00000040 1079.10 91.39 423.26 611.83 1124.24 302.14 1232.18 304.49 1088.72 397.12 1133.62 521.13 1224.85 520.88
00009921 00000041 1078.38 91.13 422.89 616.83 1125.32 306.36 1229.99 303.25 1088.12 396.88 1134.15 527.38 1221.96 522.76
00009922 00000042 1071.26 95.02 424.17 612.71 1127.76 297.24 1230.56 294.66 1076.72 392.36 1133.24 526.24 1216.76 521.53
00009923 00000043 1068.17 94.56 425.38 614.14 1125.11 297.22 1228.74 295.00 1073.64 393.43 1130.95 525.12 1217.23 520.49
00009924 00000044 1063.93 90.58 427.65 609.40 1120.88 297.41 1227.25 297.65 1071.18 393.64 1122.62 521.34 1209.18 519.59
00009925 00000045 1060.61 86.96 426.75 600.26 1111.81 300.31 1223.60 299.60 1066.09 394.73 1111.43 520.08 1202.76 518.47
00009926 00000046 1063.53 85.99 414.68 592.97 1105.30 309.13 1219.09 304.74 1067.49 399.03 1104.96 524.74 1194.71 520.35
00009927 00000047 1051.37 90.28 427.81 595.19 1102.05 310.60 1217.92 300.90 1050.87 397.98 1093.13 531.48 1185.19 523.27
00009928 00000048 1048.50 88.87 431.64 599.37 1106.13 311.70 1215.31 301.63 1050.49 398.29 1095.39 532.63 1181.95 523.55
00009929 00000049 1045.99 95.29 428.68 596.36 1110.01 307.94 1212.14 300.58 1049.67 397.96 1097.20 530.55 1178.53 522.76
00009930 00000050 1044.12 94.37 430.80 599.38 1111.31 302.03 1209.12 298.26 1049.98 397.46 1105.01 526.36 1183.01 520.60
00009931 00000051 1044.44 95.99 429.54 605.56 1111.62 302.96 1210.46 297.48 1053.37 398.53 1110.08 530.82 1188.29 523.35
00009932 00000052 1045.84 98.14 432.47 603.92 1112.21 303.09 1211.53 296.65 1055.20 398.12 1113.98 530.13 1192.16 521.84
00009933 00000053 1051.42 95.01 430.76 594.51 1111.57 305.18 1213.79 298.43 1057.00 396.79 1110.85 523.54 1195.82 515.81
00009934 00000054 1056.34 85.28 427.28 599.09 1104.56 307.32 1218.10 300.84 1062.14 395.90 1108.74 520.64 1203.91 514.43
00009935 DELETE   1064.61 81.53 425.64 591.65 1102.10 308.92 1235.49 299.06 1073.90 387.91 1103.16 515.78 1211.17 507.23
00009936 DELETE   1070.33 87.32 433.57 582.85 1110.38 307.53 1252.99 294.35 1092.94 381.79 1109.38 514.35 1217.73 504.26
00009937 00000057 1080.14 88.03 433.85 580.40 1114.83 314.36 1254.41 293.10 1107.79 377.12 1119.56 519.24 1220.38 502.68
00009938 00000058 1079.55 90.43 435.11 574.76 1117.48 312.00 1258.91 290.59 1110.41 372.90 1116.97 517.00 1218.39 500.65
00009939 00000059 1079.21 91.84 437.85 568.81 1119.37 307.88 1262.68 289.65 1112.67 369.91 1116.35 511.75 1220.78 498.18
00009940 00000060 1073.24 88.36 453.27 575.47 1117.83 299.56 1265.70 289.45 1114.79 372.99 1110.12 505.79 1214.98 497.71
00009941 00000061 1074.53 92.64 442.45 556.50 1118.77 303.68 1266.84 283.25 1114.76 356.79 1108.62 500.04 1217.31 485.36
00009942 00000062 1069.82 76.78 450.90 584.07 1116.95 292.74 1270.38 273.36 1117.42 354.43 1111.00 500.43 1217.78 485.52
00009943 00000063 1069.45 71.40 451.38 584.27 1117.89 289.08 1272.93 269.84 1119.28 349.04 1111.26 495.41 1220.80 480.58
00009944 00000064 1069.90 71.37 450.21 572.97 1114.86 289.54 1272.21 271.25 1118.40 348.98 1106.74 492.69 1215.85 478.67
00009945 00000065 1071.51 84.21 444.33 557.09 1116.85 294.39 1266.51 275.08 1118.45 348.80 1108.77 490.80 1220.44 477.55
00009946 00000066 1071.86 84.76 442.83 557.01 1113.49 298.92 1264.67 277.81 1118.23 352.65 1108.64 494.85 1220.23 480.05
00009947 00000067 1071.71 81.11 452.91 578.77 1110.04 300.36 1267.29 277.83 1115.35 361.15 1105.46 506.18 1218.38 488.62
00009948 00000068 1075.07 90.04 442.72 576.65 1110.78 305.26 1264.24 279.87 1113.96 361.42 1112.95 514.99 1226.27 495.59
00009949 00000069 1078.95 93.35 441.34 570.25 1106.23 305.07 1260.65 284.55 1108.13 369.97 1112.40 517.17 1230.33 500.99
00009950 00000070 1079.37 92.10 443.20 574.97 1105.14 306.16 1260.72 284.35 1106.40 371.06 1113.02 517.12 1233.30 499.56
00009951 00000071 1078.43 94.34 444.49 582.17 1108.75 306.78 1261.38 287.01 1107.96 377.48 1119.82 518.91 1239.07 502.52
00009952 00000072 1075.34 103.42 449.06 610.32 1121.72 306.04 1270.13 281.45 1111.25 387.55 1140.91 532.26 1261.36 511.28
00009953 00000073 1075.29 103.86 450.36 611.57 1122.11 304.92 1272.45 281.16 1113.92 385.53 1141.97 529.78 1267.22 509.41
00009954 00000074 1084.33 99.62 447.85 609.60 1121.57 306.00 1270.06 284.61 1118.78 378.07 1139.31 525.07 1267.29 506.03
00009955 00000075 1089.78 99.82 443.26 602.73 1129.54 302.98 1275.49 285.36 1125.84 375.11 1139.35 524.53 1257.03 509.03
00009956 00000076 1096.47 94.17 436.06 596.33 1134.41 304.77 1277.76 285.69 1127.89 375.85 1136.43 526.90 1243.40 510.44
00009957 00000077 1091.30 100.42 440.27 590.35 1144.13 300.00 1287.80 286.04 1120.64 382.94 1131.87 531.58 1238.83 522.26
00009958 00000078 1089.06 99.00 438.52 587.35 1137.28 303.96 1282.79 291.74 1117.73 389.12 1128.63 532.26 1236.12 524.20
00009959 00000079 1090.18 86.93 433.07 585.63 1115.02 313.54 1263.76 298.68 1118.79 389.35 1122.34 528.78 1227.68 517.11
00009960 00000080 1079.24 95.58 434.76 582.10 1108.14 321.83 1254.91 304.84 1110.52 395.60 1116.29 532.74 1221.81 519.02
00009961 00000081 1065.65 96.17 437.03 586.82 1094.27 333.09 1243.58 312.15 1098.19 408.02 1108.73 543.66 1214.52 527.13
00009962 00000082 1057.72 98.81 435.97 594.98 1085.65 335.97 1240.30 318.93 1092.29 418.40 1102.24 552.48 1211.51 539.16
00009963 00000083 1051.37 104.03 437.64 598.85 1084.41 333.91 1235.07 324.98 1090.01 426.64 1102.48 551.26 1211.48 544.47
00009964 00000084 1050.69 105.73 438.40 596.58 1084.02 334.99 1235.27 325.05 1090.73 427.54 1102.38 552.38 1210.77 544.74
00009965 00000085 1053.23 102.79 441.16 597.85 1085.97 335.35 1239.26 321.66 1093.50 423.84 1104.84 553.81 1214.36 543.11
00009966 00000086 1062.86 99.98 438.97 600.26 1091.27 337.29 1244.41 318.61 1097.23 418.28 1108.66 555.76 1219.51 540.80
00009967 00000087 1065.96 97.83 442.01 602.42 1094.84 337.56 1249.39 315.89 1102.22 416.07 1112.28 556.16 1224.61 538.89
00009968 00000088 1070.47 99.54 440.46 596.72 1099.67 335.99 1253.27 314.23 1109.50 413.94 1116.38 552.73 1225.51 535.38
00009969 00000089 1073.19 99.34 439.35 595.37 1102.35 333.68 1255.38 312.60 1111.59 411.56 1118.08 550.55 1226.01 533.67
00009970 00000090 1073.35 101.03 439.37 593.52 1103.36 333.24 1254.85 311.89 1111.36 410.01 1118.81 549.62 1225.52 532.37
00009971 00000091 1072.70 99.48 439.01 594.05 1103.26 331.10 1253.67 310.37 1108.84 407.34 1117.75 547.79 1224.42 530.91
00009972 00000092 1072.99 99.78 436.66 591.09 1101.70 331.08 1251.26 309.75 1106.51 406.32 1115.34 547.58 1221.12 530.25
00009973 00000093 1069.92 100.10 438.75 587.10 1100.10 331.52 1249.33 309.75 1103.20 405.88 1113.43 544.18 1222.46 526.62
00009974 00000094 1068.79 97.90 437.91 590.04 1098.28 333.14 1246.91 311.23 1100.36 407.12 1110.89 545.95 1219.52 528.51
00009975 00000095 1071.74 97.29 435.48 595.35 1098.08 333.69 1245.34 313.30 1098.84 411.78 1111.21 551.51 1216.64 535.18
00009976 00000096 1073.38 99.20 431.07 594.31 1095.71 334.16 1241.72 320.58 1095.10 419.54 1106.04 552.66 1209.55 542.10
00009977 00000097 1073.14 91.65 425.32 604.96 1095.18 329.81 1236.78 325.73 1089.73 423.12 1099.98 552.13 1196.29 550.08
00009978 00000098 1071.76 91.20 424.23 608.69 1096.35 325.89 1229.86 326.27 1080.52 422.70 1091.68 552.80 1181.20 553.96
00009979 00000099 1059.81 93.74 428.75 616.64 1104.19 322.89 1238.47 321.50 1073.78 421.56 1091.02 557.70 1182.65 557.81
00009980 00000100 1057.75 91.92 427.75 620.67 1104.90 323.78 1232.04 322.39 1066.18 421.37 1090.39 558.65 1177.80 558.43
00009981 00000101 1055.66 90.08 429.10 622.49 1104.34 323.65 1228.49 321.25 1061.33 420.03 1090.75 557.28 1179.50 555.46
00009982 00000102 1052.73 89.30 431.27 617.92 1098.25 320.13 1226.98 317.39 1057.71 417.68 1086.84 552.62 1180.92 550.62
00009983 00000103 1050.55 86.63 435.50 614.41 1090.77 321.61 1231.07 314.13 1059.45 411.52 1083.16 550.57 1185.71 545.39
00009984 00000104 1053.15 91.32 437.48 607.39 1090.17 323.71 1235.62 309.97 1066.02 405.32 1089.15 546.68 1197.26 536.92
00009985 00000105 1058.91 95.47 432.55 592.70 1084.43 325.59 1236.13 306.61 1082.88 403.57 1098.47 544.77 1209.82 529.73
00009986 00000106 1056.67 97.77 441.94 606.75 1090.84 329.52 1237.76 302.96 1090.62 400.51 1112.74 548.86 1225.38 527.17
00009987 00000107 1059.14 97.17 443.90 614.26 1092.27 330.11 1237.78 300.84 1093.26 400.74 1117.43 551.23 1231.51 527.15
00009988 00000108 1059.58 97.88 440.13 603.62 1093.03 328.96 1238.08 301.59 1093.85 400.52 1114.89 548.59 1224.45 526.29
00009989 00000109 1059.97 94.54 438.23 597.40 1089.61 328.90 1237.63 302.03 1092.43 400.31 1108.69 547.91 1216.01 526.47
00009990 00000110 1060.98 94.68 435.02 590.51 1085.81 330.20 1235.89 303.48 1088.89 401.46 1103.69 547.17 1213.24 525.90
00009991 00000111 1060.33 93.65 432.70 584.51 1083.02 330.97 1233.62 305.09 1086.80 402.22 1099.91 545.99 1207.16 525.62
00009992 00000112 1052.74 92.32 439.74 596.49 1082.02 326.54 1238.71 306.91 1073.19 407.34 1089.86 545.71 1203.03 532.13
00009993 00000113 1049.52 91.87 435.84 603.92 1083.84 331.68 1230.53 313.84 1067.58 414.97 1090.40 552.18 1196.24 539.29
00009994 00000114 1041.84 87.90 434.76 615.47 1084.72 328.42 1219.58 319.19 1052.62 420.14 1082.29 555.60 1180.91 548.55
00009995 00000115 1034.74 93.08 430.83 614.89 1080.98 326.32 1208.49 321.07 1040.31 427.21 1075.84 555.99 1171.81 551.08
00009996 00000116 1030.55 96.95 431.67 611.32 1076.11 329.07 1205.62 320.18 1038.18 426.29 1072.99 556.78 1169.99 548.72
00009997 00000117 1035.26 90.68 431.97 616.84 1075.63 330.37 1206.90 317.75 1037.48 422.69 1075.95 557.15 1176.21 546.30
00009998 00000118 1042.75 88.13 439.63 626.26 1087.84 329.34 1219.17 309.03 1054.21 413.50 1093.48 560.07 1188.93 543.32
00009999 00000119 1051.68 98.23 439.03 627.05 1091.40 327.09 1230.70 303.55 1070.64 410.36 1105.67 561.16 1209.66 542.02
00010000 00000120 1059.53 97.39 436.87 620.02 1094.24 326.98 1236.98 302.29 1094.48 402.44 1116.60 556.35 1220.04 536.25
00010001 00000121 1060.35 96.07 439.47 606.24 1096.00 329.33 1241.10 303.11 1096.91 400.10 1115.04 550.62 1219.00 529.32
00010002 00000122 1062.81 95.36 437.67 603.51 1096.59 330.47 1242.49 304.06 1098.50 400.19 1114.67 550.36 1218.46 528.93
00010003 00000123 1062.52 94.61 438.21 601.26 1095.23 330.08 1242.60 303.98 1098.15 400.61 1113.44 549.41 1218.34 528.22
00010004 00000124 1062.07 95.39 437.37 597.41 1092.57 330.06 1241.02 304.26 1095.55 401.73 1110.82 549.79 1216.22 528.98
00010005 00000125 1059.92 95.97 433.76 590.09 1086.47 330.94 1237.05 306.63 1091.91 405.92 1104.66 549.30 1209.88 530.17
00010006 00000126 1057.09 99.39 433.86 587.88 1081.99 332.78 1233.44 309.60 1088.61 410.55 1100.57 550.98 1205.28 532.87
00010007 00000127 1053.34 99.14 435.01 595.13 1082.38 331.76 1232.62 310.21 1086.75 412.07 1102.54 552.40 1205.98 535.49
00010008 00000128 1051.63 99.47 437.55 605.32 1084.14 332.24 1232.21 310.81 1088.09 414.39 1107.55 555.38 1211.70 538.44
00010009 00000129 1051.44 100.74 438.96 609.74 1085.47 332.69 1233.32 310.35 1089.72 413.83 1109.41 555.49 1214.58 537.78
00010010 00000130 1053.07 102.12 437.68 612.41 1087.08 331.92 1233.34 309.70 1089.52 412.66 1111.24 555.96 1216.85 538.13
00010011 00000131 1054.57 101.99 436.85 612.08 1087.80 331.13 1234.16 309.16 1089.63 411.50 1110.49 555.26 1216.58 537.66
00010012 00000132 1055.99 106.54 436.80 612.92 1089.35 330.00 1234.58 307.52 1090.60 410.43 1113.12 556.07 1221.44 537.65
00010013 00000133 1057.35 106.87 437.50 616.23 1090.47 329.82 1235.13 306.90 1091.38 410.43 1114.63 557.94 1222.97 539.08
00010014 00000134 1057.41 106.25 437.47 614.06 1090.45 329.73 1235.10 306.72 1091.24 409.81 1114.62 556.80 1222.22 537.86
00010015 00000135 1055.88 104.42 435.98 604.37 1088.96 330.46 1234.75 308.50 1090.96 409.59 1111.17 552.37 1216.58 534.71
00010016 00000136 1057.41 99.77 434.96 591.53 1084.83 331.42 1234.17 308.92 1088.68 409.91 1104.56 549.48 1208.84 531.72
00010017 00000137 1056.09 99.04 435.69 584.18 1082.76 331.70 1233.10 307.59 1088.10 407.32 1102.37 546.66 1208.03 527.59
00010018 00000138 1057.77 95.35 434.03 589.02 1083.50 338.61 1232.96 313.24 1087.18 407.81 1100.51 548.08 1208.73 528.26
00010019 00000139 1058.05 97.35 434.53 586.07 1083.43 342.82 1232.87 315.95 1087.57 408.59 1101.06 548.58 1209.20 527.31
00010020 00000140 1058.11 96.11 433.59 586.77 1084.73 336.90 1233.75 311.27 1087.47 405.15 1101.00 546.77 1207.34 526.73
00010021 00000141 1057.66 96.24 436.09 585.75 1085.31 334.45 1234.75 307.91 1088.23 403.90 1102.32 546.39 1208.50 525.49
00010022 00000142 1058.02 97.24 436.62 585.42 1086.80 333.91 1235.89 307.75 1090.71 403.46 1103.79 545.78 1209.55 525.10
00010023 00000143 1059.28 98.36 437.41 584.31 1087.72 333.30 1236.57 307.17 1091.88 402.99 1104.58 545.69 1210.22 525.00
00010024 00000144 1060.89 99.21 438.13 582.35 1088.75 333.98 1237.59 306.69 1093.00 401.97 1105.72 545.93 1211.45 524.20
00010025 00000145 1062.22 100.78 437.48 580.88 1090.44 332.87 1239.51 306.23 1095.32 401.05 1106.55 545.04 1212.24 523.76
00010026 00000146 1063.68 99.54 437.55 583.06 1093.15 331.66 1239.12 305.76 1095.30 399.53 1108.14 544.02 1212.31 523.22
00010027 00000147 1063.81 98.42 438.99 584.05 1093.42 331.55 1239.65 304.67 1095.94 398.59 1108.76 544.25 1213.17 522.61
00010028 00000148 1064.12 98.36 439.89 583.77 1094.10 330.32 1240.45 303.93 1096.43 398.17 1109.46 543.27 1214.13 521.94
00010029 00000149 1065.02 97.19 439.84 584.73 1095.00 329.14 1239.35 302.72 1095.31 397.31 1110.01 542.38 1214.24 520.95
00010030 00000150 1064.90 96.48 439.67 585.46 1095.03 328.74 1239.43 302.55 1095.26 396.94 1109.87 542.12 1214.20 520.87
00010031 00000151 1064.75 95.98 439.83 585.57 1094.63 329.45 1238.58 302.98 1094.74 397.03 1109.37 542.40 1212.98 520.97
00010032 00000152 1064.41 98.36 438.13 581.07 1093.85 329.46 1238.25 302.78 1094.92 397.35 1109.05 542.01 1212.47 520.41
00010033 00000153 1064.10 99.11 437.80 579.94 1093.66 329.46 1238.02 303.03 1094.82 397.28 1108.77 541.49 1212.11 520.12
00010034 00000154 1064.14 99.02 437.06 579.79 1093.89 329.94 1237.99 303.43 1094.80 397.32 1108.70 541.45 1211.36 520.08
00010035 00000155 1063.95 99.03 437.79 582.41 1094.10 329.88 1238.24 303.47 1094.66 397.52 1108.76 542.40 1211.29 521.12
00010036 00000156 1064.06 99.74 438.10 584.56 1095.23 330.11 1238.90 304.10 1094.54 398.08 1108.92 543.45 1210.50 522.48
00010037 00000157 1064.79 99.00 439.88 588.30 1096.43 329.88 1239.85 303.97 1095.88 399.11 1110.53 544.95 1211.46 523.98
00010038 00000158 1064.95 97.94 440.35 592.79 1096.87 329.94 1242.04 304.80 1098.00 400.58 1111.90 546.41 1214.56 526.05
00010039 00000159 1066.42 96.12 439.70 594.40 1099.74 330.12 1243.11 305.49 1099.24 400.10 1114.40 545.22 1216.17 525.09
00010040 00000160 1066.71 97.02 439.26 596.73 1102.42 328.97 1243.77 305.53 1100.15 399.20 1115.14 545.70 1213.89 526.43
00010041 00000161 1067.43 97.79 439.41 598.96 1103.22 328.08 1244.17 305.37 1101.62 398.83 1115.37 545.96 1213.52 527.29
00010042 00000162 1068.58 98.07 439.28 598.75 1105.14 326.61 1244.17 305.52 1102.57 399.55 1116.23 545.66 1212.46 528.16
00010043 00000163 1069.23 96.45 440.45 596.35 1105.54 326.65 1243.26 304.86 1100.48 398.27 1115.06 543.48 1210.97 525.54
