Video ID: 	WHJ341eL3Uw
H: 	1080
W: 	1920
FPS: 	25.0

FRAME INDEX X0 Y0 W H [Landmarks (5 Points)]

00002744 00000000 560.73 170.19 460.28 656.36 812.11 441.84 984.24 442.08 970.96 575.07 811.91 677.67 944.13 680.71
00002745 00000001 562.89 171.99 456.51 654.81 813.31 444.57 985.11 446.46 970.61 578.97 813.41 680.15 943.70 684.57
00002746 00000002 564.50 175.57 455.85 650.48 813.10 445.57 986.25 448.65 969.88 580.73 811.75 680.41 942.67 685.88
00002747 DELETE   564.17 175.25 458.28 648.22 811.21 443.76 987.58 449.14 967.37 579.90 810.37 680.26 941.50 687.20
00002748 00000004 563.63 174.43 458.35 648.78 808.34 438.93 986.72 448.76 961.93 577.32 807.33 677.55 939.61 687.59
00002749 00000005 561.93 174.51 458.49 647.43 806.72 436.41 984.30 447.34 958.11 576.47 805.14 675.97 936.77 686.69
00002750 00000006 562.33 174.83 456.65 646.87 806.63 436.05 983.47 447.16 957.55 576.25 806.24 675.62 937.25 686.50
00002751 00000007 564.18 173.86 454.93 648.86 807.60 436.83 982.81 445.81 959.09 575.41 807.32 675.48 937.96 684.84
00002752 00000008 566.62 173.93 451.50 648.15 809.83 437.88 982.84 445.38 961.79 575.39 809.82 675.27 938.92 683.69
00002753 00000009 568.79 175.57 448.90 645.87 811.43 439.34 983.42 445.55 964.15 575.21 811.41 674.72 940.09 682.40
00002754 DELETE   569.27 175.60 447.13 644.36 812.64 437.78 983.00 445.02 964.95 573.18 812.18 672.99 939.49 681.48
00002755 00000011 569.87 169.96 445.35 646.16 812.35 432.93 982.52 440.68 964.06 567.05 812.70 667.22 941.38 675.80
00002756 00000012 572.35 160.55 440.90 645.68 813.01 428.85 974.93 429.67 962.17 557.41 816.54 660.01 939.54 662.85
00002757 00000013 570.13 148.49 440.64 650.83 814.70 425.86 974.28 421.81 966.22 551.83 820.02 653.90 941.58 652.31
00002758 DELETE   572.29 144.65 437.58 647.77 817.62 421.79 974.84 423.14 966.47 545.17 824.18 646.59 943.79 649.02
00002759 00000015 574.61 142.34 435.86 646.80 820.61 418.94 977.06 420.37 969.13 543.25 827.13 644.62 945.46 647.00
00002760 DELETE   576.95 140.68 436.31 649.12 824.48 415.00 982.59 417.59 975.45 540.21 834.28 644.56 953.26 647.50
00002761 DELETE   582.23 139.71 435.17 646.43 829.75 410.71 988.03 413.70 981.08 537.00 839.80 642.83 958.39 646.05
00002762 00000018 587.82 135.65 433.98 646.84 833.69 405.26 992.56 411.37 984.96 529.77 847.38 637.75 966.45 642.90
00002763 00000019 585.88 132.71 445.31 641.09 828.91 402.92 989.25 409.46 984.04 521.98 850.53 625.91 972.60 632.76
00002764 00000020 587.66 124.17 440.14 645.14 828.38 395.27 988.04 401.68 985.63 515.01 850.26 618.31 974.13 625.26
00002765 00000021 587.33 113.22 440.53 653.11 827.20 388.12 987.85 396.42 985.75 506.42 847.91 610.17 974.93 618.46
00002766 00000022 585.14 113.22 439.51 649.64 823.17 380.47 985.53 389.71 984.67 497.60 842.18 602.45 974.72 611.66
00002767 00000023 586.37 108.40 436.15 652.20 823.77 372.39 982.85 389.70 982.14 486.60 845.91 594.84 977.22 610.01
00002768 00000024 585.77 108.44 437.45 650.07 825.58 369.09 982.87 388.46 983.54 482.47 848.75 593.42 976.41 610.38
00002769 00000025 587.66 108.24 435.87 650.43 826.18 369.99 983.22 388.27 984.43 482.34 851.51 593.66 979.11 609.59
00002770 00000026 591.42 108.04 434.40 651.56 828.46 372.28 985.16 389.06 986.63 484.15 853.07 593.91 981.34 608.57
00002771 00000027 594.50 108.40 435.09 650.88 830.51 374.95 988.99 389.70 988.57 486.26 856.62 595.80 984.81 608.59
00002772 00000028 596.58 108.45 436.16 650.14 832.27 374.62 994.30 391.86 990.43 488.01 856.52 595.97 986.40 611.00
00002773 00000029 598.24 108.71 435.39 649.51 834.70 375.47 994.97 390.92 993.45 488.44 858.92 596.61 987.16 610.41
00002774 00000030 599.61 109.26 435.30 649.08 835.60 375.43 996.57 391.25 994.76 488.69 859.62 596.09 988.63 610.20
00002775 00000031 604.42 115.69 427.74 642.89 849.46 379.69 1007.40 394.88 1005.31 491.74 864.09 604.38 986.53 615.76
00002776 00000032 603.65 116.96 428.13 644.30 850.79 380.27 1007.60 395.51 1006.21 493.64 863.77 605.85 985.11 617.41
00002777 00000033 603.72 118.66 428.84 644.51 850.78 381.63 1008.12 395.61 1006.28 495.54 862.77 607.44 984.78 618.05
00002778 00000034 599.24 110.99 437.95 653.33 838.66 378.61 998.09 393.81 997.68 493.15 859.33 601.06 986.05 615.16
00002779 00000035 597.83 111.84 437.87 654.05 837.95 380.12 995.58 394.09 997.54 493.83 859.32 603.30 984.54 616.49
00002780 00000036 597.21 111.44 436.83 655.41 837.21 382.31 993.35 395.25 996.50 495.06 858.66 605.10 982.70 617.50
00002781 00000037 597.94 113.00 435.82 654.60 837.44 383.22 990.99 395.13 996.42 496.01 860.21 606.06 981.64 617.70
00002782 00000038 597.82 114.89 434.89 653.28 837.55 384.04 989.41 395.95 996.03 497.32 859.96 606.62 979.76 618.47
00002783 00000039 595.71 115.63 435.16 652.21 836.44 384.68 986.52 397.89 993.73 498.26 858.72 606.65 977.20 619.46
00002784 00000040 591.91 115.16 436.89 654.31 833.10 386.09 984.46 398.90 992.61 499.44 855.21 608.82 975.79 621.34
00002785 00000041 586.36 116.72 440.84 652.16 828.72 388.20 984.00 399.26 991.01 501.47 849.84 611.01 973.61 622.29
00002786 00000042 582.62 114.82 443.13 654.98 826.50 388.72 982.64 396.81 991.16 503.03 845.39 612.01 971.19 621.17
00002787 00000043 580.23 114.63 443.80 655.80 823.47 389.24 981.29 396.21 989.89 503.21 840.47 611.90 969.94 620.21
00002788 00000044 576.08 112.53 445.63 659.76 819.33 388.78 979.88 395.64 987.89 503.33 836.31 613.82 968.47 621.75
00002789 00000045 573.80 114.29 447.00 657.49 817.80 385.81 978.38 396.84 984.95 503.39 831.41 612.38 963.74 623.70
00002790 00000046 572.49 114.21 447.89 656.02 816.92 386.42 977.24 396.93 983.40 503.07 831.36 611.61 963.64 622.41
00002791 00000047 572.19 114.32 447.90 655.17 816.24 388.06 977.30 397.01 983.07 503.72 831.83 612.55 963.76 622.14
00002792 00000048 572.54 116.45 447.42 652.53 815.74 389.55 977.30 396.76 982.88 505.84 831.86 614.80 962.19 623.26
00002793 00000049 573.69 116.83 446.48 653.54 815.04 391.30 978.83 396.68 982.67 508.14 832.60 617.97 963.16 624.78
00002794 00000050 574.75 118.58 445.93 656.12 816.35 394.57 979.62 397.19 983.04 511.87 834.04 620.99 964.26 625.48
00002795 00000051 576.96 121.03 443.51 659.59 818.10 395.78 980.21 399.59 983.18 515.28 834.92 622.05 964.45 627.78
00002796 00000052 577.72 123.74 444.80 664.28 821.18 396.92 981.24 401.21 985.73 518.84 834.38 624.77 964.27 630.93
00002797 00000053 578.71 127.20 435.75 668.93 830.93 394.25 982.57 398.88 989.92 519.65 837.64 632.69 959.34 636.89
00002798 00000054 582.70 126.82 434.79 672.13 834.90 394.97 984.25 401.85 991.33 520.32 841.21 634.87 960.75 641.08
00002799 00000055 585.99 129.37 431.78 670.69 838.77 398.83 984.67 404.75 995.02 521.22 844.11 636.57 961.43 642.34
00002800 00000056 588.55 130.21 430.44 668.75 842.59 402.69 988.41 406.80 998.29 524.45 849.25 638.57 965.09 642.78
00002801 00000057 589.48 132.84 432.90 662.97 843.20 405.92 991.62 407.36 1000.46 526.08 850.64 639.18 968.33 641.38
00002802 00000058 593.50 132.86 432.32 662.14 847.16 406.30 996.44 408.32 1004.71 526.81 853.64 638.93 971.01 641.69
00002803 00000059 597.23 134.20 434.09 659.68 851.77 406.79 1003.51 409.71 1008.68 528.95 857.54 639.81 975.27 643.32
00002804 00000060 603.04 143.62 433.32 642.70 855.31 404.35 1008.92 411.63 1012.53 533.98 859.97 641.54 977.49 648.96
00002805 00000061 606.11 142.87 431.04 641.00 858.74 404.72 1011.87 414.07 1016.95 536.28 862.69 642.37 979.26 651.52
00002806 00000062 609.87 145.04 428.78 638.33 860.31 406.16 1014.54 415.71 1019.62 538.84 865.11 644.22 982.15 653.44
00002807 00000063 612.78 145.86 429.23 638.72 862.05 406.76 1018.18 416.51 1022.87 540.61 866.99 645.91 985.31 655.25
00002808 00000064 613.98 145.16 429.24 640.84 862.93 405.73 1020.70 416.82 1023.67 541.45 868.05 647.47 987.22 657.72
00002809 00000065 617.26 144.38 428.24 642.59 866.31 406.47 1023.77 418.16 1027.88 542.54 869.62 647.06 990.41 657.86
00002810 00000066 624.11 142.87 426.62 653.06 873.80 412.16 1031.55 418.54 1032.10 541.06 874.85 650.01 993.58 656.15
00002811 00000067 618.64 144.08 437.46 654.46 872.12 413.00 1022.69 423.48 1023.34 541.23 878.86 645.48 994.47 654.58
00002812 00000068 620.98 145.35 438.43 652.41 872.37 414.44 1023.92 425.20 1021.82 541.45 880.30 645.58 995.13 654.85
00002813 00000069 620.80 144.90 440.85 649.79 873.06 412.35 1025.38 426.10 1021.37 540.78 878.07 642.63 993.15 654.31
00002814 00000070 620.53 144.95 441.85 647.87 874.62 407.63 1027.41 424.25 1022.67 538.52 878.99 641.54 992.91 655.50
00002815 00000071 622.74 145.20 444.76 648.32 877.64 406.87 1030.69 421.88 1026.96 536.49 881.94 641.99 995.38 654.93
00002816 00000072 626.61 146.18 444.34 652.24 881.32 410.22 1035.00 420.99 1033.28 539.89 881.89 645.32 997.48 655.43
00002817 00000073 631.50 146.87 441.74 653.22 888.65 420.91 1036.14 428.00 1037.10 544.52 882.99 647.55 996.61 655.46
00002818 00000074 630.75 159.26 439.41 639.85 889.53 417.15 1042.09 432.71 1045.22 545.66 880.55 644.99 1002.70 660.33
00002819 DELETE   632.00 161.26 440.50 642.21 890.90 419.99 1043.95 435.79 1046.69 546.12 882.10 646.71 1006.63 662.13
00002820 00000076 635.01 163.64 436.92 643.68 890.73 419.29 1046.19 439.53 1047.58 549.69 879.61 647.65 1007.06 666.74
00002821 00000077 637.15 158.86 436.68 657.92 893.57 428.26 1040.09 439.02 1046.11 554.25 879.81 656.17 996.30 667.77
00002822 00000078 636.49 161.18 436.95 656.11 888.35 429.60 1039.70 438.57 1042.27 555.76 876.03 659.41 994.83 669.75
00002823 00000079 634.59 161.71 434.91 655.45 882.15 430.79 1038.05 437.39 1034.68 557.58 873.95 659.67 996.01 667.82
00002824 00000080 630.69 165.15 437.66 649.00 877.44 433.30 1036.43 440.14 1025.93 559.99 872.96 659.08 995.65 667.16
00002825 00000081 628.71 167.99 438.69 643.89 869.79 436.48 1033.00 441.71 1018.01 560.13 868.62 657.84 995.42 664.37
00002826 00000082 625.95 169.20 443.00 642.91 863.09 438.89 1031.05 439.91 1012.22 560.92 866.59 659.22 996.28 662.12
00002827 00000083 625.67 170.83 442.44 643.81 859.90 440.62 1028.56 441.71 1008.47 563.06 864.05 660.44 995.44 663.36
00002828 00000084 625.24 174.97 442.17 642.13 859.68 442.41 1028.56 444.81 1007.62 567.55 861.38 662.37 993.27 666.51
00002829 00000085 626.23 176.70 443.16 642.22 860.45 444.74 1030.21 446.70 1007.89 572.16 859.46 664.39 992.06 668.43
00002830 00000086 624.93 178.83 444.35 640.76 858.82 446.29 1030.19 449.08 1006.79 573.74 858.13 665.78 991.94 670.48
00002831 00000087 621.82 179.21 445.38 641.06 856.35 448.09 1029.48 449.86 1005.05 575.93 856.75 668.93 990.67 672.77
00002832 00000088 618.65 181.50 450.38 639.95 851.37 450.41 1028.67 451.51 1001.35 578.81 855.00 671.86 990.98 675.08
00002833 00000089 616.11 181.27 453.15 643.32 848.52 451.99 1027.44 453.58 998.47 580.81 850.48 673.04 988.31 676.77
00002834 00000090 615.43 182.99 454.19 642.51 847.41 451.71 1027.02 455.00 996.29 581.71 848.70 673.17 986.83 678.41
00002835 00000091 613.38 183.71 456.07 641.95 845.84 451.46 1026.98 455.04 995.49 581.78 847.73 673.66 986.34 679.18
00002836 00000092 611.18 183.66 456.88 643.35 843.24 450.46 1025.26 456.13 992.30 582.30 843.17 673.81 982.47 681.17
00002837 00000093 609.83 183.65 456.81 643.45 840.68 449.87 1023.81 456.83 989.29 582.08 840.06 673.74 979.92 682.14
00002838 00000094 609.66 184.40 456.37 642.26 841.65 449.85 1023.61 456.61 990.36 582.25 840.54 673.49 979.52 681.82
00002839 00000095 611.59 185.48 453.14 640.16 846.01 452.42 1024.61 458.88 994.41 582.01 843.09 673.12 979.97 681.22
00002840 DELETE   615.49 186.44 452.71 637.31 852.49 456.99 1028.69 463.79 999.63 583.20 847.46 673.58 982.40 681.83
00002841 00000097 619.79 188.09 447.23 633.24 858.46 459.20 1031.99 465.34 1006.36 581.39 851.24 671.01 985.28 678.74
00002842 00000098 628.07 185.55 442.83 636.38 868.99 458.98 1037.25 463.98 1015.10 581.94 856.50 670.32 986.58 677.63
00002843 DELETE   632.80 179.76 442.22 645.25 880.79 453.53 1042.62 460.90 1025.06 581.97 862.34 671.03 987.04 680.39
00002844 DELETE   634.16 179.51 443.23 644.24 883.76 452.57 1042.29 457.44 1028.60 580.98 865.68 669.93 988.10 677.49
00002845 00000101 634.25 187.49 438.47 631.46 885.16 445.23 1044.62 453.05 1030.33 585.38 862.09 666.59 990.19 677.97
00002846 00000102 631.99 177.93 445.63 646.39 882.98 449.52 1040.32 451.35 1029.69 580.01 866.68 670.54 987.64 675.77
00002847 00000103 629.47 177.67 448.52 647.79 881.85 450.64 1040.26 451.43 1029.52 581.54 865.89 673.40 986.20 677.96
00002848 DELETE   629.81 178.72 446.09 647.91 879.52 452.93 1039.93 453.96 1027.93 581.84 865.27 675.09 987.31 679.69
00002849 00000105 629.63 180.52 445.80 646.72 879.19 454.27 1039.45 455.67 1027.53 583.06 864.76 676.26 986.11 681.36
00002850 00000106 629.30 180.52 446.69 647.52 878.59 453.73 1040.19 455.25 1027.86 583.12 865.10 678.13 986.90 683.30
00002851 00000107 630.02 180.09 444.82 646.91 878.33 453.15 1040.27 456.85 1026.31 583.36 866.26 678.49 986.49 685.41
00002852 00000108 633.45 182.38 440.21 643.61 881.01 454.60 1040.44 462.62 1025.78 583.45 868.43 677.37 986.99 687.61
00002853 00000109 632.21 177.77 439.30 651.96 884.49 455.29 1039.61 465.93 1026.57 583.53 868.61 679.51 982.08 691.55
00002854 00000110 630.40 174.43 441.40 652.22 881.90 458.92 1038.68 468.23 1024.03 582.84 864.47 677.47 979.45 688.68
00002855 00000111 628.48 173.21 441.93 652.30 882.05 458.12 1036.44 464.94 1025.70 581.64 862.86 675.36 978.16 684.75
00002856 00000112 625.85 173.73 442.98 651.75 883.15 457.10 1034.08 464.34 1026.94 580.95 862.53 674.50 976.27 684.45
00002857 00000113 627.68 173.37 439.98 653.26 883.45 455.83 1032.72 466.98 1023.92 579.95 860.26 671.37 973.87 684.47
00002858 00000114 625.72 171.30 436.72 653.47 881.59 451.26 1030.49 461.77 1022.72 575.65 860.87 667.25 975.04 679.42
00002859 00000115 624.17 170.17 435.16 652.24 877.63 446.51 1029.78 456.14 1021.81 569.10 860.42 663.53 978.06 674.76
00002860 00000116 621.98 168.75 436.87 650.67 876.69 443.96 1028.07 456.92 1020.94 566.05 860.87 659.15 979.02 672.75
00002861 00000117 622.10 169.82 436.04 651.08 877.95 443.79 1026.71 457.11 1021.37 566.53 860.35 657.98 978.19 671.91
00002862 00000118 620.89 169.63 439.14 652.90 878.80 440.92 1027.37 456.31 1022.09 566.20 859.59 658.66 977.36 674.33
00002863 00000119 627.25 181.38 428.61 638.17 886.91 440.16 1031.57 453.76 1032.15 576.94 864.99 667.68 978.92 681.08
00002864 00000120 621.00 168.07 440.47 663.05 882.75 437.12 1027.01 453.12 1025.44 569.70 855.62 662.21 971.73 679.32
00002865 00000121 618.72 166.55 438.19 663.40 880.40 436.53 1023.83 453.78 1022.91 569.53 856.27 661.94 971.54 679.64
00002866 DELETE   612.00 165.84 441.46 652.81 871.49 436.79 1021.18 451.42 1017.93 567.22 855.70 660.63 972.12 675.71
00002867 00000123 606.32 167.50 441.92 646.44 865.61 437.50 1018.74 456.66 1013.64 565.26 854.71 658.31 972.79 676.59
00002868 00000124 599.37 165.95 447.42 645.41 855.35 441.24 1017.47 460.86 1005.75 565.48 845.86 658.81 970.27 677.13
00002869 00000125 590.96 166.66 450.09 641.31 844.39 437.95 1010.48 458.11 994.84 559.16 835.91 654.52 963.01 673.56
00002870 00000126 584.81 160.45 457.56 646.41 839.01 431.72 1008.11 448.06 993.38 555.21 827.49 652.12 960.30 668.49
00002871 00000127 582.37 151.18 460.55 651.74 834.18 427.48 1008.38 439.90 990.70 549.68 824.17 649.22 964.01 661.63
00002872 00000128 581.97 144.11 461.18 655.81 835.00 421.92 1008.32 436.97 989.94 547.43 824.40 645.12 964.18 658.98
00002873 00000129 581.77 144.79 460.05 655.56 836.39 421.75 1008.37 439.90 990.43 548.79 826.58 644.84 964.44 660.91
00002874 00000130 580.06 149.84 461.93 655.33 833.75 421.87 1008.58 439.53 989.25 551.47 825.98 649.01 964.92 664.93
CROP_BBOX: 308 0 1323 976
