Video ID: 	37ofnzpPnU4
H: 	1080
W: 	1920
FPS: 	29.97002997002997

FRAME INDEX X0 Y0 W H [Landmarks (5 Points)]

00019087 00000000 736.99 154.61 433.31 647.01 843.23 365.61 1026.71 369.84 908.10 464.75 841.73 585.75 999.79 589.90
00019088 00000001 733.65 160.09 433.89 649.94 845.15 367.54 1026.79 374.44 910.33 468.57 842.72 586.88 998.47 593.25
00019089 00000002 731.05 162.35 435.18 651.04 841.93 366.39 1024.95 374.09 908.94 467.32 839.36 587.39 998.33 594.23
00019090 00000003 731.90 160.05 433.68 650.99 841.76 366.30 1024.67 373.26 909.64 466.33 839.98 587.16 998.41 593.34
00019091 00000004 732.62 157.96 433.74 651.03 842.90 367.29 1025.30 372.68 911.16 466.12 842.00 586.35 1000.90 591.24
00019092 00000005 733.45 159.33 432.56 645.91 844.77 369.58 1025.88 374.75 914.38 468.83 844.33 584.73 1003.63 589.40
00019093 00000006 735.07 159.77 431.02 645.48 846.22 372.30 1026.44 377.70 915.90 472.74 846.71 586.22 1006.05 590.84
00019094 00000007 735.49 158.93 430.46 646.38 845.93 374.52 1027.04 380.06 916.16 473.25 847.17 589.25 1005.97 593.85
00019095 00000008 734.99 157.79 429.97 647.62 843.17 377.53 1026.18 384.65 914.03 476.17 844.34 592.48 1002.95 598.36
00019096 00000009 734.35 168.17 432.78 634.89 840.99 379.52 1025.87 389.17 908.08 476.57 841.47 595.17 997.72 603.40
00019097 00000010 735.32 169.21 431.84 626.98 841.70 391.96 1021.10 394.92 910.08 479.43 847.45 600.36 991.28 603.72
00019098 00000011 734.10 170.29 433.18 616.90 841.57 390.89 1019.88 392.62 912.32 474.17 850.36 600.14 989.84 602.74
00019099 DELETE   733.88 165.45 430.72 617.09 843.41 384.84 1018.66 387.02 915.26 467.32 854.03 594.76 988.87 597.52
00019100 00000013 738.56 159.04 424.86 626.46 846.81 379.02 1022.29 379.42 917.89 459.44 854.21 590.19 990.72 591.75
00019101 DELETE   738.28 151.58 427.75 631.21 850.04 375.51 1025.78 374.99 923.65 453.87 858.65 587.87 993.76 588.79
00019102 00000015 741.82 148.15 423.89 613.34 849.19 370.98 1029.56 374.81 926.31 453.02 860.81 584.25 991.77 589.02
00019103 00000016 743.99 149.10 423.69 605.38 846.79 368.04 1031.52 372.61 926.28 453.08 857.28 580.25 996.36 585.75
00019104 00000017 744.05 149.11 422.70 604.91 846.05 364.47 1031.40 369.95 925.03 452.26 855.49 577.88 997.09 584.15
00019105 00000018 742.54 151.01 423.19 602.36 846.46 365.10 1027.21 369.27 924.57 450.99 857.46 578.08 991.25 583.45
00019106 00000019 742.44 149.72 423.09 605.15 843.85 365.63 1028.66 369.25 922.79 452.23 854.72 578.70 995.38 583.52
00019107 00000020 739.78 144.91 426.59 621.24 842.79 362.46 1026.80 364.42 920.53 449.75 853.06 577.22 1001.48 579.69
00019108 00000021 739.69 146.25 426.72 620.96 846.48 361.71 1024.81 360.63 920.67 446.06 854.69 574.77 999.14 574.65
00019109 00000022 743.77 153.72 421.66 593.96 843.57 358.38 1028.34 363.06 920.46 445.08 854.15 570.61 998.17 575.95
00019110 00000023 747.75 155.15 415.87 583.67 843.36 354.60 1030.72 361.54 920.57 443.06 852.47 560.45 1004.82 566.99
00019111 00000024 751.34 155.13 410.86 577.20 844.28 352.67 1034.17 360.07 922.90 441.32 851.44 555.92 1010.84 562.58
00019112 00000025 749.00 155.20 411.94 574.83 844.28 352.94 1034.54 358.47 924.14 435.52 852.19 553.98 1011.25 559.27
00019113 00000026 750.28 146.81 412.89 569.55 842.26 354.09 1034.02 350.14 917.73 427.46 853.28 555.09 1016.14 550.62
00019114 00000027 747.99 146.63 414.16 565.85 841.59 352.54 1033.26 350.46 917.06 425.43 850.84 551.36 1014.40 548.53
00019115 00000028 747.12 145.90 414.38 564.85 840.74 352.98 1032.46 350.53 916.31 425.24 850.02 550.88 1013.59 547.84
00019116 00000029 746.92 146.09 415.19 574.04 840.78 352.68 1032.03 350.50 915.16 426.89 848.93 552.42 1014.09 549.49
00019117 00000030 741.50 151.04 419.08 590.11 842.16 348.95 1031.99 355.06 921.56 432.28 846.89 553.39 1008.60 559.32
00019118 00000031 742.51 151.60 416.60 589.85 841.78 348.78 1028.61 354.75 920.47 435.12 850.15 556.02 1004.66 561.92
00019119 00000032 743.86 151.78 415.08 580.14 840.61 351.46 1026.08 356.10 921.12 438.06 851.30 555.78 1001.05 560.68
00019120 00000033 747.00 148.14 413.66 571.87 841.56 348.55 1026.98 349.89 917.29 436.01 852.35 553.69 1005.44 553.73
00019121 00000034 746.59 151.14 413.12 566.54 842.63 348.64 1026.56 353.15 917.96 438.78 852.42 549.70 1005.95 552.25
00019122 00000035 746.54 152.96 412.47 566.33 842.34 351.58 1025.02 356.32 917.32 440.85 849.95 550.51 1005.03 553.49
00019123 00000036 745.60 154.31 411.42 566.68 842.63 354.59 1021.79 359.22 915.68 441.63 848.40 551.01 1003.22 554.21
00019124 00000037 744.93 151.52 413.42 574.37 843.83 356.53 1023.58 360.22 916.22 445.36 850.33 557.21 1001.00 559.62
00019125 00000038 744.66 152.29 414.06 575.29 843.00 358.35 1024.28 359.63 916.55 448.30 853.56 563.25 1000.13 563.44
00019126 00000039 743.62 150.65 415.24 577.67 840.95 363.27 1024.59 362.52 915.88 451.17 851.08 566.14 1002.45 564.51
00019127 00000040 742.94 152.23 416.23 577.49 840.07 365.76 1025.28 365.36 915.24 453.56 848.79 568.42 1002.50 567.06
00019128 00000041 742.20 149.61 416.62 581.49 839.50 366.86 1026.05 367.27 916.01 455.50 847.37 568.74 1004.88 568.14
00019129 00000042 740.38 157.31 418.70 578.92 837.05 373.22 1021.81 373.70 918.94 458.86 850.43 570.84 997.87 572.41
00019130 00000043 739.99 149.38 418.06 585.47 837.72 371.63 1025.82 372.54 916.43 459.25 846.83 573.07 1005.51 573.19
00019131 00000044 738.77 151.28 419.09 590.76 838.36 372.55 1026.79 373.31 917.38 460.82 846.73 575.68 1006.68 575.47
00019132 00000045 738.36 152.32 420.71 591.62 838.97 372.83 1027.23 373.69 917.49 462.28 847.25 576.50 1007.13 576.04
00019133 00000046 738.39 151.73 419.41 591.23 838.79 375.73 1026.45 378.21 916.88 464.22 846.41 576.53 1007.20 577.74
00019134 00000047 738.01 153.37 418.04 590.77 840.87 374.83 1026.30 381.47 916.64 464.45 845.95 574.16 1005.91 578.47
00019135 00000048 738.20 154.65 414.95 587.14 839.66 382.85 1021.39 389.69 914.92 467.20 844.62 574.17 1006.60 579.50
00019136 00000049 736.49 155.07 418.03 588.92 839.68 378.23 1023.71 384.96 916.10 466.38 844.80 574.32 1006.59 579.06
00019137 00000050 734.40 154.68 420.67 595.23 838.31 375.58 1023.65 379.81 915.18 465.95 844.83 576.86 1005.57 578.90
00019138 00000051 731.75 155.03 429.41 609.75 837.60 380.59 1017.88 376.54 915.88 470.63 849.09 581.79 1002.23 577.83
00019139 00000052 730.80 155.60 429.50 613.92 840.25 382.86 1017.28 379.41 917.76 472.76 853.07 584.92 1001.40 581.63
00019140 00000053 729.59 155.70 430.31 617.93 840.79 382.49 1016.82 378.87 917.90 471.15 854.43 586.68 999.77 583.50
00019141 00000054 728.36 157.80 431.82 618.86 841.50 380.79 1016.85 376.84 918.13 470.77 854.82 587.29 998.14 584.08
00019142 00000055 727.73 159.00 431.63 618.41 841.44 380.06 1016.56 376.38 918.14 470.97 854.66 587.12 997.03 584.17
00019143 00000056 726.59 157.65 432.33 621.86 840.81 380.16 1016.32 377.17 917.76 472.26 853.88 587.77 996.04 585.43
00019144 00000057 727.23 157.36 430.85 622.41 839.67 381.33 1015.02 378.91 917.14 474.42 852.05 588.05 995.33 586.11
00019145 00000058 725.01 158.22 431.91 620.74 836.42 382.50 1012.50 379.85 916.27 476.75 850.77 588.48 994.97 586.10
00019146 00000059 724.47 158.44 431.75 620.91 834.33 383.45 1012.03 381.09 915.68 479.41 849.27 589.51 996.42 587.18
00019147 00000060 728.62 165.89 423.89 605.47 832.99 391.57 1017.59 385.41 915.78 482.92 851.47 596.75 1005.42 589.86
00019148 00000061 729.02 166.26 423.21 612.82 834.07 392.90 1018.55 385.73 916.30 485.26 852.51 601.10 1007.10 593.24
00019149 00000062 727.94 166.89 425.98 620.38 834.38 394.71 1018.20 387.14 915.98 487.08 853.01 604.86 1009.08 596.65
00019150 00000063 727.02 167.44 427.71 626.08 833.54 395.72 1018.71 388.07 914.97 488.33 851.35 607.40 1009.96 599.04
00019151 00000064 726.67 169.36 427.63 628.36 834.89 395.12 1017.73 388.80 914.06 489.17 851.42 608.30 1007.15 601.22
00019152 00000065 725.82 170.01 431.06 631.53 832.90 395.23 1016.94 388.85 909.90 488.05 850.74 613.35 1001.31 606.50
00019153 00000066 721.43 161.66 440.82 645.87 827.89 389.69 1015.38 385.19 906.75 476.42 846.50 614.78 982.49 611.11
00019154 00000067 721.25 161.56 439.68 640.67 825.56 392.14 1012.34 386.23 902.75 475.21 846.60 615.93 977.39 610.95
00019155 00000068 718.84 163.24 439.42 634.13 821.37 391.49 1009.15 383.62 900.01 473.47 846.70 615.85 972.91 609.03
00019156 00000069 718.86 155.61 423.88 630.15 820.58 391.43 998.80 380.94 894.90 479.85 843.96 617.95 981.60 608.41
00019157 00000070 716.89 154.16 422.66 620.27 815.43 391.23 995.99 379.86 892.95 479.56 839.86 611.50 984.47 601.13
00019158 00000071 716.65 152.86 422.85 619.76 810.83 390.06 997.96 378.08 889.87 480.72 833.88 610.44 989.11 599.35
00019159 00000072 716.33 152.32 425.96 623.20 808.38 389.68 1000.26 376.97 887.89 480.11 829.74 610.58 992.54 598.92
00019160 00000073 715.94 152.76 426.84 623.82 809.18 389.77 998.79 377.39 887.55 479.35 830.97 609.54 991.91 598.12
00019161 00000074 716.01 154.28 428.27 626.83 809.94 389.32 997.69 376.50 886.43 478.45 832.21 610.46 991.81 598.53
00019162 00000075 715.99 154.47 430.71 626.71 809.18 390.40 997.93 376.79 886.01 478.23 831.64 609.37 994.26 596.75
00019163 00000076 716.10 154.60 431.43 623.02 810.45 389.75 997.51 376.82 887.14 478.26 833.28 606.32 994.12 593.95
00019164 00000077 716.17 154.06 431.76 618.53 811.59 388.99 997.78 376.57 889.82 479.72 835.87 603.65 994.24 591.45
00019165 00000078 717.28 155.24 433.03 612.80 813.50 386.90 999.30 376.10 890.84 480.89 836.55 599.86 993.96 588.83
00019166 00000079 718.50 156.78 435.06 608.35 816.50 383.21 1002.91 375.02 892.83 480.42 836.06 596.14 992.82 587.24
00019167 00000080 718.23 162.65 440.72 609.81 821.28 384.82 1002.12 377.60 898.76 481.51 838.28 585.08 992.82 578.21
00019168 00000081 720.20 163.29 439.37 607.71 824.53 384.39 1003.21 379.23 901.04 481.47 839.42 583.00 993.11 577.88
00019169 00000082 722.43 163.31 437.31 609.51 829.19 385.16 1005.52 381.81 905.22 482.53 842.64 583.28 993.31 579.86
00019170 00000083 722.99 161.66 437.39 613.26 831.83 385.76 1006.98 382.87 908.31 483.03 845.94 584.79 994.05 581.91
00019171 00000084 723.03 162.46 439.06 617.64 833.68 386.99 1008.90 383.83 911.04 483.87 849.11 589.97 992.25 587.15
00019172 00000085 724.70 165.58 437.20 617.21 836.54 389.14 1011.23 385.93 914.99 486.07 854.86 594.84 993.64 592.04
00019173 00000086 725.08 166.35 435.94 617.88 835.15 391.72 1011.27 387.33 916.08 487.81 857.33 600.31 995.74 596.52
00019174 00000087 725.21 169.01 436.40 616.43 833.30 394.16 1012.46 388.65 915.78 487.48 857.39 604.47 995.66 599.97
00019175 00000088 724.61 171.20 437.70 617.11 831.43 396.44 1013.54 389.31 916.46 490.04 857.89 609.41 997.36 603.48
00019176 00000089 724.78 171.63 439.13 624.75 830.74 398.04 1015.18 391.08 916.49 493.83 857.53 612.30 1000.33 606.38
00019177 00000090 724.68 170.95 438.98 631.38 830.05 399.50 1016.57 392.18 916.26 494.54 856.91 615.01 1003.85 608.80
00019178 00000091 726.51 160.17 442.31 642.64 825.43 401.51 1016.65 392.72 906.44 495.11 849.01 621.14 999.77 613.73
00019179 00000092 724.51 170.83 439.13 637.65 829.08 401.29 1016.86 394.42 915.60 496.38 855.43 617.12 1006.60 611.13
00019180 00000093 726.90 158.29 440.53 639.15 824.65 403.64 1015.60 394.67 905.43 499.05 848.24 619.81 1000.57 612.09
00019181 00000094 726.07 159.64 440.00 631.21 823.00 403.69 1015.66 394.22 905.93 501.74 845.94 618.18 1000.64 610.16
00019182 00000095 725.76 159.82 441.55 626.80 821.41 403.28 1016.65 395.27 904.70 503.27 839.92 616.05 1001.33 609.31
00019183 00000096 724.74 160.07 442.66 626.09 820.33 403.41 1017.35 395.90 904.84 504.16 836.35 616.55 1000.65 610.23
00019184 00000097 724.07 160.11 442.95 627.63 819.64 403.60 1016.37 396.10 903.67 504.96 836.36 616.95 998.34 610.71
00019185 00000098 723.75 160.69 442.80 629.24 819.05 405.35 1016.23 397.14 903.53 506.57 835.97 619.40 997.06 612.55
00019186 00000099 723.45 161.45 442.98 630.73 818.91 405.72 1015.68 398.45 902.44 510.28 835.04 621.10 995.80 615.19
00019187 00000100 722.70 162.91 442.30 632.22 818.67 406.86 1017.12 400.24 904.23 515.09 834.47 624.25 996.77 619.00
00019188 00000101 722.80 165.18 441.77 636.36 820.32 408.52 1017.20 401.48 905.66 517.56 838.35 627.87 998.58 622.36
00019189 00000102 722.81 165.54 440.76 638.50 818.25 410.48 1016.64 402.83 904.13 520.33 838.11 631.71 999.64 625.82
00019190 00000103 720.32 159.58 439.57 650.48 820.97 408.66 1014.18 400.59 910.08 521.76 842.10 635.16 1006.35 628.81
00019191 00000104 722.32 164.71 441.14 639.83 817.49 411.02 1015.82 401.95 903.71 519.47 839.57 633.06 1000.37 625.98
00019192 00000105 723.03 163.82 441.32 639.71 817.57 409.47 1015.05 400.18 902.68 517.36 840.64 631.54 1000.02 624.16
00019193 00000106 723.35 163.89 441.91 638.28 818.65 407.00 1014.92 399.06 901.78 512.54 840.56 628.37 997.32 621.93
00019194 00000107 724.95 160.13 440.49 640.20 820.56 406.40 1014.45 398.88 901.56 506.83 840.65 624.48 997.04 618.19
00019195 00000108 725.05 159.01 442.80 642.99 823.03 401.06 1014.36 392.83 902.89 498.09 843.32 621.07 998.48 614.18
00019196 00000109 722.10 167.37 441.88 641.84 830.21 395.10 1017.79 391.56 913.83 491.06 851.25 612.12 1006.02 608.90
00019197 00000110 725.96 167.04 436.20 645.13 835.10 388.31 1019.91 387.35 915.47 484.07 851.58 606.18 1005.91 605.28
00019198 00000111 727.49 164.35 433.37 650.46 837.53 384.83 1019.92 382.70 915.64 479.80 851.57 603.34 1007.77 601.30
00019199 00000112 729.50 165.66 430.76 648.98 838.29 378.09 1019.70 377.61 914.26 473.61 849.63 597.07 1006.17 596.63
00019200 00000113 731.61 164.31 428.47 646.29 840.44 374.34 1019.29 372.76 913.26 467.45 850.66 591.36 1006.57 589.73
00019201 DELETE   732.79 166.53 427.55 638.76 840.83 367.05 1018.30 365.22 913.87 459.21 852.37 584.83 1008.21 582.93
00019202 DELETE   736.79 165.48 423.45 630.06 843.12 358.70 1018.65 356.74 914.87 448.33 853.24 576.43 1009.01 574.80
00019203 DELETE   739.87 159.27 419.13 621.40 843.44 351.23 1021.44 350.67 915.29 441.16 853.43 569.62 1008.63 569.04
00019204 00000117 738.12 149.62 421.80 612.57 841.89 352.28 1021.18 347.20 915.47 430.29 852.21 563.21 1009.37 558.77
00019205 00000118 742.08 158.09 413.66 576.27 839.30 352.66 1022.92 339.15 912.76 414.46 849.89 555.38 1012.48 543.97
00019206 00000119 740.73 152.41 414.58 560.29 837.99 349.40 1020.18 335.40 913.39 407.59 852.57 546.40 1008.77 534.43
00019207 00000120 743.96 152.01 407.86 541.03 839.61 346.73 1018.31 335.92 913.96 402.85 854.48 539.93 1002.76 531.04
00019208 00000121 746.31 151.66 402.01 531.09 839.95 345.45 1016.16 335.78 913.29 399.55 852.76 532.26 1001.93 524.79
CROP_BBOX: 482 0 1473 988
