Video ID: 	g5yhd_RcYJM
H: 	1080
W: 	1920
FPS: 	25.0

FRAME INDEX X0 Y0 W H [Landmarks (5 Points)]

00005352 00000000 967.86 94.11 413.79 584.87 1174.10 294.01 1348.40 307.87 1326.60 401.38 1211.85 522.82 1342.98 531.54
00005353 DELETE   965.69 92.62 417.36 587.01 1170.01 287.72 1347.26 299.87 1322.13 397.95 1209.24 521.19 1342.20 528.09
00005354 DELETE   964.14 90.67 416.35 596.94 1167.67 282.43 1343.55 294.33 1320.49 398.37 1206.20 524.19 1337.08 530.90
00005355 00000003 953.61 90.19 418.70 597.48 1160.98 283.92 1335.48 300.10 1313.09 402.23 1195.62 525.64 1325.58 536.06
00005356 00000004 946.75 90.35 420.15 595.79 1155.83 282.56 1328.33 298.32 1309.20 403.95 1189.72 525.89 1318.73 536.56
00005357 00000005 943.28 89.66 422.63 592.48 1153.61 281.53 1326.70 299.28 1304.38 403.97 1185.89 524.41 1314.43 536.94
00005358 00000006 925.72 82.92 432.82 604.28 1146.82 276.69 1317.36 299.55 1295.39 402.72 1177.75 521.48 1305.10 538.48
00005359 00000007 925.20 85.81 422.51 611.60 1132.19 276.50 1313.68 295.12 1284.83 400.64 1162.43 532.69 1297.98 545.71
00005360 00000008 917.17 84.14 422.65 627.46 1123.76 277.31 1302.09 291.08 1279.90 399.95 1156.57 537.32 1292.75 546.79
00005361 DELETE   911.15 84.61 419.85 627.52 1114.16 278.23 1287.90 289.99 1271.32 396.18 1151.34 534.95 1286.12 542.45
00005362 00000010 902.72 84.70 422.00 620.66 1103.64 277.30 1282.45 288.73 1261.42 395.18 1143.12 532.78 1279.07 539.44
00005363 00000011 894.94 81.59 424.07 618.57 1091.95 279.61 1275.35 289.05 1248.41 396.67 1133.53 532.55 1270.83 537.35
00005364 00000012 889.97 82.65 423.75 612.89 1084.88 285.63 1270.17 291.26 1238.72 400.66 1131.81 533.26 1267.78 534.57
00005365 00000013 890.06 79.87 421.10 613.05 1082.77 289.31 1266.61 294.37 1235.22 401.70 1130.50 533.63 1264.48 534.47
00005366 00000014 890.25 82.00 421.30 610.12 1082.43 290.26 1266.09 295.06 1234.80 401.63 1130.53 533.44 1265.90 534.08
00005367 00000015 889.57 81.60 422.45 610.22 1082.09 289.89 1265.11 294.95 1235.35 400.83 1129.69 533.25 1265.36 534.13
00005368 00000016 888.39 85.28 425.00 607.19 1082.25 291.45 1262.05 296.28 1235.58 398.99 1129.05 533.10 1264.77 534.11
00005369 00000017 886.96 87.33 428.80 604.74 1086.01 299.00 1260.42 306.66 1237.01 395.86 1130.02 530.70 1265.32 534.42
00005370 00000018 891.66 85.77 427.77 606.09 1084.36 291.80 1266.43 299.66 1239.42 391.03 1131.80 529.39 1272.47 532.55
00005371 00000019 896.22 83.48 427.09 604.62 1081.79 288.20 1268.67 291.46 1238.39 386.86 1134.54 528.22 1277.79 527.44
00005372 00000020 900.95 81.72 426.06 605.41 1080.54 283.32 1272.24 284.15 1238.10 386.96 1134.91 528.87 1279.40 526.30
00005373 00000021 905.01 78.29 426.48 608.09 1084.25 280.45 1279.55 281.20 1242.19 387.02 1139.66 528.73 1283.69 526.07
00005374 00000022 911.56 78.37 426.73 609.23 1092.66 280.56 1285.47 280.66 1248.86 391.33 1144.21 532.07 1286.42 529.53
00005375 00000023 916.86 75.76 429.12 609.60 1098.65 283.06 1289.74 282.12 1254.43 389.69 1149.32 532.82 1292.32 529.85
00005376 00000024 921.49 77.86 429.64 604.05 1100.99 282.79 1290.78 281.34 1256.59 386.67 1151.55 529.68 1295.73 526.50
00005377 00000025 924.86 78.22 431.93 604.47 1104.79 281.88 1295.58 278.96 1260.52 385.06 1155.38 529.23 1300.16 524.74
00005378 00000026 928.08 78.51 430.84 602.19 1107.93 280.73 1298.96 276.82 1263.77 384.70 1157.74 528.42 1302.43 523.27
00005379 00000027 930.63 71.70 437.38 614.87 1110.59 273.21 1301.44 276.83 1262.46 383.18 1165.57 522.24 1310.00 522.51
00005380 00000028 931.59 71.26 437.08 615.84 1108.72 274.43 1301.84 278.02 1261.51 383.64 1164.62 523.32 1310.04 523.67
00005381 00000029 931.77 70.62 435.78 618.24 1107.98 277.04 1298.41 278.88 1258.66 385.99 1166.04 524.54 1308.34 523.68
00005382 00000030 932.88 69.62 436.03 615.55 1108.39 277.09 1299.45 277.83 1259.49 384.63 1166.76 521.28 1310.61 519.30
00005383 00000031 932.10 68.85 440.38 619.98 1107.96 273.37 1303.91 273.99 1261.91 382.14 1166.12 521.51 1315.11 519.12
00005384 00000032 932.09 70.21 439.62 630.09 1104.69 269.41 1303.78 272.53 1260.28 383.13 1159.06 525.41 1313.00 524.94
00005385 00000033 931.94 71.08 439.61 633.37 1105.31 269.02 1302.02 272.37 1259.30 383.94 1158.23 526.11 1311.70 525.82
00005386 00000034 931.43 67.20 438.15 642.18 1105.29 274.22 1301.19 277.63 1258.96 388.26 1156.17 530.74 1311.62 530.69
00005387 00000035 931.63 64.29 437.05 644.07 1104.83 275.85 1301.27 279.21 1258.56 389.52 1154.55 531.09 1311.70 530.93
00005388 00000036 930.98 66.02 439.89 637.17 1106.38 272.57 1302.29 277.13 1259.79 385.48 1156.27 526.37 1312.35 527.14
00005389 00000037 931.18 65.87 438.15 634.64 1104.65 271.11 1301.11 276.11 1257.67 382.91 1155.48 524.97 1310.06 526.15
00005390 00000038 931.61 74.95 427.12 619.00 1102.16 282.90 1298.74 280.52 1256.11 384.17 1149.45 530.83 1301.44 526.78
00005391 00000039 931.68 74.35 424.88 618.69 1101.20 286.71 1296.97 285.24 1254.04 386.43 1148.46 532.22 1299.37 529.03
00005392 00000040 933.24 74.88 425.25 619.80 1102.02 289.06 1298.07 287.76 1253.81 388.47 1148.69 533.95 1299.36 531.03
00005393 00000041 933.60 69.54 429.77 636.21 1101.54 286.56 1292.34 288.98 1248.20 394.99 1153.19 535.74 1300.21 535.90
00005394 00000042 934.02 69.51 429.04 636.16 1103.31 289.16 1291.47 291.25 1248.96 395.74 1155.39 536.39 1299.67 536.37
00005395 00000043 935.73 70.41 428.97 633.06 1102.90 287.58 1293.33 289.14 1250.08 394.63 1156.48 535.83 1301.21 535.44
00005396 00000044 938.68 72.06 429.35 630.45 1105.23 287.73 1295.76 288.38 1252.94 393.36 1159.31 535.45 1302.86 534.27
00005397 00000045 942.88 74.44 429.80 627.98 1107.87 287.27 1299.90 286.69 1256.51 394.08 1161.95 535.89 1306.02 533.63
00005398 00000046 945.54 74.02 427.72 628.11 1109.16 287.59 1300.44 286.88 1257.04 395.22 1162.92 536.09 1305.62 533.70
00005399 00000047 945.29 75.14 428.46 627.83 1109.01 289.04 1300.03 288.65 1256.87 394.60 1162.75 535.75 1306.71 533.59
00005400 00000048 946.44 71.87 426.29 628.22 1109.82 291.19 1300.15 290.95 1257.04 394.41 1163.17 534.70 1306.55 532.81
00005401 00000049 947.74 73.50 426.62 622.17 1111.66 290.64 1302.37 290.62 1258.84 393.73 1164.94 532.03 1308.71 530.25
00005402 00000050 950.16 74.01 426.42 616.40 1113.38 292.42 1306.12 291.88 1261.02 395.88 1165.30 528.09 1313.14 525.61
00005403 00000051 953.96 70.90 427.66 617.68 1117.56 294.44 1312.84 292.65 1267.44 397.24 1169.44 527.60 1321.00 523.71
00005404 00000052 953.98 74.49 429.49 617.86 1118.46 297.00 1313.89 294.84 1268.46 399.86 1169.69 528.60 1324.58 524.36
00005405 00000053 951.84 77.57 431.03 622.19 1117.68 298.36 1312.72 296.07 1268.24 401.38 1168.67 531.33 1325.41 527.05
00005406 00000054 952.17 78.89 430.57 625.89 1120.28 299.74 1314.29 297.95 1270.36 404.96 1168.59 534.56 1324.88 530.90
00005407 00000055 954.59 78.58 430.76 627.35 1122.95 301.06 1317.71 298.11 1274.68 407.02 1172.31 537.05 1327.74 532.52
00005408 00000056 954.67 77.18 430.54 627.57 1122.95 300.40 1317.56 297.62 1274.37 404.16 1171.99 535.46 1327.19 531.08
00005409 00000057 954.35 75.86 429.53 631.82 1123.77 301.85 1316.02 299.89 1274.33 406.99 1171.46 537.85 1324.94 534.08
00005410 00000058 954.61 80.56 428.55 632.09 1123.37 306.67 1315.54 304.31 1273.80 410.13 1171.80 544.37 1324.40 540.59
00005411 00000059 954.21 82.21 426.74 630.93 1123.80 309.36 1312.92 307.11 1272.30 411.80 1172.36 546.04 1319.83 542.54
00005412 00000060 954.41 86.82 426.52 631.80 1124.34 311.81 1311.13 308.09 1272.90 414.31 1173.82 550.67 1321.05 545.80
00005413 00000061 953.00 87.63 425.18 630.30 1122.83 311.22 1309.13 307.63 1271.83 413.46 1172.72 550.79 1319.42 546.13
00005414 00000062 948.20 83.30 427.75 633.57 1118.92 309.86 1305.21 306.69 1267.64 411.94 1169.87 549.07 1316.40 544.66
00005415 00000063 942.29 83.12 432.99 629.09 1115.42 311.27 1302.15 307.57 1264.70 409.86 1166.32 545.49 1315.30 540.96
00005416 00000064 940.15 79.69 432.48 631.56 1111.11 312.68 1300.36 309.26 1259.97 410.78 1162.12 546.16 1313.48 541.80
00005417 00000065 936.62 79.44 430.77 634.39 1106.82 314.87 1293.51 311.96 1255.90 412.47 1159.45 550.13 1308.41 546.33
00005418 00000066 928.57 78.39 433.87 654.36 1100.75 320.36 1282.04 315.43 1248.62 415.12 1153.51 562.12 1295.75 557.53
00005419 00000067 929.81 85.51 429.01 659.92 1100.07 325.36 1280.62 321.64 1243.84 430.48 1151.61 574.56 1288.65 571.10
00005420 00000068 929.96 89.39 426.92 655.04 1096.27 332.58 1280.04 326.82 1241.01 437.18 1148.87 579.61 1287.48 574.95
00005421 00000069 930.29 91.15 423.66 648.56 1092.74 337.88 1278.33 329.05 1238.93 442.39 1145.59 580.41 1288.87 573.51
00005422 00000070 930.54 91.76 423.05 641.41 1092.02 338.28 1277.39 328.96 1236.62 441.54 1145.21 577.23 1288.20 570.10
00005423 00000071 929.50 88.95 423.18 635.65 1093.48 332.42 1277.28 327.40 1235.52 434.20 1143.91 568.04 1284.43 564.28
00005424 00000072 924.66 85.94 427.23 626.39 1091.15 329.52 1286.12 319.84 1238.37 429.36 1141.71 567.70 1289.08 557.90
00005425 00000073 921.98 82.15 427.00 626.12 1088.56 321.91 1282.74 312.61 1237.92 422.34 1140.93 559.78 1288.67 550.09
00005426 00000074 917.02 80.58 427.32 628.11 1083.46 313.40 1278.50 305.38 1233.86 413.13 1136.36 554.41 1283.81 545.48
00005427 00000075 913.11 79.35 425.35 624.82 1077.80 307.13 1272.56 299.36 1228.18 409.29 1130.49 548.87 1277.29 540.09
00005428 00000076 912.50 77.80 422.76 621.57 1072.79 303.79 1269.62 294.42 1222.76 407.16 1127.61 545.47 1275.37 535.21
00005429 00000077 907.01 77.51 426.02 627.60 1064.70 305.30 1264.71 293.79 1216.31 410.85 1122.72 549.33 1273.49 536.97
00005430 00000078 904.30 75.04 426.56 640.33 1063.25 313.14 1255.18 299.67 1212.17 417.44 1122.53 555.93 1267.17 542.10
00005431 00000079 903.46 76.97 426.39 644.17 1061.56 319.65 1252.57 305.21 1210.03 421.40 1120.46 561.46 1265.55 547.00
00005432 00000080 899.53 78.48 429.33 638.06 1058.85 317.34 1252.02 301.81 1210.93 419.67 1119.00 558.85 1267.54 543.63
00005433 00000081 898.48 76.55 429.88 634.05 1058.90 301.52 1256.10 287.49 1210.06 410.20 1118.55 549.26 1267.61 535.02
00005434 00000082 898.27 76.33 428.64 621.37 1054.50 296.92 1254.52 285.04 1202.84 399.00 1113.96 540.91 1262.53 528.57
00005435 00000083 897.20 72.12 426.71 618.39 1053.19 295.21 1250.96 282.84 1201.90 397.31 1112.35 537.52 1258.46 524.85
00005436 00000084 894.91 72.80 426.11 620.34 1051.38 296.58 1247.41 284.99 1200.61 398.08 1109.87 538.39 1256.62 526.51
00005437 00000085 890.29 77.68 426.59 620.72 1045.82 299.05 1240.85 287.61 1195.82 401.92 1105.31 540.65 1252.63 529.19
00005438 00000086 887.12 75.07 424.22 625.87 1043.89 297.24 1236.52 287.44 1193.94 403.69 1103.17 541.86 1247.96 531.89
00005439 00000087 882.29 73.59 426.04 627.23 1041.94 294.99 1234.42 285.31 1193.43 403.14 1102.27 541.59 1245.98 531.69
00005440 00000088 879.12 76.13 426.64 627.48 1039.30 296.44 1230.38 287.40 1190.36 402.08 1099.30 542.65 1245.29 533.28
00005441 00000089 871.06 74.78 427.65 632.01 1034.87 297.34 1224.39 289.76 1184.96 400.84 1095.66 543.36 1241.61 535.15
00005442 00000090 865.20 74.84 427.19 635.12 1032.54 298.36 1219.17 291.07 1182.51 399.81 1092.45 544.40 1238.39 536.56
00005443 00000091 861.01 74.76 427.34 635.78 1030.37 301.92 1215.39 294.78 1180.32 402.44 1089.80 546.13 1235.60 538.52
00005444 00000092 858.78 78.41 427.91 631.38 1027.01 304.64 1212.27 296.79 1177.49 402.35 1086.75 545.53 1233.83 537.43
00005445 00000093 855.16 77.87 429.44 627.49 1025.26 298.10 1213.95 292.66 1176.12 396.37 1085.81 542.12 1233.02 535.69
00005446 00000094 855.96 86.99 426.69 609.74 1025.37 304.02 1220.82 298.19 1178.53 400.12 1078.92 544.70 1228.18 537.39
00005447 00000095 851.84 82.46 424.56 616.30 1021.83 312.42 1216.72 302.76 1177.50 410.38 1076.29 548.49 1226.80 538.03
00005448 00000096 849.55 88.44 421.98 618.87 1023.65 322.58 1215.32 312.91 1177.84 418.80 1075.54 554.17 1226.40 543.97
00005449 DELETE   845.96 98.22 420.69 623.88 1029.06 334.02 1204.82 322.92 1182.58 427.10 1076.60 569.82 1214.20 559.42
00005450 00000098 843.58 105.01 418.79 623.14 1025.81 336.53 1201.34 327.01 1177.83 432.96 1074.51 576.14 1210.39 566.42
00005451 00000099 841.50 111.67 418.89 614.43 1021.57 339.19 1200.69 327.14 1177.38 437.77 1074.95 581.48 1211.70 569.55
00005452 00000100 841.62 117.48 419.02 606.23 1022.37 340.52 1201.37 326.59 1179.17 439.31 1078.23 583.35 1213.56 569.88
00005453 00000101 841.10 116.88 417.37 603.03 1022.99 340.05 1201.53 326.66 1180.32 439.43 1079.55 582.05 1213.38 569.08
00005454 00000102 839.79 113.51 417.67 603.72 1025.18 337.03 1202.14 327.01 1180.91 434.03 1080.09 575.86 1212.49 565.50
00005455 00000103 837.36 107.76 418.22 607.09 1027.50 332.35 1201.93 324.82 1184.90 430.17 1080.89 571.04 1212.21 562.86
00005456 00000104 835.81 99.72 417.24 613.31 1027.02 329.96 1200.13 323.07 1187.68 423.94 1081.78 567.35 1213.52 559.72
00005457 00000105 831.18 92.67 422.31 615.75 1028.48 323.78 1198.34 318.96 1192.30 415.25 1081.65 558.55 1214.39 552.38
00005458 00000106 828.62 89.66 425.40 614.62 1027.80 318.99 1208.37 315.18 1193.93 408.40 1083.52 547.24 1227.90 541.37
00005459 00000107 828.62 89.30 425.20 615.79 1028.99 318.11 1208.98 313.59 1195.50 409.80 1084.76 548.41 1227.47 541.77
00005460 00000108 824.59 90.79 429.32 617.53 1028.79 321.75 1207.61 318.11 1195.25 411.82 1084.22 550.12 1226.97 544.22
00005461 00000109 827.06 92.60 422.59 615.24 1031.72 320.06 1198.04 316.92 1195.96 417.50 1085.15 560.93 1213.45 556.13
00005462 00000110 825.59 94.39 421.21 616.72 1029.05 321.94 1196.51 317.02 1192.95 422.10 1082.54 564.87 1211.25 558.68
00005463 00000111 824.25 95.99 418.05 617.08 1025.39 325.85 1194.67 317.90 1188.12 427.45 1080.66 569.99 1208.87 561.22
00005464 00000112 821.28 101.76 418.44 608.83 1020.12 328.88 1191.14 319.72 1182.15 429.62 1075.09 569.36 1204.59 559.69
00005465 00000113 815.21 105.43 419.10 601.37 1014.05 328.51 1186.73 318.70 1175.25 429.43 1070.34 566.79 1198.82 556.38
00005466 00000114 807.25 101.41 423.27 607.07 1001.85 333.04 1177.75 321.79 1163.05 428.47 1056.86 560.37 1196.72 550.06
00005467 00000115 799.88 94.06 427.98 613.56 998.45 331.05 1174.27 320.90 1159.56 426.93 1054.58 559.58 1192.96 550.21
00005468 00000116 795.01 96.58 428.37 618.57 993.59 332.66 1169.20 322.56 1155.96 429.98 1049.08 564.10 1187.72 554.90
00005469 00000117 791.96 101.89 423.81 626.65 988.24 337.51 1160.10 327.31 1150.32 433.03 1046.05 571.93 1180.98 562.64
00005470 00000118 795.06 100.39 426.39 633.86 990.83 327.44 1167.10 322.00 1153.80 430.31 1052.40 578.35 1181.37 571.11
00005471 00000119 795.13 101.73 428.13 634.44 989.92 329.52 1166.45 322.11 1152.29 431.40 1053.74 579.86 1181.47 570.73
00005472 00000120 794.95 104.29 431.56 635.53 986.92 330.72 1166.16 321.17 1148.63 431.84 1051.86 581.58 1182.47 570.27
00005473 00000121 793.06 102.92 434.07 638.97 985.68 332.19 1166.61 323.47 1148.05 433.65 1050.19 584.08 1181.87 573.23
00005474 00000122 791.44 107.33 436.19 637.23 986.23 335.79 1167.66 329.13 1147.26 440.42 1047.11 587.66 1180.82 578.41
00005475 00000123 791.70 110.34 436.84 636.33 988.17 342.17 1169.11 336.62 1149.58 446.91 1047.10 591.66 1182.38 583.53
00005476 00000124 794.96 107.22 436.14 640.98 990.60 342.50 1172.44 336.51 1152.47 448.35 1049.71 593.18 1184.50 584.60
00005477 00000125 797.61 104.33 435.53 643.06 992.27 341.16 1173.95 333.69 1154.62 446.66 1051.76 593.09 1186.97 583.23
00005478 00000126 801.02 106.03 432.28 631.61 998.96 334.54 1181.09 328.39 1162.51 442.89 1058.07 588.50 1189.78 579.85
00005479 00000127 804.24 106.19 430.59 625.40 1003.76 328.92 1183.01 323.60 1165.20 435.52 1062.46 580.76 1192.96 572.87
CROP_BBOX: 614 0 1571 884
