Video ID: 	Rp8hJ4nCXdg
H: 	1608
W: 	3840
FPS: 	24.0

FRAME INDEX X0 Y0 W H [Landmarks (5 Points)]

00009717 00000000 1075.06 324.52 707.78 929.61 1189.64 664.63 1527.80 643.01 1343.95 880.15 1269.08 1062.91 1496.07 1047.11
00009718 DELETE   1075.03 323.72 713.02 948.66 1202.62 661.20 1541.90 647.36 1353.40 877.87 1274.72 1060.38 1509.48 1050.57
00009719 00000002 1083.26 325.06 708.16 932.17 1198.23 666.91 1539.87 650.44 1354.97 884.33 1276.04 1062.32 1506.73 1050.62
00009720 00000003 1081.57 330.27 707.89 930.10 1213.67 663.37 1560.10 649.74 1369.18 873.33 1277.74 1056.87 1524.41 1043.42
00009721 00000004 1087.29 338.75 707.37 923.52 1219.33 662.57 1568.51 651.08 1371.60 873.22 1279.07 1055.18 1528.85 1043.63
00009722 00000005 1093.62 335.72 704.28 927.81 1224.00 664.32 1572.67 651.56 1374.80 873.07 1283.90 1056.28 1533.88 1043.70
00009723 00000006 1099.59 339.66 702.13 921.84 1229.96 661.97 1576.91 651.39 1377.73 871.02 1287.38 1052.26 1538.35 1041.14
00009724 00000007 1104.79 337.80 699.33 921.78 1236.50 660.65 1580.95 649.91 1383.63 868.89 1290.83 1050.85 1541.44 1039.76
00009725 00000008 1109.79 340.41 696.41 919.12 1240.22 660.51 1581.90 648.42 1385.91 866.99 1296.98 1051.61 1544.12 1039.39
00009726 00000009 1114.07 338.72 693.01 919.61 1245.35 660.13 1584.99 647.73 1391.71 864.77 1301.57 1050.26 1547.44 1037.82
00009727 00000010 1115.66 338.76 691.45 917.61 1248.32 659.21 1584.62 647.63 1394.73 865.56 1304.02 1049.33 1547.20 1037.47
00009728 00000011 1116.14 338.56 692.15 916.93 1250.42 656.82 1586.49 645.48 1398.10 863.44 1306.35 1047.62 1547.74 1035.95
00009729 00000012 1116.94 339.62 692.53 916.81 1250.56 655.85 1586.35 644.34 1398.75 862.99 1307.60 1048.02 1548.46 1036.15
00009730 00000013 1115.72 337.35 693.54 917.66 1251.31 655.52 1587.88 644.22 1399.76 861.77 1307.94 1047.15 1549.03 1035.33
00009731 00000014 1116.42 337.56 694.20 916.37 1251.40 653.67 1587.69 642.12 1399.87 859.01 1309.26 1045.50 1549.52 1033.56
00009732 00000015 1116.65 338.38 693.79 915.76 1251.19 653.03 1586.97 641.94 1399.11 857.75 1308.54 1044.67 1548.72 1033.09
00009733 00000016 1116.61 337.50 695.07 915.92 1250.68 652.42 1586.81 641.07 1399.80 858.69 1308.54 1045.19 1548.99 1033.27
00009734 00000017 1117.35 338.70 693.53 916.20 1250.44 650.92 1586.97 639.78 1398.18 857.84 1307.41 1044.98 1548.51 1033.30
00009735 00000018 1116.70 338.03 695.47 916.78 1250.82 648.82 1587.65 638.65 1398.79 856.20 1307.46 1042.37 1548.62 1031.38
00009736 00000019 1116.90 337.70 697.21 916.83 1250.56 645.58 1588.04 635.49 1399.34 852.59 1308.13 1041.06 1548.89 1030.01
00009737 00000020 1118.98 332.74 695.29 920.37 1251.25 642.98 1588.65 632.47 1400.85 852.58 1310.45 1039.71 1551.61 1028.23
00009738 00000021 1118.97 335.73 694.46 917.69 1252.67 642.74 1589.51 632.45 1403.20 850.43 1310.83 1038.42 1552.38 1027.11
00009739 00000022 1121.53 334.46 693.78 922.81 1254.76 642.21 1590.41 633.03 1403.93 853.28 1312.17 1037.57 1552.90 1027.48
00009740 00000023 1123.41 337.62 693.64 922.00 1256.60 643.04 1591.69 633.73 1406.41 852.36 1314.42 1036.99 1554.33 1026.85
00009741 00000024 1124.45 338.21 695.32 924.60 1258.60 643.83 1594.70 634.01 1408.07 849.83 1314.88 1035.06 1559.33 1024.31
00009742 00000025 1126.67 334.49 694.15 931.20 1261.01 643.59 1594.12 633.88 1408.70 851.45 1318.68 1036.91 1558.40 1026.17
00009743 00000026 1127.62 334.63 696.72 932.86 1262.39 642.91 1596.25 633.50 1410.41 850.20 1320.51 1036.41 1560.52 1025.77
00009744 00000027 1127.71 332.73 696.82 932.19 1263.86 641.93 1598.92 633.10 1412.46 847.11 1320.70 1035.54 1561.76 1025.52
00009745 00000028 1128.50 331.64 697.41 932.48 1264.54 641.74 1599.49 633.31 1412.68 844.65 1321.47 1034.64 1562.48 1024.86
00009746 00000029 1129.40 332.78 696.68 931.79 1265.75 642.48 1600.57 633.90 1415.09 845.24 1322.73 1034.88 1564.19 1024.91
00009747 00000030 1129.77 330.48 698.71 931.93 1266.81 639.65 1604.32 631.90 1417.72 844.50 1323.28 1034.56 1566.13 1025.13
00009748 DELETE   1131.10 334.28 695.04 928.63 1272.01 644.34 1597.59 635.39 1422.06 839.00 1326.79 1030.85 1564.94 1020.53
00009749 00000032 1133.32 339.12 690.70 921.11 1274.48 638.42 1602.40 632.07 1425.94 838.13 1326.58 1028.36 1567.60 1019.97
00009750 DELETE   1132.53 337.69 693.72 920.06 1275.68 630.30 1613.61 625.29 1432.15 835.78 1330.99 1031.15 1570.61 1023.81
00009751 00000034 1132.77 335.88 692.17 913.97 1278.49 619.94 1620.29 615.94 1440.65 829.60 1335.93 1027.96 1575.63 1020.91
00009752 00000035 1136.57 328.14 690.27 913.87 1283.86 609.60 1627.53 605.93 1448.62 823.36 1341.48 1023.46 1580.58 1016.30
00009753 00000036 1140.34 323.26 688.07 918.26 1291.63 600.47 1637.61 601.36 1458.18 819.42 1346.07 1019.07 1588.39 1015.09
00009754 00000037 1143.27 310.78 690.46 923.55 1300.90 599.94 1649.19 601.51 1473.84 817.23 1355.91 1016.65 1599.48 1012.69
00009755 00000038 1146.30 303.83 693.30 918.73 1310.31 598.97 1661.42 600.87 1487.72 811.72 1364.88 1011.93 1610.20 1007.93
00009756 00000039 1145.85 298.97 696.23 917.25 1313.37 593.50 1667.57 591.13 1497.11 801.88 1373.08 1010.71 1618.34 1003.11
00009757 DELETE   1152.44 291.58 694.56 918.41 1323.26 585.12 1677.49 583.96 1510.50 793.87 1378.50 1003.31 1623.89 997.11
00009758 00000041 1155.05 285.53 693.37 921.77 1331.89 580.98 1685.36 580.79 1521.04 786.97 1386.12 996.06 1631.52 991.43
00009759 00000042 1156.09 281.53 699.05 921.28 1339.43 573.45 1694.23 574.17 1531.52 778.84 1390.71 990.52 1637.56 986.99
00009760 00000043 1156.20 277.55 702.35 918.00 1345.15 568.88 1702.30 571.26 1540.23 774.04 1394.94 984.23 1644.81 982.24
00009761 00000044 1162.00 265.47 692.87 930.47 1353.53 555.86 1708.37 569.62 1551.97 764.95 1407.21 965.31 1653.67 976.69
00009762 00000045 1163.36 253.10 689.39 939.82 1359.68 549.57 1710.25 563.97 1560.17 758.66 1410.79 959.69 1658.54 971.77
00009763 00000046 1163.01 246.12 687.38 942.54 1365.91 545.15 1712.75 559.31 1566.47 750.69 1417.41 955.08 1661.62 966.87
00009764 00000047 1162.82 247.05 685.23 938.40 1369.19 543.44 1712.09 556.58 1569.77 743.74 1423.88 951.52 1663.21 962.67
00009765 00000048 1161.30 244.49 689.26 937.99 1373.32 538.67 1717.70 555.08 1575.09 734.79 1427.45 947.43 1666.34 961.15
00009766 00000049 1160.08 245.03 693.51 934.37 1375.61 534.93 1718.13 551.83 1575.78 732.71 1430.22 942.83 1667.82 956.68
00009767 00000050 1161.46 243.92 692.10 934.88 1378.16 531.77 1721.27 550.36 1578.01 730.08 1430.34 938.94 1670.71 954.15
00009768 00000051 1160.80 244.43 691.67 932.56 1378.28 531.55 1720.95 550.11 1578.15 729.14 1429.67 936.18 1673.29 951.22
00009769 00000052 1159.96 245.56 690.74 931.03 1378.15 529.64 1721.70 549.13 1577.79 727.16 1428.38 934.96 1671.99 950.83
00009770 00000053 1159.17 245.85 690.84 931.65 1378.87 528.41 1724.01 549.30 1578.94 727.57 1426.55 934.22 1672.32 951.22
00009771 00000054 1158.48 248.42 692.11 927.90 1377.72 529.40 1724.01 548.82 1578.50 727.96 1428.51 935.04 1672.49 950.82
00009772 00000055 1157.53 247.78 692.59 931.18 1376.86 528.07 1723.50 547.82 1578.21 729.10 1428.81 935.90 1670.72 951.97
00009773 00000056 1156.58 249.34 693.83 930.86 1377.20 527.88 1723.96 548.56 1578.57 726.85 1428.25 934.81 1671.19 951.62
00009774 00000057 1157.04 247.65 692.48 931.02 1377.72 526.66 1724.77 548.25 1578.92 727.77 1428.14 933.95 1670.33 951.59
00009775 00000058 1156.71 245.60 693.43 931.80 1379.16 527.94 1725.60 550.44 1579.98 727.95 1427.98 933.11 1670.96 951.44
00009776 00000059 1157.06 244.43 691.40 930.51 1379.54 529.20 1724.83 551.25 1579.38 727.70 1427.67 932.37 1670.41 950.37
00009777 00000060 1154.55 246.19 693.03 928.72 1378.41 529.73 1723.85 551.61 1578.29 728.60 1427.84 932.43 1670.51 950.26
00009778 00000061 1145.40 258.50 708.61 910.57 1380.20 540.63 1722.26 548.61 1586.95 735.00 1423.51 944.44 1671.94 948.23
00009779 00000062 1142.99 255.87 709.10 915.72 1378.93 542.51 1720.12 549.93 1584.83 736.80 1423.07 946.54 1668.31 949.90
00009780 00000063 1138.67 258.02 713.44 916.78 1377.84 543.64 1718.24 551.73 1583.48 736.56 1421.43 947.00 1665.46 950.79
00009781 00000064 1135.89 250.74 711.41 925.12 1375.91 546.23 1714.21 554.10 1582.67 737.12 1419.63 947.58 1662.68 951.43
00009782 00000065 1132.83 253.27 715.21 923.45 1373.61 549.24 1712.50 556.97 1579.44 738.50 1417.38 950.55 1660.76 954.15
00009783 00000066 1130.09 247.22 716.52 929.07 1372.47 553.65 1710.37 562.66 1576.89 743.08 1412.85 949.82 1659.94 954.63
00009784 00000067 1127.29 246.64 714.79 928.37 1367.22 556.32 1706.86 567.76 1573.00 748.74 1406.26 952.16 1653.98 958.92
00009785 00000068 1124.63 248.81 716.68 928.71 1363.23 557.85 1705.25 569.09 1569.53 754.93 1402.92 954.49 1651.87 960.95
00009786 00000069 1123.20 250.33 715.25 929.69 1359.51 560.42 1702.95 571.63 1565.02 760.94 1398.42 957.32 1648.97 963.68
00009787 00000070 1123.20 249.78 711.12 932.74 1357.72 561.42 1700.78 573.27 1563.84 763.20 1396.61 959.38 1646.58 966.26
00009788 00000071 1121.15 254.71 714.34 931.37 1355.39 562.62 1700.20 574.33 1560.36 766.60 1395.89 963.91 1644.78 970.27
00009789 00000072 1120.10 255.90 714.57 933.43 1350.66 562.69 1697.39 572.98 1556.33 768.63 1392.75 969.29 1641.82 974.19
00009790 00000073 1118.04 257.01 715.20 937.65 1347.86 563.42 1696.27 573.12 1554.07 770.04 1391.70 971.29 1642.40 975.41
00009791 00000074 1118.43 251.68 714.94 944.54 1345.66 563.81 1695.49 572.26 1552.24 767.94 1390.51 973.71 1641.62 976.55
00009792 00000075 1117.68 255.80 714.69 942.82 1343.10 565.35 1694.38 572.49 1550.14 768.68 1389.74 976.02 1641.40 977.67
00009793 00000076 1118.10 257.96 715.27 942.73 1342.17 564.90 1693.27 572.71 1547.53 769.54 1388.63 976.14 1640.75 978.37
00009794 00000077 1119.09 262.36 711.96 940.22 1340.06 564.99 1692.22 572.01 1546.01 770.12 1389.43 978.93 1640.49 980.30
00009795 00000078 1118.79 259.48 712.17 943.97 1340.16 567.19 1692.62 573.59 1545.71 771.79 1390.27 979.78 1642.12 980.59
00009796 00000079 1118.93 266.31 712.33 941.36 1339.35 570.44 1691.19 576.45 1545.09 773.82 1391.11 981.12 1642.76 981.49
00009797 00000080 1120.67 266.70 711.47 941.06 1339.99 572.26 1691.33 579.81 1543.93 774.49 1389.70 981.97 1642.24 983.57
00009798 00000081 1122.97 273.28 711.08 936.08 1342.84 572.37 1693.49 581.11 1546.62 778.94 1391.03 981.34 1644.00 984.07
00009799 00000082 1123.29 273.32 711.51 937.06 1344.06 573.52 1695.11 583.50 1548.01 781.28 1390.90 981.98 1645.63 985.92
00009800 00000083 1123.51 270.68 713.70 941.52 1344.49 574.66 1695.96 584.92 1548.62 781.86 1390.72 981.93 1647.27 986.01
00009801 00000084 1125.59 268.80 711.69 943.72 1346.38 576.68 1698.31 586.71 1550.49 786.19 1392.21 983.50 1648.49 987.47
00009802 00000085 1126.22 265.66 710.94 949.09 1348.16 578.29 1701.01 589.12 1554.27 790.43 1392.14 984.52 1650.65 989.29
00009803 00000086 1129.18 267.55 711.16 947.52 1352.94 580.75 1706.28 591.47 1562.17 791.86 1397.58 987.58 1657.70 992.21
00009804 00000087 1132.39 270.81 710.22 939.18 1356.90 581.57 1709.47 589.74 1565.19 791.22 1403.47 989.08 1661.71 991.69
00009805 00000088 1141.20 274.72 703.17 939.94 1359.83 578.07 1710.80 592.25 1568.58 786.66 1407.94 982.52 1666.88 994.54
00009806 00000089 1144.48 284.87 701.00 928.73 1363.25 579.17 1716.48 592.65 1572.97 788.22 1412.43 983.91 1671.98 995.61
00009807 00000090 1149.74 274.63 697.41 936.96 1368.04 581.16 1718.37 594.02 1578.84 788.83 1417.32 983.84 1677.25 995.08
00009808 00000091 1158.19 286.20 690.52 920.94 1370.44 580.62 1720.56 592.93 1579.39 788.44 1422.40 982.13 1679.60 993.25
00009809 00000092 1164.19 280.82 695.18 922.83 1375.14 589.13 1730.19 600.65 1583.01 788.78 1428.08 984.26 1693.23 994.15
00009810 DELETE   1169.78 274.17 689.84 928.81 1382.04 599.25 1723.52 606.95 1586.51 782.41 1433.02 984.03 1697.11 990.98
00009811 00000094 1176.59 268.97 692.81 930.67 1389.41 603.22 1735.24 611.72 1593.84 784.72 1437.51 985.02 1703.66 992.48
00009812 DELETE   1177.32 271.38 697.51 930.97 1393.69 599.43 1743.78 610.49 1602.79 790.42 1441.50 986.85 1710.09 996.28
00009813 DELETE   1184.79 280.00 699.12 926.21 1397.65 599.70 1752.22 615.34 1604.72 801.70 1442.19 990.08 1714.66 1003.27
00009814 00000097 1192.37 275.82 695.41 929.53 1403.04 597.09 1760.20 616.21 1609.37 807.57 1443.61 992.05 1718.33 1008.50
00009815 00000098 1195.86 277.51 698.28 930.48 1405.14 597.47 1764.43 618.32 1608.78 810.65 1443.56 994.02 1717.60 1011.87
00009816 00000099 1197.42 283.74 698.46 922.92 1405.78 596.69 1765.35 618.85 1609.17 812.27 1443.23 994.52 1715.90 1013.29
00009817 00000100 1197.93 287.77 699.61 921.82 1406.74 596.79 1767.46 618.67 1611.04 815.39 1444.46 996.32 1718.07 1015.05
00009818 00000101 1198.61 287.46 703.10 925.27 1403.43 596.09 1766.91 616.00 1608.61 817.21 1441.49 997.34 1717.42 1014.44
00009819 00000102 1200.05 290.64 703.76 923.74 1402.42 596.83 1767.83 615.62 1607.65 817.86 1440.40 998.22 1718.28 1014.17
00009820 00000103 1202.07 290.38 704.62 924.52 1405.58 597.60 1769.09 617.12 1609.17 816.50 1441.10 996.78 1719.31 1013.38
00009821 00000104 1207.10 288.50 699.54 925.15 1407.80 595.38 1771.67 614.99 1611.62 814.27 1443.06 995.25 1721.81 1011.79
00009822 00000105 1212.81 283.52 695.82 923.82 1409.60 595.19 1774.92 612.58 1615.04 807.77 1449.95 995.34 1727.98 1009.54
00009823 00000106 1217.41 270.91 691.45 932.09 1415.41 594.26 1776.51 607.74 1622.12 804.22 1457.69 995.42 1732.18 1006.48
00009824 00000107 1221.63 269.36 690.90 930.52 1422.47 592.14 1780.29 605.79 1628.60 802.52 1467.37 992.14 1737.36 1003.09
00009825 00000108 1226.26 266.29 688.90 929.24 1429.42 586.80 1785.01 599.48 1636.35 798.04 1477.31 988.26 1742.03 998.38
00009826 00000109 1232.19 258.62 686.71 932.25 1435.04 581.23 1789.16 592.26 1642.09 792.95 1485.79 986.14 1747.49 994.48
00009827 00000110 1235.33 250.66 692.46 938.68 1441.40 577.95 1798.45 591.04 1651.41 788.00 1490.83 983.08 1754.01 992.76
00009828 00000111 1236.69 254.26 697.91 935.34 1450.76 573.00 1805.08 590.05 1661.79 784.04 1498.32 974.06 1761.32 986.31
00009829 00000112 1239.67 250.03 699.83 937.18 1458.11 576.69 1812.03 590.81 1666.62 783.11 1504.48 970.09 1767.56 979.96
00009830 DELETE   1235.46 248.63 706.47 938.71 1468.52 570.43 1811.25 592.67 1665.98 765.17 1500.06 955.37 1760.53 972.88
00009831 00000114 1243.81 234.39 701.96 946.61 1473.60 561.66 1815.64 580.63 1671.05 761.18 1510.19 951.16 1765.90 965.78
00009832 00000115 1247.96 236.71 694.86 941.63 1469.97 554.85 1819.74 566.19 1680.26 766.97 1521.11 960.72 1774.66 967.25
00009833 00000116 1245.59 241.37 696.24 938.98 1470.16 550.61 1818.94 562.31 1679.95 765.22 1518.99 955.85 1772.23 962.78
00009834 00000117 1245.30 237.16 697.52 939.64 1470.59 547.92 1819.61 562.46 1678.32 759.16 1519.43 951.76 1770.56 961.02
00009835 00000118 1243.08 233.61 695.18 937.84 1467.48 545.41 1815.69 559.76 1677.42 750.05 1518.07 948.73 1768.46 957.62
00009836 00000119 1238.08 232.01 697.15 938.33 1462.84 542.78 1812.57 557.02 1674.88 744.52 1513.53 945.03 1766.02 953.74
00009837 00000120 1237.25 228.77 690.00 940.68 1457.27 537.68 1806.54 551.58 1670.22 738.35 1506.71 941.35 1761.81 949.79
00009838 00000121 1233.33 224.68 688.38 940.14 1453.81 534.45 1802.48 550.32 1665.89 730.73 1500.80 935.71 1758.31 945.99
00009839 00000122 1231.42 223.88 688.91 937.71 1451.34 530.95 1801.49 548.68 1663.01 727.03 1497.35 932.17 1755.10 944.22
00009840 00000123 1228.20 218.58 691.61 943.17 1451.11 527.54 1800.98 547.02 1662.52 718.87 1493.70 928.45 1749.98 942.35
00009841 00000124 1225.40 218.79 691.57 942.63 1451.94 524.89 1799.85 545.77 1665.83 715.61 1494.36 925.50 1749.15 940.58
00009842 00000125 1226.19 223.85 691.49 939.92 1450.42 524.50 1797.02 543.57 1663.49 713.35 1495.87 928.78 1746.62 942.64
00009843 00000126 1226.56 221.70 692.18 934.81 1453.20 525.21 1800.81 546.86 1666.59 712.97 1497.05 925.92 1749.19 941.95
00009844 00000127 1219.65 221.76 698.82 934.60 1457.71 537.61 1799.78 556.27 1670.59 709.02 1501.29 916.91 1760.42 929.96
00009845 DELETE   1217.05 218.18 700.58 934.23 1462.01 541.91 1802.66 563.53 1674.40 706.13 1504.06 915.55 1763.49 930.94
00009846 00000129 1224.87 227.08 694.63 923.61 1464.27 537.01 1807.95 564.65 1676.10 708.84 1501.43 913.21 1764.90 934.09
00009847 00000130 1228.11 217.39 697.79 927.03 1470.84 535.09 1816.11 564.83 1682.53 712.40 1505.38 911.84 1766.14 935.09
00009848 00000131 1232.29 212.62 695.96 928.23 1476.50 528.54 1822.19 562.43 1687.22 706.61 1508.01 906.65 1768.40 933.77
00009849 00000132 1234.92 205.14 700.30 933.41 1480.61 514.70 1826.51 553.58 1687.65 703.68 1506.92 899.01 1766.37 930.16
00009850 00000133 1236.53 207.67 701.30 930.48 1482.12 509.60 1826.91 551.13 1685.02 696.70 1506.41 898.07 1760.32 931.10
CROP_BBOX: 784 0 2282 1486
