Video ID: 	LKXQwrjdxOU
H: 	1080
W: 	1920
FPS: 	25.0

FRAME INDEX X0 Y0 W H [Landmarks (5 Points)]

00037402 00000000 579.74 186.04 435.73 620.10 740.78 395.70 925.60 358.07 903.36 489.28 795.80 644.19 947.41 611.65
00037403 00000001 575.41 190.76 433.71 601.12 736.47 392.78 924.78 356.16 908.47 490.24 778.63 629.31 938.13 598.58
00037404 00000002 586.81 175.02 416.67 597.61 746.74 388.36 935.35 352.45 922.33 499.17 785.08 621.00 943.88 593.76
00037405 00000003 586.34 177.19 411.36 578.95 753.33 396.20 935.27 356.28 924.37 503.98 794.22 616.91 941.41 586.73
00037406 00000004 571.32 181.26 420.77 569.35 751.80 403.71 929.83 359.71 923.87 504.13 796.71 619.73 938.54 585.42
00037407 00000005 576.63 177.77 401.76 564.30 733.64 401.73 920.66 351.08 908.90 490.19 785.19 617.50 934.91 576.78
00037408 DELETE   567.45 168.37 399.63 567.86 723.89 390.64 909.05 340.46 899.34 483.36 777.25 615.34 917.32 574.60
00037409 00000007 557.30 165.35 400.68 556.38 715.04 375.57 890.19 330.90 879.08 469.24 777.74 599.56 904.39 562.28
00037410 00000008 552.76 157.21 394.64 549.01 713.77 363.81 881.99 328.43 870.53 458.04 779.18 582.14 897.36 551.90
00037411 00000009 541.67 152.64 397.57 545.21 708.31 351.75 874.18 321.57 865.48 446.47 775.81 569.48 893.62 542.88
00037412 00000010 532.74 150.01 401.01 559.27 703.71 344.24 866.16 319.94 860.93 440.72 759.61 566.34 879.63 544.99
00037413 00000011 526.64 168.01 401.48 554.53 699.94 361.55 866.40 333.62 860.65 463.23 741.10 580.05 870.97 557.30
00037414 00000012 523.98 177.64 388.15 557.02 684.11 392.11 855.85 348.59 844.06 482.26 714.88 600.00 859.21 566.25
00037415 00000013 519.17 178.26 376.01 557.51 667.29 412.86 848.31 363.03 834.05 503.94 695.88 615.11 845.80 577.27
00037416 00000014 505.18 166.91 378.83 570.10 656.45 414.27 830.28 366.36 819.53 498.33 691.06 612.97 833.83 576.00
00037417 DELETE   497.71 187.06 375.24 534.63 645.61 402.85 812.02 362.57 798.15 483.11 697.79 599.79 825.38 567.10
00037418 00000016 485.63 176.07 378.26 536.57 630.05 394.93 800.87 355.15 780.62 482.07 685.30 595.87 810.33 562.51
00037419 00000017 472.72 189.97 380.23 526.97 614.62 388.99 795.28 361.05 762.54 492.20 667.85 596.77 797.51 573.62
00037420 00000018 465.42 184.75 384.18 538.20 607.66 393.29 791.39 365.24 757.56 500.24 662.30 605.82 794.19 582.90
00037421 00000019 454.03 186.75 395.72 542.86 605.51 399.78 792.79 369.55 758.31 508.51 658.59 613.04 795.66 588.62
00037422 00000020 452.83 192.10 397.72 538.74 606.31 406.97 793.12 375.93 759.22 515.72 655.72 612.90 797.58 587.96
00037423 00000021 455.86 200.52 398.32 534.43 611.37 407.12 793.48 377.25 763.59 518.23 656.27 612.00 794.87 588.41
00037424 00000022 472.52 202.07 384.72 537.11 620.20 401.66 798.05 375.82 768.98 514.59 656.05 607.60 793.88 587.31
00037425 00000023 481.68 195.11 384.71 552.71 637.79 396.38 803.81 370.63 778.81 505.74 658.73 604.72 797.21 584.68
00037426 00000024 487.05 191.91 381.88 557.32 643.38 397.58 810.69 371.02 786.92 505.26 662.15 605.23 802.67 585.09
00037427 00000025 494.77 172.57 376.63 564.64 641.99 407.83 814.52 376.87 786.00 505.54 667.31 602.95 810.17 578.77
00037428 00000026 525.91 176.61 358.49 558.32 648.20 403.99 830.53 370.16 797.00 504.12 669.89 602.11 823.91 577.14
00037429 00000027 530.12 167.75 360.99 561.11 656.97 404.48 833.48 364.71 809.46 491.39 691.00 600.75 837.37 569.76
00037430 00000028 536.47 166.75 367.34 553.82 665.62 400.13 837.65 357.10 818.60 480.02 705.96 593.19 852.51 558.71
00037431 00000029 547.58 171.89 366.16 542.21 675.41 372.79 847.96 346.93 822.98 465.10 713.70 577.57 861.05 556.76
00037432 00000030 548.60 173.04 374.64 534.01 683.79 369.23 853.98 339.97 829.33 455.16 726.14 569.54 866.62 545.77
00037433 00000031 534.64 171.16 388.58 533.29 686.55 373.21 855.64 344.11 835.17 459.46 727.27 568.51 866.60 545.48
00037434 00000032 541.63 171.85 378.89 523.87 686.93 378.81 860.08 346.91 841.21 470.25 726.92 575.15 865.83 550.74
00037435 00000033 540.03 169.84 378.36 538.28 683.28 380.30 860.15 351.64 836.17 472.92 727.12 581.78 865.59 559.68
00037436 00000034 538.58 169.25 381.19 535.44 684.54 380.03 861.77 349.05 838.50 472.52 728.44 581.50 866.93 557.17
00037437 00000035 539.51 165.63 386.62 531.08 690.67 366.64 864.11 336.60 840.75 463.40 732.83 573.95 869.42 549.42
00037438 00000036 542.37 159.83 391.35 528.23 691.77 347.36 866.36 323.42 840.35 444.26 735.59 556.33 875.05 536.16
00037439 00000037 555.26 151.62 384.10 532.24 697.53 339.96 867.25 315.12 843.48 432.20 738.90 543.70 877.46 523.63
00037440 00000038 552.93 144.34 390.14 548.44 700.62 333.76 875.14 313.43 854.66 430.32 733.98 542.96 880.78 526.52
00037441 00000039 552.00 139.93 393.70 561.62 704.90 338.16 877.20 318.29 861.34 434.24 732.80 548.16 879.87 532.32
00037442 00000040 555.11 149.00 394.89 555.78 708.58 344.60 880.60 321.59 865.26 439.51 741.23 555.60 885.69 537.14
00037443 00000041 559.46 150.97 394.32 546.16 713.43 347.43 884.38 322.53 865.88 441.88 751.34 556.69 891.50 536.27
00037444 00000042 555.98 144.72 399.19 539.31 714.30 346.44 890.26 320.90 869.55 440.18 752.86 549.86 897.64 528.94
00037445 00000043 570.38 146.06 388.35 535.23 715.93 344.03 892.30 316.73 870.37 437.14 762.03 554.22 903.22 531.24
00037446 00000044 574.55 143.35 384.73 537.18 717.30 341.14 890.84 317.44 865.72 431.16 765.36 551.31 901.17 530.78
00037447 00000045 573.24 139.10 386.46 537.46 715.85 335.40 889.84 315.14 861.68 424.23 764.61 545.41 899.98 527.01
00037448 00000046 571.66 124.90 387.78 550.25 716.13 330.05 888.97 313.43 858.92 419.65 763.29 541.15 897.01 525.72
00037449 00000047 569.14 120.15 389.45 556.28 717.53 327.48 887.37 314.10 858.76 417.81 765.07 541.21 894.04 528.44
00037450 00000048 569.36 116.36 388.00 557.95 717.77 327.64 886.85 314.28 859.11 416.84 765.74 541.05 894.17 528.43
00037451 00000049 568.79 117.32 388.27 558.28 717.92 327.05 886.99 313.85 859.75 416.48 766.67 541.79 895.09 529.20
00037452 00000050 567.88 117.68 390.69 561.36 717.96 326.75 886.74 313.72 860.22 416.30 766.61 542.78 895.28 530.27
00037453 00000051 572.45 121.15 386.42 556.49 718.02 324.63 888.33 312.20 860.74 415.60 763.65 540.96 895.62 529.29
00037454 00000052 576.77 114.60 381.75 559.92 714.94 327.67 896.51 311.03 865.69 413.48 751.42 535.00 901.36 521.67
00037455 00000053 564.50 119.69 393.07 561.96 718.06 328.45 891.94 314.38 865.77 418.76 754.03 538.58 895.56 526.14
00037456 00000054 562.16 122.63 395.29 570.63 715.07 331.51 888.45 319.27 863.80 421.76 748.21 543.09 890.26 532.31
00037457 00000055 559.77 135.36 397.14 568.29 710.97 330.17 886.87 318.58 863.24 423.92 741.02 546.36 887.59 536.57
00037458 00000056 562.00 132.92 391.19 562.26 711.68 322.95 887.57 316.57 865.35 416.58 738.79 536.93 886.02 531.79
00037459 00000057 565.43 130.11 386.85 562.58 711.32 321.87 886.84 316.65 861.73 415.23 735.03 532.44 884.65 528.52
00037460 00000058 561.02 126.92 389.01 562.02 712.77 325.50 889.07 323.90 859.65 422.77 736.65 533.98 884.40 532.52
00037461 00000059 559.15 128.51 389.01 562.99 714.96 335.34 889.15 331.30 860.21 436.80 735.77 538.84 884.19 536.03
00037462 00000060 561.42 128.91 389.38 572.49 719.15 345.42 893.24 340.56 865.69 446.57 737.65 551.70 883.62 548.97
00037463 00000061 558.22 152.49 394.30 557.90 724.82 349.28 897.99 347.16 868.75 458.04 740.38 560.70 879.59 559.74
00037464 00000062 555.43 148.61 395.18 569.07 726.86 351.14 898.71 352.99 869.91 460.71 742.89 569.11 875.86 570.97
00037465 00000063 559.06 151.72 388.63 555.81 723.31 350.70 897.46 348.34 869.26 458.27 751.30 567.89 882.05 565.72
00037466 00000064 563.85 145.77 381.83 542.19 720.97 343.65 893.72 334.67 863.56 446.83 763.26 559.08 889.73 550.55
00037467 00000065 552.65 118.78 391.03 567.81 718.99 333.33 882.59 327.52 859.14 429.55 762.56 547.64 882.11 541.48
00037468 00000066 559.57 106.76 371.07 567.21 713.87 310.61 871.51 308.61 855.26 407.99 758.28 532.92 872.66 530.92
00037469 00000067 549.63 104.13 383.27 547.51 708.39 286.52 869.35 284.39 850.96 379.91 759.62 503.83 876.40 501.36
00037470 00000068 548.37 74.86 386.36 559.96 705.62 275.37 860.70 273.57 843.34 357.87 762.32 486.96 873.52 484.20
00037471 00000069 550.65 73.40 386.78 556.77 706.44 272.11 866.52 272.34 844.82 353.81 759.12 481.85 876.75 480.99
00037472 00000070 551.60 79.10 384.00 553.40 706.96 275.60 864.01 276.28 846.33 356.72 761.46 485.54 875.60 484.70
00037473 00000071 550.53 83.51 387.57 558.08 705.91 279.04 867.54 281.01 846.67 361.96 759.63 493.25 876.90 493.33
00037474 00000072 546.45 83.03 392.23 572.70 705.79 280.22 864.23 280.42 846.32 363.06 759.27 496.78 877.55 495.42
00037475 00000073 545.30 85.13 394.46 578.64 702.78 277.85 863.97 282.14 844.36 359.72 749.56 494.36 877.28 496.48
00037476 00000074 546.52 87.87 390.23 576.91 698.87 274.08 866.52 283.28 846.26 361.78 737.39 496.56 873.32 503.46
00037477 00000075 544.81 87.93 389.37 565.89 700.28 278.87 867.48 287.01 844.74 367.50 735.51 494.58 871.15 500.67
00037478 00000076 542.24 87.91 394.89 561.22 701.98 283.22 871.73 288.83 847.13 370.24 736.39 491.46 876.90 495.36
00037479 00000077 543.26 88.80 398.31 553.65 705.57 287.08 876.71 289.89 851.39 369.61 739.57 486.34 882.67 487.77
00037480 00000078 547.76 94.98 396.75 543.83 709.17 289.12 881.15 291.64 855.35 371.67 743.35 487.25 885.32 488.47
00037481 00000079 555.83 112.29 390.80 532.34 713.80 292.44 885.97 292.35 865.31 381.72 749.43 498.88 888.50 498.35
00037482 00000080 565.74 114.51 382.50 538.34 717.94 303.42 890.06 297.07 867.82 395.55 748.71 507.55 889.87 502.55
00037483 00000081 577.33 128.14 370.49 542.93 719.74 316.42 894.21 312.85 868.47 409.00 749.55 524.31 892.16 522.24
00037484 00000082 568.22 130.49 379.26 551.14 725.05 332.61 889.53 324.43 868.16 431.83 759.09 544.55 886.16 537.63
00037485 00000083 561.49 146.21 384.04 541.62 723.45 340.17 890.97 330.03 870.16 442.99 755.62 551.69 884.35 543.25
00037486 00000084 550.40 151.15 395.50 538.81 722.80 345.80 892.12 336.40 866.99 448.96 747.66 549.13 883.07 541.91
00037487 00000085 549.97 141.81 394.51 539.33 723.48 338.93 889.20 327.84 872.06 437.90 750.41 540.30 885.25 532.10
00037488 00000086 569.29 134.54 375.68 532.14 724.23 316.23 887.67 307.23 873.69 412.74 758.27 524.03 888.69 517.15
00037489 00000087 561.27 97.01 380.89 546.27 715.34 304.00 880.42 291.27 865.87 388.91 757.11 503.51 890.34 492.60
00037490 00000088 556.54 96.09 383.67 544.80 708.55 300.62 875.09 291.95 857.45 385.68 752.21 503.35 885.65 495.73
00037491 00000089 558.98 111.22 375.43 543.01 705.48 311.75 876.43 298.90 856.28 402.92 741.96 517.15 879.39 507.20
00037492 00000090 543.69 119.98 382.77 555.27 697.14 331.65 870.98 313.43 853.41 427.80 726.50 536.63 872.13 522.60
00037493 00000091 530.35 157.95 401.54 525.82 699.40 335.83 868.97 323.40 843.35 442.88 726.11 541.26 867.42 530.97
00037494 00000092 528.03 162.11 399.72 522.93 690.13 345.65 864.16 321.22 845.07 442.48 717.65 547.77 868.13 529.11
00037495 00000093 533.18 151.68 392.66 519.25 686.76 337.09 860.90 313.77 840.86 427.13 716.88 532.15 869.19 514.07
00037496 00000094 534.21 115.83 383.00 544.18 682.23 318.83 855.67 300.20 835.55 407.91 712.29 514.71 867.61 500.66
00037497 00000095 527.87 110.92 390.75 561.06 678.82 317.35 854.97 299.91 834.87 402.15 696.21 510.93 864.31 499.19
00037498 00000096 528.65 111.26 386.92 568.23 672.71 310.77 847.36 297.23 828.11 403.44 693.48 518.97 858.15 508.72
00037499 00000097 528.57 113.13 385.39 565.73 672.47 316.57 848.28 298.96 829.42 408.18 699.37 525.70 859.97 512.19
00037500 00000098 527.38 117.19 386.54 554.25 674.32 326.42 849.05 300.33 829.64 412.93 711.12 526.31 866.03 505.62
00037501 00000099 525.43 114.65 392.38 561.00 671.49 331.53 850.75 304.72 828.19 408.03 711.79 532.04 865.33 510.24
00037502 00000100 527.16 109.79 386.50 559.37 674.58 324.83 843.85 305.97 821.91 407.79 725.16 536.07 858.73 520.58
00037503 00000101 532.71 109.72 382.61 561.34 678.88 327.65 844.34 311.19 823.74 406.92 727.54 534.92 858.49 521.98
00037504 00000102 540.82 104.70 375.99 566.48 681.60 323.22 843.79 310.46 823.36 401.99 731.32 531.05 857.55 522.12
00037505 00000103 544.72 111.33 375.75 558.56 687.72 317.51 848.77 308.21 829.76 398.17 737.21 525.65 863.61 518.90
00037506 00000104 539.11 110.52 383.10 562.86 691.08 320.32 852.10 312.74 834.43 400.00 737.36 526.28 866.45 520.81
00037507 00000105 546.41 128.28 383.45 556.15 698.08 318.07 862.84 313.61 840.13 407.17 742.06 536.74 870.55 532.03
00037508 00000106 545.19 129.42 387.47 565.60 696.92 334.34 866.92 326.39 839.25 423.97 739.72 549.89 874.79 542.49
00037509 00000107 548.53 158.25 380.51 542.94 695.23 343.52 862.47 332.62 836.03 438.26 742.20 560.62 868.27 551.60
00037510 00000108 540.73 167.55 377.52 539.39 696.69 355.89 861.35 344.68 838.27 457.77 744.97 576.01 863.97 565.78
00037511 00000109 539.41 172.98 376.57 542.48 700.27 374.06 861.05 355.21 843.60 468.31 738.58 588.75 862.58 573.97
00037512 00000110 535.03 180.95 376.53 542.88 693.04 385.61 861.04 363.83 837.57 474.61 731.50 594.43 863.34 576.46
00037513 00000111 528.12 193.34 380.58 544.22 685.69 396.37 860.20 368.06 837.89 495.87 716.83 605.65 855.61 583.07
00037514 00000112 518.48 204.10 387.60 544.49 681.06 403.14 852.61 374.80 834.98 510.27 706.35 620.24 843.88 598.22
00037515 00000113 510.08 193.15 389.72 551.19 673.35 409.85 849.65 377.36 831.38 515.38 696.85 618.06 843.02 593.43
00037516 00000114 521.22 193.64 376.21 540.44 671.07 407.18 855.51 370.63 831.35 505.74 701.37 611.05 849.20 583.08
00037517 00000115 522.49 174.22 369.13 537.20 673.39 399.51 843.88 365.93 827.63 478.12 704.22 587.76 845.25 561.75
00037518 DELETE   510.46 190.54 385.20 511.36 666.42 371.45 832.76 346.27 819.68 456.41 701.59 571.67 836.32 552.13
00037519 DELETE   510.67 168.38 382.36 517.98 651.05 357.05 822.93 328.63 805.60 435.86 692.19 554.59 837.86 531.90
00037520 00000118 504.81 136.29 384.93 541.52 643.81 342.86 816.45 315.89 800.22 417.72 689.11 540.11 837.44 517.79
00037521 00000119 500.49 102.61 388.82 554.30 637.28 332.43 813.81 298.87 790.84 397.19 685.14 522.10 839.77 494.07
00037522 00000120 496.83 110.44 394.36 540.46 635.05 320.94 809.90 287.81 786.23 389.94 688.95 516.80 837.14 488.87
00037523 00000121 494.00 109.72 398.32 540.70 633.85 314.84 803.95 286.44 777.92 383.84 691.56 513.81 831.45 489.60
00037524 00000122 493.84 109.45 397.40 542.73 632.94 317.99 804.08 289.39 776.40 387.14 690.20 517.19 830.80 492.79
00037525 00000123 500.39 110.29 392.11 541.52 632.64 327.70 808.04 291.22 781.39 394.24 685.79 520.45 836.47 489.71
00037526 00000124 498.04 110.37 392.57 552.66 633.31 335.82 811.95 303.92 782.87 403.57 684.55 530.72 835.12 503.39
00037527 00000125 493.09 132.32 394.30 550.44 637.85 344.47 809.68 316.43 785.50 423.74 688.89 548.99 828.02 524.53
00037528 00000126 493.59 142.25 391.74 548.40 637.48 347.82 809.57 319.80 786.83 432.09 686.76 556.77 823.92 532.83
00037529 00000127 489.33 142.51 395.90 553.42 636.44 352.01 808.14 324.85 786.74 436.68 684.97 560.83 822.05 537.43
00037530 00000128 482.71 140.97 399.72 559.75 635.28 352.88 806.97 328.23 785.50 440.53 682.09 562.56 819.43 541.20
00037531 00000129 482.52 137.18 395.45 557.98 633.62 352.23 807.30 327.90 783.21 443.57 679.03 560.96 817.15 540.36
00037532 00000130 479.55 144.46 394.66 545.53 631.05 351.78 804.16 327.22 780.88 443.96 674.11 556.42 814.81 535.76
00037533 00000131 489.35 155.96 383.32 529.03 627.76 345.52 801.92 322.48 776.73 435.20 672.56 551.82 813.85 532.84
00037534 00000132 483.92 123.90 389.07 553.16 626.78 332.61 803.34 313.18 775.68 421.03 673.63 542.81 816.83 525.70
00037535 00000133 489.91 111.27 381.75 549.87 621.15 327.22 794.47 301.54 764.80 403.22 669.98 523.00 816.46 502.10
00037536 00000134 485.27 109.55 384.53 550.39 618.98 321.46 793.64 294.88 767.32 400.17 668.62 521.33 815.89 500.02
00037537 00000135 483.99 115.27 383.08 548.47 617.23 324.17 789.90 299.39 762.60 403.48 670.80 526.07 812.26 506.06
00037538 00000136 474.54 117.44 392.80 549.61 611.74 334.59 783.55 307.57 754.05 405.19 668.93 529.59 809.05 507.16
00037539 00000137 469.88 119.67 397.59 552.89 605.42 339.02 780.28 313.77 743.79 410.70 657.90 532.65 803.25 511.81
00037540 00000138 461.58 130.94 404.01 544.85 596.71 336.80 773.58 316.21 731.43 418.44 646.79 535.43 792.13 518.54
00037541 00000139 459.98 135.03 406.61 548.60 590.30 341.21 775.79 324.57 721.64 432.12 636.10 544.88 788.02 531.12
00037542 00000140 469.83 161.17 398.44 545.80 590.07 339.91 776.58 329.71 714.31 437.00 624.62 556.94 773.62 547.68
00037543 00000141 471.52 181.22 403.59 544.12 592.55 344.02 782.95 341.99 713.96 447.69 618.91 568.24 773.60 565.59
00037544 00000142 479.57 191.14 401.13 519.98 605.72 352.37 789.74 349.06 723.28 462.17 625.24 569.01 764.24 566.11
00037545 00000143 494.10 199.74 397.60 502.88 623.58 363.83 800.65 357.30 740.34 474.60 673.69 577.51 788.46 570.34
00037546 00000144 504.02 208.84 400.69 522.87 632.50 375.72 814.64 371.19 754.50 482.10 663.45 589.60 800.30 585.45
00037547 00000145 509.78 222.27 400.27 516.17 637.68 378.42 823.01 382.89 753.04 489.88 650.00 587.14 807.58 590.30
00037548 00000146 534.90 232.66 385.44 513.29 645.93 390.23 831.16 391.04 758.91 496.98 658.75 592.23 818.82 592.60
00037549 00000147 527.84 226.13 404.35 513.00 653.06 395.79 843.02 391.66 774.46 497.86 669.93 592.86 833.96 588.69
00037550 00000148 527.45 200.21 407.07 538.46 668.65 383.39 862.11 382.82 800.99 487.69 689.67 592.07 849.85 593.17
00037551 00000149 551.65 182.46 381.21 532.42 686.30 377.79 858.47 364.22 816.87 471.66 744.30 591.13 864.44 579.45
00037552 00000150 532.04 165.65 388.45 527.03 681.37 371.41 855.67 354.89 821.95 463.19 720.79 578.28 856.72 563.72
00037553 00000151 526.72 189.04 396.30 519.35 666.63 383.78 846.16 344.03 820.32 464.15 713.90 580.67 865.92 547.92
00037554 00000152 514.52 193.98 394.93 516.44 648.85 390.30 826.30 338.59 807.67 464.45 707.63 589.78 853.32 546.40
00037555 00000153 509.58 172.62 389.21 527.27 637.99 389.83 811.40 325.99 798.14 465.10 707.38 592.73 844.98 539.66
00037556 00000154 495.79 164.19 397.08 528.36 631.04 376.12 800.36 319.72 785.21 447.50 707.73 578.19 839.68 529.86
00037557 00000155 476.86 134.27 410.57 553.61 620.68 366.97 787.54 308.41 769.80 431.85 701.72 567.74 832.05 516.96
00037558 00000156 468.81 127.78 415.61 556.35 612.83 362.69 779.78 302.19 759.96 426.18 699.76 566.78 826.86 514.93
00037559 00000157 468.60 128.11 412.51 558.72 609.25 362.60 777.01 301.64 757.15 427.19 694.54 567.64 823.42 516.45
00037560 00000158 467.22 131.97 411.96 554.23 607.39 362.36 776.60 300.50 756.67 427.81 694.10 568.28 824.32 515.81
00037561 00000159 464.33 136.35 414.03 546.29 604.28 361.04 777.22 298.79 755.17 427.81 693.52 566.95 826.81 513.53
00037562 00000160 466.76 138.75 409.39 545.12 604.36 361.22 773.68 298.48 753.51 427.97 693.21 567.25 823.30 513.53
00037563 00000161 469.92 145.43 406.66 549.91 603.82 360.27 767.63 296.00 753.84 424.92 698.80 572.20 822.46 518.35
00037564 00000162 471.98 146.79 403.94 543.68 604.05 359.17 770.62 298.29 752.16 429.88 695.44 570.59 821.96 518.40
00037565 00000163 469.90 146.00 403.63 541.30 602.42 358.67 771.06 298.42 751.00 431.43 689.92 567.90 821.20 516.08
00037566 00000164 460.35 137.02 410.48 551.18 599.90 358.94 769.68 297.77 748.80 429.35 687.05 567.14 819.93 515.04
00037567 00000165 456.87 135.82 413.12 557.22 597.39 359.30 766.76 298.62 744.82 425.58 683.70 568.52 817.47 517.55
00037568 00000166 457.74 141.32 410.23 552.67 595.20 355.80 765.14 296.88 743.66 422.11 682.21 568.02 814.48 518.97
00037569 00000167 458.66 137.51 407.25 550.82 595.37 355.21 766.13 296.29 742.45 423.33 680.04 566.13 813.58 516.70
00037570 00000168 451.09 136.83 417.22 545.54 588.86 363.69 764.07 308.74 739.40 429.24 675.92 560.06 816.06 513.07
00037571 00000169 455.81 139.48 410.90 555.72 593.20 355.54 765.54 301.49 739.71 425.29 668.61 564.18 810.03 519.40
00037572 00000170 454.48 140.38 411.03 558.76 591.96 355.45 764.51 304.37 738.39 426.00 664.33 565.34 807.72 523.09
