Video ID: 	jkG0H0E74SU
H: 	1080
W: 	1920
FPS: 	25.0

FRAME INDEX X0 Y0 W H [Landmarks (5 Points)]

00001186 00000000 706.72 231.67 492.90 746.15 798.97 521.16 1036.39 518.60 893.53 668.76 823.56 786.32 1016.93 785.11
00001187 00000001 713.18 238.13 490.29 744.36 808.80 522.84 1044.05 522.39 903.08 671.50 829.52 786.03 1026.86 786.48
00001188 00000002 717.49 241.97 489.66 741.48 812.40 523.25 1047.12 523.00 907.20 672.44 832.11 785.20 1028.52 785.98
00001189 00000003 716.37 240.63 490.63 744.30 810.02 523.02 1043.82 524.77 900.81 674.49 826.94 783.65 1024.07 786.26
00001190 00000004 714.02 235.21 491.40 746.59 800.97 519.46 1034.34 524.51 883.90 671.38 815.73 782.69 1006.95 788.74
00001191 00000005 707.37 233.71 496.05 747.79 792.81 516.03 1023.21 525.13 866.00 667.71 802.81 781.06 991.14 790.63
00001192 00000006 700.64 231.91 499.92 749.42 783.89 511.79 1013.89 524.56 851.05 667.04 790.41 778.83 977.61 791.47
00001193 00000007 695.66 227.20 501.16 751.65 776.61 508.36 1003.28 522.78 835.23 664.61 781.48 773.90 969.45 787.28
00001194 00000008 690.83 224.65 504.12 752.05 771.71 504.50 995.52 518.65 827.14 660.38 778.46 771.45 964.34 784.34
00001195 00000009 691.01 220.28 505.29 756.81 772.08 503.22 998.00 515.72 828.38 658.30 780.00 771.83 967.55 783.32
00001196 00000010 693.96 220.06 505.79 766.28 776.12 502.08 1003.80 514.38 835.27 660.54 783.71 776.02 974.33 787.48
00001197 00000011 697.77 221.99 505.03 766.00 780.66 505.52 1011.26 515.91 844.23 662.08 789.82 779.35 982.93 789.52
00001198 00000012 698.32 221.55 508.34 769.39 784.21 507.14 1018.44 515.81 854.26 663.19 796.05 780.85 993.46 789.51
00001199 00000013 699.24 218.27 507.90 773.29 788.20 507.92 1023.33 515.48 861.52 663.92 799.74 779.87 1000.75 787.55
00001200 00000014 697.84 215.49 510.64 775.28 789.07 506.99 1026.91 514.68 865.56 664.53 799.95 778.65 1004.71 786.35
00001201 00000015 696.11 213.74 512.34 775.17 787.04 504.24 1025.95 511.30 864.45 661.97 798.64 776.56 1003.46 783.69
00001202 00000016 693.31 209.91 512.73 774.05 779.02 504.36 1017.78 509.95 854.88 657.62 792.85 775.52 993.75 781.47
00001203 00000017 688.68 206.38 513.81 774.17 770.79 507.82 1006.44 515.40 839.65 658.66 783.39 775.99 981.34 783.33
00001204 DELETE   681.52 202.01 518.57 775.23 760.60 508.18 994.48 514.48 825.26 657.92 775.61 778.52 971.57 784.54
00001205 00000019 678.46 201.46 518.27 774.23 756.26 507.70 989.23 512.25 820.75 658.46 772.58 779.17 968.34 783.68
00001206 00000020 679.20 200.64 519.40 775.95 757.31 505.72 992.87 508.53 826.22 659.83 776.06 779.41 973.79 782.54
00001207 00000021 682.68 200.53 519.51 778.59 759.91 502.03 1000.97 505.52 833.70 662.24 779.62 778.97 980.84 782.88
00001208 00000022 686.78 199.85 520.01 784.23 764.31 499.12 1009.91 501.39 842.82 662.89 785.98 781.40 989.73 784.53
00001209 00000023 688.43 197.06 520.75 791.92 768.35 498.15 1011.82 498.60 846.03 660.01 790.52 783.85 995.63 785.39
00001210 00000024 689.19 196.61 520.67 795.92 764.92 496.45 1005.68 499.21 836.20 662.14 784.41 781.91 988.95 785.35
00001211 00000025 685.19 194.48 523.12 790.30 758.44 496.47 993.69 501.10 820.12 659.86 778.16 779.21 974.07 784.09
00001212 00000026 680.98 196.98 523.83 781.34 752.31 491.29 982.82 497.74 806.82 657.01 770.32 775.28 957.73 782.03
00001213 DELETE   677.48 195.74 525.43 775.33 741.68 484.88 967.31 492.97 783.79 652.18 760.77 774.76 942.10 782.96
00001214 00000028 676.38 189.09 521.92 777.02 739.50 476.91 954.83 488.27 769.41 646.57 756.07 770.74 927.91 781.54
00001215 00000029 677.52 188.68 520.78 776.56 739.03 474.70 948.08 486.48 758.21 642.31 752.29 768.84 919.61 779.78
00001216 00000030 679.72 190.50 521.34 771.46 739.96 471.85 943.96 485.31 751.75 638.55 751.02 764.51 916.37 776.55
00001217 00000031 684.62 189.12 519.80 774.77 745.41 471.82 947.46 484.73 755.30 636.37 755.76 763.48 919.75 775.03
00001218 00000032 690.12 191.58 525.19 773.71 749.87 475.12 958.01 484.99 768.51 638.23 767.22 763.54 935.29 772.57
00001219 00000033 698.95 193.11 530.39 776.76 760.65 477.48 975.41 486.08 787.75 638.36 777.43 768.10 947.48 776.83
00001220 00000034 713.77 194.23 520.46 778.80 771.72 479.37 988.27 491.10 804.03 643.00 785.45 768.25 961.38 779.33
00001221 DELETE   729.46 191.74 511.05 780.68 789.09 482.40 1008.10 493.34 826.01 641.02 799.45 769.23 974.53 779.87
00001222 00000036 737.84 194.19 508.63 780.22 799.09 481.41 1021.69 494.34 842.27 641.81 808.17 767.51 984.14 780.05
00001223 00000037 745.46 190.76 505.49 786.55 807.89 481.19 1032.95 492.49 857.12 640.22 821.39 768.98 997.12 780.05
00001224 00000038 750.54 190.06 505.14 780.56 814.77 478.97 1046.02 488.28 872.76 634.02 828.25 766.12 1005.23 775.85
00001225 00000039 748.96 190.28 507.46 753.63 822.30 470.63 1057.58 484.20 880.43 635.77 832.44 756.31 1019.41 769.17
00001226 00000040 750.36 186.38 504.97 745.15 822.11 457.93 1057.25 477.76 876.54 624.92 828.15 744.33 1013.97 762.60
00001227 00000041 747.76 176.14 505.43 745.63 821.54 444.70 1050.75 467.97 866.28 606.45 820.97 730.54 998.70 752.21
00001228 DELETE   748.00 162.65 488.72 758.98 803.17 438.90 1023.41 458.19 843.40 588.28 800.15 725.22 967.31 744.32
00001229 DELETE   738.70 157.18 496.36 750.45 793.72 430.65 1008.75 452.33 823.25 574.68 784.35 713.15 944.72 734.58
00001230 DELETE   725.31 157.81 492.60 732.07 786.29 423.21 988.55 443.63 805.48 563.78 770.19 700.54 922.24 720.19
00001231 00000045 708.78 165.10 499.12 717.48 762.81 426.28 971.89 437.27 781.56 558.11 757.55 703.10 909.90 716.84
00001232 00000046 703.62 160.50 498.51 722.60 756.05 441.96 964.94 449.49 774.44 563.64 753.98 709.92 905.57 720.52
00001233 00000047 699.54 161.88 502.86 728.67 756.45 446.19 969.20 454.05 780.04 568.05 758.42 713.39 913.34 724.14
00001234 00000048 697.36 167.18 503.58 735.53 759.24 454.68 975.44 459.67 792.11 578.22 763.61 721.34 928.14 729.06
00001235 DELETE   692.48 170.26 511.19 752.73 763.96 464.33 982.20 468.00 806.49 591.23 770.60 730.47 941.23 736.25
00001236 DELETE   694.49 174.08 512.05 762.99 769.69 471.64 993.52 477.36 821.49 603.78 775.49 736.70 959.65 743.55
00001237 DELETE   693.23 182.00 513.87 764.75 775.49 478.48 1000.67 481.30 838.55 614.68 787.38 741.27 977.48 744.93
00001238 00000052 692.62 186.24 513.92 769.08 785.25 486.53 1016.00 487.74 860.23 628.35 801.32 751.25 996.05 752.98
00001239 00000053 696.23 189.23 509.96 775.75 795.22 491.81 1030.24 493.53 880.16 639.18 813.13 758.83 1008.32 760.97
00001240 00000054 697.51 188.80 507.73 779.38 803.87 499.98 1039.67 499.58 898.57 643.71 823.57 767.17 1015.06 767.58
00001241 00000055 695.48 188.78 510.40 779.92 808.09 500.49 1046.36 499.61 908.62 645.27 828.52 769.37 1018.63 769.46
00001242 00000056 692.75 187.03 512.82 781.16 804.16 495.71 1047.82 496.00 908.45 646.70 824.61 769.85 1016.88 771.13
00001243 00000057 690.69 187.82 509.38 775.26 795.88 490.24 1042.19 493.16 899.95 649.71 813.71 764.72 1016.25 768.04
00001244 00000058 688.26 189.39 508.83 772.04 787.90 485.30 1032.23 491.36 884.42 647.51 803.39 762.24 1003.84 768.44
00001245 00000059 681.71 188.98 513.47 779.12 779.05 484.83 1017.98 488.96 864.59 642.74 796.19 764.70 990.44 769.16
00001246 00000060 674.06 182.56 517.13 785.10 768.46 480.62 1007.15 485.24 846.71 640.05 785.68 763.56 977.05 768.55
00001247 00000061 670.71 183.74 515.24 778.18 756.84 478.55 993.74 485.62 827.51 641.73 774.07 759.43 966.85 766.21
00001248 00000062 676.45 180.49 505.98 786.63 746.40 478.91 979.87 484.92 814.48 637.60 765.01 756.91 956.07 761.74
00001249 00000063 673.46 180.54 507.43 789.51 742.03 473.67 976.39 479.79 808.52 636.06 759.53 754.92 954.40 759.80
00001250 00000064 674.11 182.25 508.68 790.75 742.64 472.42 974.35 478.91 805.56 635.29 760.61 753.87 958.18 758.53
00001251 00000065 674.99 180.69 508.09 792.24 743.53 471.65 974.74 477.29 806.95 635.22 762.49 752.80 962.96 756.36
00001252 00000066 678.25 177.71 508.08 791.42 748.50 471.42 979.47 476.53 812.77 629.59 766.72 750.73 966.77 753.85
00001253 00000067 673.18 176.10 515.90 781.69 755.50 466.58 988.08 475.02 816.35 623.90 767.03 746.09 968.61 753.51
00001254 00000068 673.98 172.82 516.02 785.23 757.87 463.52 989.44 472.07 818.40 618.86 768.81 744.58 967.70 752.20
00001255 00000069 679.99 171.78 507.60 779.13 761.89 466.73 994.12 473.52 823.86 611.39 771.21 742.55 967.13 749.28
00001256 00000070 675.78 175.46 514.73 784.00 757.73 469.18 986.22 476.02 813.17 619.25 766.88 747.47 964.55 753.73
00001257 00000071 675.44 177.09 514.90 782.36 754.79 471.38 982.45 477.67 807.17 621.75 764.37 749.05 962.93 754.76
00001258 00000072 675.51 181.58 514.76 779.91 751.43 475.13 975.60 479.99 798.60 623.72 763.20 752.32 958.34 756.76
00001259 00000073 672.34 183.69 515.33 781.91 749.45 474.93 970.05 482.28 792.39 625.23 762.55 753.67 954.53 759.89
00001260 00000074 672.51 185.23 514.25 785.44 748.06 474.25 965.71 483.15 786.17 624.55 761.95 756.27 950.92 763.70
00001261 00000075 681.69 187.64 500.37 792.95 736.58 473.68 953.51 476.36 776.97 617.49 756.28 757.84 945.32 759.44
00001262 00000076 683.47 187.99 498.61 792.42 735.04 477.92 945.97 477.84 770.12 616.84 757.51 758.62 943.58 757.76
00001263 00000077 682.38 185.60 499.60 791.33 732.84 479.09 942.60 478.78 764.52 615.57 752.78 756.48 938.05 755.82
00001264 00000078 681.01 185.31 497.06 788.92 731.15 479.29 939.58 478.52 761.96 615.30 750.49 754.74 933.88 753.81
00001265 00000079 678.44 185.55 499.26 787.89 728.92 480.28 935.33 477.95 757.29 614.46 748.65 757.09 929.44 755.03
00001266 00000080 676.08 183.57 499.83 788.38 726.29 481.36 932.86 478.21 753.10 615.67 745.34 759.74 923.74 757.05
00001267 00000081 674.73 182.31 501.25 783.23 724.84 483.69 931.14 479.11 752.16 614.56 743.77 759.68 916.71 756.32
00001268 00000082 673.91 181.94 500.96 774.36 722.98 484.38 929.85 478.89 752.53 614.21 741.92 757.30 913.56 753.61
00001269 00000083 672.98 183.99 498.77 762.82 720.93 484.55 927.48 478.94 751.53 614.70 739.59 753.66 910.23 750.18
00001270 00000084 669.44 185.85 498.73 753.55 716.39 483.95 923.81 476.73 749.28 613.69 735.34 751.03 905.21 746.47
00001271 00000085 667.02 186.21 497.76 750.95 713.66 485.42 920.17 478.59 746.60 615.14 733.09 750.85 903.76 746.50
00001272 00000086 666.54 187.96 498.48 747.02 711.39 488.30 918.56 479.91 746.02 616.55 731.61 751.99 902.34 746.39
00001273 00000087 663.82 194.78 498.42 742.17 709.11 490.20 915.10 483.47 742.71 619.51 728.67 752.78 899.91 748.34
00001274 00000088 661.89 193.85 500.95 742.96 707.66 491.35 911.16 487.34 739.31 623.39 726.26 753.32 895.91 751.04
00001275 00000089 661.09 200.61 499.79 737.87 706.57 492.34 908.01 491.22 736.21 626.42 723.87 752.16 893.79 752.06
00001276 00000090 660.94 203.16 498.60 734.14 706.89 493.49 907.39 492.32 736.79 628.66 725.52 752.70 894.72 752.50
00001277 00000091 662.38 204.89 498.51 734.40 706.97 495.63 906.71 493.68 736.41 630.42 726.05 753.68 897.27 752.63
00001278 00000092 665.43 203.49 498.40 736.20 709.98 496.35 907.56 493.85 737.65 629.92 730.73 753.01 901.11 751.30
00001279 00000093 665.98 207.15 498.89 735.54 710.02 496.91 908.80 494.18 738.06 629.81 731.26 753.77 905.46 751.69
00001280 00000094 670.00 207.54 498.79 741.32 713.86 504.85 909.32 502.82 737.30 632.28 734.54 755.04 907.61 753.16
00001281 00000095 674.52 209.25 497.49 744.92 715.49 506.83 910.88 503.63 736.62 633.29 735.57 759.54 907.09 756.77
00001282 00000096 673.23 211.05 499.43 746.64 718.64 502.61 910.72 504.19 736.41 632.64 735.94 759.59 902.16 761.12
00001283 00000097 671.77 210.40 500.32 750.20 717.62 504.34 911.15 505.15 737.31 635.95 736.88 763.74 904.45 764.57
00001284 00000098 674.05 213.76 499.26 752.26 721.54 505.11 913.61 504.38 739.30 636.78 742.33 768.75 905.93 768.41
00001285 00000099 674.43 212.20 500.41 752.58 721.65 508.39 915.71 503.39 742.43 638.68 744.10 775.76 903.20 772.49
00001286 00000100 673.97 212.36 499.66 747.81 719.54 508.08 915.27 504.15 740.75 640.05 741.27 774.42 901.28 772.29
00001287 00000101 675.04 212.46 498.20 746.05 720.61 505.66 916.43 502.06 743.04 637.96 742.75 769.61 905.22 767.43
00001288 00000102 675.25 213.49 497.10 742.48 720.69 502.62 917.18 503.20 743.60 637.60 741.03 764.34 907.87 765.21
00001289 00000103 673.97 214.36 493.26 741.46 720.16 499.04 917.69 502.41 744.57 635.64 737.24 759.16 908.64 762.24
00001290 00000104 672.81 214.08 494.27 740.77 720.37 499.01 918.11 503.36 745.71 634.83 735.51 757.19 905.78 761.38
00001291 00000105 674.51 215.63 493.04 736.52 721.08 499.43 919.34 504.78 746.20 636.34 735.69 756.78 904.85 761.91
00001292 00000106 675.43 213.73 492.89 740.89 721.69 499.26 919.56 504.98 745.98 637.13 736.06 759.18 902.64 764.75
00001293 00000107 676.58 213.15 492.98 743.36 722.69 500.54 920.87 506.02 745.80 636.41 736.39 761.76 900.75 767.34
00001294 00000108 678.56 214.22 492.52 743.69 724.16 501.63 920.96 505.92 747.01 637.03 739.34 762.53 902.33 766.98
00001295 00000109 680.23 216.46 491.91 741.27 724.73 502.84 923.69 504.07 749.17 636.27 741.63 763.32 906.21 765.14
00001296 00000110 682.89 213.27 493.74 744.67 727.36 503.87 928.05 504.13 752.75 636.22 744.82 762.71 912.90 763.24
00001297 00000111 686.05 213.97 492.69 743.09 732.16 507.76 929.36 506.79 758.59 637.05 751.13 762.08 918.62 760.93
CROP_BBOX: 305 0 1640 1080
