Video ID: 	MWWATYUtEo0
H: 	2160
W: 	3840
FPS: 	59.94006309148265

FRAME INDEX X0 Y0 W H [Landmarks (5 Points)]

00002476 00000000 1135.08 284.26 846.05 1235.17 1510.43 785.09 1871.00 798.32 1784.59 997.71 1567.44 1237.05 1841.69 1247.35
00002477 DELETE   1138.12 284.57 845.66 1232.77 1512.22 786.46 1874.69 798.64 1788.02 996.99 1570.52 1237.95 1844.73 1247.48
00002478 00000002 1140.32 285.84 844.36 1228.77 1515.18 786.56 1876.01 798.52 1790.51 997.41 1575.24 1237.98 1846.17 1247.19
00002479 00000003 1142.18 287.12 844.45 1225.21 1516.63 786.91 1877.13 798.72 1790.59 997.12 1578.68 1238.61 1846.95 1247.51
00002480 00000004 1143.24 287.56 844.52 1223.25 1516.97 786.96 1878.86 798.95 1791.65 997.11 1580.10 1238.58 1847.82 1247.52
00002481 00000005 1144.12 286.39 844.81 1226.76 1518.26 787.07 1878.62 799.34 1792.03 997.03 1581.72 1239.18 1847.98 1248.23
00002482 00000006 1145.88 284.28 843.81 1230.35 1518.46 787.90 1879.36 799.81 1792.12 998.55 1582.01 1240.05 1849.82 1248.66
00002483 00000007 1145.13 285.84 844.40 1226.88 1519.04 786.78 1878.86 800.12 1791.10 999.86 1581.66 1239.61 1846.49 1249.53
00002484 00000008 1145.54 287.87 843.41 1227.30 1519.75 787.42 1878.98 799.25 1791.75 999.67 1581.49 1239.66 1848.24 1248.19
00002485 00000009 1145.42 288.49 843.23 1226.46 1518.45 787.77 1879.56 800.00 1790.38 1000.71 1579.46 1240.19 1847.73 1248.99
00002486 00000010 1145.57 289.63 840.63 1225.83 1517.18 787.18 1878.74 798.87 1789.50 1002.40 1578.96 1240.96 1848.07 1249.10
00002487 00000011 1144.15 289.61 840.32 1224.40 1515.42 787.35 1877.72 799.66 1787.79 1003.01 1578.12 1242.04 1845.82 1250.88
00002488 00000012 1144.72 287.44 838.14 1226.99 1513.40 787.63 1875.76 801.09 1784.35 1001.19 1575.12 1242.24 1842.69 1252.09
00002489 00000013 1142.50 290.75 837.81 1221.57 1510.16 786.45 1873.56 801.33 1779.46 1002.63 1572.54 1241.57 1839.40 1252.38
00002490 00000014 1141.43 291.98 837.06 1220.77 1507.35 786.62 1870.93 801.65 1776.85 1003.33 1569.37 1241.72 1836.99 1252.58
00002491 00000015 1139.03 293.19 836.88 1222.15 1504.87 785.34 1867.42 801.66 1772.06 1002.81 1564.16 1239.03 1833.07 1250.83
00002492 00000016 1137.71 292.04 836.96 1223.30 1500.55 786.36 1863.42 802.89 1765.92 1001.94 1559.73 1238.29 1829.01 1250.30
00002493 00000017 1135.45 292.27 836.92 1220.22 1495.36 785.48 1857.17 803.99 1756.53 1001.29 1554.83 1236.02 1822.00 1249.43
00002494 00000018 1133.66 291.61 836.03 1220.03 1491.58 784.89 1853.26 803.95 1750.42 1001.28 1550.15 1235.02 1817.70 1248.94
00002495 00000019 1130.38 287.26 837.49 1228.13 1491.05 786.08 1849.43 806.04 1747.71 1001.49 1546.08 1234.71 1812.44 1249.24
00002496 00000020 1126.51 288.40 840.59 1229.85 1486.90 785.57 1846.38 806.61 1742.56 1002.60 1540.62 1233.77 1808.97 1248.83
00002497 00000021 1123.41 289.22 842.27 1230.48 1483.88 785.99 1843.48 807.98 1738.52 1003.53 1536.41 1234.55 1804.83 1250.22
00002498 00000022 1119.44 287.84 844.97 1235.31 1477.86 786.27 1841.38 807.86 1734.16 1002.38 1532.16 1236.14 1802.85 1251.10
00002499 00000023 1117.40 287.18 845.31 1238.09 1473.98 787.66 1836.25 809.49 1727.27 1005.37 1527.84 1236.74 1798.47 1251.65
00002500 00000024 1115.12 290.84 846.94 1236.88 1469.82 788.46 1832.76 809.89 1721.72 1006.41 1524.27 1238.00 1796.27 1252.53
00002501 00000025 1113.57 292.27 846.59 1233.78 1465.22 789.27 1829.16 810.08 1715.47 1006.91 1521.27 1239.27 1793.31 1253.21
00002502 00000026 1111.92 292.02 847.07 1235.85 1463.15 789.78 1824.55 810.84 1711.12 1007.15 1517.95 1240.30 1787.28 1254.48
00002503 00000027 1111.39 291.79 844.71 1236.06 1459.89 791.01 1820.60 810.86 1707.33 1009.93 1515.85 1241.67 1783.25 1254.82
00002504 00000028 1110.62 292.62 843.42 1234.83 1457.76 791.46 1817.39 809.91 1705.21 1009.66 1516.16 1243.18 1781.57 1255.28
00002505 00000029 1108.72 294.70 842.95 1232.43 1454.62 790.22 1814.03 809.42 1700.67 1010.70 1512.56 1243.89 1776.13 1256.55
00002506 00000030 1106.30 294.24 843.23 1232.70 1450.96 789.60 1810.30 808.29 1698.21 1010.15 1511.68 1244.16 1774.25 1256.54
00002507 00000031 1103.72 291.98 843.46 1238.88 1446.26 792.25 1806.16 808.85 1694.89 1012.20 1508.72 1248.17 1771.18 1259.03
00002508 00000032 1098.59 293.06 845.31 1247.62 1444.82 793.00 1802.83 811.10 1692.94 1016.28 1503.93 1251.69 1767.22 1264.06
00002509 00000033 1095.93 295.37 845.46 1245.51 1440.94 794.89 1798.06 812.78 1688.85 1018.35 1500.07 1252.67 1764.29 1265.53
00002510 00000034 1094.39 295.21 847.14 1252.26 1437.81 797.86 1798.33 812.26 1687.98 1022.53 1498.61 1258.80 1766.51 1268.85
00002511 00000035 1092.38 294.46 847.29 1254.87 1435.07 799.70 1797.30 813.06 1685.53 1024.30 1497.78 1261.88 1766.92 1271.20
00002512 00000036 1092.34 293.69 843.99 1260.21 1433.01 801.02 1794.31 812.80 1684.67 1026.58 1495.83 1265.61 1765.12 1273.87
00002513 00000037 1091.65 293.93 843.91 1259.07 1432.35 802.43 1791.61 813.77 1682.82 1025.63 1497.45 1267.28 1762.75 1275.43
00002514 00000038 1089.23 295.32 844.51 1258.99 1429.30 805.67 1789.20 815.57 1682.18 1025.87 1495.26 1268.68 1762.44 1275.96
00002515 00000039 1088.68 295.84 842.92 1257.84 1426.54 807.87 1787.63 816.45 1680.67 1026.52 1492.90 1268.45 1762.60 1274.71
00002516 00000040 1087.74 297.59 842.26 1254.22 1425.48 810.87 1786.10 819.25 1679.80 1025.51 1491.45 1268.26 1761.70 1274.56
00002517 00000041 1084.98 297.33 842.00 1252.15 1423.38 812.84 1783.18 821.16 1678.73 1022.79 1489.75 1264.59 1761.25 1270.76
00002518 00000042 1083.84 296.17 842.04 1250.84 1422.37 814.03 1782.21 820.87 1677.83 1020.91 1490.24 1263.88 1760.57 1268.90
00002519 00000043 1082.32 297.63 841.65 1250.45 1417.35 815.87 1779.06 820.10 1675.38 1021.19 1486.23 1264.53 1760.03 1267.47
00002520 00000044 1081.53 295.55 841.39 1248.54 1411.97 816.69 1776.67 818.88 1670.18 1019.20 1484.50 1262.66 1759.85 1263.85
00002521 00000045 1079.48 298.05 841.87 1241.01 1409.78 817.21 1774.18 818.67 1666.94 1018.78 1484.33 1262.15 1758.08 1262.80
00002522 00000046 1078.71 298.42 840.68 1233.72 1405.45 818.66 1771.26 817.98 1664.04 1017.97 1484.07 1260.51 1759.03 1259.27
00002523 00000047 1075.78 295.81 841.65 1237.78 1402.71 819.91 1768.84 816.82 1663.19 1019.08 1483.34 1263.22 1757.24 1259.97
00002524 00000048 1076.09 295.08 840.59 1236.51 1401.15 821.68 1767.01 817.75 1660.89 1019.35 1483.04 1262.92 1756.79 1258.76
00002525 00000049 1075.80 297.60 839.63 1232.86 1398.68 822.61 1764.56 816.30 1659.92 1018.90 1483.98 1264.32 1756.64 1258.12
00002526 00000050 1075.70 299.77 839.23 1230.44 1397.95 823.23 1763.21 816.72 1658.64 1018.10 1484.91 1265.03 1754.85 1258.91
00002527 00000051 1073.74 298.24 839.72 1232.36 1395.42 824.08 1761.14 815.63 1657.58 1018.57 1485.79 1267.43 1754.53 1259.72
00002528 00000052 1072.60 298.12 839.11 1233.40 1394.36 823.62 1758.46 813.69 1657.09 1018.57 1485.57 1268.45 1753.47 1259.60
00002529 00000053 1072.80 298.66 838.43 1232.80 1394.63 824.16 1758.75 814.86 1656.63 1016.98 1486.07 1268.39 1752.97 1260.13
00002530 00000054 1072.83 297.38 838.50 1238.96 1396.14 823.90 1758.60 816.15 1657.22 1014.87 1484.97 1268.91 1751.43 1262.23
00002531 00000055 1073.91 296.46 835.41 1241.80 1396.98 822.95 1757.23 816.58 1656.31 1013.34 1483.66 1268.61 1748.35 1263.33
00002532 00000056 1072.80 295.88 836.76 1246.30 1397.31 822.43 1756.55 816.76 1657.05 1010.68 1483.44 1267.95 1748.66 1263.18
00002533 00000057 1073.15 294.62 836.93 1252.21 1399.33 821.73 1756.01 818.14 1657.08 1010.09 1482.23 1268.26 1746.26 1265.43
00002534 00000058 1071.67 294.75 838.77 1254.11 1400.94 819.94 1755.82 817.32 1657.28 1008.52 1481.47 1267.44 1744.39 1265.39
00002535 00000059 1071.34 294.46 839.09 1251.38 1399.88 818.93 1755.83 816.23 1656.32 1006.99 1481.74 1266.77 1744.76 1264.51
00002536 00000060 1072.01 293.19 837.82 1250.49 1398.37 819.75 1754.55 816.96 1655.27 1006.98 1482.34 1267.77 1744.61 1265.42
00002537 00000061 1071.30 293.25 838.48 1246.11 1396.05 818.91 1753.49 816.04 1654.18 1005.91 1480.67 1263.96 1744.51 1261.33
00002538 00000062 1069.39 293.89 838.28 1236.09 1393.54 819.84 1750.46 814.84 1653.02 1005.27 1480.92 1259.03 1744.17 1254.20
00002539 00000063 1069.17 297.08 835.28 1221.40 1392.89 821.91 1748.62 814.32 1650.99 1005.21 1484.11 1255.62 1742.46 1248.47
00002540 00000064 1067.69 296.36 836.66 1221.67 1391.62 820.44 1747.68 813.45 1648.72 1003.82 1479.22 1249.13 1743.29 1242.11
00002541 00000065 1063.41 296.88 839.65 1222.55 1387.41 820.24 1747.95 812.09 1647.97 1007.31 1475.16 1249.21 1744.27 1241.15
00002542 00000066 1061.67 297.34 840.12 1220.09 1385.48 820.80 1745.97 813.07 1645.85 1007.42 1473.06 1248.52 1741.64 1240.97
00002543 00000067 1060.19 297.36 840.47 1218.73 1383.50 822.09 1745.08 815.41 1644.63 1009.06 1469.96 1247.87 1741.46 1241.16
00002544 00000068 1058.74 299.71 840.17 1217.99 1381.57 822.30 1743.58 815.49 1642.96 1010.65 1466.32 1248.89 1738.22 1242.33
00002545 00000069 1057.48 300.11 841.57 1219.37 1379.62 822.91 1739.04 814.83 1638.45 1010.36 1463.74 1249.41 1733.75 1242.16
00002546 00000070 1055.99 301.74 840.61 1222.45 1379.56 824.94 1735.38 815.19 1637.94 1010.21 1464.49 1253.57 1729.73 1245.31
00002547 00000071 1054.60 301.32 839.81 1223.93 1376.87 824.83 1732.73 814.04 1635.39 1010.59 1464.99 1256.56 1728.45 1247.60
00002548 00000072 1053.34 304.86 840.28 1224.32 1374.19 823.82 1730.98 812.59 1633.06 1011.19 1462.31 1259.77 1726.82 1250.76
00002549 00000073 1050.92 304.71 841.32 1224.39 1373.78 823.76 1728.94 813.90 1630.02 1011.94 1461.74 1260.54 1723.30 1252.66
00002550 00000074 1047.48 307.14 843.38 1221.96 1372.75 824.20 1726.15 814.46 1627.97 1013.06 1460.85 1260.56 1721.56 1252.92
00002551 00000075 1046.81 310.45 843.17 1218.21 1371.38 825.91 1725.11 814.64 1626.15 1013.99 1460.94 1261.99 1720.70 1253.38
00002552 00000076 1045.54 312.62 844.94 1215.69 1369.58 827.97 1725.15 816.35 1624.70 1014.97 1460.03 1262.94 1721.36 1254.19
00002553 00000077 1044.90 315.32 844.60 1213.29 1367.00 827.94 1724.10 814.78 1621.88 1016.46 1456.97 1263.77 1719.91 1253.88
00002554 00000078 1042.28 319.20 845.34 1209.15 1366.95 827.64 1724.50 816.17 1620.08 1019.78 1455.99 1264.04 1718.96 1255.58
00002555 00000079 1042.91 320.68 845.23 1207.02 1366.27 829.13 1724.89 817.90 1619.14 1020.82 1453.55 1263.61 1718.38 1255.44
00002556 00000080 1040.59 320.96 847.65 1209.77 1365.17 831.10 1725.01 817.85 1619.09 1024.94 1452.32 1266.37 1718.94 1256.69
00002557 00000081 1039.37 319.42 848.47 1213.77 1365.25 830.44 1724.81 818.97 1618.75 1025.42 1450.67 1266.49 1717.68 1258.13
00002558 00000082 1038.44 321.79 848.65 1210.39 1364.95 829.98 1724.00 819.76 1616.95 1026.00 1449.66 1266.33 1715.32 1259.05
00002559 00000083 1036.12 323.72 849.68 1208.04 1365.68 830.75 1722.97 819.94 1616.05 1027.97 1449.38 1265.66 1714.02 1258.05
00002560 00000084 1034.39 325.83 850.73 1207.22 1364.43 830.65 1722.74 819.49 1614.85 1029.01 1446.52 1265.52 1713.11 1257.82
00002561 00000085 1034.29 329.28 850.64 1200.95 1362.67 832.79 1720.49 820.78 1611.77 1028.92 1445.59 1264.95 1710.53 1256.90
00002562 00000086 1032.17 329.45 850.86 1202.16 1359.95 833.83 1718.47 820.68 1610.20 1029.27 1442.14 1265.40 1708.49 1256.74
00002563 00000087 1031.83 330.23 850.32 1201.61 1358.74 834.39 1716.68 820.93 1608.15 1028.35 1440.86 1264.97 1706.73 1256.15
00002564 00000088 1029.01 327.96 851.04 1202.81 1359.09 831.66 1714.52 820.27 1606.22 1026.72 1439.90 1263.16 1701.97 1255.96
00002565 00000089 1027.68 330.16 852.16 1203.15 1356.91 829.98 1713.12 820.17 1602.90 1025.86 1436.14 1263.57 1697.85 1257.90
00002566 00000090 1024.57 332.65 853.79 1201.10 1355.11 828.59 1711.83 818.91 1601.30 1025.32 1434.70 1263.84 1696.28 1258.43
00002567 00000091 1023.84 331.42 855.04 1202.60 1354.63 828.05 1712.11 818.72 1600.73 1025.17 1434.11 1263.56 1695.32 1258.46
00002568 00000092 1022.49 331.36 856.10 1201.31 1354.25 827.32 1710.95 818.25 1600.41 1023.39 1433.15 1262.28 1694.05 1257.49
00002569 00000093 1022.53 331.74 856.72 1202.94 1353.28 827.09 1710.63 817.59 1599.45 1025.10 1433.18 1263.96 1693.63 1258.81
00002570 00000094 1023.95 329.14 855.50 1207.04 1353.46 824.67 1710.94 817.51 1599.37 1022.29 1430.02 1261.36 1692.56 1257.87
00002571 00000095 1025.38 326.09 853.70 1212.61 1354.23 823.13 1710.18 816.33 1601.51 1020.54 1431.14 1262.82 1692.45 1259.55
00002572 00000096 1026.05 328.21 853.85 1213.16 1355.16 823.54 1711.36 817.69 1602.55 1020.24 1432.21 1262.77 1695.64 1260.30
00002573 00000097 1026.96 323.81 853.41 1223.81 1355.16 823.79 1711.56 818.74 1604.58 1017.73 1432.04 1265.62 1696.08 1263.57
00002574 00000098 1029.55 317.14 849.60 1238.95 1359.68 822.24 1712.07 820.44 1607.66 1016.39 1431.37 1268.06 1695.33 1268.34
00002575 00000099 1031.83 315.76 848.74 1245.01 1360.40 819.66 1714.68 819.20 1610.32 1017.08 1429.68 1268.69 1697.38 1269.99
00002576 00000100 1035.14 308.00 847.99 1256.55 1364.40 818.95 1718.01 820.48 1615.21 1014.92 1430.40 1269.79 1699.45 1272.32
00002577 00000101 1036.15 302.63 850.09 1263.78 1368.99 817.91 1720.89 819.52 1619.71 1017.08 1432.97 1269.71 1702.26 1271.90
00002578 00000102 1039.06 302.68 848.87 1262.31 1370.79 816.34 1722.02 816.40 1621.51 1013.96 1435.57 1267.50 1704.57 1268.28
00002579 00000103 1039.17 302.90 851.48 1260.35 1373.71 814.93 1725.99 814.35 1627.74 1011.66 1439.72 1264.75 1710.68 1264.75
00002580 00000104 1042.14 303.56 850.56 1252.39 1376.70 813.08 1731.76 813.00 1632.47 1012.02 1442.31 1259.28 1717.27 1259.36
00002581 00000105 1045.06 300.65 848.50 1248.15 1381.91 811.47 1737.70 811.12 1638.79 1013.46 1449.27 1257.81 1720.00 1257.71
00002582 00000106 1049.50 297.83 844.73 1249.20 1386.77 811.40 1739.98 810.85 1642.33 1013.04 1454.64 1257.09 1721.61 1256.78
00002583 00000107 1052.64 294.20 843.99 1250.30 1391.33 810.05 1744.90 809.94 1646.33 1011.85 1457.65 1255.46 1724.29 1255.43
00002584 00000108 1057.37 292.82 840.47 1247.42 1394.66 810.52 1747.74 812.54 1650.18 1009.74 1463.12 1253.61 1727.44 1255.18
00002585 00000109 1061.11 288.17 837.61 1248.68 1395.86 810.08 1751.46 812.92 1654.30 1011.22 1466.65 1253.43 1729.47 1255.50
00002586 00000110 1063.33 288.23 836.03 1246.27 1398.15 809.83 1753.69 812.21 1658.09 1010.35 1472.15 1253.84 1733.20 1255.26
00002587 00000111 1066.04 287.05 834.41 1247.25 1401.12 808.32 1756.92 811.88 1662.84 1010.87 1476.88 1255.03 1736.21 1257.49
00002588 00000112 1065.28 288.46 835.41 1245.69 1403.84 807.53 1758.51 810.61 1666.20 1010.68 1479.35 1254.70 1737.42 1256.80
00002589 00000113 1068.54 288.81 833.21 1244.77 1406.86 807.65 1761.84 809.89 1669.74 1008.71 1482.86 1255.07 1740.56 1256.31
00002590 00000114 1070.53 288.87 832.21 1244.50 1409.28 807.29 1762.85 809.06 1670.63 1007.41 1484.24 1254.10 1740.63 1254.98
00002591 00000115 1072.55 289.50 830.57 1243.42 1411.07 807.25 1762.74 808.69 1672.89 1006.69 1487.83 1255.61 1742.73 1256.23
00002592 00000116 1072.67 290.30 830.47 1242.80 1411.98 806.74 1761.91 807.38 1672.82 1006.43 1489.07 1255.26 1742.60 1255.26
00002593 00000117 1072.91 290.52 832.00 1245.03 1411.22 806.96 1761.85 806.97 1672.51 1006.28 1489.17 1255.77 1743.82 1255.12
00002594 00000118 1073.47 290.68 832.27 1247.16 1411.94 806.42 1761.76 806.79 1672.17 1005.50 1489.16 1254.49 1744.56 1254.06
00002595 00000119 1074.34 290.55 832.23 1247.54 1412.34 806.25 1761.98 807.56 1673.45 1006.10 1490.01 1257.36 1744.54 1257.84
00002596 00000120 1074.15 289.97 833.12 1256.70 1412.41 805.75 1763.56 806.06 1675.21 1007.13 1490.80 1259.68 1749.36 1259.12
00002597 00000121 1074.44 290.29 833.47 1258.71 1412.93 805.42 1764.51 806.62 1675.65 1007.32 1491.60 1261.31 1750.22 1261.46
00002598 00000122 1073.51 289.44 835.14 1262.86 1414.20 805.37 1764.63 806.21 1676.95 1007.72 1492.89 1262.96 1751.62 1262.77
00002599 00000123 1073.99 289.79 834.32 1268.52 1415.12 805.27 1765.10 806.53 1677.09 1008.95 1490.97 1265.81 1750.35 1266.38
00002600 00000124 1074.79 290.42 834.79 1273.79 1414.00 807.34 1764.68 808.01 1676.52 1011.92 1489.48 1269.47 1751.47 1269.65
00002601 00000125 1065.53 306.18 856.93 1260.18 1410.14 812.74 1779.29 813.85 1680.88 1015.45 1495.99 1279.36 1759.78 1274.80
00002602 00000126 1063.78 313.43 858.37 1256.23 1407.72 818.03 1777.32 819.11 1678.36 1018.46 1493.44 1281.24 1757.34 1276.44
00002603 00000127 1063.83 313.03 856.47 1258.26 1405.37 819.33 1774.47 821.23 1674.53 1021.80 1490.38 1282.08 1755.22 1277.84
00002604 00000128 1062.17 317.90 855.23 1253.50 1402.18 820.52 1773.21 822.29 1672.85 1024.71 1488.83 1285.00 1754.60 1280.45
00002605 00000129 1068.49 303.45 836.32 1265.90 1402.55 825.88 1760.22 825.06 1662.96 1030.34 1473.16 1279.62 1745.62 1279.36
00002606 00000130 1055.96 324.14 857.03 1249.62 1398.17 821.13 1768.83 826.21 1663.76 1027.99 1481.14 1285.60 1744.82 1283.89
00002607 00000131 1053.50 325.77 858.72 1249.33 1395.13 820.35 1765.35 825.31 1658.65 1029.16 1479.19 1286.63 1738.60 1285.08
00002608 00000132 1061.38 310.55 839.85 1258.73 1393.94 829.07 1751.37 827.90 1647.93 1034.61 1463.98 1283.92 1730.88 1284.28
00002609 00000133 1057.96 311.00 843.97 1258.02 1390.36 827.97 1749.10 827.58 1643.28 1035.07 1460.67 1283.74 1727.10 1284.72
00002610 00000134 1056.80 311.71 844.79 1257.31 1387.87 827.90 1746.86 827.62 1639.76 1034.94 1458.35 1283.10 1725.52 1284.04
00002611 00000135 1054.58 315.41 845.23 1251.98 1387.06 827.97 1744.18 830.03 1635.87 1034.29 1456.14 1281.63 1719.67 1284.77
00002612 00000136 1054.81 315.88 844.50 1248.92 1387.78 827.31 1742.79 831.18 1633.35 1033.46 1454.12 1279.27 1715.47 1284.05
00002613 00000137 1053.59 314.56 845.61 1250.39 1384.65 827.03 1741.52 831.14 1631.23 1034.30 1451.41 1280.11 1713.30 1285.07
00002614 00000138 1053.10 315.48 845.91 1248.54 1384.68 826.80 1741.20 832.36 1629.95 1034.42 1450.15 1278.84 1712.16 1285.03
00002615 00000139 1052.53 316.11 845.60 1247.53 1383.28 826.41 1740.39 832.63 1628.45 1034.90 1447.81 1278.99 1709.62 1285.93
00002616 00000140 1052.26 314.31 845.55 1248.65 1381.88 827.10 1739.44 832.51 1628.16 1035.18 1446.91 1279.53 1709.14 1285.86
00002617 00000141 1051.47 312.90 844.84 1250.58 1381.84 826.12 1738.53 832.76 1627.32 1035.47 1445.19 1279.11 1706.76 1286.47
00002618 00000142 1050.95 315.07 844.40 1249.08 1381.00 826.25 1738.53 833.44 1626.61 1036.07 1444.17 1279.12 1706.93 1286.99
00002619 00000143 1049.51 313.32 845.99 1251.43 1380.97 827.03 1737.87 834.44 1625.89 1036.75 1442.23 1280.26 1703.89 1288.48
00002620 00000144 1048.19 313.28 846.55 1247.87 1379.36 830.07 1736.72 837.82 1624.29 1037.67 1440.44 1279.92 1701.80 1288.43
00002621 00000145 1046.53 316.24 848.83 1239.63 1378.99 832.38 1738.13 840.57 1624.04 1038.78 1440.42 1278.57 1702.32 1287.38
00002622 00000146 1045.14 319.70 849.53 1237.38 1377.09 832.85 1738.51 840.87 1624.20 1038.01 1439.73 1279.34 1703.30 1288.07
00002623 00000147 1043.54 319.02 851.10 1237.47 1376.67 832.69 1737.76 840.54 1623.25 1038.81 1438.42 1277.26 1704.21 1285.71
00002624 00000148 1043.26 321.18 852.62 1232.84 1375.78 832.46 1738.12 840.65 1621.81 1040.14 1437.11 1276.77 1703.36 1285.64
00002625 00000149 1042.74 318.76 853.98 1236.86 1374.73 832.50 1738.08 841.37 1620.57 1040.75 1435.02 1276.32 1703.92 1285.54
00002626 00000150 1042.84 317.09 854.37 1239.90 1375.44 832.30 1737.44 841.83 1620.39 1040.24 1433.87 1276.54 1701.69 1286.19
00002627 00000151 1044.39 317.52 852.59 1241.78 1375.41 831.56 1737.90 841.47 1620.41 1039.09 1433.47 1277.29 1701.07 1287.26
00002628 00000152 1046.61 313.76 849.88 1248.30 1376.61 831.24 1737.23 841.91 1621.51 1037.05 1434.25 1278.09 1699.95 1288.64
00002629 00000153 1047.55 313.65 848.28 1248.58 1379.00 830.58 1736.81 841.28 1622.17 1035.82 1436.00 1277.57 1697.77 1288.30
00002630 00000154 1047.76 313.33 848.37 1250.75 1379.05 832.95 1735.96 841.92 1622.11 1036.36 1436.97 1278.44 1698.89 1287.75
00002631 00000155 1048.16 317.47 848.53 1243.22 1380.70 831.68 1738.80 840.52 1623.55 1037.51 1437.94 1275.88 1702.03 1285.10
00002632 00000156 1050.12 316.40 847.21 1238.11 1381.21 834.53 1739.75 841.09 1625.79 1039.63 1440.13 1276.26 1703.57 1283.71
