Video ID: 	XcEMPegLxkY
H: 	1080
W: 	1920
FPS: 	25.0

FRAME INDEX X0 Y0 W H [Landmarks (5 Points)]

00006432 00000000 764.50 114.16 437.87 639.95 942.32 378.24 1122.60 317.15 1112.81 467.14 1003.03 611.43 1152.48 560.54
00006433 00000001 769.52 118.32 434.75 635.84 939.97 382.89 1122.97 320.63 1108.87 473.26 1002.66 617.64 1153.23 566.06
00006434 00000002 768.27 119.15 435.42 639.14 939.55 385.97 1121.00 322.67 1106.50 475.48 1004.82 621.59 1153.62 568.75
00006435 00000003 763.14 120.26 437.86 638.99 934.54 385.64 1115.94 323.73 1100.65 474.41 1005.70 622.48 1151.83 570.19
00006436 00000004 759.91 119.19 437.34 642.70 928.42 388.96 1109.02 325.96 1093.89 474.04 1004.50 625.66 1147.93 572.63
00006437 00000005 753.28 121.17 437.74 641.12 918.46 388.87 1101.61 325.24 1083.64 476.07 998.29 626.61 1140.60 572.89
00006438 00000006 745.93 122.20 435.54 648.24 906.73 390.49 1088.08 327.34 1069.34 481.12 989.46 628.74 1131.27 575.73
00006439 DELETE   739.95 124.45 425.76 644.68 895.67 391.12 1072.65 335.01 1053.40 481.68 977.93 624.74 1117.04 577.61
00006440 00000008 731.04 133.38 421.50 637.36 889.81 391.98 1065.52 346.28 1046.40 487.06 966.61 624.25 1108.58 585.45
00006441 00000009 717.50 136.92 422.21 652.47 875.61 394.63 1052.61 349.59 1034.50 490.10 948.66 631.44 1098.44 593.02
00006442 00000010 692.06 148.93 434.55 647.07 870.30 407.54 1040.09 348.22 1034.04 497.55 934.99 642.74 1074.79 592.73
00006443 00000011 686.96 150.24 422.38 654.53 849.08 404.99 1025.95 361.49 1007.59 503.55 916.89 644.99 1063.04 607.76
00006444 00000012 671.77 164.23 424.61 648.82 833.32 409.73 1009.75 356.42 992.64 507.54 901.13 654.42 1041.39 608.22
00006445 00000013 663.46 164.54 417.70 651.80 817.35 409.39 991.07 365.15 978.38 511.41 883.06 648.97 1032.99 611.81
00006446 00000014 660.61 162.51 412.47 647.51 810.72 409.23 984.60 365.68 975.43 504.32 877.01 643.92 1028.19 607.57
00006447 00000015 659.16 152.09 413.40 650.65 809.97 402.11 983.54 358.74 976.54 496.23 873.80 635.33 1028.25 599.20
00006448 00000016 657.28 144.46 416.74 652.23 812.03 395.31 985.17 353.95 977.39 487.42 872.81 627.17 1028.74 592.68
00006449 00000017 658.66 140.32 416.80 642.30 811.37 391.76 987.75 350.93 971.72 483.59 870.33 617.53 1029.47 583.55
00006450 00000018 655.31 134.87 418.88 644.27 809.80 388.54 985.16 346.08 968.10 477.05 871.62 615.03 1027.89 579.52
00006451 00000019 654.14 132.62 419.64 638.97 810.46 386.38 982.91 341.15 967.83 470.87 875.83 612.64 1028.70 575.30
00006452 00000020 653.84 132.40 423.07 630.12 811.55 385.40 982.88 336.53 969.28 467.87 884.38 610.93 1032.46 570.81
00006453 00000021 650.69 142.65 421.18 618.13 802.94 387.71 985.92 337.45 969.89 470.76 889.67 610.47 1040.35 569.50
00006454 00000022 649.18 143.26 420.37 615.25 800.95 388.10 983.17 336.91 967.12 468.87 890.15 608.42 1040.77 566.38
00006455 00000023 642.21 144.29 424.10 599.14 804.15 387.89 978.71 325.27 972.58 464.70 878.52 609.03 1024.74 556.89
00006456 00000024 642.56 143.98 423.74 599.71 802.41 386.98 977.72 323.91 970.92 463.98 879.05 609.62 1024.81 556.82
00006457 00000025 644.53 143.68 421.96 598.73 804.60 384.76 978.65 323.64 971.67 461.29 879.04 605.93 1024.70 554.80
00006458 00000026 649.71 145.07 418.07 595.94 811.82 385.47 982.19 325.72 977.69 463.00 882.35 604.09 1026.52 554.67
00006459 00000027 659.66 134.39 415.02 611.64 814.86 377.24 985.71 328.76 969.72 457.96 890.53 600.77 1029.90 561.17
00006460 00000028 667.44 135.38 412.01 615.54 818.56 377.84 990.06 330.60 972.76 459.11 893.41 602.36 1033.61 563.36
00006461 00000029 675.32 135.64 407.70 615.13 822.70 380.41 994.99 331.96 975.55 460.99 899.00 603.79 1038.87 563.26
00006462 00000030 679.40 134.41 409.96 617.06 828.64 382.65 1001.44 331.03 979.93 464.08 903.35 606.61 1042.59 563.10
00006463 00000031 686.87 134.79 412.07 619.16 832.16 386.25 1009.60 330.69 986.38 464.47 908.12 610.90 1052.15 563.81
00006464 00000032 692.28 136.90 415.01 619.21 840.84 388.45 1019.73 334.78 997.07 466.03 914.80 612.36 1061.95 566.92
00006465 00000033 703.58 144.54 409.24 611.54 852.70 391.30 1028.77 337.80 1010.80 469.66 920.38 612.77 1068.50 568.10
00006466 00000034 712.44 147.90 408.12 606.15 864.35 391.72 1036.06 341.14 1023.38 470.19 928.30 611.53 1075.11 569.60
00006467 00000035 717.61 149.57 410.59 604.49 872.23 390.42 1042.84 336.88 1035.18 470.14 936.84 611.17 1084.03 566.66
00006468 00000036 723.64 149.72 411.95 603.27 877.92 387.83 1049.92 336.41 1042.81 467.03 944.45 609.52 1092.05 566.75
00006469 00000037 724.49 149.49 418.04 600.01 884.99 386.44 1055.09 333.53 1050.34 461.23 953.47 604.90 1099.45 561.01
00006470 00000038 737.58 140.98 411.59 608.41 889.45 374.95 1060.35 328.92 1047.00 451.19 969.20 599.05 1108.84 561.00
00006471 00000039 741.99 137.46 410.10 611.42 893.40 372.72 1064.85 325.14 1051.60 447.84 974.03 597.01 1112.64 557.28
00006472 00000040 744.98 135.80 408.07 608.35 897.27 370.55 1066.23 321.41 1054.73 443.46 978.35 593.95 1114.91 552.29
00006473 00000041 747.52 138.08 407.86 601.45 900.17 369.17 1070.10 316.94 1058.50 440.93 981.20 590.09 1118.30 545.47
00006474 00000042 750.07 135.92 408.52 597.37 903.62 363.83 1072.39 310.97 1059.66 436.03 985.52 586.04 1118.44 540.19
00006475 00000043 754.60 126.30 414.76 604.50 910.50 360.94 1081.76 307.01 1067.03 428.99 988.98 581.99 1126.97 535.04
00006476 00000044 758.99 121.71 418.54 604.22 918.26 357.16 1087.33 304.06 1076.64 420.73 997.66 577.69 1134.19 531.41
00006477 00000045 762.64 123.45 419.97 595.73 923.92 355.76 1090.93 301.46 1084.22 416.29 1004.93 573.78 1139.63 526.45
00006478 00000046 765.73 119.15 422.90 597.48 929.55 355.40 1094.77 298.60 1092.88 414.05 1008.67 570.73 1144.44 521.79
00006479 00000047 766.54 118.46 422.80 596.27 933.19 353.28 1095.99 295.81 1097.06 412.63 1009.24 567.13 1144.78 517.93
00006480 00000048 767.73 116.50 422.42 594.86 934.11 351.36 1095.64 292.26 1098.66 411.44 1008.92 565.12 1144.09 514.84
00006481 00000049 767.37 115.28 422.47 596.22 934.57 351.40 1094.99 291.84 1098.97 410.77 1008.94 565.02 1143.62 514.46
00006482 00000050 766.93 117.73 421.81 594.72 933.54 353.69 1095.47 294.97 1097.80 413.49 1008.02 567.06 1142.73 517.04
00006483 00000051 765.89 123.06 424.03 589.67 930.76 357.07 1097.48 301.58 1093.88 415.64 1010.72 571.48 1144.52 523.76
00006484 00000052 766.35 123.93 422.25 593.35 928.03 360.39 1096.68 307.09 1088.81 420.05 1007.70 575.16 1143.03 528.88
00006485 00000053 767.41 129.24 420.10 592.53 924.29 365.31 1095.10 313.53 1080.78 426.69 1003.02 579.53 1139.82 534.51
00006486 00000054 763.59 136.12 416.88 592.56 916.71 370.72 1088.26 316.09 1073.33 432.60 997.48 585.23 1136.04 537.66
00006487 00000055 756.04 140.14 420.40 603.29 907.34 379.78 1077.90 319.25 1064.30 440.68 991.26 594.57 1133.08 542.32
00006488 00000056 748.70 140.64 418.38 608.48 901.61 389.40 1067.20 323.44 1058.45 446.66 989.58 602.91 1129.04 546.92
00006489 00000057 744.94 147.42 411.97 604.81 893.46 394.69 1059.91 336.00 1048.05 456.12 979.20 607.08 1117.62 558.84
00006490 00000058 737.47 160.33 417.65 597.57 881.27 399.54 1048.55 341.31 1038.36 461.37 971.26 612.49 1113.70 564.17
00006491 00000059 730.38 173.61 412.24 591.93 870.64 417.77 1036.30 353.52 1028.06 474.03 959.61 621.12 1108.21 568.95
00006492 00000060 711.20 186.73 421.65 595.52 864.97 436.08 1027.58 359.94 1028.06 487.09 942.52 636.69 1087.41 572.43
00006493 00000061 703.90 195.44 422.96 594.36 854.35 441.73 1019.94 367.46 1014.46 491.55 936.18 646.60 1080.73 583.34
00006494 00000062 693.91 202.61 421.20 592.87 835.54 445.40 1006.65 371.81 989.20 501.97 924.18 657.88 1066.08 594.03
00006495 00000063 682.63 212.61 422.00 588.90 826.11 450.32 995.40 377.39 977.46 512.70 916.47 663.94 1057.00 600.67
00006496 00000064 669.38 212.61 426.10 592.81 817.11 453.10 983.65 381.48 968.57 512.37 911.53 662.95 1052.74 601.52
00006497 00000065 661.61 207.09 424.35 595.80 810.97 453.03 974.18 381.43 961.98 508.62 905.46 658.29 1045.06 597.94
00006498 00000066 654.65 207.01 426.63 593.49 804.95 447.32 967.97 377.44 957.03 504.28 894.29 654.81 1037.02 596.27
00006499 00000067 642.90 210.44 425.25 584.91 793.62 450.82 959.94 375.22 955.40 504.62 876.67 655.58 1021.40 591.92
00006500 00000068 640.62 208.85 424.63 583.16 790.04 447.67 956.20 374.52 949.30 501.00 871.91 652.10 1014.67 590.14
00006501 00000069 637.99 204.88 427.40 586.33 787.56 444.35 956.25 371.67 948.16 497.91 870.02 649.10 1016.01 587.09
00006502 00000070 636.47 204.15 427.82 586.65 786.17 442.68 955.10 369.46 945.97 498.12 868.66 649.17 1013.96 586.73
00006503 00000071 635.70 204.71 429.24 588.96 785.71 443.04 954.82 369.17 945.65 498.61 867.78 649.67 1014.23 586.73
00006504 00000072 637.55 203.91 428.58 589.10 785.64 443.53 956.68 372.90 944.71 500.78 866.99 650.94 1013.27 590.76
00006505 00000073 637.31 204.15 428.34 590.68 786.54 443.14 957.20 373.89 945.24 501.42 865.81 651.12 1013.20 592.25
00006506 00000074 638.93 202.26 425.43 595.95 788.89 442.91 959.54 373.70 948.34 503.94 864.83 652.02 1013.49 593.43
00006507 00000075 640.07 201.28 424.49 595.10 789.73 442.76 961.07 375.06 948.34 504.99 864.81 651.92 1012.45 594.62
00006508 00000076 641.26 200.49 422.14 594.50 790.04 443.48 960.16 376.17 947.96 505.55 866.17 652.47 1011.79 595.45
00006509 00000077 640.68 201.68 420.77 593.36 786.50 444.24 958.36 377.51 943.46 505.57 862.13 653.38 1008.13 596.59
00006510 00000078 640.56 199.57 420.13 594.84 785.70 443.87 957.51 377.25 941.78 504.80 859.09 651.42 1006.25 594.77
00006511 00000079 641.43 198.90 419.13 595.44 787.01 444.37 958.76 375.96 943.70 505.31 860.39 651.19 1008.43 593.13
00006512 00000080 645.04 200.61 417.54 592.43 789.31 443.72 961.47 376.15 946.96 506.37 864.22 651.74 1011.63 594.38
00006513 00000081 645.67 201.52 419.57 594.31 793.84 442.65 963.54 376.63 950.85 505.06 866.86 651.13 1012.33 595.59
00006514 00000082 647.96 200.59 418.86 595.10 797.33 442.60 965.94 375.46 954.25 506.09 867.20 649.10 1014.15 593.05
00006515 00000083 656.19 188.46 412.64 605.18 796.27 436.59 966.23 381.51 948.63 508.23 877.87 643.90 1027.87 598.09
00006516 00000084 661.52 186.85 411.50 602.33 799.42 434.81 967.97 377.79 952.53 502.24 883.80 641.64 1031.48 594.35
00006517 00000085 667.00 176.85 409.45 600.94 801.40 426.56 971.16 370.14 953.31 494.22 883.80 632.52 1033.73 586.16
00006518 00000086 670.88 173.88 409.80 597.03 804.87 420.76 975.65 364.60 954.26 489.01 886.45 624.73 1036.96 578.89
00006519 00000087 677.81 169.96 412.43 599.06 810.11 413.49 983.16 360.27 956.59 485.27 890.19 620.66 1041.13 576.59
00006520 00000088 679.71 154.52 415.55 616.25 813.24 406.65 989.85 352.73 960.19 481.26 890.32 618.78 1042.90 573.87
00006521 00000089 681.29 145.60 418.38 623.88 814.76 400.29 992.01 343.23 962.47 475.14 894.98 617.64 1045.80 569.86
00006522 00000090 685.41 141.35 417.62 623.48 819.68 395.49 996.55 337.77 967.89 471.28 897.71 614.48 1047.36 565.90
00006523 00000091 687.80 135.04 420.96 625.58 823.64 394.11 1001.16 330.61 973.31 466.54 903.16 613.34 1052.81 559.66
00006524 00000092 687.60 132.79 425.07 624.72 826.40 389.75 1004.35 322.87 977.35 462.05 906.79 611.86 1055.92 554.80
00006525 00000093 686.29 129.22 426.07 627.33 826.66 387.15 1004.82 318.43 980.21 457.94 906.99 609.49 1057.06 550.68
00006526 00000094 684.90 128.31 427.40 626.46 825.98 385.24 1002.66 316.42 978.87 457.12 906.10 608.29 1055.17 549.24
00006527 00000095 681.20 127.55 427.99 626.30 822.46 382.24 1000.05 315.82 974.33 456.31 902.34 605.08 1052.19 547.88
00006528 00000096 676.56 127.05 430.22 625.71 820.26 383.52 995.53 316.02 971.80 455.83 898.72 602.37 1048.37 545.08
00006529 00000097 673.52 125.69 429.17 626.00 817.11 381.19 991.34 315.79 967.25 453.54 896.82 599.79 1044.88 544.38
00006530 00000098 669.08 123.80 429.12 627.69 815.21 377.27 988.46 315.86 964.83 451.38 891.49 596.84 1040.95 544.93
00006531 00000099 662.78 119.60 427.16 630.38 808.85 375.91 981.42 316.53 957.80 450.08 886.82 596.13 1034.39 546.10
00006532 00000100 654.82 120.50 428.09 628.75 804.48 377.15 974.53 317.61 954.87 450.68 878.73 595.24 1029.00 545.61
00006533 00000101 643.71 124.87 425.73 637.97 785.97 383.60 970.52 325.59 947.20 464.11 872.82 603.34 1034.22 555.10
00006534 00000102 635.57 132.69 433.50 628.11 782.28 395.85 963.19 323.44 941.49 467.17 854.93 613.62 1014.81 552.92
00006535 00000103 628.56 135.99 433.68 629.60 772.01 400.15 956.70 328.61 929.70 473.40 846.68 620.10 1008.08 560.62
00006536 00000104 620.52 141.08 440.92 629.99 765.21 405.29 950.42 337.39 921.42 479.02 844.58 623.57 1004.91 566.30
00006537 00000105 616.70 145.45 439.94 636.57 760.62 408.55 943.97 342.82 914.77 486.03 836.80 628.60 997.02 573.31
00006538 00000106 611.80 145.84 439.59 639.57 755.96 408.34 940.47 344.49 911.16 490.33 829.42 629.64 991.79 576.32
00006539 00000107 607.48 141.60 434.32 645.94 747.69 405.37 934.22 343.32 903.13 490.54 820.95 628.82 983.91 576.72
00006540 00000108 605.09 136.78 431.28 639.91 742.26 398.57 928.65 339.04 894.57 481.59 818.22 622.25 976.92 571.94
00006541 00000109 602.57 133.65 433.25 639.95 740.14 395.72 925.18 335.96 892.08 475.98 817.62 618.46 976.30 568.00
00006542 00000110 599.79 132.98 434.64 636.42 738.76 392.28 921.33 330.53 890.79 470.92 818.64 615.44 975.04 563.30
00006543 00000111 599.50 130.76 434.10 638.06 739.87 389.53 921.75 327.12 891.79 468.68 818.87 614.50 974.32 561.79
00006544 00000112 595.98 129.07 436.89 636.45 739.34 387.84 920.33 323.65 892.17 464.74 818.48 611.53 973.72 557.54
00006545 00000113 596.69 126.06 437.69 639.14 740.96 385.51 922.51 320.01 894.22 462.52 818.72 610.72 974.50 555.29
00006546 00000114 602.01 121.14 435.25 642.94 745.18 383.49 927.05 318.21 897.68 461.59 821.98 609.96 976.68 554.10
00006547 00000115 606.41 119.54 436.04 643.91 749.47 380.41 935.46 317.87 902.97 461.05 826.03 610.65 981.26 556.48
00006548 00000116 611.34 119.92 436.87 643.43 755.73 378.89 943.03 315.02 910.59 462.15 833.70 613.27 988.22 557.68
00006549 00000117 619.65 122.22 435.75 641.59 761.73 379.16 950.04 315.39 917.34 461.97 840.83 614.46 995.67 558.95
00006550 00000118 627.45 123.46 431.78 638.11 768.81 384.63 956.37 319.25 926.04 460.33 845.42 612.57 1004.88 556.31
00006551 00000119 633.36 120.82 431.58 640.67 779.25 384.87 964.25 319.42 938.60 459.53 851.28 609.67 1012.50 553.76
00006552 00000120 643.12 119.25 423.08 656.31 786.14 379.29 970.09 324.83 948.28 464.65 872.54 610.13 1031.58 564.60
00006553 00000121 648.08 117.40 428.14 645.20 796.55 377.03 972.81 320.20 950.92 458.91 870.94 607.93 1025.57 560.37
00006554 00000122 654.40 120.05 427.65 644.62 800.34 377.36 978.80 320.83 954.26 462.44 877.71 610.66 1031.43 562.60
00006555 00000123 659.65 122.92 426.59 643.93 803.64 378.59 982.01 324.00 955.27 465.60 880.04 612.56 1033.14 566.11
00006556 00000124 661.66 127.45 426.87 645.74 807.10 384.39 985.27 330.84 958.55 470.98 880.03 615.14 1035.28 569.85
00006557 00000125 665.16 129.26 425.93 645.37 808.41 391.85 986.03 339.02 957.22 475.57 880.19 615.33 1035.96 570.84
00006558 00000126 667.14 134.59 423.93 643.38 809.33 397.57 986.01 346.05 957.11 482.71 879.07 617.40 1035.18 574.25
00006559 00000127 667.75 139.38 421.62 639.94 809.06 402.45 986.96 352.56 957.42 488.97 876.69 620.71 1033.56 579.44
00006560 00000128 666.10 141.03 420.90 639.50 807.26 403.03 986.04 356.07 955.66 492.59 872.80 622.14 1029.70 583.57
00006561 00000129 666.96 142.28 417.25 637.22 806.30 404.28 984.62 358.28 953.89 496.69 871.88 623.51 1027.79 585.82
00006562 00000130 669.23 140.81 412.28 636.82 806.04 404.95 983.70 360.00 952.60 499.50 870.68 623.93 1025.31 587.03
00006563 00000131 669.80 141.76 412.76 634.27 806.03 403.79 984.39 359.33 951.11 500.51 871.45 624.62 1024.90 588.19
00006564 00000132 668.97 140.66 414.51 635.48 806.41 403.79 984.91 359.08 951.59 500.30 872.18 624.40 1025.86 587.53
00006565 00000133 668.54 141.43 416.82 633.28 807.71 403.93 985.48 359.16 951.87 499.90 873.76 623.37 1025.35 586.69
00006566 00000134 670.08 141.25 416.36 633.34 809.45 404.85 986.62 359.92 951.39 500.82 875.73 624.27 1025.34 587.32
00006567 00000135 671.55 140.27 417.27 634.79 812.05 406.75 989.56 360.83 953.39 504.19 878.60 626.25 1026.19 588.55
00006568 00000136 674.35 141.14 416.88 632.64 812.70 405.71 990.13 360.78 952.41 503.43 879.39 625.32 1026.27 588.09
00006569 00000137 674.83 141.93 416.47 627.79 812.27 401.49 990.48 357.88 951.39 500.94 879.46 622.31 1025.55 586.09
00006570 00000138 675.64 137.60 415.55 630.13 812.30 395.84 989.64 354.69 950.41 498.31 877.45 618.48 1023.50 583.36
00006571 00000139 676.34 131.31 417.55 629.12 814.22 390.46 992.13 348.61 951.92 493.13 880.90 613.95 1024.61 578.03
00006572 00000140 676.81 127.82 420.90 630.71 815.76 387.11 994.23 343.29 953.24 488.38 882.87 611.88 1026.79 574.26
00006573 00000141 679.21 126.12 420.37 632.02 818.83 384.85 997.37 341.21 956.20 486.73 886.05 611.67 1028.91 574.26
00006574 00000142 681.37 124.77 419.03 632.75 820.81 384.69 998.86 340.62 958.11 486.90 887.53 611.69 1029.66 573.70
00006575 00000143 683.60 126.09 419.14 631.86 821.71 385.58 1001.48 339.48 959.64 487.83 888.31 612.20 1033.21 572.38
00006576 00000144 685.23 125.63 419.63 631.52 823.61 386.76 1003.63 339.92 961.30 488.55 890.20 611.63 1035.38 571.26
00006577 00000145 686.81 123.02 420.26 634.76 825.04 386.50 1005.97 339.21 963.17 489.30 892.27 612.25 1037.55 571.25
00006578 00000146 687.19 122.62 421.72 636.70 825.76 386.95 1006.61 339.59 963.68 490.23 893.11 612.77 1038.63 571.53
00006579 00000147 689.39 122.60 422.15 638.24 826.83 388.91 1008.43 339.31 965.75 489.99 896.19 613.53 1043.89 570.30
00006580 00000148 691.26 125.49 422.64 635.32 828.55 390.56 1010.58 340.18 967.19 491.42 897.58 614.78 1046.01 570.79
00006581 00000149 691.66 128.89 427.61 634.56 831.27 394.32 1013.14 343.16 969.72 495.67 901.56 618.39 1049.46 573.86
00006582 00000150 692.88 134.95 428.97 632.74 833.75 397.24 1016.96 347.91 972.02 499.14 902.94 622.46 1051.27 579.44
00006583 00000151 694.80 139.35 432.25 630.22 836.59 393.51 1023.42 345.89 976.00 502.18 905.82 624.53 1055.32 582.37
00006584 00000152 698.64 139.61 433.37 631.14 843.23 394.31 1028.83 346.30 983.94 500.49 914.18 628.28 1059.97 586.01
00006585 00000153 705.33 141.31 431.32 632.20 849.87 396.42 1035.27 347.20 995.17 497.99 918.26 629.09 1068.19 586.16
CROP_BBOX: 268 0 1425 1053
