Video ID: 	ryieHIkkjbs
H: 	2160
W: 	3840
FPS: 	25.0

FRAME INDEX X0 Y0 W H [Landmarks (5 Points)]

00001508 00000000 1854.19 186.86 468.34 709.45 1943.61 494.42 2171.50 479.24 2037.87 624.93 1960.82 698.96 2198.00 683.40
00001509 00000001 1850.46 182.46 467.57 705.16 1933.94 491.64 2162.27 471.06 2031.04 616.46 1956.34 695.37 2195.46 678.45
00001510 DELETE   1841.31 184.49 465.52 699.48 1923.52 491.69 2146.49 472.02 2012.56 619.87 1945.17 694.27 2180.55 677.58
00001511 00000003 1824.83 190.77 460.28 686.40 1906.33 492.78 2116.50 468.15 1986.76 625.09 1927.93 700.81 2163.14 678.22
00001512 00000004 1807.81 196.38 464.00 689.44 1885.79 497.30 2096.19 474.28 1960.77 633.60 1910.49 705.83 2140.07 684.27
00001513 00000005 1799.45 203.22 459.51 689.46 1874.59 506.67 2082.76 486.85 1943.05 640.96 1901.56 709.28 2121.31 690.36
00001514 00000006 1794.93 206.39 457.04 691.65 1869.68 512.97 2076.83 493.55 1939.03 649.47 1899.00 714.23 2116.04 695.04
00001515 00000007 1794.82 205.95 456.20 695.21 1870.22 520.36 2078.05 500.56 1942.05 653.24 1905.93 726.63 2110.82 708.09
00001516 00000008 1793.98 211.01 460.55 689.55 1876.34 528.27 2083.79 506.50 1955.02 658.72 1917.41 740.60 2108.29 721.22
00001517 00000009 1797.53 214.00 462.91 691.71 1882.78 543.21 2091.69 520.75 1963.99 665.94 1924.96 754.36 2105.80 735.62
00001518 00000010 1798.34 211.32 464.25 693.25 1882.16 539.40 2093.45 520.30 1962.97 668.36 1923.75 755.81 2102.97 739.74
00001519 00000011 1796.16 207.60 464.11 697.56 1877.56 531.85 2090.27 514.95 1955.04 662.93 1922.16 759.60 2094.43 745.31
00001520 00000012 1794.82 206.27 463.17 709.96 1876.20 530.44 2086.52 511.50 1948.24 658.77 1924.51 765.88 2093.15 750.03
00001521 00000013 1793.77 210.70 461.78 711.74 1875.32 532.31 2084.39 513.68 1946.90 664.01 1917.85 760.76 2101.73 744.46
00001522 00000014 1793.37 214.34 461.39 709.49 1873.00 535.70 2083.77 517.57 1947.07 674.68 1912.65 754.22 2111.93 736.46
00001523 00000015 1793.96 216.61 458.85 706.45 1873.09 535.72 2083.23 518.69 1946.74 677.16 1910.64 748.82 2114.84 731.01
00001524 00000016 1792.23 211.71 460.13 702.21 1871.96 533.48 2077.97 515.39 1942.23 669.17 1910.83 746.82 2106.59 729.28
00001525 00000017 1789.82 207.10 462.15 689.94 1870.49 525.94 2074.71 511.40 1938.60 661.28 1911.12 744.18 2090.71 731.07
00001526 00000018 1789.43 205.24 464.77 686.53 1870.47 521.78 2075.78 508.56 1938.40 657.68 1913.84 743.22 2083.46 731.19
00001527 00000019 1789.63 204.84 468.15 686.79 1873.65 522.67 2079.73 506.56 1946.28 656.59 1920.94 744.90 2085.63 730.67
00001528 00000020 1790.00 205.75 469.55 687.30 1877.13 525.36 2085.38 503.60 1957.36 657.05 1928.76 747.06 2095.69 728.25
00001529 00000021 1791.91 206.23 467.97 687.52 1877.93 527.37 2087.97 501.07 1961.44 654.30 1930.24 748.87 2102.64 726.77
00001530 00000022 1792.18 206.35 465.27 693.54 1875.74 528.86 2087.29 500.09 1959.04 655.14 1923.56 746.57 2112.88 722.48
00001531 00000023 1792.86 208.31 460.17 697.61 1871.99 530.45 2083.34 503.72 1951.33 657.15 1913.62 743.73 2113.41 720.79
00001532 00000024 1791.16 213.65 460.43 692.37 1869.76 530.67 2078.66 505.86 1945.69 656.59 1910.97 745.15 2105.56 724.02
00001533 00000025 1788.07 212.01 460.86 692.59 1868.59 531.71 2073.71 509.67 1941.02 656.60 1908.27 744.46 2097.10 725.63
00001534 00000026 1784.76 213.10 463.59 693.24 1866.09 529.42 2071.07 511.15 1934.15 656.00 1904.00 745.35 2089.01 729.55
00001535 00000027 1784.60 213.47 462.07 692.15 1864.01 527.70 2069.03 512.54 1928.42 655.66 1901.22 748.16 2079.84 734.82
00001536 00000028 1784.81 209.84 461.82 691.76 1862.96 525.37 2068.29 512.90 1924.55 652.47 1899.76 750.55 2069.12 739.58
00001537 00000029 1786.20 205.54 462.39 692.08 1864.66 516.42 2071.88 510.83 1923.97 648.76 1896.97 748.87 2059.84 743.75
00001538 00000030 1793.29 197.42 459.72 698.68 1870.66 515.02 2079.40 512.89 1932.27 639.78 1899.32 742.96 2060.50 741.44
00001539 00000031 1799.12 196.67 461.90 699.19 1879.97 514.78 2092.88 513.32 1944.10 633.34 1905.46 740.95 2068.12 740.27
00001540 DELETE   1813.01 191.38 463.46 702.85 1900.54 497.45 2117.47 501.05 1972.32 621.02 1919.20 730.79 2091.56 734.86
00001541 DELETE   1826.06 180.37 480.07 718.53 1923.53 484.44 2154.73 493.47 2007.69 613.98 1932.41 721.14 2127.21 731.43
00001542 00000034 1871.48 354.64 421.90 622.02 1929.07 624.69 2108.64 626.86 1973.86 768.06 1966.48 806.72 2141.64 803.89
00001543 00000035 1874.20 346.52 422.68 631.22 1933.70 616.10 2121.51 625.02 1984.72 762.78 1966.74 801.35 2158.67 800.33
00001544 00000036 1880.35 339.60 434.52 639.93 1946.95 616.58 2143.69 615.84 2007.97 760.53 1977.22 803.02 2177.41 795.16
00001545 00000037 1892.63 332.29 435.19 643.39 1959.96 618.12 2157.55 615.63 2023.17 758.29 1997.50 811.61 2184.32 803.67
00001546 00000038 1897.59 322.22 438.07 658.51 1971.38 614.75 2174.13 602.34 2038.96 747.22 2006.06 825.11 2186.47 813.26
00001547 00000039 1897.19 318.25 443.90 656.34 1972.17 606.28 2178.44 594.46 2042.46 735.92 2005.47 824.19 2181.45 814.19
00001548 00000040 1891.45 312.78 443.78 645.89 1965.40 593.14 2170.38 589.76 2029.85 725.78 1994.73 814.85 2159.78 811.57
00001549 00000041 1881.27 308.00 441.67 642.46 1957.45 581.52 2151.74 587.63 2009.27 716.00 1979.40 805.09 2131.10 809.28
00001550 00000042 1872.53 302.29 438.84 648.67 1945.60 580.53 2131.73 590.41 1986.86 710.14 1962.71 799.33 2108.50 805.93
00001551 00000043 1870.80 295.93 426.15 652.26 1920.20 572.80 2107.53 587.31 1957.11 709.02 1941.94 798.20 2086.27 808.22
00001552 00000044 1864.57 295.22 418.38 660.00 1911.56 573.42 2086.66 582.69 1938.56 706.26 1932.51 800.15 2068.91 806.14
00001553 00000045 1862.48 298.44 414.85 660.01 1906.99 576.34 2077.84 584.36 1927.61 708.14 1929.76 804.31 2060.46 809.33
00001554 00000046 1864.52 301.40 413.87 659.65 1907.68 580.92 2078.40 586.52 1928.44 712.93 1933.55 808.75 2065.60 811.94
00001555 00000047 1868.76 298.26 417.21 663.17 1912.61 584.16 2091.73 587.81 1942.86 712.47 1941.86 808.89 2081.11 810.89
00001556 00000048 1877.87 301.02 422.67 652.42 1924.80 581.32 2113.22 587.89 1962.65 714.48 1953.83 806.51 2103.66 810.88
00001557 00000049 1877.14 303.13 436.79 655.97 1944.28 587.39 2135.10 589.57 1986.60 715.04 1966.63 809.98 2122.63 810.88
00001558 00000050 1879.64 303.36 438.80 654.02 1948.85 584.22 2140.76 587.20 1992.77 712.84 1968.07 803.30 2132.34 805.12
00001559 00000051 1875.33 299.32 442.31 655.34 1944.34 579.62 2137.80 586.06 1985.32 710.85 1961.92 794.91 2127.88 798.79
00001560 00000052 1868.51 295.94 444.57 656.17 1934.52 575.31 2124.25 584.53 1968.95 708.02 1950.46 790.69 2109.99 796.12
00001561 00000053 1871.66 290.52 433.70 660.97 1918.61 570.68 2109.01 581.92 1953.90 708.38 1941.89 793.86 2100.09 801.90
00001562 00000054 1868.82 286.91 431.37 663.11 1913.00 569.36 2095.96 581.21 1941.12 704.59 1936.71 792.12 2084.65 800.50
00001563 00000055 1870.23 286.13 428.84 660.91 1912.14 568.70 2087.52 580.34 1935.47 701.48 1936.62 791.23 2074.06 799.11
00001564 00000056 1873.56 286.16 429.49 659.46 1914.84 568.48 2088.81 580.24 1936.35 699.34 1939.07 792.62 2073.53 800.52
00001565 00000057 1873.56 287.67 437.96 659.91 1930.94 571.24 2104.59 581.51 1947.75 698.70 1946.37 792.94 2079.04 798.97
00001566 00000058 1881.48 287.11 441.01 659.96 1945.55 565.97 2120.89 578.12 1967.21 702.15 1960.53 791.18 2097.74 799.03
00001567 00000059 1890.31 280.57 443.49 663.28 1957.17 567.36 2138.72 573.58 1989.51 695.77 1975.73 792.76 2119.51 797.15
00001568 00000060 1893.32 279.50 446.03 660.74 1960.86 561.45 2143.74 568.15 1995.03 692.58 1978.82 789.91 2124.26 795.04
00001569 00000061 1887.98 276.62 447.46 658.98 1954.38 554.95 2134.20 562.05 1984.09 685.08 1966.48 783.32 2112.55 788.78
00001570 DELETE   1888.56 266.55 438.38 662.26 1941.75 550.00 2126.28 558.85 1971.85 677.86 1957.54 784.16 2104.64 790.66
00001571 00000063 1885.10 264.34 443.18 665.07 1938.61 549.85 2123.89 556.05 1968.51 672.07 1957.40 783.97 2104.24 788.42
00001572 00000064 1894.33 263.52 439.43 671.47 1948.04 551.54 2131.22 552.10 1982.55 675.04 1970.37 787.62 2121.90 788.36
00001573 00000065 1906.57 268.26 439.72 678.13 1962.25 550.43 2150.36 550.91 1998.97 680.02 1983.73 786.51 2148.64 787.86
00001574 00000066 1924.21 272.23 434.90 669.49 1977.68 546.04 2174.92 558.00 2017.92 684.00 2000.94 778.57 2168.91 786.61
00001575 00000067 1930.57 271.08 439.29 664.76 1988.14 544.74 2183.80 555.04 2029.79 680.66 2011.38 777.24 2171.67 784.13
00001576 00000068 1934.51 267.99 438.53 661.18 1991.85 543.81 2185.96 556.61 2031.23 677.61 2011.05 771.36 2171.34 780.23
00001577 00000069 1937.99 268.94 437.65 654.56 1993.07 544.93 2187.47 556.51 2032.17 676.07 2010.28 767.94 2173.99 775.88
00001578 00000070 1938.30 265.40 436.50 655.55 1994.85 544.52 2192.03 555.40 2036.76 674.85 2009.43 767.01 2174.80 774.99
00001579 00000071 1940.16 264.41 438.19 659.40 1999.80 544.28 2194.34 551.87 2041.73 674.31 2016.84 769.23 2177.87 774.63
00001580 00000072 1941.14 264.36 441.33 658.02 2002.70 545.28 2196.73 551.12 2046.67 676.01 2021.34 769.75 2183.14 773.59
00001581 00000073 1939.34 265.88 442.46 656.00 2001.07 546.13 2196.52 550.59 2046.23 675.58 2020.97 770.58 2183.06 773.49
00001582 00000074 1937.90 263.02 437.77 664.55 1998.90 543.93 2193.02 546.75 2041.60 675.40 2024.15 775.34 2180.48 776.42
00001583 00000075 1935.85 261.69 435.89 665.53 1995.61 544.25 2192.91 544.78 2041.54 672.32 2021.55 774.12 2184.04 773.37
00001584 00000076 1933.74 261.20 437.04 663.76 1993.01 544.86 2193.24 544.85 2042.31 672.87 2017.02 769.45 2190.27 768.51
00001585 00000077 1931.86 259.43 434.62 655.72 1991.27 543.56 2193.82 544.78 2044.24 673.45 2013.90 766.77 2183.34 767.26
00001586 00000078 1930.48 256.74 433.08 656.09 1990.00 541.06 2192.87 544.88 2042.88 672.04 2010.11 764.51 2176.79 767.15
00001587 00000079 1927.88 258.22 433.47 654.03 1987.41 541.00 2190.68 546.45 2039.58 672.38 2007.39 765.20 2171.31 769.12
00001588 00000080 1924.25 260.09 433.80 654.05 1983.66 542.60 2189.99 546.75 2038.59 674.43 2006.26 766.22 2174.65 768.93
00001589 00000081 1915.07 259.26 438.86 664.20 1978.46 541.61 2180.11 537.10 2033.92 673.12 2004.87 766.94 2184.34 763.92
00001590 00000082 1910.52 253.60 435.66 673.49 1971.64 541.12 2168.57 532.54 2023.95 673.53 1997.18 761.34 2187.13 754.48
00001591 00000083 1904.80 243.67 432.54 681.78 1964.66 539.06 2156.88 527.99 2013.66 669.59 1991.12 755.24 2184.67 745.65
00001592 00000084 1904.13 235.20 428.13 688.21 1964.55 537.10 2152.68 521.02 2011.58 661.05 1990.73 745.02 2188.64 731.05
00001593 00000085 1903.71 229.79 430.96 687.32 1966.20 533.13 2155.62 513.77 2016.42 654.66 1993.57 740.55 2193.57 724.38
00001594 00000086 1909.97 222.97 432.30 693.91 1968.77 532.44 2164.87 510.95 2021.76 652.61 1996.58 740.72 2204.97 723.08
00001595 00000087 1917.05 226.30 434.00 681.78 1974.54 531.35 2181.77 514.67 2033.71 654.36 2001.12 736.11 2207.71 720.66
00001596 00000088 1922.72 226.18 433.91 679.97 1981.68 527.50 2187.29 517.06 2036.01 655.08 2004.54 732.99 2209.28 722.24
00001597 00000089 1925.37 221.97 435.27 681.36 1986.55 521.87 2190.66 516.23 2037.28 651.99 2004.31 726.78 2209.49 719.85
00001598 00000090 1925.86 215.01 441.09 683.85 1988.40 516.35 2194.14 513.67 2038.27 647.01 2003.41 719.70 2210.33 715.37
00001599 00000091 1925.56 212.22 443.16 684.41 1989.28 513.42 2194.16 510.96 2038.92 645.25 2004.23 714.62 2211.60 710.29
00001600 00000092 1924.14 213.52 440.90 683.33 1987.75 513.95 2192.57 510.34 2038.59 645.48 2003.48 713.59 2211.29 708.15
00001601 00000093 1919.40 213.37 439.77 686.20 1980.38 515.11 2186.00 509.34 2031.71 645.77 1997.96 716.10 2206.27 709.12
00001602 00000094 1915.72 214.52 437.60 685.16 1975.23 515.29 2180.85 509.31 2025.75 646.06 1993.06 718.02 2200.59 710.96
00001603 00000095 1910.96 212.92 437.93 688.35 1970.78 514.36 2176.34 511.12 2019.03 645.83 1986.97 716.39 2193.35 711.37
00001604 00000096 1909.43 205.16 435.75 701.53 1969.76 510.36 2166.00 507.86 2010.85 644.33 1981.67 715.27 2194.05 712.34
00001605 00000097 1907.86 202.41 437.53 703.71 1969.24 507.66 2164.63 506.47 2007.41 642.29 1980.25 714.04 2191.12 712.19
00001606 00000098 1907.67 203.10 435.37 702.04 1968.08 508.80 2160.06 505.65 2003.58 639.17 1979.74 716.07 2186.04 713.19
00001607 00000099 1904.34 203.60 435.66 698.12 1965.59 506.33 2150.88 503.70 1994.37 632.79 1975.44 715.28 2174.41 713.40
00001608 00000100 1900.96 202.51 434.41 692.63 1961.52 504.62 2140.51 500.06 1982.51 623.49 1970.70 716.50 2162.88 713.58
00001609 00000101 1902.44 201.83 429.20 689.96 1960.74 505.54 2132.04 498.42 1972.93 619.77 1970.51 721.15 2151.81 715.85
00001610 00000102 1905.55 203.55 423.97 689.25 1962.19 504.68 2128.40 500.09 1966.27 619.32 1969.96 721.25 2145.00 717.47
00001611 00000103 1912.09 208.27 419.53 692.37 1966.12 509.17 2129.90 506.61 1969.90 624.21 1978.38 730.35 2146.30 727.91
CROP_BBOX: 1545 0 2765 1206
