Video ID: 	fz6EmD7zz6c
H: 	1080
W: 	1920
FPS: 	25.0

FRAME INDEX X0 Y0 W H [Landmarks (5 Points)]

00044379 00000000 1076.59 272.90 432.43 534.99 1215.28 429.46 1381.19 496.90 1258.51 568.65 1166.73 614.90 1317.50 672.07
00044380 00000001 1074.22 260.69 433.03 547.11 1212.19 429.81 1378.65 492.20 1259.45 568.18 1168.14 619.07 1315.54 672.10
00044381 00000002 1068.71 263.69 434.20 547.74 1205.45 430.45 1375.78 486.96 1255.79 567.60 1164.68 622.88 1316.56 670.68
00044382 00000003 1068.78 259.86 427.47 552.96 1201.35 432.83 1370.85 482.16 1255.13 572.86 1164.67 627.04 1318.62 668.77
00044383 DELETE   1058.88 253.17 429.18 562.14 1191.92 436.51 1366.44 478.74 1257.32 570.55 1163.22 633.63 1319.75 668.99
00044384 DELETE   1053.62 250.42 418.57 562.14 1179.53 447.06 1353.61 476.66 1252.79 564.89 1162.62 637.34 1321.01 662.24
00044385 DELETE   1045.26 252.73 414.36 552.46 1166.02 448.73 1339.78 467.45 1243.34 556.87 1161.07 633.52 1315.95 649.49
00044386 00000007 1022.77 241.03 423.97 561.03 1143.37 446.20 1324.99 451.15 1235.76 555.00 1151.06 637.81 1315.85 640.39
00044387 DELETE   995.15 231.65 435.40 577.17 1123.16 446.13 1302.99 443.07 1225.13 550.85 1140.15 638.24 1301.31 633.82
00044388 DELETE   977.90 244.91 430.14 559.34 1102.03 444.50 1282.62 432.13 1206.63 547.57 1130.97 639.84 1287.20 628.54
00044389 DELETE   966.28 242.29 424.28 560.52 1082.32 448.33 1268.62 432.78 1189.82 549.81 1122.39 646.97 1276.30 633.00
00044390 00000011 959.22 249.70 423.18 544.17 1071.82 454.69 1253.93 434.65 1179.00 556.06 1116.16 649.60 1266.33 632.77
00044391 00000012 955.60 254.22 422.86 537.26 1066.19 455.19 1249.86 434.83 1172.73 555.00 1110.50 648.93 1262.56 632.17
00044392 00000013 953.20 257.82 417.14 530.38 1061.37 451.81 1247.03 430.29 1168.27 552.03 1104.84 646.21 1258.09 628.48
00044393 00000014 941.66 253.37 425.83 533.78 1058.20 458.44 1237.26 427.83 1172.09 551.90 1103.86 648.26 1258.73 620.52
00044394 00000015 939.07 238.76 426.43 543.13 1053.66 459.14 1231.48 423.33 1167.79 545.41 1103.40 647.67 1257.39 615.41
00044395 00000016 936.24 240.07 428.22 540.22 1050.66 457.56 1228.03 420.47 1163.49 539.61 1103.60 645.34 1256.53 611.85
00044396 00000017 933.57 237.54 429.42 542.12 1047.89 453.56 1221.99 413.60 1160.41 532.21 1103.98 641.64 1256.50 605.82
00044397 00000018 930.94 235.58 431.06 546.70 1043.46 452.86 1216.34 407.06 1158.24 528.14 1102.49 640.68 1260.48 600.16
00044398 00000019 928.74 237.90 430.94 538.56 1042.28 451.36 1213.37 403.64 1156.88 524.95 1102.69 636.71 1258.65 594.58
00044399 00000020 929.65 233.21 432.55 539.72 1042.55 453.26 1213.55 402.62 1157.63 523.84 1105.45 636.13 1260.05 591.26
00044400 00000021 931.23 233.77 427.71 534.42 1042.35 461.26 1208.23 410.51 1153.32 525.57 1104.08 636.12 1253.16 591.74
00044401 00000022 930.85 234.14 430.84 541.28 1042.20 467.69 1207.55 418.30 1149.64 531.77 1100.88 640.86 1249.99 597.61
00044402 DELETE   928.50 241.42 429.61 539.70 1036.63 466.78 1202.62 418.36 1141.81 534.61 1098.34 647.65 1245.13 605.23
00044403 DELETE   921.80 250.98 438.56 541.39 1030.64 463.44 1201.44 421.98 1134.32 538.29 1086.57 648.97 1240.05 612.49
00044404 DELETE   917.04 257.76 440.57 540.48 1023.96 462.02 1198.37 425.81 1123.86 543.14 1075.14 649.89 1233.16 617.73
00044405 00000026 914.80 258.50 434.54 537.34 1018.13 463.41 1191.52 427.13 1116.03 543.38 1070.34 652.76 1221.54 620.79
00044406 00000027 913.29 257.53 428.65 525.36 1014.04 463.26 1187.43 426.80 1111.27 545.44 1069.74 654.45 1212.79 622.58
00044407 00000028 910.87 261.57 428.17 514.65 1009.40 463.16 1186.90 425.37 1108.49 543.61 1067.31 655.00 1213.30 621.90
00044408 00000029 907.72 266.09 431.83 513.60 1007.86 462.63 1183.97 424.60 1105.43 541.09 1064.83 651.71 1213.74 618.36
00044409 00000030 906.71 267.87 433.25 515.27 1006.25 460.65 1182.89 426.15 1102.93 541.48 1059.72 649.71 1210.29 619.64
00044410 00000031 906.95 269.53 432.45 518.92 1004.81 460.36 1180.91 426.91 1100.60 544.74 1057.71 651.02 1208.64 622.19
00044411 00000032 906.91 268.99 432.08 522.76 1006.30 461.79 1181.99 429.17 1101.50 549.13 1058.58 652.61 1209.59 624.55
00044412 00000033 906.72 270.41 431.73 519.89 1007.01 463.23 1181.95 430.93 1101.84 550.03 1058.84 652.51 1209.65 624.76
00044413 00000034 907.91 268.06 428.75 517.82 1008.03 463.61 1184.86 430.75 1104.69 550.30 1059.54 653.70 1210.07 625.55
00044414 00000035 908.83 265.51 428.47 513.08 1008.50 465.15 1186.17 430.38 1106.57 550.30 1059.46 653.59 1211.45 623.66
00044415 00000036 909.06 264.29 429.23 510.80 1009.82 465.67 1187.38 430.38 1108.20 550.96 1060.60 651.95 1212.90 621.46
00044416 00000037 908.70 265.45 429.88 513.56 1011.19 465.73 1187.82 430.02 1109.70 550.73 1063.79 652.76 1213.78 621.96
00044417 00000038 909.51 264.06 432.48 524.58 1012.86 466.50 1187.02 431.93 1109.51 551.92 1065.22 653.62 1213.75 623.63
00044418 00000039 910.00 262.93 435.21 529.97 1012.55 466.38 1187.94 431.29 1109.67 552.35 1065.12 654.88 1216.09 624.21
00044419 00000040 910.40 264.29 436.20 528.66 1013.45 466.39 1189.21 431.40 1110.28 552.15 1065.35 655.26 1216.48 624.80
00044420 00000041 910.90 264.72 436.52 529.21 1014.38 465.85 1189.86 431.42 1110.80 551.88 1065.16 654.50 1216.16 624.52
00044421 00000042 911.33 265.33 437.08 529.46 1014.84 465.55 1190.05 431.72 1111.19 552.26 1065.50 654.64 1215.98 625.20
00044422 00000043 911.98 265.70 436.14 528.13 1015.80 465.57 1189.93 431.91 1111.82 552.11 1066.28 654.36 1215.64 625.13
00044423 00000044 912.17 266.82 436.06 525.75 1016.36 465.43 1190.25 432.30 1111.83 551.47 1066.47 653.98 1214.15 625.28
00044424 00000045 912.88 263.35 433.72 528.99 1017.46 465.90 1190.76 432.23 1113.58 551.87 1067.86 654.68 1214.70 625.44
00044425 00000046 913.12 262.95 433.95 528.34 1017.92 466.41 1192.26 432.52 1114.94 552.55 1067.86 654.95 1215.30 625.46
00044426 00000047 913.11 263.25 434.97 528.70 1018.30 466.89 1192.45 432.57 1115.16 552.09 1068.68 655.25 1216.19 625.33
00044427 00000048 912.87 263.76 435.09 528.09 1018.25 466.14 1192.84 431.51 1115.72 551.82 1069.45 655.76 1216.29 625.64
00044428 00000049 912.31 264.12 434.50 526.07 1018.06 465.63 1194.08 431.63 1116.56 551.74 1069.02 656.51 1215.76 627.05
00044429 00000050 912.15 264.13 435.62 526.05 1018.32 466.01 1193.20 432.05 1116.04 551.78 1070.16 656.88 1215.11 627.45
00044430 00000051 914.18 261.54 434.14 528.13 1020.78 472.49 1192.70 439.22 1115.38 551.76 1072.05 656.50 1215.57 627.43
00044431 00000052 914.28 261.25 432.56 526.87 1019.98 475.71 1193.07 441.73 1115.54 552.57 1071.23 657.30 1216.05 627.96
00044432 00000053 914.02 261.23 433.18 527.86 1019.62 470.20 1192.07 436.88 1114.62 550.83 1070.96 656.23 1214.43 627.22
00044433 00000054 913.50 262.19 432.34 527.13 1017.67 467.55 1190.33 435.15 1112.67 550.58 1068.34 655.56 1212.00 627.50
00044434 00000055 913.04 261.58 432.40 528.58 1017.16 465.95 1190.24 433.27 1112.79 549.75 1068.18 655.37 1212.24 627.16
00044435 00000056 912.79 260.92 432.81 528.95 1017.11 465.31 1190.32 432.56 1113.01 549.13 1068.29 654.66 1212.57 626.29
00044436 00000057 913.19 260.52 431.79 528.86 1017.20 465.27 1190.38 432.69 1113.29 549.66 1068.44 654.84 1212.14 626.60
00044437 00000058 912.83 260.60 433.30 531.98 1017.27 464.79 1190.59 432.83 1113.16 549.92 1067.39 654.80 1212.27 627.03
00044438 00000059 912.59 260.81 434.03 533.17 1017.04 464.55 1191.38 432.64 1113.37 550.32 1067.06 655.59 1213.41 627.89
00044439 00000060 912.37 262.16 436.20 534.69 1016.91 463.98 1191.75 431.36 1113.43 550.22 1066.92 655.53 1215.34 627.24
00044440 00000061 912.70 259.83 435.26 537.84 1017.27 463.85 1192.91 430.62 1114.69 550.11 1067.46 656.30 1216.93 627.32
00044441 00000062 912.97 261.37 435.31 534.42 1017.79 462.42 1194.71 429.72 1116.32 549.38 1067.66 655.46 1218.06 626.98
00044442 00000063 913.63 263.11 436.80 531.56 1018.52 461.94 1196.02 430.22 1117.12 548.66 1067.75 655.00 1218.54 627.29
00044443 00000064 914.32 260.31 437.00 533.51 1019.99 461.83 1196.71 429.93 1118.65 548.64 1069.45 654.49 1219.02 626.39
00044444 00000065 914.81 261.79 436.17 532.29 1020.72 461.94 1197.24 430.32 1119.81 549.18 1070.01 654.69 1219.85 626.86
00044445 00000066 915.52 261.76 436.50 532.38 1021.70 462.28 1196.92 431.17 1119.43 549.47 1070.36 654.06 1219.04 626.67
00044446 00000067 915.61 261.15 436.55 532.88 1021.72 462.33 1197.07 431.34 1119.61 549.61 1070.14 653.89 1218.96 626.58
00044447 00000068 915.20 259.95 437.26 534.19 1021.73 462.12 1197.27 431.32 1119.41 549.59 1070.16 653.76 1218.60 626.55
00044448 00000069 915.91 262.67 437.64 529.99 1023.15 461.84 1198.13 431.50 1120.04 548.80 1071.21 652.99 1218.90 626.19
00044449 00000070 916.17 262.49 437.97 531.15 1024.36 462.33 1198.51 432.58 1120.92 549.03 1071.08 652.57 1219.03 626.24
00044450 00000071 915.90 261.93 439.25 534.16 1023.93 462.97 1198.84 433.23 1120.76 549.92 1070.58 653.26 1220.30 626.89
00044451 00000072 916.12 260.93 440.80 538.12 1023.61 463.51 1198.51 433.79 1119.94 550.77 1070.40 653.88 1221.15 627.31
00044452 00000073 916.42 260.62 440.34 538.94 1023.73 463.55 1198.87 433.94 1120.24 551.06 1070.36 654.37 1221.70 627.85
00044453 00000074 916.95 259.41 441.36 541.14 1023.88 463.00 1199.91 433.93 1120.68 551.64 1069.83 653.76 1223.46 627.64
00044454 00000075 917.12 260.44 441.19 539.78 1024.01 462.98 1199.96 434.49 1120.73 551.50 1068.73 652.02 1223.80 626.41
00044455 00000076 917.25 260.70 440.37 538.41 1024.13 462.60 1199.42 434.38 1120.76 550.82 1067.95 651.13 1222.41 625.89
00044456 00000077 918.30 261.51 436.39 534.34 1024.42 463.83 1199.36 435.10 1121.48 550.71 1067.54 649.97 1223.08 624.66
00044457 00000078 917.82 261.55 434.11 530.86 1025.38 466.24 1198.66 438.24 1121.61 551.00 1068.12 648.34 1221.50 623.90
00044458 00000079 916.16 261.11 435.21 529.06 1023.12 468.54 1197.80 439.35 1119.46 551.50 1066.22 648.19 1221.17 622.56
00044459 00000080 915.20 261.07 435.08 529.89 1022.54 472.36 1195.63 442.90 1117.99 552.72 1065.67 648.68 1219.44 622.80
00044460 00000081 914.57 262.56 435.76 530.97 1021.72 473.74 1194.86 444.75 1116.26 553.37 1064.32 648.68 1219.37 622.92
00044461 00000082 914.69 263.60 435.99 531.21 1021.61 474.69 1194.91 445.76 1115.77 554.96 1064.41 649.49 1220.00 623.78
00044462 00000083 914.24 263.81 435.59 528.22 1021.10 476.51 1195.26 446.20 1116.33 556.44 1065.24 650.81 1220.05 624.24
00044463 00000084 914.31 264.08 436.53 528.70 1021.09 477.82 1194.74 447.20 1115.61 557.43 1065.72 651.70 1219.22 624.78
00044464 00000085 913.91 265.30 437.25 529.00 1022.03 479.80 1195.14 449.24 1116.57 558.18 1066.79 653.08 1218.52 626.20
00044465 00000086 913.22 268.13 437.92 524.98 1021.77 481.08 1195.50 450.55 1116.88 557.45 1068.30 655.49 1217.74 628.92
00044466 00000087 913.21 269.01 438.11 523.17 1022.15 481.07 1196.28 450.48 1117.66 558.82 1068.26 655.75 1217.93 629.15
00044467 00000088 913.92 267.84 435.70 517.68 1021.46 480.52 1198.70 450.26 1118.97 558.96 1067.16 654.42 1219.94 628.42
00044468 00000089 913.85 266.72 434.61 518.35 1020.77 477.69 1197.86 447.71 1118.58 557.96 1066.90 654.42 1218.90 628.53
00044469 00000090 913.14 267.81 437.46 523.67 1022.60 473.01 1197.21 443.40 1118.65 556.11 1069.90 656.61 1216.53 630.95
00044470 00000091 912.79 266.93 438.76 528.94 1021.79 471.23 1195.82 442.35 1117.59 555.32 1068.43 655.98 1216.21 630.89
00044471 00000092 912.30 267.74 439.01 525.57 1021.44 470.96 1194.40 441.07 1117.09 554.85 1068.77 654.54 1216.60 628.46
00044472 00000093 913.16 264.57 436.20 525.84 1021.89 469.74 1195.27 439.55 1118.45 554.92 1069.65 655.33 1215.95 629.01
00044473 00000094 912.99 264.24 436.37 525.41 1021.91 469.00 1194.96 438.91 1118.16 555.38 1069.94 655.15 1215.46 628.88
00044474 00000095 913.74 265.50 435.89 524.36 1022.61 468.64 1196.83 438.45 1120.01 556.59 1070.37 656.50 1216.65 630.26
00044475 00000096 914.05 266.94 438.42 526.75 1022.34 468.19 1196.72 439.89 1118.27 559.71 1069.39 657.67 1214.87 633.04
00044476 00000097 914.31 268.04 440.97 530.17 1021.86 468.80 1196.34 441.33 1116.83 562.14 1069.71 659.91 1214.26 635.86
00044477 00000098 914.02 269.35 439.84 531.22 1020.59 470.39 1195.05 443.61 1115.31 565.24 1068.72 661.59 1213.23 638.09
00044478 00000099 914.24 266.82 440.63 535.19 1020.08 472.16 1195.56 445.17 1115.37 566.52 1068.63 663.38 1215.24 639.58
00044479 00000100 914.23 267.09 441.88 537.50 1019.61 473.12 1195.36 446.78 1114.69 568.58 1068.29 664.63 1215.83 641.29
00044480 00000101 914.59 265.66 441.15 544.73 1018.47 473.80 1194.04 446.81 1113.99 570.15 1068.88 666.99 1217.87 642.94
00044481 00000102 914.42 269.87 440.71 542.84 1018.09 475.06 1193.00 448.83 1112.66 572.77 1068.26 667.77 1217.19 644.23
00044482 00000103 914.59 267.69 437.69 544.73 1018.60 475.96 1192.82 450.02 1114.64 573.92 1068.70 667.77 1217.95 644.65
00044483 00000104 914.29 269.72 438.04 545.29 1018.74 476.96 1191.89 451.57 1114.11 575.84 1069.06 668.90 1217.83 646.16
00044484 00000105 914.53 270.13 437.82 545.66 1018.90 477.87 1191.88 451.89 1114.35 577.48 1069.76 670.14 1218.32 646.89
00044485 00000106 914.43 270.78 438.17 542.94 1018.57 478.00 1192.17 451.87 1114.55 577.14 1069.42 669.62 1218.13 646.38
00044486 00000107 914.23 270.55 438.82 542.55 1018.00 478.30 1192.20 451.65 1114.35 576.90 1069.15 669.37 1218.49 645.65
00044487 00000108 914.21 268.72 438.64 543.24 1017.49 477.78 1192.16 451.28 1114.26 576.09 1067.89 668.71 1217.82 645.16
00044488 00000109 914.23 269.75 439.85 539.59 1017.04 477.64 1192.13 451.21 1113.17 575.82 1067.48 667.95 1217.17 644.40
00044489 00000110 913.83 269.63 439.80 539.99 1016.45 477.78 1190.98 450.82 1112.22 575.05 1067.44 668.10 1216.82 644.10
00044490 00000111 914.02 269.94 439.35 539.75 1016.18 477.74 1190.74 451.01 1111.67 575.31 1067.04 668.20 1216.35 644.40
00044491 00000112 914.14 268.83 439.52 541.56 1016.30 477.83 1190.80 450.95 1111.99 575.80 1067.40 668.42 1216.97 644.45
00044492 00000113 914.23 272.12 439.44 537.70 1016.80 477.75 1191.32 451.58 1111.95 576.10 1067.41 668.18 1216.27 644.80
00044493 00000114 914.07 272.83 439.32 535.28 1016.85 477.91 1191.43 451.72 1112.07 576.14 1067.03 667.89 1215.35 644.60
00044494 00000115 913.89 272.44 439.20 533.14 1016.45 477.91 1191.90 451.27 1112.37 575.63 1067.02 667.47 1215.59 643.85
00044495 00000116 913.24 272.97 439.19 531.89 1016.06 477.96 1191.86 450.73 1112.15 574.69 1066.84 667.09 1216.06 642.95
00044496 00000117 913.16 273.53 439.01 532.29 1016.43 477.57 1190.54 451.31 1111.30 575.13 1066.66 666.95 1214.01 643.68
00044497 00000118 912.40 273.19 439.52 535.05 1015.92 478.23 1189.65 451.49 1111.01 576.46 1066.86 668.25 1214.29 644.48
00044498 00000119 911.76 272.86 439.97 539.28 1015.24 479.01 1188.93 451.16 1111.00 577.66 1067.40 670.12 1215.88 645.35
00044499 00000120 911.33 274.25 440.31 537.68 1014.91 479.39 1189.31 451.75 1111.27 578.18 1067.04 670.52 1215.96 645.89
00044500 00000121 910.84 273.62 441.13 544.93 1015.65 478.97 1189.17 452.03 1111.13 579.63 1067.61 672.24 1217.42 648.09
00044501 00000122 910.67 274.44 441.38 546.46 1015.91 479.21 1189.41 452.77 1111.22 580.75 1067.59 672.75 1217.95 648.82
00044502 00000123 911.00 274.35 441.07 543.10 1015.74 479.29 1189.97 452.26 1112.11 580.07 1067.97 671.73 1218.73 647.44
00044503 00000124 911.24 274.61 441.88 539.14 1015.40 479.40 1191.13 452.00 1112.65 579.20 1067.73 670.87 1218.89 646.29
00044504 00000125 911.74 274.08 440.20 536.51 1016.01 479.33 1190.68 451.91 1112.95 578.54 1067.49 669.74 1216.85 645.35
00044505 00000126 912.37 274.02 438.59 533.73 1015.84 479.75 1190.62 451.69 1113.10 578.80 1067.65 669.64 1216.36 644.69
00044506 00000127 912.73 273.28 436.69 530.54 1016.39 479.07 1190.58 451.14 1112.84 577.79 1068.72 669.25 1213.83 644.60
00044507 00000128 912.64 272.77 437.22 530.95 1016.11 479.30 1189.86 451.60 1111.92 578.04 1068.03 669.19 1212.67 644.70
00044508 00000129 911.33 275.38 437.49 529.77 1014.09 478.06 1188.40 450.94 1109.41 578.32 1068.19 671.14 1210.59 647.22
00044509 00000130 910.81 273.62 438.97 536.39 1013.81 478.48 1187.32 451.76 1108.48 579.18 1066.48 671.83 1210.05 648.17
00044510 00000131 910.21 274.39 439.56 536.10 1013.11 478.93 1187.86 451.45 1108.63 579.14 1066.80 671.86 1212.35 647.42
00044511 00000132 910.12 274.33 439.61 535.02 1013.10 479.01 1187.71 451.04 1108.89 579.64 1067.32 671.57 1212.35 646.72
00044512 00000133 911.18 273.07 439.08 539.04 1014.43 479.74 1188.79 452.27 1110.65 578.57 1066.65 671.65 1213.87 647.27
00044513 00000134 913.16 274.53 439.67 537.00 1017.53 479.29 1191.12 453.19 1112.55 578.71 1068.61 670.54 1214.94 647.28
00044514 00000135 914.58 275.46 434.70 527.95 1020.39 482.15 1193.32 456.55 1116.95 578.05 1072.35 669.63 1214.68 647.24
CROP_BBOX: 786 20 1629 947
