Video ID: 	KiMbZwhdnTI
H: 	1080
W: 	1920
FPS: 	25.0

FRAME INDEX X0 Y0 W H [Landmarks (5 Points)]

00013590 00000000 712.04 208.54 345.59 501.80 750.32 416.57 846.69 413.04 727.87 483.58 748.14 589.68 821.90 586.33
00013591 00000001 710.55 209.71 342.87 502.42 747.90 418.39 843.90 415.19 726.23 487.05 747.50 591.93 821.69 588.68
00013592 00000002 711.93 209.41 347.44 503.64 750.05 418.97 847.69 415.07 729.89 487.90 749.52 592.14 824.67 588.51
00013593 00000003 722.09 208.76 355.24 503.66 752.27 421.55 858.30 412.25 738.64 488.56 756.42 594.80 839.07 587.07
00013594 00000004 735.94 196.29 359.54 520.04 767.04 420.00 880.19 409.57 757.75 491.29 777.68 594.06 869.05 585.31
00013595 00000005 765.73 198.32 350.93 513.97 788.73 409.54 915.23 409.01 793.03 492.56 802.61 586.99 904.32 589.55
00013596 00000006 788.15 195.73 360.09 514.25 821.82 403.05 947.57 406.03 819.44 481.93 818.41 581.22 917.97 584.31
00013597 DELETE   812.65 193.48 360.90 519.27 852.95 393.24 989.34 394.44 869.29 473.22 854.48 580.86 954.85 582.20
00013598 00000008 836.44 188.18 348.41 522.97 879.58 392.00 1013.38 401.57 889.39 473.25 877.79 574.56 982.08 585.25
00013599 00000009 844.95 187.05 356.02 518.29 894.39 380.64 1035.56 400.47 902.12 470.51 881.59 563.54 998.23 582.52
00013600 00000010 849.68 186.73 359.95 511.52 906.13 377.16 1044.32 396.90 913.47 463.40 891.06 557.70 1003.30 576.53
00013601 00000011 850.68 185.65 361.97 509.32 911.34 386.59 1047.50 398.96 914.26 458.16 892.46 554.46 1002.88 566.31
00013602 00000012 855.64 187.42 361.06 510.26 913.13 388.47 1049.40 400.47 917.78 462.03 895.71 559.38 1003.83 571.12
00013603 00000013 861.82 185.82 359.16 511.87 915.63 389.38 1051.99 397.95 923.76 463.21 902.49 565.28 1004.45 574.46
00013604 00000014 868.39 183.14 355.92 508.28 919.32 385.45 1055.06 393.97 928.01 457.67 907.16 562.41 1004.16 571.61
00013605 00000015 871.61 183.91 353.76 501.85 925.88 381.53 1055.43 390.39 931.60 449.80 909.73 555.37 1000.40 564.52
00013606 00000016 874.85 179.88 354.77 503.34 930.25 371.30 1057.75 386.90 932.50 444.50 910.24 548.37 997.03 562.74
00013607 00000017 876.67 177.40 358.96 502.51 932.25 367.02 1057.97 383.52 933.16 440.10 909.59 543.52 994.18 558.46
00013608 00000018 887.99 175.36 346.07 500.58 933.52 355.14 1056.94 367.21 940.02 434.40 917.75 538.58 1010.09 549.37
00013609 00000019 878.29 166.07 359.43 504.18 947.71 353.13 1077.59 371.25 943.90 414.31 915.62 531.17 1013.50 546.83
00013610 00000020 887.37 165.33 356.28 496.86 962.93 346.12 1092.78 370.17 960.33 410.26 929.91 521.18 1025.77 540.44
00013611 00000021 898.96 159.45 363.69 496.54 980.34 340.93 1117.70 362.42 998.72 411.10 947.52 513.48 1054.00 531.69
00013612 DELETE   898.81 156.81 378.61 495.97 998.53 336.03 1141.71 366.70 1026.88 412.83 966.27 502.21 1078.55 527.52
00013613 00000023 898.89 152.56 380.38 497.41 1008.85 335.68 1150.93 367.33 1043.86 408.17 979.61 497.29 1090.74 523.41
00013614 00000024 896.37 155.09 379.27 493.12 1003.18 334.77 1145.42 365.98 1037.39 406.70 973.32 496.68 1084.84 522.45
00013615 00000025 892.31 157.86 370.87 488.50 985.95 334.39 1123.29 358.54 1012.81 401.62 956.23 498.55 1063.59 519.36
00013616 00000026 880.47 159.24 364.88 488.67 964.37 329.45 1102.33 356.29 976.39 392.86 928.63 497.36 1033.38 521.26
00013617 00000027 864.19 150.78 362.55 495.47 944.20 328.02 1079.94 358.32 946.68 394.05 906.12 498.78 1003.27 525.40
00013618 DELETE   848.09 152.81 359.29 488.82 924.93 333.41 1052.69 354.03 936.87 401.78 896.51 500.01 995.74 516.75
00013619 DELETE   840.88 149.65 347.49 493.85 892.92 327.69 1016.80 343.00 895.51 398.04 870.66 506.71 962.43 519.30
00013620 00000030 811.67 152.34 351.95 498.09 857.50 346.78 983.83 354.23 857.62 411.39 837.53 521.33 925.65 528.13
00013621 00000031 787.13 158.36 348.06 496.49 827.81 362.89 943.00 365.32 818.37 420.88 813.33 532.76 894.18 534.40
00013622 DELETE   766.20 163.22 348.97 500.32 812.80 371.77 915.90 372.59 795.43 433.27 802.07 540.43 878.18 540.38
00013623 00000033 761.54 170.55 346.78 506.83 801.24 379.45 902.35 376.95 777.96 446.35 799.18 552.32 877.98 548.79
00013624 00000034 763.68 180.70 346.36 512.14 801.13 377.33 893.62 373.98 772.90 458.16 804.40 566.57 887.31 565.34
00013625 00000035 767.27 181.38 344.19 503.75 788.47 395.72 903.71 381.30 780.95 458.46 799.14 566.43 893.95 558.30
00013626 00000036 768.53 182.68 343.68 500.05 793.35 396.18 906.42 383.70 784.78 456.63 798.67 563.20 892.44 556.97
00013627 00000037 768.26 182.85 350.43 499.81 805.55 392.26 899.52 385.45 782.63 457.33 808.74 561.79 882.90 556.24
00013628 00000038 767.52 189.12 340.42 496.86 819.27 388.75 906.12 392.88 779.42 464.02 803.08 568.58 869.29 571.56
00013629 00000039 766.93 190.60 339.04 500.84 814.85 390.80 907.62 396.45 775.03 468.51 797.62 572.27 871.08 576.59
00013630 00000040 770.74 195.14 341.12 505.85 813.66 393.86 909.48 398.03 779.25 473.63 803.00 578.59 878.16 581.67
00013631 00000041 773.72 201.33 343.97 503.97 815.50 399.25 916.48 399.22 788.79 470.38 809.13 580.68 888.04 580.46
00013632 00000042 777.26 191.05 351.71 516.66 807.96 404.93 920.84 399.09 793.72 478.95 813.01 584.52 908.27 582.87
00013633 00000043 775.66 191.76 351.88 513.20 805.87 406.69 918.58 400.58 789.83 477.16 807.14 583.35 903.48 581.84
00013634 00000044 773.51 186.87 347.30 517.66 800.68 408.44 912.12 402.92 784.75 476.74 802.73 582.35 899.11 581.44
00013635 00000045 769.35 188.69 347.45 520.50 794.18 412.42 904.93 407.80 780.68 483.40 801.93 586.47 895.98 585.57
00013636 00000046 767.07 196.31 347.07 520.66 791.59 414.35 902.58 408.34 778.53 488.83 804.33 592.92 896.55 590.48
00013637 00000047 761.08 202.03 355.91 529.13 811.33 402.51 895.51 398.53 777.09 488.77 815.46 596.47 890.48 594.13
00013638 00000048 762.09 195.06 356.18 541.16 814.46 402.79 898.63 399.25 778.51 489.14 818.27 597.47 893.82 595.18
00013639 00000049 766.20 206.78 351.42 526.05 813.54 410.12 912.33 415.41 787.32 484.75 816.47 589.49 897.45 592.38
00013640 00000050 772.02 206.04 353.46 519.44 813.91 414.42 915.85 415.79 789.71 485.44 817.08 590.36 900.86 590.49
00013641 00000051 775.12 194.50 357.72 524.78 805.70 414.52 920.19 407.56 790.18 491.58 817.05 593.83 914.35 590.14
00013642 00000052 776.23 193.57 359.22 523.36 809.44 407.46 922.45 404.94 789.63 487.42 816.90 587.12 915.70 586.99
00013643 00000053 779.86 194.93 356.99 516.46 814.89 400.79 924.82 400.98 794.25 480.76 818.55 580.24 915.71 582.33
00013644 00000054 784.86 195.95 354.72 510.84 819.72 397.77 927.57 398.09 798.33 476.74 822.82 576.68 916.99 578.90
00013645 00000055 790.77 202.39 347.45 498.35 828.55 399.50 931.04 393.90 804.28 464.78 826.72 575.56 910.18 570.83
00013646 00000056 794.78 198.96 348.15 498.74 832.52 400.05 934.77 391.20 809.42 462.28 832.22 574.78 912.96 567.73
00013647 00000057 797.74 195.01 348.83 499.74 834.51 399.01 937.01 389.15 814.66 461.45 834.74 573.44 915.93 565.89
00013648 00000058 798.76 192.65 347.97 498.97 831.24 400.30 936.94 390.24 812.74 464.20 832.40 573.18 917.98 565.60
00013649 DELETE   799.72 191.99 347.96 499.75 832.15 400.74 937.12 391.38 812.08 465.34 832.77 573.69 917.34 566.63
00013650 00000060 801.23 189.21 348.21 508.34 840.56 397.85 939.90 391.30 817.36 461.43 837.02 574.31 913.05 569.64
00013651 00000061 809.79 186.77 350.59 510.88 847.45 397.17 949.19 388.95 823.50 457.02 841.76 575.70 919.48 569.85
00013652 00000062 818.41 189.16 353.15 509.75 858.92 391.64 964.54 387.84 837.02 454.91 848.29 573.58 928.75 571.75
00013653 00000063 823.49 187.65 358.36 517.89 869.40 390.40 973.64 390.28 846.26 455.44 853.64 576.82 930.27 577.97
00013654 00000064 830.17 188.21 356.79 518.43 875.29 388.65 977.78 392.10 851.46 458.59 854.83 578.36 928.50 582.32
00013655 00000065 831.59 188.35 355.30 516.52 875.09 389.03 976.83 394.77 848.82 459.85 853.89 577.88 927.80 583.33
00013656 00000066 821.79 192.28 356.20 509.93 868.12 391.33 972.99 399.86 841.99 462.26 845.82 576.22 920.95 584.46
00013657 00000067 808.56 192.28 353.50 504.50 857.43 392.03 963.18 401.33 830.38 461.24 833.56 572.48 907.46 581.45
00013658 00000068 794.90 192.26 352.65 501.50 842.28 399.94 939.81 405.92 812.82 469.32 823.08 573.09 892.87 578.88
00013659 00000069 773.86 198.97 354.67 498.38 826.59 400.27 922.96 403.38 793.67 468.77 806.80 575.17 879.31 578.26
00013660 00000070 768.61 193.20 348.67 507.11 809.52 403.96 910.72 403.72 781.20 475.21 794.93 582.64 872.41 583.09
00013661 00000071 761.23 192.18 359.39 516.16 795.30 403.43 897.63 397.91 775.70 471.15 787.71 590.41 861.97 586.15
00013662 00000072 755.12 192.70 354.94 519.20 807.84 398.22 899.93 405.10 762.97 471.59 784.46 586.12 853.26 591.96
00013663 00000073 757.32 195.94 357.03 517.38 809.68 399.41 901.40 405.72 765.03 472.19 786.51 587.19 853.98 592.29
00013664 00000074 762.90 195.84 353.92 516.26 813.26 400.27 906.07 405.34 773.45 472.59 790.97 587.43 858.22 591.52
00013665 00000075 764.00 193.71 355.01 518.83 818.69 396.49 908.90 403.22 776.31 470.34 793.28 585.33 858.39 590.95
00013666 00000076 763.89 193.45 355.18 516.78 821.39 392.19 910.82 399.34 778.49 463.87 795.24 580.45 861.42 586.27
00013667 00000077 765.45 192.45 356.62 515.70 822.10 391.39 915.51 396.07 784.02 461.67 801.25 577.04 873.32 580.75
00013668 00000078 767.10 193.02 352.64 509.20 817.28 390.84 917.43 394.48 784.74 462.64 804.04 572.27 884.64 575.14
00013669 00000079 767.89 189.80 351.16 504.88 815.45 392.20 917.06 395.92 785.59 464.20 800.26 571.48 879.60 574.52
00013670 00000080 765.75 191.48 354.75 503.54 817.56 392.94 914.80 397.16 783.38 466.03 796.93 574.56 870.90 578.03
00013671 00000081 768.08 191.87 355.29 503.54 820.57 396.45 914.46 399.85 786.81 467.36 798.51 576.83 867.40 579.83
00013672 00000082 772.01 195.04 357.63 501.01 825.77 397.75 922.14 400.33 797.22 467.59 804.50 577.29 873.88 580.15
00013673 00000083 784.04 197.29 356.35 495.58 833.73 397.41 932.86 402.19 806.38 467.23 813.51 573.39 883.87 577.85
00013674 00000084 801.06 189.39 357.11 499.12 849.53 395.65 953.88 398.81 826.38 462.36 827.97 567.76 900.23 571.55
00013675 00000085 813.97 188.14 354.87 495.63 856.09 388.11 968.01 391.84 841.93 454.82 835.56 562.81 913.99 567.12
00013676 00000086 817.56 180.89 356.52 496.13 864.86 376.85 987.92 387.30 856.59 451.21 851.10 559.57 937.83 568.90
00013677 00000087 832.05 181.23 353.44 495.50 886.15 375.82 995.70 388.70 863.83 448.52 861.12 552.71 939.74 564.13
00013678 00000088 827.87 167.08 353.20 508.65 884.04 362.80 1003.19 379.80 873.44 434.38 864.19 545.46 946.56 559.08
00013679 00000089 834.70 171.70 346.85 508.18 887.52 359.97 1008.68 380.38 879.18 434.83 865.74 545.28 948.85 561.82
00013680 00000090 844.53 181.41 344.67 503.96 895.16 368.70 1013.33 391.31 879.64 449.06 867.86 549.86 957.88 569.06
00013681 00000091 847.96 180.97 349.84 510.50 902.66 372.55 1021.13 396.37 888.19 453.37 874.20 552.07 964.56 572.27
00013682 00000092 860.29 183.38 354.97 505.92 910.81 374.39 1030.56 401.63 896.02 461.19 883.63 550.64 975.64 573.78
00013683 00000093 869.99 185.19 356.38 513.37 913.55 374.68 1043.31 398.65 906.48 464.23 894.08 557.64 994.35 578.81
00013684 00000094 876.82 178.53 360.54 525.32 920.18 376.97 1056.40 394.22 922.30 462.53 907.85 560.99 1011.61 576.64
00013685 00000095 883.63 178.69 356.97 520.00 927.22 372.76 1062.36 386.68 934.85 456.45 920.18 555.75 1022.75 568.70
00013686 00000096 881.59 181.24 357.35 508.87 934.83 361.23 1072.21 383.67 936.73 446.08 919.28 542.31 1034.86 559.81
00013687 00000097 890.14 178.06 351.19 501.37 930.39 361.31 1067.22 370.61 944.15 444.50 923.94 541.84 1039.85 551.57
00013688 00000098 886.67 176.93 352.28 498.91 927.64 363.19 1066.60 366.25 944.54 441.04 925.04 542.28 1041.83 547.02
00013689 00000099 875.23 177.19 354.62 504.55 915.53 373.96 1056.55 375.05 927.17 444.54 908.06 548.59 1024.50 549.01
00013690 00000100 867.36 175.55 356.02 505.72 905.79 379.23 1045.22 377.40 916.57 444.45 901.37 549.47 1015.91 547.51
00013691 00000101 858.05 180.49 356.01 502.57 894.52 383.00 1034.32 375.23 907.28 442.87 894.21 554.04 1008.56 547.34
00013692 00000102 852.69 178.98 351.61 505.14 891.86 384.05 1022.79 374.07 902.05 443.15 894.48 554.44 1001.04 546.06
00013693 00000103 845.72 183.51 353.68 501.86 890.28 391.53 1013.85 374.38 894.12 447.42 897.06 559.40 996.43 546.07
00013694 00000104 846.46 185.89 350.26 497.28 888.86 390.77 1009.80 374.16 891.54 447.31 896.55 559.66 992.15 546.62
00013695 00000105 846.12 184.43 350.53 498.00 887.63 389.24 1007.56 371.68 891.05 446.54 896.77 560.30 990.80 546.52
00013696 00000106 845.66 174.01 349.87 508.73 878.79 391.12 1004.62 370.44 888.94 448.79 894.66 564.39 996.53 551.14
00013697 00000107 843.98 175.90 349.18 507.48 876.76 392.44 1002.05 370.84 887.77 449.52 894.17 565.02 995.35 551.05
00013698 00000108 841.51 177.57 348.55 506.36 871.61 394.63 998.03 371.56 884.14 449.98 890.09 567.09 991.20 552.09
00013699 00000109 839.12 180.37 349.38 503.96 869.32 395.19 995.29 372.67 881.77 450.68 887.47 568.06 987.04 553.51
00013700 00000110 837.61 182.36 349.78 501.22 867.90 395.09 993.46 373.55 879.52 450.74 884.96 568.28 983.12 554.54
00013701 00000111 836.99 182.91 350.83 500.90 868.03 394.62 992.88 374.30 879.21 451.43 884.14 568.24 981.19 555.52
00013702 00000112 836.63 183.96 350.56 499.69 868.63 394.07 992.53 374.66 878.87 450.93 883.31 567.69 979.62 555.71
00013703 00000113 836.48 183.83 351.05 500.02 867.65 394.19 991.76 374.35 877.28 451.05 882.60 567.84 979.41 555.59
00013704 00000114 836.38 181.93 351.17 502.05 867.02 394.65 990.45 374.26 875.76 450.87 881.42 568.24 977.67 555.68
CROP_BBOX: 584 0 1405 853
