Video ID: 	hp2UQY0Ywqs
H: 	1080
W: 	1920
FPS: 	23.976023976023978

FRAME INDEX X0 Y0 W H [Landmarks (5 Points)]

00015391 00000000 386.65 164.54 410.37 611.68 592.95 393.77 753.98 410.32 728.71 522.21 599.65 624.07 723.16 638.96
00015392 DELETE   379.83 175.93 411.85 605.13 589.73 398.54 751.81 415.55 726.11 526.65 594.12 626.96 718.61 642.85
00015393 DELETE   377.22 184.14 413.15 604.18 587.39 401.96 748.85 420.52 721.45 529.09 591.02 630.49 713.21 647.65
00015394 00000003 377.56 197.86 407.91 600.56 583.45 400.62 745.38 421.27 715.79 533.75 585.68 640.66 701.07 656.65
00015395 00000004 375.98 201.83 408.24 598.60 582.11 406.36 743.49 422.95 715.89 538.00 585.11 643.45 700.25 656.36
00015396 00000005 372.98 204.07 407.56 591.77 582.78 406.72 741.29 424.87 715.87 538.01 586.90 640.85 698.85 654.88
00015397 00000006 373.99 197.75 405.13 592.86 584.52 411.05 741.36 428.11 718.60 536.03 593.91 640.57 703.93 653.84
00015398 00000007 366.51 192.85 408.21 594.89 583.48 419.39 740.39 424.02 720.16 543.36 594.57 646.15 704.88 651.52
00015399 00000008 367.80 190.06 407.43 597.00 582.66 423.20 740.82 425.28 718.39 545.84 595.78 648.26 706.35 651.39
00015400 00000009 366.42 192.52 408.79 596.70 580.85 423.83 741.15 426.15 717.01 548.58 593.79 650.50 705.39 653.91
00015401 00000010 372.05 200.72 405.36 601.45 582.21 420.52 739.75 433.98 715.25 546.74 593.26 651.92 699.95 662.08
00015402 00000011 379.29 205.23 397.30 591.69 591.59 422.36 743.73 432.03 729.49 549.30 590.80 653.94 705.76 663.21
00015403 00000012 381.32 202.13 395.77 596.88 594.17 422.06 744.38 431.14 732.00 549.90 593.28 655.86 705.86 665.01
00015404 00000013 375.90 196.84 404.02 586.76 593.75 419.81 746.60 432.07 724.31 546.10 599.54 638.68 708.33 651.39
00015405 00000014 380.20 200.17 403.38 587.48 599.03 419.30 750.51 433.27 728.90 548.25 604.83 638.22 714.22 652.31
00015406 00000015 380.97 199.27 402.52 591.34 601.93 419.37 753.59 433.87 731.18 550.27 602.37 640.41 712.58 655.26
00015407 00000016 383.66 188.72 404.88 610.27 603.53 421.65 756.71 433.76 736.48 549.88 596.20 643.54 711.49 656.85
00015408 00000017 385.08 189.69 404.02 612.74 604.68 421.56 758.69 435.83 737.59 551.56 595.04 645.26 711.18 660.47
00015409 00000018 383.59 191.14 407.60 604.97 604.98 424.75 760.64 437.49 736.90 550.72 600.25 645.27 716.03 658.68
00015410 00000019 393.90 193.60 399.56 597.01 609.92 426.90 763.53 439.00 739.04 552.88 607.85 646.44 719.47 659.08
00015411 00000020 398.19 206.80 398.74 593.15 614.98 426.03 767.31 440.45 742.89 557.36 610.49 650.11 720.41 665.33
00015412 00000021 399.11 204.95 396.22 601.25 616.36 433.35 759.10 445.74 742.49 555.58 615.93 656.40 713.33 667.24
00015413 00000022 403.85 205.53 393.16 599.24 616.48 433.37 761.73 444.72 745.17 558.74 620.05 662.18 716.54 672.37
00015414 00000023 403.73 201.17 393.13 608.47 617.15 433.83 759.84 444.51 744.61 559.46 623.94 665.63 717.43 674.89
00015415 00000024 401.26 201.26 396.10 609.54 617.81 432.34 762.34 445.42 744.25 561.54 624.63 667.14 717.88 677.88
00015416 00000025 398.50 205.56 399.35 605.23 616.74 431.69 760.90 443.65 743.09 562.93 622.62 667.98 715.61 677.77
00015417 00000026 397.80 207.74 401.36 607.46 616.80 430.70 758.94 441.57 743.74 564.31 619.21 670.56 711.04 679.76
00015418 00000027 397.37 214.07 399.91 602.43 616.28 425.62 759.59 435.98 747.11 563.51 617.95 670.70 710.24 679.33
00015419 00000028 398.08 214.61 397.05 598.08 616.05 427.22 758.77 439.65 744.95 562.13 618.37 666.47 711.16 676.63
00015420 00000029 400.94 212.80 395.83 591.06 615.72 427.85 762.24 437.53 744.65 561.40 621.81 663.71 716.98 671.49
00015421 00000030 401.22 216.39 396.92 593.77 615.37 429.17 763.12 438.04 746.60 564.80 615.56 667.09 713.67 674.78
00015422 00000031 393.50 222.80 403.51 588.81 612.88 431.39 761.68 440.22 744.68 568.17 606.89 666.44 707.12 674.22
00015423 00000032 394.33 225.62 403.07 593.24 613.29 430.80 760.49 440.51 746.59 569.04 600.37 667.05 702.31 676.24
00015424 00000033 393.53 214.96 405.08 605.18 609.50 428.33 761.17 441.20 745.08 567.72 594.12 667.49 700.36 679.61
00015425 00000034 392.90 211.68 404.38 610.62 609.12 427.40 761.66 440.95 745.54 567.87 593.29 667.89 701.01 680.48
00015426 00000035 389.57 214.52 408.62 591.59 612.01 421.39 767.11 439.25 741.97 568.87 599.68 655.55 711.49 674.05
00015427 00000036 391.55 214.43 406.10 591.82 612.94 422.82 768.98 438.57 744.19 569.12 602.39 655.35 715.16 672.28
00015428 00000037 392.48 210.94 405.17 595.97 613.68 421.59 769.15 437.02 745.85 567.63 604.89 655.84 716.99 672.26
00015429 00000038 394.64 207.15 403.01 608.69 613.33 427.11 761.27 438.34 747.65 563.70 606.34 667.57 705.29 677.91
00015430 00000039 396.45 212.11 404.13 599.08 614.23 420.15 770.41 437.12 746.21 565.92 606.46 658.07 717.84 675.75
00015431 00000040 395.59 208.71 406.90 602.74 615.72 420.08 769.61 435.22 748.54 564.42 606.59 658.05 717.63 674.28
00015432 00000041 396.71 209.42 406.39 605.77 616.31 417.91 770.36 432.94 751.15 564.34 603.78 657.27 717.20 674.07
00015433 00000042 399.00 205.49 403.90 609.99 615.91 418.09 770.37 431.49 751.15 563.19 603.90 658.17 717.13 673.72
00015434 00000043 399.00 206.04 402.49 609.60 615.29 419.52 770.39 432.61 751.77 563.42 603.35 658.62 717.85 673.93
00015435 00000044 399.88 207.82 402.43 608.69 614.64 419.59 769.80 432.96 751.19 563.81 602.85 658.97 717.14 674.46
00015436 00000045 398.30 207.12 403.96 609.53 614.22 422.09 769.35 434.77 751.88 562.75 604.51 659.70 719.26 674.42
00015437 00000046 396.21 207.67 405.00 615.59 611.88 428.24 762.76 439.83 750.90 559.50 606.92 666.88 713.09 677.51
00015438 00000047 398.01 208.42 403.89 613.37 611.78 428.13 763.70 438.59 750.91 559.38 608.25 667.72 714.82 677.45
00015439 00000048 398.40 211.87 403.22 609.85 612.33 428.62 764.17 440.04 751.69 560.21 607.94 668.01 714.39 678.61
00015440 00000049 399.77 213.48 401.81 610.38 612.14 428.33 764.97 440.94 752.34 560.41 607.52 669.05 714.33 680.63
00015441 00000050 401.38 210.79 402.06 612.18 611.51 428.00 766.32 441.07 751.62 559.44 607.30 668.31 716.92 680.42
00015442 00000051 401.90 201.05 401.93 611.16 613.18 425.45 769.21 434.67 750.89 555.73 619.37 664.66 727.02 672.86
00015443 00000052 404.10 202.31 399.32 600.77 616.35 421.07 773.05 429.56 754.90 550.17 622.95 657.13 731.72 664.90
00015444 00000053 406.30 198.29 399.48 595.44 620.82 419.78 776.67 425.88 760.48 547.36 630.99 655.33 736.79 661.62
00015445 00000054 413.69 193.09 393.04 596.83 626.72 418.72 780.63 423.80 765.92 548.35 639.85 656.34 740.89 662.11
00015446 00000055 422.81 191.42 388.15 597.23 634.05 417.70 784.24 421.78 773.42 548.49 646.84 658.02 746.00 663.16
00015447 00000056 429.74 192.84 383.51 601.80 642.94 416.23 784.08 421.20 782.65 546.05 652.60 657.98 747.49 664.32
00015448 00000057 431.59 183.75 382.59 611.62 647.06 413.47 786.25 418.83 786.59 542.12 653.91 655.96 749.06 662.94
00015449 00000058 434.72 180.40 383.07 616.89 653.59 411.19 785.93 416.69 791.34 538.08 650.73 649.88 745.46 657.77
00015450 00000059 441.34 183.80 380.05 612.97 659.82 405.02 789.90 415.01 797.96 533.60 653.20 645.27 747.17 656.94
00015451 00000060 436.14 164.91 386.52 609.47 665.23 402.17 798.31 401.22 814.00 524.26 669.21 633.08 765.15 634.20
00015452 DELETE   443.51 142.98 386.40 622.44 675.32 393.54 804.35 393.49 823.13 507.70 682.69 619.00 780.61 620.69
00015453 DELETE   452.40 131.89 382.85 628.38 682.94 378.82 807.29 378.64 828.89 492.65 699.17 611.21 791.82 613.13
00015454 00000063 456.17 131.77 382.79 623.46 688.34 362.59 807.04 363.65 832.74 477.90 709.50 601.20 796.38 603.50
00015455 00000064 447.94 129.61 388.86 613.16 677.07 355.18 794.82 363.88 822.23 464.22 703.27 584.87 785.45 591.90
00015456 00000065 451.09 122.95 391.77 607.98 666.65 354.50 811.06 357.03 817.50 464.26 696.96 583.33 798.19 587.90
00015457 00000066 451.72 108.10 389.56 614.71 668.67 352.22 810.35 356.82 821.33 461.38 694.80 575.70 797.82 581.63
00015458 00000067 455.51 113.64 388.57 610.02 671.94 347.69 812.99 355.62 822.69 465.76 684.08 572.52 791.64 582.01
00015459 00000068 459.60 118.10 389.92 613.73 679.00 345.60 813.32 355.50 824.66 468.01 677.70 572.84 780.95 585.02
00015460 00000069 457.62 118.22 395.31 613.14 684.00 345.29 815.44 353.75 829.30 469.34 675.14 572.94 778.91 584.37
00015461 00000070 461.23 114.62 394.52 609.51 686.05 346.66 818.14 348.87 833.39 466.28 679.54 569.07 786.28 575.21
00015462 00000071 457.56 101.34 395.40 609.98 685.25 345.65 819.09 343.25 834.92 459.32 689.11 566.79 794.04 568.44
00015463 00000072 459.86 101.00 392.49 610.78 683.71 341.28 819.78 344.58 833.61 455.06 691.94 564.62 796.47 570.58
00015464 00000073 457.81 98.01 393.26 611.57 684.56 340.37 816.91 346.33 828.00 456.81 688.92 564.00 787.10 572.00
00015465 00000074 461.92 91.10 387.28 620.85 685.99 336.28 812.73 345.34 827.28 455.69 691.95 562.49 785.01 572.49
00015466 00000075 457.89 87.18 390.85 625.73 687.71 332.78 814.63 342.69 830.08 452.97 689.42 560.08 784.22 571.08
00015467 00000076 457.20 89.90 395.44 636.83 687.32 330.27 815.75 343.35 832.39 452.90 686.02 561.88 785.60 575.83
00015468 00000077 459.85 83.89 394.86 632.84 691.77 327.92 819.67 342.45 838.27 451.33 709.32 565.15 801.83 578.79
00015469 00000078 464.42 86.83 391.80 629.86 699.26 329.67 821.59 341.77 842.12 454.06 719.23 567.15 806.38 578.60
00015470 00000079 469.74 92.28 392.59 629.65 700.65 333.36 825.02 345.24 841.12 458.80 716.58 570.61 806.17 582.40
00015471 00000080 470.57 89.92 392.24 630.98 702.99 337.66 826.77 347.99 843.48 461.06 720.18 573.17 808.85 583.33
00015472 00000081 476.67 97.19 390.62 624.38 709.89 339.42 835.58 351.62 844.97 466.42 723.12 577.08 809.97 589.15
00015473 00000082 480.70 99.11 390.78 623.54 714.81 339.39 840.19 351.04 850.08 470.69 722.36 579.13 807.53 591.43
00015474 00000083 482.67 98.21 390.68 624.40 717.41 344.61 839.09 354.05 850.40 473.04 717.16 579.98 800.13 591.02
00015475 00000084 482.78 103.13 387.82 629.07 723.07 344.74 840.18 360.25 852.95 476.88 712.92 581.57 794.17 598.29
00015476 00000085 490.16 102.90 380.97 654.25 733.78 344.27 838.21 360.12 859.47 479.59 702.80 583.97 779.87 602.53
00015477 00000086 492.15 104.45 382.06 649.96 737.34 345.50 845.26 365.40 861.27 482.32 703.60 581.45 782.82 603.18
00015478 00000087 490.17 108.89 387.05 641.66 737.35 347.14 848.26 366.19 861.59 486.33 701.27 579.06 784.49 600.22
00015479 00000088 492.05 104.80 384.94 647.26 737.49 349.43 849.11 368.96 862.79 486.83 704.92 581.69 788.05 602.96
00015480 00000089 495.69 109.54 381.58 630.47 737.99 352.93 852.07 372.33 861.31 490.27 709.98 581.66 790.98 602.17
00015481 00000090 495.81 108.66 385.77 633.56 736.40 355.89 855.15 374.09 860.29 492.33 709.28 583.95 793.85 603.51
00015482 00000091 497.76 127.27 385.91 613.46 736.89 367.45 849.93 384.31 863.89 493.67 710.90 586.57 794.68 604.26
00015483 00000092 496.88 129.32 386.52 610.25 736.67 368.27 849.82 383.98 864.23 493.44 712.57 586.91 795.76 603.59
00015484 00000093 497.44 127.11 386.01 613.71 735.80 368.49 849.07 385.01 863.24 492.83 711.70 586.69 795.36 604.04
00015485 00000094 497.09 125.66 385.90 609.45 736.03 370.07 850.22 384.52 863.28 493.22 719.85 588.47 801.13 603.46
00015486 00000095 499.41 126.85 386.10 610.45 735.77 370.05 854.46 386.48 864.46 495.42 718.78 591.27 803.81 607.80
00015487 00000096 500.01 124.30 386.77 612.31 738.24 370.36 856.47 384.81 868.57 495.44 722.14 591.54 806.75 606.44
00015488 00000097 499.83 125.17 385.43 620.85 742.58 370.93 853.68 386.15 869.80 495.00 721.09 590.68 802.03 606.55
00015489 00000098 497.95 127.07 386.02 627.33 745.95 372.11 852.05 389.06 870.56 496.43 718.63 591.53 797.40 609.05
00015490 00000099 499.45 130.89 385.96 620.48 743.35 371.64 855.37 390.28 868.71 498.03 719.72 594.16 801.07 612.75
00015491 00000100 500.57 127.95 384.84 617.76 735.92 377.66 856.20 392.15 861.92 499.26 720.68 598.82 806.74 613.67
00015492 00000101 491.53 130.66 390.28 622.72 730.76 381.55 847.56 394.19 856.74 500.72 716.26 600.81 799.93 614.06
00015493 00000102 487.96 132.40 388.88 629.43 731.10 381.98 841.91 401.51 852.98 501.88 712.36 601.65 790.65 620.01
00015494 00000103 478.30 147.88 393.67 609.45 717.83 384.51 836.87 403.17 841.30 502.21 703.38 600.99 787.03 618.14
00015495 00000104 471.84 148.89 395.44 597.22 709.90 390.03 831.39 403.00 833.57 504.72 699.77 599.21 785.53 611.50
00015496 00000105 471.22 143.76 395.47 597.02 704.98 387.18 834.41 401.63 831.19 512.13 690.91 601.54 794.19 614.61
00015497 00000106 470.52 143.57 400.51 611.45 706.06 385.67 834.74 404.46 832.19 515.45 678.73 603.10 785.40 620.98
00015498 00000107 470.32 145.58 402.92 618.80 705.87 383.69 833.69 403.77 835.51 517.21 672.16 606.64 779.14 626.61
00015499 00000108 468.30 147.00 406.56 620.83 708.46 386.00 833.24 403.70 839.28 520.59 669.85 608.71 774.47 627.46
00015500 00000109 471.20 148.78 403.14 624.46 705.56 388.33 835.17 407.48 837.70 522.30 672.61 612.84 781.09 632.31
00015501 00000110 475.14 150.48 399.64 614.56 707.28 391.45 839.49 409.30 836.37 524.05 690.52 616.98 793.74 634.06
00015502 00000111 481.81 151.22 393.98 615.69 709.66 390.49 839.01 407.56 839.72 525.22 692.33 618.20 794.50 635.05
00015503 00000112 482.31 149.44 395.35 614.81 715.68 392.03 843.77 408.94 841.70 527.69 697.26 619.32 796.03 635.76
00015504 00000113 482.30 143.17 398.30 618.22 719.11 393.05 847.23 407.24 845.86 528.72 702.30 618.74 800.58 632.96
00015505 00000114 486.64 140.85 398.17 620.55 724.55 394.06 850.35 406.82 848.04 528.96 703.61 617.58 800.63 630.85
00015506 00000115 490.42 147.46 397.30 619.09 728.84 391.63 851.82 406.02 850.75 528.63 700.32 615.49 797.85 630.67
00015507 00000116 488.07 146.86 400.33 619.48 729.35 391.73 853.62 407.61 851.03 526.77 702.13 614.77 799.16 631.01
00015508 00000117 487.32 146.46 401.33 616.21 729.15 391.86 857.02 409.05 852.51 526.77 704.73 615.27 803.38 632.35
00015509 00000118 490.86 146.13 399.98 616.24 731.15 391.97 858.54 408.99 853.24 526.36 703.91 613.21 803.44 630.23
00015510 00000119 492.07 148.70 399.03 611.80 731.89 391.48 857.71 407.29 854.35 526.29 702.26 611.53 801.45 627.85
00015511 00000120 491.13 154.65 400.27 613.15 734.46 390.89 855.20 407.31 855.63 528.45 692.84 608.26 792.99 626.08
00015512 00000121 490.92 154.52 400.89 612.04 732.82 390.13 853.95 405.76 855.58 528.31 684.66 605.86 786.77 623.89
00015513 00000122 490.88 147.59 401.40 608.71 729.89 389.66 854.39 406.79 849.72 521.69 685.02 598.76 789.79 617.25
00015514 00000123 494.51 144.58 392.91 600.15 728.68 387.26 850.47 400.24 846.26 518.71 682.15 589.10 790.34 604.11
00015515 00000124 498.65 146.09 388.99 582.21 726.74 383.75 853.57 398.82 841.67 511.22 686.01 576.82 793.73 592.69
00015516 00000125 493.40 140.31 392.85 597.15 722.97 374.64 860.05 395.97 845.17 505.93 679.60 573.17 793.07 596.43
00015517 00000126 487.61 137.24 396.31 598.47 716.91 370.77 859.13 394.86 843.79 501.64 673.18 568.82 793.98 594.21
00015518 00000127 486.72 144.61 397.29 590.92 712.87 365.82 855.06 393.93 839.80 498.01 670.80 567.90 791.38 596.50
00015519 00000128 482.18 132.84 400.05 602.97 705.96 360.04 853.39 383.95 844.81 489.49 671.83 568.69 797.50 593.61
00015520 00000129 481.44 122.35 398.97 621.43 704.00 357.10 851.59 383.63 843.85 485.27 670.67 569.10 799.53 595.63
00015521 00000130 477.24 121.98 401.41 624.22 701.46 350.52 846.76 374.21 844.54 480.43 668.85 568.73 797.46 593.03
00015522 00000131 478.44 105.35 392.58 635.11 693.73 348.39 842.58 365.37 842.56 475.39 666.05 566.93 797.05 585.40
00015523 00000132 470.78 101.31 400.95 635.94 688.83 341.57 839.19 359.14 836.21 470.49 658.92 561.12 792.76 579.97
00015524 00000133 462.08 104.66 409.48 618.02 683.60 342.63 840.23 357.23 832.49 464.66 660.81 554.88 799.53 570.66
00015525 00000134 460.10 104.53 407.56 599.78 681.48 343.43 833.82 361.59 817.91 461.13 670.18 549.94 792.14 567.54
00015526 00000135 452.82 106.55 406.38 594.52 675.46 352.16 827.86 364.50 810.72 463.90 668.70 554.25 788.16 566.95
00015527 00000136 449.52 120.35 406.12 593.28 670.74 357.79 825.21 379.61 798.95 475.71 655.31 560.74 774.06 582.05
00015528 00000137 450.62 133.10 408.87 599.02 666.22 366.94 821.95 389.93 789.01 493.03 643.48 571.87 764.52 594.57
00015529 00000138 447.99 139.93 404.77 606.21 663.42 372.71 817.72 394.80 787.28 506.39 632.42 579.57 757.49 602.67
00015530 00000139 436.77 147.58 406.60 597.77 662.28 381.97 803.29 403.14 781.82 508.65 632.39 584.45 745.51 604.09
00015531 00000140 432.38 158.59 407.49 585.40 659.19 386.52 800.15 402.32 776.95 513.83 634.57 589.94 745.49 604.94
00015532 00000141 429.63 156.66 408.58 582.50 656.86 385.22 800.77 401.64 776.97 511.98 641.04 591.58 750.63 606.26
00015533 00000142 430.82 158.49 407.02 582.11 655.07 386.13 799.15 400.76 775.00 513.07 637.04 591.61 748.38 605.15
00015534 00000143 430.67 160.45 409.72 583.81 656.92 386.12 799.36 401.15 776.09 512.61 632.77 590.39 744.22 604.77
00015535 00000144 432.99 155.99 410.75 586.00 656.99 384.54 802.11 401.18 778.74 509.13 633.78 587.24 748.29 602.77
00015536 00000145 443.22 148.80 405.65 587.56 661.60 384.69 809.75 401.55 781.31 509.18 642.21 590.40 753.52 605.37
00015537 00000146 454.92 147.75 406.72 582.03 671.00 384.49 823.34 399.80 792.55 513.22 649.12 587.66 761.36 604.87
00015538 00000147 454.25 139.16 410.75 596.27 677.00 382.65 826.87 399.28 799.16 510.02 654.91 589.47 765.07 607.69
00015539 00000148 464.08 135.68 404.15 599.46 683.78 380.57 833.14 397.74 807.45 508.87 657.75 586.54 768.72 605.59
00015540 00000149 475.75 132.21 398.87 612.56 687.05 379.05 840.95 397.97 815.83 507.79 655.57 587.51 772.92 608.56
00015541 00000150 476.23 131.73 401.18 615.07 696.27 373.74 846.57 396.69 823.27 506.42 660.09 582.39 779.08 606.74
00015542 00000151 484.48 132.61 401.42 626.30 706.03 365.91 852.03 389.79 830.68 502.58 668.74 583.64 785.37 608.39
00015543 00000152 487.19 125.79 399.49 622.07 714.11 367.98 860.58 390.53 834.67 499.59 693.11 586.22 801.29 608.04
00015544 00000153 491.88 124.69 396.00 610.90 719.10 365.25 863.79 386.14 838.99 496.33 701.39 581.83 806.92 602.08
00015545 00000154 494.39 118.04 397.07 616.13 723.82 362.65 865.77 382.08 842.57 493.55 705.70 580.39 809.51 599.01
00015546 00000155 505.13 129.55 389.99 598.54 727.96 364.13 868.38 381.84 855.45 494.11 709.08 584.98 815.30 602.39
00015547 00000156 504.14 129.81 393.72 605.24 735.16 362.53 869.19 379.22 859.78 494.53 703.97 580.88 811.23 598.32
00015548 00000157 503.31 127.61 397.29 607.74 737.94 361.26 871.68 376.63 864.29 495.40 703.44 580.29 811.23 597.19
00015549 00000158 502.90 126.45 395.68 609.77 739.07 360.75 869.98 375.01 867.13 491.32 706.63 580.06 812.90 595.78
00015550 00000159 510.71 121.16 390.41 608.50 736.87 357.58 877.85 372.82 870.30 489.91 718.22 583.49 826.95 599.62
00015551 00000160 500.33 110.36 400.00 617.32 729.29 352.88 874.97 370.44 856.95 480.60 715.71 574.54 825.33 590.76
00015552 00000161 500.91 108.90 402.80 620.26 732.61 348.18 877.05 366.69 858.00 478.87 712.38 572.27 820.53 589.82
00015553 00000162 495.71 102.89 409.07 623.06 733.64 346.28 874.20 360.25 859.96 477.36 710.73 567.72 817.55 581.87
00015554 00000163 495.43 100.03 410.05 621.94 733.83 344.57 871.89 357.95 859.11 474.44 709.85 564.25 814.77 578.00
00015555 00000164 496.78 102.99 410.08 619.93 734.95 343.54 872.79 355.93 861.10 473.37 710.93 564.81 815.98 577.79
00015556 00000165 498.07 103.59 408.73 623.56 735.87 341.81 873.37 355.36 862.86 473.50 710.67 566.18 815.40 580.22
00015557 00000166 499.33 100.57 405.79 625.88 735.05 340.81 871.18 354.81 861.69 474.01 708.30 565.45 811.41 580.09
00015558 00000167 495.14 102.71 407.77 626.85 731.59 339.43 868.41 354.54 859.06 474.12 705.07 565.64 809.57 581.28
00015559 00000168 494.19 99.92 406.92 629.43 729.88 338.16 867.58 354.56 858.89 472.35 704.72 565.52 810.20 582.10
CROP_BBOX: 121 0 1157 971
