Video ID: 	zXbxb4m_k9U
H: 	1440
W: 	2560
FPS: 	25.0

FRAME INDEX X0 Y0 W H [Landmarks (5 Points)]

00003250 00000000 1019.15 305.22 549.26 830.72 1219.93 641.20 1466.81 624.27 1403.58 783.09 1274.73 946.65 1457.40 929.99
00003251 00000001 1019.56 306.60 549.33 833.33 1218.84 645.97 1466.17 630.81 1401.69 788.63 1267.27 948.62 1457.26 933.54
00003252 00000002 1016.07 311.70 549.43 822.28 1213.97 649.75 1463.08 632.77 1396.85 791.65 1263.78 947.49 1459.18 930.84
00003253 00000003 1007.78 311.41 547.85 819.46 1199.72 650.15 1452.63 623.77 1387.80 796.83 1249.06 943.66 1458.47 921.70
00003254 00000004 1005.20 309.60 547.05 817.97 1190.79 641.56 1444.65 616.60 1378.02 790.75 1245.87 938.99 1454.65 917.61
00003255 00000005 1003.62 307.25 546.33 814.55 1185.55 637.45 1440.52 611.40 1373.29 783.51 1243.26 935.22 1451.24 913.69
00003256 00000006 1000.30 303.57 545.22 811.97 1183.58 634.05 1433.66 609.00 1369.22 776.38 1241.92 930.88 1443.94 909.88
00003257 00000007 996.47 301.40 543.83 810.65 1180.36 630.20 1431.34 606.70 1367.27 769.75 1236.48 925.34 1441.16 905.59
00003258 00000008 994.79 297.22 542.43 809.16 1179.03 623.73 1430.12 603.96 1364.80 762.82 1233.63 919.04 1438.47 901.94
00003259 00000009 993.43 298.76 541.58 803.81 1177.50 622.32 1427.30 604.61 1360.84 758.29 1229.91 915.21 1433.74 900.13
00003260 00000010 993.70 298.08 540.07 804.36 1175.13 621.24 1425.02 605.17 1355.24 759.21 1225.30 914.65 1429.77 901.02
00003261 00000011 992.13 302.31 540.23 799.33 1171.74 623.50 1422.30 606.88 1349.83 761.23 1222.88 917.34 1426.29 903.24
00003262 00000012 984.76 301.43 544.12 796.89 1167.44 631.70 1423.88 611.16 1355.81 767.30 1216.43 920.68 1426.46 904.29
00003263 00000013 985.38 296.06 543.87 803.80 1166.54 628.53 1422.60 608.45 1352.50 769.16 1222.00 923.84 1424.06 907.37
00003264 00000014 986.72 290.92 542.58 813.54 1166.93 629.09 1421.85 610.58 1346.13 776.59 1225.51 931.94 1418.61 916.34
00003265 00000015 995.06 291.27 537.47 827.18 1165.77 624.66 1417.90 607.75 1340.06 788.12 1227.79 935.66 1415.98 921.83
00003266 00000016 992.96 297.44 539.23 829.21 1162.65 632.57 1417.03 616.12 1335.94 796.72 1217.78 940.88 1418.24 927.70
00003267 00000017 992.69 301.51 538.13 841.72 1158.86 635.81 1415.56 620.40 1330.94 798.87 1209.10 949.02 1412.11 937.40
00003268 00000018 993.00 296.56 537.87 827.79 1161.89 632.15 1411.33 617.26 1331.68 780.69 1208.24 931.44 1412.91 919.11
00003269 DELETE   983.31 289.36 542.70 801.28 1155.40 609.20 1412.08 589.08 1328.24 750.99 1199.13 902.29 1409.36 887.09
00003270 DELETE   978.68 268.70 549.10 784.98 1147.39 589.09 1406.67 555.71 1325.10 715.69 1202.98 876.69 1417.00 847.56
00003271 00000021 971.61 252.40 556.69 786.27 1138.80 565.83 1398.92 521.24 1318.64 688.14 1205.84 861.52 1413.39 822.15
00003272 00000022 973.28 233.97 550.16 793.96 1134.21 552.22 1390.86 508.05 1309.68 668.53 1202.47 849.04 1404.35 809.76
00003273 00000023 963.69 219.98 550.25 800.54 1120.37 544.64 1381.99 502.40 1292.69 665.09 1192.26 846.35 1388.57 807.96
00003274 00000024 957.42 209.17 547.61 809.52 1113.17 529.39 1377.49 495.36 1282.79 653.46 1183.81 832.51 1391.04 802.50
00003275 00000025 949.90 209.37 548.28 812.48 1097.98 527.24 1366.20 493.39 1270.13 650.08 1167.40 829.58 1385.70 799.60
00003276 00000026 941.25 212.46 554.99 809.13 1087.99 530.29 1359.03 497.88 1259.28 652.28 1156.81 826.77 1382.64 797.27
00003277 00000027 929.95 215.97 561.80 804.81 1076.70 533.03 1350.88 496.86 1251.31 655.04 1146.71 825.16 1379.64 792.79
00003278 00000028 924.99 220.49 556.87 802.96 1065.54 537.51 1338.68 502.04 1237.49 663.85 1131.96 825.53 1370.97 794.74
00003279 00000029 913.51 233.31 559.86 795.47 1053.79 544.49 1323.08 508.66 1221.52 678.98 1121.31 832.09 1357.67 801.12
00003280 00000030 905.33 239.42 561.36 795.31 1046.38 550.49 1315.92 514.44 1211.28 685.78 1115.76 840.06 1349.99 808.72
00003281 00000031 901.33 238.20 561.79 801.20 1043.12 551.99 1310.20 518.72 1203.87 687.78 1112.25 845.10 1339.79 816.42
00003282 00000032 895.71 235.05 563.75 802.38 1037.58 546.21 1308.03 513.65 1198.96 684.90 1107.03 843.92 1333.03 816.18
00003283 00000033 890.93 230.99 565.14 800.40 1032.67 541.41 1306.57 510.30 1194.98 679.65 1099.61 838.30 1327.62 812.06
00003284 00000034 889.81 228.58 564.47 795.94 1029.86 538.73 1303.99 506.99 1191.03 674.96 1095.01 832.73 1325.66 805.78
00003285 00000035 887.74 227.32 565.23 799.32 1027.93 537.61 1298.74 504.91 1187.17 669.20 1092.63 830.55 1319.83 802.26
00003286 00000036 886.83 226.43 565.42 815.09 1029.06 540.22 1294.70 507.75 1188.13 671.28 1093.80 837.54 1314.54 810.06
00003287 00000037 885.45 224.20 566.18 824.60 1029.31 541.22 1293.52 508.21 1189.28 671.01 1098.05 846.96 1307.85 819.96
00003288 00000038 890.00 223.78 566.24 820.32 1033.86 541.32 1299.09 507.27 1194.30 670.72 1101.64 843.58 1314.76 815.34
00003289 00000039 893.26 221.01 567.61 814.44 1036.35 540.47 1303.62 505.57 1196.99 667.87 1105.69 840.49 1318.45 811.33
00003290 00000040 897.39 219.28 565.69 816.79 1042.80 541.02 1309.02 504.53 1206.46 670.42 1117.85 844.93 1324.43 814.81
00003291 00000041 902.32 222.30 563.47 812.67 1052.55 542.27 1308.80 504.24 1215.72 671.53 1137.16 852.63 1323.50 821.66
00003292 00000042 906.02 222.48 564.17 813.01 1055.07 540.50 1311.97 503.99 1218.06 670.44 1138.62 852.64 1327.33 822.66
00003293 00000043 917.08 220.20 556.27 799.99 1061.20 534.41 1315.00 498.35 1221.76 660.74 1148.18 843.25 1330.40 812.97
00003294 00000044 921.09 212.67 560.30 804.64 1063.11 525.88 1322.76 489.05 1225.45 652.64 1148.04 832.58 1341.12 800.61
00003295 00000045 925.34 205.33 560.29 809.13 1067.56 518.98 1331.95 483.17 1235.01 643.53 1151.29 827.02 1353.27 794.78
00003296 00000046 929.43 201.14 560.66 810.99 1072.28 516.31 1341.77 481.85 1241.20 640.44 1153.88 823.38 1363.64 791.41
00003297 00000047 929.88 201.10 563.38 811.88 1076.28 515.32 1343.04 480.97 1244.56 640.23 1158.54 823.72 1363.49 791.68
00003298 00000048 930.80 202.67 563.57 813.37 1080.37 517.33 1343.08 484.86 1246.18 640.75 1162.64 827.80 1359.44 797.63
00003299 00000049 934.25 199.87 559.99 811.27 1083.24 515.52 1349.65 485.28 1249.80 641.18 1162.53 825.44 1365.04 797.04
00003300 00000050 938.33 199.45 558.01 807.18 1086.94 510.67 1350.13 482.82 1248.17 637.35 1164.90 819.70 1362.26 792.97
00003301 00000051 939.35 194.73 553.68 816.67 1091.49 502.08 1344.83 475.76 1249.52 632.08 1173.23 819.59 1351.18 794.40
00003302 00000052 945.62 192.84 552.49 817.53 1097.03 499.86 1348.39 473.58 1250.84 626.44 1172.89 816.83 1353.29 791.73
00003303 00000053 953.40 195.51 551.50 811.80 1103.46 501.33 1359.02 474.51 1256.71 625.78 1171.00 811.72 1363.40 786.01
00003304 00000054 958.02 194.22 550.16 810.19 1109.12 500.61 1366.80 474.98 1263.33 628.43 1171.40 807.78 1369.07 783.29
00003305 00000055 960.59 196.45 552.60 804.43 1110.60 499.72 1373.09 472.40 1267.95 628.42 1173.93 805.57 1376.33 779.86
00003306 00000056 963.13 193.74 551.76 802.91 1112.01 497.89 1378.36 470.47 1269.79 622.72 1172.66 802.41 1377.81 777.20
00003307 00000057 963.74 194.57 552.15 794.40 1113.15 494.72 1380.07 467.93 1270.76 619.43 1173.34 798.05 1376.78 772.86
00003308 00000058 967.51 196.59 549.70 792.67 1117.18 493.60 1384.64 467.00 1273.95 618.72 1174.93 797.27 1379.92 772.35
00003309 00000059 975.28 203.97 546.42 796.60 1132.95 496.57 1394.33 476.02 1287.58 621.37 1184.12 802.03 1385.37 783.10
00003310 DELETE   974.73 218.51 550.16 806.83 1142.59 510.60 1401.02 492.36 1306.69 644.92 1191.51 823.44 1382.50 807.18
00003311 00000061 990.90 249.51 543.92 811.65 1164.84 513.50 1420.52 511.21 1322.64 657.70 1204.56 847.96 1375.60 846.10
00003312 00000062 1001.96 269.03 542.33 817.24 1175.27 535.69 1433.78 536.93 1337.91 698.73 1217.51 875.65 1391.83 875.33
00003313 00000063 1009.52 280.34 542.58 810.22 1188.42 556.44 1446.43 563.78 1352.17 719.86 1226.17 885.29 1401.40 889.69
00003314 00000064 1018.17 285.01 541.01 802.76 1191.90 567.96 1452.55 571.91 1357.95 731.22 1235.06 888.87 1416.96 889.86
00003315 00000065 1024.96 285.47 539.86 801.93 1197.60 573.81 1458.71 579.33 1364.39 735.00 1239.76 890.02 1428.73 892.16
00003316 00000066 1028.97 285.53 540.68 799.43 1201.08 577.61 1462.70 582.96 1367.67 734.95 1245.28 891.14 1434.90 892.83
00003317 00000067 1033.32 286.55 539.53 794.99 1205.83 574.77 1465.11 580.31 1371.57 732.43 1251.27 889.50 1434.09 891.53
00003318 00000068 1035.77 285.76 540.04 789.85 1208.12 566.75 1468.00 572.25 1374.27 724.20 1251.13 882.21 1436.27 884.40
00003319 00000069 1034.62 279.32 542.70 785.90 1208.18 552.79 1464.81 557.66 1371.99 710.73 1248.56 868.02 1431.92 869.56
00003320 00000070 1031.77 267.09 548.86 788.41 1203.96 548.51 1462.82 544.22 1368.27 696.90 1250.49 862.41 1436.43 855.75
00003321 00000071 1031.53 252.89 550.97 793.09 1200.63 551.28 1458.08 539.13 1364.56 685.18 1250.58 854.09 1443.34 840.88
00003322 00000072 1030.29 242.26 549.53 792.11 1192.98 541.45 1456.48 526.27 1355.99 670.11 1243.06 843.52 1439.19 828.26
00003323 00000073 1015.29 229.20 558.63 800.45 1173.39 526.78 1435.14 521.19 1330.52 656.27 1220.13 825.49 1427.96 819.88
00003324 00000074 1011.66 225.35 559.05 796.21 1157.66 515.21 1431.96 505.10 1315.98 647.50 1206.05 820.34 1419.91 811.28
00003325 00000075 1005.65 222.99 558.63 791.60 1145.49 509.37 1424.61 498.65 1302.14 642.17 1195.35 816.09 1410.54 807.04
00003326 00000076 1001.03 216.11 556.43 793.23 1136.25 508.66 1416.56 495.85 1291.74 638.56 1184.99 811.88 1404.71 800.98
00003327 00000077 994.79 213.71 555.48 792.14 1128.94 506.57 1410.56 495.84 1280.91 636.86 1173.18 807.96 1393.60 799.18
00003328 00000078 984.50 216.37 556.27 781.70 1125.02 511.77 1397.93 493.15 1264.92 632.16 1166.38 806.62 1385.96 789.65
00003329 00000079 976.72 213.99 558.26 782.55 1116.84 510.84 1386.00 494.72 1254.20 632.20 1158.00 804.58 1374.15 789.49
00003330 00000080 966.94 214.43 561.21 782.17 1109.12 510.46 1376.17 493.55 1246.43 630.37 1152.60 804.89 1365.05 788.78
00003331 00000081 959.14 214.11 563.52 784.22 1098.73 515.47 1366.72 496.08 1236.96 631.45 1145.55 807.09 1361.90 789.13
00003332 00000082 951.42 216.53 568.57 786.03 1090.42 517.31 1355.85 498.29 1226.74 636.02 1137.54 809.88 1352.22 791.90
00003333 00000083 945.52 221.79 573.32 782.68 1081.88 514.79 1349.79 496.95 1218.69 638.62 1130.35 811.19 1344.50 794.10
00003334 00000084 941.70 223.14 573.97 783.43 1075.87 515.45 1344.03 497.77 1213.10 639.05 1125.87 814.12 1337.89 797.34
00003335 00000085 937.95 224.11 574.56 784.89 1069.20 515.99 1338.29 498.46 1206.28 638.32 1120.04 815.11 1331.99 798.49
00003336 00000086 933.34 225.33 576.31 787.95 1060.08 517.33 1333.87 499.86 1197.24 642.67 1110.72 817.67 1327.61 801.11
00003337 00000087 931.85 228.28 577.88 789.05 1057.88 521.10 1332.69 503.22 1193.88 647.76 1107.64 820.90 1326.82 803.96
00003338 00000088 931.19 232.53 578.71 788.14 1058.49 526.08 1332.93 508.81 1193.71 652.04 1107.56 823.41 1329.70 807.02
00003339 00000089 937.58 237.81 572.65 786.19 1064.79 538.20 1336.51 516.37 1198.43 664.90 1111.43 829.60 1326.49 808.93
00003340 00000090 931.74 239.01 578.34 789.38 1064.76 537.04 1334.43 524.62 1198.51 659.90 1109.62 826.73 1333.66 814.63
00003341 00000091 935.64 243.74 575.53 784.30 1070.42 544.58 1337.90 535.76 1201.29 661.05 1111.89 826.04 1334.57 817.18
00003342 00000092 940.93 247.73 570.34 781.70 1072.28 555.36 1337.46 537.25 1201.35 671.77 1117.87 836.49 1331.68 818.15
00003343 00000093 941.06 251.66 570.50 784.49 1072.59 558.55 1335.89 540.93 1203.16 680.71 1119.45 841.11 1332.34 823.06
00003344 00000094 940.32 266.30 576.98 787.93 1074.06 561.65 1336.27 542.61 1210.22 693.33 1125.55 857.75 1331.66 838.41
00003345 00000095 942.85 273.47 580.09 792.29 1076.42 571.47 1336.71 553.41 1210.95 711.05 1130.65 875.88 1323.76 857.84
00003346 00000096 944.96 284.15 576.82 798.59 1076.81 588.21 1333.46 575.06 1206.57 740.90 1129.69 891.80 1322.10 877.95
00003347 00000097 947.92 294.88 573.67 806.00 1082.35 604.79 1336.56 590.78 1208.75 760.06 1133.73 912.15 1323.77 897.83
00003348 00000098 950.91 306.72 573.75 801.68 1081.56 613.27 1335.93 598.81 1205.79 772.38 1134.46 922.34 1322.91 907.72
00003349 00000099 952.85 317.99 575.72 793.09 1083.02 618.30 1338.03 606.73 1205.35 782.93 1134.90 925.15 1325.57 912.79
00003350 00000100 954.22 323.41 576.58 788.64 1085.68 619.18 1341.78 609.16 1207.72 788.18 1136.79 927.47 1326.12 916.46
00003351 00000101 957.63 322.61 576.79 787.94 1088.08 618.30 1346.91 607.68 1208.70 786.53 1139.04 927.91 1329.54 916.63
00003352 00000102 964.15 307.10 569.87 788.24 1092.23 613.63 1350.14 602.61 1209.25 771.51 1138.33 916.62 1330.97 905.12
00003353 00000103 965.87 289.81 571.92 797.44 1093.21 602.28 1357.32 592.09 1210.13 751.87 1133.55 900.68 1337.53 889.29
00003354 00000104 965.73 272.64 571.59 804.91 1089.26 592.39 1360.92 581.02 1211.48 736.58 1129.83 888.77 1347.16 875.73
00003355 00000105 966.43 268.74 574.00 798.35 1089.37 583.74 1365.16 568.82 1215.17 724.68 1130.21 874.42 1360.22 858.57
00003356 00000106 968.34 269.64 572.39 788.95 1091.81 578.37 1366.16 563.13 1219.49 719.12 1131.32 864.83 1364.79 848.67
00003357 00000107 969.02 266.93 573.43 788.41 1095.27 575.59 1368.05 559.65 1224.05 715.30 1136.17 863.82 1362.10 847.17
00003358 00000108 970.08 270.73 572.49 786.97 1096.71 576.88 1369.68 563.01 1226.29 719.12 1134.51 863.26 1364.00 848.72
00003359 00000109 972.62 270.20 570.41 789.67 1098.05 583.54 1371.35 568.14 1227.28 723.20 1135.12 869.00 1365.66 853.52
00003360 00000110 972.35 270.34 572.41 795.00 1101.09 589.45 1376.40 576.25 1231.65 729.27 1135.04 875.52 1367.43 861.96
00003361 00000111 977.84 283.44 572.48 792.46 1109.75 593.02 1381.73 581.95 1237.39 735.45 1143.91 880.66 1369.68 868.70
00003362 00000112 982.78 288.01 571.26 795.70 1119.84 599.36 1388.15 589.44 1249.38 741.92 1152.24 884.99 1375.16 874.86
00003363 00000113 985.56 283.22 567.56 799.55 1123.65 595.30 1392.40 587.63 1257.08 743.02 1161.06 883.43 1375.61 878.76
00003364 00000114 988.99 279.30 563.89 800.79 1125.47 592.86 1389.97 580.92 1261.33 738.98 1169.88 884.57 1376.56 876.50
00003365 00000115 990.22 272.22 560.97 796.90 1127.17 584.19 1388.30 570.86 1263.75 727.94 1173.44 877.57 1374.42 868.87
00003366 00000116 990.99 268.82 561.50 793.76 1130.66 577.07 1385.13 561.62 1265.94 712.83 1182.91 869.30 1377.33 858.86
00003367 00000117 992.90 265.58 562.07 791.26 1132.95 572.03 1390.95 552.13 1275.32 707.13 1190.82 864.63 1392.93 849.70
00003368 00000118 996.70 267.44 560.50 790.88 1136.45 576.23 1395.51 555.08 1280.28 709.70 1191.33 863.33 1401.24 847.02
00003369 00000119 1006.29 281.44 547.68 792.78 1141.39 584.96 1403.60 562.13 1293.33 719.48 1194.16 878.64 1401.88 859.87
00003370 00000120 1006.34 287.58 547.92 800.08 1138.97 595.15 1407.29 577.88 1291.99 735.78 1187.91 889.03 1403.67 874.40
00003371 00000121 1002.98 287.74 552.21 811.38 1136.80 602.38 1405.72 585.75 1289.02 746.43 1189.18 901.94 1396.91 887.38
00003372 00000122 1000.31 289.16 552.18 807.11 1132.17 602.03 1404.04 585.85 1285.36 747.24 1183.12 901.35 1397.73 887.10
00003373 00000123 1001.91 290.52 549.27 800.31 1132.95 591.80 1400.68 577.15 1284.66 739.71 1183.31 894.75 1389.95 881.61
00003374 00000124 1000.94 290.45 544.71 796.53 1131.64 585.27 1398.95 571.29 1284.45 733.94 1186.30 894.80 1378.21 882.71
00003375 00000125 988.39 274.20 554.70 811.84 1126.87 594.94 1386.15 579.13 1269.57 736.00 1182.03 892.70 1375.07 882.11
00003376 00000126 979.76 278.84 560.72 813.85 1119.88 598.80 1377.75 587.08 1256.79 740.59 1168.53 893.54 1362.73 886.18
00003377 00000127 969.96 291.37 568.93 800.25 1113.25 604.13 1371.79 591.26 1244.00 746.86 1156.03 900.56 1355.13 887.08
00003378 00000128 967.12 289.26 571.53 798.75 1110.85 606.65 1371.22 593.17 1242.46 747.62 1155.83 902.51 1353.56 888.47
00003379 DELETE   977.22 277.71 562.85 794.19 1121.51 598.14 1380.64 577.46 1258.03 732.42 1171.71 893.43 1366.37 873.80
00003380 DELETE   991.55 258.94 559.08 803.82 1139.10 577.48 1401.47 557.77 1290.96 706.26 1194.81 867.81 1399.61 853.09
00003381 00000131 1007.14 261.82 552.77 790.41 1156.64 549.72 1415.85 523.51 1316.36 679.57 1224.15 858.43 1406.46 834.73
00003382 00000132 1010.27 248.32 554.24 799.25 1161.45 543.10 1423.34 512.96 1325.90 674.36 1230.76 855.13 1415.94 827.63
00003383 00000133 1013.10 251.51 551.96 796.90 1165.89 541.66 1428.22 511.45 1332.28 675.66 1234.39 855.50 1421.12 827.64
00003384 00000134 1014.67 254.79 552.65 794.51 1172.10 542.21 1429.58 511.57 1338.97 675.68 1242.64 856.82 1423.17 828.39
00003385 00000135 1015.16 254.73 551.42 800.56 1175.34 541.76 1429.72 513.72 1342.25 673.66 1244.65 860.16 1422.29 833.91
00003386 00000136 1016.19 253.55 548.57 804.64 1175.16 541.59 1436.41 518.21 1344.22 678.68 1234.79 860.42 1428.75 838.14
00003387 00000137 1020.23 254.11 548.76 803.29 1178.82 544.43 1442.08 520.95 1348.56 685.42 1239.40 862.57 1434.23 839.76
00003388 00000138 1022.03 240.29 555.41 820.32 1186.23 544.20 1455.96 523.04 1361.92 691.94 1251.98 863.90 1448.19 842.18
00003389 00000139 1032.20 241.31 556.11 821.05 1198.96 541.98 1475.77 520.47 1378.81 693.01 1261.00 864.42 1466.83 842.47
00003390 DELETE   1045.30 255.43 549.14 813.18 1217.92 546.67 1488.20 525.83 1401.74 689.47 1273.31 866.78 1477.18 846.40
00003391 00000141 1057.64 276.89 544.49 808.82 1234.51 550.46 1499.37 540.21 1420.36 684.60 1272.58 866.96 1487.03 857.09
00003392 00000142 1062.96 272.29 546.78 831.24 1243.17 554.27 1511.04 546.86 1433.28 702.01 1265.50 868.88 1498.49 863.56
00003393 00000143 1066.93 275.96 550.89 830.45 1249.77 564.08 1517.55 557.89 1437.51 718.43 1262.61 869.18 1505.90 865.75
00003394 00000144 1065.01 273.86 558.94 826.98 1249.20 576.06 1521.03 565.33 1438.53 731.99 1260.96 871.14 1512.09 864.16
00003395 00000145 1071.67 276.79 560.19 820.63 1254.83 581.17 1525.03 567.47 1443.14 733.62 1265.85 867.52 1520.20 858.86
00003396 00000146 1078.51 277.51 561.95 816.04 1260.99 578.60 1530.24 568.75 1446.13 731.68 1271.55 863.21 1525.36 857.11
00003397 00000147 1088.80 285.12 551.04 808.33 1266.67 570.94 1531.01 569.60 1443.90 722.89 1278.41 864.44 1526.67 861.80
00003398 00000148 1088.59 286.56 553.31 801.30 1265.48 569.13 1531.04 566.71 1440.92 718.95 1277.85 858.39 1530.28 854.82
00003399 00000149 1088.49 280.80 551.97 800.99 1260.86 571.45 1526.50 567.22 1435.07 712.28 1271.66 852.47 1527.33 847.61
00003400 00000150 1071.36 265.14 571.64 804.01 1246.80 575.87 1513.99 561.34 1421.63 714.24 1256.16 843.03 1513.55 831.31
00003401 00000151 1062.04 268.80 573.47 795.55 1231.64 568.43 1504.24 553.86 1404.38 702.29 1245.28 836.28 1507.89 823.49
00003402 00000152 1050.54 258.77 577.70 802.83 1214.94 555.06 1493.17 541.63 1383.03 698.37 1232.52 831.41 1494.57 818.60
00003403 00000153 1041.02 258.75 574.93 798.83 1199.65 550.34 1479.83 538.45 1362.75 692.72 1220.91 827.82 1480.91 815.83
00003404 00000154 1032.40 254.08 573.46 803.93 1188.45 548.92 1467.17 537.01 1349.49 687.40 1211.10 824.19 1471.44 811.99
00003405 00000155 1029.19 241.33 571.68 809.45 1180.88 544.84 1460.81 533.21 1337.47 681.49 1204.42 821.26 1463.63 809.44
00003406 00000156 1027.28 248.02 566.62 798.32 1173.16 542.75 1452.48 531.54 1326.94 678.87 1193.08 816.85 1455.35 805.64
00003407 00000157 1011.16 244.56 575.78 796.78 1156.47 531.15 1440.79 524.52 1314.95 669.20 1182.33 812.86 1452.64 805.91
00003408 00000158 1008.31 242.94 574.43 796.08 1151.09 530.37 1434.74 521.42 1308.96 665.49 1178.71 812.29 1447.76 803.15
00003409 00000159 1005.80 245.61 570.66 790.32 1147.46 537.47 1430.77 527.16 1304.59 665.83 1175.85 812.88 1445.31 802.55
00003410 00000160 1004.72 244.45 567.57 790.53 1145.94 539.65 1428.41 529.37 1302.47 668.37 1173.39 813.87 1442.10 803.55
00003411 00000161 1002.29 246.90 564.41 790.98 1143.90 542.22 1425.67 532.79 1300.39 671.17 1170.36 817.05 1436.58 807.71
00003412 00000162 999.09 249.10 562.14 790.83 1139.83 547.02 1419.65 535.98 1295.72 676.43 1167.48 821.18 1431.39 810.71
