Video ID: 	buXSUBA6-9g
H: 	1080
W: 	1920
FPS: 	25.0

FRAME INDEX X0 Y0 W H [Landmarks (5 Points)]

00002772 00000000 690.42 163.76 337.08 567.72 874.37 430.51 993.32 407.85 1000.82 494.27 908.50 609.49 1011.40 590.91
00002773 00000001 696.58 161.70 339.23 556.98 880.47 429.63 1001.06 404.22 1007.71 491.31 914.02 603.48 1018.25 582.86
00002774 00000002 694.70 161.18 341.70 548.47 870.52 439.55 992.61 406.23 1006.29 486.38 931.21 598.61 1026.87 571.59
00002775 00000003 696.30 159.30 343.31 550.60 873.31 436.55 994.90 405.35 1008.43 482.21 934.82 596.60 1030.47 571.05
00002776 00000004 697.24 157.36 341.67 555.22 874.45 433.27 994.34 406.03 1006.95 478.58 936.99 596.57 1029.92 573.84
00002777 00000005 696.75 159.48 342.17 558.43 874.00 432.90 994.45 409.80 1002.76 478.17 936.26 600.39 1027.93 580.79
00002778 00000006 703.96 164.58 337.83 559.72 880.83 419.86 997.60 404.81 993.47 481.59 916.95 603.31 1014.16 590.32
00002779 DELETE   697.97 154.88 341.03 564.33 866.52 418.16 989.46 397.69 985.09 475.52 905.55 598.71 1010.89 582.43
00002780 DELETE   689.25 156.61 346.51 552.10 853.14 419.78 991.73 392.50 982.93 475.03 890.92 592.32 1010.10 570.75
00002781 00000009 683.41 151.35 352.54 551.53 841.46 416.68 985.15 388.77 972.73 469.31 878.00 584.63 1004.76 562.72
00002782 DELETE   679.75 151.29 356.79 550.56 833.39 416.82 977.15 387.11 963.89 468.31 870.43 582.38 999.55 559.18
00002783 00000011 677.97 146.80 357.33 551.91 826.63 416.21 971.44 387.22 955.10 468.51 867.61 584.59 994.55 561.88
00002784 00000012 676.42 145.78 359.33 550.97 821.62 416.52 969.69 386.46 949.85 466.67 863.63 582.50 993.72 558.59
00002785 00000013 672.46 145.99 361.89 551.84 816.01 415.06 967.79 388.15 945.21 466.54 857.02 581.46 988.95 559.98
00002786 00000014 667.94 146.28 363.98 561.09 812.45 413.24 964.21 387.74 942.86 467.19 851.81 583.53 984.36 563.34
00002787 00000015 664.87 150.15 364.77 557.32 808.14 413.06 959.07 389.53 935.77 470.65 849.42 585.46 978.38 566.75
00002788 00000016 660.41 152.27 364.20 551.95 805.47 414.00 956.18 391.79 932.44 470.50 849.53 586.69 974.23 568.95
00002789 00000017 658.43 156.40 363.55 548.92 802.46 415.91 953.23 394.00 929.11 471.83 848.01 587.93 972.59 570.35
00002790 00000018 656.74 158.25 364.25 551.16 801.75 417.73 952.10 395.80 928.59 472.39 845.92 588.24 972.31 570.63
00002791 00000019 655.36 157.53 364.53 553.46 800.88 418.47 950.81 395.69 928.37 472.13 845.78 588.06 972.74 569.60
00002792 00000020 655.18 157.41 364.36 554.07 800.45 415.95 950.13 393.45 928.60 469.71 844.98 586.38 972.16 568.14
00002793 00000021 653.26 155.59 365.55 556.97 798.93 413.40 947.66 391.39 927.30 466.86 844.23 584.88 970.75 566.95
00002794 00000022 651.14 154.65 366.43 561.70 797.38 410.96 943.89 390.18 925.00 465.04 841.71 583.59 967.53 566.79
00002795 00000023 648.56 152.33 365.57 569.29 794.51 409.72 940.49 389.80 921.31 465.21 839.37 585.78 963.88 569.71
00002796 00000024 644.77 152.11 366.14 566.10 788.67 409.70 934.88 388.76 913.93 466.36 837.47 585.90 958.26 568.68
00002797 00000025 641.86 151.77 365.09 557.00 783.90 408.47 930.76 386.64 909.52 467.28 838.30 583.19 955.15 565.09
00002798 00000026 638.64 152.25 366.19 555.60 778.43 408.15 926.28 384.90 903.17 468.33 836.21 584.86 951.31 565.62
00002799 00000027 635.08 153.65 367.95 555.09 773.76 407.20 921.10 382.37 897.30 468.47 831.94 583.57 947.23 562.97
00002800 00000028 631.44 155.22 369.87 553.88 770.56 406.92 918.02 381.08 893.60 468.23 829.00 582.07 944.95 560.72
00002801 00000029 629.42 155.18 369.52 553.89 768.93 406.66 916.21 380.38 891.72 467.43 828.57 582.43 943.84 560.82
00002802 00000030 627.28 155.10 370.27 552.25 768.97 406.35 915.30 380.70 891.86 466.37 829.30 581.04 943.11 560.02
00002803 00000031 627.53 154.52 369.84 545.40 767.81 407.08 915.68 380.72 891.77 464.24 830.35 579.22 944.12 557.58
00002804 00000032 626.42 152.89 370.15 542.76 768.04 406.71 914.65 380.25 892.57 461.77 830.19 577.21 943.11 555.68
00002805 00000033 626.33 150.79 371.69 547.14 767.98 405.55 914.82 378.70 892.65 460.60 829.22 576.37 944.05 554.35
00002806 00000034 626.80 149.51 373.06 555.20 769.79 404.78 914.88 377.86 893.54 459.38 830.08 576.79 944.35 554.53
00002807 00000035 627.02 151.39 373.28 551.01 771.28 407.53 916.04 381.29 895.32 460.67 830.13 577.15 944.06 555.74
00002808 00000036 627.53 152.36 375.12 543.37 775.89 414.56 921.29 390.17 898.14 460.93 831.02 574.54 946.80 554.69
00002809 00000037 629.43 152.20 372.74 539.55 777.12 413.28 920.79 387.48 898.93 458.32 833.59 570.96 947.55 549.74
00002810 00000038 631.93 147.78 371.41 548.06 777.22 407.37 920.73 380.90 899.69 458.95 836.06 573.86 948.33 551.87
00002811 00000039 632.62 146.62 371.43 552.38 778.18 406.04 921.58 380.16 900.33 459.68 837.75 578.08 947.52 556.55
00002812 00000040 634.08 148.59 369.78 551.83 777.60 405.29 922.15 379.79 900.25 460.63 837.14 579.60 947.15 558.56
00002813 00000041 633.74 147.12 370.54 554.01 777.75 404.35 922.43 379.53 900.64 459.80 836.99 579.62 946.47 559.16
00002814 00000042 635.98 148.87 368.72 548.93 779.40 404.16 924.15 379.95 902.60 459.75 837.26 577.78 948.32 557.88
00002815 00000043 637.73 148.06 367.46 545.53 779.50 403.60 925.24 379.94 902.26 459.87 836.68 576.01 948.62 556.59
00002816 00000044 636.83 147.35 368.72 548.38 779.93 402.31 924.62 378.97 903.03 458.98 836.21 575.26 948.30 556.23
00002817 00000045 636.30 146.60 369.65 553.63 780.59 401.65 923.14 377.55 903.39 456.89 836.92 574.99 947.65 555.28
00002818 00000046 635.67 147.56 370.52 555.52 779.18 401.21 923.30 378.44 902.67 458.09 834.72 576.24 947.18 557.55
00002819 00000047 636.16 148.32 370.34 553.59 779.26 401.71 922.99 378.55 902.70 458.30 835.00 576.40 947.09 557.47
00002820 00000048 636.51 147.21 369.10 550.56 780.61 401.81 922.95 378.76 902.83 458.34 836.18 574.93 946.22 556.14
00002821 00000049 636.84 147.58 368.73 548.41 779.88 402.02 922.40 378.59 901.24 458.73 835.37 574.67 945.33 555.61
00002822 00000050 636.74 146.92 367.91 546.91 778.89 402.27 922.39 378.25 900.53 458.40 835.27 574.34 945.57 554.81
00002823 00000051 636.65 147.73 367.81 544.39 778.83 402.01 921.62 376.20 899.89 456.93 836.38 573.27 945.88 552.26
00002824 00000052 636.56 147.43 368.42 542.72 778.08 401.65 921.13 375.93 899.54 455.36 838.68 573.12 947.55 551.89
00002825 00000053 634.84 145.70 368.97 546.86 778.52 401.42 919.51 375.62 899.68 455.76 840.32 574.70 946.44 553.39
00002826 00000054 634.59 145.62 369.24 549.09 777.70 402.47 918.42 376.21 898.71 456.68 839.63 576.20 945.40 554.55
00002827 00000055 632.36 146.43 371.24 550.65 775.53 403.14 917.81 376.35 896.59 457.71 838.29 578.51 944.05 556.34
00002828 00000056 631.18 146.40 371.79 551.76 774.34 403.60 917.02 376.05 895.83 458.15 837.08 579.09 942.82 556.47
00002829 00000057 630.63 145.72 371.69 549.70 773.76 403.80 917.65 375.82 895.87 458.33 835.92 577.06 944.08 553.99
00002830 00000058 629.50 147.99 370.52 544.04 773.00 403.03 917.27 375.89 895.55 456.56 834.63 574.61 943.61 552.42
00002831 00000059 627.57 146.48 371.22 549.77 772.26 402.43 915.14 375.45 895.22 456.29 834.61 576.10 942.57 554.04
00002832 00000060 626.34 146.54 369.08 560.50 771.30 402.59 912.88 377.13 895.11 457.31 834.63 581.99 940.98 561.17
00002833 00000061 623.99 148.18 367.00 564.69 768.79 404.49 909.24 379.45 892.12 461.61 830.75 585.91 937.47 565.48
00002834 00000062 622.09 152.37 365.14 558.79 766.36 406.34 907.46 379.93 888.94 463.03 829.51 585.93 936.21 564.65
00002835 00000063 620.37 153.88 366.31 557.16 764.60 406.23 906.94 378.96 886.59 462.39 826.36 582.13 937.16 560.13
00002836 00000064 619.68 157.05 369.01 555.01 764.89 404.67 907.19 376.42 887.29 460.89 826.72 580.40 938.93 557.58
00002837 00000065 619.67 156.66 369.65 555.02 765.04 403.65 906.96 374.61 888.51 459.27 827.32 579.47 939.96 555.94
00002838 00000066 620.21 154.78 370.10 554.30 765.62 403.33 907.05 373.64 889.66 456.76 828.58 578.89 939.93 555.07
00002839 00000067 619.64 154.12 370.31 551.01 766.72 401.46 907.49 372.02 891.42 454.07 829.37 576.00 939.30 552.62
00002840 00000068 619.03 152.35 371.24 550.90 766.35 399.31 907.06 370.22 890.61 452.68 829.12 574.87 937.65 551.92
00002841 00000069 618.58 150.00 371.24 550.20 764.95 397.04 906.94 368.01 889.59 450.33 827.58 572.01 937.20 549.19
00002842 00000070 618.12 149.63 372.10 546.16 764.31 394.70 906.94 365.60 888.88 447.41 825.62 569.33 936.10 546.53
00002843 00000071 615.07 145.90 369.45 543.48 756.99 397.00 909.33 368.27 879.09 448.76 811.00 564.21 940.31 541.13
00002844 00000072 614.77 143.27 369.62 547.32 753.82 396.83 907.75 368.16 875.16 448.31 807.28 564.13 938.46 541.08
00002845 00000073 613.86 143.39 369.69 544.71 747.81 397.76 903.29 370.37 866.40 451.43 800.46 562.22 932.30 540.34
00002846 00000074 607.66 146.63 372.25 540.00 747.46 399.17 897.09 367.24 857.48 447.18 794.53 562.72 917.84 535.94
00002847 DELETE   605.04 143.99 370.28 538.54 738.56 396.73 885.52 369.78 841.31 451.40 782.71 561.61 904.97 538.58
00002848 00000076 603.45 143.06 367.68 537.89 717.32 403.17 877.52 380.21 822.93 462.65 760.62 569.25 894.25 549.98
00002849 00000077 597.46 143.68 365.76 538.72 702.30 401.59 861.13 381.28 800.09 467.72 743.58 569.24 875.11 552.27
00002850 00000078 594.52 136.49 369.00 548.33 687.07 394.94 846.51 375.93 785.30 459.74 729.87 568.26 862.12 552.94
00002851 00000079 585.20 141.04 368.84 543.78 679.82 394.13 839.39 382.03 764.89 462.81 718.42 564.60 848.00 555.00
00002852 00000080 580.78 140.17 370.87 543.52 672.18 392.56 829.93 381.78 753.17 464.89 710.48 563.85 837.83 555.88
00002853 00000081 576.05 139.41 373.37 546.64 665.59 391.76 824.28 380.92 743.76 464.80 703.27 564.97 830.49 557.25
00002854 00000082 572.95 141.26 373.28 547.87 660.69 395.68 816.45 385.33 733.70 467.90 695.96 565.86 823.45 558.48
00002855 00000083 570.29 142.17 373.29 547.65 654.51 394.21 807.87 388.38 722.76 470.15 686.91 566.19 812.03 562.41
00002856 00000084 570.97 141.87 369.30 548.91 650.92 394.75 802.99 393.12 714.20 470.98 678.02 564.92 802.41 564.83
00002857 00000085 572.76 143.39 369.18 548.97 648.78 397.25 798.38 384.90 708.59 463.20 679.18 571.07 795.32 560.37
00002858 00000086 573.86 140.58 365.42 547.75 645.39 394.39 796.14 384.45 703.09 464.99 671.92 568.22 790.13 559.78
00002859 00000087 574.92 138.54 364.69 545.45 645.54 392.41 794.68 382.89 699.06 463.30 670.36 565.85 786.04 558.03
00002860 00000088 573.92 137.05 363.78 543.69 644.26 392.55 791.15 380.57 694.58 460.84 669.34 564.45 784.04 554.62
00002861 00000089 574.05 136.51 362.77 543.69 642.83 391.90 788.96 379.57 689.56 460.12 666.22 564.14 781.24 553.97
00002862 00000090 574.06 136.22 361.20 544.48 640.87 391.91 787.31 380.48 685.99 460.98 663.35 564.56 778.39 555.28
00002863 00000091 572.61 141.03 359.68 539.77 637.54 395.11 787.77 385.89 684.70 461.12 658.21 565.21 776.87 558.29
00002864 00000092 572.08 140.75 361.49 541.32 637.64 394.34 788.41 386.58 684.55 461.39 656.87 564.94 776.03 559.20
00002865 00000093 574.88 139.91 359.39 540.79 641.12 394.53 788.87 387.89 684.93 462.41 658.47 564.62 775.10 559.78
00002866 00000094 575.98 138.52 359.32 541.75 641.52 392.34 788.24 386.91 682.88 462.35 657.90 564.16 772.69 560.40
00002867 00000095 576.24 137.46 359.90 542.85 642.62 391.82 788.94 386.32 683.77 461.83 658.81 563.74 772.85 559.81
00002868 00000096 576.21 136.70 360.75 544.17 643.33 391.77 789.30 385.73 685.06 461.09 659.43 563.92 772.81 559.59
00002869 00000097 577.08 136.67 360.16 546.77 644.14 391.83 790.66 384.80 686.62 460.54 661.56 565.94 774.70 560.68
00002870 00000098 577.14 138.21 360.87 553.56 644.06 391.73 792.10 383.87 688.08 460.31 662.96 570.32 776.08 564.06
00002871 00000099 577.74 136.96 360.96 546.14 645.01 392.88 794.04 387.69 690.44 465.17 660.62 566.46 777.98 562.83
00002872 00000100 576.63 138.21 362.23 543.83 645.77 393.62 795.44 389.06 692.56 465.80 660.59 565.38 779.02 562.21
00002873 00000101 576.99 138.47 361.79 543.86 645.62 394.23 796.56 390.11 693.83 466.63 660.35 565.69 780.66 562.80
00002874 00000102 577.14 138.78 362.79 544.33 645.68 394.18 797.07 390.56 693.03 466.38 659.59 565.89 780.01 563.40
00002875 00000103 576.99 139.02 362.88 547.01 644.72 392.70 795.52 389.52 690.76 466.16 659.03 566.40 777.36 564.28
00002876 00000104 575.62 139.30 363.24 550.09 644.76 393.60 794.20 389.22 689.57 462.27 659.62 570.05 771.69 567.25
00002877 00000105 576.06 140.01 361.93 550.56 644.60 394.19 793.71 390.22 687.72 462.46 658.20 571.08 769.87 568.77
00002878 00000106 576.41 140.78 361.49 551.62 644.08 394.77 793.72 390.59 687.58 463.05 658.60 572.60 770.34 570.00
00002879 00000107 577.28 140.93 361.19 552.99 644.94 394.78 794.38 390.79 688.64 463.54 660.37 572.71 772.79 570.12
00002880 00000108 578.59 141.24 361.53 552.56 645.14 394.28 795.14 390.79 689.02 464.68 660.69 571.62 775.27 569.29
00002881 00000109 579.32 140.03 361.40 548.78 644.20 393.64 796.81 390.43 689.86 467.64 657.52 569.70 778.78 567.65
00002882 00000110 580.01 140.22 361.19 546.05 644.52 393.72 797.40 390.77 689.53 468.00 657.41 566.92 779.75 564.85
00002883 00000111 580.90 140.81 360.19 542.40 645.86 393.26 798.51 391.23 691.39 467.93 657.73 565.01 779.56 563.73
00002884 00000112 580.96 142.43 361.44 539.59 646.21 393.34 799.35 391.01 693.12 467.25 658.82 563.51 781.66 561.86
00002885 00000113 580.69 142.74 361.75 539.04 646.49 393.50 800.26 391.64 694.51 468.36 658.82 563.23 782.78 562.02
00002886 00000114 580.54 142.99 362.43 539.46 646.38 394.06 800.34 392.12 694.25 468.71 658.34 563.44 782.71 562.20
00002887 00000115 580.61 143.19 362.37 538.92 646.82 394.69 800.94 393.04 694.74 469.01 658.36 563.36 783.04 562.39
00002888 00000116 581.13 142.93 362.22 540.48 646.81 394.88 800.88 392.52 694.18 468.95 658.69 563.82 784.05 562.12
00002889 00000117 581.31 143.22 362.92 544.91 646.88 394.67 801.90 392.34 694.96 468.70 660.48 566.72 784.90 564.88
00002890 00000118 582.41 143.98 362.88 550.83 648.00 395.86 802.79 393.34 696.51 468.51 662.71 571.92 783.44 570.03
00002891 00000119 583.43 144.05 362.60 553.56 648.55 396.22 804.02 393.33 698.45 468.31 664.69 573.75 784.30 571.47
00002892 00000120 583.87 145.08 361.76 555.27 649.76 394.48 803.28 390.43 700.37 464.73 668.06 574.26 783.10 570.99
00002893 00000121 584.73 144.90 363.10 547.71 651.18 392.93 804.30 390.05 700.11 462.66 667.01 569.46 782.58 567.11
00002894 00000122 584.23 141.77 358.73 544.11 652.07 385.27 804.45 394.12 701.03 467.78 662.75 561.40 783.42 570.60
00002895 00000123 586.32 140.00 362.08 544.29 653.36 391.02 804.83 387.11 702.27 458.88 667.59 564.13 783.87 561.06
00002896 00000124 586.75 135.77 357.18 558.89 655.37 385.67 805.16 390.76 703.37 462.29 665.39 562.57 787.43 569.23
00002897 00000125 590.68 148.19 356.19 557.81 657.29 382.47 806.84 386.87 709.19 458.03 670.89 564.77 794.11 570.20
00002898 00000126 590.02 150.47 356.78 551.53 657.21 384.58 806.58 389.08 710.54 460.77 671.24 565.60 794.21 571.18
00002899 00000127 585.50 141.69 359.85 553.09 655.09 389.37 806.32 394.99 703.76 467.68 666.52 565.85 788.68 572.87
00002900 00000128 585.36 143.74 359.64 543.28 655.51 388.23 807.04 395.15 704.27 468.58 667.42 562.88 787.79 570.64
00002901 00000129 586.87 143.50 358.18 539.39 655.31 388.01 807.70 395.45 703.65 468.40 667.00 560.52 788.75 568.53
00002902 00000130 587.12 143.86 358.60 538.39 655.82 388.01 808.20 395.37 703.79 468.16 667.31 560.54 788.18 568.56
00002903 00000131 587.27 144.33 358.88 538.37 657.01 387.45 809.04 395.90 704.96 469.43 667.92 560.83 787.81 569.90
00002904 00000132 588.05 142.98 358.47 541.25 657.96 386.13 808.48 394.69 705.40 469.32 670.01 561.97 787.29 571.28
00002905 00000133 588.32 144.81 358.41 543.19 659.50 387.00 808.61 394.66 707.12 470.17 672.59 564.90 787.95 573.83
00002906 00000134 589.41 144.54 358.91 543.02 659.18 388.63 809.74 395.73 706.93 471.10 672.24 563.88 790.41 572.25
00002907 00000135 589.51 144.34 359.47 539.98 659.09 389.18 812.61 396.42 708.19 472.32 670.80 559.93 794.90 568.03
00002908 00000136 589.54 144.85 361.79 538.14 659.15 390.37 813.91 396.10 708.85 472.88 670.68 557.25 799.03 563.82
00002909 00000137 590.59 145.64 361.05 538.09 660.66 391.39 815.46 396.05 711.82 473.01 672.84 558.29 801.02 564.16
00002910 00000138 595.90 147.83 362.18 540.21 665.06 392.46 816.81 391.48 723.38 467.09 682.13 566.46 807.82 566.88
00002911 DELETE   590.26 141.95 370.74 546.51 678.38 388.65 833.00 387.68 746.15 466.65 701.99 563.90 824.33 565.13
00002912 DELETE   603.17 147.82 367.09 533.38 699.68 391.33 859.14 379.44 784.47 458.96 735.29 563.05 863.82 553.42
00002913 DELETE   607.73 149.89 372.08 520.22 727.98 388.10 879.00 362.18 822.65 441.33 772.44 551.35 894.22 528.67
00002914 00000142 612.54 148.11 379.11 513.33 739.82 388.30 903.63 354.38 858.02 439.34 804.79 552.01 935.53 524.04
00002915 00000143 615.68 149.91 382.63 510.83 748.56 393.47 906.36 352.91 870.83 436.07 819.60 554.60 943.78 521.55
00002916 00000144 614.83 149.49 377.87 516.98 750.97 390.91 904.48 350.00 874.59 431.38 824.72 557.95 944.74 525.25
00002917 00000145 612.54 148.27 377.30 522.51 748.39 391.70 904.79 352.13 872.87 433.82 821.24 560.98 944.24 529.45
00002918 00000146 610.98 148.57 377.00 518.52 745.34 390.33 904.14 351.43 869.61 434.58 817.36 559.31 941.57 527.98
00002919 00000147 609.91 148.71 376.23 518.19 743.68 390.15 902.82 352.15 867.34 434.29 815.48 558.65 939.75 528.02
00002920 00000148 609.81 148.40 375.44 519.89 742.63 389.74 902.53 351.93 865.93 435.07 814.90 559.92 938.80 529.49
00002921 00000149 609.69 147.58 374.20 520.68 742.54 390.27 902.52 351.78 867.29 437.66 816.00 561.39 940.15 530.20
00002922 00000150 610.10 146.99 373.26 522.14 742.87 391.41 902.43 352.75 867.86 439.26 816.25 562.45 940.42 531.14
00002923 00000151 610.78 146.72 371.91 522.70 743.20 390.85 901.34 353.26 866.39 438.86 813.35 560.39 938.09 529.98
00002924 00000152 610.73 146.71 372.10 520.67 742.30 390.17 902.29 354.20 864.71 439.05 808.74 556.96 937.92 527.62
00002925 00000153 610.75 144.88 370.18 521.07 742.87 387.97 902.98 353.03 864.85 437.56 807.17 554.36 937.31 525.75
00002926 00000154 611.19 144.69 370.99 526.34 744.63 388.69 903.37 353.30 867.03 437.30 810.75 557.50 938.61 528.94
00002927 00000155 612.94 146.47 368.17 534.66 745.14 391.78 903.17 355.57 868.35 437.51 809.87 562.19 939.61 533.48
00002928 00000156 613.44 148.34 368.50 539.65 745.66 394.10 902.38 357.65 868.16 439.90 808.16 564.67 938.93 535.89
00002929 00000157 613.17 149.32 368.69 537.50 746.49 394.05 902.71 358.74 868.26 441.34 807.76 563.54 937.80 535.68
00002930 00000158 612.56 149.43 371.28 532.18 747.42 393.42 904.71 357.89 869.87 441.85 810.59 562.56 939.58 534.10
00002931 00000159 612.84 149.74 372.44 528.97 748.23 393.02 905.97 358.27 870.32 441.51 810.81 561.29 939.79 533.31
00002932 00000160 613.52 149.47 372.58 528.07 749.21 391.67 906.43 357.68 871.40 440.12 811.70 559.98 940.79 532.59
00002933 00000161 614.14 147.93 372.25 535.06 749.17 392.06 906.12 358.56 871.14 440.78 809.62 560.98 940.88 534.05
00002934 00000162 615.13 148.94 370.98 544.27 748.34 392.99 905.88 359.40 870.57 441.55 805.93 564.26 941.40 537.30
00002935 00000163 615.92 149.63 370.66 543.48 748.89 393.03 906.13 359.91 870.55 442.64 804.81 563.21 941.29 536.49
00002936 00000164 615.42 148.28 372.33 531.04 749.92 392.60 908.28 359.81 871.22 442.81 809.58 559.85 942.07 533.21
00002937 00000165 616.58 149.46 371.36 519.00 752.47 390.92 908.96 359.32 872.85 441.64 814.11 556.47 940.38 530.82
00002938 00000166 617.30 149.39 370.04 517.56 753.22 391.13 909.54 360.38 873.53 441.71 815.08 555.63 940.86 530.61
00002939 00000167 617.03 149.42 370.59 519.36 753.30 392.05 909.39 360.51 873.97 442.65 815.30 556.89 941.29 531.33
00002940 00000168 617.48 148.92 369.49 520.22 754.37 394.54 909.43 362.35 874.81 443.76 815.16 557.28 941.01 531.16
00002941 DELETE   617.41 150.13 368.45 519.51 758.07 404.69 907.91 372.61 877.34 444.81 815.22 557.24 940.49 531.45
00002942 00000170 617.14 150.05 367.66 519.74 758.35 404.14 907.72 371.60 877.52 446.00 815.70 557.89 939.00 531.79
