Video ID: 	Vq97a4BNQBY
H: 	1080
W: 	1920
FPS: 	25.0

FRAME INDEX X0 Y0 W H [Landmarks (5 Points)]

00005248 00000000 1046.61 150.94 448.15 629.43 1189.05 374.22 1384.82 432.52 1259.30 487.97 1148.51 591.54 1312.59 639.41
00005249 DELETE   1051.54 156.70 452.43 629.58 1200.88 375.11 1395.90 437.12 1271.19 491.24 1155.91 594.10 1319.26 645.37
00005250 00000002 1058.29 159.60 458.95 630.71 1214.60 376.10 1405.50 440.91 1279.66 498.26 1164.89 596.95 1323.28 651.16
00005251 DELETE   1069.13 164.93 458.76 630.61 1226.50 377.47 1415.53 443.87 1287.13 502.07 1171.92 601.35 1326.78 657.26
00005252 DELETE   1072.09 165.40 471.23 634.16 1236.90 372.35 1431.45 451.67 1303.86 516.52 1176.15 598.00 1334.25 664.52
00005253 00000005 1079.84 172.50 467.29 628.94 1248.95 385.96 1435.75 451.85 1314.68 514.26 1191.71 605.00 1345.43 660.42
00005254 DELETE   1085.12 177.82 469.27 628.41 1256.46 387.81 1442.90 457.78 1321.49 520.13 1199.03 608.73 1350.72 667.84
00005255 00000007 1088.50 178.08 473.74 630.62 1263.50 388.37 1450.01 462.27 1327.32 523.92 1202.89 610.48 1352.89 672.91
00005256 00000008 1091.65 180.55 475.90 632.53 1266.87 387.88 1455.58 465.55 1329.55 528.69 1204.65 612.56 1356.32 678.05
00005257 00000009 1093.92 184.16 475.50 632.70 1271.35 389.36 1458.89 471.47 1333.87 535.00 1206.79 613.82 1357.93 682.99
00005258 00000010 1095.56 187.36 476.21 635.58 1273.49 392.70 1459.63 475.63 1335.93 540.30 1209.29 618.26 1358.51 688.29
00005259 00000011 1094.96 189.63 479.49 639.22 1275.84 394.31 1459.75 479.12 1335.35 546.52 1209.77 621.68 1357.45 693.39
00005260 00000012 1094.12 192.76 481.13 639.69 1274.87 395.99 1460.21 482.14 1334.63 548.79 1208.48 624.33 1357.41 697.09
00005261 00000013 1088.11 190.12 487.66 642.20 1274.57 395.55 1465.83 488.98 1340.79 555.23 1204.64 621.88 1359.75 699.67
00005262 00000014 1087.04 190.87 487.40 643.82 1272.07 396.59 1464.24 489.67 1338.49 557.47 1202.48 623.48 1358.57 701.03
00005263 00000015 1085.82 187.97 485.05 647.34 1266.80 396.87 1460.71 487.89 1334.06 557.40 1199.02 625.14 1356.34 701.04
00005264 00000016 1083.37 189.01 484.19 646.38 1262.17 397.33 1456.81 486.33 1330.26 559.11 1195.02 626.03 1353.40 700.41
00005265 00000017 1082.12 190.39 480.16 642.02 1255.19 399.16 1449.53 484.68 1323.09 558.34 1192.02 627.27 1348.59 698.82
00005266 00000018 1079.59 189.10 476.02 641.17 1250.23 399.51 1441.29 482.17 1315.41 555.88 1190.62 625.71 1342.92 695.02
00005267 00000019 1077.11 188.84 473.32 639.65 1243.03 399.02 1436.69 476.10 1310.75 554.08 1188.48 628.65 1339.48 693.48
00005268 00000020 1073.10 190.86 470.71 636.07 1244.25 404.09 1427.96 474.14 1312.95 551.68 1189.75 630.55 1335.34 690.48
00005269 00000021 1067.23 188.28 471.82 643.45 1240.55 405.08 1423.36 474.15 1309.00 552.57 1184.71 631.48 1329.35 690.68
00005270 00000022 1064.53 188.44 467.34 646.46 1235.16 406.37 1420.75 472.99 1304.84 551.28 1180.43 633.50 1329.14 690.63
00005271 00000023 1061.14 189.21 466.86 645.37 1231.18 407.36 1417.97 472.64 1302.60 549.82 1177.16 633.49 1327.60 689.39
00005272 00000024 1059.42 187.39 464.73 647.50 1228.44 408.05 1415.91 472.55 1300.76 549.13 1174.61 633.91 1327.00 689.14
00005273 00000025 1058.70 185.84 464.12 648.38 1226.94 406.58 1414.72 471.95 1300.78 548.67 1172.80 633.09 1327.14 688.95
00005274 00000026 1058.00 182.24 463.11 651.32 1226.14 405.50 1414.58 471.48 1301.08 548.13 1172.25 632.33 1328.36 688.62
00005275 00000027 1056.35 181.79 462.08 651.49 1225.93 403.98 1413.95 471.02 1301.97 547.66 1171.47 630.74 1328.57 687.83
00005276 00000028 1056.30 181.21 461.51 649.90 1225.71 403.53 1413.50 470.46 1302.15 547.37 1171.59 628.93 1329.10 685.89
00005277 00000029 1057.07 181.60 461.08 649.67 1226.26 403.62 1414.20 469.93 1302.47 546.80 1172.36 629.15 1329.45 685.64
00005278 00000030 1057.95 182.03 461.05 648.14 1226.51 405.07 1414.40 469.49 1303.31 545.64 1173.99 630.29 1328.73 685.27
00005279 00000031 1058.82 183.22 460.83 644.81 1225.93 407.06 1413.81 469.38 1302.45 546.17 1175.86 631.67 1328.50 684.93
00005280 00000032 1057.92 183.00 462.29 647.87 1226.74 407.62 1413.88 469.65 1303.36 547.41 1176.37 632.70 1328.83 685.78
00005281 00000033 1057.33 183.68 462.52 646.49 1226.27 407.51 1413.76 469.89 1302.50 547.06 1175.92 632.10 1328.91 685.37
00005282 00000034 1056.86 184.13 463.44 648.21 1225.59 407.73 1412.90 470.66 1300.94 547.47 1174.52 632.60 1327.66 686.32
00005283 00000035 1056.47 185.08 463.02 652.76 1224.63 409.43 1412.15 470.39 1299.69 548.02 1175.84 637.97 1325.12 690.22
00005284 00000036 1054.94 185.22 463.30 658.30 1223.44 408.34 1410.43 471.59 1297.79 549.11 1172.72 639.32 1322.58 693.52
00005285 00000037 1053.82 185.78 462.88 658.46 1221.17 408.08 1408.60 472.12 1295.11 551.18 1169.59 639.75 1320.39 694.54
00005286 00000038 1053.61 186.38 460.28 657.24 1218.36 408.26 1406.97 472.67 1292.76 552.33 1167.24 640.84 1319.77 695.95
00005287 00000039 1052.40 187.65 460.17 653.33 1215.05 408.67 1404.27 472.26 1288.84 553.02 1165.08 639.35 1318.75 693.70
00005288 00000040 1053.36 181.51 459.06 654.89 1203.30 405.68 1400.49 471.25 1268.93 557.30 1155.36 644.98 1312.31 699.93
00005289 00000041 1051.54 181.41 458.15 655.77 1200.83 406.01 1398.44 471.97 1265.81 558.25 1152.59 645.27 1309.82 700.71
00005290 00000042 1049.13 179.39 459.08 659.05 1199.67 405.54 1396.90 472.87 1265.26 558.17 1150.75 644.18 1308.74 700.71
00005291 00000043 1047.20 179.85 460.06 657.79 1197.63 405.01 1395.46 472.52 1263.53 557.64 1149.04 643.17 1307.21 699.89
00005292 00000044 1043.60 178.01 463.09 659.48 1197.30 404.37 1394.80 472.44 1262.11 556.16 1147.07 642.73 1305.11 699.99
00005293 00000045 1041.98 177.08 463.57 665.59 1197.09 403.84 1393.66 472.67 1261.66 555.21 1145.92 644.30 1302.57 702.19
00005294 00000046 1041.63 175.78 463.12 667.02 1195.59 404.17 1392.82 472.72 1261.30 555.01 1145.31 645.88 1301.43 703.57
00005295 00000047 1039.73 175.08 463.71 669.02 1194.15 404.54 1391.33 473.71 1259.90 554.90 1143.76 645.99 1299.92 704.19
00005296 00000048 1039.41 175.90 462.75 667.36 1192.26 405.53 1390.29 474.16 1258.79 553.97 1142.98 646.65 1299.63 704.43
00005297 00000049 1038.33 176.41 463.63 665.82 1191.17 405.90 1389.67 473.99 1258.68 554.06 1142.72 645.70 1300.42 703.10
00005298 00000050 1037.54 173.97 464.16 668.31 1191.09 406.13 1389.13 474.08 1259.17 553.77 1142.07 645.15 1300.30 702.38
00005299 00000051 1037.04 175.95 463.91 666.99 1189.43 406.08 1388.44 473.26 1258.34 552.12 1140.48 644.72 1300.15 701.32
00005300 00000052 1036.38 175.03 464.04 670.13 1189.20 405.84 1387.82 473.07 1258.07 551.65 1140.05 646.10 1298.47 702.75
00005301 00000053 1035.89 173.96 463.89 671.13 1188.29 406.31 1386.77 474.07 1256.53 550.76 1138.59 645.54 1296.72 702.60
00005302 00000054 1034.73 175.37 463.67 668.27 1187.08 407.18 1385.36 473.89 1256.44 550.44 1138.60 645.22 1296.58 701.48
00005303 00000055 1034.18 174.22 463.19 670.01 1185.74 407.34 1384.61 473.68 1255.78 550.04 1137.02 645.32 1296.66 701.34
00005304 00000056 1034.07 175.10 463.04 668.53 1185.27 407.31 1383.99 473.06 1255.15 550.33 1137.48 645.80 1295.44 701.32
00005305 00000057 1034.51 175.45 460.79 662.39 1185.09 407.97 1382.36 472.74 1255.53 551.50 1139.35 644.65 1294.50 699.46
00005306 00000058 1033.78 176.97 460.20 662.47 1184.27 408.75 1381.23 474.01 1254.29 551.31 1138.35 644.97 1293.14 700.21
00005307 00000059 1032.81 176.17 462.40 668.33 1184.40 408.72 1380.80 473.83 1253.76 551.69 1139.70 647.67 1292.22 702.79
00005308 00000060 1033.55 179.04 457.49 664.31 1186.91 407.92 1381.78 471.47 1262.09 558.05 1143.38 644.93 1294.39 698.72
00005309 00000061 1033.60 179.48 456.77 664.71 1186.34 407.84 1381.03 470.99 1261.46 557.26 1143.06 644.83 1294.97 698.26
00005310 00000062 1030.96 176.01 461.55 676.96 1183.22 409.09 1379.99 474.25 1253.59 551.67 1137.94 650.67 1293.14 705.80
00005311 00000063 1031.64 175.40 460.61 675.86 1182.97 408.70 1379.45 473.62 1254.01 552.05 1137.93 649.84 1293.71 704.73
00005312 00000064 1029.94 175.17 460.27 675.66 1183.45 408.87 1378.46 474.21 1254.59 551.18 1136.24 647.27 1293.13 702.51
00005313 00000065 1027.34 177.91 461.01 670.39 1181.45 407.22 1376.41 472.15 1252.55 549.70 1133.54 642.97 1293.72 697.78
00005314 00000066 1026.80 177.15 459.76 668.56 1179.53 406.58 1373.98 470.64 1249.77 547.88 1132.53 641.93 1291.61 696.06
00005315 00000067 1026.13 175.01 456.83 672.09 1177.83 405.64 1371.85 467.97 1249.75 549.00 1131.81 643.77 1291.05 696.41
00005316 00000068 1022.89 172.75 453.74 669.23 1174.13 402.19 1371.93 462.32 1250.08 546.35 1129.41 639.28 1294.62 690.04
00005317 00000069 1020.15 167.86 450.80 666.48 1170.37 400.28 1369.36 456.47 1249.42 542.47 1127.10 634.56 1296.22 682.00
00005318 00000070 1018.50 167.79 450.03 662.80 1166.63 400.00 1364.64 454.25 1245.45 539.52 1124.68 634.37 1289.87 680.44
00005319 00000071 1019.01 166.25 446.45 661.14 1161.30 398.34 1358.64 448.97 1241.55 537.18 1123.25 635.02 1286.84 678.14
00005320 00000072 1017.54 162.05 442.87 658.70 1157.83 397.15 1354.24 447.34 1237.14 534.18 1118.95 630.08 1282.51 672.82
00005321 00000073 1012.47 160.06 444.86 658.24 1153.70 395.70 1350.61 443.58 1232.38 529.72 1115.49 626.62 1279.96 667.41
00005322 00000074 1009.24 156.91 443.76 656.30 1150.10 394.07 1344.90 440.54 1228.46 526.25 1113.46 623.35 1276.55 662.79
00005323 00000075 1005.31 155.10 442.89 654.67 1144.73 391.49 1340.00 437.97 1224.31 522.70 1109.74 620.95 1273.07 660.06
00005324 00000076 1001.50 152.63 437.50 654.13 1129.93 392.18 1328.21 436.53 1205.70 521.39 1104.95 626.71 1268.14 663.54
00005325 00000077 998.12 151.33 437.92 663.52 1127.73 390.67 1326.51 435.63 1202.24 518.87 1100.06 628.72 1264.30 665.96
00005326 00000078 994.82 147.60 439.38 669.16 1124.32 389.45 1322.58 435.20 1197.14 516.91 1096.92 629.42 1258.23 667.41
00005327 00000079 992.71 148.72 440.53 669.86 1120.92 389.67 1320.26 436.16 1191.68 516.59 1093.11 629.97 1253.77 668.66
00005328 00000080 990.84 148.29 439.33 671.72 1118.06 390.42 1318.41 436.49 1189.10 520.19 1090.89 632.44 1251.59 670.74
00005329 00000081 988.81 149.58 439.57 671.42 1115.70 392.79 1315.74 438.10 1186.11 524.39 1087.43 635.19 1247.06 672.95
00005330 00000082 989.21 152.20 438.04 667.17 1111.84 396.42 1314.36 439.09 1185.81 529.09 1087.08 638.68 1249.14 674.17
00005331 00000083 990.67 155.73 437.29 668.85 1111.41 400.61 1314.93 442.74 1186.31 536.92 1088.39 644.21 1250.18 679.31
00005332 00000084 990.40 158.20 442.23 672.23 1114.65 402.78 1319.34 447.91 1188.98 544.62 1088.75 647.12 1252.81 684.35
00005333 00000085 989.81 165.95 443.99 661.84 1126.46 404.05 1325.60 448.54 1206.90 544.28 1097.69 639.80 1254.48 678.02
00005334 00000086 992.66 166.91 441.76 663.83 1129.62 404.58 1328.21 449.90 1209.90 544.77 1099.29 641.67 1255.44 680.66
00005335 00000087 994.27 167.15 442.51 665.32 1132.12 404.05 1329.72 450.29 1210.84 544.75 1101.18 642.10 1255.62 681.87
00005336 00000088 996.54 166.93 440.65 666.08 1134.52 403.53 1330.24 449.54 1211.91 542.80 1102.76 641.15 1256.49 680.86
00005337 00000089 997.47 165.21 441.46 667.91 1135.57 402.19 1331.04 447.63 1212.82 539.90 1102.77 639.81 1258.23 679.05
00005338 00000090 998.71 165.38 441.46 666.84 1136.34 402.14 1331.86 447.51 1213.28 539.59 1103.26 639.17 1259.54 678.35
00005339 00000091 999.31 165.77 441.01 667.54 1137.56 401.98 1332.95 447.77 1214.76 540.27 1102.73 638.06 1262.16 677.56
00005340 00000092 1000.99 164.87 442.07 669.76 1137.10 402.51 1334.35 447.28 1214.86 541.38 1102.30 638.34 1266.01 676.82
00005341 00000093 1002.94 164.71 441.37 669.81 1138.33 405.28 1335.29 449.62 1216.72 545.32 1103.48 639.14 1268.41 677.18
00005342 00000094 1003.67 166.90 442.05 673.85 1139.71 408.35 1337.30 453.66 1217.51 548.75 1103.21 642.77 1270.79 681.70
00005343 00000095 1002.68 168.34 437.66 671.26 1139.27 419.34 1338.05 463.77 1219.84 551.78 1103.98 644.19 1275.23 682.29
00005344 00000096 1005.24 166.57 435.83 672.44 1138.92 419.84 1337.39 463.59 1219.19 552.29 1104.34 644.25 1276.40 681.61
00005345 00000097 1006.59 166.31 434.45 672.81 1138.26 418.84 1336.16 460.90 1218.69 552.70 1104.57 644.55 1276.72 680.68
00005346 00000098 1007.40 165.44 433.65 673.00 1137.85 414.65 1335.25 456.23 1217.67 551.02 1104.73 643.05 1277.50 678.57
00005347 00000099 1006.87 164.54 436.48 672.71 1137.92 411.43 1336.89 453.37 1216.81 548.51 1104.21 640.83 1278.14 676.58
00005348 00000100 1007.65 164.68 436.69 671.45 1138.21 408.72 1337.35 450.63 1217.73 547.45 1105.02 640.24 1278.55 675.88
00005349 00000101 1008.41 164.17 438.25 672.09 1138.83 407.36 1336.69 449.54 1217.38 545.35 1104.99 639.22 1277.12 675.07
00005350 00000102 1009.80 162.04 438.67 673.37 1139.35 407.50 1337.65 449.37 1217.42 544.44 1105.94 639.52 1277.31 675.00
00005351 00000103 1010.44 161.65 439.30 672.11 1140.10 408.28 1338.23 450.30 1217.73 544.52 1106.90 639.79 1275.36 675.39
00005352 00000104 1011.89 161.49 438.13 669.54 1139.86 409.57 1337.90 450.32 1217.50 544.74 1108.36 639.32 1276.33 673.82
00005353 00000105 1012.19 162.01 438.10 666.82 1140.01 409.31 1338.82 451.28 1216.75 545.40 1107.79 638.96 1274.37 674.50
00005354 00000106 1011.18 161.00 438.68 666.15 1139.74 408.42 1338.19 451.35 1215.28 544.48 1106.92 636.70 1272.06 673.13
00005355 00000107 1010.29 159.48 439.72 666.13 1139.22 406.96 1337.94 449.89 1214.90 543.44 1107.32 635.20 1271.68 671.63
00005356 00000108 1009.00 159.90 439.50 665.08 1138.57 406.13 1336.83 448.51 1214.85 541.39 1106.66 633.62 1270.51 669.76
00005357 00000109 1008.29 158.87 439.80 662.67 1136.72 404.31 1335.42 446.32 1212.39 539.47 1105.58 631.43 1269.35 667.27
00005358 00000110 1007.11 160.15 439.64 661.10 1136.30 403.84 1334.51 445.69 1212.52 538.95 1105.28 630.51 1269.97 666.21
00005359 00000111 1006.68 158.28 440.30 661.26 1136.02 403.66 1335.04 445.33 1212.48 538.13 1105.41 629.20 1270.84 664.61
00005360 00000112 1006.07 158.74 440.33 658.66 1135.05 403.68 1335.00 445.02 1212.46 538.14 1105.31 628.50 1272.72 663.53
00005361 00000113 1005.46 157.77 440.07 658.45 1134.36 403.65 1334.78 444.97 1212.85 538.45 1104.95 627.24 1274.63 662.18
00005362 00000114 1004.50 157.55 441.22 659.22 1133.74 403.00 1334.98 445.08 1211.85 539.44 1103.65 626.81 1275.16 662.36
00005363 00000115 1004.11 159.78 437.81 659.07 1124.37 403.25 1328.93 446.37 1199.14 544.48 1098.07 633.20 1276.28 668.93
00005364 00000116 1003.07 160.77 437.59 657.73 1122.17 403.07 1327.70 446.47 1196.64 545.44 1095.71 634.36 1273.31 670.24
00005365 00000117 1002.13 160.72 437.46 658.28 1118.63 403.44 1325.59 447.11 1192.00 546.68 1091.49 635.56 1270.14 671.59
00005366 00000118 1000.51 160.30 438.09 660.16 1115.97 404.48 1323.76 448.50 1188.98 548.89 1087.95 637.85 1266.17 674.07
00005367 00000119 999.70 159.20 438.02 664.91 1113.47 405.21 1321.37 449.32 1186.03 549.44 1085.80 641.17 1262.20 677.24
00005368 00000120 999.59 161.81 438.91 663.14 1119.97 404.55 1324.13 445.89 1196.68 548.17 1090.29 636.45 1259.98 671.97
00005369 00000121 999.43 160.82 438.05 673.04 1111.46 407.06 1319.57 450.41 1183.55 552.29 1083.81 648.83 1258.43 684.02
00005370 00000122 999.88 162.71 436.81 674.37 1111.94 407.65 1317.83 449.97 1182.35 551.68 1085.41 653.09 1254.29 687.66
00005371 00000123 998.63 168.69 440.50 667.17 1115.49 412.80 1319.23 454.32 1183.50 550.05 1087.44 650.52 1253.07 682.92
00005372 00000124 998.30 169.36 439.97 667.38 1114.29 413.32 1318.03 454.24 1182.59 550.20 1086.29 651.04 1253.02 682.99
00005373 00000125 997.92 171.29 440.46 666.80 1114.75 415.42 1317.85 456.71 1183.49 552.42 1086.19 652.19 1252.74 684.49
00005374 00000126 998.16 171.45 440.73 667.98 1114.58 416.87 1317.65 457.90 1183.83 553.43 1086.54 653.72 1253.33 685.89
00005375 00000127 998.16 171.70 440.44 668.04 1114.03 416.72 1317.51 457.28 1183.81 553.29 1086.98 654.43 1253.43 686.17
00005376 00000128 997.79 171.16 438.06 664.46 1113.05 416.72 1316.82 455.92 1184.04 552.01 1087.98 653.44 1254.93 684.07
00005377 00000129 999.06 162.08 433.38 673.51 1108.31 410.90 1313.14 450.86 1179.26 552.73 1084.11 653.17 1254.13 685.89
00005378 00000130 997.52 160.50 433.48 671.19 1107.53 409.83 1312.65 450.32 1178.93 550.45 1083.02 650.15 1253.32 683.36
00005379 00000131 996.03 159.33 432.25 667.06 1105.76 408.96 1312.14 448.55 1178.11 548.72 1082.47 648.12 1253.89 680.60
00005380 00000132 995.41 157.93 432.02 668.18 1104.96 408.48 1311.82 447.93 1178.01 548.14 1081.83 647.62 1254.15 679.91
00005381 00000133 995.10 158.41 431.72 666.71 1104.33 407.84 1311.40 447.05 1177.39 547.90 1081.76 647.12 1254.14 679.15
00005382 00000134 994.90 159.38 430.65 665.39 1103.72 407.49 1310.27 446.62 1176.57 547.59 1081.13 646.81 1253.54 678.78
00005383 00000135 993.61 157.84 430.03 666.60 1102.69 407.21 1308.97 447.23 1175.68 547.61 1079.33 646.62 1251.39 679.34
00005384 00000136 992.67 158.07 429.20 667.83 1102.06 406.38 1307.97 447.79 1174.65 547.42 1077.12 646.51 1248.94 680.48
00005385 00000137 992.23 159.29 428.82 669.42 1101.30 406.81 1306.74 448.64 1172.49 547.01 1075.07 647.01 1246.75 681.35
00005386 00000138 991.64 159.45 427.54 669.28 1100.04 407.52 1304.62 449.22 1170.48 547.29 1073.83 648.11 1243.61 682.52
00005387 00000139 991.01 159.45 428.49 670.45 1099.01 407.47 1303.38 448.92 1168.67 547.12 1072.73 648.80 1241.65 683.06
00005388 00000140 990.38 159.57 428.01 672.41 1097.95 407.03 1301.78 448.37 1167.75 546.98 1071.76 649.10 1240.79 683.22
00005389 00000141 989.86 159.65 428.87 672.64 1096.99 406.74 1301.01 447.80 1166.48 546.74 1070.75 649.12 1239.76 683.01
00005390 00000142 989.59 159.00 427.47 671.35 1096.38 406.09 1300.41 447.18 1166.28 545.75 1070.71 647.86 1239.44 681.74
00005391 00000143 988.56 157.28 428.12 670.11 1095.85 404.18 1300.39 444.70 1166.86 542.72 1070.01 645.57 1238.82 679.01
00005392 00000144 987.19 154.24 430.11 672.09 1095.84 401.94 1301.66 442.71 1167.20 539.41 1069.69 643.19 1240.25 676.74
00005393 00000145 986.84 153.29 431.43 672.85 1095.61 399.04 1300.02 439.21 1166.41 536.05 1069.65 640.52 1239.61 673.30
00005394 00000146 987.60 149.40 429.08 673.27 1094.91 397.31 1297.40 436.26 1165.25 532.40 1069.10 637.42 1238.25 669.23
00005395 00000147 986.81 145.52 429.45 674.88 1093.82 395.19 1295.63 432.99 1163.65 529.27 1068.66 634.01 1238.73 664.76
00005396 00000148 986.37 146.41 430.31 669.74 1092.99 392.68 1294.57 429.85 1161.95 526.08 1068.08 629.87 1238.08 660.13
00005397 00000149 985.13 143.80 430.78 670.07 1092.57 391.39 1293.43 427.74 1160.77 521.70 1067.63 626.87 1237.33 656.45
00005398 00000150 983.77 143.87 432.87 666.40 1090.27 390.04 1292.88 425.65 1158.33 517.23 1064.12 624.33 1236.56 653.24
00005399 00000151 982.77 144.99 433.50 662.80 1089.12 388.69 1291.12 422.86 1157.13 514.88 1063.01 622.36 1235.63 650.01
00005400 00000152 981.28 144.49 435.09 662.44 1089.23 387.41 1290.97 421.71 1157.83 513.80 1062.81 621.58 1235.30 649.38
00005401 00000153 981.37 144.21 434.47 661.16 1087.80 386.57 1289.71 420.40 1155.86 512.39 1061.49 620.86 1233.51 648.32
00005402 00000154 980.19 144.62 433.75 661.40 1086.61 386.31 1288.41 419.96 1155.86 511.84 1060.05 620.98 1232.70 648.32
00005403 00000155 978.94 143.66 431.88 663.98 1085.04 386.41 1287.20 419.62 1155.26 511.82 1058.74 621.92 1231.93 648.90
00005404 00000156 977.19 144.68 432.62 664.35 1083.26 386.79 1286.54 419.49 1154.36 512.26 1056.83 623.64 1230.72 650.30
00005405 00000157 976.64 145.08 432.67 665.21 1082.21 388.43 1285.88 419.59 1154.41 512.38 1056.93 625.42 1230.50 650.86
00005406 00000158 975.26 143.65 432.76 668.86 1081.85 390.30 1284.44 421.13 1154.71 513.94 1057.93 627.42 1229.76 652.73
00005407 00000159 973.20 142.23 433.27 677.25 1081.12 392.79 1284.37 422.49 1155.49 515.40 1058.09 631.59 1229.87 656.11
00005408 00000160 973.33 142.20 431.41 682.36 1079.43 393.94 1283.00 422.64 1154.49 518.02 1057.09 636.40 1228.53 660.17
00005409 00000161 973.56 144.82 430.79 673.69 1076.96 396.50 1280.89 423.89 1152.03 519.61 1057.00 636.74 1226.88 659.31
00005410 00000162 974.12 144.29 429.52 667.14 1077.04 398.14 1278.92 425.07 1149.64 520.22 1058.42 633.22 1226.89 655.28
