Video ID: 	PgGWkTRlhL0
H: 	1080
W: 	1920
FPS: 	25.0

FRAME INDEX X0 Y0 W H [Landmarks (5 Points)]

00001670 00000000 550.00 132.89 450.80 730.49 749.70 413.56 936.31 393.73 929.03 514.77 822.55 680.41 973.99 661.58
00001671 00000001 529.46 125.62 454.80 746.44 741.95 410.00 929.23 386.37 924.35 514.10 805.53 684.70 957.15 663.80
00001672 00000002 515.66 132.60 450.59 742.10 721.59 410.24 913.13 389.76 900.75 514.12 791.26 688.04 939.97 668.02
00001673 00000003 491.47 130.74 461.57 750.44 698.43 408.70 901.97 394.16 889.23 511.08 766.95 687.50 928.86 671.23
00001674 00000004 479.35 128.24 463.25 756.18 692.57 408.03 884.10 400.04 878.54 512.94 757.76 690.13 915.76 681.07
00001675 00000005 471.84 130.12 462.01 752.90 682.17 409.51 877.06 397.21 868.72 514.05 753.18 689.10 913.06 676.29
00001676 00000006 469.60 138.62 463.50 747.02 672.71 412.91 875.46 398.62 862.11 517.41 743.78 693.31 910.38 678.94
00001677 00000007 470.67 136.13 465.97 751.19 672.29 414.55 874.78 399.00 861.67 517.10 742.74 694.94 911.33 679.59
00001678 00000008 474.70 140.71 469.88 746.87 677.65 417.42 878.71 403.50 864.94 517.08 748.30 694.84 915.67 680.82
00001679 00000009 486.78 135.14 467.95 751.66 688.74 419.74 894.18 398.98 873.76 520.84 759.77 694.35 924.85 672.33
00001680 00000010 503.14 135.00 467.80 742.46 695.96 422.72 904.86 397.71 875.89 516.29 772.98 692.55 937.16 667.34
00001681 00000011 525.35 132.82 458.09 734.02 711.94 416.98 917.66 387.27 887.88 516.06 787.74 688.44 947.63 660.81
00001682 00000012 546.00 123.94 454.53 742.94 734.18 412.34 931.22 399.43 909.52 507.08 799.33 674.60 963.88 661.53
00001683 00000013 560.32 124.44 463.77 735.24 755.77 410.83 952.95 398.87 928.61 500.16 822.79 669.48 985.84 657.05
00001684 00000014 584.02 116.97 457.92 744.41 779.60 406.23 978.26 385.34 953.35 497.86 847.47 670.13 1006.48 649.10
00001685 00000015 613.08 124.69 450.40 727.49 806.97 401.71 999.59 380.56 976.92 496.00 868.61 667.23 1024.51 647.62
00001686 00000016 622.55 123.90 457.42 725.34 819.90 409.74 1015.50 405.26 989.03 500.39 872.96 660.61 1036.25 654.46
00001687 DELETE   645.31 131.59 452.96 716.16 837.95 415.60 1029.26 414.01 1005.88 502.63 890.81 663.52 1047.54 660.63
00001688 00000018 657.79 117.74 455.24 741.11 855.12 407.63 1051.25 398.82 1026.94 495.30 910.34 665.46 1069.13 655.17
00001689 00000019 676.41 124.56 450.53 734.44 868.67 405.32 1064.37 394.82 1038.12 497.60 921.14 667.00 1082.21 655.99
00001690 00000020 686.81 122.33 446.76 723.92 875.23 405.95 1070.02 406.65 1039.31 498.34 921.20 658.31 1085.83 657.02
00001691 00000021 691.34 122.70 454.52 723.35 883.50 408.80 1078.82 408.31 1047.08 501.17 933.03 657.75 1096.21 655.02
00001692 00000022 697.50 118.87 453.05 723.43 890.32 409.81 1083.59 408.77 1055.50 498.42 941.44 656.48 1101.37 653.02
00001693 00000023 703.64 121.41 452.66 719.86 898.43 412.13 1090.33 408.86 1061.71 501.42 949.85 657.92 1105.79 653.15
00001694 00000024 708.26 121.32 452.45 719.14 903.04 412.06 1093.89 410.87 1067.55 497.68 954.16 656.48 1108.73 653.79
00001695 00000025 711.56 123.37 450.32 719.61 903.03 413.51 1094.77 410.28 1068.60 499.49 956.27 659.00 1111.97 654.66
00001696 00000026 710.07 121.42 449.98 718.28 900.65 414.08 1094.45 409.94 1063.98 504.97 952.48 659.62 1109.47 654.17
00001697 00000027 708.72 122.86 451.10 715.16 894.81 415.06 1090.86 407.94 1057.58 508.89 948.39 661.63 1107.20 653.61
00001698 00000028 705.47 122.99 451.85 720.16 888.87 414.44 1087.36 407.40 1051.39 509.41 941.00 663.96 1103.31 655.96
00001699 00000029 700.82 115.56 451.63 733.94 884.12 413.59 1081.69 403.71 1048.19 508.07 940.18 665.05 1103.23 654.69
00001700 00000030 698.14 114.43 446.55 733.60 879.47 414.13 1073.42 403.52 1042.44 512.37 934.96 666.71 1094.16 656.20
00001701 00000031 698.00 122.75 442.50 724.60 873.38 418.16 1069.96 403.58 1036.93 515.29 929.31 670.06 1092.08 656.50
00001702 00000032 698.90 124.37 437.57 721.88 872.49 422.35 1066.58 405.38 1035.12 519.42 932.28 673.54 1090.59 657.94
00001703 00000033 693.69 123.23 443.46 725.31 882.35 421.62 1074.00 394.07 1051.68 520.05 944.18 681.53 1096.36 657.22
00001704 00000034 692.89 130.42 441.41 718.37 883.41 422.21 1074.52 395.78 1053.28 523.45 946.19 683.16 1096.31 659.42
00001705 00000035 689.71 133.18 441.54 715.95 882.05 422.48 1071.90 396.10 1054.00 523.47 944.97 682.60 1094.75 658.93
00001706 00000036 683.21 132.00 438.78 718.30 869.22 422.63 1064.51 396.26 1038.60 523.05 932.94 680.72 1085.44 656.40
00001707 00000037 671.53 136.03 440.71 719.95 854.81 425.59 1052.55 397.89 1023.25 525.63 924.02 682.82 1074.42 656.49
00001708 00000038 665.18 144.69 432.80 705.19 841.34 430.81 1031.91 410.87 1000.60 531.06 906.59 682.28 1057.02 663.89
00001709 00000039 655.20 145.75 438.35 706.88 827.04 431.95 1018.96 412.18 985.14 527.85 891.85 680.85 1045.78 662.89
00001710 00000040 648.43 148.11 438.49 706.78 818.28 438.24 1013.82 411.66 976.79 531.32 884.34 684.85 1041.11 661.25
00001711 00000041 642.18 146.96 437.98 707.32 811.41 438.57 1008.68 410.56 973.26 530.34 876.92 683.90 1037.91 659.14
00001712 00000042 638.25 138.54 440.69 711.13 809.21 432.54 1007.25 403.73 972.09 525.08 880.88 681.27 1035.50 652.47
00001713 00000043 643.01 142.90 447.64 710.97 813.48 431.38 1011.37 403.69 978.74 520.82 882.49 680.06 1044.55 655.33
00001714 00000044 645.29 141.74 450.86 717.02 818.11 428.48 1016.24 402.27 986.03 520.85 888.55 683.24 1050.53 659.59
00001715 00000045 643.97 135.43 452.60 725.65 821.09 429.66 1022.19 402.76 987.20 526.73 891.39 686.09 1048.30 658.90
00001716 00000046 647.98 142.89 451.30 726.51 828.38 433.38 1030.38 410.87 993.27 540.31 894.38 694.14 1051.82 670.95
00001717 00000047 653.96 144.30 447.57 722.79 831.30 436.64 1034.24 412.86 996.21 541.07 899.37 693.75 1057.15 669.23
00001718 00000048 654.86 140.74 449.40 731.52 837.10 434.14 1039.97 411.39 1003.53 538.95 902.11 692.70 1061.65 669.13
00001719 00000049 655.48 139.34 449.53 731.12 838.60 434.08 1041.40 409.76 1006.05 536.61 905.62 691.85 1064.81 666.98
00001720 00000050 655.61 136.64 451.91 733.21 837.22 433.82 1046.49 409.91 1007.25 542.55 904.92 694.09 1068.82 669.40
00001721 00000051 657.63 142.75 450.18 725.52 834.27 436.18 1035.44 411.16 999.24 545.53 901.59 698.61 1058.94 676.71
00001722 00000052 648.41 136.39 456.02 741.67 834.74 433.90 1043.03 414.97 1003.41 548.13 900.57 701.74 1059.21 681.80
00001723 00000053 649.84 138.89 455.95 740.40 836.83 436.05 1042.56 416.22 1005.58 544.08 904.57 701.75 1062.27 681.03
00001724 00000054 647.98 140.36 456.20 737.28 837.82 435.99 1041.59 415.78 1007.13 543.08 905.02 700.28 1061.37 679.19
00001725 00000055 648.60 140.63 456.43 733.48 839.36 438.41 1043.09 417.62 1009.94 539.02 906.11 696.22 1065.77 674.61
00001726 00000056 651.06 147.18 448.84 725.80 845.71 441.16 1033.30 425.10 1008.26 535.52 907.01 694.06 1058.49 679.38
00001727 00000057 650.00 146.57 450.28 723.37 846.88 438.94 1033.79 425.00 1008.83 530.64 906.20 689.84 1058.23 676.94
00001728 00000058 649.06 142.98 447.86 723.38 846.37 432.27 1035.10 421.12 1009.28 527.26 907.93 689.90 1057.32 679.02
00001729 00000059 649.22 144.79 445.56 721.67 842.18 423.47 1036.27 417.50 1010.78 527.53 896.05 687.26 1053.14 680.93
00001730 00000060 648.54 139.81 447.65 725.55 840.19 417.39 1034.80 411.50 1013.52 520.12 896.44 684.05 1054.46 677.65
00001731 00000061 642.48 133.02 453.57 728.06 839.81 412.53 1041.84 403.11 1013.59 514.87 900.37 675.04 1059.94 662.48
00001732 00000062 643.48 132.83 453.04 729.16 840.02 412.80 1041.23 403.91 1010.64 516.12 900.36 675.71 1058.59 663.31
00001733 00000063 645.16 134.27 451.20 725.00 840.35 411.49 1040.82 403.96 1010.44 516.08 900.55 674.52 1056.95 663.27
00001734 00000064 645.15 134.13 451.67 726.51 840.39 410.18 1040.12 402.00 1010.03 515.90 898.35 673.68 1055.52 662.01
00001735 00000065 642.60 131.79 450.72 719.33 836.34 407.83 1037.23 400.50 1005.43 515.30 893.06 669.93 1051.37 659.05
00001736 00000066 644.70 134.24 448.63 713.34 835.20 408.20 1036.88 398.85 1002.92 514.71 895.92 669.73 1051.40 657.32
00001737 00000067 651.17 139.68 445.41 704.94 835.17 410.97 1029.18 406.00 1003.82 511.97 893.98 668.73 1049.63 663.16
00001738 00000068 651.30 139.21 446.22 704.84 835.26 410.77 1029.32 405.89 1004.33 509.40 893.68 667.13 1050.64 661.67
00001739 00000069 645.32 131.91 451.43 709.79 836.27 405.64 1034.97 396.84 1002.77 505.81 896.22 661.47 1051.90 649.71
00001740 00000070 646.92 129.44 453.13 713.99 838.37 406.94 1037.18 398.43 1006.36 505.21 899.74 660.74 1057.12 649.16
00001741 00000071 647.45 132.07 451.35 710.01 840.84 404.80 1037.81 397.15 1008.71 503.77 901.64 659.76 1056.05 649.07
00001742 00000072 646.04 133.74 450.28 706.38 841.32 403.33 1038.45 396.52 1010.87 503.22 899.50 658.75 1055.14 649.00
00001743 00000073 642.98 132.56 450.63 707.58 841.66 402.14 1037.94 395.66 1014.74 502.15 899.91 659.81 1054.18 650.55
00001744 00000074 640.42 127.93 451.45 713.63 841.76 403.28 1037.64 395.92 1016.71 500.59 900.66 659.72 1055.50 649.56
00001745 00000075 640.93 129.51 452.82 713.19 843.05 403.41 1037.26 394.33 1017.14 500.74 903.16 659.89 1056.50 648.45
00001746 00000076 638.77 129.90 455.14 716.90 843.58 402.52 1039.43 394.21 1020.70 502.51 905.52 663.35 1059.06 652.22
00001747 00000077 641.91 128.18 454.67 721.21 843.39 406.08 1039.92 393.53 1021.65 503.49 908.00 666.48 1062.08 651.95
00001748 00000078 641.63 130.73 455.56 722.42 843.83 405.27 1041.11 392.02 1024.37 503.00 909.43 668.91 1064.61 653.68
00001749 00000079 642.89 129.74 455.19 724.37 845.59 404.75 1043.28 391.98 1026.69 502.05 911.01 669.12 1066.78 654.35
00001750 00000080 644.80 130.50 453.78 724.39 846.94 404.47 1044.40 391.90 1028.97 502.24 913.21 669.73 1068.63 655.11
00001751 00000081 647.12 130.09 454.05 725.67 848.67 404.25 1046.16 390.74 1030.93 502.51 914.90 670.95 1069.99 655.71
00001752 00000082 649.47 131.65 453.08 724.51 850.77 404.01 1047.89 391.08 1032.54 502.70 917.09 671.20 1071.84 656.56
00001753 00000083 650.83 134.66 452.90 723.14 850.22 403.88 1048.18 389.90 1032.51 502.88 916.77 672.72 1072.58 657.24
00001754 00000084 651.04 137.54 453.35 721.55 849.88 404.47 1048.17 388.79 1032.05 503.70 915.53 673.31 1072.53 656.54
00001755 00000085 651.32 137.10 453.70 722.94 850.12 404.65 1048.75 389.04 1033.48 503.64 914.75 673.28 1072.91 656.71
00001756 00000086 651.02 137.98 454.57 722.56 850.87 406.21 1048.31 389.91 1033.41 506.12 914.30 674.13 1071.75 657.07
00001757 00000087 651.40 138.22 452.83 722.50 849.68 407.10 1046.94 391.40 1032.16 506.76 914.24 675.30 1070.89 658.74
00001758 00000088 650.28 138.52 453.29 723.85 848.96 406.90 1046.57 391.23 1032.25 507.51 911.95 675.30 1069.59 658.73
00001759 00000089 650.29 143.44 451.62 721.15 846.48 406.13 1046.48 391.19 1031.41 507.23 909.15 676.49 1069.33 660.36
00001760 00000090 649.83 139.05 453.18 728.41 848.35 407.39 1047.60 392.41 1032.67 508.19 909.21 677.10 1069.38 661.07
00001761 00000091 647.42 139.88 453.36 729.23 845.51 408.07 1046.93 395.50 1032.00 509.58 904.44 677.68 1066.92 663.50
00001762 00000092 649.27 142.75 449.90 730.12 843.74 409.39 1046.06 396.91 1030.62 512.22 901.92 680.06 1065.19 665.96
00001763 00000093 645.86 139.39 454.18 733.96 843.83 411.03 1046.09 398.41 1030.16 515.37 902.03 681.67 1064.55 667.48
00001764 00000094 645.88 139.57 454.11 733.86 843.70 411.11 1046.42 399.41 1029.34 516.42 901.03 681.82 1063.85 668.42
00001765 00000095 644.92 140.17 453.80 732.51 843.09 411.66 1045.12 398.50 1027.52 517.14 900.67 681.97 1063.14 667.37
00001766 00000096 642.05 139.55 454.94 733.79 841.73 411.26 1043.26 401.51 1024.66 518.64 895.57 680.04 1058.83 668.16
00001767 00000097 640.34 139.78 454.80 734.85 840.83 413.08 1041.21 403.05 1022.58 519.54 894.84 680.99 1057.19 668.76
00001768 00000098 639.72 140.68 454.54 734.53 838.92 413.20 1039.93 403.19 1021.88 519.40 892.98 681.74 1056.03 669.63
00001769 00000099 641.23 142.13 452.64 735.13 839.51 413.60 1039.97 404.15 1021.90 522.03 891.64 682.78 1055.25 671.19
00001770 00000100 642.82 141.55 449.74 737.81 840.79 415.93 1039.34 409.43 1022.39 522.36 892.47 683.08 1054.39 673.91
00001771 00000101 642.43 144.76 450.30 734.58 840.78 417.82 1037.78 410.26 1021.69 523.32 893.27 683.66 1055.09 673.52
00001772 00000102 642.23 145.42 450.07 733.57 840.60 418.54 1036.91 411.73 1021.80 523.15 893.26 683.38 1054.60 673.79
00001773 00000103 641.17 146.00 450.18 731.24 839.49 418.82 1035.23 411.73 1019.44 523.55 892.20 682.71 1053.11 672.83
00001774 00000104 642.74 142.73 447.85 730.58 839.87 417.70 1034.53 410.65 1018.32 520.81 893.50 680.55 1052.05 670.78
00001775 00000105 643.99 149.85 445.40 721.84 836.11 418.77 1026.51 412.29 1015.05 517.43 895.82 682.16 1052.83 674.94
00001776 00000106 644.09 146.15 444.43 723.64 835.40 419.83 1024.89 413.33 1014.47 513.63 895.12 680.56 1052.01 673.20
00001777 00000107 641.22 147.30 444.82 723.98 833.49 418.75 1023.40 414.51 1012.37 513.42 890.64 680.18 1049.07 674.73
00001778 00000108 637.91 154.16 443.67 716.14 829.82 420.82 1019.47 414.58 1007.60 516.78 887.33 682.39 1045.05 675.52
00001779 00000109 636.03 157.78 443.31 712.72 826.19 422.41 1018.68 415.21 1005.34 519.65 883.43 683.77 1043.22 676.06
00001780 00000110 634.14 156.91 441.64 714.20 823.18 424.42 1016.15 415.29 1003.15 521.22 880.51 684.70 1041.62 674.97
00001781 00000111 632.00 156.93 440.13 712.85 821.63 425.69 1013.52 417.04 1000.67 521.53 878.04 683.96 1038.69 674.55
00001782 00000112 630.30 160.27 441.09 708.03 819.77 425.68 1011.02 417.60 998.08 521.34 877.02 682.44 1037.64 673.48
00001783 00000113 628.11 159.05 441.85 707.32 816.83 424.15 1008.92 414.96 995.09 522.18 874.07 681.98 1034.23 672.19
00001784 00000114 627.51 155.44 440.95 709.18 815.57 425.01 1007.15 413.79 993.43 520.66 872.82 681.29 1033.39 669.97
00001785 00000115 628.29 156.00 438.55 708.48 815.62 424.01 1006.65 414.16 993.98 520.80 871.49 680.69 1032.51 670.48
00001786 00000116 628.57 156.24 438.58 706.46 815.90 423.43 1006.75 413.12 993.83 521.58 871.42 679.60 1032.62 669.10
00001787 00000117 622.46 153.78 442.55 695.33 823.30 421.17 1014.15 406.75 1000.83 521.72 878.35 682.03 1032.31 669.19
00001788 00000118 624.24 149.40 442.29 699.00 826.12 420.49 1015.40 404.68 1003.86 521.73 880.29 681.49 1033.45 667.83
00001789 00000119 626.22 153.56 440.99 691.95 826.54 421.16 1017.60 406.64 1005.46 521.54 880.37 680.64 1034.40 668.00
00001790 00000120 628.91 153.77 439.39 691.55 829.88 423.27 1018.68 406.67 1008.43 522.91 883.07 680.92 1037.23 666.60
00001791 00000121 631.91 155.23 436.83 688.52 832.25 424.54 1019.35 409.17 1009.01 522.61 884.35 680.37 1038.07 667.30
00001792 00000122 631.72 159.62 437.57 684.01 832.57 425.92 1019.62 410.24 1009.35 523.12 884.20 680.26 1038.35 666.91
00001793 00000123 631.65 160.05 437.37 684.08 832.74 428.90 1019.76 410.95 1010.39 524.98 883.94 681.16 1039.84 665.85
00001794 00000124 632.97 159.79 436.88 687.64 834.31 430.41 1021.36 411.55 1012.59 527.56 883.80 683.40 1040.79 667.47
00001795 00000125 636.96 161.26 433.88 693.72 824.92 426.25 1019.51 416.90 1005.06 529.94 878.01 676.98 1042.96 665.71
00001796 00000126 635.06 167.37 435.45 682.92 835.21 431.07 1022.56 411.14 1014.71 530.06 884.03 685.49 1042.33 668.76
00001797 00000127 632.81 170.34 437.17 679.40 834.43 433.60 1023.01 414.27 1015.64 532.56 884.59 687.52 1042.74 671.08
00001798 00000128 633.00 169.12 436.27 680.92 835.02 434.00 1024.03 416.23 1015.34 532.96 883.96 687.98 1042.02 672.82
00001799 00000129 631.28 172.86 437.45 675.75 832.70 433.97 1022.78 416.35 1012.59 532.88 881.60 686.44 1040.81 671.30
00001800 00000130 628.66 170.95 438.42 675.32 829.06 432.60 1022.36 413.74 1009.06 532.97 877.18 684.47 1038.68 668.19
00001801 00000131 625.98 168.74 438.18 678.86 826.47 429.95 1019.92 414.53 1005.38 529.35 872.96 681.58 1034.94 668.17
00001802 00000132 623.70 165.03 439.98 681.59 823.94 427.92 1018.61 414.87 1003.58 527.00 872.52 681.31 1033.00 669.78
00001803 00000133 620.26 163.06 440.24 682.69 820.70 426.67 1016.34 414.97 1002.35 526.48 871.17 680.70 1030.72 669.98
00001804 00000134 619.15 156.23 438.44 691.44 820.21 422.87 1014.45 413.63 1002.55 523.48 871.09 679.15 1028.91 670.42
00001805 00000135 617.28 155.69 436.92 693.92 817.13 421.11 1010.79 413.81 999.96 521.38 867.57 678.51 1024.86 671.42
00001806 00000136 615.23 159.66 436.30 690.13 814.72 421.39 1010.29 415.65 997.21 523.60 865.05 678.82 1023.15 672.67
00001807 00000137 612.43 159.13 435.63 692.18 812.74 424.03 1007.82 418.41 993.03 525.94 861.81 678.85 1019.97 672.51
00001808 00000138 610.90 163.45 435.17 689.33 809.72 423.35 1005.66 418.28 990.86 525.40 859.36 678.21 1019.07 672.15
00001809 00000139 608.92 164.40 434.16 685.95 809.83 423.72 1002.66 420.17 990.39 526.70 860.65 677.12 1016.10 672.24
00001810 00000140 606.44 163.87 433.03 687.07 806.42 423.34 996.66 416.64 988.62 526.70 857.79 676.96 1011.77 669.66
00001811 00000141 604.75 162.12 432.55 689.56 804.35 424.25 994.35 418.95 986.30 526.16 855.93 676.22 1010.36 669.88
00001812 00000142 605.59 162.37 429.70 689.35 802.24 422.90 993.58 419.51 984.91 523.33 856.16 676.30 1010.73 671.29
00001813 00000143 604.93 162.22 430.37 687.25 801.17 421.93 993.80 420.60 982.14 522.83 855.03 674.67 1009.66 671.13
00001814 00000144 604.69 166.62 429.10 681.93 799.25 423.24 991.42 422.76 979.22 521.48 854.34 673.87 1009.23 670.84
00001815 00000145 603.52 162.52 430.25 686.21 800.74 421.27 991.61 419.45 980.29 521.23 856.64 673.97 1008.98 669.90
00001816 00000146 604.24 164.58 430.16 684.11 801.19 420.24 992.56 418.70 980.39 519.85 858.28 673.84 1010.35 670.05
00001817 00000147 606.02 160.45 428.86 686.21 801.28 417.32 991.03 414.22 980.07 515.68 858.80 671.97 1010.08 667.29
00001818 00000148 606.51 158.53 430.40 685.43 802.19 415.65 991.32 409.65 981.92 513.72 861.09 671.33 1011.89 664.52
00001819 00000149 605.98 160.19 430.70 683.02 801.07 413.66 991.28 407.41 982.64 511.40 860.71 669.78 1012.82 662.67
00001820 00000150 606.95 157.27 431.33 685.40 802.27 414.23 990.97 405.71 983.02 509.66 862.73 668.75 1014.26 659.96
00001821 00000151 606.84 155.33 432.78 685.43 804.74 414.68 991.01 404.48 985.72 509.28 867.17 669.11 1016.68 659.10
00001822 00000152 608.43 155.53 432.16 686.87 804.91 415.83 992.32 406.23 985.81 509.44 867.72 669.54 1018.31 659.83
00001823 00000153 607.48 156.78 432.92 685.25 805.28 416.29 991.99 406.09 986.93 509.39 869.51 670.66 1018.98 660.45
00001824 00000154 606.88 155.35 434.50 689.44 805.91 416.24 994.02 407.20 989.05 510.19 869.60 671.98 1019.98 662.73
00001825 00000155 607.48 159.55 432.99 681.60 803.68 416.53 992.02 406.43 985.15 511.18 867.29 669.83 1017.78 659.58
00001826 00000156 606.61 158.63 433.14 683.37 803.35 415.38 990.93 406.62 985.23 509.39 867.76 669.85 1017.43 660.65
00001827 00000157 606.92 159.78 431.34 682.40 802.01 415.84 990.66 405.82 983.12 510.29 865.11 669.91 1016.24 659.73
00001828 00000158 605.90 159.26 430.35 682.01 799.82 415.18 988.99 406.22 979.92 510.76 863.34 669.70 1013.76 660.18
00001829 00000159 606.46 160.60 427.27 680.71 797.89 415.90 986.82 408.54 976.79 510.65 861.08 669.24 1011.70 660.84
00001830 00000160 604.90 165.65 427.27 677.44 792.75 416.52 984.46 410.99 971.53 509.03 858.17 670.21 1010.60 662.86
00001831 00000161 603.23 162.80 428.57 681.48 788.55 415.64 984.43 411.81 967.21 508.65 854.90 670.92 1010.04 664.45
00001832 00000162 598.38 158.24 432.46 685.67 783.70 413.93 981.64 408.87 963.55 507.52 852.08 669.74 1007.86 662.00
00001833 00000163 594.30 154.11 432.38 684.55 778.83 412.57 975.12 403.14 959.76 502.08 846.61 665.70 1003.81 654.56
00001834 00000164 586.20 151.11 437.08 678.82 773.00 408.52 971.73 401.74 954.56 492.01 839.00 655.81 1001.47 646.07
00001835 00000165 582.62 143.92 437.01 677.03 775.62 405.36 967.68 401.42 952.58 485.89 836.56 646.62 994.89 639.75
00001836 00000166 578.21 141.56 440.23 674.79 774.50 400.98 964.06 399.87 949.73 480.64 834.56 639.86 989.21 635.29
00001837 00000167 575.20 133.46 439.74 681.93 769.66 404.51 952.68 403.72 938.40 478.31 828.75 635.96 980.86 633.31
