Video ID: 	xdnbhp2hkEU
H: 	1080
W: 	1920
FPS: 	29.97002997002997

FRAME INDEX X0 Y0 W H [Landmarks (5 Points)]

00001684 00000000 464.87 155.41 368.48 526.71 604.86 363.62 774.17 378.58 714.28 460.77 620.77 548.14 761.35 559.91
00001685 DELETE   464.00 169.02 367.12 529.92 595.76 375.19 766.86 383.59 710.15 476.27 611.72 566.88 753.78 574.75
00001686 00000002 455.08 190.19 370.77 536.80 595.19 389.76 760.71 403.16 706.93 499.28 606.99 583.49 744.30 595.97
00001687 00000003 453.32 218.98 369.50 533.69 583.99 410.03 751.09 418.38 694.34 532.21 589.49 602.82 737.20 611.48
00001688 00000004 447.37 223.20 372.06 540.55 581.71 420.13 745.61 431.54 689.82 543.20 583.35 614.08 729.76 624.83
00001689 00000005 443.22 226.63 370.16 535.51 578.50 423.21 743.35 433.26 687.73 546.34 581.13 618.00 725.00 627.87
00001690 00000006 439.71 227.95 370.77 530.22 575.64 422.21 740.54 431.11 684.79 545.26 580.03 616.67 722.00 625.55
00001691 00000007 438.35 220.03 370.38 530.46 571.53 420.82 738.78 428.16 682.81 543.80 581.17 617.02 722.02 624.38
00001692 00000008 434.98 216.19 370.92 529.44 569.81 417.79 737.28 424.89 680.44 540.76 581.84 616.38 718.47 623.22
00001693 00000009 429.49 217.36 373.87 530.42 567.29 416.48 738.48 424.49 675.07 536.58 585.41 614.06 720.02 621.24
00001694 00000010 425.16 214.09 376.50 531.60 563.39 417.12 734.91 423.55 672.49 536.78 583.37 613.72 718.21 619.50
00001695 00000011 422.80 213.82 377.24 531.77 560.04 416.79 733.25 422.43 670.13 538.25 580.85 614.17 716.46 619.45
00001696 00000012 420.77 212.19 378.03 533.56 558.47 418.25 731.43 422.98 669.32 539.15 579.51 615.17 715.24 619.78
00001697 00000013 419.97 213.70 378.17 533.53 558.28 418.52 730.63 423.36 669.08 538.91 578.91 615.43 714.76 620.14
00001698 00000014 419.43 211.96 378.61 535.21 558.51 418.21 730.42 422.73 668.98 538.86 579.31 615.79 714.35 620.22
00001699 00000015 420.20 212.40 377.48 533.87 560.62 417.79 732.15 422.09 670.62 539.02 580.20 615.39 714.38 619.71
00001700 00000016 420.40 216.20 378.58 529.51 561.62 417.33 734.06 423.27 669.78 538.11 579.29 613.48 714.24 619.18
00001701 00000017 420.57 215.31 378.12 527.70 560.38 417.00 735.22 422.63 670.04 537.61 578.98 613.53 714.79 619.03
00001702 00000018 420.09 214.90 378.72 527.10 558.84 416.76 735.26 422.25 668.55 537.98 578.90 614.54 714.30 619.94
00001703 00000019 419.01 215.81 380.12 530.56 558.36 416.88 734.14 422.70 668.25 538.72 576.66 615.22 713.95 620.98
00001704 00000020 418.91 215.42 380.25 538.98 559.37 416.39 731.13 423.40 668.44 538.53 573.20 615.50 713.22 622.28
00001705 00000021 419.09 215.33 379.31 546.18 560.61 416.23 728.35 425.08 666.93 537.76 567.60 613.67 710.05 621.84
00001706 00000022 417.39 214.81 381.45 548.04 560.20 413.86 729.13 423.46 666.83 536.16 565.78 611.69 711.06 620.34
00001707 00000023 415.82 211.87 382.02 548.80 559.35 413.49 727.93 422.29 667.19 536.16 564.38 610.21 710.07 618.40
00001708 00000024 416.37 208.87 381.12 545.42 556.34 409.20 726.56 417.85 665.51 528.96 564.12 604.32 711.46 612.34
00001709 00000025 415.08 198.35 382.14 546.24 553.55 400.70 725.92 410.15 662.89 518.72 563.88 597.61 711.25 606.12
00001710 00000026 415.66 189.09 379.88 548.60 555.16 392.99 726.84 405.22 662.80 508.98 563.94 589.56 711.17 599.97
00001711 00000027 416.10 181.02 377.59 552.12 556.77 386.81 727.97 400.32 664.33 499.24 563.65 582.88 711.33 594.34
00001712 00000028 415.82 176.21 379.30 555.74 558.40 380.61 726.40 393.37 665.40 495.56 563.91 579.78 709.12 590.56
00001713 00000029 417.22 173.74 378.39 557.14 558.93 378.08 725.53 390.59 665.15 492.97 564.41 577.40 708.59 588.08
00001714 00000030 418.41 174.23 377.17 554.15 558.01 377.17 725.70 389.43 665.00 489.65 564.14 576.04 709.23 586.54
00001715 00000031 419.34 174.60 376.26 550.68 557.86 377.50 726.08 389.17 665.31 488.49 565.55 575.78 709.66 585.86
00001716 00000032 421.43 175.15 374.90 544.44 557.81 378.82 725.84 389.44 664.79 487.70 570.76 576.30 710.32 585.28
00001717 00000033 424.46 177.31 372.04 531.71 558.22 379.29 725.74 388.75 663.19 488.83 576.15 577.23 707.87 585.23
00001718 00000034 426.01 177.72 372.54 528.72 558.83 379.37 727.46 388.80 663.03 488.88 578.92 577.95 708.22 585.79
00001719 00000035 427.72 178.37 372.47 527.79 560.35 379.85 727.91 388.83 664.24 488.13 582.17 578.48 709.08 585.87
00001720 00000036 430.00 179.06 371.19 525.64 561.14 379.42 728.93 388.42 664.58 487.88 583.29 579.18 709.03 586.67
00001721 00000037 430.74 178.08 373.18 528.27 563.24 379.83 729.86 390.35 665.88 486.54 584.86 578.77 709.68 587.33
00001722 00000038 432.51 179.45 374.10 527.95 566.27 379.39 730.94 390.47 667.91 486.14 586.33 578.05 709.45 587.21
00001723 00000039 433.31 181.36 376.29 528.27 569.09 379.19 732.18 389.97 670.49 486.17 588.48 577.60 710.48 586.75
00001724 00000040 435.05 182.75 376.23 527.00 570.69 379.10 734.80 390.11 673.16 484.28 589.22 576.32 713.08 585.84
00001725 00000041 436.95 183.33 373.72 522.55 569.97 379.53 735.69 389.96 673.87 483.29 589.01 575.53 714.14 584.62
00001726 00000042 439.30 180.49 370.30 520.20 568.82 379.10 738.53 388.82 674.68 481.60 589.23 574.84 717.69 583.21
00001727 00000043 441.66 179.33 366.65 517.60 569.46 378.35 740.68 388.23 676.48 482.36 589.19 575.27 718.63 584.02
00001728 00000044 442.21 179.59 365.86 516.38 570.37 378.59 741.48 387.56 678.42 481.82 590.34 574.74 720.17 582.79
00001729 00000045 442.49 179.32 365.84 516.79 570.26 378.30 742.11 387.28 678.55 481.26 590.74 574.77 720.96 582.77
00001730 00000046 441.44 179.12 366.05 518.07 569.43 378.46 741.31 386.86 678.55 481.34 588.71 575.23 720.87 582.79
00001731 00000047 441.37 178.99 366.22 517.66 569.32 378.76 740.17 386.15 678.10 480.85 588.98 574.57 720.77 581.37
00001732 00000048 440.09 181.17 366.72 516.25 569.87 378.72 739.60 385.58 678.69 479.82 589.31 573.40 720.70 579.73
00001733 00000049 439.43 180.52 366.71 515.54 569.52 379.17 740.91 385.88 679.82 479.85 588.94 573.62 722.20 579.74
00001734 00000050 438.24 181.12 367.43 514.24 569.03 379.47 741.35 385.32 681.01 479.29 589.12 572.56 724.54 578.01
00001735 00000051 437.77 179.70 367.18 515.00 568.65 378.86 741.08 383.89 681.12 479.32 589.67 572.56 724.59 577.31
00001736 00000052 436.44 179.24 368.16 515.58 568.16 378.95 739.97 384.21 680.37 478.16 589.47 571.65 724.46 576.53
00001737 00000053 434.65 180.74 369.60 514.33 566.96 378.49 739.64 384.22 679.65 477.92 588.50 570.99 724.72 576.22
00001738 00000054 434.11 179.07 369.41 515.31 566.55 377.85 739.45 382.74 680.32 477.62 588.96 571.12 724.76 575.47
00001739 00000055 433.75 178.77 368.55 514.68 565.25 378.20 738.40 382.67 679.32 477.84 588.07 571.55 724.38 575.57
00001740 00000056 432.16 177.80 369.59 516.34 564.97 378.26 738.28 382.95 679.82 477.63 586.89 571.23 724.02 575.46
00001741 00000057 431.35 178.46 370.54 515.62 564.52 378.49 737.96 383.19 678.96 477.79 586.23 571.34 723.10 575.66
00001742 00000058 430.58 178.24 370.58 516.27 564.30 378.32 737.82 383.02 679.17 477.37 585.81 570.87 723.36 575.16
00001743 00000059 430.73 177.96 370.30 516.02 564.37 378.40 737.46 382.68 679.36 477.87 586.13 570.81 723.38 574.74
00001744 00000060 430.37 176.91 370.84 516.95 564.46 378.26 737.93 382.82 679.81 477.93 585.90 570.95 723.69 575.12
00001745 00000061 430.06 176.93 370.85 517.20 564.40 378.69 737.85 383.26 680.06 478.23 585.71 571.12 723.86 575.31
00001746 00000062 430.89 176.87 370.60 517.66 564.85 378.75 738.49 383.48 680.74 478.03 586.61 570.96 724.80 575.23
00001747 00000063 431.46 178.73 371.57 519.51 565.85 378.94 738.82 383.90 681.79 477.36 586.52 570.25 725.91 574.79
00001748 00000064 432.79 176.26 372.44 528.33 571.19 379.53 740.56 384.63 686.85 477.81 588.84 570.92 727.10 575.51
00001749 00000065 439.06 174.85 368.89 537.03 577.75 381.47 743.01 390.63 690.53 477.24 591.42 571.56 727.67 580.05
00001750 00000066 444.89 174.72 365.18 537.42 582.18 384.11 744.27 395.62 692.09 474.86 595.39 572.29 729.37 582.94
00001751 00000067 451.98 170.74 362.33 532.17 583.46 379.08 749.90 388.20 695.85 476.93 600.38 571.78 733.73 580.16
00001752 00000068 457.76 168.92 362.91 533.34 588.78 377.47 754.05 385.36 702.36 474.96 607.93 570.17 741.83 577.43
00001753 00000069 461.66 170.21 365.48 536.23 596.82 377.70 758.58 384.92 709.60 473.19 614.39 570.00 748.43 576.66
00001754 00000070 466.75 171.62 365.25 535.70 606.04 378.87 766.27 386.28 717.64 475.09 621.98 571.97 754.22 579.19
00001755 00000071 475.84 168.30 360.57 532.18 615.89 379.06 777.87 385.37 727.14 477.49 632.44 572.85 765.00 579.36
00001756 00000072 474.10 167.03 363.08 533.11 622.61 374.66 781.59 381.65 737.56 473.38 638.77 568.68 767.53 575.12
00001757 00000073 482.19 165.17 364.89 535.51 633.32 374.31 789.94 381.61 744.73 472.43 648.30 568.48 772.75 575.15
00001758 00000074 490.23 168.33 367.38 537.13 645.74 372.42 799.94 384.79 755.34 475.28 656.65 567.90 778.67 578.62
00001759 00000075 502.45 171.89 367.46 535.54 658.20 374.99 807.86 386.27 766.09 477.79 670.98 568.53 787.73 578.67
00001760 00000076 515.76 170.17 364.03 533.43 665.95 378.48 821.54 391.15 778.86 478.26 680.29 567.46 805.41 578.69
00001761 00000077 530.35 169.03 358.73 528.80 680.52 384.25 836.93 390.43 798.19 480.82 698.05 571.34 825.14 577.71
00001762 00000078 544.15 169.57 357.01 527.61 695.85 384.62 851.84 390.48 811.08 484.15 711.49 573.09 840.00 579.49
00001763 00000079 547.52 167.32 359.88 533.40 707.34 381.61 861.28 384.58 820.71 483.78 726.62 574.11 846.10 576.66
00001764 00000080 558.78 171.31 362.58 535.08 721.64 383.04 875.16 392.87 833.39 486.83 738.60 575.83 855.66 583.90
00001765 00000081 574.09 176.18 362.63 531.34 731.58 386.03 887.35 397.26 842.75 490.84 750.25 578.36 865.25 588.05
00001766 00000082 585.77 181.67 363.29 529.54 742.87 395.24 898.48 401.53 855.09 501.98 763.34 590.86 876.64 596.77
00001767 00000083 595.46 188.68 364.76 527.61 754.51 397.32 909.36 404.00 865.44 506.56 774.46 597.79 884.70 603.90
00001768 00000084 601.44 194.40 369.05 530.12 761.60 396.94 915.84 405.11 871.70 507.54 780.49 600.80 892.59 608.03
00001769 00000085 606.43 195.74 369.58 533.61 766.76 399.12 920.43 406.31 877.14 511.33 783.89 604.06 897.35 610.55
00001770 00000086 607.41 190.82 370.26 536.16 771.98 398.11 922.77 407.82 877.89 519.35 786.60 600.00 901.23 608.01
00001771 00000087 608.27 196.01 371.54 534.82 772.79 399.10 925.10 409.43 879.70 521.63 785.17 600.00 903.50 608.75
00001772 00000088 607.22 198.63 373.19 533.47 770.05 398.85 926.86 408.38 881.72 519.95 783.27 599.51 907.70 607.70
00001773 00000089 606.70 198.45 373.91 534.43 769.12 398.54 925.98 408.89 880.50 519.22 780.22 598.24 907.09 607.23
00001774 00000090 605.50 193.88 372.93 535.73 767.42 397.65 923.05 407.28 878.29 518.90 778.18 597.35 904.53 605.85
00001775 00000091 606.32 202.84 372.01 528.15 764.76 400.61 924.38 410.68 880.24 510.75 772.93 595.04 903.00 604.33
00001776 00000092 603.04 200.09 370.96 526.75 758.55 399.76 917.90 411.55 872.08 507.81 767.03 591.24 896.35 601.80
00001777 00000093 597.12 196.19 369.07 524.12 748.83 398.30 913.21 411.26 863.70 504.14 759.02 588.01 891.14 599.68
00001778 00000094 590.67 194.73 367.42 519.08 739.92 398.66 905.77 409.62 854.47 501.96 752.02 586.20 883.35 596.39
00001779 00000095 583.93 191.24 365.41 519.78 732.99 398.46 897.56 408.20 847.07 499.42 745.65 584.26 876.08 593.30
00001780 00000096 576.78 185.70 365.20 526.35 726.24 394.84 889.94 406.10 840.72 496.08 738.43 581.84 868.30 591.98
00001781 00000097 565.91 187.64 367.00 521.17 718.62 393.98 882.65 405.36 832.91 493.38 733.49 578.90 862.62 588.77
00001782 00000098 557.00 182.98 366.87 524.31 712.65 390.03 875.10 399.22 827.68 490.44 729.85 579.02 856.92 586.95
00001783 00000099 549.26 182.10 366.09 525.21 703.73 389.36 864.42 393.62 819.64 490.74 724.54 580.01 851.42 583.97
00001784 00000100 547.52 180.06 360.72 526.31 696.99 391.93 856.31 392.84 811.81 489.83 717.90 584.62 847.10 586.36
00001785 00000101 539.44 179.99 363.18 524.01 686.39 392.86 844.01 391.51 801.32 488.99 709.35 582.71 836.23 582.58
00001786 00000102 529.99 180.39 361.74 523.07 676.90 390.56 833.93 390.36 792.07 488.10 701.30 580.39 824.35 581.03
00001787 00000103 518.13 179.21 364.18 521.40 666.74 389.37 825.27 391.56 783.15 485.00 692.68 578.01 813.91 580.21
00001788 00000104 509.11 179.46 364.50 527.16 658.28 386.33 815.40 392.44 772.06 484.39 679.47 577.09 799.61 582.93
00001789 00000105 496.36 178.15 372.26 539.56 652.46 384.23 804.83 392.66 764.96 482.33 670.49 575.70 791.59 583.25
00001790 00000106 486.52 178.28 373.98 537.83 644.73 381.78 800.89 389.66 758.35 480.74 662.59 575.28 786.95 582.06
00001791 00000107 483.40 175.15 366.64 531.73 639.64 380.56 793.89 384.40 752.67 479.59 660.76 575.37 779.85 579.17
00001792 00000108 478.46 171.01 365.45 530.80 633.17 381.05 787.49 380.13 747.41 477.30 661.62 574.92 778.35 574.33
00001793 00000109 478.40 173.16 361.88 528.47 629.71 387.79 788.69 382.73 747.42 477.79 653.58 580.71 779.86 577.61
00001794 00000110 473.91 173.01 360.78 530.24 622.64 389.87 781.09 382.61 742.65 477.42 649.90 581.83 776.48 576.89
00001795 00000111 467.85 174.53 361.55 530.60 614.92 388.54 772.74 383.80 736.37 478.02 642.16 581.09 769.32 578.38
00001796 00000112 460.74 173.75 363.51 536.25 608.18 387.96 764.52 386.60 729.05 479.96 631.84 578.09 760.28 578.00
00001797 00000113 454.87 176.77 364.23 532.47 601.16 387.44 760.64 387.65 722.84 479.52 622.14 575.36 754.92 576.40
00001798 00000114 447.74 178.17 367.00 532.45 595.42 386.64 756.53 388.44 717.59 480.32 616.52 576.19 749.84 578.44
00001799 00000115 441.88 178.69 366.86 534.74 589.12 386.51 749.94 388.67 710.75 482.36 608.06 576.64 741.77 579.48
00001800 00000116 434.93 178.35 369.36 535.04 584.85 385.55 743.89 387.20 705.41 482.38 604.00 575.99 735.27 578.31
00001801 00000117 428.54 178.27 370.47 537.17 581.58 384.13 739.08 386.94 700.67 482.29 600.50 576.01 729.13 579.13
00001802 00000118 421.76 175.84 373.88 540.22 577.60 382.75 733.51 387.17 695.25 481.15 597.47 575.80 724.26 579.81
00001803 00000119 418.51 177.08 370.79 536.70 574.24 384.43 729.62 386.99 691.63 481.70 595.06 575.76 721.60 578.30
00001804 00000120 416.83 174.64 367.47 531.57 570.47 385.55 726.52 386.34 687.16 480.52 594.61 574.61 718.32 575.74
00001805 00000121 415.65 174.66 365.24 528.16 568.40 386.09 724.12 385.05 684.69 482.07 596.08 575.31 716.46 574.95
00001806 00000122 414.81 174.03 363.44 524.40 564.45 388.10 724.48 384.24 684.04 482.75 594.78 575.70 719.28 573.27
00001807 00000123 411.41 171.88 364.93 527.91 562.18 389.39 721.58 383.62 681.67 483.14 593.97 576.38 717.76 572.22
00001808 00000124 409.29 172.65 365.34 528.52 559.57 388.89 719.49 381.78 679.22 484.81 593.34 578.68 715.88 573.25
00001809 00000125 405.10 176.21 366.28 534.21 556.62 388.93 714.94 383.39 675.85 487.11 591.07 581.03 714.41 576.62
00001810 00000126 402.12 180.67 367.91 537.38 550.07 393.53 711.91 386.27 674.23 490.82 586.33 585.88 716.43 580.42
CROP_BBOX: 262 0 1114 885
