Video ID: 	7CdxHJBrqHI
H: 	1080
W: 	1920
FPS: 	29.97002997002997

FRAME INDEX X0 Y0 W H [Landmarks (5 Points)]

00000772 00000000 842.82 202.91 386.09 556.97 934.73 447.76 1124.00 442.96 1034.60 563.48 969.71 641.43 1123.37 636.91
00000773 00000001 847.97 200.26 383.74 555.96 945.74 447.79 1134.26 438.60 1051.82 563.84 986.41 643.41 1138.51 635.01
00000774 DELETE   853.01 196.75 380.19 553.45 956.38 447.57 1143.95 433.22 1068.51 559.41 1001.77 643.14 1153.19 629.84
00000775 00000003 855.89 194.79 379.32 554.65 964.03 448.41 1152.44 430.61 1081.46 556.52 1010.87 644.66 1163.74 628.55
00000776 00000004 859.63 193.77 376.72 556.27 969.67 447.91 1157.97 428.96 1089.21 554.96 1015.84 643.88 1168.39 627.10
00000777 00000005 863.12 189.94 373.97 558.90 976.05 447.77 1162.78 427.53 1096.41 553.46 1020.76 643.02 1172.12 625.61
00000778 00000006 866.04 187.44 370.61 559.36 978.99 447.15 1163.38 424.44 1099.98 551.18 1025.60 641.89 1174.76 622.40
00000779 00000007 866.06 186.26 369.61 558.42 979.13 444.42 1163.08 420.39 1100.50 548.97 1027.74 640.96 1174.78 620.39
00000780 00000008 865.87 183.92 368.40 557.84 979.11 442.16 1162.40 418.45 1100.08 546.70 1028.12 639.29 1173.72 619.05
00000781 00000009 864.37 183.34 368.92 558.01 978.62 440.88 1161.32 417.49 1099.66 544.09 1027.15 637.25 1172.96 617.45
00000782 00000010 862.62 182.58 370.35 559.11 977.30 439.24 1160.16 415.60 1099.29 542.47 1025.78 636.08 1171.95 616.25
00000783 00000011 858.97 182.20 371.71 559.16 973.57 436.62 1156.04 413.89 1095.62 540.46 1023.41 634.15 1168.51 615.13
00000784 00000012 855.22 180.98 373.87 558.64 969.56 433.98 1151.71 411.51 1090.70 538.58 1021.79 632.14 1165.45 613.20
00000785 00000013 849.97 179.29 376.60 560.90 966.32 430.85 1147.54 409.45 1088.11 534.38 1017.49 628.58 1161.82 610.37
00000786 00000014 847.53 179.09 377.44 558.02 964.28 428.37 1145.46 409.22 1086.19 531.76 1016.07 626.40 1159.42 609.64
00000787 00000015 846.67 176.45 376.64 560.62 963.24 425.22 1143.41 405.78 1086.21 529.98 1014.38 624.94 1157.67 608.08
00000788 00000016 845.01 176.91 375.90 558.38 962.48 422.86 1142.25 403.97 1086.79 528.35 1013.83 623.77 1156.14 607.38
00000789 00000017 842.41 175.99 376.65 559.09 959.99 421.09 1140.93 404.26 1083.97 526.92 1009.82 622.11 1153.99 607.42
00000790 00000018 840.57 175.30 375.63 559.19 957.33 418.06 1137.96 402.90 1080.67 525.60 1006.26 620.47 1151.67 607.04
00000791 00000019 839.19 171.37 373.18 561.01 955.69 414.68 1135.14 402.02 1077.72 522.73 1002.33 617.29 1147.44 606.08
00000792 00000020 837.22 169.20 372.46 561.40 954.82 412.13 1132.29 401.54 1075.01 517.58 998.79 613.09 1143.29 603.70
00000793 00000021 834.64 168.10 372.88 561.18 952.60 409.74 1130.26 401.13 1071.32 515.16 995.51 612.19 1139.28 604.71
00000794 00000022 836.32 168.18 372.13 555.92 947.42 411.62 1130.60 404.71 1061.97 517.19 986.29 613.46 1131.45 607.75
00000795 00000023 834.47 168.07 371.85 555.76 944.79 410.59 1128.18 404.09 1058.74 517.60 982.92 612.93 1128.39 607.44
00000796 00000024 832.52 165.31 372.74 559.27 942.81 409.04 1126.88 402.27 1058.08 518.26 981.84 613.12 1126.70 607.52
00000797 00000025 831.79 164.37 372.56 559.99 942.10 409.35 1126.24 401.42 1057.76 518.09 981.19 612.95 1126.54 606.47
00000798 00000026 831.75 162.49 372.08 561.46 941.47 407.98 1126.95 400.45 1057.92 517.00 979.33 612.37 1126.79 606.45
00000799 00000027 831.47 161.27 371.39 561.52 941.53 406.54 1126.98 399.02 1059.21 515.11 980.31 610.72 1127.19 605.05
00000800 00000028 831.62 160.65 371.84 561.94 942.44 406.29 1127.51 399.20 1059.74 514.42 981.48 610.33 1127.82 604.90
00000801 00000029 831.22 161.24 372.07 560.60 941.71 406.74 1127.10 399.11 1059.25 514.74 980.77 609.99 1127.78 604.01
00000802 00000030 831.25 160.94 371.03 559.87 941.40 406.00 1125.97 397.72 1058.59 513.79 980.62 608.75 1127.38 602.31
00000803 00000031 831.35 160.48 370.46 560.76 940.93 405.71 1126.04 397.48 1058.05 513.09 980.08 608.92 1127.49 602.53
00000804 00000032 830.82 159.43 369.72 560.95 938.77 406.39 1124.63 398.16 1055.70 513.82 977.20 609.02 1125.73 602.89
00000805 00000033 828.76 158.68 368.99 562.54 936.48 406.93 1121.17 398.22 1053.61 513.48 974.95 608.96 1123.08 602.61
00000806 00000034 824.70 157.42 371.01 564.88 934.66 406.12 1118.75 396.79 1051.99 512.38 972.57 608.81 1120.16 602.18
00000807 00000035 822.18 155.76 371.93 568.99 932.75 404.92 1116.39 395.24 1049.97 509.97 970.91 608.92 1118.03 602.22
00000808 00000036 818.90 154.17 372.54 571.87 929.82 404.57 1113.20 393.89 1047.08 507.61 969.01 610.77 1114.85 603.22
00000809 00000037 814.31 153.45 374.09 576.03 926.91 403.02 1109.57 392.93 1045.47 505.28 966.27 610.54 1111.77 603.53
00000810 00000038 812.60 152.44 374.44 576.59 925.47 400.65 1108.29 389.23 1044.53 502.64 965.36 608.70 1111.58 600.65
00000811 00000039 811.47 150.80 374.36 578.22 924.41 399.50 1107.43 388.93 1043.49 501.41 963.68 607.57 1110.51 599.97
00000812 00000040 811.02 150.98 374.51 577.37 923.27 398.56 1106.77 388.03 1042.83 501.64 962.70 606.23 1110.45 598.52
00000813 00000041 809.26 149.54 375.87 578.10 921.87 396.99 1105.81 386.27 1041.93 499.11 961.63 605.21 1108.95 597.10
00000814 00000042 808.69 149.86 376.20 578.55 922.31 396.97 1104.87 386.23 1042.31 499.12 962.12 604.19 1108.77 596.00
00000815 00000043 808.57 148.82 376.31 578.76 922.22 396.92 1104.52 386.17 1042.46 499.43 962.13 604.12 1108.22 595.98
00000816 00000044 807.43 148.67 376.88 579.85 922.02 397.11 1103.58 386.02 1042.72 499.07 962.03 603.74 1107.79 595.27
00000817 00000045 808.50 149.52 376.33 577.38 922.54 397.43 1104.71 386.39 1043.20 499.15 962.46 604.12 1108.28 595.73
00000818 00000046 810.42 149.53 375.20 575.96 923.67 396.78 1105.79 386.69 1044.07 499.68 963.31 603.79 1108.81 596.20
00000819 00000047 810.89 150.11 374.98 575.03 924.96 397.38 1106.81 387.80 1045.07 499.71 964.10 603.39 1109.89 596.18
00000820 00000048 811.97 150.11 374.52 575.85 925.87 397.51 1107.06 388.15 1045.39 500.46 964.68 603.50 1110.03 596.59
00000821 00000049 812.78 148.46 374.21 575.98 927.00 396.56 1108.69 388.27 1046.39 499.53 964.92 603.22 1110.24 597.24
00000822 00000050 814.29 148.12 373.39 575.68 928.27 396.16 1110.70 388.31 1047.23 499.25 964.61 602.83 1111.28 597.31
00000823 00000051 814.72 147.99 373.45 574.87 928.89 395.82 1111.43 389.33 1047.39 499.82 964.48 602.68 1111.02 598.30
00000824 00000052 815.72 146.02 372.75 575.33 928.58 394.66 1112.37 388.58 1046.30 499.79 963.14 601.85 1110.87 597.82
00000825 00000053 816.11 146.44 372.62 574.01 928.49 394.25 1113.23 388.18 1046.51 499.50 963.11 601.91 1110.84 597.88
00000826 00000054 817.11 146.26 372.48 574.63 929.12 394.42 1114.09 389.07 1046.65 500.08 962.54 601.68 1111.24 598.23
00000827 00000055 817.83 148.06 372.21 573.21 930.08 395.02 1114.65 390.22 1047.18 500.35 962.63 601.59 1111.31 598.74
00000828 00000056 817.82 148.73 373.45 573.98 930.55 395.50 1115.10 390.88 1047.75 500.33 963.28 602.55 1111.43 599.92
00000829 00000057 818.46 149.97 373.16 573.22 931.14 396.26 1115.38 392.04 1047.56 501.39 963.93 602.88 1111.74 600.55
00000830 00000058 818.61 151.32 373.03 573.40 931.00 397.25 1115.18 392.78 1047.18 501.78 963.64 603.72 1111.77 601.35
00000831 00000059 818.57 151.27 372.89 573.23 930.92 397.19 1115.09 392.75 1046.93 501.87 963.72 603.74 1111.80 601.40
00000832 00000060 817.58 150.69 372.73 574.64 930.52 396.96 1114.81 392.70 1046.74 501.89 963.03 603.84 1111.58 601.55
00000833 00000061 817.87 150.64 372.71 575.75 930.84 397.47 1114.71 392.74 1046.86 502.36 963.32 604.28 1111.73 601.60
00000834 00000062 815.78 150.12 373.41 576.85 929.72 396.83 1113.58 391.75 1046.41 501.83 962.77 604.68 1110.14 601.72
00000835 00000063 814.44 149.36 373.71 577.74 927.94 395.63 1111.12 390.75 1044.37 501.09 961.98 604.11 1108.48 600.90
00000836 00000064 813.79 147.93 374.55 579.72 927.90 395.21 1112.15 390.98 1044.88 501.23 961.61 605.06 1108.11 602.22
00000837 00000065 814.37 148.47 374.22 580.06 928.19 395.14 1112.86 391.06 1045.09 501.51 961.29 605.56 1108.19 602.96
00000838 00000066 813.61 148.25 374.35 579.79 927.91 395.05 1112.82 391.20 1045.27 501.35 961.06 605.75 1107.78 603.29
00000839 00000067 813.24 148.32 374.33 580.68 928.03 395.20 1112.78 391.31 1045.67 501.28 961.15 605.69 1108.11 603.22
00000840 00000068 812.20 148.83 374.49 579.02 926.24 395.22 1111.12 391.72 1043.47 500.73 959.85 605.13 1106.58 602.70
00000841 00000069 811.09 148.77 374.85 579.51 925.30 395.16 1109.63 391.43 1043.26 500.60 959.85 605.07 1105.43 602.39
00000842 00000070 811.21 149.38 374.29 581.63 925.72 395.98 1109.99 391.82 1043.14 500.77 959.88 606.47 1105.22 603.65
00000843 00000071 811.23 149.61 374.29 580.80 925.84 395.90 1110.26 391.74 1043.42 500.81 960.06 606.38 1105.32 603.55
00000844 00000072 811.35 149.77 373.53 580.46 925.72 395.65 1110.15 391.74 1043.46 500.42 960.03 606.18 1105.41 603.53
00000845 00000073 810.28 151.53 374.14 580.51 925.28 396.05 1109.47 392.10 1043.40 500.63 959.71 606.41 1104.69 603.66
00000846 00000074 810.10 151.61 374.24 580.46 924.93 396.16 1109.08 392.44 1042.94 500.21 959.38 606.24 1104.11 603.75
00000847 00000075 810.40 151.63 374.32 580.33 924.88 396.36 1109.23 392.59 1042.89 500.49 959.27 606.40 1104.18 603.96
00000848 00000076 810.92 150.36 373.91 581.78 924.46 396.22 1108.54 392.31 1042.05 500.67 958.73 606.29 1103.45 603.82
00000849 00000077 810.85 150.25 373.80 581.58 924.88 396.11 1108.47 392.57 1042.41 500.55 959.15 605.84 1103.50 603.73
00000850 00000078 810.85 150.03 373.87 580.77 924.88 394.54 1109.74 391.64 1042.81 500.56 959.08 605.32 1103.82 603.54
00000851 00000079 810.47 150.13 373.81 580.88 924.69 394.60 1108.25 391.13 1042.33 500.18 959.13 604.88 1103.48 602.78
00000852 00000080 810.06 149.69 373.91 581.29 925.38 394.31 1108.10 391.26 1043.05 500.08 959.30 604.19 1103.63 602.47
00000853 00000081 810.35 148.68 374.13 582.16 925.73 393.13 1109.25 390.63 1043.77 499.66 958.85 603.96 1103.95 602.70
00000854 00000082 810.33 148.22 373.57 582.48 925.71 392.27 1108.74 390.17 1043.82 499.02 957.61 602.53 1103.40 601.74
00000855 00000083 809.57 147.79 374.21 583.22 925.85 392.04 1107.63 390.22 1043.35 498.56 958.11 602.04 1102.36 601.29
00000856 00000084 809.36 147.06 372.51 584.38 924.99 391.12 1107.46 389.63 1043.66 497.39 957.05 601.25 1102.45 600.82
00000857 00000085 805.73 146.54 375.03 585.64 923.69 390.47 1105.66 389.58 1042.72 496.96 956.25 601.00 1100.48 600.38
00000858 00000086 803.71 146.70 375.16 585.64 922.01 389.03 1104.94 388.87 1041.61 495.67 954.38 600.38 1099.69 600.25
00000859 00000087 803.61 146.50 374.97 586.17 922.08 388.47 1104.40 388.95 1040.92 494.91 954.12 599.68 1098.64 600.02
00000860 00000088 803.15 146.23 374.79 587.78 921.22 388.83 1103.26 388.57 1039.97 493.76 953.65 598.95 1099.07 598.67
00000861 00000089 803.09 146.72 374.30 587.24 920.21 389.00 1102.86 389.13 1038.33 493.10 951.99 597.87 1098.88 598.00
00000862 00000090 802.41 146.01 373.75 585.14 918.26 388.04 1102.76 389.00 1036.79 492.51 949.56 597.04 1097.87 597.77
00000863 00000091 801.52 145.69 374.65 587.01 917.75 387.41 1102.48 389.16 1036.05 491.83 948.27 596.40 1097.36 597.70
00000864 00000092 802.59 146.77 374.06 585.45 918.85 388.18 1102.69 390.14 1036.79 491.50 948.83 595.93 1097.34 597.62
00000865 00000093 803.75 146.94 373.31 585.55 919.93 388.23 1103.13 390.10 1037.57 491.89 949.67 596.20 1097.67 598.02
00000866 00000094 803.42 146.47 373.33 588.28 920.14 389.35 1103.38 391.27 1037.55 492.56 949.93 598.24 1097.31 600.01
00000867 00000095 802.81 146.26 374.07 592.31 919.27 391.06 1102.07 392.94 1036.52 494.77 949.45 600.00 1096.34 601.83
00000868 00000096 803.16 146.19 373.85 593.92 918.10 391.60 1101.47 392.24 1035.39 495.21 948.38 601.04 1096.73 602.05
00000869 00000097 805.42 146.35 372.75 593.87 919.53 393.65 1103.00 393.51 1036.40 496.64 950.27 603.00 1098.42 603.42
00000870 00000098 805.77 148.04 372.90 594.06 920.20 394.03 1105.06 393.95 1038.06 497.18 949.91 603.31 1100.51 603.94
00000871 00000099 808.92 147.49 371.35 594.79 921.32 393.67 1107.53 394.16 1038.08 495.41 949.32 603.01 1102.07 604.34
00000872 00000100 809.88 149.80 370.13 591.66 923.59 395.94 1103.77 396.79 1037.25 496.38 948.97 599.80 1100.34 601.87
00000873 00000101 805.62 152.07 373.42 590.19 915.44 397.55 1096.93 398.71 1022.82 494.01 938.08 599.74 1091.57 601.66
CROP_BBOX: 565 0 1576 958
