Video ID: 	1fUNhmTzBEA
H: 	2160
W: 	3840
FPS: 	59.94006309148265

FRAME INDEX X0 Y0 W H [Landmarks (5 Points)]

00000609 00000000 1691.03 235.24 427.13 589.94 1878.70 449.35 2047.70 490.92 1980.77 565.01 1855.56 647.67 1998.14 679.73
00000610 00000001 1691.06 230.69 427.36 593.29 1877.38 447.22 2048.28 485.61 1981.91 561.48 1857.43 645.89 2001.57 675.53
00000611 00000002 1692.69 226.26 428.07 596.03 1878.18 445.62 2050.50 482.82 1983.61 558.79 1862.22 644.56 2006.08 673.09
00000612 00000003 1694.01 224.89 429.02 594.63 1881.12 445.09 2053.61 479.39 1987.75 556.46 1867.93 643.94 2011.77 670.06
00000613 00000004 1695.41 221.76 430.04 596.74 1881.52 445.24 2055.98 477.02 1990.31 555.11 1872.03 644.06 2016.36 668.16
00000614 00000005 1695.18 220.08 432.29 599.01 1881.61 444.85 2057.62 475.65 1991.95 554.37 1873.18 643.49 2019.20 666.92
00000615 00000006 1695.18 218.42 433.31 601.55 1882.75 445.19 2059.20 476.03 1993.80 555.58 1874.86 644.98 2021.27 668.28
00000616 00000007 1696.13 217.37 435.19 603.99 1884.18 446.77 2060.77 476.31 1995.96 556.42 1878.71 648.07 2024.23 670.11
00000617 00000008 1698.71 217.17 435.94 607.71 1886.42 449.82 2064.68 477.24 2000.20 558.75 1881.44 651.00 2031.35 671.69
00000618 00000009 1699.94 217.25 437.44 611.04 1887.94 452.12 2067.20 479.03 2002.62 562.13 1883.81 653.86 2034.42 674.13
00000619 DELETE   1700.64 218.45 439.20 612.84 1889.75 455.81 2070.98 483.68 2004.60 567.19 1886.10 658.23 2036.64 678.86
00000620 00000011 1700.84 218.58 438.95 612.71 1889.73 455.77 2070.90 483.76 2004.42 567.03 1885.83 658.12 2036.55 678.85
00000621 DELETE   1699.69 222.58 445.15 612.09 1890.47 460.04 2074.79 488.43 2005.04 570.53 1892.45 665.48 2036.56 685.22
00000622 DELETE   1702.16 226.80 445.58 617.69 1893.34 467.16 2078.31 495.59 2010.14 579.62 1891.73 675.49 2042.87 695.58
00000623 DELETE   1701.84 230.12 449.69 620.65 1893.39 470.08 2081.29 497.72 2012.67 582.57 1892.60 681.32 2046.44 700.78
00000624 00000015 1699.22 231.39 453.98 624.01 1892.15 472.62 2081.27 500.66 2012.30 585.10 1891.92 685.88 2044.99 705.53
00000625 00000016 1699.06 234.24 453.06 625.32 1890.50 474.67 2080.50 501.09 2010.34 589.78 1887.03 689.16 2046.38 708.16
00000626 DELETE   1697.87 234.10 455.97 630.19 1890.13 477.55 2079.51 502.39 2009.94 591.75 1887.80 692.73 2046.86 710.51
00000627 00000018 1697.49 234.78 459.04 634.74 1891.52 479.99 2080.46 505.61 2011.62 592.82 1889.17 695.06 2048.05 713.37
00000628 00000019 1698.15 238.35 462.34 633.82 1891.95 481.92 2083.51 507.23 2013.91 595.24 1889.78 697.76 2051.51 715.87
00000629 00000020 1697.87 238.75 464.93 635.76 1891.96 482.85 2085.17 508.46 2014.97 595.62 1890.05 698.90 2053.53 717.35
00000630 00000021 1697.50 237.43 466.76 639.37 1892.58 483.70 2085.86 509.21 2015.96 596.48 1890.88 700.44 2054.39 718.81
00000631 00000022 1696.61 236.81 468.29 643.78 1892.50 484.95 2085.99 510.51 2016.30 598.46 1891.63 703.27 2053.77 721.69
00000632 00000023 1696.60 236.98 468.34 643.46 1892.52 484.94 2085.97 510.45 2016.27 598.46 1891.70 703.24 2053.78 721.60
00000633 00000024 1694.92 241.33 474.69 644.20 1891.94 488.26 2088.70 513.86 2017.04 600.71 1896.97 709.36 2053.41 727.21
00000634 00000025 1696.34 239.26 469.02 649.73 1890.72 489.26 2087.06 513.79 2017.65 604.08 1890.73 709.20 2055.45 727.29
00000635 00000026 1693.82 235.60 470.04 653.47 1889.53 488.28 2084.78 512.34 2014.96 603.51 1889.68 709.12 2052.62 726.76
00000636 00000027 1689.93 234.72 471.65 655.76 1886.37 487.92 2082.09 511.28 2011.48 603.53 1886.61 710.19 2050.02 727.18
00000637 00000028 1687.62 235.22 471.17 656.24 1884.23 487.78 2079.70 510.80 2009.15 604.35 1884.83 711.42 2047.39 727.97
00000638 00000029 1683.36 232.86 473.33 657.89 1881.57 486.83 2077.21 509.66 2005.75 604.12 1881.75 710.77 2044.62 727.06
00000639 00000030 1680.24 231.03 473.94 658.59 1878.11 483.25 2075.05 506.61 2001.32 602.72 1877.93 709.62 2040.73 726.33
00000640 00000031 1674.30 229.01 475.71 657.94 1873.38 478.04 2072.83 502.62 1997.49 599.56 1871.75 706.64 2036.74 724.36
00000641 00000032 1674.06 229.04 475.92 657.89 1873.36 478.09 2072.83 502.55 1997.58 599.54 1872.11 706.83 2036.74 724.40
00000642 00000033 1666.95 222.74 479.06 660.84 1866.92 471.46 2069.92 498.52 1992.76 596.99 1865.97 703.03 2031.22 722.20
00000643 00000034 1663.75 217.32 478.74 664.88 1865.95 466.59 2067.43 494.62 1994.10 593.58 1859.70 696.86 2033.76 717.32
00000644 00000035 1659.32 216.07 482.22 666.34 1863.54 462.86 2065.28 493.01 1992.29 590.49 1855.28 693.01 2030.41 715.34
00000645 00000036 1655.55 211.16 483.35 670.68 1861.85 458.45 2062.27 492.18 1991.45 585.41 1850.36 687.86 2024.14 713.23
00000646 00000037 1650.85 204.26 485.50 670.51 1857.97 452.33 2057.57 486.54 1989.96 577.38 1841.48 679.93 2016.18 706.35
00000647 00000038 1651.44 197.58 481.03 671.38 1855.31 446.31 2052.86 482.47 1987.70 570.71 1833.83 672.55 2008.62 701.31
00000648 DELETE   1651.08 191.44 479.05 672.97 1852.78 440.19 2051.23 474.90 1987.13 565.63 1823.70 665.57 2010.46 694.48
00000649 00000040 1650.91 187.61 478.40 673.74 1853.09 434.88 2051.86 470.48 1989.08 561.70 1820.13 659.07 2011.06 689.33
00000650 00000041 1649.08 176.30 483.02 684.50 1855.38 434.48 2051.56 469.86 1997.71 555.81 1817.27 650.21 2014.75 680.53
00000651 00000042 1648.62 172.81 483.53 682.51 1855.59 429.05 2051.99 464.66 1997.42 549.56 1816.55 645.53 2016.38 675.85
00000652 00000043 1649.06 167.35 484.99 682.33 1856.23 425.18 2052.31 457.57 1996.51 545.30 1819.74 641.75 2020.17 669.07
00000653 00000044 1650.94 162.23 488.37 682.99 1856.98 419.92 2055.80 449.29 1995.23 539.69 1825.24 640.20 2027.35 664.66
00000654 00000045 1653.30 159.18 490.25 682.69 1859.62 415.21 2060.02 442.48 1998.56 534.40 1831.97 638.18 2035.55 660.32
00000655 00000046 1655.17 156.83 492.39 683.62 1860.38 412.35 2062.67 439.50 1998.18 530.02 1834.08 636.98 2039.52 658.93
00000656 00000047 1655.61 154.02 492.22 683.31 1860.22 409.55 2063.59 435.63 1999.50 528.17 1834.08 633.75 2042.55 654.73
00000657 00000048 1656.64 151.52 492.94 682.64 1860.40 407.49 2067.28 432.92 2002.10 525.69 1835.28 631.68 2049.17 652.08
00000658 00000049 1658.87 146.98 494.39 685.18 1860.67 405.79 2070.96 431.18 2002.93 523.13 1837.91 630.20 2052.68 650.61
00000659 00000050 1661.53 143.33 495.89 688.61 1861.36 404.14 2075.97 429.58 2005.87 520.86 1840.14 630.37 2059.00 651.01
00000660 00000051 1664.65 141.52 496.22 690.41 1864.44 404.01 2079.37 428.85 2008.55 519.44 1844.39 630.64 2063.27 650.65
00000661 00000052 1668.99 140.58 497.33 692.59 1869.00 406.13 2083.98 430.01 2012.40 519.29 1850.16 631.17 2068.10 650.49
00000662 00000053 1673.14 140.71 496.66 695.41 1873.59 408.52 2088.59 431.96 2016.40 522.81 1855.42 633.51 2072.34 652.30
00000663 00000054 1676.92 144.61 495.88 695.28 1877.99 410.08 2092.40 432.74 2021.80 525.70 1859.47 635.70 2078.02 653.78
00000664 00000055 1679.00 145.70 496.60 695.21 1880.03 411.53 2095.31 433.66 2025.13 527.49 1862.91 638.04 2081.13 655.56
00000665 00000056 1681.53 145.84 495.49 696.23 1881.39 412.01 2096.82 434.82 2026.50 528.49 1862.98 638.44 2082.65 656.59
00000666 00000057 1682.94 146.26 495.63 695.89 1881.87 411.92 2098.33 435.26 2026.38 528.50 1862.89 638.12 2084.07 656.68
00000667 00000058 1683.41 146.55 495.73 695.93 1882.68 412.55 2099.53 436.52 2027.71 528.30 1862.54 638.00 2085.60 657.09
00000668 00000059 1685.29 148.02 495.23 696.95 1881.73 415.30 2099.31 438.92 2026.25 530.05 1861.87 639.48 2084.94 658.49
00000669 00000060 1684.70 149.29 498.03 697.40 1880.58 416.41 2100.33 440.45 2024.58 530.91 1860.06 640.96 2084.99 660.40
00000670 00000061 1685.15 149.71 498.20 697.51 1879.96 417.03 2100.15 441.45 2022.70 532.09 1859.01 641.60 2083.94 661.45
00000671 00000062 1685.39 149.62 498.68 697.71 1878.79 417.06 2099.38 440.65 2019.98 531.67 1857.26 641.19 2084.18 660.42
00000672 00000063 1685.92 148.92 497.94 697.33 1877.44 417.54 2097.71 440.28 2016.58 532.29 1855.38 640.17 2083.14 658.65
00000673 00000064 1685.11 148.30 497.22 697.96 1875.18 416.79 2095.86 439.73 2013.93 533.10 1852.12 640.09 2081.28 658.92
00000674 00000065 1683.49 148.79 496.81 698.92 1872.47 417.53 2092.07 440.95 2008.53 536.19 1849.22 640.38 2075.76 659.66
00000675 00000066 1681.89 149.20 496.65 698.98 1869.01 418.79 2087.90 441.30 2004.10 539.03 1846.86 641.05 2071.17 659.53
00000676 00000067 1680.07 151.07 497.77 699.03 1866.38 420.56 2085.13 442.47 2001.72 540.83 1845.54 643.05 2067.60 661.23
00000677 00000068 1678.76 151.89 498.19 700.41 1864.92 420.93 2084.55 443.81 2000.69 543.55 1842.90 644.97 2066.62 664.01
00000678 00000069 1677.17 153.63 498.38 699.80 1862.17 423.65 2081.68 446.81 1998.56 545.50 1838.58 645.89 2063.08 665.55
00000679 00000070 1674.15 154.43 498.71 699.71 1860.35 425.69 2078.44 449.65 1997.03 549.18 1833.77 645.69 2058.04 666.25
00000680 00000071 1671.54 154.98 498.18 702.44 1857.80 428.02 2074.27 450.37 1995.33 552.33 1829.71 648.04 2054.06 667.59
00000681 00000072 1669.97 152.93 497.48 706.96 1854.97 428.47 2070.25 449.96 1991.46 552.48 1826.79 648.12 2051.20 666.95
00000682 00000073 1669.13 152.31 497.24 707.60 1852.98 428.02 2067.96 448.72 1988.76 552.10 1824.87 647.91 2049.70 666.12
00000683 00000074 1667.31 152.58 498.85 707.88 1850.67 427.02 2066.27 447.76 1985.68 552.15 1823.71 647.67 2048.18 665.64
00000684 00000075 1665.77 152.80 497.99 709.37 1847.85 427.01 2063.89 447.33 1983.67 554.15 1820.69 648.83 2046.71 666.40
00000685 00000076 1664.56 152.95 495.60 711.62 1844.81 430.17 2059.38 449.33 1980.45 556.63 1816.35 649.89 2042.03 666.85
00000686 00000077 1663.32 153.08 495.19 714.23 1840.75 432.53 2055.68 450.46 1976.13 560.11 1814.21 651.26 2039.00 666.98
00000687 00000078 1662.92 153.57 493.18 715.41 1838.86 434.53 2054.80 453.63 1974.38 562.28 1811.45 653.26 2038.23 670.05
00000688 00000079 1662.67 154.45 493.69 719.08 1837.80 436.62 2053.26 456.19 1971.26 565.75 1810.29 656.47 2037.14 673.53
00000689 00000080 1660.77 155.07 494.53 719.95 1835.20 438.74 2052.44 458.44 1968.89 568.22 1808.94 658.85 2036.84 676.05
00000690 00000081 1656.86 156.55 497.06 719.85 1832.39 442.57 2051.88 462.21 1967.76 568.26 1807.10 661.72 2035.84 679.38
00000691 00000082 1654.19 160.23 499.55 718.99 1829.86 446.55 2051.83 466.42 1964.48 569.07 1805.03 664.48 2035.58 682.71
00000692 00000083 1653.95 164.71 499.86 717.86 1829.87 448.58 2052.07 469.11 1963.25 572.23 1804.12 667.31 2035.65 686.23
00000693 00000084 1653.43 175.89 497.55 701.90 1829.01 447.08 2051.70 466.73 1960.41 576.17 1802.77 670.46 2036.48 687.89
00000694 00000085 1650.56 177.72 503.60 706.67 1827.80 450.01 2051.67 470.15 1958.49 582.60 1802.50 675.31 2035.02 692.79
00000695 00000086 1649.64 180.80 505.27 709.06 1826.07 453.99 2050.44 473.71 1956.46 587.38 1801.21 680.79 2034.18 697.99
00000696 00000087 1646.74 183.79 508.64 711.20 1824.39 458.62 2049.12 478.06 1954.98 591.40 1800.79 686.19 2032.67 703.00
00000697 00000088 1644.48 184.05 510.39 715.41 1822.26 461.91 2048.83 482.46 1952.62 595.77 1800.27 689.64 2030.17 707.24
00000698 00000089 1643.76 186.22 511.37 715.80 1821.55 464.23 2048.17 485.39 1951.04 597.52 1798.93 692.09 2029.83 710.21
00000699 00000090 1644.16 188.52 510.68 716.75 1820.13 466.94 2048.30 488.39 1949.83 600.46 1798.21 695.10 2030.04 713.45
00000700 00000091 1642.31 191.08 511.44 717.09 1818.75 469.52 2046.99 490.50 1948.19 602.71 1797.51 697.07 2028.66 715.00
00000701 00000092 1641.24 193.23 510.62 718.11 1817.56 472.66 2045.62 493.81 1946.75 605.18 1796.56 700.31 2027.14 718.30
00000702 00000093 1639.94 198.40 512.96 715.01 1816.74 476.14 2046.67 498.00 1947.04 608.52 1796.85 703.52 2025.41 722.11
00000703 00000094 1642.47 201.73 513.83 714.91 1818.32 479.28 2049.06 500.66 1948.53 610.87 1799.52 706.45 2028.20 724.59
00000704 00000095 1646.10 205.14 513.24 712.81 1821.38 483.01 2050.93 504.29 1949.28 614.39 1802.40 708.45 2029.70 726.44
00000705 00000096 1647.47 206.19 513.90 715.75 1822.53 485.48 2052.68 507.37 1949.15 617.55 1803.48 710.39 2030.50 728.83
00000706 00000097 1648.47 209.38 512.64 718.27 1823.71 489.43 2051.22 510.57 1948.63 623.02 1804.26 712.91 2030.41 730.40
00000707 00000098 1649.80 210.98 512.62 723.57 1824.26 493.69 2051.64 514.57 1948.93 627.76 1806.22 717.46 2032.54 734.48
00000708 00000099 1652.68 212.83 511.83 728.26 1825.61 498.83 2053.67 519.18 1951.49 632.62 1808.55 723.71 2035.50 740.32
00000709 00000100 1657.89 214.41 509.12 728.78 1829.94 501.92 2056.90 523.34 1953.37 634.35 1812.75 726.56 2037.62 744.16
00000710 00000101 1660.66 214.40 509.04 727.77 1833.37 501.43 2061.07 524.18 1956.52 635.42 1816.02 726.30 2040.04 744.97
00000711 00000102 1664.41 212.96 506.93 727.52 1836.99 500.78 2063.93 523.63 1959.79 635.62 1819.83 725.79 2042.66 744.49
00000712 00000103 1667.67 214.39 504.54 725.23 1840.19 500.85 2066.19 524.53 1962.99 635.51 1822.98 726.20 2044.75 745.68
00000713 00000104 1669.24 214.00 503.65 724.41 1842.08 500.25 2067.84 524.84 1964.85 634.83 1824.71 725.80 2045.41 746.16
00000714 00000105 1669.92 215.87 502.98 721.62 1843.21 499.56 2068.37 524.07 1966.25 633.52 1826.34 725.35 2045.88 745.63
00000715 00000106 1670.08 216.02 503.24 719.99 1842.77 498.04 2068.63 522.73 1965.39 632.74 1825.47 723.55 2046.00 743.94
00000716 00000107 1670.03 214.47 504.13 721.05 1842.48 495.04 2067.60 518.32 1963.75 630.49 1826.35 722.38 2045.45 741.53
00000717 00000108 1669.50 214.44 505.14 717.99 1843.41 492.96 2069.72 517.21 1965.83 627.72 1826.45 720.77 2046.07 740.99
00000718 00000109 1670.32 213.25 505.85 715.26 1844.37 490.31 2070.83 513.42 1966.30 623.62 1829.74 719.52 2046.01 738.87
00000719 00000110 1672.67 212.23 505.35 712.52 1846.67 488.03 2072.37 510.21 1968.20 618.52 1833.29 717.30 2048.55 736.05
00000720 00000111 1675.07 212.18 504.14 708.90 1848.65 485.87 2074.11 507.25 1970.69 612.99 1836.67 715.86 2050.16 734.20
00000721 00000112 1676.23 208.99 503.48 705.36 1849.92 481.24 2075.41 502.65 1972.86 607.85 1837.38 711.80 2051.93 730.26
00000722 00000113 1675.26 205.04 503.93 702.07 1849.63 475.91 2076.38 497.49 1974.53 603.83 1835.88 707.53 2053.85 726.18
00000723 00000114 1675.35 201.18 503.90 697.87 1850.44 468.02 2078.56 490.19 1976.44 595.01 1835.53 701.28 2054.02 720.59
00000724 00000115 1675.44 195.57 503.54 693.42 1852.75 461.18 2079.32 482.45 1981.37 586.06 1837.50 693.52 2055.46 712.28
00000725 00000116 1677.47 190.56 501.63 688.92 1855.96 458.06 2080.46 478.21 1986.73 572.76 1841.91 684.92 2056.98 703.22
00000726 00000117 1679.82 184.08 500.35 693.10 1857.44 455.15 2078.45 473.58 1992.06 565.04 1843.70 678.38 2060.30 695.99
00000727 00000118 1681.70 178.00 498.93 692.47 1859.65 449.23 2079.82 468.41 1995.85 555.95 1844.74 671.48 2061.61 689.79
00000728 00000119 1683.78 172.84 496.67 692.63 1861.05 444.65 2079.36 462.84 1995.78 548.51 1846.26 665.07 2062.13 682.29
00000729 00000120 1685.55 168.82 496.34 692.46 1861.88 439.43 2079.96 457.93 1995.40 543.14 1848.67 659.93 2062.15 677.02
00000730 00000121 1686.64 164.22 497.58 693.87 1863.20 435.38 2082.67 452.67 1995.55 535.97 1852.80 655.94 2064.50 671.80
00000731 00000122 1686.19 161.43 499.31 693.07 1863.19 431.29 2083.38 446.90 1993.81 528.43 1855.12 653.18 2066.83 667.50
00000732 00000123 1686.29 159.64 499.44 690.26 1862.24 429.43 2083.23 443.74 1992.51 523.72 1856.46 651.34 2067.40 664.53
00000733 00000124 1686.31 159.71 499.92 688.60 1862.47 427.97 2083.96 441.43 1992.64 521.42 1858.42 651.03 2067.67 663.46
00000734 00000125 1687.68 157.84 499.84 688.47 1864.03 427.91 2085.43 440.29 1995.08 520.74 1861.28 649.50 2070.43 660.95
00000735 00000126 1689.15 158.11 499.19 686.88 1865.56 427.27 2086.94 438.02 1998.19 518.35 1864.87 648.99 2073.29 659.04
00000736 00000127 1690.50 158.02 498.97 684.17 1867.13 426.69 2088.30 436.85 2000.75 517.82 1868.10 648.46 2075.35 657.89
00000737 00000128 1691.09 157.86 499.06 681.87 1867.69 426.62 2089.26 436.57 2002.10 517.29 1869.45 647.36 2077.12 656.53
00000738 00000129 1691.41 157.69 499.21 681.59 1868.98 426.44 2089.70 435.74 2003.80 516.00 1871.45 646.59 2078.19 655.23
00000739 00000130 1691.56 156.61 499.90 680.98 1869.46 425.31 2090.72 434.54 2004.64 513.93 1872.94 645.88 2079.15 654.46
00000740 00000131 1693.97 154.47 499.56 680.62 1870.36 425.14 2092.66 433.35 2005.39 513.13 1875.11 644.73 2081.93 652.38
00000741 00000132 1697.20 151.02 499.96 689.33 1870.49 426.75 2091.23 430.00 2007.46 516.32 1872.21 647.16 2080.25 650.64
00000742 00000133 1697.39 150.17 500.63 689.25 1871.24 426.11 2091.66 428.55 2008.02 516.13 1874.02 647.27 2081.57 649.99
00000743 00000134 1696.95 149.97 499.79 688.48 1869.74 426.12 2091.06 428.51 2006.53 514.09 1872.20 645.71 2080.66 648.48
00000744 00000135 1696.12 148.33 499.27 688.94 1868.57 424.98 2090.09 427.85 2005.29 513.04 1870.85 644.54 2079.05 647.65
00000745 00000136 1696.10 145.84 498.86 690.41 1868.29 423.64 2089.29 425.54 2004.46 511.88 1870.63 643.97 2079.52 646.24
00000746 00000137 1696.27 144.61 498.98 690.96 1869.72 422.15 2090.68 425.21 2006.24 511.24 1871.27 642.83 2080.49 646.07
00000747 00000138 1697.18 144.86 499.63 690.59 1870.47 421.65 2091.47 424.69 2006.77 510.94 1872.43 643.06 2081.43 646.27
00000748 00000139 1697.86 144.37 499.43 691.89 1870.52 422.30 2092.07 425.38 2007.65 512.03 1871.85 643.50 2082.19 646.92
00000749 00000140 1697.67 147.05 500.23 691.44 1870.28 424.85 2092.01 426.67 2007.92 514.10 1873.58 646.14 2082.33 648.49
00000750 00000141 1698.72 148.79 500.40 692.32 1870.97 426.67 2092.85 428.59 2009.32 516.69 1874.65 648.77 2082.56 651.21
00000751 00000142 1698.91 150.06 501.65 693.05 1871.78 429.69 2094.01 431.85 2011.32 520.24 1876.07 649.72 2082.95 652.48
00000752 00000143 1699.20 149.92 501.59 693.52 1871.57 430.51 2093.96 432.07 2011.22 520.39 1875.88 649.86 2083.46 652.25
00000753 00000144 1698.66 151.45 500.31 692.27 1870.30 429.68 2092.28 430.69 2010.08 518.93 1875.48 650.68 2082.11 652.44
00000754 00000145 1697.48 149.38 500.21 691.13 1867.44 427.77 2090.18 428.98 2004.38 516.97 1873.24 647.88 2077.95 649.48
00000755 00000146 1695.72 149.00 499.85 689.82 1866.46 426.56 2089.36 427.00 2005.30 515.46 1870.92 647.51 2080.20 648.57
00000756 00000147 1697.25 143.69 498.71 692.22 1868.37 422.40 2090.38 424.64 2005.12 512.35 1870.34 643.91 2080.50 646.54
00000757 00000148 1697.84 143.30 498.72 691.05 1868.96 420.55 2090.77 422.68 2005.38 511.39 1871.18 642.72 2081.71 645.13
00000758 00000149 1697.71 140.99 498.95 692.32 1868.06 419.64 2090.07 421.72 2003.48 511.20 1870.17 641.66 2080.64 644.08
00000759 00000150 1696.50 139.97 498.77 693.96 1866.05 420.44 2088.73 421.92 2001.34 511.06 1868.12 641.82 2079.08 643.79
00000760 00000151 1691.89 140.03 500.05 690.12 1866.22 418.63 2091.28 424.18 2001.23 510.04 1872.33 640.42 2083.49 645.94
00000761 00000152 1692.21 144.10 500.07 689.20 1866.32 420.81 2089.96 426.06 2000.06 511.80 1873.31 642.54 2081.47 647.68
00000762 00000153 1690.13 147.49 500.52 691.06 1865.27 422.75 2087.81 429.08 1998.80 514.74 1871.49 645.12 2078.25 651.17
00000763 00000154 1689.90 150.59 499.65 691.23 1864.75 424.37 2086.36 431.00 1997.80 515.76 1870.70 647.99 2075.59 654.42
00000764 00000155 1688.55 151.02 500.36 695.98 1862.53 426.91 2084.14 433.76 1993.98 520.36 1866.30 649.45 2072.91 656.13
00000765 00000156 1689.21 153.64 497.42 696.52 1861.46 431.15 2081.02 437.31 1993.14 523.79 1864.25 651.84 2071.05 658.30
00000766 00000157 1688.18 157.15 497.12 694.90 1859.92 432.88 2078.32 438.10 1991.93 524.71 1862.83 654.63 2069.48 660.51
00000767 00000158 1687.51 158.69 496.45 694.76 1859.50 433.38 2076.90 439.51 1991.94 527.59 1861.85 655.90 2067.37 662.48
00000768 00000159 1686.29 158.04 497.18 695.77 1858.95 432.93 2076.99 439.98 1991.16 527.85 1859.82 655.75 2066.82 663.11
00000769 00000160 1686.39 156.72 496.55 696.69 1858.71 431.94 2076.59 439.51 1989.36 527.63 1859.08 654.65 2065.68 662.38
00000770 00000161 1686.14 154.32 496.94 698.24 1858.17 430.64 2076.85 438.33 1988.96 526.67 1858.77 653.75 2065.80 661.58
00000771 00000162 1685.58 152.04 497.63 700.01 1858.36 429.52 2077.72 438.10 1989.26 527.31 1857.72 653.00 2066.61 661.56
