Video ID: 	LnhYWO-hWhU
H: 	1080
W: 	1920
FPS: 	25.0

FRAME INDEX X0 Y0 W H [Landmarks (5 Points)]

00000287 00000000 676.10 167.22 362.03 532.10 797.49 389.43 938.56 422.38 869.39 497.87 785.11 558.02 901.38 586.41
00000288 DELETE   676.44 168.47 362.69 530.09 797.70 392.06 939.15 424.48 869.33 499.51 785.26 559.06 901.62 587.03
00000289 DELETE   676.91 171.35 361.87 525.30 796.20 394.45 939.66 426.57 868.82 499.06 783.75 558.72 903.53 586.62
00000290 00000003 677.10 173.67 362.55 523.08 797.25 395.19 940.42 427.58 869.77 500.29 783.48 558.76 903.96 587.11
00000291 DELETE   677.80 174.43 362.01 521.96 797.60 396.07 941.84 428.32 871.05 501.06 784.16 559.18 906.06 587.45
00000292 00000005 678.04 176.33 362.40 519.32 797.71 396.29 943.87 429.39 872.03 501.50 783.93 559.09 908.02 588.11
00000293 00000006 677.31 177.67 363.81 518.29 798.04 395.14 944.59 428.59 873.54 503.14 784.03 558.90 908.75 588.39
00000294 00000007 676.60 178.52 363.83 519.32 796.73 396.60 941.63 427.93 871.84 506.22 784.41 560.40 907.72 588.11
00000295 00000008 675.91 180.08 364.65 517.46 796.14 396.55 942.21 427.15 870.66 508.68 781.75 559.39 907.94 586.73
00000296 00000009 676.80 181.49 364.57 514.52 797.02 395.20 944.42 426.75 871.97 508.74 780.95 557.11 910.39 585.51
00000297 00000010 676.16 180.92 366.10 518.18 798.70 394.45 945.68 425.90 874.45 510.79 782.34 558.52 911.39 586.82
00000298 00000011 676.22 181.00 366.94 518.94 799.83 394.92 945.66 426.68 875.48 510.64 784.44 559.75 910.49 588.11
00000299 00000012 677.50 180.88 366.37 518.22 800.46 394.17 948.55 426.90 877.44 510.10 782.65 556.88 914.33 586.34
00000300 00000013 677.44 181.46 367.39 518.25 802.22 393.36 949.76 426.29 879.26 509.72 784.06 556.49 915.32 586.14
00000301 00000014 677.28 182.19 368.66 519.29 804.92 392.53 950.56 425.99 881.43 509.13 786.98 557.60 914.75 587.52
00000302 00000015 677.28 183.24 369.52 519.27 806.87 392.59 951.38 425.61 883.16 510.36 789.58 559.58 914.48 589.03
00000303 00000016 678.52 181.93 369.13 518.23 806.57 392.69 952.09 425.38 883.03 510.58 790.81 561.35 913.23 590.41
00000304 00000017 678.72 181.77 369.63 519.94 808.05 393.05 952.72 425.37 884.81 510.78 793.08 562.99 914.08 591.59
00000305 00000018 678.93 180.81 370.39 520.61 808.62 392.74 953.85 425.49 886.34 509.38 794.85 563.17 915.40 592.01
00000306 00000019 679.54 179.38 370.41 520.46 809.01 391.64 953.97 424.40 887.25 508.89 798.04 564.30 915.10 592.93
00000307 00000020 680.02 178.98 370.17 519.05 809.22 388.96 955.11 423.24 887.74 506.32 797.44 560.90 916.79 590.74
00000308 00000021 679.98 173.99 371.24 524.14 810.37 382.93 955.90 418.72 889.82 501.56 794.95 555.15 917.91 586.17
00000309 00000022 680.57 165.38 368.45 531.91 811.35 372.78 953.52 409.18 889.22 492.46 793.93 550.17 914.27 581.35
00000310 00000023 677.46 151.67 366.92 533.58 803.01 360.66 951.54 396.31 884.35 475.33 787.43 536.80 914.12 567.23
00000311 00000024 676.72 146.56 362.23 526.87 802.54 350.59 953.10 386.76 882.83 466.22 788.18 523.21 916.44 554.67
00000312 00000025 673.39 135.52 360.42 523.18 797.71 340.41 946.73 372.25 879.20 451.31 788.24 511.38 916.21 539.46
00000313 00000026 671.02 127.81 358.78 515.26 795.96 333.53 944.14 364.78 876.51 436.23 786.88 501.24 911.90 528.81
00000314 00000027 669.87 122.21 357.99 511.31 793.09 322.46 943.35 357.43 871.88 420.96 782.55 491.30 908.93 521.76
00000315 00000028 669.25 121.33 358.34 507.31 793.72 313.49 942.24 350.13 871.87 410.30 780.58 482.32 907.37 514.53
00000316 00000029 669.12 119.84 359.06 511.23 798.23 305.43 940.53 342.39 871.35 403.98 781.50 477.88 902.02 510.31
00000317 00000030 670.58 119.40 357.28 510.74 797.72 303.46 939.31 340.82 871.43 397.83 780.04 474.71 901.28 507.76
00000318 00000031 671.86 117.75 356.18 508.37 799.32 302.12 940.21 339.47 873.77 395.84 783.16 473.26 901.64 505.94
00000319 00000032 672.14 117.02 356.81 502.06 795.15 301.19 941.84 340.62 872.09 391.53 781.01 467.90 906.87 501.92
00000320 00000033 672.78 114.76 357.11 501.66 794.78 299.40 943.52 338.56 873.02 389.10 782.03 466.42 909.18 499.95
00000321 00000034 674.23 113.41 357.17 502.69 796.57 297.19 946.12 336.80 875.70 388.38 783.93 465.47 911.36 499.31
00000322 00000035 675.05 113.64 357.73 502.40 797.77 297.52 947.15 337.58 876.73 389.00 784.57 465.34 911.83 499.49
00000323 00000036 675.43 114.47 358.39 501.51 799.32 297.46 948.39 337.76 878.07 388.24 785.36 464.64 912.59 499.01
00000324 00000037 675.86 115.20 358.30 501.17 800.54 297.38 949.61 338.40 879.22 387.95 786.10 464.41 913.41 499.38
00000325 00000038 675.67 116.38 358.38 498.66 800.46 296.67 950.10 338.81 878.76 386.97 785.42 463.42 912.61 499.33
00000326 00000039 675.07 117.76 358.89 496.71 801.75 294.84 950.38 336.82 878.99 385.78 785.79 462.98 910.33 498.65
00000327 00000040 675.22 116.79 359.01 497.19 803.80 292.44 949.97 334.46 878.56 385.88 787.46 463.33 906.88 498.83
00000328 00000041 674.36 116.22 359.63 495.69 802.44 291.62 949.29 332.90 877.46 385.61 787.93 463.68 904.93 498.33
00000329 00000042 674.50 116.45 359.10 495.18 801.87 291.02 948.94 331.77 876.84 385.26 787.63 463.51 904.37 497.82
00000330 00000043 674.81 116.38 359.42 496.03 802.36 291.71 949.53 332.43 877.54 386.61 787.88 464.58 904.84 498.87
00000331 00000044 675.04 115.98 359.72 497.53 802.64 292.60 950.23 332.69 878.15 387.26 788.08 466.02 905.51 499.92
00000332 00000045 675.22 117.09 359.06 496.45 801.59 294.39 949.52 333.76 877.53 387.27 787.65 466.40 906.70 499.88
00000333 00000046 675.05 119.25 359.22 495.94 801.36 297.72 948.96 336.82 877.24 389.40 787.09 468.07 907.56 501.51
00000334 00000047 675.46 121.54 358.85 495.25 801.11 300.35 949.25 340.32 877.19 392.14 785.96 469.60 907.93 503.88
00000335 00000048 675.98 120.01 359.14 497.09 800.75 302.23 949.86 342.83 877.47 395.26 786.03 471.18 909.54 505.96
00000336 00000049 674.62 121.88 361.26 496.89 801.10 303.87 950.58 345.01 877.89 399.59 784.45 472.86 909.55 508.32
00000337 00000050 674.52 121.64 361.90 498.72 801.45 305.12 951.08 346.26 878.58 403.50 784.82 475.08 909.98 510.62
00000338 00000051 674.03 122.76 362.40 499.85 800.99 307.50 950.78 348.18 878.03 405.24 784.57 477.10 909.88 512.37
00000339 00000052 673.63 122.89 362.71 501.26 801.29 308.95 950.08 350.30 877.75 407.03 784.18 477.48 909.49 513.35
00000340 00000053 673.52 122.75 362.99 501.33 800.45 310.69 949.37 352.77 876.58 408.13 783.07 477.49 909.36 514.01
00000341 00000054 673.89 122.20 362.11 502.80 800.53 311.63 949.33 354.87 876.37 408.36 782.36 477.55 909.29 514.99
00000342 00000055 673.72 122.40 362.22 502.63 800.44 311.52 949.61 355.18 876.13 408.60 781.60 477.62 908.85 515.45
00000343 00000056 673.82 122.97 361.70 502.68 800.63 311.75 949.82 355.50 876.60 408.32 781.55 477.78 909.13 515.75
00000344 00000057 674.44 123.21 361.12 505.22 801.12 312.00 949.95 354.96 877.47 408.68 782.22 479.25 909.86 516.66
00000345 00000058 674.34 122.73 361.34 508.31 801.40 311.79 949.73 354.16 877.73 408.87 782.05 479.17 910.42 516.20
00000346 00000059 674.73 122.75 361.00 509.23 802.59 310.95 949.43 353.40 877.83 408.40 781.85 479.19 908.55 516.46
00000347 00000060 674.32 123.13 361.04 509.28 802.43 309.34 948.93 351.88 876.97 406.32 780.70 477.51 908.34 514.97
00000348 00000061 674.79 123.36 359.55 508.66 802.22 308.14 947.83 350.61 876.06 403.96 780.10 476.11 907.14 513.64
00000349 00000062 674.87 122.43 358.47 509.67 801.16 307.39 946.46 349.55 874.80 402.16 779.37 475.66 905.95 512.96
00000350 00000063 674.20 123.24 357.77 508.16 800.27 306.90 944.83 349.20 873.66 400.81 779.17 474.97 904.84 512.34
00000351 00000064 673.27 123.50 357.89 507.36 799.67 306.54 944.84 348.58 874.12 400.10 779.02 475.08 904.68 512.26
00000352 00000065 672.19 123.72 357.97 506.07 799.01 305.60 943.68 347.71 872.59 399.52 778.12 474.06 903.25 511.31
00000353 00000066 672.03 123.15 357.59 505.96 798.73 304.47 942.09 346.81 871.03 399.64 777.86 473.43 901.18 510.74
00000354 00000067 672.06 123.10 357.11 505.66 798.85 304.58 941.72 346.38 871.03 400.05 778.38 473.98 900.47 510.76
00000355 00000068 671.71 123.45 357.15 506.47 799.07 304.78 942.42 346.37 871.90 401.52 778.61 475.25 901.10 511.96
00000356 00000069 671.63 122.74 357.05 507.89 799.04 304.95 942.22 346.44 871.74 403.41 778.65 476.06 900.97 512.65
00000357 00000070 671.73 121.89 356.57 509.96 797.84 306.09 941.64 347.29 870.11 404.57 778.06 477.41 900.61 513.66
00000358 00000071 671.43 121.46 356.49 510.79 797.13 307.26 941.14 347.33 869.61 405.68 778.43 479.04 900.48 514.34
00000359 00000072 671.37 121.48 356.70 511.22 796.32 308.68 941.47 348.07 869.38 406.74 778.68 480.70 901.06 515.41
00000360 00000073 671.08 121.59 356.81 511.52 796.24 309.51 941.12 347.87 869.07 408.54 779.17 482.39 900.85 516.31
00000361 00000074 670.86 121.13 357.17 513.15 796.10 311.36 940.90 348.42 868.78 410.81 779.84 484.59 900.65 517.32
00000362 00000075 670.84 121.80 357.07 515.23 796.67 314.55 941.00 349.16 868.91 414.61 781.20 488.94 899.91 519.60
00000363 00000076 669.91 120.29 356.75 519.15 796.19 317.65 939.77 351.62 868.40 418.17 782.17 493.02 899.00 522.90
00000364 00000077 668.91 121.62 356.22 517.79 795.61 321.24 939.02 354.34 867.89 420.61 783.70 497.21 897.51 526.28
00000365 00000078 669.20 122.69 354.85 516.03 795.74 324.57 938.17 356.62 868.37 425.43 785.35 501.56 895.57 529.76
00000366 00000079 667.86 124.59 358.53 516.20 795.63 331.11 939.24 363.65 868.85 428.17 785.32 501.16 899.12 529.67
00000367 00000080 670.03 125.52 358.14 514.96 797.58 336.82 941.87 371.17 872.24 431.80 786.71 501.96 902.08 531.94
00000368 00000081 670.32 126.82 359.32 515.61 797.89 337.87 944.93 371.84 875.25 434.70 787.22 503.92 905.13 533.72
00000369 00000082 672.08 127.35 359.30 521.46 800.00 338.38 945.12 371.56 877.31 437.35 788.56 508.35 905.58 537.66
00000370 00000083 673.93 128.80 359.23 528.55 803.69 338.81 946.17 374.12 880.19 440.70 789.94 511.63 906.35 542.65
00000371 00000084 674.94 131.04 361.11 528.24 804.30 340.33 948.80 376.88 882.66 444.45 790.07 512.11 909.59 544.23
00000372 00000085 674.59 132.63 362.65 525.99 803.49 340.74 949.39 376.21 882.76 447.54 791.68 513.74 910.92 544.93
00000373 00000086 675.77 131.64 362.27 526.86 805.11 341.15 949.51 376.39 884.28 450.76 794.24 514.71 911.67 545.60
00000374 00000087 676.99 130.88 362.86 528.51 805.30 341.90 950.29 376.84 885.16 453.30 796.30 516.41 913.20 547.02
00000375 00000088 677.62 133.09 364.27 527.98 806.08 343.89 951.31 378.61 885.82 456.28 798.70 520.30 912.69 550.72
00000376 00000089 678.68 135.75 364.98 528.20 808.33 345.52 953.01 381.39 888.01 458.80 800.13 521.65 913.93 552.92
00000377 00000090 679.85 138.28 366.26 527.53 810.25 346.03 956.67 385.98 888.80 460.48 797.68 520.15 915.00 554.74
00000378 00000091 679.90 134.76 367.79 532.31 812.23 346.20 960.14 384.97 886.42 460.12 794.45 521.68 912.15 555.07
00000379 00000092 680.63 136.27 368.48 534.80 814.12 348.62 959.23 387.57 888.07 462.38 798.92 526.48 910.09 559.91
00000380 00000093 681.79 138.22 369.02 536.60 815.58 351.61 960.93 391.17 889.47 465.09 799.02 530.12 910.78 564.00
00000381 00000094 682.79 142.15 367.84 531.88 817.45 354.85 961.79 395.61 889.95 468.11 799.37 530.86 910.40 565.73
00000382 00000095 682.67 143.03 367.63 531.82 817.92 356.21 961.54 397.41 890.31 469.79 800.14 531.78 910.21 567.06
00000383 00000096 682.03 144.42 367.53 530.83 818.57 355.12 960.81 396.18 889.82 470.41 799.67 531.77 907.51 567.00
00000384 00000097 679.67 142.29 367.66 532.80 815.20 351.73 959.88 393.14 887.82 468.81 796.54 532.38 903.38 567.93
00000385 00000098 677.87 141.40 367.88 533.72 810.38 351.50 957.04 391.61 884.66 467.80 794.16 532.94 902.29 567.39
00000386 00000099 676.17 141.25 367.68 533.80 805.84 352.99 954.46 390.24 881.49 468.84 792.27 534.79 901.37 566.92
00000387 00000100 671.30 148.51 366.98 529.14 799.68 359.78 947.13 394.72 878.03 475.74 792.12 541.30 903.27 571.91
00000388 00000101 669.42 151.10 365.33 529.40 795.77 361.47 943.55 397.02 873.40 478.52 787.54 543.37 900.27 574.62
00000389 00000102 668.22 151.52 364.53 531.44 793.06 363.42 941.00 398.86 870.77 480.04 784.65 543.55 899.45 574.73
00000390 00000103 666.82 151.95 366.63 536.20 792.52 363.92 942.02 400.96 870.81 481.75 781.42 543.49 901.30 575.94
00000391 00000104 666.37 151.72 367.31 540.03 792.99 363.43 943.15 402.36 871.12 481.32 778.89 542.80 902.48 576.76
00000392 00000105 667.24 151.07 366.54 539.76 793.59 361.16 944.90 401.60 870.98 479.10 776.69 539.62 903.32 574.77
00000393 00000106 667.02 152.12 366.24 535.45 793.35 359.77 945.64 401.22 870.65 477.86 775.45 537.24 902.58 573.21
00000394 00000107 667.37 152.98 365.36 530.09 792.34 361.41 944.67 402.21 869.50 477.28 775.40 534.64 903.55 569.93
00000395 00000108 668.49 153.31 363.43 525.08 791.90 362.95 942.53 402.05 868.12 476.66 776.28 532.41 902.73 566.19
00000396 00000109 669.15 154.34 361.90 522.86 791.38 364.44 941.97 403.45 866.63 477.25 775.71 531.51 904.25 565.11
00000397 00000110 668.46 156.24 361.24 521.56 789.95 366.87 940.81 405.84 864.56 478.17 774.39 531.68 904.51 565.15
00000398 00000111 668.45 156.15 361.01 523.39 789.43 367.43 939.58 406.32 863.69 479.17 774.49 532.94 903.79 566.31
00000399 00000112 668.28 155.41 361.40 526.41 788.94 367.28 937.75 405.02 863.70 478.70 775.48 534.80 902.01 567.36
00000400 00000113 666.96 154.66 361.10 528.33 786.83 365.71 936.19 401.75 861.77 476.64 773.66 535.21 899.93 566.68
00000401 00000114 665.76 152.86 360.72 530.84 783.08 363.20 934.00 398.49 857.07 475.81 770.10 535.73 896.91 566.84
00000402 00000115 660.64 152.35 361.69 527.39 776.86 360.33 929.62 393.52 850.04 472.29 766.67 535.37 892.28 564.98
00000403 00000116 656.26 147.68 360.15 525.62 770.22 358.12 922.15 389.39 841.40 469.72 763.15 534.09 884.20 561.77
00000404 00000117 650.87 142.46 359.15 521.70 765.99 354.36 915.00 384.79 835.57 466.24 761.63 530.99 876.64 557.82
00000405 00000118 648.79 139.46 355.84 521.75 760.22 353.47 909.24 381.88 829.15 463.48 756.84 528.97 872.25 554.05
00000406 00000119 645.54 135.04 356.07 527.38 754.19 352.70 903.27 380.32 822.23 463.96 751.65 529.50 866.47 554.02
00000407 00000120 640.17 135.20 356.29 529.11 746.63 353.65 895.58 379.47 814.94 461.44 748.34 530.41 862.22 553.38
00000408 00000121 633.79 134.12 360.35 531.84 738.83 355.28 888.88 379.55 807.41 459.43 743.85 532.62 857.88 553.95
00000409 00000122 631.35 137.14 360.18 529.95 735.39 359.03 886.09 382.60 804.50 462.08 740.93 533.81 856.67 554.32
00000410 00000123 628.81 141.16 359.03 528.63 731.84 361.30 881.41 383.71 802.34 465.08 738.61 534.91 855.31 554.21
00000411 00000124 628.07 143.80 358.26 527.43 728.74 364.49 878.55 386.60 799.00 468.90 735.79 535.49 854.83 554.52
00000412 00000125 627.34 145.13 357.42 526.68 726.01 367.44 876.71 387.77 796.50 469.76 733.48 536.68 854.48 554.20
00000413 00000126 628.87 146.72 351.31 528.35 721.79 371.89 870.72 380.77 795.22 469.21 728.45 539.43 859.80 546.90
00000414 00000127 627.42 147.07 351.66 529.42 722.52 373.01 870.46 382.02 795.76 470.65 728.23 539.72 860.18 547.25
00000415 00000128 626.44 148.44 351.86 528.14 721.90 373.79 869.85 382.74 794.91 471.69 726.84 540.04 859.89 547.49
00000416 00000129 625.51 149.13 351.94 530.28 721.27 373.62 869.88 383.00 794.80 472.72 724.42 540.48 859.81 548.25
00000417 00000130 622.45 147.56 358.70 536.34 720.61 373.12 874.06 391.97 793.53 475.62 727.91 540.83 856.69 557.19
00000418 00000131 618.67 149.70 359.58 539.43 712.33 375.74 865.82 381.71 788.20 482.18 730.28 554.79 854.45 561.29
00000419 00000132 617.41 150.67 360.05 537.82 710.77 376.95 864.11 382.33 786.80 484.57 729.93 555.93 854.43 561.75
00000420 00000133 620.19 150.30 356.02 536.97 712.43 382.90 860.73 389.76 789.00 486.61 728.23 551.49 851.51 557.29
00000421 00000134 618.79 151.62 355.91 534.31 711.02 382.84 859.26 390.17 787.08 487.51 726.65 550.73 849.90 556.94
00000422 00000135 617.43 151.89 356.46 532.23 709.89 383.18 858.92 390.62 786.14 488.13 725.07 549.72 849.47 556.06
00000423 00000136 616.32 154.92 355.57 528.28 708.63 384.14 856.67 390.94 784.73 489.26 724.24 549.40 847.93 555.27
00000424 00000137 614.95 156.38 354.46 526.61 706.91 385.01 855.49 392.13 782.94 489.67 722.07 548.97 847.40 555.06
00000425 00000138 614.16 157.53 354.10 525.35 705.78 385.40 854.40 392.34 781.60 490.09 721.14 548.86 847.05 554.79
00000426 00000139 613.46 158.47 354.02 525.25 705.16 385.01 852.94 391.82 780.78 490.18 720.40 548.80 845.89 554.70
00000427 00000140 612.35 158.56 354.30 525.64 704.31 384.76 851.94 391.50 779.65 489.91 720.02 549.25 845.14 555.13
00000428 00000141 612.10 159.04 353.73 525.34 703.89 384.98 851.44 391.83 779.09 490.44 719.27 548.91 844.87 554.83
00000429 00000142 611.62 159.82 353.63 523.13 702.84 385.43 850.46 391.58 778.05 490.66 718.86 548.47 844.83 553.75
00000430 00000143 609.80 162.20 353.61 519.53 702.29 387.41 849.20 391.59 778.34 492.67 719.92 549.67 844.47 553.35
00000431 00000144 608.28 159.19 358.69 524.43 698.10 387.32 845.89 387.79 781.55 494.14 720.50 557.09 848.61 558.27
00000432 00000145 600.84 163.81 364.17 532.92 693.07 399.51 841.98 393.32 778.41 500.31 720.75 569.41 851.19 565.00
00000433 DELETE   596.34 184.48 360.13 528.71 693.63 412.06 837.37 404.94 775.52 518.12 722.57 584.86 843.69 580.06
00000434 DELETE   588.80 192.86 358.75 522.70 681.05 421.84 829.39 414.06 762.35 529.90 716.53 595.89 837.92 590.18
00000435 00000148 578.28 196.17 362.31 519.40 669.74 429.52 819.94 420.35 749.87 536.32 707.15 599.31 831.40 591.90
00000436 00000149 565.20 202.68 366.97 517.68 661.01 433.76 808.27 424.40 737.98 539.84 703.98 601.45 822.76 593.61
00000437 DELETE   554.93 196.64 369.85 528.48 641.22 443.77 790.81 426.04 727.75 547.93 692.10 610.98 816.58 594.75
00000438 00000151 547.36 195.73 371.88 533.58 637.30 454.21 785.84 433.08 723.75 558.51 689.77 620.16 813.95 601.27
00000439 00000152 543.47 206.34 370.93 529.78 634.20 461.58 784.44 440.81 721.94 568.74 685.16 628.11 811.88 609.75
00000440 00000153 542.04 213.01 368.80 535.17 635.49 465.67 785.02 446.51 723.31 574.28 685.57 632.83 815.15 615.51
00000441 00000154 534.75 228.24 376.64 528.47 637.70 473.92 786.26 449.39 723.65 576.26 689.65 638.92 808.09 617.59
00000442 00000155 539.73 215.55 369.23 531.26 632.91 470.53 784.36 449.57 722.51 579.56 683.29 635.20 816.16 616.83
00000443 00000156 539.83 217.95 369.55 523.13 631.56 471.67 785.39 450.12 721.28 579.97 679.34 632.57 815.89 614.08
00000444 00000157 542.89 218.39 367.72 522.73 634.11 468.80 786.60 448.95 722.04 577.50 680.98 630.14 815.65 612.80
00000445 00000158 545.32 220.15 367.77 523.77 637.34 468.22 788.61 448.72 724.79 575.72 682.89 628.06 818.27 610.72
00000446 00000159 546.78 220.72 367.97 523.37 639.18 468.51 789.91 448.73 726.82 576.40 684.49 627.88 819.94 610.25
00000447 00000160 547.19 220.46 368.87 520.93 639.86 469.23 790.57 447.99 728.08 576.43 684.70 626.49 821.34 607.68
00000448 00000161 546.88 221.52 369.71 515.66 640.40 469.56 790.65 447.00 729.08 577.11 683.84 623.68 822.02 603.93
00000449 00000162 546.30 221.47 370.14 513.06 640.60 469.92 790.23 446.53 728.49 575.81 680.68 620.16 821.08 599.78
00000450 00000163 545.52 221.92 370.02 512.70 640.43 469.29 790.26 446.00 728.17 574.33 678.84 617.54 820.86 597.14
00000451 00000164 546.13 224.66 369.39 510.09 640.82 468.40 790.59 445.78 727.44 572.38 676.42 613.68 820.71 593.67
00000452 00000165 544.79 225.15 371.04 509.92 640.22 468.44 790.20 445.64 726.22 570.69 673.14 610.61 820.44 590.40
00000453 00000166 543.44 227.10 372.19 507.24 639.39 469.24 790.19 446.13 725.23 570.70 670.58 608.62 820.27 588.21
CROP_BBOX: 371 0 1272 885
