Video ID: 	xym5KUJrvsY
H: 	1080
W: 	1920
FPS: 	25.0

FRAME INDEX X0 Y0 W H [Landmarks (5 Points)]

00027325 00000000 590.36 139.64 405.58 673.08 718.03 420.41 902.66 444.53 814.58 561.17 711.03 630.51 875.02 650.88
00027326 00000001 599.01 140.22 403.26 656.47 721.45 414.59 907.71 440.92 814.11 556.64 712.18 623.88 876.20 645.86
00027327 00000002 601.23 133.43 405.16 655.12 726.41 408.21 911.18 436.93 818.11 553.65 715.00 617.18 877.17 640.99
00027328 00000003 602.09 130.77 404.65 647.47 727.51 404.97 914.05 431.93 822.35 548.28 716.38 614.63 878.70 636.85
00027329 00000004 603.13 130.71 404.65 653.09 727.79 403.90 913.97 432.82 820.13 547.89 712.76 612.76 877.58 636.55
00027330 00000005 606.02 128.79 400.76 654.76 725.92 404.57 912.36 437.41 813.11 549.80 708.59 611.77 875.11 638.44
00027331 00000006 606.68 132.58 401.72 648.63 724.98 406.88 911.14 442.99 807.87 551.17 706.37 613.73 867.19 643.23
00027332 00000007 608.72 135.19 401.28 641.53 724.73 410.25 912.50 449.04 805.21 554.26 704.41 614.76 864.42 646.35
00027333 00000008 607.80 136.76 405.44 641.79 724.91 412.20 915.74 449.31 809.22 555.02 707.80 620.37 868.54 650.64
00027334 DELETE   610.33 133.81 403.82 640.04 726.27 412.96 917.06 446.70 813.29 555.07 714.75 621.02 872.57 648.45
00027335 DELETE   609.88 133.23 403.83 641.52 727.58 411.66 922.61 442.32 820.20 553.58 717.37 621.07 880.82 645.79
00027336 00000011 614.41 138.03 404.97 632.06 729.26 417.72 914.99 441.75 813.33 560.84 722.45 618.70 874.75 638.68
00027337 00000012 615.21 137.83 402.45 631.23 727.68 418.84 912.81 440.95 812.55 563.52 726.50 619.96 877.30 638.01
00027338 00000013 610.49 131.85 399.00 636.89 727.32 416.54 916.59 441.44 822.01 555.37 726.50 620.52 882.77 640.54
00027339 00000014 612.68 123.76 397.82 662.05 726.42 420.97 916.33 443.78 821.84 556.99 725.63 622.06 891.36 639.39
00027340 00000015 612.76 130.54 395.20 655.30 733.37 417.96 921.12 438.32 833.26 548.67 727.67 610.84 899.97 626.31
00027341 00000016 611.43 131.45 396.71 641.81 737.73 402.76 920.60 414.01 842.71 539.94 736.39 602.70 906.99 611.72
00027342 00000017 613.33 131.91 394.43 628.36 743.37 400.96 930.77 410.55 851.64 534.47 744.44 594.98 908.30 602.54
00027343 00000018 611.95 130.72 393.67 625.73 745.48 399.59 930.30 409.24 851.62 537.09 745.81 592.25 906.72 600.20
00027344 00000019 606.02 130.64 396.07 636.85 749.31 401.72 921.93 415.14 855.57 542.66 744.09 598.19 903.73 609.52
00027345 00000020 606.75 131.96 398.15 636.46 742.05 409.29 925.21 415.98 848.95 546.99 745.16 605.40 904.09 610.22
00027346 00000021 604.38 126.29 396.45 630.15 738.02 405.30 920.29 412.43 845.26 538.94 743.50 597.59 898.97 603.49
00027347 00000022 598.03 128.44 401.10 602.75 732.56 393.09 922.85 402.21 845.75 535.94 746.63 603.28 898.04 610.31
00027348 00000023 600.79 121.42 393.69 606.26 734.39 385.53 922.89 397.76 845.13 516.25 743.52 590.08 889.78 601.88
00027349 00000024 601.74 120.12 394.10 607.95 736.71 382.27 923.07 393.91 849.70 514.15 743.56 584.15 895.63 594.96
00027350 00000025 604.46 115.95 396.84 612.36 744.14 382.20 931.40 390.60 861.10 512.84 752.51 587.91 903.54 595.69
00027351 00000026 608.61 116.75 394.24 613.09 748.59 385.95 935.88 392.13 868.22 517.23 759.24 591.92 909.67 597.69
00027352 00000027 606.79 122.24 396.32 621.41 749.24 396.31 938.89 399.85 868.62 527.90 760.85 600.11 913.46 603.50
00027353 00000028 609.12 125.08 393.51 614.66 745.89 402.12 936.34 404.49 863.53 533.33 758.89 603.48 910.45 606.13
00027354 00000029 601.49 123.91 396.97 620.77 741.55 395.35 928.55 402.26 855.82 527.09 749.92 599.05 899.37 605.92
00027355 00000030 599.72 121.68 394.86 622.13 736.08 387.13 924.52 397.41 851.05 521.21 743.12 593.95 896.67 603.51
00027356 00000031 601.14 117.93 395.28 620.21 736.30 385.92 923.63 395.42 850.82 517.90 747.71 592.04 899.87 600.76
00027357 00000032 608.93 119.99 389.39 598.74 744.65 388.28 930.86 393.59 858.92 520.94 765.62 599.44 903.97 604.24
00027358 00000033 614.06 127.67 386.70 581.18 748.41 395.32 935.00 395.49 865.61 525.42 778.01 610.43 909.72 610.89
00027359 00000034 614.93 122.74 387.96 605.85 751.05 403.57 938.19 401.63 867.26 536.52 780.24 616.99 914.80 615.57
00027360 00000035 615.57 123.50 386.00 610.41 748.91 405.22 936.22 402.79 864.84 540.38 775.82 617.57 913.09 616.04
00027361 00000036 605.85 125.31 392.91 601.61 746.52 393.73 930.63 397.66 860.18 524.46 763.37 598.40 903.32 603.02
00027362 00000037 603.39 121.45 392.74 600.54 745.02 385.42 928.89 389.91 860.74 518.46 761.72 593.74 901.65 598.87
00027363 00000038 601.48 114.82 398.26 612.68 745.87 382.39 928.90 386.43 860.86 514.10 762.45 590.74 905.18 594.74
00027364 00000039 605.17 114.63 396.48 606.15 750.23 381.16 934.95 384.45 869.11 511.68 770.93 592.58 911.39 595.59
00027365 00000040 607.61 113.12 395.69 609.53 753.61 384.13 939.41 387.29 872.80 518.12 772.41 597.03 913.91 599.74
00027366 00000041 606.84 116.30 395.56 617.51 748.51 390.72 936.79 391.82 869.16 524.34 769.58 602.92 913.95 603.91
00027367 00000042 604.85 120.82 394.25 610.47 744.61 390.39 931.57 393.58 862.46 522.69 763.10 599.37 906.59 602.82
00027368 00000043 603.87 115.37 393.97 614.01 741.77 385.98 927.36 390.34 857.01 517.34 756.34 591.20 904.12 595.47
00027369 00000044 604.68 113.91 396.85 612.29 741.97 381.72 928.78 387.77 858.04 512.11 754.84 583.96 908.42 589.41
00027370 00000045 604.98 110.07 399.55 619.49 743.93 382.02 931.50 387.87 861.26 513.11 754.93 582.24 912.92 587.26
00027371 00000046 607.86 111.84 398.39 616.10 749.32 383.72 935.67 389.37 866.69 515.95 759.92 582.25 917.03 586.79
00027372 00000047 609.93 110.84 397.88 616.52 754.21 388.02 940.88 391.22 872.22 521.14 765.36 586.88 920.60 589.48
00027373 00000048 609.51 115.57 397.50 611.56 752.89 395.47 943.48 394.51 874.64 525.83 768.81 593.22 923.53 592.55
00027374 00000049 609.04 119.06 397.45 609.95 750.58 398.74 940.24 394.72 871.28 526.98 770.05 595.39 923.01 592.10
00027375 00000050 609.49 118.98 394.09 607.56 748.58 394.05 934.67 392.51 867.09 523.07 765.91 589.88 919.36 588.87
00027376 00000051 608.81 116.17 392.56 608.72 745.82 389.83 932.33 389.89 863.93 520.00 760.65 586.80 915.66 587.30
00027377 00000052 607.17 116.15 393.02 609.22 743.13 385.55 929.36 388.61 860.37 516.03 754.48 581.88 912.34 585.02
00027378 00000053 606.35 115.67 392.92 610.05 743.41 383.85 929.08 388.65 860.23 514.43 751.32 578.88 911.44 583.42
00027379 00000054 606.58 114.53 392.59 611.51 743.51 382.46 929.39 388.44 859.95 512.93 750.05 577.27 911.00 582.75
00027380 00000055 605.11 115.51 394.31 614.63 743.97 380.88 928.45 387.06 860.77 511.73 750.63 576.40 911.89 581.94
00027381 00000056 604.28 110.23 395.95 626.00 744.00 380.84 928.17 386.03 861.67 508.91 751.61 575.32 915.28 579.61
00027382 00000057 602.78 109.52 399.75 633.30 748.22 379.16 930.37 383.15 868.08 505.94 755.79 573.74 920.35 576.85
00027383 00000058 604.32 107.46 396.41 630.49 751.81 375.11 932.10 377.99 873.14 497.56 764.02 571.50 926.02 573.15
00027384 00000059 602.99 105.63 394.66 623.01 750.24 370.16 932.10 373.14 873.49 489.05 765.50 568.12 927.56 570.08
00027385 00000060 600.65 105.10 394.84 618.67 747.12 367.49 928.05 369.68 869.75 486.85 762.48 565.13 925.98 566.57
00027386 00000061 597.97 107.36 396.36 615.76 741.10 365.94 922.08 369.74 861.37 483.88 756.75 564.24 919.02 567.38
00027387 00000062 597.01 107.08 396.26 609.43 736.55 364.49 920.43 368.95 855.13 483.28 750.89 562.40 915.14 566.13
00027388 00000063 596.95 106.18 395.55 603.31 732.98 364.24 917.72 368.54 848.45 481.56 745.35 558.20 911.35 561.63
00027389 00000064 596.15 105.02 396.72 607.44 731.89 363.72 917.78 369.06 847.00 482.11 741.08 557.80 909.02 562.33
00027390 00000065 596.43 104.26 397.17 607.50 733.47 364.41 918.95 369.59 848.88 483.33 742.84 558.85 909.21 563.30
00027391 00000066 598.48 106.25 394.87 608.82 736.23 366.03 920.91 371.19 852.61 486.14 745.76 561.79 910.70 566.30
00027392 00000067 598.48 107.10 394.23 605.81 738.81 367.22 923.48 371.63 857.53 486.83 750.73 562.50 913.69 566.31
00027393 00000068 598.04 106.26 395.44 612.70 739.65 370.91 924.52 373.09 860.34 491.45 752.43 565.24 916.76 567.00
00027394 00000069 597.76 108.04 395.44 612.38 737.80 372.84 923.22 373.43 858.67 492.02 751.68 566.78 916.45 567.26
00027395 00000070 595.06 107.74 396.98 614.58 734.60 372.49 920.96 374.65 853.65 492.71 746.64 568.75 909.54 570.97
00027396 00000071 594.16 109.43 395.59 611.78 732.82 374.23 918.41 377.45 849.06 495.09 742.78 568.58 904.59 571.80
00027397 00000072 592.40 112.21 396.85 618.52 729.31 377.79 915.86 382.23 845.69 500.03 737.07 574.86 899.38 579.45
00027398 00000073 590.95 111.69 397.81 622.84 727.61 380.22 915.93 386.02 845.04 503.92 733.86 577.81 898.69 583.47
00027399 00000074 589.53 115.62 399.66 613.30 726.16 380.19 913.54 384.97 849.56 510.56 738.68 580.37 902.63 584.37
00027400 00000075 593.18 108.03 396.96 626.35 731.51 377.58 916.96 379.91 849.01 498.88 742.72 575.36 903.88 577.92
00027401 00000076 591.13 109.26 398.01 618.23 735.21 373.09 914.90 375.82 858.81 495.73 753.20 578.72 907.54 580.48
00027402 00000077 591.90 103.89 396.04 635.11 739.88 369.10 914.68 371.43 861.36 488.45 755.24 578.21 909.83 579.55
00027403 00000078 591.25 104.35 396.89 633.45 738.37 368.02 914.55 370.41 860.19 488.03 754.70 578.45 908.76 579.87
00027404 00000079 586.72 104.51 399.80 630.69 732.57 368.53 910.72 371.59 853.43 488.55 751.76 580.31 901.55 582.18
00027405 00000080 584.27 104.45 398.89 629.12 725.25 370.33 905.94 372.78 846.21 490.83 745.04 580.34 897.22 581.56
00027406 00000081 584.26 108.90 395.27 617.85 720.48 369.89 902.45 371.93 840.61 489.64 741.75 579.15 892.42 580.02
00027407 00000082 584.33 103.69 395.27 624.17 722.01 367.01 901.87 366.95 842.39 487.04 746.32 578.84 892.34 577.92
00027408 00000083 584.65 101.68 397.00 626.36 724.90 364.85 902.06 362.37 846.12 481.94 751.41 576.39 896.53 573.50
00027409 00000084 587.18 99.24 394.74 632.89 731.43 361.91 904.28 360.26 851.51 475.23 757.71 574.57 901.55 572.04
00027410 00000085 590.43 98.55 393.17 632.33 734.01 361.42 906.70 358.69 855.81 474.67 758.94 572.34 905.31 569.23
00027411 00000086 589.11 99.90 395.99 639.07 732.24 361.83 907.22 359.43 853.29 476.67 752.42 572.97 906.01 570.11
00027412 00000087 585.97 101.81 398.07 637.43 727.82 363.98 905.40 362.93 848.54 480.06 744.64 570.86 903.63 568.85
00027413 00000088 586.56 102.43 396.68 633.52 725.35 363.31 903.89 363.97 844.21 478.15 739.79 568.21 900.59 567.64
00027414 00000089 585.78 99.10 397.10 633.11 723.04 362.05 904.08 362.68 843.01 478.32 735.78 565.56 899.41 565.20
00027415 00000090 586.24 99.31 396.23 635.47 724.54 361.06 904.31 362.04 843.63 477.64 735.99 565.11 899.25 564.95
00027416 00000091 586.29 99.48 396.59 635.48 725.68 361.52 904.44 362.71 844.46 477.28 736.39 564.37 899.86 564.42
00027417 00000092 585.13 98.25 398.04 639.31 726.55 361.99 903.96 361.38 846.11 476.85 737.71 564.61 901.74 563.24
00027418 00000093 584.95 98.03 398.44 639.03 727.27 362.12 904.70 361.19 848.40 477.89 739.69 565.30 903.43 563.75
00027419 00000094 584.96 98.04 398.15 637.11 727.12 363.42 904.23 362.24 848.18 478.92 740.55 565.74 902.69 563.96
00027420 00000095 584.17 99.46 399.35 628.75 725.41 363.90 903.88 362.73 847.70 481.17 741.90 567.02 900.49 565.36
00027421 00000096 584.62 99.10 398.38 625.62 723.84 363.49 904.30 362.89 846.62 481.65 741.72 567.63 899.61 566.49
00027422 00000097 584.46 98.97 398.13 625.07 723.22 364.03 904.72 363.10 846.59 482.62 741.62 568.21 900.03 566.85
00027423 00000098 584.39 100.09 397.12 622.96 723.41 365.41 904.52 364.13 847.18 483.84 742.46 568.80 901.11 567.12
00027424 00000099 584.79 99.70 396.74 624.48 725.32 366.22 904.29 364.59 848.09 485.78 745.26 569.57 900.80 567.69
00027425 00000100 584.29 101.54 396.75 625.50 726.16 366.90 903.04 365.11 847.93 486.64 745.84 571.98 898.27 569.91
00027426 00000101 583.89 102.95 397.93 624.98 725.53 368.13 902.96 366.63 846.97 487.11 744.77 571.54 899.70 569.68
00027427 00000102 583.66 101.97 397.93 624.63 723.73 367.92 902.66 366.17 844.93 486.98 743.59 570.17 900.35 567.96
00027428 00000103 582.93 100.30 398.05 625.29 721.32 367.29 902.39 365.56 843.43 487.52 740.85 568.73 900.45 566.68
00027429 00000104 581.91 101.38 398.11 628.72 721.76 367.78 901.11 364.68 843.20 485.43 738.30 567.46 900.25 564.30
00027430 00000105 582.04 99.25 396.29 634.46 724.97 374.17 900.89 371.43 845.59 485.68 736.63 565.33 901.24 562.55
00027431 00000106 583.00 100.86 396.51 632.67 727.73 377.38 902.59 376.19 848.77 485.12 738.04 562.16 905.16 560.60
00027432 00000107 584.19 101.94 397.94 625.70 732.07 375.00 905.48 369.99 857.59 486.46 747.88 564.96 911.15 560.46
00027433 00000108 583.54 111.55 398.23 611.51 733.62 372.68 907.35 365.22 864.52 485.17 755.23 569.00 912.85 562.59
00027434 00000109 585.39 112.35 397.03 615.93 735.52 372.88 908.14 366.60 864.74 488.43 754.60 569.47 913.24 564.25
00027435 00000110 583.86 112.48 398.82 615.96 732.15 375.89 906.12 370.48 860.55 492.47 752.58 571.62 911.40 566.86
00027436 00000111 579.98 110.72 400.70 613.14 726.69 377.78 906.58 373.04 856.99 497.73 750.52 578.15 907.63 573.49
00027437 00000112 579.98 114.00 399.84 606.39 724.40 379.37 906.70 373.74 854.93 500.83 749.83 580.57 905.44 575.22
00027438 00000113 579.32 113.12 400.74 610.87 726.27 381.25 907.39 376.34 856.26 503.46 751.04 582.85 905.71 578.14
00027439 00000114 584.00 114.14 398.22 610.80 729.29 382.72 909.07 376.26 860.01 505.02 754.16 583.77 909.75 578.19
00027440 00000115 584.15 113.68 399.08 613.88 728.44 381.75 909.71 375.25 860.13 505.39 754.00 584.09 912.01 578.34
00027441 00000116 579.89 112.11 401.93 621.65 725.61 381.17 906.26 375.32 855.59 501.82 750.74 583.46 908.79 578.08
00027442 00000117 579.18 110.57 400.36 612.66 722.28 378.05 905.43 373.67 850.54 499.32 747.97 580.57 904.01 576.17
00027443 00000118 577.94 108.27 402.26 624.76 724.14 375.39 902.14 371.66 848.41 492.09 748.40 579.49 901.13 575.18
00027444 00000119 579.04 105.98 401.76 631.65 728.50 374.00 904.53 368.49 854.15 490.21 751.45 578.74 905.70 573.08
00027445 00000120 580.39 107.19 399.17 626.70 729.74 373.13 905.30 368.16 855.91 488.43 753.07 577.98 905.32 572.94
00027446 00000121 577.91 108.59 400.80 625.40 726.75 372.64 902.36 368.96 851.41 488.35 752.10 579.59 901.25 575.43
00027447 00000122 572.99 107.12 403.57 626.74 721.88 370.68 897.85 367.02 846.13 488.10 747.00 577.85 896.24 573.49
00027448 00000123 570.19 104.41 404.54 632.05 719.10 366.98 894.98 363.93 842.18 483.52 741.57 573.49 893.88 569.69
00027449 00000124 564.91 100.44 409.47 645.50 718.96 362.07 895.28 360.31 841.84 477.65 737.91 569.18 893.93 566.31
00027450 00000125 560.90 95.97 412.32 662.94 722.13 357.67 895.61 358.50 842.94 472.60 735.93 567.23 894.67 566.10
00027451 00000126 558.89 94.17 411.71 662.10 718.94 354.46 894.18 357.20 840.73 468.36 733.11 563.26 892.41 563.61
00027452 00000127 557.55 93.76 410.85 661.19 715.06 353.27 889.53 355.13 836.08 464.68 730.63 561.63 889.98 561.17
00027453 00000128 551.85 93.93 413.56 657.62 709.84 352.18 885.81 354.14 831.14 462.92 727.51 561.01 885.59 560.16
00027454 00000129 550.44 93.93 412.85 653.38 705.73 351.45 882.07 353.12 826.99 460.07 724.27 559.53 882.09 558.32
CROP_BBOX: 281 0 1287 956
