Video ID: 	vNgSXq80UME
H: 	1080
W: 	1920
FPS: 	29.97002997002997

FRAME INDEX X0 Y0 W H [Landmarks (5 Points)]

00018424 00000000 286.73 137.53 609.04 806.26 440.65 480.15 709.54 426.62 603.19 602.97 527.16 766.02 739.16 721.51
00018425 00000001 278.65 136.99 609.33 806.07 433.70 479.26 703.04 425.02 596.98 603.74 520.16 763.16 733.26 717.45
00018426 00000002 270.34 136.17 613.78 810.97 426.53 479.21 696.77 422.37 592.03 605.29 517.99 766.29 728.94 718.28
00018427 00000003 265.92 136.65 616.87 815.94 424.46 481.78 694.15 423.14 591.17 603.13 521.29 775.16 724.74 725.78
00018428 00000004 265.95 139.91 618.78 824.56 424.46 483.83 693.50 423.83 591.71 603.47 525.01 783.26 727.16 732.71
00018429 00000005 268.40 141.28 618.68 821.72 425.52 485.10 696.04 424.60 593.51 607.49 524.80 783.16 730.59 732.06
00018430 00000006 272.75 144.52 615.95 817.03 428.66 487.26 700.58 426.77 597.35 611.67 525.73 782.52 736.95 731.46
00018431 00000007 276.20 146.81 616.34 812.44 433.68 489.03 705.02 431.28 600.98 613.42 526.50 780.40 739.46 731.73
00018432 DELETE   281.46 148.15 618.05 813.03 441.60 499.86 712.87 443.72 606.52 612.48 528.73 783.13 741.81 736.21
00018433 00000009 288.09 149.20 613.45 810.58 454.53 511.00 720.31 456.45 616.65 615.45 536.76 783.26 746.10 737.66
00018434 DELETE   298.60 154.51 611.26 803.91 459.92 512.03 725.31 463.73 622.32 625.90 543.32 782.93 755.17 742.66
00018435 DELETE   306.02 153.44 614.01 817.07 468.01 506.56 742.58 456.72 633.55 627.99 552.86 792.63 769.75 749.78
00018436 DELETE   312.15 155.64 616.25 821.05 478.58 503.33 756.43 458.11 650.26 634.81 565.01 795.04 783.11 756.35
00018437 00000013 320.61 157.39 619.84 828.55 490.57 499.31 768.31 459.71 663.29 639.80 574.86 796.80 790.28 762.98
00018438 DELETE   327.03 156.38 619.61 834.06 501.30 498.17 777.46 461.55 674.64 637.95 581.10 797.07 796.71 765.72
00018439 00000015 332.57 155.24 619.02 832.25 510.54 497.58 785.58 464.19 683.79 637.34 586.97 794.93 802.97 766.07
00018440 00000016 340.78 151.69 615.77 823.20 519.94 493.27 791.91 462.02 691.83 635.77 594.20 787.06 807.90 759.83
00018441 00000017 346.38 152.58 614.75 812.73 526.60 489.86 799.81 460.74 698.46 634.37 597.67 780.38 811.79 754.94
00018442 00000018 350.52 155.58 611.15 804.64 535.60 487.82 808.40 454.10 707.81 627.71 598.66 779.03 815.52 749.53
00018443 00000019 351.53 154.24 612.45 803.44 537.20 483.02 810.30 450.89 708.51 624.83 600.25 776.65 816.20 748.67
00018444 00000020 355.95 149.09 607.24 799.94 539.40 479.34 809.84 447.09 707.91 619.27 600.75 766.33 816.71 738.47
00018445 00000021 357.61 140.90 605.27 802.09 542.45 483.22 811.61 451.40 708.59 616.85 599.11 758.99 818.49 731.57
00018446 DELETE   356.62 135.89 604.04 801.60 541.48 481.28 807.18 448.58 707.26 609.74 600.09 751.94 818.45 723.29
00018447 00000023 354.43 133.14 608.82 800.86 533.79 475.40 801.57 437.83 700.10 601.95 597.36 749.20 817.90 716.60
00018448 00000024 351.90 132.06 607.11 801.97 527.18 467.47 793.68 427.25 695.29 599.35 598.42 748.56 815.41 713.93
00018449 00000025 343.78 130.43 609.70 804.48 517.61 464.73 785.83 422.59 688.58 596.12 594.51 749.74 810.31 713.21
00018450 00000026 335.39 125.59 613.06 808.08 507.79 463.09 777.55 415.75 681.75 592.75 593.21 749.80 805.51 708.88
00018451 00000027 328.80 126.97 615.33 803.55 499.96 459.65 771.59 412.85 674.35 590.71 587.32 748.13 798.18 707.53
00018452 00000028 320.40 119.44 617.04 810.45 491.87 456.94 763.52 408.22 665.59 587.27 581.79 745.57 792.12 703.40
00018453 00000029 312.09 115.09 619.87 816.15 481.81 458.30 751.70 405.86 653.48 582.55 575.02 745.98 784.20 700.50
00018454 00000030 300.25 113.58 626.12 815.62 471.17 458.87 741.46 402.14 642.86 580.19 569.45 746.88 777.36 697.53
00018455 00000031 301.47 118.04 612.21 801.69 460.64 459.23 722.03 402.88 625.27 580.44 554.69 739.70 762.11 692.86
00018456 00000032 291.63 118.44 611.91 803.36 449.85 461.30 708.76 400.84 613.15 575.42 545.68 739.17 754.05 688.52
00018457 00000033 285.59 124.21 607.45 801.45 438.64 470.22 695.01 403.75 599.12 580.44 537.27 741.08 747.95 685.21
00018458 DELETE   275.65 120.35 611.46 806.85 430.59 480.40 687.06 413.85 591.24 581.05 527.74 746.04 738.55 689.53
00018459 DELETE   261.91 124.13 619.35 809.32 418.10 486.32 676.68 416.11 579.85 581.47 519.38 753.18 728.88 693.57
00018460 DELETE   253.07 128.54 631.03 815.19 405.39 487.28 669.25 409.71 567.59 583.57 512.64 762.17 723.54 696.75
00018461 00000037 248.41 126.46 620.89 804.93 394.52 489.83 659.39 408.05 555.89 585.09 503.74 767.79 709.73 700.33
00018462 00000038 236.68 125.56 633.88 819.13 390.41 484.47 652.24 406.56 552.02 586.07 503.82 767.42 701.67 700.91
00018463 00000039 238.40 130.28 618.26 793.82 381.01 490.47 643.00 405.39 540.88 585.22 497.25 768.92 695.46 698.84
00018464 00000040 227.39 128.82 630.93 815.50 380.71 485.67 637.86 407.05 537.13 585.49 494.21 769.21 685.16 702.00
00018465 00000041 224.48 129.92 634.73 815.00 377.25 484.93 634.57 405.28 533.32 585.59 492.62 768.04 684.88 699.71
00018466 00000042 224.34 132.53 634.14 812.36 375.80 484.03 632.98 404.27 531.31 585.72 491.61 767.43 684.27 699.01
00018467 00000043 223.35 131.94 634.88 813.11 374.56 484.09 630.77 404.00 528.63 584.36 490.00 766.82 682.11 698.12
00018468 00000044 223.32 131.06 634.90 814.17 374.84 482.77 630.46 403.45 528.54 583.03 489.42 765.07 681.71 696.96
00018469 00000045 223.42 131.27 634.43 813.78 374.22 482.93 629.97 403.09 527.79 582.89 488.44 764.65 681.55 696.10
00018470 00000046 229.39 129.47 627.28 815.90 376.89 488.77 630.75 407.44 526.73 584.13 486.61 765.42 682.53 696.09
00018471 00000047 233.40 125.03 621.75 819.24 382.67 498.76 631.99 418.44 526.96 584.59 484.88 767.29 681.45 698.88
00018472 00000048 236.02 123.03 621.44 821.90 386.74 497.18 634.49 419.82 530.05 584.14 485.98 764.80 683.51 698.63
00018473 00000049 241.72 127.41 615.03 798.05 382.56 494.42 637.75 415.30 527.76 580.94 484.64 760.78 684.06 695.49
00018474 00000050 245.53 125.87 616.76 803.19 382.29 491.83 641.17 411.48 529.62 582.68 486.87 764.66 687.52 698.67
00018475 00000051 243.84 122.68 627.63 828.97 389.29 486.21 646.51 412.28 538.63 581.74 490.91 766.98 692.43 704.16
00018476 00000052 247.44 120.64 627.17 830.03 391.78 481.84 652.27 411.79 542.43 582.75 490.37 764.61 697.17 704.94
00018477 00000053 251.51 120.11 626.25 829.75 395.78 479.36 658.88 410.97 547.70 582.33 492.30 763.22 702.50 705.06
00018478 00000054 255.32 120.31 625.36 827.87 399.22 475.89 663.38 410.60 551.10 583.24 492.84 759.64 707.35 704.05
00018479 00000055 259.44 120.62 623.07 826.28 403.17 472.28 668.26 410.67 554.81 584.07 492.64 755.72 711.32 703.19
00018480 00000056 263.42 121.21 621.14 824.98 406.93 471.29 673.31 413.17 558.49 586.13 493.22 753.57 714.74 703.99
00018481 00000057 265.67 125.54 619.55 820.46 408.61 473.19 676.65 415.22 561.40 587.62 493.96 754.69 716.88 705.43
00018482 00000058 267.15 128.36 618.83 818.23 410.36 473.90 678.69 417.26 563.28 590.57 493.94 754.66 718.41 706.53
00018483 00000059 268.43 130.78 617.98 816.82 412.22 475.86 681.55 419.99 567.00 594.82 496.25 757.24 721.36 709.69
00018484 00000060 269.96 133.84 616.71 815.93 415.01 477.98 686.11 423.74 571.68 599.41 498.21 759.91 723.91 713.78
00018485 00000061 271.96 136.83 614.30 812.09 417.19 481.96 689.93 428.88 575.89 607.09 499.54 762.84 725.44 717.42
00018486 00000062 274.74 139.81 612.06 805.45 419.47 485.60 691.53 433.81 576.82 612.72 501.04 763.75 725.50 719.40
00018487 00000063 277.33 145.36 611.49 799.19 420.85 491.06 694.62 437.86 578.65 618.55 500.62 764.59 729.70 719.13
00018488 00000064 278.75 145.81 611.68 802.19 426.42 504.05 695.10 449.06 580.30 619.23 501.25 766.32 729.48 719.44
00018489 DELETE   280.57 148.30 606.14 806.32 435.12 503.38 699.22 455.01 586.58 620.13 504.93 767.22 725.80 725.52
00018490 00000066 281.65 148.15 613.11 815.29 440.88 506.96 706.10 459.10 593.14 623.00 511.66 775.89 730.42 735.16
00018491 00000067 289.19 153.84 610.56 819.59 448.72 508.44 717.47 463.10 603.08 626.15 519.26 785.49 738.83 747.28
00018492 00000068 297.64 155.34 610.32 825.08 457.86 504.56 728.75 465.01 612.34 630.41 527.70 792.23 743.12 759.24
00018493 00000069 302.82 162.80 612.72 821.14 464.45 501.43 737.97 464.76 620.58 632.35 533.38 793.41 749.80 762.87
00018494 00000070 307.47 154.59 614.61 829.62 467.89 503.17 747.11 464.67 627.35 640.86 541.00 794.29 761.90 761.26
00018495 00000071 309.30 157.88 618.30 830.75 475.04 504.68 755.99 470.06 638.48 649.88 545.50 793.74 770.56 763.51
00018496 00000072 312.20 163.91 615.94 828.73 479.84 509.03 759.99 476.22 645.32 657.88 547.01 796.71 775.99 767.77
00018497 00000073 313.64 172.41 612.94 822.84 481.58 514.57 761.49 481.54 648.68 664.44 546.80 800.50 777.77 771.36
00018498 00000074 315.38 177.88 610.49 820.46 483.79 518.16 762.18 485.93 650.28 668.69 547.06 801.16 779.81 772.59
00018499 00000075 313.64 177.47 612.71 820.81 484.45 519.40 762.08 488.91 650.34 670.25 541.98 795.70 782.41 768.27
00018500 00000076 312.72 177.90 612.32 818.56 483.75 518.75 761.60 489.47 648.40 671.17 539.35 792.19 781.26 765.73
00018501 00000077 312.38 176.55 605.55 808.53 484.47 517.33 760.99 485.13 647.52 665.32 539.52 792.90 774.07 764.67
00018502 00000078 312.77 169.59 605.85 818.57 486.76 514.44 762.09 483.89 648.47 657.12 538.36 790.26 772.78 763.46
00018503 DELETE   316.97 163.92 603.63 827.06 492.94 514.04 764.95 487.91 651.12 647.53 541.13 788.93 771.70 765.58
00018504 DELETE   323.49 162.47 604.46 833.77 503.66 501.13 771.13 481.42 660.30 636.36 553.66 786.67 775.25 768.30
00018505 00000081 332.27 154.70 602.84 843.82 514.80 484.90 783.66 468.10 675.84 624.11 566.28 784.25 785.85 768.37
00018506 00000082 349.66 160.52 595.08 841.99 536.20 471.85 799.08 462.61 690.21 626.18 582.61 774.58 787.28 764.47
00018507 00000083 353.90 144.33 607.30 831.33 545.89 459.40 819.68 454.85 705.68 615.82 582.00 768.83 800.56 764.59
00018508 00000084 371.19 139.65 598.90 819.98 562.66 450.26 836.16 449.35 722.47 611.07 592.22 753.40 814.54 752.94
00018509 00000085 380.96 136.89 596.71 806.31 574.66 442.23 845.75 445.02 735.77 600.41 611.49 745.14 823.14 746.19
00018510 00000086 387.08 132.14 601.85 820.81 582.98 442.38 856.36 445.90 745.72 599.00 618.09 747.12 831.70 748.39
00018511 00000087 396.16 134.49 603.15 817.94 591.48 436.54 863.89 441.69 753.44 595.76 627.56 747.46 837.68 750.50
00018512 00000088 402.64 131.63 604.32 817.59 601.37 435.23 871.24 441.19 761.84 593.29 633.08 742.08 844.49 745.98
00018513 00000089 411.09 132.34 602.52 816.56 609.35 435.78 879.38 441.68 767.87 593.05 637.26 738.67 852.13 742.55
00018514 00000090 420.78 137.07 599.40 808.25 617.22 437.73 888.52 444.93 774.45 594.22 644.61 741.63 858.39 746.67
00018515 00000091 429.93 138.80 600.40 806.34 623.91 438.03 894.87 447.77 778.40 595.89 651.74 745.80 861.09 753.20
00018516 00000092 438.17 136.15 597.96 810.02 631.46 437.56 902.76 451.08 780.61 604.17 654.11 744.80 859.79 755.35
00018517 00000093 448.18 141.26 599.09 802.27 644.12 438.03 911.35 454.82 789.76 605.56 663.35 743.25 867.27 756.29
00018518 00000094 460.14 147.26 593.09 795.93 652.69 444.05 923.15 462.48 795.84 611.83 670.87 743.34 874.83 759.25
00018519 00000095 464.67 143.41 603.49 812.69 661.66 445.01 931.63 466.03 810.50 606.20 676.85 750.40 887.65 766.61
00018520 00000096 472.25 141.97 604.78 817.07 673.06 445.09 939.94 468.04 819.37 610.30 685.02 752.10 892.20 770.38
00018521 00000097 482.26 146.69 601.02 822.26 682.89 447.17 951.07 470.04 833.25 614.22 695.42 758.37 906.83 776.64
00018522 00000098 487.51 151.01 606.26 832.33 694.73 448.67 963.54 477.54 845.05 618.52 703.39 765.68 914.43 788.83
00018523 00000099 491.46 152.37 609.50 846.95 702.03 450.52 972.50 480.58 850.73 624.67 703.50 769.99 922.11 794.52
00018524 00000100 496.32 154.39 603.21 846.44 709.74 458.92 970.85 491.00 850.30 632.82 700.18 767.33 918.76 793.57
00018525 00000101 496.66 154.33 603.28 847.23 710.78 459.17 971.35 491.63 850.89 632.44 700.51 767.66 919.25 794.12
00018526 00000102 493.78 154.78 603.38 844.33 708.29 459.67 969.70 491.21 849.63 632.48 699.25 766.83 918.08 792.63
00018527 00000103 488.04 151.82 606.17 838.41 697.24 452.08 966.97 481.41 846.47 624.33 700.43 766.72 917.53 790.52
00018528 00000104 481.32 150.25 597.78 825.84 686.97 451.37 952.19 477.15 835.76 621.69 695.94 763.14 904.79 784.03
00018529 00000105 473.61 148.42 598.38 818.49 676.21 449.63 941.39 474.69 824.02 620.82 686.60 759.18 893.05 779.41
00018530 00000106 461.79 148.68 596.91 809.27 661.15 449.38 931.31 471.18 806.84 622.51 670.32 750.70 881.31 769.59
00018531 00000107 452.26 143.58 597.32 812.69 648.10 441.19 919.43 462.14 794.10 606.81 658.57 751.06 871.91 768.88
00018532 00000108 436.37 137.21 597.86 818.07 626.62 440.63 901.15 456.00 773.94 606.11 643.36 750.81 855.16 763.39
00018533 00000109 421.06 140.13 601.83 815.61 609.34 439.05 883.97 449.49 757.95 598.90 633.04 747.55 839.94 756.43
00018534 00000110 411.66 138.48 596.51 816.31 593.84 437.06 866.39 445.11 736.69 595.27 616.77 747.20 820.19 754.83
00018535 00000111 397.26 129.48 598.05 827.75 573.39 434.24 846.12 445.03 717.47 593.71 609.39 743.21 803.74 751.44
00018536 00000112 388.38 130.69 594.81 823.99 555.97 428.27 830.61 436.40 697.49 590.07 593.18 740.16 789.60 746.26
00018537 00000113 372.10 128.94 599.58 823.72 543.11 428.34 817.73 434.25 687.30 585.62 575.23 743.30 787.55 748.24
00018538 00000114 360.59 126.41 605.18 824.68 529.25 429.77 803.80 430.88 674.08 586.87 565.24 743.58 777.59 744.24
00018539 DELETE   355.81 123.14 599.96 826.51 523.60 441.88 793.36 438.06 665.03 585.00 555.22 742.34 770.95 738.92
00018540 00000116 347.79 122.69 599.45 827.01 514.05 448.81 784.92 442.20 654.48 585.14 546.14 744.53 763.08 738.54
00018541 00000117 341.39 123.73 597.50 825.21 505.09 453.58 776.07 443.63 647.08 585.95 539.45 745.91 759.42 736.71
00018542 00000118 339.40 127.94 595.50 820.13 498.88 454.55 772.54 440.52 644.12 587.82 535.75 748.66 759.91 736.06
00018543 00000119 339.67 132.18 595.04 811.97 495.97 455.11 771.58 442.28 641.14 590.58 533.39 749.27 757.83 737.53
00018544 00000120 340.64 135.92 594.50 803.81 496.71 457.75 772.89 446.59 641.84 596.44 533.85 749.98 757.30 739.32
00018545 00000121 343.25 135.37 594.39 807.06 501.16 459.34 775.23 450.86 645.30 600.60 536.19 751.25 758.81 742.64
CROP_BBOX: 33 0 1335 1080
