Video ID: 	2ftVUoyyg3Y
H: 	1080
W: 	1920
FPS: 	29.97002997002997

FRAME INDEX X0 Y0 W H [Landmarks (5 Points)]

00005094 00000000 985.41 198.76 360.17 512.85 1032.63 387.91 1177.50 422.53 1035.82 492.79 1010.36 573.34 1139.48 600.88
00005095 00000001 984.47 199.60 352.53 510.55 1035.99 386.19 1178.04 427.35 1026.41 484.71 1004.33 565.39 1129.23 598.59
00005096 00000002 985.82 201.15 351.41 508.53 1035.95 387.17 1177.56 427.68 1026.07 484.73 1004.18 565.94 1129.37 598.63
00005097 00000003 987.62 216.47 355.44 495.54 1034.21 396.13 1182.87 438.94 1040.35 491.23 1009.62 569.00 1138.50 606.15
00005098 00000004 986.69 221.17 357.70 491.38 1035.53 397.34 1184.55 441.22 1044.41 492.75 1011.04 569.65 1139.48 607.64
00005099 00000005 986.22 218.66 357.49 495.52 1032.82 399.84 1179.51 436.28 1033.06 492.42 1006.46 574.92 1132.07 604.01
00005100 00000006 985.97 219.96 360.69 500.48 1035.77 398.55 1183.64 435.58 1036.29 494.01 1008.87 576.89 1135.34 606.51
00005101 00000007 985.88 219.69 364.52 506.67 1038.59 400.30 1186.61 436.11 1039.01 496.09 1011.76 580.32 1139.14 609.19
00005102 00000008 987.85 223.51 363.14 508.93 1041.31 404.24 1189.58 437.86 1044.94 502.98 1018.13 587.58 1143.93 614.69
00005103 00000009 989.62 217.21 360.87 522.95 1044.81 407.95 1195.17 438.64 1052.19 506.90 1024.83 593.34 1153.48 617.99
00005104 00000010 991.65 220.17 360.25 522.84 1048.62 408.10 1202.05 436.83 1059.93 507.41 1031.23 597.46 1161.83 620.44
00005105 DELETE   996.08 222.93 360.72 524.86 1053.25 408.67 1207.71 437.07 1064.65 508.80 1037.15 599.80 1168.10 622.44
00005106 00000012 999.79 218.84 360.74 530.57 1057.32 408.26 1213.36 436.35 1069.76 508.79 1041.86 601.28 1173.73 623.55
00005107 00000013 1003.78 219.13 360.80 529.28 1059.60 408.31 1215.76 435.60 1072.94 507.58 1045.68 601.30 1175.54 622.96
00005108 00000014 1006.94 211.00 360.21 537.55 1062.97 407.72 1218.48 435.71 1078.27 504.46 1048.20 600.27 1177.37 622.59
00005109 00000015 1008.75 210.30 361.40 538.67 1065.15 405.93 1221.58 433.75 1080.59 503.20 1051.39 600.65 1179.83 622.96
00005110 00000016 1009.39 213.60 362.55 537.31 1067.61 404.64 1226.66 433.72 1083.46 503.27 1053.62 600.89 1183.91 624.31
00005111 00000017 1009.42 215.34 364.35 536.10 1069.06 403.65 1228.65 433.71 1085.28 504.27 1054.47 600.54 1184.35 624.91
00005112 00000018 1011.85 212.11 361.83 539.33 1070.31 403.30 1229.39 434.01 1086.21 503.88 1055.87 600.63 1182.96 625.59
00005113 00000019 1012.20 211.73 361.76 535.98 1070.21 403.00 1230.39 434.59 1086.18 502.28 1054.72 602.09 1180.09 627.65
00005114 00000020 1014.09 210.06 359.45 528.16 1070.10 402.85 1228.95 431.97 1085.65 497.91 1053.66 600.75 1175.39 624.44
00005115 00000021 1013.37 206.74 359.22 528.62 1070.39 401.59 1227.20 432.01 1083.47 494.58 1050.88 596.17 1171.94 620.98
00005116 00000022 1011.98 206.23 360.47 532.14 1070.23 401.02 1228.14 431.99 1083.19 494.03 1049.48 595.72 1174.11 621.09
00005117 00000023 1011.31 205.60 361.46 541.32 1071.69 401.01 1229.78 433.08 1084.12 495.99 1052.39 597.80 1181.16 623.90
00005118 00000024 1012.16 207.30 359.68 544.36 1071.88 401.09 1229.60 432.77 1083.92 495.98 1053.33 599.45 1180.40 625.29
00005119 00000025 1012.93 207.99 359.19 543.32 1071.45 401.56 1228.73 432.77 1082.98 495.36 1052.76 601.19 1177.21 626.76
00005120 00000026 1013.30 204.76 358.65 539.19 1069.20 400.27 1227.50 431.35 1079.49 494.05 1047.62 599.90 1172.64 625.42
00005121 00000027 1014.24 202.86 355.98 529.92 1068.22 400.08 1225.32 429.96 1077.88 489.32 1044.42 596.02 1163.73 620.67
00005122 00000028 1014.07 202.96 354.85 527.81 1067.11 400.39 1224.47 429.29 1077.24 488.16 1043.84 596.04 1161.58 619.91
00005123 00000029 1013.96 204.89 353.95 528.65 1066.49 402.28 1222.68 429.20 1076.77 489.10 1044.33 599.03 1161.71 621.26
00005124 00000030 1014.68 204.88 353.72 535.99 1066.47 403.22 1222.99 430.46 1075.24 489.53 1045.80 602.52 1163.30 624.99
00005125 00000031 1014.55 205.58 354.49 539.97 1065.88 404.07 1222.91 431.83 1075.39 491.84 1045.63 604.63 1162.75 627.62
00005126 00000032 1014.17 201.76 352.90 538.76 1064.49 404.55 1221.06 433.09 1073.28 492.53 1042.28 603.14 1158.69 626.72
00005127 00000033 1012.89 201.78 352.74 537.80 1064.00 405.88 1220.68 433.76 1073.05 492.59 1040.07 604.02 1156.34 627.16
00005128 00000034 1012.40 201.92 352.44 536.55 1064.21 405.85 1220.87 433.81 1074.12 492.17 1039.99 603.22 1155.36 626.50
00005129 00000035 1013.35 203.05 351.12 533.19 1065.30 405.48 1219.58 433.70 1074.40 491.34 1041.70 601.27 1154.71 624.69
00005130 00000036 1013.22 203.08 350.48 531.59 1065.07 405.79 1219.53 433.03 1075.33 491.91 1042.15 601.26 1156.10 623.81
00005131 00000037 1013.86 201.81 349.59 531.96 1064.80 405.08 1219.08 432.57 1075.02 492.07 1041.81 601.15 1156.28 623.84
00005132 00000038 1012.72 202.14 349.53 531.76 1063.43 405.39 1217.80 432.25 1073.34 492.14 1040.29 601.36 1154.47 623.55
00005133 00000039 1012.32 201.69 348.56 529.17 1061.89 404.76 1215.29 431.76 1070.80 491.26 1038.64 599.89 1153.22 622.19
00005134 00000040 1011.53 197.29 348.74 532.44 1061.70 402.86 1215.57 430.26 1070.07 490.00 1037.14 597.05 1151.82 619.82
00005135 00000041 1011.81 195.63 349.45 532.91 1062.14 401.92 1215.62 428.96 1068.67 487.50 1036.86 596.07 1150.92 618.70
00005136 00000042 1012.99 199.23 348.66 525.95 1062.40 402.45 1215.31 428.48 1069.04 486.43 1036.89 595.20 1151.57 617.03
00005137 00000043 1012.78 198.19 350.00 527.53 1062.82 402.91 1215.93 428.45 1070.22 485.81 1038.09 595.04 1151.71 616.45
00005138 00000044 1011.96 198.23 351.90 527.97 1063.41 402.87 1215.99 427.58 1070.88 483.68 1039.32 594.78 1151.26 615.67
00005139 00000045 1011.77 194.17 351.29 528.28 1062.31 401.90 1214.58 425.32 1069.07 481.62 1037.63 591.43 1150.90 611.54
00005140 00000046 1011.32 191.30 350.41 529.18 1059.70 397.99 1210.93 420.83 1067.27 481.01 1034.68 589.27 1147.89 609.14
00005141 00000047 1006.94 192.98 353.59 529.52 1053.43 396.83 1202.78 417.40 1059.28 478.99 1030.35 587.89 1141.84 605.92
00005142 00000048 1003.59 196.36 350.44 527.96 1049.43 396.49 1197.67 414.69 1057.89 480.81 1030.26 588.55 1141.31 604.68
00005143 00000049 1002.30 206.80 354.28 529.83 1046.98 401.59 1195.02 413.19 1057.44 486.74 1036.51 596.20 1147.02 606.49
00005144 00000050 1002.83 213.49 357.59 535.62 1045.36 405.66 1196.84 412.85 1063.50 497.83 1046.69 603.93 1165.24 609.46
00005145 00000051 1000.54 220.53 357.53 539.44 1042.34 410.50 1195.17 412.64 1063.69 504.53 1049.85 612.21 1175.59 613.07
00005146 00000052 996.75 228.68 355.63 536.12 1038.73 416.05 1191.47 414.57 1061.43 510.12 1049.41 616.28 1178.54 613.70
00005147 00000053 980.74 225.81 366.98 532.55 1029.30 420.08 1184.07 419.33 1060.73 519.85 1050.07 614.84 1183.67 614.85
00005148 00000054 972.64 226.34 374.93 528.07 1022.49 429.45 1179.40 423.18 1063.59 527.67 1047.33 618.64 1184.97 614.47
00005149 00000055 968.44 234.66 371.88 520.88 1013.93 436.58 1170.09 427.82 1057.52 537.78 1044.26 624.86 1180.44 619.01
00005150 DELETE   963.88 237.07 367.82 522.58 1010.02 449.10 1164.94 437.29 1052.26 539.12 1033.62 626.84 1175.86 617.40
00005151 00000057 957.44 241.36 370.03 523.81 1003.44 452.41 1158.35 442.86 1044.57 546.32 1027.17 633.67 1168.25 625.82
00005152 00000058 950.52 249.92 370.29 524.81 999.81 456.54 1152.42 449.52 1040.27 552.67 1024.38 641.89 1161.59 636.38
00005153 00000059 941.44 253.69 373.62 526.70 991.96 457.27 1144.59 452.28 1033.14 558.73 1019.65 648.00 1152.69 644.21
00005154 00000060 933.40 265.78 372.59 516.25 986.26 464.29 1139.84 457.82 1028.60 567.41 1015.87 653.38 1148.14 648.41
00005155 00000061 925.19 271.35 372.68 512.14 978.17 469.45 1132.35 460.93 1022.27 573.80 1013.02 658.47 1144.02 651.26
00005156 00000062 919.62 273.88 375.03 514.89 969.96 466.48 1129.57 460.51 1020.01 580.05 1011.89 665.19 1140.89 658.10
00005157 00000063 913.76 277.97 376.37 513.37 966.06 468.84 1123.89 464.44 1016.78 582.09 1009.20 664.12 1137.49 658.15
00005158 00000064 911.52 282.55 375.20 509.43 963.20 467.29 1120.84 465.56 1011.42 583.90 1004.95 663.49 1132.72 659.85
00005159 00000065 910.24 282.55 375.77 505.74 962.15 466.83 1119.36 466.95 1009.36 583.97 1002.68 661.33 1129.60 659.56
00005160 00000066 910.08 282.04 376.98 505.48 961.60 467.26 1119.04 467.23 1008.95 585.13 1002.04 661.78 1129.30 659.89
00005161 00000067 910.85 284.03 376.76 504.39 962.58 466.29 1118.62 466.59 1009.09 584.81 1003.25 661.64 1128.27 660.02
00005162 00000068 912.37 281.63 375.62 506.58 964.39 467.88 1119.17 465.91 1011.08 581.65 1004.48 663.24 1126.24 660.08
00005163 00000069 912.90 280.00 375.98 507.38 964.91 467.62 1120.35 463.95 1012.92 578.59 1005.97 664.55 1124.27 660.16
00005164 00000070 912.34 273.03 375.53 512.73 965.20 467.48 1120.73 464.73 1013.01 578.12 1004.77 663.81 1122.57 660.47
00005165 00000071 914.46 276.62 375.40 509.10 966.92 466.93 1121.10 463.91 1013.98 578.32 1007.35 663.38 1125.03 659.52
00005166 00000072 915.21 274.23 376.43 512.43 968.34 466.46 1123.74 463.78 1015.60 578.61 1009.14 664.18 1127.91 660.46
00005167 00000073 918.48 273.94 375.86 512.93 969.61 466.38 1126.19 462.70 1017.16 579.00 1011.26 665.39 1132.64 660.41
00005168 00000074 921.79 275.33 374.80 511.42 971.11 465.70 1128.80 461.69 1018.70 578.84 1009.97 665.67 1134.53 660.44
00005169 00000075 924.05 270.32 374.73 513.99 972.38 464.06 1130.09 461.47 1017.81 578.22 1008.83 664.25 1135.63 660.39
00005170 00000076 926.28 272.85 373.37 509.57 974.58 464.01 1131.85 460.62 1020.32 577.60 1009.90 662.20 1138.67 657.73
00005171 00000077 923.93 272.63 371.42 508.46 977.76 468.54 1127.24 462.37 1018.53 574.19 1009.17 657.30 1134.75 651.85
00005172 00000078 926.65 271.14 372.55 508.25 974.44 461.94 1131.86 459.57 1017.19 573.54 1006.26 659.28 1133.96 656.04
00005173 00000079 924.90 265.86 371.78 513.91 978.29 466.21 1128.64 460.48 1019.34 572.17 1008.92 656.75 1133.02 651.95
00005174 00000080 924.86 264.84 372.16 513.92 978.75 465.58 1128.86 460.25 1020.67 571.25 1009.50 655.60 1132.48 651.18
00005175 00000081 924.97 264.22 373.48 515.32 975.12 460.62 1132.15 458.62 1018.64 572.16 1007.59 658.10 1132.76 655.41
00005176 00000082 925.87 264.42 372.28 517.37 974.96 461.28 1131.69 458.16 1017.56 572.78 1008.81 661.10 1133.88 657.40
00005177 00000083 926.16 263.79 373.16 523.77 975.80 462.03 1131.54 458.39 1017.38 573.29 1011.51 664.98 1132.70 660.66
00005178 00000084 926.19 263.75 372.02 523.63 974.59 462.90 1130.96 458.02 1016.09 572.79 1011.51 666.79 1131.02 661.52
00005179 00000085 926.14 265.83 371.80 518.84 974.56 462.47 1131.38 458.29 1016.15 572.53 1009.88 664.45 1131.91 659.85
00005180 00000086 925.28 264.49 371.84 519.11 974.09 462.66 1131.14 458.33 1017.06 573.85 1009.68 663.16 1134.36 658.45
00005181 00000087 926.55 263.92 370.68 520.47 974.62 462.16 1131.77 456.93 1018.37 573.62 1012.23 664.31 1137.62 658.86
00005182 00000088 926.87 266.71 369.76 518.90 975.98 462.13 1131.31 455.94 1019.64 571.40 1013.74 662.57 1138.64 656.19
00005183 00000089 928.37 266.89 368.23 518.90 975.50 461.43 1130.58 455.54 1018.00 570.65 1012.00 662.22 1138.81 656.06
00005184 00000090 929.44 265.80 367.33 519.57 976.12 460.96 1130.90 455.14 1018.48 570.86 1011.78 662.51 1139.09 656.60
00005185 00000091 930.09 267.10 366.74 518.06 976.23 460.80 1130.73 455.40 1017.76 570.71 1010.85 662.00 1138.79 656.43
00005186 00000092 929.70 264.75 367.37 519.88 976.71 460.86 1131.71 455.58 1018.64 570.18 1010.30 661.67 1138.17 656.30
00005187 00000093 930.04 266.60 367.32 517.92 977.28 460.33 1132.27 455.66 1018.72 569.70 1009.94 660.72 1137.35 655.89
00005188 00000094 928.77 261.44 368.67 522.80 976.94 459.74 1132.24 455.06 1018.39 567.95 1008.48 659.91 1135.47 655.15
00005189 00000095 927.77 260.56 369.14 521.66 976.61 459.19 1132.29 455.06 1018.22 566.74 1006.57 657.96 1133.71 653.79
00005190 00000096 928.26 259.93 367.54 519.11 976.31 458.86 1131.28 454.98 1017.43 566.45 1005.00 655.80 1133.79 652.03
00005191 00000097 928.37 258.87 365.80 516.93 980.75 462.49 1128.99 458.55 1020.31 564.68 1007.69 651.12 1133.78 647.78
00005192 00000098 928.37 259.27 365.99 517.37 981.11 462.15 1129.91 458.70 1021.04 564.20 1007.85 650.53 1135.26 647.61
00005193 00000099 928.49 259.01 366.32 518.68 981.37 461.86 1130.42 458.99 1021.13 564.38 1008.28 650.26 1136.33 647.79
00005194 00000100 929.17 259.93 367.04 518.71 977.53 458.89 1131.95 454.44 1019.05 566.37 1007.57 655.70 1136.35 651.35
00005195 00000101 929.19 260.17 367.01 518.25 976.56 458.66 1132.29 454.47 1019.37 567.74 1007.66 656.21 1138.28 652.00
00005196 00000102 928.63 261.56 367.19 515.33 980.77 463.45 1131.09 458.35 1021.86 566.22 1010.90 651.98 1140.04 647.79
00005197 00000103 928.68 261.29 366.42 515.06 980.85 463.24 1130.63 458.62 1021.85 565.97 1010.73 650.69 1139.93 646.82
00005198 00000104 928.58 261.21 366.58 515.39 980.81 463.51 1131.20 458.44 1022.25 566.06 1010.91 650.70 1141.50 646.52
00005199 00000105 928.65 262.36 366.42 514.12 980.73 464.03 1130.61 458.23 1021.78 565.16 1011.14 650.11 1142.59 645.28
00005200 00000106 928.87 262.75 365.88 513.00 980.84 464.16 1130.78 457.83 1021.95 564.76 1011.20 650.40 1142.29 645.18
00005201 00000107 929.03 261.28 365.52 514.52 980.74 463.95 1130.87 457.77 1022.13 564.82 1011.07 650.98 1142.07 645.92
00005202 00000108 930.41 261.60 366.43 513.76 976.91 459.68 1132.23 452.95 1020.57 567.76 1009.93 655.16 1143.27 648.63
00005203 00000109 929.35 258.49 368.31 515.90 976.47 458.65 1132.69 452.36 1020.33 567.39 1009.81 655.00 1142.23 648.91
00005204 00000110 929.87 257.07 367.13 516.93 976.04 457.83 1132.63 451.58 1018.69 566.07 1009.17 655.03 1141.51 648.98
00005205 00000111 930.89 262.80 366.02 510.72 975.97 456.86 1131.93 451.15 1017.32 564.64 1008.79 654.65 1139.39 649.12
00005206 00000112 931.41 257.73 366.30 515.63 976.60 456.68 1133.00 450.66 1017.49 563.24 1008.34 654.24 1140.05 648.62
00005207 00000113 933.09 260.04 365.18 514.20 983.98 461.73 1132.82 457.21 1021.19 559.72 1010.84 650.50 1139.86 647.07
00005208 00000114 934.99 259.70 365.18 511.25 979.78 462.10 1135.11 454.71 1017.89 558.55 1007.68 652.37 1140.50 645.69
00005209 00000115 936.28 256.66 365.02 517.11 985.92 459.65 1134.70 454.68 1021.90 551.66 1011.01 646.58 1140.94 643.02
00005210 00000116 937.60 248.78 365.27 521.48 986.72 453.82 1136.45 451.89 1022.25 547.14 1009.29 641.02 1141.69 639.98
00005211 00000117 938.62 242.03 366.62 524.11 986.65 447.03 1137.90 445.70 1023.21 540.95 1008.84 636.48 1141.29 635.76
00005212 00000118 941.05 239.37 367.47 522.03 987.46 439.86 1139.79 438.85 1024.27 531.38 1010.34 629.97 1140.36 629.65
00005213 00000119 940.72 226.62 370.06 532.54 987.02 440.15 1140.80 433.89 1014.93 531.42 1005.95 626.71 1135.82 621.84
00005214 00000120 944.99 219.33 366.55 535.31 992.11 440.28 1146.45 433.61 1021.66 525.14 1009.57 620.96 1141.08 615.96
00005215 00000121 947.88 219.85 365.19 528.06 996.62 436.11 1151.51 430.39 1024.93 518.16 1010.76 615.75 1141.15 611.97
00005216 00000122 950.22 216.81 364.62 524.28 1000.80 426.91 1152.87 422.34 1027.39 509.87 1012.96 607.49 1139.92 605.00
00005217 DELETE   952.54 209.73 361.44 522.85 1002.51 418.53 1149.73 415.12 1028.99 502.01 1014.54 602.07 1137.23 600.86
00005218 00000124 955.03 201.51 365.78 527.53 999.41 409.73 1160.38 405.51 1032.49 494.25 1011.59 605.33 1138.46 601.24
00005219 00000125 957.92 200.74 366.10 521.61 1002.41 404.20 1166.30 398.59 1037.88 489.36 1013.76 600.40 1142.08 595.32
00005220 00000126 961.71 192.18 364.70 523.71 1005.77 397.99 1168.95 394.25 1041.95 486.05 1014.73 594.33 1143.20 591.18
00005221 00000127 962.81 190.07 363.96 528.73 1008.17 394.61 1170.96 390.58 1042.50 482.66 1014.71 592.99 1147.83 589.83
00005222 00000128 962.85 189.70 364.20 534.35 1011.62 392.89 1170.07 387.72 1044.66 477.34 1020.66 591.13 1146.89 587.50
00005223 00000129 962.80 187.60 363.94 535.27 1015.64 389.87 1162.85 383.65 1042.34 468.55 1022.53 581.36 1151.07 579.50
00005224 00000130 963.15 187.41 365.67 534.34 1014.56 387.79 1163.33 379.93 1040.68 465.40 1021.58 579.35 1153.56 576.05
00005225 00000131 965.40 182.99 366.68 535.70 1014.94 385.70 1163.17 377.30 1037.76 461.43 1021.27 573.62 1156.06 569.73
00005226 00000132 965.87 179.91 367.85 536.53 1015.26 384.58 1164.22 375.41 1037.51 458.16 1021.06 570.60 1157.34 566.05
00005227 00000133 965.80 177.89 368.76 537.45 1015.09 384.47 1164.39 374.99 1037.23 456.23 1021.01 569.14 1157.59 564.23
00005228 00000134 965.93 177.87 369.30 535.65 1015.36 383.53 1164.67 373.52 1037.13 453.85 1020.79 568.02 1157.17 562.72
00005229 00000135 966.20 177.00 369.32 535.37 1015.29 383.16 1165.02 372.31 1037.07 451.56 1020.79 567.32 1157.36 561.24
00005230 00000136 966.63 179.03 368.55 532.56 1016.10 382.74 1166.99 371.35 1038.94 450.71 1021.49 566.77 1159.45 560.35
00005231 00000137 966.02 179.89 370.40 531.21 1016.54 383.24 1168.15 371.57 1040.45 450.07 1021.68 565.91 1160.43 559.24
00005232 00000138 966.04 178.16 371.00 528.48 1016.62 384.27 1170.15 372.85 1041.49 450.48 1020.67 564.55 1161.07 557.92
00005233 00000139 964.39 174.91 373.82 530.45 1015.62 384.11 1170.71 372.67 1042.51 451.06 1020.62 564.65 1160.11 557.85
00005234 00000140 964.79 175.22 372.83 528.48 1015.45 384.90 1171.25 372.73 1042.46 451.15 1020.74 565.63 1160.17 558.19
00005235 00000141 964.43 174.34 373.09 527.86 1015.10 385.71 1172.13 373.23 1042.78 451.27 1019.51 566.59 1159.55 558.93
00005236 00000142 963.88 172.81 372.41 527.38 1013.60 386.61 1170.85 374.67 1041.41 452.00 1017.70 567.53 1157.27 560.08
00005237 00000143 964.40 172.88 370.51 522.52 1012.83 387.07 1169.87 376.21 1040.27 452.98 1015.58 567.28 1155.48 560.50
00005238 00000144 964.25 172.71 369.87 518.54 1012.18 386.01 1169.41 377.03 1039.75 453.72 1014.40 566.03 1153.17 560.71
00005239 00000145 964.40 174.86 368.24 516.14 1011.24 387.43 1168.10 377.84 1038.54 454.59 1014.97 568.65 1152.22 562.66
00005240 00000146 962.79 176.97 367.36 520.67 1011.13 386.75 1166.95 378.68 1038.66 456.72 1015.70 570.04 1154.19 565.28
00005241 00000147 962.71 179.09 366.11 532.48 1011.67 388.33 1161.00 378.79 1035.41 457.05 1018.32 571.03 1154.05 565.37
00005242 00000148 962.93 180.08 361.55 525.71 1009.78 386.07 1157.58 378.62 1031.80 455.13 1014.74 569.08 1149.29 565.20
00005243 00000149 961.52 176.20 358.22 523.59 1006.56 378.73 1156.39 376.24 1027.53 452.41 1008.97 563.23 1144.30 563.63
00005244 00000150 961.71 169.33 356.11 528.89 1005.16 376.21 1155.86 374.59 1025.65 451.29 1007.55 562.39 1142.64 563.60
00005245 00000151 962.10 167.13 356.94 531.21 1004.71 377.96 1154.63 374.56 1025.65 451.78 1008.46 563.05 1144.46 562.54
00005246 00000152 961.57 170.82 361.85 526.69 1004.09 383.05 1154.86 375.71 1026.87 453.49 1010.19 566.29 1147.25 562.08
00005247 00000153 962.44 168.28 361.67 528.50 1004.56 384.64 1157.10 376.32 1030.41 454.14 1012.20 567.77 1148.75 562.86
00005248 00000154 962.50 171.77 363.89 524.35 1006.51 387.47 1159.66 376.69 1034.47 454.34 1014.76 567.82 1152.36 560.76
00005249 00000155 962.24 175.43 366.35 517.82 1008.69 389.41 1161.64 376.51 1038.52 455.70 1017.65 565.98 1155.40 557.16
00005250 00000156 961.77 176.33 366.55 515.26 1008.29 390.57 1162.35 376.28 1040.06 456.18 1017.94 566.48 1157.36 556.37
00005251 00000157 961.19 176.03 366.89 513.20 1007.63 389.67 1162.02 376.44 1039.51 456.65 1016.52 564.12 1156.62 554.80
00005252 00000158 961.08 177.38 366.57 512.54 1009.66 388.49 1161.55 378.79 1040.09 456.77 1015.89 560.11 1154.35 553.89
00005253 00000159 963.06 178.76 363.44 511.39 1010.53 387.97 1159.73 380.73 1037.53 457.69 1014.94 559.97 1151.06 555.96
00005254 00000160 963.81 176.97 361.87 516.77 1011.21 388.24 1158.17 383.07 1037.01 459.19 1014.68 560.28 1150.09 557.95
00005255 00000161 961.95 180.46 361.81 516.81 1009.33 389.19 1157.05 383.41 1035.64 461.58 1014.07 563.47 1149.76 560.56
00005256 00000162 961.55 179.41 360.35 519.54 1007.58 388.68 1155.59 382.80 1033.91 462.78 1013.26 567.15 1146.89 564.26
00005257 00000163 960.26 183.60 359.97 519.29 1006.15 390.92 1152.67 384.13 1031.84 465.18 1013.04 570.87 1144.54 567.32
