Video ID: 	kkXKHO_QBC0
H: 	1080
W: 	1920
FPS: 	25.0

FRAME INDEX X0 Y0 W H [Landmarks (5 Points)]

00053215 00000000 601.42 114.06 362.76 525.15 751.76 303.95 924.72 336.85 879.94 407.99 751.02 500.73 887.46 530.41
00053216 00000001 602.77 111.22 364.99 526.68 753.87 303.21 927.78 334.40 882.35 409.30 753.70 500.90 890.48 528.95
00053217 00000002 605.86 110.39 364.55 527.71 757.23 301.83 931.30 331.73 886.71 408.86 757.28 500.87 895.44 527.83
00053218 00000003 608.37 109.77 365.11 529.02 759.80 300.44 934.35 330.67 889.10 407.70 759.12 499.96 899.00 527.18
00053219 00000004 609.17 109.57 366.39 528.69 763.15 300.63 937.29 329.43 892.87 407.26 762.07 498.44 903.60 524.54
00053220 00000005 611.78 110.98 366.91 527.21 766.32 300.82 940.92 330.06 894.35 408.37 763.95 498.39 906.96 524.93
00053221 00000006 609.26 113.40 369.30 529.66 768.01 298.35 932.24 331.28 890.74 411.67 764.48 500.50 899.39 528.29
00053222 00000007 609.60 112.41 370.76 533.70 769.85 300.54 933.62 334.80 893.27 412.02 766.26 502.19 900.61 531.23
00053223 00000008 609.73 108.72 372.20 539.65 772.58 300.80 933.47 337.06 892.80 411.94 767.52 503.26 896.56 533.88
00053224 00000009 610.55 110.34 372.08 537.39 774.65 300.39 934.62 337.73 894.79 411.64 770.38 503.14 897.31 534.55
00053225 00000010 610.36 108.88 372.14 537.78 775.25 302.35 937.75 339.47 897.40 411.23 769.82 501.71 902.40 533.13
00053226 00000011 610.09 108.51 373.20 539.07 778.28 303.86 941.21 341.52 901.04 410.66 772.06 500.00 906.36 531.88
00053227 00000012 611.61 107.80 373.31 540.41 781.07 305.02 942.97 342.64 904.29 412.87 776.30 503.13 906.57 534.90
00053228 00000013 614.19 111.89 372.03 538.50 784.25 306.16 944.57 344.51 907.64 414.99 781.38 506.16 907.58 538.40
00053229 00000014 614.80 115.41 371.16 533.65 785.66 307.88 946.71 345.56 910.94 416.05 783.56 506.45 910.55 538.09
00053230 00000015 614.87 115.05 371.69 533.20 786.02 308.74 948.19 346.08 911.50 415.70 784.88 506.46 912.72 537.73
00053231 00000016 615.24 113.45 372.04 534.16 785.75 308.86 949.31 345.39 911.71 414.63 785.11 506.04 914.80 536.67
00053232 00000017 613.82 110.47 373.18 535.91 785.12 309.34 948.01 345.73 908.62 411.99 783.41 504.09 913.41 534.79
00053233 00000018 611.82 107.58 378.73 539.47 782.66 308.46 950.12 348.42 904.85 411.43 776.74 504.51 910.80 538.15
00053234 DELETE   610.75 105.39 375.40 541.70 781.75 310.63 945.77 351.03 902.93 411.46 774.39 504.91 906.07 538.99
00053235 00000020 611.38 107.80 371.86 538.06 777.06 306.10 941.51 339.01 900.17 410.61 774.50 500.62 909.22 528.71
00053236 00000021 610.65 107.07 372.46 537.24 775.42 304.64 939.28 336.18 897.73 409.48 774.19 499.46 908.59 526.30
00053237 00000022 610.07 107.30 373.40 538.85 773.37 303.16 937.83 334.83 895.75 409.73 772.29 500.45 906.79 527.26
00053238 00000023 610.36 106.64 373.76 542.78 773.29 300.12 935.75 332.92 894.81 411.29 772.16 503.71 901.80 531.38
00053239 00000024 611.68 108.02 371.26 540.55 773.95 299.78 932.08 331.46 893.11 413.06 775.16 506.26 897.46 532.84
00053240 00000025 611.96 109.93 370.16 537.36 771.60 299.34 931.00 329.53 891.11 412.64 774.03 506.00 897.24 531.33
00053241 DELETE   610.54 112.47 369.98 530.98 768.59 297.20 930.11 328.05 887.40 412.32 770.06 503.51 895.44 529.18
00053242 00000027 609.63 104.34 370.06 533.34 763.67 300.67 936.89 326.22 888.70 409.52 765.36 502.42 901.90 525.43
00053243 DELETE   609.60 102.07 368.29 537.27 764.43 297.63 933.48 322.29 888.33 408.26 765.73 501.35 898.08 523.72
00053244 DELETE   608.01 98.57 367.76 540.52 760.95 296.52 929.53 318.89 885.48 407.44 761.84 500.58 895.72 521.23
00053245 00000030 604.47 97.60 369.88 538.84 755.56 296.52 927.87 319.63 881.81 406.46 756.17 499.31 894.29 520.35
00053246 DELETE   602.97 100.50 369.68 537.00 752.82 297.01 926.99 321.74 880.12 406.18 752.91 499.20 893.21 521.51
00053247 DELETE   601.51 103.09 370.08 536.88 751.95 299.43 925.27 324.49 880.12 407.73 753.38 502.07 891.13 524.68
00053248 00000033 602.82 102.78 372.69 539.62 751.50 302.48 929.65 328.25 880.73 410.34 755.02 505.12 896.03 528.24
00053249 DELETE   605.54 103.10 371.10 538.57 754.92 303.00 934.23 326.64 887.22 409.76 760.78 505.50 903.38 526.79
00053250 DELETE   608.87 97.51 371.87 543.93 760.66 304.68 939.40 327.65 892.09 409.85 766.18 505.38 908.99 525.95
00053251 00000036 608.82 106.06 369.10 539.20 765.05 301.10 930.21 327.52 890.12 409.35 771.53 505.44 905.86 527.72
00053252 00000037 612.04 106.99 369.34 537.88 768.86 304.07 932.34 329.65 891.74 410.57 777.65 507.03 906.42 528.62
00053253 00000038 613.12 105.76 370.37 539.87 771.67 305.29 933.41 331.86 893.45 412.98 780.81 510.34 905.11 532.78
00053254 00000039 612.53 107.02 370.22 535.85 771.28 304.58 932.49 329.95 893.11 412.91 780.11 508.98 904.54 530.36
00053255 00000040 611.47 105.56 368.46 534.43 766.70 297.65 927.54 323.23 889.02 407.92 774.46 504.50 900.42 525.77
00053256 00000041 612.82 98.28 365.22 527.63 756.58 297.34 931.93 316.88 884.75 396.93 764.49 495.80 905.25 513.86
00053257 00000042 607.80 91.75 363.92 528.59 749.95 291.81 926.26 311.90 881.79 389.38 759.53 490.74 901.15 508.83
00053258 00000043 603.65 86.86 366.24 533.72 747.68 290.24 920.44 309.89 880.59 385.75 758.30 487.83 897.96 505.45
00053259 00000044 600.99 87.88 367.30 535.43 745.68 287.68 917.49 309.93 877.93 384.33 756.84 488.28 892.81 507.88
00053260 00000045 601.40 92.45 366.67 534.05 745.80 288.43 915.75 310.27 874.38 388.06 755.25 490.06 887.92 509.43
00053261 00000046 600.16 94.83 366.82 536.39 745.87 290.98 914.95 313.40 874.11 392.28 753.93 492.81 886.49 512.61
00053262 00000047 598.93 96.46 368.15 538.34 745.03 292.40 914.23 315.23 872.21 395.16 750.82 495.31 883.85 515.67
00053263 00000048 598.10 94.42 368.06 534.61 743.46 292.79 915.33 316.92 871.25 396.07 748.47 494.43 883.98 515.58
00053264 00000049 597.34 96.78 366.98 529.33 742.15 291.53 914.00 315.12 870.25 393.79 748.11 492.29 883.86 512.77
00053265 00000050 594.92 97.73 367.01 527.07 740.26 289.98 910.68 312.74 867.43 390.83 747.89 489.99 882.04 509.55
00053266 00000051 594.19 95.71 366.55 528.74 738.89 288.53 911.26 311.07 866.95 388.37 748.27 489.28 883.90 508.36
00053267 00000052 591.02 96.56 368.05 528.21 736.91 287.60 908.64 308.10 864.81 385.18 750.61 489.31 883.63 506.47
00053268 00000053 590.77 95.47 368.56 529.31 736.43 286.28 907.58 307.17 863.99 382.68 750.56 488.40 882.89 505.84
00053269 00000054 593.00 95.18 367.30 531.08 736.51 286.53 906.47 307.48 862.68 382.54 750.10 489.05 881.34 506.76
00053270 00000055 593.40 95.10 367.35 532.89 738.58 286.00 906.63 310.07 863.00 385.02 748.51 489.48 876.75 510.02
00053271 00000056 596.28 94.84 366.25 533.89 740.38 288.12 908.75 312.74 864.61 387.55 747.70 490.59 878.45 511.88
00053272 00000057 600.23 96.78 363.22 531.94 741.70 289.00 909.83 312.27 866.63 389.09 748.14 490.54 880.18 511.17
00053273 00000058 601.86 99.77 363.17 528.36 743.43 289.55 912.26 313.74 869.49 387.85 748.99 488.98 883.64 510.24
00053274 00000059 608.40 93.44 360.46 529.91 748.27 290.95 919.67 312.27 876.36 383.53 755.77 485.44 896.38 504.58
00053275 00000060 611.61 90.49 360.85 530.95 750.54 289.62 927.16 311.28 881.72 378.71 759.80 483.42 906.56 502.82
00053276 00000061 614.32 90.76 360.01 529.24 754.55 287.97 930.66 307.92 885.38 378.55 765.51 482.94 910.99 501.01
00053277 DELETE   618.83 95.07 358.36 523.65 758.85 288.20 933.54 309.83 887.70 377.96 769.24 481.79 912.62 501.50
00053278 00000063 621.87 97.14 359.16 524.67 761.69 288.06 936.68 311.70 889.08 378.48 769.07 480.98 914.61 502.47
00053279 00000064 618.32 99.11 364.92 528.67 765.21 281.05 932.56 310.46 888.39 384.37 770.13 485.71 907.99 509.86
00053280 00000065 620.49 100.48 366.88 530.14 768.05 281.95 935.25 311.80 888.34 385.24 771.85 486.39 907.07 510.76
00053281 00000066 623.64 101.05 368.12 533.13 770.62 282.40 936.39 312.76 887.55 385.37 775.91 489.12 904.89 513.63
00053282 00000067 625.17 99.56 367.81 537.74 773.15 283.25 936.62 313.06 889.18 387.26 779.53 491.71 904.23 515.92
00053283 00000068 625.13 98.37 369.20 539.45 773.89 284.83 937.15 313.48 889.78 388.46 780.63 493.67 904.48 517.03
00053284 00000069 625.43 101.70 369.81 535.50 774.43 286.00 937.76 314.87 889.80 388.64 781.97 494.08 905.15 517.52
00053285 00000070 626.03 101.56 368.97 533.84 774.83 287.40 937.40 315.65 889.99 389.23 783.09 495.03 904.89 517.88
00053286 00000071 626.67 102.30 368.15 533.09 774.94 287.58 938.14 315.65 890.60 389.84 783.17 495.80 905.51 518.57
00053287 00000072 627.17 101.02 367.75 534.49 776.13 289.85 938.36 316.80 891.94 390.67 784.56 496.38 906.93 518.35
00053288 00000073 627.37 102.30 367.93 534.35 776.84 290.19 940.12 317.15 893.45 392.81 783.74 496.24 908.23 518.32
00053289 00000074 628.77 101.77 367.79 535.82 778.59 291.44 941.58 318.67 894.89 393.62 784.93 497.08 909.28 519.47
00053290 00000075 629.38 102.75 368.59 536.88 780.39 293.58 942.64 320.74 896.67 395.58 786.29 498.47 910.01 520.95
00053291 00000076 629.81 104.08 369.01 535.76 781.63 294.85 944.04 321.87 898.04 396.54 787.31 499.06 911.36 521.43
00053292 00000077 630.02 104.55 369.67 535.53 781.92 295.31 945.10 321.92 898.38 396.40 787.64 498.78 912.64 520.85
00053293 00000078 631.14 105.67 369.02 532.64 782.36 294.78 946.87 321.92 899.29 395.75 788.53 498.25 914.55 520.66
00053294 00000079 630.44 105.41 370.17 532.57 782.65 294.97 947.58 322.06 899.92 395.91 788.56 498.06 915.44 520.42
00053295 00000080 629.65 108.30 370.26 530.10 782.01 295.64 947.73 322.99 900.01 396.80 788.15 498.19 915.48 520.73
00053296 00000081 630.08 108.90 370.43 528.75 782.80 296.11 948.20 323.64 900.50 397.38 788.60 498.48 915.30 521.14
00053297 00000082 631.21 110.20 369.76 527.07 783.15 296.48 949.11 324.27 900.67 397.36 789.33 498.66 916.17 521.54
00053298 00000083 630.17 108.04 369.96 529.33 783.72 297.35 949.33 326.34 901.58 397.38 788.61 497.91 916.59 521.77
00053299 00000084 629.29 107.47 370.40 530.17 783.35 297.76 950.00 326.48 902.06 396.96 788.09 496.79 918.23 520.43
00053300 00000085 630.03 108.47 368.89 528.08 783.52 298.32 950.97 327.36 902.75 397.42 787.03 496.20 919.50 520.31
00053301 00000086 630.87 109.62 366.81 524.92 782.60 298.70 951.94 329.13 903.00 397.77 785.61 496.97 920.63 522.32
00053302 00000087 630.73 110.03 366.49 524.07 782.42 299.96 952.12 330.55 902.43 398.27 785.66 497.31 920.88 522.73
00053303 00000088 631.59 110.88 366.42 523.72 783.30 299.30 952.84 330.28 903.08 398.35 786.06 497.13 920.60 522.87
00053304 00000089 631.80 108.48 366.45 525.75 784.14 299.24 952.17 329.57 903.10 398.82 786.64 497.81 918.88 523.00
00053305 00000090 631.95 108.00 366.15 525.60 784.18 298.62 952.86 329.81 903.67 398.77 785.26 497.54 918.87 523.58
00053306 00000091 632.82 106.70 366.42 526.58 785.16 296.67 954.63 329.36 905.19 396.69 784.61 496.44 919.31 523.75
00053307 00000092 634.14 103.78 366.45 531.55 787.12 294.70 955.07 328.06 906.60 395.64 785.27 496.09 918.47 524.01
00053308 00000093 636.45 103.58 366.58 535.79 789.06 294.11 955.42 327.64 907.42 397.17 787.24 498.50 916.34 526.67
00053309 00000094 637.20 108.34 365.78 529.52 790.82 297.23 956.80 328.99 909.12 399.11 790.48 498.31 919.63 525.07
00053310 00000095 637.51 107.66 368.91 533.64 793.61 297.97 960.57 328.01 913.16 400.35 795.96 499.55 924.96 524.71
00053311 00000096 638.12 108.37 368.60 531.54 793.76 301.52 962.27 329.93 914.00 399.62 798.78 498.46 929.51 522.33
00053312 00000097 642.19 110.05 370.28 527.70 800.26 305.11 968.88 336.71 918.85 397.55 803.17 495.72 934.49 522.31
00053313 00000098 647.69 112.77 364.77 524.55 804.18 308.55 972.72 340.98 924.63 398.41 805.90 496.67 939.75 524.36
00053314 00000099 651.44 113.86 360.62 521.99 806.00 305.42 970.96 336.69 928.51 402.17 807.68 497.43 938.00 524.37
00053315 00000100 652.93 114.15 362.60 521.80 807.51 300.96 972.55 331.42 931.61 401.62 810.59 496.57 939.17 522.74
00053316 00000101 654.92 112.31 363.30 523.12 810.98 300.69 975.98 331.57 935.45 400.37 813.90 494.32 943.14 520.69
00053317 00000102 656.62 111.33 361.37 522.60 813.82 300.10 977.54 332.83 938.26 400.46 817.01 494.21 944.57 522.19
00053318 00000103 658.69 110.10 362.61 524.05 816.48 297.74 981.12 331.99 942.04 399.77 819.02 493.51 946.94 522.85
00053319 00000104 660.04 109.87 364.30 526.16 817.89 296.48 982.43 331.82 943.27 400.61 817.87 493.65 945.82 524.10
00053320 00000105 661.57 109.27 365.12 527.10 819.04 295.88 982.39 332.04 943.35 400.44 817.95 493.63 944.77 524.97
00053321 00000106 663.60 112.04 364.04 522.97 819.57 294.47 984.23 332.02 942.68 400.79 817.02 493.44 943.66 526.16
00053322 00000107 664.78 113.10 363.39 520.86 820.07 294.67 986.35 331.33 943.57 400.04 817.64 492.10 946.85 524.03
00053323 00000108 666.35 111.28 361.77 520.08 822.36 295.24 989.80 333.67 947.97 400.04 818.59 490.53 949.98 524.14
00053324 00000109 666.86 109.63 361.75 519.28 823.09 295.21 990.70 332.33 947.44 400.46 819.53 490.43 950.37 522.78
00053325 00000110 667.62 110.06 361.14 518.06 823.39 294.32 990.58 331.44 946.24 400.59 819.49 490.20 949.15 522.58
00053326 00000111 667.17 110.55 362.12 519.89 823.97 294.09 990.33 332.15 945.13 401.57 818.14 490.63 946.74 523.96
00053327 00000112 664.50 112.91 364.37 521.76 822.94 296.62 988.53 336.92 943.30 402.06 815.05 492.15 943.69 527.66
00053328 00000113 665.56 112.90 367.20 522.03 822.06 297.76 990.98 339.13 942.28 400.38 814.03 493.35 944.16 529.79
00053329 00000114 663.32 113.20 367.04 521.31 821.10 301.56 988.34 341.81 940.88 400.15 815.42 493.33 945.58 528.56
00053330 00000115 661.69 111.75 363.55 523.34 820.47 297.88 984.19 337.63 941.05 399.96 816.73 492.79 942.96 527.40
00053331 00000116 660.77 114.07 361.18 521.00 819.19 295.32 982.48 336.00 940.41 398.77 816.99 491.77 941.56 526.81
00053332 00000117 659.19 114.86 362.40 522.34 818.60 294.60 978.71 335.60 937.59 399.37 814.88 491.61 936.34 526.94
00053333 00000118 657.49 112.41 364.66 532.52 817.03 294.64 976.12 338.54 936.43 398.71 809.58 493.42 931.81 531.54
00053334 00000119 655.13 112.98 366.14 536.92 817.29 297.44 975.22 342.71 936.63 401.30 808.10 495.79 930.30 535.05
00053335 00000120 654.71 118.64 364.73 529.23 814.52 304.82 979.58 353.14 936.39 401.38 805.40 495.41 937.85 537.30
00053336 00000121 654.39 122.07 364.03 530.43 816.59 313.80 981.95 365.63 940.97 404.46 807.02 499.30 942.19 544.37
00053337 00000122 655.03 126.51 361.81 534.10 817.51 320.87 982.91 372.93 944.83 412.60 809.25 508.20 943.91 553.68
00053338 00000123 655.60 132.39 361.01 533.06 814.16 324.13 980.74 369.87 940.69 422.56 808.97 516.26 941.28 556.52
00053339 00000124 656.46 144.83 360.22 527.91 814.34 325.73 980.45 373.67 939.56 424.76 809.06 520.88 939.76 562.65
00053340 00000125 657.83 147.23 357.68 527.50 815.49 327.75 981.23 377.47 941.05 425.32 810.20 522.36 940.77 565.54
00053341 00000126 657.64 145.03 356.79 526.65 815.83 328.36 980.80 378.07 941.39 422.30 813.82 521.65 943.00 564.57
00053342 00000127 654.72 141.71 361.01 524.88 814.42 327.77 982.64 379.90 941.62 413.07 813.08 515.68 947.21 560.15
00053343 00000128 649.34 138.86 364.14 518.70 811.81 329.75 982.17 380.59 940.50 408.89 813.26 511.90 949.49 554.70
00053344 00000129 643.69 138.76 364.21 513.22 807.98 329.59 979.07 380.88 936.20 407.89 810.04 508.45 947.10 551.27
00053345 00000130 638.95 136.42 364.76 512.30 805.16 328.75 977.07 383.01 934.18 406.02 806.51 505.33 944.77 550.36
00053346 00000131 633.63 139.23 366.13 507.78 801.40 327.94 975.54 383.82 929.93 406.82 801.31 502.89 941.60 548.95
00053347 00000132 632.18 136.09 367.12 510.19 798.55 326.28 971.72 383.53 924.05 405.26 796.00 501.07 935.95 548.25
00053348 00000133 628.82 136.88 364.27 515.84 795.09 321.54 962.91 382.48 921.19 404.86 790.59 502.53 925.06 552.80
00053349 00000134 623.92 135.90 366.01 518.31 792.54 321.57 956.05 380.53 916.55 407.28 787.68 504.06 917.80 552.59
00053350 00000135 620.43 139.93 362.29 515.83 791.96 321.23 951.59 381.60 915.07 410.51 784.17 504.55 911.12 554.29
00053351 00000136 618.43 146.35 361.75 511.75 789.33 321.82 950.46 379.52 913.50 413.08 782.95 506.88 912.31 554.34
00053352 00000137 615.91 154.74 361.02 504.71 785.28 324.19 946.59 378.85 908.71 418.70 780.04 510.51 910.01 555.52
00053353 00000138 616.95 156.83 356.48 503.39 779.90 323.95 944.37 376.14 904.00 421.22 776.22 513.37 908.65 556.59
00053354 DELETE   614.32 161.59 356.73 501.89 776.17 322.43 940.21 377.78 899.15 423.35 770.58 514.65 903.44 560.49
00053355 00000140 610.71 164.14 362.07 499.02 761.05 328.95 937.84 381.57 893.25 414.16 761.65 513.46 904.74 557.82
00053356 00000141 608.32 162.02 362.37 500.44 759.32 329.32 936.28 379.63 891.44 417.61 759.68 512.57 904.61 555.14
00053357 00000142 608.21 158.46 361.28 504.54 758.60 329.49 934.59 380.33 889.11 417.48 756.76 512.54 901.46 555.85
00053358 00000143 607.63 156.30 359.33 506.62 758.91 328.88 934.35 382.40 889.76 415.36 754.68 511.58 899.72 557.37
00053359 00000144 606.74 154.38 358.99 506.91 758.06 327.01 931.71 380.92 886.60 414.90 753.96 511.14 895.57 557.37
00053360 00000145 604.88 154.31 358.80 505.62 757.20 326.07 929.11 381.17 884.63 413.75 752.86 511.40 890.81 558.86
00053361 00000146 605.46 152.71 357.09 507.94 756.12 325.45 927.14 379.96 882.25 412.30 750.85 511.61 887.91 558.77
00053362 00000147 605.44 153.71 355.71 509.03 755.74 324.33 925.24 381.10 881.05 410.01 748.90 511.35 884.53 560.36
00053363 00000148 604.85 153.38 355.61 510.81 755.16 323.91 923.79 380.96 879.81 408.08 748.11 511.67 882.76 560.91
00053364 00000149 604.36 152.77 355.52 511.92 754.79 323.14 922.36 380.95 877.97 406.62 746.68 510.35 880.62 560.22
00053365 00000150 604.35 152.63 354.66 512.33 753.75 323.18 920.87 380.31 876.21 406.89 746.09 510.71 879.20 560.03
00053366 00000151 602.79 152.31 354.25 514.09 753.26 323.31 918.82 380.24 875.39 407.67 744.89 511.05 877.39 560.22
00053367 00000152 601.19 152.27 353.15 514.88 752.24 323.84 916.59 381.00 874.29 408.71 743.46 511.75 874.94 561.05
00053368 00000153 599.71 154.14 351.77 514.70 751.12 323.53 915.39 382.07 873.59 408.66 741.17 511.95 872.89 562.37
00053369 00000154 596.69 153.53 352.16 516.79 751.07 323.67 912.20 382.60 870.74 409.23 739.65 512.42 868.36 562.97
00053370 00000155 595.31 152.99 351.11 520.22 749.09 324.27 908.55 382.03 868.24 408.80 737.95 514.10 865.75 563.80
00053371 00000156 593.03 150.15 352.59 524.19 747.63 323.97 906.82 381.24 866.47 408.81 736.57 515.41 863.78 564.72
00053372 00000157 590.20 146.80 355.46 514.40 746.46 326.51 907.78 381.51 866.51 412.07 738.43 510.04 867.58 557.32
00053373 00000158 590.68 151.82 353.78 506.05 747.72 328.23 912.67 381.81 870.13 415.52 739.96 509.09 872.96 555.16
00053374 00000159 592.06 155.24 353.63 502.75 749.28 329.19 913.82 381.47 870.73 418.43 742.51 510.12 874.20 555.04
00053375 00000160 594.98 154.81 352.91 507.24 751.20 328.91 916.37 382.46 872.86 419.98 744.20 511.91 876.57 558.14
00053376 00000161 596.94 154.72 353.01 507.35 753.11 328.02 919.41 383.50 874.89 418.95 744.77 510.96 878.87 558.77
00053377 00000162 599.18 155.79 353.81 506.82 753.48 327.05 921.50 384.61 876.15 416.84 744.01 509.82 880.00 559.50
00053378 DELETE   599.92 155.91 354.80 509.13 754.63 326.25 923.59 385.64 879.19 415.74 744.49 509.98 882.15 561.20
00053379 00000164 601.79 159.25 354.77 504.17 754.43 326.66 923.60 385.85 878.98 416.17 744.97 510.85 881.51 561.84
00053380 00000165 603.23 159.92 354.82 508.02 755.84 326.83 925.05 387.04 880.71 416.24 745.44 513.10 881.89 564.84
00053381 00000166 603.41 158.53 357.17 512.20 755.69 327.60 926.25 385.75 881.24 418.02 745.22 515.16 884.22 565.16
00053382 00000167 604.35 163.22 359.97 507.78 756.91 328.02 927.99 385.70 881.36 420.48 746.22 516.51 884.42 566.08
00053383 00000168 606.20 165.42 362.70 510.15 758.30 328.78 930.71 386.96 881.10 421.56 745.78 519.24 885.68 568.96
00053384 00000169 613.69 173.23 355.30 505.58 758.68 332.02 927.38 383.95 869.80 426.03 744.80 526.66 877.46 571.81
00053385 00000170 614.67 172.11 355.77 508.06 760.70 333.73 928.70 386.51 871.96 426.81 747.07 527.75 879.00 573.69
