Video ID: 	kx9YEe5lRaw
H: 	1080
W: 	1920
FPS: 	25.0

FRAME INDEX X0 Y0 W H [Landmarks (5 Points)]

00007054 00000000 518.28 160.60 498.57 760.81 775.52 458.77 967.52 461.62 944.48 609.74 778.02 726.22 950.12 727.85
00007055 00000001 519.81 159.95 489.08 748.33 767.83 464.20 963.38 459.53 948.83 598.45 776.66 717.92 944.42 714.65
00007056 00000002 511.34 150.64 490.54 761.99 762.88 460.10 957.94 454.86 943.99 592.72 771.78 715.60 942.25 711.09
00007057 00000003 498.56 153.78 492.15 766.48 752.81 454.97 938.42 446.64 919.71 594.55 768.17 719.30 929.49 712.51
00007058 00000004 481.30 146.29 492.35 775.92 734.48 448.48 922.53 444.18 903.95 588.60 752.76 721.73 912.54 717.32
00007059 DELETE   470.39 147.71 490.01 775.87 723.71 444.02 910.73 439.17 895.96 583.30 739.33 718.88 902.10 713.48
00007060 00000006 456.66 145.99 492.39 778.25 716.19 440.61 900.53 431.96 894.20 581.11 727.69 717.74 897.65 709.51
00007061 DELETE   447.44 141.95 489.42 769.88 697.74 444.07 884.81 429.71 882.76 573.29 717.33 709.87 883.17 698.38
00007062 DELETE   438.85 137.92 489.74 761.54 685.35 443.41 872.66 425.17 870.52 570.18 710.31 702.10 875.18 686.97
00007063 DELETE   422.27 147.27 496.93 742.28 677.54 442.36 866.71 417.83 859.36 571.89 700.68 704.46 864.23 684.47
00007064 00000010 413.17 145.49 499.67 740.51 666.16 439.55 859.77 413.94 850.01 570.54 688.26 700.98 858.20 679.79
00007065 00000011 405.02 144.81 500.99 740.58 658.19 439.39 851.34 415.37 839.92 571.23 676.12 698.92 849.14 678.73
00007066 00000012 403.72 146.15 497.73 741.16 655.54 441.58 848.04 417.25 835.47 575.95 667.34 698.23 844.43 677.89
00007067 00000013 401.82 147.89 498.49 739.67 650.96 441.82 843.93 416.35 830.52 576.77 659.93 697.31 840.99 675.97
00007068 00000014 402.19 145.64 497.68 737.37 650.51 444.03 844.98 415.77 831.03 579.30 662.07 697.59 842.87 673.91
00007069 00000015 404.07 145.50 497.31 734.69 654.34 445.81 849.07 415.26 836.15 580.70 665.14 696.02 847.11 670.71
00007070 00000016 406.38 146.09 495.71 736.87 663.67 441.89 851.76 413.53 845.24 577.07 671.08 694.95 847.64 671.72
00007071 00000017 416.72 140.78 494.91 758.26 681.46 440.05 863.23 412.06 867.36 573.95 683.68 699.28 858.28 677.57
00007072 00000018 431.03 145.51 486.95 756.60 696.96 441.70 870.18 419.13 878.70 574.95 689.83 696.46 865.31 678.20
00007073 DELETE   435.11 139.49 489.90 746.30 705.46 436.96 880.71 415.29 885.34 569.02 704.87 689.31 875.26 670.90
00007074 00000020 443.29 134.93 488.67 745.49 710.65 440.05 881.20 412.16 896.77 565.75 720.82 689.13 880.93 667.47
00007075 00000021 447.04 132.09 486.21 747.96 715.08 439.12 883.80 412.82 898.16 566.91 723.97 689.95 881.03 669.66
00007076 00000022 451.33 130.01 486.52 752.27 716.47 438.11 888.40 413.29 898.20 567.92 724.99 692.20 883.64 673.35
00007077 00000023 453.27 130.86 490.03 754.70 717.07 437.80 893.19 417.51 897.65 570.39 726.05 695.81 885.88 680.54
00007078 00000024 454.36 135.51 493.05 750.81 713.04 442.86 897.21 425.61 891.87 575.86 722.41 699.92 884.68 686.90
00007079 00000025 456.67 136.73 494.35 751.24 710.31 443.25 900.18 429.64 886.14 578.60 720.71 701.77 885.23 691.42
00007080 00000026 461.28 137.71 491.97 755.36 711.09 443.88 901.16 431.83 883.63 583.23 720.16 704.24 885.52 695.11
00007081 00000027 465.58 136.36 492.14 760.86 715.74 444.86 906.56 436.82 886.88 588.60 721.93 708.16 886.40 702.46
00007082 00000028 469.98 136.46 495.02 760.94 718.87 446.73 910.75 438.47 889.75 591.34 720.93 710.54 886.08 704.90
00007083 00000029 475.33 132.38 494.32 766.31 722.16 448.83 916.15 441.17 892.14 596.15 721.42 710.69 891.08 705.34
00007084 00000030 479.37 144.89 492.14 760.49 720.15 452.02 920.36 451.39 881.34 605.40 726.31 714.67 893.20 713.11
00007085 00000031 481.07 149.49 494.41 754.28 719.68 455.24 924.10 455.81 880.61 611.12 721.98 713.46 895.69 713.04
00007086 00000032 484.31 154.39 494.90 749.17 720.23 457.10 925.37 459.36 878.86 614.65 720.55 712.33 896.65 713.37
00007087 00000033 483.77 155.87 496.33 755.09 724.37 458.10 926.54 462.30 882.78 615.18 719.19 713.68 897.93 716.55
00007088 00000034 484.93 156.47 497.68 758.08 726.28 457.52 927.70 463.87 882.47 615.87 712.78 713.64 896.00 718.64
00007089 00000035 484.50 156.43 499.01 754.96 725.06 457.92 928.51 464.94 881.70 616.56 715.47 711.90 897.51 717.24
00007090 00000036 486.76 157.09 497.38 745.39 724.50 458.33 928.04 462.03 881.59 614.83 719.97 707.46 899.99 710.14
00007091 00000037 486.86 156.33 496.22 746.04 724.46 456.16 927.40 459.30 881.51 613.07 722.45 707.94 899.31 710.05
00007092 00000038 483.76 152.85 496.86 749.12 722.77 452.85 925.73 457.16 879.07 611.60 720.42 708.28 895.21 711.22
00007093 00000039 482.00 153.62 494.92 749.36 720.90 450.51 923.51 455.28 877.60 610.24 718.97 709.94 890.87 713.23
00007094 00000040 479.29 135.01 497.61 766.77 723.34 449.15 919.06 451.82 886.21 601.72 719.90 711.44 889.33 713.82
00007095 00000041 478.21 134.76 497.11 771.24 723.48 450.91 918.66 451.39 887.54 600.74 726.20 717.19 890.89 717.57
00007096 00000042 477.66 132.60 495.60 773.60 723.95 450.22 918.43 448.64 889.12 600.28 729.64 717.38 893.88 715.73
00007097 00000043 475.60 131.82 495.37 781.70 723.53 449.45 916.35 447.82 889.03 598.50 728.80 720.05 891.63 718.56
00007098 00000044 474.03 132.00 495.87 785.46 721.86 449.55 915.83 449.03 889.19 598.69 726.32 722.73 890.75 722.16
00007099 00000045 473.13 135.44 496.94 777.48 721.28 449.73 915.02 449.05 888.32 599.32 722.46 719.00 888.91 718.69
00007100 00000046 477.73 142.22 492.14 741.37 718.60 452.83 917.33 451.81 884.82 604.81 721.11 716.53 884.58 716.36
00007101 00000047 478.25 141.70 492.90 740.20 719.19 454.07 918.42 453.59 885.12 605.65 722.23 715.50 885.56 715.64
00007102 00000048 481.39 142.27 492.74 739.82 720.29 453.04 920.92 454.39 886.16 606.27 720.97 714.57 887.75 716.17
00007103 00000049 484.80 144.05 493.27 747.13 722.27 452.81 922.59 456.88 887.76 606.82 721.21 714.25 890.20 717.93
00007104 00000050 488.11 150.30 497.31 742.88 727.32 459.50 929.01 464.09 892.11 612.85 721.56 719.02 891.69 723.85
00007105 00000051 497.88 152.93 495.57 755.80 745.64 468.41 943.73 471.76 911.52 629.83 729.85 726.80 897.82 730.55
00007106 00000052 503.27 154.02 498.84 753.49 755.16 478.70 955.16 483.73 920.96 646.79 740.91 736.24 915.86 740.89
00007107 00000053 517.71 159.32 500.82 748.27 768.37 484.79 971.57 490.49 932.71 651.75 753.35 744.10 925.69 749.20
00007108 00000054 526.75 163.75 499.93 741.00 778.42 490.37 978.55 493.08 941.57 655.49 770.06 750.54 935.25 753.08
00007109 00000055 534.40 166.29 496.52 737.23 785.76 488.88 984.74 489.72 947.56 656.28 780.88 751.23 944.31 752.23
00007110 00000056 537.19 168.46 493.75 735.53 790.51 484.08 987.66 485.04 952.85 649.41 785.82 746.91 949.93 748.12
00007111 00000057 543.53 164.30 489.27 727.17 789.09 481.48 986.55 484.27 955.57 633.44 789.46 735.86 948.81 738.84
00007112 00000058 540.85 157.74 491.94 731.05 789.55 476.92 986.57 479.34 957.89 628.91 788.62 730.01 949.02 732.36
00007113 00000059 538.51 157.58 491.89 729.63 788.24 475.35 984.72 478.74 957.28 627.24 785.88 727.93 947.12 731.01
00007114 00000060 535.81 159.36 493.74 729.65 786.77 474.90 982.38 477.41 956.61 626.88 783.23 726.93 945.72 729.45
00007115 00000061 531.96 156.72 494.51 735.81 786.22 473.69 980.45 477.03 957.71 628.60 778.57 728.12 941.36 731.69
00007116 00000062 529.95 156.39 493.44 735.96 786.31 471.54 979.18 476.17 957.86 627.02 773.77 723.51 938.27 728.34
00007117 00000063 529.29 151.29 493.91 742.13 788.66 468.54 980.23 474.74 959.84 624.47 771.95 719.96 937.46 726.23
00007118 00000064 527.24 150.65 495.75 741.56 788.85 466.50 980.40 474.15 959.51 624.31 769.89 719.05 934.67 726.68
00007119 00000065 525.08 150.08 498.83 746.81 787.30 461.66 979.99 473.08 957.62 622.26 763.75 718.18 930.89 729.22
00007120 00000066 523.30 150.64 498.42 744.75 783.95 459.26 977.50 472.66 952.96 619.43 761.08 715.44 927.85 728.09
00007121 00000067 522.03 148.77 497.36 742.94 781.51 457.09 976.18 471.47 949.87 616.90 757.17 710.48 926.48 723.73
00007122 00000068 522.48 146.86 496.00 742.47 780.69 454.29 975.33 468.06 948.88 613.82 757.39 708.05 925.29 720.91
00007123 00000069 522.15 148.93 494.33 739.58 779.48 453.14 974.09 466.96 947.28 612.40 758.29 706.41 925.88 719.08
00007124 00000070 521.75 149.47 492.32 737.83 778.41 453.24 972.70 465.82 946.27 610.88 760.79 708.12 925.07 719.69
00007125 00000071 520.29 150.58 492.46 733.92 777.21 454.62 972.34 466.23 946.05 611.66 763.32 710.73 925.00 721.39
00007126 00000072 520.16 151.09 493.71 731.66 776.83 458.07 971.46 465.15 945.82 612.01 765.07 712.01 924.13 719.10
00007127 00000073 521.37 151.16 490.39 728.88 778.58 464.23 973.45 470.95 948.94 613.99 768.83 715.00 925.51 721.70
00007128 00000074 521.09 152.18 492.69 729.67 780.66 462.68 976.41 468.45 953.08 614.41 771.55 716.21 929.41 722.21
00007129 00000075 521.84 151.63 491.22 730.81 780.53 460.73 975.21 464.20 953.42 612.62 775.22 717.35 932.02 721.17
00007130 00000076 524.03 150.22 491.88 746.67 784.30 456.36 975.10 464.37 955.67 610.10 775.75 719.17 933.65 726.59
00007131 00000077 524.39 148.72 491.72 750.66 785.80 454.96 976.55 466.63 957.37 610.08 769.90 716.90 933.03 727.59
00007132 00000078 528.08 150.32 493.10 744.79 788.36 453.76 980.88 469.81 957.81 611.23 770.60 716.58 933.22 730.98
00007133 00000079 530.55 153.81 497.02 740.37 792.02 458.17 983.19 473.59 961.19 613.85 773.32 717.08 934.77 731.31
00007134 00000080 530.57 160.47 497.59 743.26 798.65 460.30 988.22 477.23 960.08 628.74 776.21 727.36 940.57 741.78
00007135 00000081 543.39 158.62 491.47 732.85 801.98 464.20 993.89 483.27 965.82 620.67 782.97 720.05 942.51 736.89
00007136 00000082 554.49 164.10 488.01 723.60 807.22 469.01 1000.36 486.41 968.20 624.47 791.39 723.54 948.34 739.11
00007137 00000083 549.15 165.49 491.82 739.35 815.05 467.14 1003.42 483.87 971.34 634.74 793.53 733.64 950.78 748.02
00007138 00000084 554.00 168.01 492.54 737.35 816.80 467.73 1004.82 480.51 975.11 634.87 801.37 737.34 956.31 748.54
00007139 00000085 560.43 170.24 488.87 730.73 817.17 468.44 1004.67 479.38 975.74 633.67 804.42 737.56 958.69 747.49
00007140 00000086 559.00 171.51 490.87 730.10 816.27 468.27 1005.11 477.67 977.32 632.96 803.54 737.12 960.82 745.68
00007141 00000087 557.20 171.84 492.18 729.79 814.06 465.34 1004.26 473.92 977.08 628.36 802.93 734.90 962.91 742.57
00007142 00000088 558.67 171.82 489.80 720.40 804.88 469.35 1003.89 477.21 976.33 620.65 796.97 729.52 960.62 737.76
00007143 00000089 549.23 166.01 490.98 735.20 803.71 464.62 996.91 471.60 967.09 622.11 794.61 732.01 960.08 738.11
00007144 00000090 547.76 163.51 487.73 727.51 790.48 469.03 987.79 474.46 960.57 617.14 790.30 728.64 952.23 734.06
00007145 00000091 535.46 161.55 491.78 730.29 783.51 469.19 980.25 471.49 955.58 616.11 786.04 728.07 947.43 730.74
00007146 00000092 529.51 164.48 492.12 727.10 773.51 469.49 975.72 467.92 950.03 616.10 777.58 727.38 945.37 726.83
00007147 00000093 523.74 160.18 495.04 730.94 768.97 471.66 974.74 470.52 947.75 615.75 770.91 725.93 942.23 725.82
00007148 00000094 518.93 154.74 495.96 736.07 764.31 471.53 971.08 467.07 947.07 611.56 767.62 724.08 941.82 721.17
00007149 00000095 514.48 153.76 491.62 739.95 760.69 466.59 962.23 458.00 942.36 607.75 767.77 723.08 938.41 716.50
00007150 00000096 509.94 153.18 492.90 740.76 756.37 460.75 957.12 453.97 937.74 602.54 771.84 722.05 936.52 716.44
00007151 00000097 506.96 154.99 492.41 730.81 750.93 460.44 953.70 451.86 932.40 601.49 770.68 718.86 936.39 711.32
00007152 00000098 504.75 148.58 495.71 737.40 741.10 458.61 949.31 446.31 923.71 597.39 769.92 718.36 938.27 707.29
00007153 00000099 501.69 143.30 494.45 740.56 736.39 456.28 946.58 444.09 919.11 596.33 768.44 718.06 936.74 706.67
00007154 00000100 501.51 143.19 494.95 744.48 732.33 453.84 943.05 443.82 915.10 595.08 765.65 719.62 934.47 709.79
00007155 00000101 498.81 142.32 495.03 742.71 731.41 451.78 941.55 445.37 912.55 598.22 759.02 717.94 928.16 711.18
00007156 00000102 499.02 143.99 491.62 737.06 731.85 450.30 940.56 446.67 911.17 597.55 752.50 712.74 922.31 708.66
00007157 00000103 500.96 148.33 493.23 749.87 734.34 448.86 940.32 447.54 912.00 595.94 746.92 712.80 921.69 710.99
00007158 00000104 502.89 149.62 492.08 751.94 737.50 450.98 941.18 449.53 914.34 598.62 742.41 712.42 919.98 711.00
00007159 00000105 502.84 150.83 494.00 763.22 740.82 451.80 942.77 452.07 918.65 599.60 741.05 715.44 920.98 715.71
00007160 00000106 502.98 151.29 495.99 761.11 744.91 452.44 945.75 454.25 922.23 601.40 741.57 716.76 921.08 718.46
00007161 00000107 507.74 156.20 494.63 754.58 748.27 455.45 948.44 456.04 925.30 603.64 743.40 718.55 921.72 719.71
00007162 00000108 514.58 159.23 495.09 740.29 754.28 458.40 957.58 459.38 928.31 608.40 748.15 714.39 928.18 715.81
00007163 00000109 522.18 162.60 494.11 729.81 761.36 462.20 964.02 463.02 932.71 612.82 754.13 712.51 931.79 714.30
00007164 00000110 527.95 163.02 492.40 727.22 767.22 466.19 969.31 468.03 937.05 616.32 760.73 714.19 937.00 716.49
00007165 00000111 534.63 165.99 490.12 722.38 774.41 471.02 973.43 472.19 941.73 621.43 769.13 718.26 940.25 720.09
00007166 00000112 537.00 169.53 491.04 725.09 785.16 474.33 977.45 474.56 943.88 633.98 778.50 726.68 947.97 727.25
00007167 00000113 542.49 171.13 492.89 726.22 793.67 479.53 986.12 479.82 953.92 637.51 786.98 733.79 954.22 734.53
00007168 00000114 549.32 172.34 490.91 729.80 801.04 483.54 992.61 482.03 961.47 639.59 798.52 740.38 959.17 739.11
00007169 00000115 559.89 175.02 487.98 718.20 800.34 480.66 997.96 483.51 965.68 630.51 805.28 738.29 961.00 741.91
00007170 00000116 553.90 170.26 500.16 732.22 803.06 477.17 1005.91 479.70 976.64 632.86 805.31 742.45 964.89 745.10
00007171 00000117 553.28 171.79 503.13 737.29 803.58 476.21 1006.40 478.30 979.23 631.14 804.30 743.25 967.84 745.55
00007172 00000118 554.03 168.76 503.50 745.93 804.51 473.73 1006.63 476.14 980.48 629.22 803.18 744.45 966.94 747.03
00007173 00000119 554.48 168.38 504.61 743.88 804.83 469.88 1006.84 472.99 981.43 623.48 805.97 740.72 968.76 743.85
00007174 00000120 554.76 163.75 504.11 750.15 806.69 467.07 1007.34 470.56 983.10 619.43 809.38 737.71 972.45 740.69
00007175 00000121 554.75 163.25 506.32 746.71 803.40 464.47 1007.57 467.77 980.41 614.15 808.23 731.29 975.33 734.01
00007176 00000122 553.54 160.86 506.82 744.24 801.63 461.43 1006.02 464.59 978.44 611.95 805.84 725.32 974.84 727.98
00007177 00000123 554.79 162.74 505.51 742.68 801.05 460.17 1005.29 463.26 977.93 610.74 804.07 723.81 973.95 726.60
00007178 00000124 555.69 163.59 505.88 744.19 802.30 459.19 1006.42 463.48 979.04 610.72 803.30 723.01 974.52 726.91
00007179 00000125 556.58 163.43 503.99 738.70 805.56 459.75 1008.02 465.08 981.61 611.95 810.39 724.58 975.44 729.09
00007180 00000126 557.94 162.98 502.49 738.15 808.76 461.06 1009.56 466.33 983.94 614.51 815.25 727.01 976.18 731.43
00007181 00000127 558.99 163.62 501.85 741.34 811.39 461.28 1010.32 466.88 986.73 615.07 815.86 729.40 975.78 734.31
00007182 00000128 559.32 162.25 501.63 749.32 812.80 460.61 1009.24 466.37 987.57 613.01 813.11 728.99 974.96 734.10
00007183 00000129 557.59 163.29 502.12 747.15 810.51 458.79 1008.36 467.17 985.88 612.15 803.78 725.75 971.44 733.21
00007184 00000130 558.03 164.42 501.78 742.33 807.97 458.31 1007.99 466.50 983.43 613.23 797.61 723.32 968.83 730.90
00007185 00000131 557.64 163.49 502.45 749.60 809.14 456.93 1007.97 467.29 983.26 612.50 794.45 722.09 968.20 731.45
00007186 00000132 557.53 163.79 502.76 744.78 808.81 458.40 1008.08 467.12 983.15 612.69 793.66 716.76 971.15 724.78
00007187 00000133 559.55 165.51 499.74 731.97 808.43 459.70 1008.26 466.42 981.73 612.94 794.95 711.59 972.19 718.12
00007188 00000134 561.26 167.21 497.53 724.92 808.64 460.46 1008.88 466.13 981.94 612.81 800.07 711.57 974.50 717.00
00007189 00000135 561.38 166.46 497.07 724.27 807.61 461.82 1008.18 467.20 980.02 613.54 800.37 712.93 973.29 717.96
00007190 00000136 560.55 166.18 498.27 727.46 807.36 460.68 1007.16 467.75 979.24 612.18 798.90 713.28 971.41 719.78
00007191 00000137 561.07 168.14 498.38 725.82 807.25 462.22 1007.43 468.66 979.78 613.53 799.23 714.91 972.83 720.88
00007192 00000138 560.10 166.55 499.19 729.12 808.44 463.07 1007.59 469.43 981.28 615.27 798.93 716.25 973.03 722.13
00007193 00000139 560.37 165.65 497.71 731.55 810.39 462.00 1007.63 469.62 982.23 614.96 797.47 715.02 971.60 721.98
00007194 00000140 561.15 164.37 496.72 731.76 811.41 461.71 1008.84 469.42 983.04 615.24 796.93 713.79 971.22 720.83
00007195 00000141 560.05 165.95 497.52 729.74 810.65 461.38 1008.50 469.86 982.82 614.61 796.33 713.23 970.90 720.91
00007196 00000142 559.28 165.65 497.84 731.69 810.67 461.94 1008.22 468.82 983.77 614.18 799.41 714.79 972.97 720.91
00007197 00000143 557.34 164.86 500.37 735.05 811.30 462.41 1008.02 470.08 984.28 615.18 801.86 718.23 971.67 724.94
00007198 00000144 558.71 171.53 494.04 730.32 816.17 463.40 1006.45 468.47 978.93 617.94 812.67 727.11 976.52 731.01
00007199 00000145 559.32 170.38 493.41 732.55 817.11 463.19 1006.35 469.25 979.46 617.80 814.10 728.42 976.08 733.17
00007200 00000146 559.00 172.40 493.21 731.63 817.94 463.92 1005.85 471.07 979.83 618.41 814.83 729.65 975.01 735.42
00007201 00000147 560.64 176.26 490.34 727.97 818.14 465.20 1005.20 473.55 979.06 619.78 815.15 731.46 974.46 738.24
00007202 00000148 563.60 180.72 487.64 722.37 818.47 467.11 1005.12 474.97 979.38 620.37 817.34 733.23 975.11 739.74
00007203 00000149 564.26 180.38 487.35 723.04 820.57 467.44 1005.51 475.64 980.98 620.62 818.71 733.89 975.09 740.95
00007204 00000150 567.50 180.17 486.59 724.10 822.72 468.40 1007.23 475.38 984.29 620.59 821.10 735.06 977.20 741.28
00007205 00000151 559.41 185.78 498.07 761.27 821.06 468.48 1011.20 480.85 982.31 621.42 814.48 736.88 982.01 746.95
00007206 00000152 561.13 186.58 497.09 762.76 822.43 468.57 1012.19 481.96 983.08 622.00 812.61 737.45 980.81 748.57
00007207 00000153 562.95 186.48 495.30 763.52 823.17 468.90 1014.43 483.94 983.42 623.54 811.56 739.74 980.03 752.37
00007208 00000154 562.83 185.79 495.30 766.28 823.56 470.13 1015.00 484.44 983.75 625.91 808.96 740.23 980.43 752.50
00007209 00000155 564.50 186.72 497.33 768.11 826.03 471.34 1016.59 485.43 984.59 628.24 806.41 740.18 979.38 752.82
00007210 00000156 570.29 184.99 490.47 728.51 820.94 476.14 1016.60 487.75 991.55 635.85 803.29 737.63 978.97 748.21
00007211 00000157 571.79 185.17 490.52 728.90 824.86 477.76 1019.09 489.45 995.14 637.55 804.61 738.53 979.86 749.33
00007212 00000158 572.21 182.66 490.63 728.68 825.40 480.33 1019.61 489.30 997.28 639.22 808.49 739.33 982.84 747.88
00007213 00000159 573.29 180.06 489.45 731.17 828.13 482.30 1020.13 490.83 1000.86 640.18 811.92 739.14 985.33 747.28
00007214 00000160 572.69 182.38 491.12 724.04 829.33 483.92 1020.92 490.76 1002.47 640.64 814.47 738.13 986.02 745.09
00007215 00000161 571.98 180.46 492.57 726.66 828.44 484.84 1021.34 491.36 1002.33 640.85 815.60 739.83 987.21 746.33
00007216 00000162 571.59 179.92 491.89 728.78 827.39 486.15 1020.84 491.62 1002.99 641.04 816.39 742.13 988.60 747.60
00007217 00000163 572.74 183.14 490.11 727.55 827.13 485.69 1020.25 490.21 1003.40 640.56 816.81 743.61 988.48 748.43
00007218 00000164 573.50 182.64 489.31 728.20 826.61 486.57 1019.85 489.70 1003.24 640.39 817.79 744.98 989.71 748.62
00007219 00000165 572.83 181.62 489.92 733.13 826.38 485.97 1019.35 489.65 1002.94 639.59 817.63 746.36 989.30 750.44
00007220 00000166 573.59 183.57 489.20 730.76 826.49 485.56 1019.18 487.70 1004.30 638.98 818.21 746.89 988.87 749.86
00007221 00000167 575.10 181.47 488.80 731.88 827.77 485.48 1019.99 486.65 1006.03 638.28 819.04 746.81 989.55 749.10
00007222 00000168 575.32 180.88 488.87 731.65 828.47 485.20 1020.45 485.81 1007.08 637.22 820.98 745.68 991.55 747.47
00007223 00000169 576.15 180.79 488.08 730.38 829.39 485.41 1020.76 485.55 1007.84 636.60 823.75 745.34 993.10 746.61
