Video ID: 	piTpiBgtaGA
H: 	1080
W: 	1920
FPS: 	23.976023976023978

FRAME INDEX X0 Y0 W H [Landmarks (5 Points)]

00090738 00000000 444.68 207.16 492.35 664.53 500.95 502.67 698.96 434.44 573.60 569.60 560.64 719.01 736.80 662.34
00090739 00000001 445.14 205.89 493.56 659.21 504.01 493.03 706.47 429.64 578.65 561.41 564.27 708.15 738.40 655.14
00090740 00000002 444.68 197.53 487.93 659.23 508.09 481.24 716.01 425.13 589.01 555.81 567.17 700.43 739.47 653.02
00090741 00000003 443.39 200.88 483.87 657.09 506.16 478.40 719.21 415.86 592.91 549.22 562.59 704.02 746.37 650.99
00090742 00000004 435.63 202.40 485.61 673.76 509.49 471.51 723.30 414.39 604.95 550.22 574.64 711.04 759.69 661.02
00090743 00000005 430.20 198.92 484.29 673.79 507.74 468.69 720.08 414.20 604.13 545.42 571.64 706.79 754.73 658.74
00090744 DELETE   422.78 198.84 481.70 667.84 492.60 476.54 706.78 408.00 584.18 534.18 552.57 700.83 742.69 642.35
00090745 DELETE   412.92 187.87 484.95 665.08 479.37 471.36 692.19 404.91 566.14 533.31 535.01 696.17 717.20 640.78
00090746 DELETE   404.39 185.85 486.40 641.96 466.14 468.54 679.45 405.93 555.34 529.89 523.09 685.13 700.11 633.33
00090747 00000009 398.40 187.32 486.22 639.77 456.94 469.07 673.49 404.24 544.83 532.20 512.82 689.41 695.54 635.62
00090748 00000010 390.34 180.56 489.83 665.58 453.34 466.20 668.51 405.16 535.69 533.16 510.40 699.17 685.92 648.90
00090749 00000011 389.15 186.50 485.64 661.07 453.08 462.84 659.55 401.96 528.43 531.60 506.25 692.24 678.35 641.19
00090750 00000012 381.19 185.47 486.78 648.91 444.27 463.61 654.05 402.15 525.82 531.73 498.74 689.21 674.87 637.56
00090751 00000013 374.30 186.98 484.08 640.31 436.99 464.14 648.62 402.98 521.47 532.38 493.01 688.68 669.27 637.57
00090752 00000014 366.98 190.50 480.99 658.60 428.18 465.12 644.17 403.98 517.13 537.02 486.50 697.78 668.04 646.26
00090753 00000015 364.17 195.97 480.12 661.95 429.45 464.41 641.50 403.15 517.78 536.83 489.96 700.00 665.21 648.50
00090754 00000016 361.90 193.57 481.43 664.65 428.07 463.58 640.59 402.14 517.54 536.46 489.46 699.78 665.38 648.09
00090755 00000017 358.54 190.04 483.79 662.64 423.65 464.25 639.55 402.24 516.44 539.28 484.79 699.90 663.71 647.84
00090756 00000018 355.69 187.15 483.87 665.63 419.89 467.02 637.94 404.02 513.69 540.07 480.19 700.16 663.04 647.07
00090757 00000019 352.07 191.13 484.76 663.97 418.61 466.04 634.18 399.96 512.92 536.49 480.41 697.15 662.75 641.49
00090758 00000020 347.76 186.44 487.24 656.92 417.31 466.79 627.37 398.10 508.97 531.71 480.96 690.38 663.23 632.19
00090759 00000021 341.31 182.83 490.79 652.40 414.24 466.62 620.99 395.79 505.87 527.15 478.51 683.62 660.25 623.62
00090760 00000022 336.08 181.75 491.59 659.59 415.52 466.22 618.41 400.02 504.50 527.40 476.95 682.13 659.55 625.91
00090761 00000023 331.71 181.94 496.93 665.58 411.80 470.50 614.56 399.62 502.52 530.69 476.95 686.95 660.56 626.93
00090762 00000024 327.14 182.11 503.66 677.43 410.77 471.83 611.00 396.16 502.68 531.50 482.05 693.72 663.91 629.63
00090763 00000025 324.78 184.02 505.05 680.86 408.03 473.38 609.20 393.98 501.59 531.27 481.65 698.65 664.14 631.63
00090764 00000026 325.96 185.54 507.24 671.50 407.98 475.01 611.82 395.30 502.57 532.03 482.22 697.78 662.72 630.74
00090765 00000027 328.17 179.03 505.55 664.35 406.88 472.07 612.54 395.29 499.86 529.53 477.35 689.87 656.42 625.65
00090766 00000028 331.09 178.33 503.62 660.78 408.37 466.99 616.17 391.41 501.42 526.04 476.86 684.57 658.43 621.14
00090767 00000029 333.12 169.57 504.26 668.23 412.99 462.09 622.71 386.01 509.38 521.19 481.56 679.46 669.68 614.81
00090768 00000030 333.15 168.10 505.28 671.37 418.41 451.03 628.25 382.28 520.49 518.23 492.51 673.65 676.31 615.12
00090769 00000031 335.35 172.09 506.54 665.22 421.84 445.26 634.86 379.89 526.85 514.45 497.66 673.68 677.89 618.34
00090770 00000032 339.03 166.17 506.16 667.61 425.41 442.68 640.63 376.40 533.22 511.69 503.17 670.36 685.48 613.86
00090771 00000033 342.04 162.42 504.48 668.00 429.45 439.94 643.90 372.42 543.68 509.81 512.07 667.03 697.80 609.03
00090772 00000034 348.45 160.87 501.12 671.04 435.46 437.65 646.58 366.99 550.78 506.66 522.90 664.44 708.43 603.79
00090773 00000035 348.78 152.64 503.02 682.00 438.82 432.39 645.28 361.50 553.30 503.86 530.48 664.09 709.18 603.73
00090774 00000036 350.07 149.35 501.47 685.15 443.31 427.78 646.62 356.57 556.38 497.63 534.27 661.88 711.97 601.24
00090775 00000037 352.11 148.21 502.33 687.23 443.74 425.05 648.72 352.71 557.02 492.59 535.35 662.82 713.06 601.40
00090776 00000038 354.19 145.44 503.64 688.39 444.95 423.48 651.31 349.22 557.49 489.10 537.38 661.94 714.95 598.96
00090777 00000039 357.07 142.36 506.21 681.95 443.97 422.46 653.99 346.27 553.73 485.24 536.31 659.02 716.28 594.10
00090778 00000040 359.10 138.66 506.77 684.99 443.48 424.43 657.63 344.61 550.74 483.28 534.36 661.81 717.28 593.51
00090779 00000041 360.52 141.30 504.08 685.46 443.74 420.44 660.24 345.88 552.38 486.94 531.81 662.00 713.05 598.49
00090780 00000042 360.86 142.13 502.34 690.52 444.86 421.27 660.44 345.98 555.16 485.85 533.43 662.11 715.30 598.29
00090781 00000043 370.83 144.40 500.54 704.69 456.78 429.39 663.94 351.57 563.19 488.13 532.43 671.65 713.73 604.96
00090782 00000044 369.51 150.23 496.84 687.93 450.04 425.72 669.44 346.87 562.82 487.80 537.13 670.04 728.06 603.92
00090783 00000045 372.42 156.43 497.84 688.89 453.11 432.42 672.33 350.56 567.76 489.86 544.74 680.48 729.79 612.33
00090784 00000046 381.87 147.82 499.33 708.85 471.55 438.96 683.97 363.90 582.41 494.95 545.31 685.10 728.35 622.33
00090785 00000047 381.11 159.04 505.35 692.44 473.24 442.67 689.23 367.84 590.14 503.20 553.51 687.34 736.01 625.31
00090786 00000048 386.96 159.09 502.85 693.77 479.33 444.28 696.95 371.10 597.45 509.11 562.70 693.22 740.20 632.12
00090787 00000049 390.37 163.35 502.84 692.15 487.05 448.06 701.62 376.52 606.32 515.56 574.00 693.86 750.16 634.16
00090788 00000050 395.02 164.83 503.85 688.22 491.64 454.79 708.42 380.11 613.77 520.10 581.78 699.66 759.64 636.97
00090789 00000051 398.95 172.69 503.70 673.14 497.09 453.30 712.15 385.59 617.15 523.78 585.59 697.43 757.19 641.04
00090790 00000052 403.82 171.71 500.46 678.67 500.63 454.73 715.10 388.04 620.93 527.70 588.18 697.43 764.68 641.68
00090791 00000053 406.46 174.90 500.25 682.34 503.00 458.17 715.61 390.84 623.58 532.03 589.25 698.30 769.16 641.55
00090792 00000054 408.52 178.36 498.09 682.08 504.79 462.63 716.10 394.37 625.76 535.53 591.06 702.96 770.42 645.54
00090793 00000055 406.57 175.53 499.36 688.54 503.73 464.14 718.18 397.07 626.89 540.05 584.85 699.22 775.69 642.45
00090794 00000056 408.75 182.30 496.17 681.42 506.89 468.53 720.04 402.09 630.44 546.78 589.03 697.54 779.31 641.38
00090795 00000057 410.29 183.32 492.90 684.99 508.75 472.39 724.22 406.88 634.78 554.26 591.55 705.52 778.83 650.49
00090796 00000058 418.13 188.55 485.80 682.88 517.92 476.39 731.36 414.44 646.39 555.46 600.09 711.90 782.13 660.50
00090797 00000059 417.94 183.63 483.22 680.79 522.64 476.16 734.13 417.35 649.25 554.33 600.71 704.56 784.40 655.58
00090798 00000060 415.87 182.71 489.62 697.06 521.15 473.80 736.38 413.18 650.00 552.63 600.11 708.45 791.90 657.72
00090799 00000061 405.24 183.92 499.25 696.16 520.22 473.22 731.79 416.53 644.16 542.39 598.74 710.23 784.61 660.47
00090800 00000062 396.66 181.42 511.35 718.11 513.97 479.66 723.17 418.96 637.66 546.86 595.36 717.85 783.33 663.97
00090801 00000063 396.64 190.53 505.38 707.93 511.71 486.16 720.14 424.30 638.56 554.98 595.13 724.75 777.46 671.09
00090802 00000064 405.98 197.14 493.38 698.68 516.10 492.01 725.18 430.20 644.90 563.48 597.19 726.18 782.17 673.09
00090803 00000065 413.41 199.58 487.24 694.30 521.87 496.52 734.96 432.81 658.12 573.98 609.11 730.75 796.30 677.10
00090804 00000066 418.20 195.09 483.01 682.77 531.57 495.00 743.13 426.82 672.57 563.56 628.09 724.56 809.62 667.22
00090805 00000067 421.35 188.65 489.63 678.16 539.42 489.92 752.23 419.39 682.22 552.56 636.31 716.54 820.05 656.91
00090806 00000068 425.84 189.12 492.16 672.42 543.55 487.38 756.75 413.05 687.15 547.80 642.90 714.68 827.58 651.78
00090807 00000069 427.74 185.43 494.59 678.47 548.54 481.26 763.87 410.56 694.75 550.36 645.31 712.77 830.51 652.40
00090808 00000070 431.67 178.45 498.24 692.19 554.43 481.88 768.27 412.63 700.50 553.14 650.88 715.56 834.13 656.11
00090809 00000071 439.03 189.14 505.81 683.32 566.24 480.31 784.53 412.60 717.03 549.04 662.75 715.26 848.75 656.71
00090810 00000072 450.76 198.27 509.58 671.76 580.83 476.32 803.39 414.16 735.21 550.91 676.44 713.96 859.83 659.70
00090811 00000073 466.62 190.33 491.83 674.41 597.30 469.38 812.32 412.85 744.48 546.73 681.68 708.57 869.26 658.13
00090812 00000074 472.38 189.27 491.99 662.05 606.05 466.42 822.83 405.70 756.95 543.36 700.45 707.82 883.84 653.55
00090813 00000075 481.43 194.39 491.33 656.49 626.24 464.12 839.11 410.85 778.38 539.62 714.17 701.00 895.72 653.43
00090814 DELETE   489.23 196.83 497.02 654.59 642.31 462.54 857.83 411.26 800.74 537.42 730.50 698.26 913.28 651.93
00090815 DELETE   502.09 194.62 498.65 661.37 659.82 458.69 880.63 413.35 822.97 540.89 744.29 699.57 927.33 658.66
00090816 00000078 516.17 211.84 500.71 637.34 678.00 460.72 905.11 419.01 845.68 542.50 762.70 699.01 947.01 660.89
00090817 00000079 535.88 205.09 490.41 651.29 695.21 461.87 914.69 417.81 860.82 536.95 777.12 699.44 963.66 659.24
00090818 00000080 541.68 203.53 494.86 652.36 710.84 460.82 927.43 421.76 877.30 537.93 792.55 697.46 974.41 661.59
00090819 00000081 544.34 204.76 496.32 649.71 720.23 461.78 936.50 424.29 889.93 544.03 803.50 698.19 984.21 663.80
00090820 00000082 554.73 227.58 486.51 630.80 736.08 465.78 943.54 425.90 901.46 554.97 821.38 712.22 987.87 674.26
00090821 00000083 556.45 208.06 494.03 652.88 741.25 462.23 960.27 435.56 917.88 554.19 824.80 710.85 997.30 686.72
00090822 DELETE   570.89 218.87 492.73 667.13 764.35 469.95 975.82 442.41 933.43 564.96 842.65 728.96 1004.40 702.45
00090823 DELETE   595.43 205.07 479.74 675.21 779.98 467.55 999.08 450.06 954.75 563.74 855.02 724.48 1027.10 709.07
00090824 DELETE   595.48 219.19 492.89 680.22 792.88 478.17 1006.36 459.06 968.66 572.10 868.48 730.70 1038.33 712.82
00090825 00000087 610.04 249.99 489.82 649.63 802.34 488.43 1021.19 472.16 978.45 598.61 873.47 742.22 1043.92 727.44
00090826 DELETE   616.35 240.53 493.53 670.49 812.17 497.69 1025.88 478.24 986.71 607.54 882.39 749.92 1054.00 733.06
00090827 00000089 623.61 244.25 495.41 676.49 820.77 504.55 1033.12 486.29 993.84 608.11 892.12 757.26 1063.41 741.24
00090828 00000090 623.85 250.55 495.70 670.29 825.03 504.45 1041.08 491.47 996.53 612.70 889.06 758.79 1061.73 745.11
00090829 00000091 624.37 269.63 494.60 652.90 825.42 512.99 1043.72 499.14 995.68 627.95 888.44 764.25 1060.94 749.87
00090830 00000092 625.35 273.31 497.51 660.89 824.95 519.36 1045.53 503.13 996.13 635.42 887.24 774.56 1063.32 758.51
00090831 00000093 627.38 277.19 500.30 661.63 825.09 521.40 1046.98 502.33 997.56 637.32 889.86 779.24 1066.81 760.96
00090832 00000094 629.98 275.01 498.81 662.90 825.78 522.07 1048.38 503.42 997.62 637.42 890.70 779.45 1067.65 761.62
00090833 00000095 628.06 269.47 496.57 677.79 827.16 521.80 1045.36 504.83 997.91 638.15 890.45 783.43 1063.83 767.14
00090834 00000096 627.18 266.62 495.07 680.15 826.02 521.66 1043.89 507.11 996.13 638.80 887.79 782.80 1061.05 768.51
00090835 00000097 624.04 267.72 492.92 671.45 823.74 518.69 1042.10 507.72 993.85 637.49 882.91 778.07 1055.87 766.59
00090836 00000098 621.22 269.02 490.92 668.21 821.03 516.76 1040.25 508.96 992.18 634.94 877.73 775.08 1052.71 766.04
00090837 00000099 618.59 269.70 489.89 668.94 818.47 514.89 1036.60 507.43 988.62 635.46 872.60 774.04 1047.78 765.42
00090838 00000100 613.87 270.40 485.91 662.66 814.29 512.54 1031.90 504.07 985.69 634.29 871.67 770.53 1043.51 761.10
00090839 00000101 610.41 262.25 483.68 675.04 806.28 510.87 1028.64 503.32 978.85 629.21 862.55 771.77 1038.28 762.79
00090840 00000102 609.75 260.20 481.65 677.67 799.99 508.08 1024.36 499.62 971.32 624.95 858.24 771.43 1033.86 761.62
00090841 00000103 609.70 265.56 483.88 659.36 795.14 513.02 1019.87 496.30 970.84 623.58 858.81 774.88 1031.27 758.63
00090842 00000104 609.48 249.23 479.90 669.91 785.05 516.15 1010.96 493.69 957.39 619.54 856.03 771.64 1029.69 752.47
00090843 00000105 606.16 246.07 475.06 658.31 779.97 518.06 1004.48 494.25 949.13 620.28 847.14 765.32 1019.18 745.66
00090844 00000106 603.05 254.58 476.90 655.74 774.33 521.23 998.34 495.98 939.09 617.87 840.95 766.42 1012.76 745.80
00090845 00000107 601.62 256.24 476.22 649.90 768.17 516.26 993.52 496.68 930.25 625.21 830.66 769.25 1002.98 750.95
00090846 00000108 595.90 253.71 480.93 654.39 757.42 515.25 986.73 494.68 919.80 624.54 821.10 769.23 998.49 750.31
00090847 00000109 590.75 258.83 476.48 640.23 750.75 508.72 980.18 492.81 910.98 625.08 814.08 762.40 989.90 746.09
00090848 00000110 583.78 268.47 478.27 636.89 743.32 504.28 971.31 490.64 899.39 621.20 803.64 759.05 979.07 744.29
00090849 00000111 582.56 255.30 477.83 655.18 732.33 505.94 963.62 488.40 885.01 629.08 791.13 764.52 969.69 749.88
00090850 00000112 578.28 248.40 477.78 663.96 723.47 507.55 959.34 492.14 874.72 633.61 778.72 764.11 964.10 751.08
00090851 00000113 572.55 241.95 476.89 662.44 716.09 508.35 949.88 495.90 862.05 630.73 766.31 758.47 947.01 747.84
00090852 00000114 566.16 241.24 470.94 658.21 705.55 506.50 938.08 495.49 847.75 631.67 751.42 757.35 932.34 748.37
00090853 00000115 560.63 227.16 470.16 680.04 693.20 504.92 926.70 494.64 831.16 633.12 734.29 758.78 918.73 750.70
00090854 00000116 555.64 236.34 466.23 662.71 684.03 512.49 918.16 504.39 816.31 642.34 723.55 762.93 902.26 757.30
00090855 00000117 546.01 243.84 468.05 651.11 667.34 515.74 901.38 510.82 789.12 651.08 707.10 765.52 881.93 760.61
00090856 DELETE   534.33 253.80 475.89 658.17 646.31 502.93 884.92 506.39 764.75 632.88 676.74 756.04 857.48 756.92
00090857 00000119 525.86 250.12 465.37 657.37 631.91 498.31 860.27 498.75 735.25 629.49 658.67 752.67 832.22 753.90
00090858 00000120 506.99 240.36 471.69 682.97 615.38 493.68 844.57 492.56 723.69 627.45 639.41 753.30 820.71 753.37
00090859 00000121 497.45 257.80 478.13 660.35 602.35 495.20 832.06 492.84 708.82 632.72 637.28 749.34 810.46 747.46
00090860 00000122 494.22 258.69 479.51 669.80 597.45 494.34 826.34 488.13 704.52 631.57 637.41 753.69 811.36 748.35
00090861 00000123 494.50 250.76 473.97 673.16 595.38 490.06 828.15 478.59 716.99 626.73 643.28 761.14 813.73 753.14
00090862 00000124 490.51 247.17 473.82 683.71 594.40 485.12 824.24 473.17 716.34 617.69 644.22 760.38 810.26 752.34
00090863 00000125 480.36 245.27 489.06 698.94 593.96 487.14 824.28 469.08 710.62 612.31 642.68 758.14 823.37 740.33
00090864 00000126 485.12 236.78 483.04 686.32 585.98 479.51 818.43 461.79 710.58 610.71 640.26 747.50 821.88 733.28
00090865 00000127 484.53 233.43 484.40 673.04 585.50 481.42 819.99 462.21 709.51 610.21 637.58 740.85 825.03 724.97
00090866 00000128 483.06 229.64 487.24 674.41 587.47 479.11 821.24 459.53 712.74 606.69 639.62 735.35 826.85 719.07
00090867 00000129 485.27 217.49 489.09 681.51 590.89 476.56 825.27 454.54 718.95 600.95 646.33 734.17 833.56 715.77
00090868 00000130 485.90 211.04 488.37 683.80 595.97 474.84 827.92 449.51 725.58 597.03 655.83 731.71 839.75 710.41
00090869 00000131 486.92 202.20 491.16 698.36 601.55 473.14 831.53 443.31 734.37 592.59 666.15 734.41 849.63 709.27
00090870 00000132 492.63 204.33 484.63 692.62 610.12 469.72 842.48 439.71 746.86 589.48 678.51 731.60 862.89 706.05
00090871 00000133 496.61 205.25 490.19 686.55 621.59 466.36 857.29 435.67 764.73 585.38 692.35 728.75 875.37 702.27
00090872 00000134 498.91 202.56 489.56 676.09 628.69 465.76 860.39 432.06 776.64 579.45 704.52 723.55 884.15 694.17
00090873 00000135 498.02 202.59 491.48 683.89 627.86 467.54 860.05 432.85 776.55 582.98 701.98 725.47 887.96 695.13
00090874 00000136 497.12 202.08 487.06 684.00 622.39 469.44 855.26 434.24 768.77 587.13 696.14 727.95 881.94 697.52
00090875 00000137 495.08 193.34 483.27 692.34 617.09 470.50 847.60 436.52 758.28 588.77 688.67 729.46 869.53 700.58
00090876 00000138 492.52 198.38 481.85 688.89 612.62 475.02 841.82 438.98 753.73 590.10 687.95 732.57 869.07 701.79
00090877 00000139 490.99 200.73 484.98 697.53 612.34 479.00 841.47 442.82 753.23 593.71 686.69 738.67 869.46 707.95
00090878 00000140 493.11 205.95 483.44 700.10 614.32 483.96 841.90 446.98 754.43 598.92 687.54 744.43 872.60 713.31
00090879 00000141 495.46 219.20 483.63 692.03 617.94 490.00 844.48 451.51 760.42 603.90 694.90 748.24 880.46 715.69
00090880 00000142 497.24 224.22 489.39 698.31 624.54 493.03 850.52 452.66 770.77 607.35 700.71 753.89 888.33 719.80
00090881 00000143 502.68 235.15 484.96 677.38 632.74 495.96 857.50 457.20 783.69 607.81 708.91 753.51 891.14 720.94
00090882 00000144 508.48 239.41 483.24 661.53 642.12 497.74 869.37 462.33 794.76 610.72 714.24 749.61 896.90 719.75
00090883 00000145 508.95 238.83 490.22 678.51 648.72 494.49 882.63 460.46 808.43 609.96 721.60 758.04 905.79 725.51
00090884 00000146 518.53 247.32 484.29 660.51 658.37 497.12 888.01 463.31 816.53 612.63 732.70 759.90 905.83 728.35
00090885 00000147 524.16 245.62 485.23 665.47 664.95 499.93 895.62 464.20 824.73 615.94 738.50 763.07 914.70 730.35
00090886 00000148 529.04 249.48 482.48 651.43 669.39 502.37 900.45 468.88 827.64 619.41 740.24 760.42 919.22 729.03
00090887 00000149 528.58 238.23 490.77 665.36 672.74 504.85 904.84 472.54 830.83 620.66 739.09 757.90 924.28 727.46
00090888 00000150 536.21 235.51 480.46 677.87 677.40 506.00 905.80 475.45 829.32 620.91 737.56 752.67 929.90 726.70
00090889 00000151 537.02 239.37 479.60 674.06 678.18 505.42 908.32 475.31 831.21 620.99 738.92 753.76 931.12 728.30
00090890 00000152 539.38 241.95 476.75 668.41 682.21 505.14 912.20 474.75 836.68 618.69 744.15 753.24 933.76 727.78
00090891 00000153 541.31 247.62 479.25 665.27 689.63 504.69 915.79 474.92 845.03 617.73 752.81 753.43 939.26 728.71
00090892 00000154 545.29 246.85 476.79 661.04 695.11 498.95 918.95 469.49 851.71 607.56 762.87 751.50 942.34 727.00
00090893 00000155 547.76 242.14 478.00 660.98 702.10 496.63 924.27 463.12 864.10 601.58 774.28 747.17 955.17 719.08
00090894 00000156 549.58 243.26 483.44 656.39 711.34 493.03 931.41 460.56 876.30 597.35 786.56 743.28 965.45 715.72
00090895 00000157 553.06 236.49 489.18 652.68 723.24 487.85 946.43 461.20 888.07 598.17 793.00 737.95 971.10 715.30
00090896 00000158 562.16 225.54 491.57 652.56 733.45 477.11 958.62 454.51 899.07 584.81 799.02 724.33 981.39 704.58
00090897 00000159 566.56 212.06 490.21 659.69 741.65 469.64 964.48 449.24 907.40 573.54 803.14 713.53 985.91 695.04
00090898 00000160 570.68 219.24 488.91 647.96 744.57 458.72 968.69 440.78 909.96 570.72 804.77 709.47 986.12 693.13
00090899 00000161 572.56 211.03 485.72 652.44 747.41 454.06 971.89 438.98 913.52 565.43 806.39 705.18 988.60 691.24
00090900 00000162 574.19 199.52 480.95 651.65 747.29 444.96 972.64 435.50 910.53 557.25 802.80 692.78 986.48 682.21
00090901 00000163 577.82 187.93 478.93 660.33 748.68 438.40 974.99 428.99 909.79 550.99 800.12 688.59 986.38 678.03
00090902 00000164 577.26 185.37 483.88 664.82 748.21 433.14 976.57 427.98 906.40 546.95 794.28 683.89 982.56 676.84
00090903 00000165 578.39 184.43 481.55 663.10 748.87 431.39 976.23 427.00 905.58 547.15 794.64 682.83 981.36 676.43
00090904 00000166 579.54 183.13 482.28 665.16 749.36 431.19 977.32 426.22 906.33 547.36 793.00 681.51 982.90 674.44
00090905 00000167 581.77 185.94 482.19 659.21 750.30 430.95 979.24 426.11 905.69 547.80 793.62 680.86 983.51 674.17
00090906 00000168 581.87 185.48 477.71 657.36 748.65 431.44 975.14 427.53 901.27 547.47 794.35 682.85 977.43 676.70
00090907 00000169 579.36 189.44 476.60 668.25 743.19 433.13 968.98 434.07 893.82 552.63 785.83 690.97 967.67 689.53
00090908 00000170 573.58 191.61 477.03 672.53 731.98 433.23 961.72 437.50 877.89 559.57 769.57 693.21 952.16 694.72
