Video ID: 	uafSbE7r1Uc
H: 	1080
W: 	1920
FPS: 	30.0

FRAME INDEX X0 Y0 W H [Landmarks (5 Points)]

00152388 00000000 418.77 99.99 478.10 629.59 623.93 317.01 824.67 319.63 785.70 396.17 677.82 555.60 835.87 554.33
00152389 00000001 419.78 104.29 475.47 622.07 626.12 313.79 822.96 316.33 783.53 395.33 678.19 549.85 832.45 548.66
00152390 00000002 421.34 102.82 472.41 618.46 627.71 314.11 821.75 314.10 783.96 395.53 678.99 546.67 831.97 543.41
00152391 00000003 421.54 104.22 471.70 613.19 631.14 318.24 827.38 320.78 789.19 398.70 676.18 542.08 836.82 541.59
00152392 00000004 421.83 104.55 471.39 612.81 631.49 318.16 827.68 320.81 789.63 398.68 676.41 542.03 836.99 541.65
00152393 00000005 426.10 105.22 469.96 607.85 637.26 317.72 834.78 323.54 796.05 395.49 680.16 539.16 842.31 541.49
00152394 DELETE   424.46 97.62 473.75 597.95 627.70 316.84 832.92 321.36 784.90 387.74 666.64 530.35 836.50 533.85
00152395 DELETE   414.48 91.23 485.66 604.92 615.90 311.33 828.53 315.11 778.95 377.53 665.04 529.02 837.19 531.30
00152396 00000008 412.19 94.90 483.62 596.61 611.74 312.32 823.78 312.19 775.64 377.83 663.49 528.00 835.37 526.92
00152397 00000009 408.73 94.97 485.61 593.51 608.88 314.71 822.30 314.21 773.42 382.68 660.40 527.67 833.87 525.96
00152398 00000010 408.49 95.06 485.84 593.44 608.93 314.33 822.19 314.32 773.24 382.67 660.18 527.37 833.53 526.10
00152399 00000011 408.18 93.25 481.99 597.93 609.96 318.22 818.90 316.56 771.67 387.84 659.81 529.62 829.00 527.20
00152400 00000012 408.62 91.45 479.22 607.95 613.82 321.55 817.45 318.16 776.15 395.05 660.45 534.75 827.92 531.53
00152401 00000013 409.56 94.08 478.42 602.95 612.38 322.67 819.58 319.14 778.48 392.70 659.72 532.59 832.54 528.88
00152402 00000014 410.84 96.13 481.35 597.55 611.25 321.13 819.28 315.55 775.64 388.83 660.92 530.01 833.89 524.62
00152403 00000015 409.22 97.18 483.83 599.95 611.34 318.44 818.34 317.32 774.49 384.49 662.23 530.53 830.63 529.12
00152404 00000016 409.32 96.79 483.52 600.26 611.42 318.51 818.24 317.26 774.46 384.56 662.18 530.54 830.51 529.00
00152405 00000017 408.14 89.24 486.67 613.39 610.55 311.50 818.71 310.29 773.50 380.41 662.26 531.28 831.91 529.84
00152406 00000018 414.20 96.72 478.80 625.82 615.92 306.67 820.15 306.39 781.60 382.17 674.17 544.24 835.94 541.59
00152407 00000019 414.24 101.22 478.95 622.84 617.46 309.71 819.43 308.52 780.65 387.87 675.01 545.91 834.35 542.27
00152408 00000020 410.17 90.90 483.92 617.59 615.88 314.61 818.84 314.22 777.06 385.20 665.79 536.82 830.42 536.53
00152409 00000021 412.29 92.73 482.85 607.35 614.88 315.52 822.47 315.16 778.36 384.47 665.11 532.83 834.96 532.10
00152410 00000022 412.28 93.14 482.90 606.79 615.27 315.58 822.29 315.38 778.30 384.65 665.10 532.57 834.51 532.01
00152411 00000023 414.40 93.40 481.00 599.19 613.37 315.28 826.75 316.69 779.94 382.27 665.45 530.34 839.70 530.43
00152412 00000024 414.59 92.08 482.10 596.48 613.09 312.31 825.33 309.12 779.05 377.39 665.76 526.23 839.75 522.49
00152413 00000025 414.79 89.75 480.93 598.59 612.64 304.72 826.23 304.32 780.47 370.12 666.23 521.66 840.85 519.78
00152414 00000026 414.14 89.53 481.79 604.84 614.67 306.31 826.73 306.04 780.97 373.10 664.63 524.05 839.52 522.68
00152415 00000027 417.27 103.93 479.83 613.85 622.43 301.36 829.48 307.59 786.65 381.31 673.79 539.10 841.87 541.83
00152416 00000028 417.05 101.22 479.85 616.44 622.27 301.96 828.87 307.95 786.37 380.68 674.07 538.93 841.62 541.43
00152417 00000029 419.05 107.02 478.64 618.40 622.24 306.25 823.51 306.76 783.43 385.25 677.82 545.63 838.44 543.52
00152418 00000030 417.59 102.69 480.35 615.54 618.80 306.73 826.07 308.62 784.09 382.35 674.79 543.59 840.55 542.99
00152419 00000031 412.28 91.57 485.80 609.23 611.93 310.61 824.55 310.89 777.27 379.50 663.88 531.26 838.11 530.95
00152420 00000032 411.04 87.40 485.84 609.72 610.53 307.85 821.51 305.07 775.47 374.14 665.78 527.30 837.15 523.85
00152421 00000033 408.88 86.10 486.86 611.62 610.09 305.56 819.87 304.73 774.67 370.79 665.81 525.02 836.25 522.99
00152422 00000034 409.00 86.08 486.50 611.23 610.28 305.63 819.92 304.80 774.97 370.93 666.16 524.95 836.31 522.93
00152423 00000035 407.61 86.80 484.40 615.95 609.13 308.49 818.03 308.98 773.06 375.02 661.23 527.92 832.19 527.53
00152424 00000036 405.73 85.79 484.92 619.59 610.15 311.96 816.56 312.11 773.12 378.23 659.82 529.83 829.59 529.36
00152425 00000037 405.95 90.21 484.72 615.66 609.03 312.61 815.83 312.01 772.57 378.00 659.50 531.29 829.14 530.49
00152426 00000038 406.22 87.99 484.30 620.85 608.46 311.89 815.97 311.56 773.51 376.21 660.36 533.03 830.39 532.48
00152427 00000039 406.91 86.17 482.80 622.20 608.92 313.01 816.44 313.66 773.58 376.38 661.18 533.71 830.18 533.81
00152428 00000040 407.09 85.58 482.44 622.42 609.00 312.65 816.52 314.20 773.53 376.16 660.59 533.51 829.59 534.35
00152429 00000041 407.43 85.41 481.79 620.55 608.13 308.73 821.19 313.28 776.52 377.43 655.89 530.94 833.56 533.80
00152430 00000042 409.74 86.31 481.25 615.16 608.62 307.33 824.47 312.42 778.05 377.02 657.43 528.90 837.47 531.97
00152431 00000043 410.41 90.14 480.39 610.42 610.11 306.46 826.03 313.65 779.60 378.34 656.25 527.70 837.08 532.73
00152432 00000044 413.34 91.77 478.74 607.15 610.52 307.70 828.50 312.61 780.88 379.39 656.92 528.43 840.18 531.65
00152433 00000045 416.10 93.91 476.51 604.73 614.01 308.29 832.25 312.51 785.57 381.12 660.26 528.43 842.94 531.26
00152434 00000046 416.14 93.82 476.58 604.67 613.83 308.18 832.27 312.20 785.49 381.11 660.30 528.30 843.34 530.91
00152435 00000047 420.86 99.18 474.48 599.03 616.39 311.49 834.22 312.47 788.09 384.37 662.59 529.84 846.37 530.20
00152436 00000048 424.50 100.94 472.04 590.58 620.55 312.85 836.86 313.33 790.50 386.25 667.01 528.37 847.57 528.24
00152437 00000049 425.59 100.56 472.45 594.49 622.55 313.84 839.17 315.37 793.39 385.53 670.61 531.42 850.65 532.20
00152438 00000050 427.22 111.39 471.49 593.79 630.79 305.80 839.94 310.52 799.02 384.36 682.12 536.84 854.40 538.82
00152439 00000051 428.86 111.90 472.17 602.59 634.23 304.62 835.62 308.73 796.40 386.04 688.34 542.33 848.23 543.04
00152440 00000052 428.74 112.33 471.99 601.94 633.92 304.80 835.11 308.34 795.58 386.66 687.71 542.36 847.26 542.60
00152441 00000053 425.69 115.25 474.92 606.27 633.06 305.47 831.66 311.45 793.16 388.23 687.27 547.54 842.10 549.54
00152442 00000054 424.64 115.61 474.39 608.84 631.24 308.72 829.99 313.62 790.73 391.27 684.49 549.86 840.15 550.83
00152443 00000055 425.46 111.79 471.70 611.38 631.90 310.24 827.09 315.19 788.97 391.06 684.76 548.38 836.73 549.31
00152444 00000056 426.09 112.55 470.79 609.80 631.34 310.97 825.66 314.90 787.37 391.77 684.41 548.33 835.47 548.41
00152445 00000057 426.32 112.35 470.50 609.47 631.04 311.14 826.01 314.91 787.19 391.80 684.34 548.51 835.70 548.45
00152446 00000058 426.06 112.72 470.18 607.58 630.37 311.32 825.36 315.02 786.41 391.88 683.89 547.87 834.86 547.78
00152447 00000059 426.08 112.89 470.14 607.42 630.41 311.34 825.35 315.07 786.42 391.93 683.96 547.90 834.85 547.84
00152448 00000060 425.44 114.03 470.34 603.08 630.03 309.75 824.64 312.97 786.06 390.36 684.35 546.07 833.79 545.78
00152449 00000061 424.56 112.39 470.27 601.87 629.17 309.95 824.08 313.40 784.83 388.96 682.92 544.07 832.97 544.02
00152450 00000062 424.44 112.57 470.26 598.88 629.35 309.87 824.95 313.37 785.53 388.45 681.88 542.24 834.11 542.43
00152451 00000063 421.79 113.99 473.51 594.67 627.42 309.18 825.49 311.96 786.54 386.74 680.59 540.70 836.67 540.52
00152452 00000064 422.04 114.42 473.56 594.21 627.44 309.15 825.54 311.10 786.35 387.38 680.76 540.87 836.76 539.98
00152453 00000065 421.57 113.16 474.93 594.69 625.92 308.97 825.53 309.44 785.13 387.40 678.22 538.95 837.51 537.34
00152454 00000066 420.45 112.18 474.60 592.63 625.59 309.96 826.42 310.16 786.26 389.53 676.02 536.97 838.62 535.36
00152455 00000067 416.78 99.68 477.66 598.53 620.88 314.44 827.61 315.54 783.48 386.83 663.57 530.42 834.25 531.25
00152456 00000068 415.58 99.99 478.58 597.63 618.65 314.14 828.06 315.06 783.11 385.94 662.15 528.94 836.20 529.33
00152457 00000069 416.44 100.14 477.19 595.93 618.95 314.61 827.71 315.16 782.89 386.82 662.16 527.60 836.19 527.52
00152458 00000070 416.16 99.80 477.58 596.98 618.64 314.66 827.44 314.70 782.53 386.60 662.21 527.94 836.18 527.37
00152459 00000071 416.46 98.84 476.56 596.56 617.48 314.50 825.61 313.93 781.06 385.00 661.11 525.84 836.10 524.77
00152460 00000072 416.67 97.47 475.83 595.50 616.76 314.37 825.45 313.30 780.70 382.97 660.92 524.29 836.28 522.70
00152461 00000073 417.62 99.75 475.14 590.26 617.26 314.80 826.43 313.36 781.39 384.10 660.76 522.60 836.86 520.83
00152462 00000074 417.35 100.69 477.36 590.08 617.05 315.49 826.69 314.25 781.01 384.76 660.19 522.55 837.29 521.02
00152463 00000075 416.57 103.07 479.46 590.65 617.42 316.56 827.67 315.82 782.07 386.60 658.71 523.53 837.40 522.64
00152464 00000076 417.37 102.56 478.74 590.64 617.66 316.32 827.48 315.45 781.93 386.72 658.99 523.21 837.49 522.15
00152465 00000077 416.59 105.18 480.19 591.56 619.65 315.02 828.17 316.59 782.38 388.40 661.57 528.87 834.74 529.99
00152466 00000078 422.50 112.73 476.73 596.45 624.27 308.90 830.15 311.12 787.02 386.53 676.92 539.99 842.42 539.76
00152467 00000079 423.90 110.25 475.88 609.68 627.36 307.21 827.46 309.63 788.05 385.98 680.74 544.03 839.88 543.61
00152468 00000080 423.77 110.29 475.57 608.59 627.55 304.33 829.61 308.51 789.50 383.99 682.02 543.77 840.96 544.81
00152469 00000081 419.05 98.98 477.88 599.55 623.29 308.89 832.98 313.39 787.98 384.38 668.38 530.49 840.46 533.92
00152470 00000082 419.02 97.86 477.95 600.93 622.76 309.13 832.93 313.33 788.06 384.15 668.49 530.72 841.03 533.83
00152471 00000083 419.82 101.37 477.99 583.37 622.28 306.63 830.90 305.82 787.58 375.57 670.25 519.49 843.72 517.63
00152472 00000084 419.29 100.40 476.57 583.03 622.25 304.67 830.04 303.91 788.10 374.26 668.95 515.16 844.47 513.58
00152473 00000085 417.55 99.79 477.44 586.92 621.64 305.66 829.62 305.79 787.40 375.41 667.44 517.06 842.90 516.10
00152474 00000086 417.33 103.69 475.50 587.01 621.20 310.00 829.44 312.35 787.24 381.57 664.98 520.94 840.86 522.42
00152475 00000087 419.91 105.05 475.64 587.42 622.01 312.41 830.34 313.30 786.58 383.64 665.79 524.96 840.45 525.40
00152476 00000088 419.78 104.52 476.29 588.57 621.76 312.27 830.18 312.87 786.22 383.65 665.63 525.23 840.59 525.43
00152477 00000089 420.08 103.12 476.39 593.74 621.82 312.37 829.84 313.44 786.15 384.69 668.72 529.78 840.77 530.49
00152478 00000090 423.92 108.67 474.59 598.66 626.32 304.44 831.80 307.02 791.42 382.09 681.91 538.84 844.69 538.92
00152479 00000091 422.38 107.68 476.15 608.02 625.36 301.65 829.12 307.60 789.17 379.51 681.91 541.72 841.42 544.36
00152480 00000092 419.54 106.92 478.39 611.41 622.55 300.53 827.90 307.14 787.56 378.17 680.15 542.56 840.55 545.66
00152481 00000093 417.95 103.94 478.83 618.21 619.90 301.26 826.17 306.15 785.87 378.20 678.18 543.79 840.06 545.38
00152482 00000094 417.89 104.58 479.11 617.46 620.17 301.30 826.12 306.15 785.79 378.48 678.48 543.86 839.74 545.50
00152483 00000095 418.38 109.35 477.96 611.81 619.93 302.81 825.48 308.17 784.13 379.67 677.34 544.05 837.91 546.11
00152484 00000096 417.55 110.02 475.38 606.27 618.42 306.57 824.89 312.89 781.90 380.54 673.92 542.71 836.22 545.54
00152485 00000097 414.13 108.95 476.72 601.07 616.30 305.95 831.12 315.67 787.24 378.08 669.23 539.43 842.79 545.23
00152486 00000098 411.91 102.26 478.27 600.53 611.96 314.55 827.65 320.73 783.57 382.38 658.42 531.55 838.23 536.48
00152487 00000099 412.63 104.22 478.14 594.94 611.86 316.51 827.12 321.02 783.04 383.32 659.05 530.03 839.72 533.36
00152488 00000100 412.27 104.79 478.27 594.66 611.67 316.50 827.34 321.24 783.09 383.88 658.76 530.13 839.72 533.64
00152489 00000101 414.64 102.94 477.08 593.77 616.71 319.48 832.15 327.84 784.39 384.00 659.76 528.62 838.76 534.97
00152490 00000102 416.32 101.31 475.13 593.50 618.67 322.04 832.72 332.22 784.06 384.71 660.68 527.87 837.80 535.50
00152491 00000103 413.87 101.65 477.71 598.11 619.48 323.42 830.87 332.08 784.65 387.40 660.99 530.63 836.01 537.38
00152492 00000104 419.74 114.29 472.53 596.77 621.17 317.64 827.57 323.99 784.97 386.94 672.00 538.49 840.93 541.61
00152493 00000105 420.61 114.12 472.13 603.96 621.24 317.18 821.51 321.63 779.30 387.65 675.94 544.18 833.03 545.06
00152494 00000106 420.67 113.65 471.87 603.69 621.63 317.00 821.12 321.31 779.40 387.62 676.64 543.89 832.53 544.60
00152495 00000107 419.45 113.99 472.60 605.91 621.00 316.37 822.08 322.86 779.75 388.10 676.31 546.54 832.40 548.97
00152496 00000108 418.93 115.22 473.46 604.01 620.19 315.43 823.43 323.55 780.29 387.65 675.25 547.03 833.05 550.77
00152497 00000109 419.53 115.80 472.75 600.79 620.61 315.03 824.73 323.61 781.13 387.07 676.08 547.16 833.49 551.28
00152498 00000110 417.32 110.71 472.80 607.15 620.42 316.33 822.46 324.64 780.18 389.51 675.87 547.40 830.98 551.14
00152499 00000111 417.30 113.08 471.30 605.45 619.87 317.38 821.42 326.45 779.21 390.70 675.67 548.20 829.52 552.40
00152500 00000112 417.66 113.29 471.20 605.42 620.27 317.39 821.63 326.32 779.29 390.93 675.92 548.33 829.68 552.43
00152501 00000113 417.80 111.77 471.05 606.92 620.63 317.33 820.97 324.76 780.10 388.76 675.99 545.91 831.19 548.89
00152502 00000114 415.34 108.60 472.48 609.31 620.27 315.40 826.60 323.89 787.13 384.57 674.30 543.02 840.58 547.21
00152503 00000115 411.91 98.84 477.59 601.43 616.54 318.04 826.07 328.36 786.36 377.86 669.29 532.60 839.27 540.87
00152504 00000116 413.98 97.69 475.99 598.22 615.01 315.16 828.74 325.72 785.36 376.58 666.99 530.06 841.29 538.30
00152505 00000117 414.81 101.14 476.29 601.69 614.73 314.95 829.32 323.90 786.15 377.77 669.26 534.52 842.95 541.84
00152506 00000118 414.70 101.57 475.69 601.02 614.87 314.72 828.88 323.49 786.24 377.79 669.28 534.36 842.45 541.63
00152507 00000119 423.15 116.10 471.60 607.64 622.78 309.79 828.09 316.93 785.65 382.21 679.65 546.18 841.93 549.12
00152508 00000120 421.56 117.82 473.63 614.16 624.39 311.56 826.75 319.47 787.61 385.39 680.85 550.39 841.55 553.72
00152509 00000121 421.64 118.94 474.86 611.92 625.45 310.93 828.23 320.70 788.71 384.83 680.29 549.49 842.39 554.50
00152510 00000122 421.58 119.38 474.56 607.38 624.80 309.12 827.90 316.46 789.62 384.20 680.91 548.41 843.06 551.58
00152511 00000123 418.75 115.09 476.98 607.32 621.38 305.30 826.53 312.03 788.49 379.65 678.27 544.40 842.74 547.58
00152512 00000124 417.99 114.24 477.64 608.30 621.46 304.91 826.60 311.97 788.72 379.34 678.06 544.17 842.62 547.59
00152513 00000125 418.36 115.71 476.37 591.14 621.69 307.02 833.19 318.10 792.65 376.22 679.21 541.33 846.68 548.09
00152514 00000126 415.06 109.98 477.04 583.19 618.41 318.70 832.68 328.53 785.98 389.70 665.78 531.95 837.96 540.20
00152515 00000127 418.16 115.45 473.67 572.93 621.29 321.28 833.17 331.33 788.11 392.49 669.84 531.21 838.85 539.42
00152516 00000128 419.77 116.75 471.29 571.04 621.93 321.97 834.90 333.35 789.48 393.66 670.94 532.41 839.79 541.86
00152517 00000129 418.41 113.78 474.62 578.58 624.12 321.40 832.62 330.80 791.36 390.41 673.08 533.75 839.97 541.90
00152518 00000130 418.93 113.21 474.32 578.91 624.15 321.32 832.58 330.60 791.18 390.56 673.19 533.76 839.97 541.83
00152519 00000131 421.83 124.44 472.87 584.48 627.92 308.89 834.43 322.32 798.75 379.36 685.52 542.20 848.90 550.47
00152520 00000132 419.24 123.71 476.79 588.34 628.21 303.19 832.97 316.54 801.89 375.86 689.20 542.13 850.19 550.41
00152521 00000133 420.86 122.48 475.57 589.30 628.44 300.43 834.18 317.15 804.74 369.43 689.76 539.92 852.52 551.02
00152522 00000134 421.57 120.11 474.43 583.87 630.57 302.06 837.41 320.29 807.86 369.29 689.49 535.82 855.01 548.35
00152523 00000135 423.88 125.62 472.06 564.39 630.31 306.85 843.37 326.77 810.11 370.58 688.52 533.59 859.55 547.45
00152524 00000136 423.90 126.26 472.28 564.06 630.10 307.02 843.39 326.70 809.96 370.48 688.89 534.04 859.67 547.67
00152525 00000137 421.69 122.30 468.93 565.65 626.84 317.40 840.41 332.28 804.47 387.19 678.08 528.89 850.73 540.88
00152526 00000138 422.04 117.99 469.52 572.30 628.85 321.02 836.58 332.26 803.12 389.06 678.29 528.87 848.60 538.11
00152527 00000139 426.79 126.41 465.95 575.71 631.52 317.63 841.88 333.07 809.12 386.25 683.86 539.52 859.74 549.69
00152528 00000140 428.59 130.84 465.50 575.75 629.60 319.35 844.91 333.65 810.47 387.57 680.25 538.96 865.74 548.50
00152529 00000141 429.51 133.32 466.20 581.69 630.95 319.95 839.18 334.08 807.08 386.88 685.12 541.45 861.43 550.40
00152530 00000142 429.33 132.99 466.02 581.66 631.73 319.72 839.48 334.26 807.81 387.30 685.69 541.55 861.01 550.84
00152531 00000143 430.11 132.09 466.33 598.80 632.33 318.57 829.83 330.65 801.37 386.64 688.95 548.34 852.46 554.68
00152532 00000144 427.36 133.73 467.89 597.84 630.78 317.66 826.75 328.54 800.07 387.01 688.68 549.79 850.33 555.35
00152533 00000145 422.64 127.21 470.64 598.33 628.02 316.94 828.25 327.11 798.58 387.59 685.94 547.83 849.34 552.95
00152534 00000146 421.44 127.86 471.37 591.81 626.22 317.01 829.73 324.55 796.71 391.44 683.69 548.59 847.61 551.47
00152535 00000147 421.68 130.06 470.72 589.61 625.85 319.74 829.32 327.18 796.03 393.29 684.51 550.84 846.88 553.31
00152536 00000148 421.52 131.33 470.91 588.49 626.18 320.11 829.31 327.10 796.39 393.88 685.28 551.24 847.30 553.39
00152537 00000149 420.94 129.32 471.15 598.46 626.78 321.74 827.22 329.20 796.90 395.68 686.66 554.40 847.10 556.64
00152538 00000150 421.78 127.44 470.51 608.91 628.91 321.24 826.59 330.83 795.81 397.03 687.58 557.57 844.33 561.43
00152539 00000151 421.78 129.32 471.32 607.79 629.20 322.56 827.83 334.06 796.15 398.38 686.85 558.77 844.18 564.22
00152540 00000152 424.17 130.58 471.59 599.62 630.82 328.16 833.75 343.40 796.17 396.75 681.69 554.53 845.20 563.25
00152541 00000153 420.33 125.42 470.48 601.94 628.60 333.67 839.60 355.32 801.03 396.66 670.86 548.81 848.71 563.59
00152542 00000154 420.54 125.10 470.44 602.55 628.41 333.81 839.47 354.83 800.72 397.12 670.73 548.97 848.79 563.18
00152543 00000155 419.83 131.56 471.92 590.56 626.78 330.71 845.53 353.16 802.64 398.58 667.45 547.51 853.79 563.92
00152544 00000156 419.96 132.75 472.39 589.27 627.80 329.19 846.09 350.05 804.06 400.58 669.08 548.82 855.03 564.02
00152545 00000157 421.10 133.21 472.35 593.74 628.03 331.86 844.79 352.19 802.64 402.68 668.64 550.66 854.98 565.19
00152546 00000158 422.46 133.45 473.13 595.63 629.87 331.97 839.67 349.33 797.27 404.59 673.14 552.92 848.56 564.36
00152547 00000159 424.20 133.42 472.94 603.42 633.23 333.11 838.57 351.42 798.30 406.28 682.54 564.00 846.27 575.38
00152548 00000160 424.25 133.27 472.60 603.32 633.81 332.88 838.52 351.23 798.81 406.32 682.88 563.55 846.05 575.01
00152549 00000161 423.53 131.90 473.20 607.46 633.23 333.41 837.80 353.09 799.13 405.55 683.06 565.98 846.18 578.55
00152550 00000162 425.23 134.15 471.08 602.50 633.91 332.29 837.74 351.55 798.10 407.25 684.31 567.26 844.75 579.53
00152551 00000163 425.77 135.84 470.34 600.07 634.00 333.78 838.73 353.30 798.32 408.00 684.72 568.30 845.43 580.77
00152552 00000164 426.03 137.13 469.16 598.07 633.52 335.26 838.84 355.22 797.27 409.21 683.67 568.62 844.60 581.48
00152553 00000165 425.02 136.72 469.68 598.25 631.14 335.66 837.64 353.58 795.00 409.88 682.24 569.24 843.44 580.37
00152554 00000166 425.33 136.19 469.25 598.33 631.09 335.53 837.77 352.79 794.68 410.24 682.35 569.58 843.28 580.17
00152555 00000167 424.22 135.70 470.11 598.51 630.63 335.95 837.28 352.44 793.97 411.17 681.27 569.02 842.21 578.99
00152556 00000168 423.82 137.11 470.00 593.82 631.33 334.84 838.44 352.69 795.11 410.51 681.93 568.30 842.49 579.43
00152557 00000169 422.18 135.25 470.68 594.27 630.01 333.46 837.00 350.95 794.60 409.04 680.78 566.97 841.44 577.72
00152558 00000170 422.15 136.54 470.73 591.88 629.15 334.38 837.07 351.38 792.82 410.58 678.56 566.41 840.72 576.86
