Video ID: 	4z3mu63yxII
H: 	1080
W: 	1920
FPS: 	25.0

FRAME INDEX X0 Y0 W H [Landmarks (5 Points)]

00021988 00000000 591.30 158.70 463.28 716.14 741.25 506.26 939.53 461.00 880.50 612.97 798.61 709.75 981.40 669.78
00021989 00000001 588.32 154.64 469.23 721.46 738.85 505.67 937.01 459.98 877.80 614.17 802.58 715.60 979.30 675.24
00021990 00000002 586.70 147.19 471.68 727.21 736.25 505.08 934.35 459.02 873.97 614.22 803.43 716.74 977.42 676.26
00021991 00000003 586.08 143.00 472.39 734.01 733.54 504.67 934.44 459.34 871.90 616.17 800.18 719.31 975.29 679.61
00021992 00000004 586.36 146.96 473.22 735.62 733.81 504.71 934.96 459.05 872.57 617.65 802.38 724.00 975.34 684.19
00021993 00000005 586.85 150.84 475.62 742.43 735.78 511.00 938.54 462.20 878.78 625.88 808.31 733.93 981.04 691.18
00021994 00000006 588.50 172.28 475.00 717.83 737.75 520.85 936.86 473.29 879.97 633.08 810.64 741.26 977.30 700.32
00021995 00000007 590.02 174.67 472.66 725.06 737.21 532.97 933.92 485.88 877.54 646.23 808.41 747.50 975.10 707.01
00021996 00000008 589.47 173.14 463.61 732.66 727.73 551.68 924.62 507.61 860.33 657.41 791.54 752.22 964.20 714.12
00021997 00000009 583.55 172.96 463.14 736.89 714.98 558.42 916.02 518.80 841.08 668.80 774.78 756.04 951.18 721.35
00021998 DELETE   578.61 175.44 470.27 739.79 697.51 560.83 899.22 528.81 812.71 678.46 756.36 758.05 935.41 729.69
00021999 00000011 574.73 176.26 465.73 741.39 688.42 567.15 888.41 541.80 796.58 683.62 739.39 756.41 921.30 733.30
00022000 00000012 582.31 185.64 457.49 737.74 682.76 571.95 884.48 553.16 783.34 693.25 731.46 764.38 913.70 746.27
00022001 00000013 591.66 193.63 450.12 737.34 679.91 573.85 885.62 569.64 768.42 707.07 713.37 770.19 899.21 764.27
00022002 00000014 592.30 209.32 447.72 727.02 679.62 580.75 884.17 581.62 764.54 719.30 709.59 777.08 890.50 775.98
00022003 00000015 593.88 213.38 442.75 730.94 679.08 585.57 880.82 589.10 758.91 725.66 704.37 779.07 887.78 780.29
00022004 00000016 594.79 213.09 440.62 732.16 678.38 586.52 876.95 593.22 754.88 726.64 699.03 775.38 886.27 779.23
00022005 00000017 592.79 215.62 439.13 726.26 676.28 584.38 872.93 594.99 749.48 723.49 693.62 768.26 883.76 775.45
00022006 00000018 589.35 214.01 437.14 727.78 670.59 584.48 869.59 595.85 744.76 726.62 687.23 765.85 884.71 773.35
00022007 00000019 586.13 211.34 436.66 729.50 668.28 584.88 869.29 597.14 744.27 729.01 682.47 763.46 884.49 771.52
00022008 00000020 582.81 211.62 436.88 726.53 666.81 583.54 867.38 596.25 743.61 729.26 680.20 760.36 882.97 768.68
00022009 00000021 580.47 210.96 438.15 726.97 666.17 580.83 867.34 595.14 743.75 729.54 677.75 756.83 883.65 766.66
00022010 00000022 579.74 207.45 438.39 730.24 666.10 580.31 867.23 593.91 743.85 728.76 677.98 756.83 882.82 765.92
00022011 00000023 578.64 203.80 439.12 732.98 665.84 578.25 868.06 592.51 743.64 728.25 677.24 756.28 882.44 765.88
00022012 00000024 577.55 204.45 440.10 730.18 664.86 573.43 867.61 590.41 742.41 724.24 674.73 749.25 883.17 761.20
00022013 00000025 577.01 203.22 440.71 730.28 662.46 568.29 867.26 584.18 741.67 718.10 673.10 747.02 883.14 758.40
00022014 00000026 575.42 202.46 441.30 732.05 663.34 568.47 868.09 583.03 743.01 715.63 672.73 746.33 883.45 756.57
00022015 00000027 570.14 218.28 454.13 717.71 663.46 571.87 867.95 580.89 747.87 715.49 668.50 746.94 880.80 751.66
00022016 DELETE   575.54 202.39 444.80 739.86 667.49 571.99 873.89 589.41 748.96 721.81 675.75 751.93 887.88 764.08
00022017 00000029 574.73 210.81 444.53 732.48 667.52 578.66 871.05 593.28 749.05 725.80 677.74 755.34 888.21 765.00
00022018 00000030 575.60 209.45 443.01 733.10 667.26 578.88 871.81 596.70 746.92 728.55 675.77 756.50 885.25 768.72
00022019 00000031 573.92 208.85 443.48 733.69 665.12 580.52 870.01 597.45 746.00 731.33 674.82 758.68 883.79 770.14
00022020 00000032 573.05 209.12 443.85 732.09 663.99 580.16 868.54 596.12 744.66 730.24 675.66 761.62 881.64 772.15
00022021 00000033 571.22 208.21 445.26 729.66 661.97 576.38 866.63 590.78 743.61 722.86 676.91 760.39 879.20 769.70
00022022 00000034 572.96 197.29 444.09 737.42 660.81 574.11 867.35 585.47 743.77 718.06 677.96 762.60 878.31 769.34
00022023 00000035 572.98 196.51 443.83 736.24 659.50 570.11 866.24 581.18 741.97 713.72 679.09 761.65 877.17 768.25
00022024 00000036 575.89 193.00 442.83 738.70 662.48 567.63 866.14 578.80 742.32 708.59 682.89 763.27 873.61 769.91
00022025 00000037 582.51 190.45 436.97 743.01 666.51 566.72 867.78 577.33 743.74 709.62 690.30 773.24 868.73 779.87
00022026 00000038 585.00 185.47 434.81 745.71 669.43 565.86 870.77 579.38 745.04 708.11 689.92 776.98 861.01 786.20
00022027 00000039 585.97 183.40 433.90 750.81 670.40 563.58 871.01 577.48 744.95 706.89 691.65 782.23 853.14 792.25
00022028 00000040 585.37 181.76 435.06 748.62 668.83 561.58 870.31 575.90 743.42 703.96 692.28 783.69 847.54 794.32
00022029 00000041 587.49 177.75 434.92 751.93 670.06 562.09 870.25 577.81 742.62 706.24 694.17 786.63 846.75 798.18
00022030 00000042 589.42 182.60 436.23 746.17 672.77 561.45 871.89 579.32 743.23 706.14 695.84 787.35 846.04 800.65
00022031 00000043 592.38 185.35 435.81 743.25 673.53 561.67 872.49 579.54 743.52 706.51 696.13 787.11 848.03 800.36
00022032 00000044 594.70 181.80 435.53 744.48 673.57 560.20 874.02 576.82 744.30 705.62 698.16 786.76 852.04 798.89
00022033 00000045 596.00 174.81 436.25 748.12 674.62 555.46 876.33 572.70 746.67 702.22 699.37 784.10 853.88 796.43
00022034 00000046 600.57 175.55 434.17 748.40 677.16 554.68 878.16 569.33 750.49 698.43 701.25 779.53 860.58 789.47
00022035 00000047 600.67 172.78 436.89 751.82 679.31 554.65 879.26 567.59 752.36 695.62 702.88 776.69 862.87 785.12
00022036 00000048 601.43 170.15 436.06 753.93 680.19 554.27 881.15 566.68 754.98 694.13 703.20 775.43 864.52 783.37
00022037 00000049 602.29 164.17 435.25 760.11 680.79 554.64 880.35 565.95 755.43 693.08 703.26 775.16 865.01 782.13
00022038 00000050 601.74 165.74 435.79 758.53 680.47 554.62 880.32 565.98 755.25 693.34 703.06 775.35 864.63 782.48
00022039 00000051 603.61 165.19 433.74 758.52 681.38 553.95 879.98 565.48 755.58 692.01 704.50 774.85 865.28 781.96
00022040 00000052 602.17 161.76 435.44 762.68 681.39 551.99 879.09 563.61 755.65 690.86 705.09 773.84 865.45 781.08
00022041 00000053 603.00 160.71 434.82 762.13 681.90 550.58 877.73 561.99 754.73 690.31 706.32 772.76 865.30 779.76
00022042 00000054 603.87 156.58 434.36 764.70 682.54 549.58 878.05 560.99 755.86 687.97 707.07 771.79 865.55 778.65
00022043 00000055 603.08 158.35 434.63 763.69 682.23 549.35 877.82 560.31 755.66 687.65 707.18 770.97 866.48 777.57
00022044 00000056 602.13 157.48 434.51 768.24 683.00 550.69 877.07 561.72 756.24 688.34 707.64 770.49 867.72 776.94
00022045 00000057 600.75 158.61 434.75 767.69 681.48 552.74 876.54 562.74 756.09 689.98 706.25 769.77 870.32 775.33
00022046 00000058 601.15 161.78 432.74 764.83 680.31 555.11 876.56 564.82 755.45 692.37 704.35 772.16 869.74 777.69
00022047 00000059 602.76 160.71 430.65 765.17 679.38 556.00 875.13 565.54 754.56 692.31 704.28 773.07 868.95 778.36
00022048 00000060 601.54 162.66 431.17 762.78 679.66 553.68 873.81 564.76 753.62 690.54 704.92 772.12 866.81 778.75
00022049 00000061 601.25 156.90 430.94 767.54 679.38 549.36 873.39 561.76 751.88 688.08 704.40 769.76 866.61 777.38
00022050 00000062 600.92 153.91 430.98 770.50 680.10 548.21 873.20 560.28 752.45 686.26 704.90 768.50 866.06 775.92
00022051 00000063 600.16 154.39 431.43 767.38 680.60 547.86 874.18 559.24 754.29 685.30 705.87 767.82 865.55 774.56
00022052 00000064 603.10 153.04 428.92 766.03 680.87 547.38 875.36 559.71 754.32 686.29 704.66 768.14 864.88 775.62
00022053 00000065 603.57 154.41 428.33 761.18 679.57 547.91 875.62 560.32 753.38 686.60 702.70 768.68 863.45 776.27
00022054 00000066 603.85 152.65 428.05 761.24 679.22 547.29 874.46 560.77 751.09 686.42 702.59 767.52 862.25 775.84
00022055 00000067 602.72 152.01 428.94 762.55 678.30 546.56 872.26 559.59 749.35 685.15 702.50 767.80 860.66 775.84
00022056 00000068 601.34 154.45 429.35 755.67 676.56 545.71 871.08 559.52 747.66 683.86 700.90 765.39 859.67 774.01
00022057 00000069 600.59 154.09 430.50 752.14 675.69 543.84 871.19 558.14 747.98 682.10 698.94 763.77 858.35 772.99
00022058 00000070 599.48 156.03 432.04 748.43 676.28 543.02 872.41 557.13 749.39 680.16 698.82 761.49 859.12 770.61
00022059 00000071 599.79 158.18 433.83 748.28 678.19 542.44 873.26 557.05 750.36 680.40 701.17 759.30 862.73 768.61
00022060 00000072 600.54 158.05 431.47 749.43 678.92 542.72 873.88 557.60 751.26 679.89 701.30 759.99 861.91 769.67
00022061 00000073 600.10 154.31 428.96 754.81 676.65 545.47 869.28 559.73 747.48 682.14 700.27 762.97 858.59 772.14
00022062 00000074 598.44 155.74 427.82 754.05 675.70 546.18 868.63 559.67 747.17 681.29 698.17 764.64 855.70 773.47
00022063 00000075 597.91 156.72 428.34 752.63 674.49 545.82 868.54 560.13 746.35 680.83 696.18 763.98 855.44 773.50
00022064 00000076 595.96 154.00 429.77 755.99 675.43 544.93 868.42 558.33 748.66 679.77 697.12 762.61 855.82 771.31
00022065 00000077 596.09 150.94 430.61 757.52 676.44 543.34 869.23 556.87 750.31 678.78 698.18 761.04 856.25 769.81
00022066 00000078 595.66 150.53 431.85 758.09 676.11 543.54 869.43 556.88 750.26 679.30 698.73 761.44 857.28 769.94
00022067 00000079 596.12 151.41 429.70 761.48 676.68 543.74 868.54 557.43 749.79 678.90 698.40 762.25 856.09 771.05
00022068 00000080 594.28 153.77 429.90 760.52 676.49 544.98 868.12 558.37 749.33 677.08 697.00 761.95 854.98 770.60
00022069 00000081 594.34 152.08 429.99 759.55 675.27 544.69 867.54 558.18 748.20 677.24 695.74 762.11 853.49 770.87
00022070 00000082 592.97 151.34 430.52 762.33 674.72 543.53 868.07 556.55 748.50 676.73 695.10 762.05 854.00 770.55
00022071 00000083 591.64 150.95 432.06 761.94 673.34 543.45 867.85 555.47 748.07 675.98 694.21 761.62 854.00 769.33
00022072 00000084 591.01 151.40 432.81 758.73 672.92 542.98 868.20 555.32 748.47 675.67 693.98 761.18 853.48 769.21
00022073 00000085 591.54 153.77 432.73 756.25 673.44 543.81 867.88 556.85 748.40 677.15 694.68 761.72 853.28 770.24
00022074 00000086 590.60 155.60 433.81 754.76 671.96 543.07 867.67 556.53 747.17 677.66 693.28 761.69 853.23 770.61
00022075 00000087 589.00 154.48 433.98 761.00 671.33 542.51 867.41 555.13 746.08 677.54 692.22 761.99 853.13 770.32
00022076 00000088 589.17 151.01 433.69 766.96 671.63 540.49 867.21 553.18 745.54 678.15 692.54 764.11 851.61 772.60
00022077 00000089 588.55 152.01 433.78 765.18 672.66 538.47 868.90 552.16 747.69 678.98 693.44 764.68 850.25 774.20
00022078 00000090 588.56 148.17 434.13 766.52 673.90 536.18 869.98 551.23 749.74 677.31 692.48 763.27 847.19 774.11
00022079 00000091 587.94 147.33 435.29 764.86 674.73 535.65 870.63 547.62 752.71 674.35 695.30 763.47 848.16 771.83
00022080 00000092 584.26 146.36 438.69 763.48 675.35 535.83 873.10 545.50 757.51 672.29 696.64 759.72 852.32 766.06
00022081 00000093 580.93 144.65 443.26 766.99 673.95 536.98 873.00 543.63 756.98 669.55 695.25 759.45 855.29 763.40
00022082 00000094 579.33 143.16 442.66 762.79 670.58 536.82 871.15 544.41 754.51 668.20 691.85 756.15 853.84 760.67
00022083 00000095 579.56 145.67 439.13 756.46 666.92 534.24 869.64 544.11 751.70 670.35 686.59 755.74 850.33 762.19
00022084 00000096 578.78 150.25 439.33 749.36 665.05 532.49 865.97 542.88 747.03 668.73 685.06 754.21 846.78 761.13
00022085 00000097 578.37 148.27 434.48 748.93 664.72 527.39 863.71 540.23 738.47 668.50 686.73 752.10 839.13 762.13
00022086 00000098 577.04 149.69 435.63 745.44 664.24 527.20 864.17 539.63 739.13 667.75 686.75 751.58 838.95 761.23
00022087 00000099 576.28 150.19 436.84 744.87 663.78 527.26 863.72 539.45 738.68 667.63 686.34 750.63 839.54 760.03
00022088 00000100 576.76 151.26 434.00 740.74 661.85 527.89 862.19 538.97 737.28 667.90 685.02 751.56 837.66 760.10
00022089 00000101 576.05 148.49 433.75 743.92 660.92 527.68 859.20 538.54 734.02 666.79 684.19 750.76 835.13 759.07
00022090 00000102 575.80 151.03 433.68 742.17 657.64 525.76 857.03 536.01 731.13 666.53 682.81 750.73 835.32 758.59
00022091 00000103 574.85 147.89 434.25 749.02 657.22 525.18 855.94 533.81 730.86 665.35 684.11 753.74 833.99 760.46
00022092 00000104 573.17 146.58 435.28 758.25 657.24 523.36 853.87 532.28 729.70 664.70 685.31 759.59 829.49 766.96
00022093 00000105 574.08 144.42 434.45 759.74 658.60 523.47 854.90 532.40 731.43 665.04 686.13 759.89 829.40 767.30
00022094 00000106 574.30 142.08 434.92 759.06 659.77 524.24 857.38 532.44 733.31 663.60 685.19 756.25 831.96 762.84
00022095 00000107 576.24 142.11 434.90 757.52 662.68 521.94 860.90 530.73 736.69 658.47 686.45 755.46 832.48 762.60
00022096 DELETE   571.75 158.66 445.35 728.22 669.35 509.37 874.39 518.25 755.30 639.86 696.07 745.64 841.95 753.39
00022097 DELETE   574.86 161.31 452.81 720.13 684.86 498.40 891.59 491.45 788.02 612.84 721.66 730.84 874.93 725.35
00022098 DELETE   569.67 163.32 459.08 700.16 698.83 489.96 897.82 474.35 811.57 595.26 743.26 714.55 896.72 701.55
00022099 00000111 567.37 156.24 457.92 706.96 700.48 481.36 900.29 457.51 825.08 590.33 759.10 714.83 911.08 694.31
00022100 00000112 559.42 155.76 458.24 715.54 694.47 485.34 894.42 456.61 822.07 593.54 754.19 718.07 913.68 693.54
00022101 00000113 552.40 162.17 462.20 712.56 685.99 495.79 884.90 463.59 811.44 603.37 748.08 724.11 907.70 696.87
00022102 DELETE   532.13 158.67 471.69 722.96 671.67 505.42 872.42 470.07 802.92 611.23 745.96 738.11 898.18 707.61
00022103 00000115 524.15 163.44 467.33 722.31 658.37 507.59 858.12 473.62 786.66 615.20 731.02 737.49 885.14 708.22
00022104 00000116 512.52 178.09 468.92 706.23 645.06 509.85 842.72 471.58 774.39 617.39 718.66 738.53 875.71 706.00
00022105 DELETE   504.85 183.70 472.53 700.57 635.76 512.25 834.69 471.69 763.85 619.65 708.80 739.47 870.14 705.29
00022106 00000118 501.30 177.55 467.44 704.51 631.20 512.47 828.58 473.33 757.74 620.76 701.55 737.18 863.61 703.99
00022107 00000119 494.25 172.87 469.44 710.69 627.29 513.64 826.71 475.07 755.60 624.14 695.74 738.28 859.30 705.78
00022108 00000120 492.12 171.18 468.70 714.38 624.99 513.72 824.33 476.08 752.35 625.95 693.95 738.58 858.09 706.73
00022109 00000121 488.51 172.22 471.11 714.26 623.05 514.95 823.82 477.77 750.96 628.80 691.47 738.47 857.98 706.97
00022110 00000122 488.00 175.32 471.84 711.06 621.38 514.89 822.43 478.15 749.06 628.32 690.06 739.20 855.65 708.15
00022111 00000123 487.01 172.11 472.68 714.00 621.13 515.34 822.39 478.17 748.80 627.95 689.81 739.33 855.38 707.91
00022112 00000124 487.24 170.73 472.87 713.55 621.02 514.06 822.55 477.49 748.10 627.53 688.95 738.03 855.24 707.09
00022113 00000125 489.20 173.42 472.98 710.95 621.27 513.28 822.51 477.20 747.16 628.05 689.42 738.01 855.25 707.47
00022114 00000126 490.33 172.30 472.31 712.48 621.55 513.72 822.85 477.34 747.65 628.42 689.70 738.43 855.74 707.66
00022115 00000127 489.72 173.33 473.16 711.59 621.01 513.88 822.69 477.35 747.19 628.70 689.27 738.76 855.71 707.87
00022116 00000128 487.97 172.63 474.13 711.83 619.96 514.22 822.56 478.10 746.33 628.66 687.63 738.80 854.61 708.25
00022117 00000129 486.26 174.89 474.94 710.97 618.71 513.40 821.64 478.15 744.92 629.51 686.74 738.78 853.73 708.83
00022118 00000130 486.21 173.97 474.81 713.30 618.00 513.58 820.69 478.30 744.33 629.69 685.96 739.91 852.95 710.01
00022119 00000131 486.42 175.86 474.95 713.25 617.03 514.51 820.04 478.99 743.34 630.22 685.17 741.32 852.50 711.25
00022120 00000132 487.22 176.26 474.22 714.04 616.72 515.08 819.07 479.59 742.83 630.69 684.77 741.83 851.96 711.84
00022121 00000133 487.33 175.27 473.39 714.91 616.46 514.88 818.87 480.44 742.34 631.20 684.07 742.00 850.78 712.81
00022122 00000134 486.86 177.60 473.09 713.80 616.16 515.13 818.12 481.15 741.89 631.60 683.75 742.96 848.92 714.31
00022123 00000135 486.19 176.64 472.84 715.67 616.21 515.45 817.66 481.40 742.72 631.88 683.75 742.79 849.09 714.08
00022124 00000136 485.89 179.75 472.94 714.73 615.03 514.57 817.07 480.15 741.81 631.54 683.34 744.01 849.02 715.04
00022125 00000137 485.55 178.01 472.45 717.28 615.40 514.40 817.14 480.95 741.70 632.25 683.40 744.38 847.39 716.33
00022126 00000138 485.21 177.77 472.11 717.60 614.68 514.98 816.19 480.86 741.01 632.38 683.28 744.98 847.37 716.37
00022127 00000139 483.72 173.77 473.72 723.42 613.76 515.67 814.27 481.13 739.34 632.44 682.61 745.34 847.22 716.18
00022128 00000140 482.47 172.79 474.31 725.93 612.88 516.29 813.41 481.52 738.32 632.89 681.83 746.09 846.81 716.71
00022129 00000141 482.59 174.62 474.92 725.07 611.85 516.60 812.45 481.61 736.67 632.89 680.56 746.68 846.18 717.15
00022130 00000142 481.57 174.42 475.04 726.98 611.54 517.07 811.67 482.13 736.38 634.12 680.00 747.27 845.48 717.78
00022131 00000143 481.32 173.54 476.41 729.40 611.13 516.97 811.60 482.27 735.74 635.59 679.69 748.43 845.75 719.19
00022132 00000144 481.89 174.79 475.39 728.99 610.90 516.88 811.21 481.89 735.79 636.02 680.17 749.56 845.14 720.19
00022133 00000145 483.22 175.60 473.99 729.29 610.79 521.08 811.61 484.88 734.79 636.38 678.36 751.88 844.46 721.57
00022134 00000146 484.65 173.30 472.75 731.32 612.53 526.48 811.65 489.25 736.04 636.51 679.40 752.55 843.91 721.31
00022135 00000147 483.64 177.65 475.79 727.61 611.28 522.44 809.59 484.99 734.92 637.58 680.84 752.85 845.02 721.52
00022136 00000148 481.11 177.30 479.05 729.18 608.86 517.06 808.54 480.61 733.57 638.17 681.47 752.83 844.78 722.23
00022137 00000149 481.36 178.04 479.06 727.20 607.79 515.35 808.11 479.40 731.99 637.65 680.83 751.65 843.74 721.44
00022138 00000150 479.63 173.04 478.72 732.50 607.53 516.02 807.72 479.88 731.94 637.41 678.63 750.70 843.93 720.15
00022139 00000151 477.97 174.26 478.92 732.02 606.46 516.96 806.42 480.52 731.07 638.02 677.63 750.70 844.91 719.67
00022140 00000152 476.05 170.55 479.15 736.17 605.80 517.90 805.86 481.47 730.50 639.05 676.84 750.98 844.88 719.81
00022141 00000153 476.42 173.12 477.53 732.73 604.61 517.84 805.32 481.39 729.63 639.41 675.58 750.46 844.14 719.31
00022142 00000154 477.92 171.74 475.55 733.46 604.27 517.91 804.99 481.59 728.53 639.18 674.06 749.91 843.39 718.80
00022143 00000155 478.71 172.17 474.21 730.77 604.36 517.50 804.60 481.93 727.81 639.02 673.80 748.76 842.00 718.26
00022144 00000156 478.96 172.47 473.28 728.19 604.20 517.53 804.44 482.13 727.42 638.29 673.18 747.66 840.50 717.34
00022145 00000157 478.97 175.07 474.16 724.59 604.22 516.72 804.45 482.40 726.62 638.03 673.10 747.38 839.12 718.01
00022146 00000158 479.25 175.61 473.89 724.15 604.48 516.55 804.22 482.53 726.26 637.69 673.03 747.56 837.27 718.56
00022147 00000159 478.92 175.49 474.29 724.73 604.57 516.32 804.04 482.45 726.15 637.45 673.06 747.99 836.90 719.15
00022148 00000160 479.72 175.47 473.02 723.58 604.89 515.90 804.68 482.37 726.35 636.63 672.90 747.64 836.21 719.15
00022149 00000161 479.41 173.43 473.11 726.19 604.80 516.34 804.55 482.69 726.17 636.72 672.62 747.70 836.18 719.05
00022150 00000162 479.31 176.57 472.63 722.42 603.98 515.98 803.81 483.23 724.59 637.27 670.80 746.95 833.70 719.17
00022151 00000163 480.21 176.87 469.62 719.50 602.62 515.59 801.89 483.78 721.21 637.20 668.73 746.77 829.44 719.74
00022152 00000164 480.68 169.50 467.54 727.67 593.60 519.48 801.11 481.03 712.71 634.72 661.11 754.19 820.77 721.45
00022153 DELETE   481.88 169.75 465.44 721.98 582.90 521.48 786.42 482.63 691.98 631.52 649.97 748.81 810.28 716.04
00022154 DELETE   476.97 167.86 469.06 717.98 563.45 510.72 759.32 479.26 651.22 629.61 628.33 743.12 782.31 716.63
00022155 DELETE   472.34 171.88 472.32 712.38 547.74 501.20 735.52 475.86 612.64 622.75 606.31 729.95 762.64 707.17
00022156 00000168 461.23 174.57 473.34 717.73 526.11 505.49 704.49 480.04 571.46 630.77 585.96 735.87 738.32 712.98
00022157 DELETE   449.56 164.18 472.21 737.73 504.53 509.92 676.13 481.16 538.81 632.50 564.06 740.45 720.91 714.36
00022158 DELETE   434.25 180.62 470.25 726.04 488.39 513.53 655.54 487.63 519.24 637.31 551.41 742.24 707.26 717.77
