Video ID: 	yuaSNTULQ74
H: 	1080
W: 	1920
FPS: 	29.97002997002997

FRAME INDEX X0 Y0 W H [Landmarks (5 Points)]

00005483 00000000 652.87 171.88 358.65 516.96 761.30 404.19 926.75 359.02 883.05 481.79 789.35 545.36 963.78 509.75
00005484 DELETE   653.63 172.32 359.24 513.29 761.22 403.36 926.57 354.54 885.44 480.22 789.08 545.30 963.49 507.18
00005485 00000002 647.12 158.18 360.70 521.56 760.82 401.87 924.79 357.79 878.65 475.81 787.73 541.93 960.12 505.95
00005486 00000003 643.83 152.23 361.84 521.70 756.14 391.54 920.16 356.46 867.85 466.91 781.69 533.44 952.07 504.67
00005487 DELETE   638.11 149.34 361.05 518.37 747.13 382.56 913.38 352.41 858.13 456.83 776.21 528.23 944.79 503.27
00005488 DELETE   634.09 147.78 358.60 516.55 737.00 374.05 905.67 348.57 845.23 452.28 768.15 523.63 936.78 502.37
00005489 DELETE   628.65 149.58 360.38 512.48 726.85 371.56 896.78 348.42 833.08 450.69 760.70 521.55 930.36 501.78
00005490 00000007 628.88 156.06 359.51 513.33 722.35 377.44 887.72 340.53 829.72 446.70 748.01 527.56 917.71 495.25
00005491 00000008 624.01 155.54 357.21 513.85 717.98 381.35 883.70 341.27 824.69 446.37 740.85 529.03 913.02 494.90
00005492 DELETE   616.01 156.71 358.40 514.98 714.53 385.37 879.62 343.95 821.95 450.35 738.63 532.08 910.91 497.04
00005493 DELETE   611.86 160.72 353.02 519.60 699.33 389.63 864.69 342.07 808.45 463.19 738.53 538.19 910.64 499.56
00005494 00000011 608.54 158.64 353.46 523.84 697.62 401.76 860.31 347.40 809.41 469.57 740.16 545.78 911.16 501.31
00005495 00000012 605.49 161.42 357.83 522.28 698.44 408.06 860.57 350.18 814.68 474.79 742.46 550.86 912.71 503.81
00005496 00000013 602.55 164.57 360.76 519.36 701.52 414.60 861.82 349.13 822.92 476.07 749.38 557.55 915.54 504.79
00005497 00000014 602.27 165.31 361.78 520.65 703.05 418.19 860.12 349.73 823.96 476.33 753.00 560.95 915.70 505.91
00005498 00000015 602.80 164.54 363.38 519.90 702.26 416.41 859.85 348.18 823.73 475.84 754.78 560.56 916.64 505.40
00005499 00000016 602.11 165.81 365.98 517.46 698.32 416.12 857.00 343.93 820.21 469.51 754.78 561.87 916.78 502.76
00005500 00000017 599.72 170.94 369.65 511.21 696.97 415.73 856.47 341.62 821.51 466.78 756.44 562.07 917.91 501.35
00005501 00000018 598.33 171.06 372.61 512.95 693.88 415.93 853.51 340.26 817.20 466.60 756.11 564.07 916.56 501.56
00005502 00000019 593.93 174.47 377.77 513.04 691.35 419.03 850.41 341.32 814.49 468.18 755.99 567.01 915.05 502.69
00005503 00000020 590.32 169.87 379.91 523.41 687.40 424.22 847.15 345.44 808.74 472.88 752.78 567.62 912.95 502.10
00005504 00000021 592.18 170.43 375.34 526.55 687.25 429.64 846.50 352.73 808.07 485.58 755.15 572.40 913.69 508.34
00005505 00000022 595.22 180.22 371.02 518.72 687.51 437.21 849.91 365.32 806.63 501.71 757.54 582.82 915.59 522.95
00005506 00000023 596.39 187.77 371.78 516.16 688.53 441.21 853.03 371.34 805.97 514.49 755.62 588.47 915.24 530.60
00005507 00000024 599.19 188.42 370.03 517.90 687.89 438.99 853.84 374.81 801.80 519.58 751.37 587.98 913.05 534.91
00005508 00000025 605.48 185.16 363.57 519.38 687.55 434.96 854.28 373.95 796.97 516.72 746.09 584.56 911.57 534.17
00005509 00000026 605.72 176.58 361.29 525.09 686.15 423.90 853.88 369.71 794.26 507.55 740.11 575.72 907.75 530.51
00005510 00000027 606.37 167.84 359.71 526.72 685.55 413.90 852.58 361.70 794.49 497.46 737.57 567.62 905.88 524.13
00005511 00000028 607.54 162.94 358.02 528.02 686.72 406.34 850.49 356.29 792.47 487.45 739.10 562.61 903.22 520.73
00005512 00000029 606.93 159.25 357.25 529.01 688.59 400.80 852.85 349.08 796.53 477.16 741.75 559.62 904.56 516.17
00005513 00000030 609.11 157.43 356.53 527.27 691.55 398.53 856.30 344.05 800.44 472.70 743.62 556.69 906.34 511.48
00005514 00000031 610.23 158.80 360.83 524.24 695.67 398.40 860.04 340.30 807.32 468.91 749.41 555.69 911.32 507.45
00005515 00000032 614.14 159.10 361.57 521.35 700.16 399.04 866.31 338.40 816.68 464.19 755.30 556.34 919.65 506.19
00005516 00000033 616.60 163.02 370.10 515.40 719.23 392.58 881.17 346.60 832.29 456.33 765.26 546.81 922.26 507.00
00005517 00000034 621.63 163.14 370.47 513.85 726.14 390.95 886.35 346.17 838.38 456.52 772.41 544.76 927.53 505.75
00005518 00000035 624.09 159.66 373.51 517.12 731.84 392.53 891.60 343.24 846.49 453.84 780.66 546.71 933.79 503.99
00005519 00000036 620.72 151.99 368.56 520.77 732.78 391.72 895.42 345.67 851.60 459.29 787.81 548.23 939.86 509.07
00005520 00000037 622.86 153.16 366.34 517.74 735.20 391.01 898.25 344.23 856.46 457.69 791.33 549.00 942.32 509.44
00005521 00000038 624.66 151.04 365.16 519.68 737.97 391.52 900.27 344.08 860.48 458.70 794.47 550.09 943.76 510.08
00005522 00000039 627.50 150.92 363.59 520.81 740.85 392.04 900.81 344.04 863.35 459.21 797.47 550.59 944.50 510.23
00005523 00000040 629.40 149.30 362.03 525.79 742.56 391.62 901.65 343.76 865.09 458.86 798.90 551.50 945.96 511.27
00005524 00000041 630.16 150.56 361.92 529.18 745.28 391.02 902.95 344.76 866.53 458.72 799.17 551.24 946.47 512.36
00005525 00000042 632.43 153.11 360.66 528.02 747.56 391.40 904.02 346.63 866.93 459.40 799.74 551.49 945.98 513.87
00005526 00000043 633.34 155.20 359.93 527.48 748.25 390.29 905.57 346.12 867.97 460.43 799.43 551.51 947.41 514.38
00005527 00000044 635.07 155.12 359.04 526.62 749.51 390.95 906.68 347.14 869.02 460.32 799.88 551.26 948.20 514.36
00005528 00000045 635.30 154.48 359.41 524.52 750.09 391.85 907.66 347.66 869.79 461.43 800.57 550.91 948.36 513.70
00005529 00000046 634.90 153.54 360.57 521.46 750.17 392.56 908.10 347.42 869.72 460.37 802.05 550.37 948.10 512.30
00005530 00000047 635.79 154.92 358.98 519.06 749.87 392.15 908.10 346.35 869.73 459.06 802.61 550.41 948.86 511.78
00005531 00000048 634.50 151.86 360.92 519.69 749.28 391.74 907.72 345.70 869.57 458.29 802.01 549.36 947.99 510.47
00005532 00000049 634.31 152.07 360.66 517.88 748.76 390.74 907.95 345.29 869.68 457.58 800.89 548.29 947.95 509.92
00005533 00000050 635.13 152.92 359.78 516.91 748.69 389.75 907.85 344.37 868.69 456.20 801.05 547.91 948.11 509.58
00005534 00000051 634.71 151.59 359.53 518.84 747.44 389.30 906.34 344.20 867.04 454.83 800.54 547.91 947.02 509.85
00005535 00000052 633.60 150.29 359.78 519.58 746.56 388.27 905.28 343.56 866.47 453.65 802.61 549.02 945.39 511.36
00005536 00000053 633.07 148.68 357.56 517.98 745.99 387.11 906.67 344.71 866.56 454.68 807.47 552.89 944.31 517.15
00005537 00000054 631.63 147.27 357.58 517.14 744.69 385.06 907.56 345.08 865.17 455.50 808.84 553.96 943.62 520.10
00005538 00000055 629.73 143.11 357.24 521.32 741.34 387.96 903.80 350.04 857.84 454.38 803.85 552.99 938.25 520.79
00005539 00000056 629.19 139.13 355.76 526.41 739.23 388.80 900.29 352.02 853.24 453.07 800.14 553.37 933.00 522.11
00005540 00000057 629.86 140.33 354.02 534.99 737.10 391.49 887.32 346.77 843.91 448.55 794.61 559.16 919.99 520.50
00005541 00000058 627.31 143.63 352.38 535.57 734.32 387.62 883.11 350.94 835.90 451.95 786.06 555.92 913.83 523.62
00005542 00000059 625.19 148.90 353.19 530.83 729.70 386.10 880.36 354.54 829.60 454.11 775.53 552.58 908.01 524.92
00005543 00000060 621.24 149.35 353.28 531.10 721.50 383.63 877.27 353.24 823.75 454.66 765.28 552.53 905.41 525.94
00005544 00000061 618.56 148.74 352.37 528.48 715.83 381.28 872.22 352.01 815.93 454.71 759.72 551.50 900.74 525.94
00005545 00000062 618.92 152.17 347.79 523.27 706.39 384.82 865.40 349.45 804.77 467.81 759.30 560.37 895.28 530.39
00005546 00000063 617.64 153.20 348.66 522.93 705.42 383.24 864.70 348.62 804.12 466.94 758.88 560.22 894.93 530.94
00005547 00000064 617.56 152.03 347.94 523.08 705.78 383.44 866.67 350.24 805.06 468.40 758.04 559.90 895.30 531.79
00005548 00000065 619.58 151.35 352.57 522.59 714.63 382.45 871.48 353.24 814.84 455.67 756.52 550.75 899.56 525.84
00005549 00000066 622.06 155.06 353.21 522.02 721.93 384.06 877.60 355.78 824.10 456.68 763.58 551.62 904.11 527.28
00005550 00000067 624.83 156.87 354.96 525.61 729.34 386.96 883.67 357.85 835.29 460.96 771.72 553.86 910.31 528.64
00005551 00000068 624.91 159.05 355.82 529.66 731.40 393.23 886.20 360.32 839.64 463.28 776.31 559.16 916.60 530.75
00005552 00000069 623.73 161.41 356.75 531.75 731.92 397.22 883.19 364.29 840.77 468.38 779.31 562.97 917.26 534.49
00005553 00000070 622.65 164.29 355.60 532.31 730.17 401.76 880.62 367.41 840.09 474.71 782.22 570.35 917.76 540.59
00005554 00000071 626.76 168.38 350.47 526.66 715.92 414.96 872.04 368.58 826.29 485.45 778.62 582.70 916.03 543.46
00005555 00000072 624.45 174.22 350.31 522.54 712.67 416.50 869.50 370.52 820.93 488.40 773.58 582.35 914.02 543.57
00005556 00000073 620.30 175.72 351.12 521.01 706.05 415.77 861.61 368.93 811.04 489.97 767.01 580.80 907.96 541.35
00005557 00000074 614.21 171.48 356.01 525.92 698.39 412.02 856.21 365.62 802.83 490.81 761.19 582.11 901.83 542.58
00005558 00000075 608.46 171.73 358.89 525.44 694.33 407.26 853.28 363.22 798.44 488.95 757.52 584.01 894.12 546.20
00005559 00000076 607.45 163.01 357.82 533.05 690.54 403.84 849.60 359.07 793.60 485.96 755.47 585.43 890.54 546.73
00005560 00000077 606.79 162.86 355.81 529.19 689.12 400.77 846.26 357.78 792.32 483.39 754.50 583.27 885.78 546.12
00005561 00000078 608.38 157.90 353.12 532.08 688.61 398.48 846.05 355.99 791.77 481.82 753.52 583.49 883.43 546.89
00005562 00000079 609.52 160.95 350.89 528.75 690.01 396.20 845.18 354.19 791.61 478.46 755.12 580.59 883.33 544.23
00005563 00000080 611.51 158.78 349.01 528.42 691.41 393.78 846.45 353.54 792.65 475.95 755.41 578.90 881.90 544.14
00005564 00000081 612.32 155.93 351.22 531.92 692.74 394.45 848.88 351.68 795.24 472.65 755.84 575.55 887.42 539.03
00005565 00000082 616.50 154.51 348.71 534.66 697.11 394.61 852.93 349.63 800.13 470.01 757.48 573.64 892.56 535.47
00005566 00000083 620.02 154.20 347.07 532.49 701.50 394.41 858.38 350.59 806.42 469.25 761.02 571.40 896.88 534.24
00005567 00000084 618.40 153.82 353.42 532.82 717.97 386.78 874.60 357.66 820.08 464.75 761.80 558.83 904.50 533.43
00005568 00000085 622.09 155.99 354.18 526.52 723.07 387.00 878.90 356.44 826.37 461.08 767.86 556.38 907.62 529.77
00005569 00000086 625.25 157.31 352.29 521.82 726.67 386.41 882.24 355.35 829.93 459.24 771.37 554.37 909.77 527.67
00005570 00000087 626.68 155.12 351.00 522.82 728.20 385.43 884.00 354.98 831.54 456.93 772.61 553.27 910.06 527.20
00005571 00000088 627.06 154.32 351.68 523.81 728.16 385.50 883.10 355.41 830.95 456.68 772.99 553.93 908.99 528.08
00005572 00000089 627.56 154.96 352.73 524.48 727.28 386.65 884.45 357.28 830.98 459.78 771.28 555.77 909.42 530.55
00005573 00000090 626.48 154.96 354.40 526.48 727.41 387.27 884.31 358.98 830.98 460.91 770.13 555.91 909.83 531.40
00005574 00000091 628.14 154.97 352.80 526.48 726.37 388.53 883.04 359.80 830.01 462.41 769.62 557.35 909.28 532.57
00005575 00000092 629.51 154.31 352.64 527.74 726.70 388.61 884.07 360.23 830.51 462.88 769.51 557.38 909.70 533.02
00005576 00000093 631.07 155.77 353.48 526.75 727.84 387.78 885.79 360.61 831.08 462.72 769.07 555.26 910.54 531.64
00005577 00000094 633.47 154.56 353.32 526.61 729.34 387.53 887.72 360.95 832.42 463.00 770.31 553.48 912.29 530.25
00005578 00000095 635.44 154.37 352.98 526.22 731.87 386.68 890.67 359.81 835.24 460.93 773.55 553.29 914.19 529.82
00005579 00000096 632.58 146.01 355.55 529.49 732.28 382.64 895.45 359.59 836.22 459.41 781.37 548.73 921.91 529.07
00005580 00000097 635.63 144.01 354.98 528.84 734.83 381.61 897.31 356.89 838.92 457.83 784.28 547.53 924.52 526.49
00005581 00000098 639.63 141.67 352.81 529.44 737.13 380.63 899.56 354.32 842.03 456.35 787.31 547.97 926.28 525.65
00005582 00000099 642.02 141.30 351.52 528.55 738.94 378.61 900.87 351.39 844.49 455.47 790.27 547.87 927.80 524.76
00005583 00000100 643.33 141.11 351.25 528.50 741.60 377.73 902.20 350.52 847.66 455.98 793.30 547.68 929.32 524.67
00005584 00000101 644.37 142.34 350.69 526.78 742.36 378.02 903.20 350.26 848.60 455.64 794.17 547.77 930.45 524.30
00005585 00000102 645.76 143.04 349.94 526.44 743.58 378.91 903.43 350.29 849.40 455.97 795.44 548.14 931.34 524.06
00005586 00000103 646.22 147.68 349.29 524.56 745.94 379.98 904.77 351.74 852.36 456.31 796.99 549.67 931.61 526.02
00005587 00000104 647.43 149.03 349.37 526.29 748.19 382.20 905.93 352.99 855.43 455.55 798.72 551.62 933.37 527.21
00005588 00000105 649.25 151.67 348.34 526.55 751.56 385.61 908.20 357.65 857.72 457.68 799.07 552.82 934.61 529.47
00005589 00000106 653.69 155.46 345.15 526.39 754.28 387.46 911.73 360.31 860.58 460.50 800.68 555.10 938.36 532.32
00005590 00000107 656.58 161.56 342.91 523.07 757.53 390.29 913.71 362.51 865.95 465.71 804.24 558.98 941.21 535.59
00005591 00000108 659.21 158.65 343.15 529.41 760.17 393.62 916.62 366.03 869.86 472.62 807.49 563.90 943.71 540.57
00005592 00000109 669.37 161.24 340.92 525.40 763.21 387.75 917.86 358.73 869.22 470.97 808.58 567.98 939.29 544.61
00005593 00000110 671.62 167.50 341.26 521.52 763.41 390.89 918.69 360.17 869.47 473.83 810.83 570.81 943.34 545.73
00005594 00000111 672.59 166.99 343.89 523.66 763.75 391.97 920.07 360.50 870.48 477.08 812.96 572.59 946.99 546.42
00005595 00000112 673.72 161.17 344.28 529.57 763.73 392.29 921.19 360.52 871.69 479.22 814.98 574.32 949.46 547.63
00005596 00000113 674.91 159.41 344.37 530.90 764.42 392.84 921.83 361.15 871.77 479.82 815.93 574.66 950.34 547.86
00005597 00000114 675.67 159.08 344.11 529.89 764.93 392.98 922.45 360.48 872.53 479.69 816.47 574.11 951.37 546.66
00005598 00000115 677.35 157.38 342.05 527.96 765.84 392.17 922.78 360.67 873.35 478.93 817.43 573.08 950.86 546.66
00005599 00000116 676.39 154.19 343.11 528.25 765.60 390.71 923.49 359.33 873.65 476.47 817.22 572.21 949.98 545.89
00005600 00000117 676.56 150.93 343.14 530.95 765.35 389.82 924.25 358.59 873.91 475.07 815.74 571.10 949.76 544.90
00005601 00000118 671.54 154.00 345.22 532.56 767.61 395.89 926.06 366.14 874.42 478.71 818.09 568.35 954.13 543.23
00005602 00000119 677.88 150.89 339.89 527.61 767.54 388.54 924.64 357.58 876.56 473.16 818.33 569.83 948.68 543.89
00005603 00000120 671.29 153.38 344.64 526.32 768.94 392.83 926.77 363.47 876.38 476.33 820.45 564.77 954.96 539.79
00005604 00000121 671.25 153.91 344.26 524.71 768.79 390.34 927.40 361.05 876.78 473.83 819.88 563.47 954.63 538.69
00005605 00000122 676.09 150.06 340.78 530.02 767.58 382.76 924.85 351.51 876.99 465.48 817.06 566.83 946.93 540.78
00005606 00000123 676.01 151.48 340.89 533.61 769.06 381.73 925.13 350.73 877.26 463.09 818.30 566.43 947.57 540.68
00005607 00000124 676.26 150.40 341.25 535.16 768.54 384.15 925.21 350.96 877.32 463.85 817.96 567.33 949.18 539.73
00005608 00000125 676.71 150.58 341.43 533.02 768.96 386.17 926.22 352.45 879.19 464.06 818.20 566.96 951.43 539.01
00005609 00000126 675.88 150.60 344.01 532.30 771.24 387.67 929.32 354.26 882.59 467.04 819.98 567.67 952.95 539.87
00005610 00000127 676.90 155.00 347.89 526.40 776.38 389.31 933.54 356.52 888.82 469.38 825.53 566.98 958.10 539.68
00005611 DELETE   679.43 159.95 346.29 519.32 785.47 391.35 944.19 359.98 901.82 470.32 833.26 566.40 966.25 540.63
00005612 DELETE   688.82 156.51 341.64 524.13 795.88 396.42 955.62 366.68 914.91 472.56 843.13 569.70 978.53 545.61
00005613 DELETE   695.46 153.01 341.33 529.98 805.55 399.27 963.59 371.25 926.50 473.93 849.60 570.54 985.64 548.27
00005614 00000131 699.79 155.40 341.08 529.69 815.05 400.40 969.51 372.99 934.54 474.11 857.79 572.81 988.30 551.29
00005615 00000132 700.52 154.70 343.48 531.50 820.45 402.30 976.70 374.10 943.94 475.18 862.98 577.07 994.65 554.72
00005616 00000133 700.79 155.62 343.73 528.93 823.11 402.62 979.60 373.64 947.17 475.58 864.56 577.44 995.26 554.71
00005617 00000134 701.88 157.04 342.92 526.05 823.38 402.88 980.83 373.79 947.78 476.02 865.17 577.88 996.00 555.09
00005618 00000135 702.90 157.80 341.30 525.14 823.62 400.53 980.83 373.33 947.00 475.26 864.93 577.47 994.81 556.32
00005619 00000136 703.57 153.68 340.04 526.55 823.35 397.01 980.99 369.34 946.88 472.46 866.00 577.05 994.37 555.41
00005620 00000137 702.64 152.38 339.54 526.63 820.88 394.58 978.92 366.68 945.10 470.81 864.54 575.36 992.72 553.66
00005621 00000138 701.24 150.22 339.15 527.54 817.37 392.55 976.79 364.30 942.12 468.27 861.82 573.87 991.16 551.75
00005622 00000139 693.33 155.63 346.08 529.81 825.09 386.23 976.35 358.33 940.57 466.37 866.70 566.36 987.74 544.52
00005623 00000140 692.28 156.03 346.34 527.27 823.43 384.85 974.92 357.93 937.87 463.92 862.62 563.95 985.45 543.07
00005624 00000141 691.72 155.61 346.11 527.18 821.86 384.83 972.62 356.83 934.56 462.62 861.53 563.88 984.65 541.92
00005625 00000142 692.46 156.35 345.07 525.86 822.47 384.59 972.53 357.41 934.49 461.89 861.18 562.99 983.93 541.74
00005626 00000143 692.42 156.41 345.82 525.66 823.82 384.63 973.17 357.57 935.49 460.72 862.34 562.27 984.17 541.09
00005627 00000144 692.45 154.30 345.26 528.95 825.11 385.89 975.03 358.66 938.66 462.16 862.11 562.59 985.71 541.40
00005628 00000145 692.92 152.79 344.58 533.87 826.79 386.82 976.93 359.04 942.65 465.79 865.10 564.68 988.11 543.07
00005629 00000146 694.92 154.85 342.72 534.56 828.98 389.83 978.33 362.24 945.48 470.09 868.57 569.50 989.54 548.30
00005630 00000147 700.08 149.50 338.76 536.74 819.47 400.32 973.15 372.33 943.95 473.94 863.36 577.44 991.06 555.84
00005631 00000148 701.17 152.90 337.36 540.29 822.59 406.19 972.94 376.84 945.67 479.75 866.51 584.45 989.72 561.68
00005632 00000149 701.74 153.90 337.54 543.35 822.62 409.71 974.73 380.25 944.88 483.61 866.92 589.24 990.89 566.28
00005633 00000150 701.44 156.65 338.37 543.35 823.55 413.29 976.67 382.21 946.71 489.51 867.32 593.36 991.45 569.09
00005634 00000151 701.21 156.29 338.90 544.22 823.34 414.71 977.70 384.42 947.10 492.01 867.32 594.95 991.85 571.28
00005635 00000152 700.33 156.57 339.70 543.77 824.13 414.28 978.08 384.00 947.18 491.98 867.20 594.59 991.69 570.85
00005636 00000153 700.47 153.53 338.91 545.30 823.95 412.57 976.75 383.28 946.67 488.92 866.89 591.88 990.61 569.01
00005637 00000154 700.26 154.60 339.66 542.81 822.78 409.83 975.20 381.65 945.08 485.41 865.37 588.34 990.56 566.34
00005638 00000155 699.07 150.15 338.50 544.81 821.95 408.25 972.67 380.44 946.00 480.12 864.48 583.91 989.84 562.37
00005639 00000156 698.44 153.48 338.12 537.61 820.07 405.09 972.12 378.06 944.99 477.14 862.27 580.12 989.70 559.27
00005640 00000157 697.76 152.87 338.43 533.91 817.09 402.56 971.23 375.91 941.40 474.94 859.72 576.67 988.77 556.06
00005641 00000158 696.98 151.76 336.93 531.48 814.92 400.90 969.81 374.61 938.97 474.01 857.65 574.84 986.80 554.52
00005642 00000159 696.47 151.82 336.10 529.37 813.50 399.68 969.99 373.13 937.66 473.87 855.88 574.36 985.19 553.80
00005643 00000160 693.82 151.77 335.76 529.75 810.86 400.11 966.40 372.99 934.71 474.90 853.89 573.86 982.42 552.80
00005644 00000161 691.62 154.11 337.13 528.17 808.78 398.96 964.31 370.86 932.47 474.48 851.93 572.67 980.66 550.84
00005645 00000162 691.10 154.29 336.36 528.41 807.32 397.27 963.66 370.50 930.96 475.04 850.28 573.32 978.46 552.53
00005646 00000163 692.18 153.51 334.09 529.72 806.11 396.83 962.92 371.67 929.01 476.23 848.42 574.12 977.26 554.67
00005647 00000164 691.74 152.99 334.75 533.41 804.35 397.27 961.14 372.85 927.11 478.71 845.59 574.98 975.93 556.10
00005648 00000165 691.55 153.15 334.76 536.10 803.02 398.32 958.60 375.32 924.46 480.76 844.59 575.80 973.93 557.94
00005649 00000166 689.84 150.72 337.10 541.18 803.00 401.32 956.57 378.59 923.27 484.20 843.68 577.53 971.74 559.83
00005650 00000167 688.91 152.64 338.77 541.48 802.06 405.38 954.44 383.78 919.49 491.02 843.47 582.24 968.91 565.57
00005651 DELETE   686.61 156.02 343.31 546.29 801.60 413.19 954.61 395.69 916.35 497.22 841.29 588.22 966.84 574.52
00005652 00000169 687.12 159.43 346.88 550.06 798.99 425.64 954.12 404.08 913.20 505.92 838.05 595.63 969.13 578.63
00005653 00000170 683.27 169.25 349.98 542.91 795.06 434.00 955.08 408.96 908.81 517.18 834.24 604.21 965.64 584.50
