Video ID: 	n7SAVVPxaS4
H: 	1080
W: 	1920
FPS: 	29.97002997002997

FRAME INDEX X0 Y0 W H [Landmarks (5 Points)]

00004106 00000000 1174.14 207.76 433.22 598.57 1264.55 412.42 1452.11 443.33 1297.85 495.54 1240.69 622.63 1390.25 648.41
00004107 00000001 1171.48 207.51 421.72 588.32 1265.69 410.13 1448.68 446.41 1305.69 497.74 1238.99 613.75 1386.61 644.30
00004108 00000002 1173.48 211.09 409.56 575.18 1268.93 410.22 1448.25 451.26 1309.27 499.40 1238.99 608.08 1385.33 642.89
00004109 DELETE   1174.76 215.71 392.20 555.60 1271.76 405.94 1449.67 453.49 1313.76 503.91 1237.35 604.80 1383.10 645.27
00004110 00000004 1177.83 207.17 389.74 557.43 1264.38 407.72 1442.99 442.83 1301.34 517.16 1236.01 610.03 1371.66 641.94
00004111 00000005 1171.37 207.68 397.99 572.05 1267.96 408.04 1448.92 443.07 1313.97 518.29 1241.48 620.63 1368.22 650.67
00004112 00000006 1172.12 210.06 393.15 568.59 1267.70 407.82 1446.25 442.14 1314.97 518.07 1241.51 621.91 1366.13 651.31
00004113 00000007 1171.64 209.24 394.94 572.23 1267.39 407.05 1447.14 439.62 1316.33 516.78 1242.87 622.81 1369.01 650.87
00004114 00000008 1167.30 209.20 397.42 568.86 1265.93 405.40 1448.59 435.35 1318.71 511.67 1243.93 620.95 1373.49 646.74
00004115 00000009 1172.82 200.29 399.05 573.91 1258.86 400.40 1444.94 430.70 1299.46 506.24 1235.38 612.56 1375.94 639.98
00004116 00000010 1166.52 199.49 399.44 567.50 1250.54 400.64 1437.71 432.58 1292.62 500.45 1228.19 608.22 1372.90 636.35
00004117 00000011 1156.80 190.54 412.38 581.22 1245.53 393.95 1428.79 427.00 1278.58 491.03 1215.03 599.60 1363.38 629.17
00004118 DELETE   1151.29 196.33 409.88 576.10 1240.10 395.67 1420.96 428.12 1265.47 487.78 1202.37 601.33 1344.53 630.70
00004119 DELETE   1155.56 199.80 407.78 579.16 1230.82 395.65 1403.88 425.04 1255.97 488.86 1201.91 602.79 1333.32 628.52
00004120 00000014 1152.73 195.47 408.68 576.64 1225.55 396.17 1396.77 426.32 1247.04 489.98 1194.19 600.70 1325.34 626.19
00004121 00000015 1141.84 188.74 414.14 575.24 1227.12 393.57 1399.20 426.00 1245.99 483.58 1190.47 593.60 1328.02 621.88
00004122 00000016 1138.48 190.22 412.97 566.14 1224.58 393.60 1396.11 424.66 1246.54 482.79 1189.61 592.13 1325.06 618.87
00004123 00000017 1133.44 184.30 415.20 571.66 1222.40 391.97 1395.67 425.01 1247.67 481.87 1187.97 589.87 1326.04 618.23
00004124 00000018 1130.82 181.50 413.83 574.69 1220.94 392.19 1395.44 427.30 1248.78 480.49 1186.39 588.13 1328.90 617.91
00004125 00000019 1131.04 182.94 415.11 574.05 1221.07 393.50 1396.53 427.24 1249.46 482.64 1187.28 589.96 1329.11 618.74
00004126 00000020 1132.69 183.54 417.37 579.69 1222.88 392.99 1399.44 427.48 1249.53 482.33 1187.35 596.19 1328.27 625.62
00004127 00000021 1136.46 189.29 412.38 570.95 1224.68 393.70 1401.02 427.37 1250.20 485.43 1188.04 596.74 1327.76 625.56
00004128 00000022 1139.81 188.21 410.84 575.88 1225.98 392.99 1400.46 428.06 1248.80 487.39 1189.29 596.80 1327.04 626.91
00004129 00000023 1141.40 185.79 412.09 571.81 1227.18 393.37 1400.30 427.69 1248.92 484.62 1190.70 594.14 1325.73 623.74
00004130 00000024 1144.06 189.13 413.61 571.65 1229.09 394.41 1401.34 429.93 1247.68 487.40 1190.10 593.16 1326.12 624.18
00004131 00000025 1144.15 186.19 414.51 572.83 1230.74 390.60 1400.72 427.65 1247.07 487.39 1190.90 590.18 1324.98 622.57
00004132 00000026 1143.50 188.95 416.51 573.88 1232.35 392.44 1401.04 427.78 1247.96 486.99 1192.94 591.78 1325.22 622.91
00004133 00000027 1143.83 190.22 412.52 579.77 1232.52 394.30 1406.49 430.91 1248.58 490.74 1189.34 599.15 1325.99 631.31
00004134 00000028 1142.32 193.45 412.62 582.48 1233.10 392.30 1409.83 431.16 1251.10 492.99 1188.90 600.68 1327.93 634.54
00004135 00000029 1143.73 190.58 416.25 584.57 1234.05 392.78 1411.43 430.80 1251.90 492.84 1190.43 600.53 1328.92 634.04
00004136 00000030 1142.95 192.44 423.46 581.17 1231.42 393.57 1412.51 429.23 1251.70 491.55 1189.90 604.67 1329.28 635.65
00004137 00000031 1143.49 189.94 420.89 583.85 1233.43 391.15 1414.36 428.05 1254.52 490.23 1191.80 604.41 1330.99 636.47
00004138 00000032 1143.77 193.85 422.45 581.95 1235.00 392.56 1418.13 428.93 1256.67 491.18 1192.82 605.55 1333.27 637.26
00004139 00000033 1143.96 196.91 416.84 575.55 1235.18 394.26 1420.13 429.21 1261.17 492.74 1194.26 606.69 1336.45 637.42
00004140 00000034 1146.33 199.32 409.19 572.05 1237.58 395.83 1422.02 431.60 1265.66 494.68 1197.20 605.17 1340.94 636.88
00004141 00000035 1157.60 212.20 388.95 568.28 1239.91 399.67 1415.69 433.25 1271.08 492.60 1207.24 609.64 1345.86 639.64
00004142 00000036 1160.40 210.39 388.18 568.34 1243.68 400.99 1418.12 433.21 1275.84 494.58 1213.29 610.62 1349.67 639.80
00004143 00000037 1162.54 208.79 390.09 570.07 1246.15 401.55 1420.40 433.70 1277.51 496.89 1215.84 612.13 1349.40 641.47
00004144 00000038 1156.14 199.99 395.49 582.66 1246.54 394.57 1426.94 427.32 1286.14 499.80 1219.93 617.27 1348.59 647.07
00004145 00000039 1156.74 198.67 392.88 585.44 1246.44 395.13 1426.47 427.13 1286.45 500.01 1219.96 619.60 1348.45 648.76
00004146 00000040 1158.32 195.41 387.78 587.50 1248.55 395.96 1427.25 428.49 1289.28 501.08 1222.49 619.45 1349.32 649.14
00004147 00000041 1157.70 192.30 392.06 594.64 1249.04 396.70 1428.66 428.59 1290.53 501.57 1223.28 619.92 1350.06 649.22
00004148 00000042 1157.96 194.20 398.53 588.82 1248.32 397.54 1428.58 426.98 1288.61 500.44 1221.21 619.85 1348.98 647.10
00004149 00000043 1153.98 193.41 414.41 581.74 1249.88 396.10 1437.14 435.49 1281.26 499.46 1211.95 607.23 1356.10 642.24
00004150 00000044 1164.29 191.70 411.30 584.86 1245.86 403.20 1435.09 438.62 1279.16 500.53 1212.56 615.19 1358.97 646.47
00004151 00000045 1152.74 197.38 416.11 579.16 1248.50 396.85 1441.81 435.96 1281.48 496.47 1209.24 606.39 1360.66 640.93
00004152 00000046 1152.95 193.90 416.74 582.55 1248.04 391.91 1441.72 430.03 1279.73 495.24 1208.47 605.80 1358.36 639.48
00004153 00000047 1165.71 191.57 406.07 583.60 1246.58 399.45 1434.33 436.44 1276.38 502.53 1212.53 612.35 1353.05 644.69
00004154 00000048 1166.99 193.91 407.81 579.35 1245.82 399.99 1429.35 437.64 1272.67 505.63 1212.18 610.06 1348.01 642.82
00004155 00000049 1166.03 193.06 404.72 571.93 1244.51 401.22 1426.18 440.70 1271.83 506.73 1209.09 606.45 1345.02 640.39
00004156 00000050 1167.04 193.40 406.61 567.82 1244.17 401.33 1425.42 439.53 1272.11 506.67 1210.95 605.73 1346.19 638.58
00004157 00000051 1166.00 196.29 404.53 566.24 1244.79 401.83 1423.75 437.79 1274.00 505.18 1213.70 605.91 1345.13 637.22
00004158 00000052 1157.48 197.42 405.90 567.54 1250.37 399.28 1429.31 437.43 1278.95 499.52 1215.65 599.11 1351.67 633.52
00004159 00000053 1158.46 195.08 404.68 571.02 1250.51 399.29 1429.68 436.13 1279.84 499.11 1217.17 600.71 1352.88 634.20
00004160 00000054 1160.03 195.15 406.87 576.70 1251.82 398.80 1429.11 435.99 1279.03 499.42 1217.57 602.41 1351.63 636.22
00004161 00000055 1158.65 196.59 404.72 573.52 1252.87 398.61 1427.84 436.11 1281.01 499.32 1217.71 600.98 1350.45 635.00
00004162 00000056 1162.88 192.14 405.48 577.94 1250.25 399.91 1427.83 425.40 1284.72 498.26 1224.01 612.68 1345.64 636.45
00004163 00000057 1164.62 190.79 408.82 579.94 1251.78 397.73 1432.27 422.03 1290.57 499.70 1226.25 615.14 1348.40 637.74
00004164 00000058 1159.95 188.29 403.73 592.93 1241.15 398.86 1423.35 422.54 1274.52 489.05 1224.97 622.63 1346.12 641.76
00004165 00000059 1173.13 193.94 404.39 577.64 1249.23 397.07 1427.39 426.69 1275.97 498.62 1222.29 616.02 1349.96 643.14
00004166 00000060 1169.90 202.87 407.72 578.41 1251.05 398.24 1431.70 430.11 1279.25 498.40 1220.74 617.24 1355.05 646.48
00004167 00000061 1168.15 202.38 407.33 588.49 1253.79 400.09 1434.66 433.99 1284.30 496.43 1220.35 619.99 1358.24 651.05
00004168 00000062 1170.89 200.65 399.34 595.20 1254.89 400.47 1435.70 432.28 1287.48 495.39 1221.53 622.65 1360.44 651.87
00004169 00000063 1174.98 201.74 411.09 592.74 1255.73 398.64 1443.76 428.04 1286.65 495.26 1227.76 621.04 1364.89 648.29
00004170 00000064 1175.88 202.46 400.80 587.88 1259.90 399.30 1442.71 430.68 1292.02 499.94 1233.26 617.05 1366.18 645.72
00004171 00000065 1183.23 203.36 358.71 587.23 1266.58 394.13 1440.68 428.11 1299.43 499.17 1239.83 612.52 1367.65 643.61
00004172 00000066 1170.31 199.11 375.64 594.15 1266.96 403.12 1447.25 433.67 1311.13 508.35 1244.89 623.13 1369.93 651.14
00004173 00000067 1172.96 190.95 373.89 616.13 1268.89 406.18 1448.89 436.83 1311.20 511.89 1245.61 629.35 1369.68 657.63
00004174 00000068 1185.58 220.97 370.39 591.75 1275.79 397.62 1452.14 431.80 1303.67 504.88 1240.09 621.24 1372.36 651.86
00004175 00000069 1188.35 225.97 366.59 593.73 1279.50 397.52 1455.76 434.09 1307.34 506.85 1240.98 622.05 1378.90 654.31
00004176 00000070 1192.05 227.50 365.89 595.29 1283.72 400.86 1458.17 435.39 1310.59 507.68 1243.79 629.09 1380.49 659.52
00004177 00000071 1193.17 223.50 366.41 596.35 1284.00 403.67 1458.90 438.91 1310.74 510.98 1245.45 629.74 1378.97 661.04
00004178 00000072 1196.19 216.44 364.30 602.11 1285.75 403.80 1459.79 440.02 1312.04 511.33 1247.80 629.16 1378.77 661.16
00004179 00000073 1195.82 225.81 363.99 592.80 1291.08 401.16 1463.31 437.30 1314.75 509.63 1249.27 627.87 1378.51 659.95
00004180 00000074 1194.72 228.86 369.30 591.70 1293.88 402.25 1466.29 438.77 1318.46 509.47 1251.31 629.08 1380.82 661.31
00004181 00000075 1192.41 229.60 382.00 593.27 1295.67 401.95 1467.61 437.74 1320.14 509.85 1252.22 628.93 1381.07 660.19
00004182 00000076 1192.78 232.48 385.12 590.66 1296.87 400.66 1467.84 436.42 1320.66 508.75 1253.54 627.72 1381.17 658.91
00004183 00000077 1195.33 229.75 392.68 594.34 1300.45 398.94 1471.61 436.84 1321.79 509.49 1255.03 627.94 1383.01 660.19
00004184 00000078 1196.28 229.75 390.60 593.90 1301.74 398.51 1471.59 436.86 1322.07 510.95 1256.28 628.06 1383.42 660.62
00004185 00000079 1198.11 228.05 390.28 594.19 1301.70 398.75 1470.89 438.33 1320.93 512.65 1256.71 628.53 1383.60 661.82
00004186 00000080 1198.15 228.25 385.66 591.02 1301.39 398.79 1470.29 437.73 1323.90 514.08 1258.03 628.02 1384.13 661.13
00004187 00000081 1197.96 227.53 383.80 590.84 1299.62 400.45 1467.73 437.66 1323.54 513.31 1258.71 628.14 1384.52 660.02
00004188 00000082 1199.69 224.96 389.45 594.07 1300.24 399.92 1469.38 438.21 1321.55 512.38 1257.76 627.80 1384.00 660.23
00004189 00000083 1192.70 220.37 411.83 605.76 1294.27 403.86 1476.52 451.30 1323.24 511.28 1255.81 625.26 1390.38 665.03
00004190 00000084 1194.83 216.35 419.62 609.45 1294.54 402.62 1481.65 447.43 1326.12 507.15 1255.41 625.73 1393.45 663.63
00004191 00000085 1192.40 213.69 418.92 610.97 1294.37 404.10 1480.26 447.80 1328.45 506.37 1256.85 623.73 1396.33 660.80
00004192 00000086 1193.09 212.84 419.48 611.89 1294.75 404.23 1480.61 447.78 1328.50 506.58 1257.27 624.37 1396.54 661.38
00004193 00000087 1192.77 215.37 420.74 605.93 1294.00 403.68 1479.84 447.88 1328.57 504.91 1254.40 620.48 1396.36 658.01
00004194 00000088 1191.55 215.84 424.99 606.25 1293.30 403.63 1480.23 446.56 1328.35 505.09 1254.40 621.83 1395.07 658.35
00004195 00000089 1192.82 216.03 429.56 609.59 1296.86 401.30 1470.46 443.12 1326.74 508.71 1258.83 623.45 1389.11 661.16
00004196 00000090 1193.78 219.15 433.63 602.97 1298.85 401.31 1471.00 444.48 1326.91 508.25 1259.46 621.57 1388.86 660.26
00004197 00000091 1193.39 220.87 434.52 601.98 1297.45 401.07 1470.67 443.61 1325.93 507.36 1258.62 621.83 1389.33 659.86
00004198 00000092 1193.97 213.55 417.54 605.87 1295.68 397.53 1466.48 439.01 1322.24 507.08 1258.44 623.51 1384.89 660.82
00004199 00000093 1195.45 213.05 421.83 599.94 1293.00 392.04 1473.67 443.75 1318.07 503.15 1254.26 615.45 1389.78 657.78
00004200 00000094 1194.47 210.05 417.25 598.64 1292.25 394.51 1475.19 444.94 1321.55 506.13 1255.75 616.87 1391.33 658.20
00004201 00000095 1192.66 211.56 404.69 596.44 1292.23 398.18 1471.10 446.89 1324.30 510.11 1256.58 617.20 1390.43 657.55
00004202 00000096 1193.59 208.69 416.27 596.76 1292.98 400.01 1470.71 447.08 1322.55 506.64 1257.17 616.42 1389.46 655.38
00004203 00000097 1193.05 210.07 416.67 593.77 1292.56 401.28 1469.80 448.70 1320.82 507.14 1256.87 615.36 1389.82 654.58
00004204 00000098 1191.93 206.33 419.97 598.57 1291.22 401.66 1471.67 449.62 1320.57 506.00 1255.29 616.56 1388.69 656.59
00004205 00000099 1190.93 205.13 419.50 600.30 1291.65 403.00 1468.59 450.92 1319.20 506.41 1255.76 616.41 1386.17 656.59
00004206 00000100 1190.32 205.73 425.92 597.32 1291.15 403.63 1468.36 451.58 1318.06 506.00 1254.89 615.22 1384.46 655.40
00004207 00000101 1190.46 209.21 429.23 592.31 1289.69 402.39 1467.53 452.38 1314.94 506.67 1253.07 613.26 1383.68 654.90
00004208 00000102 1190.12 212.25 435.78 592.12 1289.86 402.68 1470.10 451.94 1314.75 504.69 1253.00 613.27 1385.86 654.16
00004209 00000103 1189.11 214.69 436.41 588.79 1288.38 402.71 1470.88 452.61 1315.17 505.34 1251.78 612.36 1386.10 653.91
00004210 00000104 1188.88 216.50 437.58 588.02 1287.49 405.21 1469.59 452.48 1312.38 505.58 1251.33 614.38 1385.96 653.69
00004211 00000105 1190.35 220.19 437.19 579.54 1289.00 403.87 1470.28 454.01 1313.79 506.14 1249.20 611.72 1384.18 653.40
00004212 00000106 1192.07 214.46 428.15 587.79 1288.75 405.45 1470.45 454.62 1313.11 507.04 1249.49 615.30 1383.90 656.41
00004213 00000107 1187.64 206.85 431.96 572.16 1292.13 407.10 1469.94 454.01 1320.49 520.69 1244.56 615.62 1370.55 654.96
00004214 00000108 1193.58 219.91 418.57 565.70 1288.61 405.03 1470.34 453.12 1316.51 507.52 1250.50 611.90 1381.19 652.15
00004215 00000109 1193.83 220.23 410.97 562.85 1284.13 402.27 1468.14 448.02 1312.79 505.24 1250.00 612.56 1381.06 650.69
00004216 00000110 1182.28 204.66 421.45 594.84 1285.27 405.01 1470.70 446.62 1319.46 521.38 1243.97 622.40 1377.77 658.48
00004217 00000111 1185.77 214.66 420.54 598.64 1280.00 412.94 1461.35 444.95 1308.35 506.84 1248.31 627.28 1380.15 655.21
00004218 00000112 1184.56 215.84 433.18 604.33 1276.27 418.03 1462.10 451.59 1301.69 511.03 1243.58 633.01 1379.60 662.27
00004219 00000113 1183.53 212.02 427.68 618.90 1280.09 416.48 1453.36 456.53 1304.79 522.79 1244.38 636.89 1372.57 673.50
00004220 00000114 1188.94 219.56 403.89 597.27 1282.61 415.44 1460.05 458.44 1302.00 521.04 1242.11 633.99 1377.13 669.90
00004221 00000115 1189.49 219.60 384.86 591.63 1284.93 414.78 1456.70 460.31 1308.31 522.77 1244.03 631.24 1376.95 670.06
00004222 00000116 1181.14 211.02 399.70 594.58 1286.91 420.36 1461.55 470.24 1321.42 536.42 1241.28 633.46 1368.05 676.52
00004223 00000117 1183.76 213.82 403.82 593.12 1279.14 419.69 1458.12 462.78 1312.04 521.83 1244.66 631.76 1375.03 669.53
00004224 00000118 1183.93 217.58 408.81 585.05 1279.16 418.50 1458.68 461.67 1309.62 520.41 1242.03 629.78 1373.50 667.11
00004225 00000119 1185.00 217.98 414.48 583.72 1279.70 419.16 1458.59 459.98 1307.73 517.98 1242.90 629.43 1371.74 664.64
00004226 00000120 1189.82 217.66 423.14 585.17 1279.78 420.34 1455.68 458.12 1300.30 515.02 1242.93 629.77 1369.17 662.49
00004227 00000121 1173.90 220.30 429.34 588.02 1271.90 413.16 1459.35 463.07 1299.95 523.04 1236.16 635.66 1366.37 677.36
00004228 00000122 1185.56 223.82 425.29 580.74 1276.60 418.35 1453.04 461.35 1298.04 516.25 1238.35 627.61 1367.25 664.36
00004229 00000123 1180.23 217.14 411.64 582.76 1273.22 414.70 1449.59 458.64 1305.40 516.48 1237.28 624.04 1364.98 662.71
00004230 00000124 1181.66 214.67 426.22 579.48 1274.36 413.35 1447.26 457.20 1298.87 510.94 1239.07 619.14 1362.75 657.12
00004231 00000125 1183.43 211.67 412.77 579.47 1273.75 411.42 1445.21 453.10 1295.15 510.46 1240.36 620.71 1360.34 657.21
00004232 00000126 1174.71 205.50 407.54 583.18 1267.92 400.86 1446.28 442.94 1304.55 524.21 1231.31 625.57 1356.17 661.89
00004233 00000127 1173.80 198.49 408.24 588.86 1266.08 398.52 1446.28 437.26 1304.60 521.09 1232.25 626.24 1358.45 659.79
00004234 00000128 1171.07 193.49 406.12 595.05 1266.04 400.80 1444.54 440.21 1303.65 520.09 1231.48 624.58 1356.33 659.13
00004235 00000129 1170.49 203.28 407.99 596.85 1267.47 406.31 1442.11 443.81 1303.73 523.33 1232.70 629.79 1356.09 662.85
00004236 00000130 1169.57 204.46 413.86 596.54 1267.54 407.53 1441.53 445.77 1302.09 524.34 1231.63 630.10 1354.78 663.73
00004237 00000131 1165.57 204.47 420.39 594.56 1267.80 406.90 1442.45 445.63 1303.70 522.73 1231.26 626.28 1354.20 660.42
00004238 00000132 1165.93 203.87 418.60 589.89 1268.68 408.82 1440.26 448.05 1304.48 521.85 1230.13 623.86 1351.93 658.33
00004239 00000133 1166.84 204.63 419.88 591.37 1269.04 409.55 1439.56 448.27 1303.28 521.48 1230.31 624.39 1352.23 658.36
00004240 00000134 1167.12 205.64 421.21 594.93 1269.40 409.55 1439.58 448.55 1302.78 522.34 1230.41 626.98 1352.94 661.01
00004241 00000135 1167.20 204.39 423.43 597.04 1269.48 410.15 1440.77 449.59 1303.03 521.70 1231.04 626.47 1355.35 660.79
00004242 00000136 1170.17 205.68 418.41 590.78 1270.83 409.62 1442.17 449.64 1305.66 522.03 1231.30 624.36 1355.51 659.30
00004243 00000137 1169.56 206.54 422.33 590.42 1271.55 408.76 1444.37 449.29 1306.45 521.42 1231.47 624.63 1356.23 659.84
00004244 00000138 1170.44 205.76 418.98 592.16 1271.04 407.26 1444.40 448.52 1306.61 520.17 1230.69 623.94 1356.46 659.72
00004245 00000139 1169.91 204.01 418.79 596.01 1271.72 407.39 1444.20 449.28 1307.45 520.16 1231.23 624.23 1356.63 660.48
00004246 00000140 1169.43 203.98 422.91 598.72 1271.98 407.64 1445.24 449.78 1307.02 520.24 1230.16 625.30 1356.50 661.73
00004247 00000141 1167.85 205.64 426.37 593.04 1272.24 407.61 1447.37 449.91 1306.70 518.47 1227.99 623.93 1355.12 660.41
00004248 00000142 1167.83 204.97 422.61 588.88 1272.90 406.56 1449.08 449.13 1306.99 516.85 1227.99 622.62 1355.22 659.23
00004249 00000143 1167.49 206.35 416.78 580.85 1272.09 405.47 1451.18 447.89 1308.86 515.66 1228.83 620.72 1358.54 657.13
00004250 00000144 1166.98 205.88 413.19 580.28 1273.40 405.03 1453.00 449.04 1310.59 515.83 1228.88 618.42 1360.53 656.07
00004251 00000145 1165.21 207.59 419.68 587.46 1274.32 404.75 1455.44 448.40 1311.83 515.91 1229.60 621.13 1363.05 658.54
00004252 00000146 1167.95 207.82 420.77 602.47 1276.22 407.86 1455.81 450.76 1313.96 519.62 1234.41 626.69 1368.48 663.81
00004253 00000147 1181.62 205.91 406.80 616.57 1279.49 403.33 1461.13 446.10 1301.01 509.83 1235.83 627.18 1376.51 663.22
00004254 00000148 1182.82 198.80 409.30 637.19 1285.67 393.64 1469.14 435.14 1304.21 509.03 1238.23 632.18 1380.51 666.13
00004255 00000149 1171.73 205.30 410.02 640.38 1267.57 396.31 1467.49 440.48 1304.85 514.93 1245.43 641.67 1391.53 678.61
00004256 00000150 1184.75 197.50 393.98 640.22 1285.21 391.26 1468.73 431.28 1308.42 510.55 1241.42 631.18 1384.55 664.03
00004257 00000151 1171.67 203.71 416.76 644.18 1279.84 400.66 1468.27 445.68 1320.53 524.76 1239.63 639.42 1382.92 678.91
00004258 00000152 1171.74 204.31 419.74 640.58 1283.29 409.30 1466.36 455.20 1320.81 526.93 1240.57 638.13 1383.89 678.26
00004259 00000153 1181.77 209.56 429.99 621.30 1277.82 415.05 1464.13 449.82 1309.52 511.43 1251.13 632.87 1391.60 662.99
00004260 00000154 1185.28 207.30 437.90 620.84 1282.18 414.83 1464.85 451.32 1308.50 508.36 1251.44 628.56 1389.74 659.96
00004261 00000155 1175.37 210.88 445.60 623.90 1278.93 406.92 1470.94 455.54 1308.44 519.06 1244.51 639.12 1384.30 680.36
00004262 00000156 1176.75 211.68 447.44 620.86 1281.24 406.74 1471.72 456.41 1309.23 518.99 1244.28 636.28 1383.55 678.53
00004263 00000157 1190.68 209.50 438.64 599.73 1288.49 412.55 1463.32 456.13 1305.94 506.19 1248.41 617.87 1378.61 654.90
00004264 00000158 1190.52 207.91 435.37 593.05 1288.62 411.52 1462.21 455.82 1305.30 506.24 1247.89 616.72 1373.49 654.54
00004265 00000159 1190.96 208.81 432.07 593.00 1288.60 411.72 1460.54 454.63 1303.97 506.88 1247.20 617.16 1371.57 654.10
00004266 00000160 1191.45 209.38 435.77 591.57 1288.96 411.31 1459.60 453.98 1302.21 506.22 1247.12 616.82 1370.05 653.42
00004267 00000161 1190.11 210.67 431.63 592.43 1287.39 410.30 1460.60 453.39 1301.86 504.71 1245.19 616.67 1371.29 653.56
00004268 00000162 1189.85 208.29 428.07 594.64 1287.37 409.21 1461.83 453.45 1303.17 504.45 1245.51 616.83 1371.36 654.75
