Video ID: 	0iJzuTL7NAI
H: 	1080
W: 	1920
FPS: 	25.0

FRAME INDEX X0 Y0 W H [Landmarks (5 Points)]

00006829 00000000 628.88 315.49 374.24 562.58 771.63 567.21 927.30 528.26 907.52 638.69 831.73 757.58 954.26 726.35
00006830 00000001 625.69 314.12 375.81 561.81 768.67 563.94 925.63 526.62 904.45 635.49 825.64 752.34 951.70 723.11
00006831 00000002 623.92 314.46 376.56 560.53 768.07 563.20 924.29 526.79 903.22 635.72 824.70 750.72 950.53 722.06
00006832 00000003 625.23 316.06 373.92 561.82 770.81 567.02 925.39 528.36 905.80 642.08 827.68 754.96 950.26 724.23
00006833 00000004 626.93 319.48 368.83 554.66 773.29 572.19 923.66 532.19 906.81 649.74 839.67 761.23 950.84 728.74
00006834 00000005 624.26 330.32 368.74 543.82 770.67 578.37 921.97 538.55 904.35 653.93 840.38 765.91 951.47 733.32
00006835 00000006 621.74 334.44 369.86 542.64 768.45 581.91 920.68 540.91 903.67 657.84 840.78 772.87 950.34 739.12
00006836 DELETE   620.53 335.92 367.66 545.13 766.97 584.02 917.98 543.14 902.05 658.74 838.71 775.02 948.16 741.40
00006837 DELETE   620.27 334.91 367.40 550.57 764.42 584.09 915.03 542.69 899.31 655.78 837.18 777.33 947.90 743.42
00006838 00000009 620.30 331.58 366.90 559.93 760.79 581.16 911.07 538.66 896.09 652.58 830.59 775.98 945.99 741.42
00006839 DELETE   618.37 333.32 372.08 562.15 756.54 582.52 908.46 541.05 891.57 650.39 813.35 765.64 943.98 733.25
00006840 DELETE   615.85 336.85 373.20 557.59 753.79 593.44 909.70 549.94 890.16 652.80 799.59 763.21 942.82 730.18
00006841 00000012 613.41 336.93 376.12 556.94 754.57 593.41 911.76 548.46 893.06 657.69 795.60 763.46 940.74 729.65
00006842 00000013 611.83 339.02 379.61 555.00 755.81 593.07 914.40 547.87 895.40 664.00 796.14 764.82 942.84 730.11
00006843 00000014 614.16 338.77 377.86 556.12 756.28 591.35 915.81 545.98 897.70 663.84 798.92 766.72 944.95 731.72
00006844 00000015 615.17 341.34 375.73 550.53 759.93 588.74 916.58 545.25 899.21 661.97 808.67 767.20 945.26 732.65
00006845 00000016 616.21 339.15 373.75 549.74 763.18 587.66 917.05 545.58 898.21 660.57 822.54 771.99 943.78 738.14
00006846 00000017 618.27 334.81 370.40 550.69 765.95 587.18 920.30 547.38 899.66 662.24 829.83 774.89 945.54 742.53
00006847 00000018 619.03 333.75 369.91 549.94 768.71 586.49 921.02 547.03 902.23 663.06 834.18 775.69 945.48 743.58
00006848 00000019 620.68 334.18 369.43 548.68 771.23 586.14 922.67 546.29 905.78 663.13 839.14 777.37 948.09 744.70
00006849 00000020 621.84 332.96 370.12 550.68 773.00 585.62 923.15 545.89 907.40 663.15 842.23 778.56 950.01 745.84
00006850 00000021 624.36 331.29 368.20 551.84 773.58 585.70 923.49 545.09 908.38 661.43 843.88 777.86 951.78 744.60
00006851 00000022 626.81 328.86 366.77 554.66 774.78 584.44 923.79 543.25 910.05 658.66 845.30 777.37 952.74 743.51
00006852 00000023 630.58 326.31 362.79 560.06 775.22 583.31 923.52 542.59 910.03 657.29 846.13 778.94 953.40 745.53
00006853 00000024 631.36 326.35 360.42 561.84 773.98 583.24 920.33 542.87 906.75 654.43 844.19 778.46 950.19 745.46
00006854 00000025 628.58 328.09 363.85 568.04 769.58 584.84 918.07 543.71 903.33 656.30 839.34 781.79 949.36 748.05
00006855 00000026 625.82 330.11 367.65 564.36 768.38 582.84 919.64 540.75 903.84 656.39 829.77 773.70 948.06 739.20
00006856 00000027 622.90 330.91 371.59 553.11 768.39 579.74 925.51 537.74 906.92 656.23 823.97 765.15 950.61 731.42
00006857 00000028 621.76 330.07 373.55 549.61 768.45 579.17 926.52 538.00 907.21 655.84 825.81 764.60 951.67 731.65
00006858 00000029 621.14 331.85 373.85 547.66 771.31 580.43 925.19 539.74 908.37 656.92 835.09 768.38 949.76 735.23
00006859 00000030 621.77 331.55 371.65 550.20 771.16 583.72 924.84 542.14 909.28 660.75 839.23 774.62 951.96 740.56
00006860 00000031 622.59 330.73 369.84 550.56 772.59 586.56 925.59 546.20 910.62 662.72 841.90 777.53 953.36 744.26
00006861 00000032 624.51 333.54 367.74 548.55 775.05 588.14 927.08 547.36 912.11 666.27 843.26 779.98 953.54 746.04
00006862 00000033 625.92 334.67 367.19 547.11 777.59 588.33 927.70 548.47 912.58 667.25 843.02 779.39 951.18 746.35
00006863 00000034 626.15 333.64 369.18 547.01 776.63 587.03 928.91 547.78 911.90 664.55 837.42 774.12 950.16 741.93
00006864 00000035 623.63 331.03 372.35 546.68 774.23 582.23 931.35 544.44 911.15 660.01 829.98 765.41 951.37 734.37
00006865 00000036 624.17 329.55 371.58 549.07 770.34 579.99 929.28 540.09 909.27 657.63 819.87 760.35 951.80 728.60
00006866 00000037 620.70 330.68 375.18 548.56 768.51 579.15 927.73 537.81 909.63 655.33 815.22 757.50 952.11 725.05
00006867 00000038 621.68 331.25 374.99 547.79 767.92 579.12 927.85 538.35 907.94 655.30 819.14 759.98 953.08 727.63
00006868 00000039 621.31 333.68 373.96 546.09 768.24 580.87 928.06 540.17 907.85 657.48 823.84 764.64 952.80 731.74
00006869 00000040 619.81 333.52 374.58 548.65 769.48 583.07 928.34 541.78 908.91 661.47 827.17 768.63 951.96 735.16
00006870 00000041 620.23 335.07 373.45 545.97 772.04 585.99 928.34 546.33 909.67 662.19 828.17 768.76 949.82 736.53
00006871 00000042 621.82 337.81 371.79 544.21 774.30 587.42 928.11 548.07 911.09 664.35 829.92 770.46 948.33 738.28
00006872 00000043 622.86 337.08 370.04 544.20 775.81 588.85 929.23 549.11 911.75 666.46 833.29 772.66 949.03 739.86
00006873 00000044 623.98 338.50 369.82 540.76 776.94 588.77 932.18 549.33 913.88 667.92 835.63 773.65 951.24 740.93
00006874 00000045 625.93 339.76 369.40 539.60 777.76 590.64 933.26 550.34 915.07 669.18 833.70 773.53 951.94 740.14
00006875 00000046 625.09 339.53 370.96 540.83 775.54 589.99 934.15 550.29 915.42 668.18 826.75 771.45 952.44 738.63
00006876 00000047 624.39 340.65 372.42 545.70 773.65 589.49 931.56 547.90 917.45 665.76 817.52 768.75 951.20 734.98
00006877 00000048 623.13 333.18 372.38 552.17 771.37 585.85 931.69 543.89 917.12 663.00 813.12 765.86 951.28 732.76
00006878 00000049 625.80 329.62 370.31 548.66 771.90 581.05 931.77 540.30 913.96 656.74 819.43 760.34 953.66 728.27
00006879 00000050 626.20 324.28 369.13 548.43 773.96 574.31 929.67 533.86 914.32 649.24 825.42 754.95 953.67 723.15
00006880 00000051 626.87 323.54 369.26 545.03 772.32 570.11 928.11 530.37 911.36 644.54 828.62 752.60 953.89 721.09
00006881 00000052 627.99 325.12 367.55 548.08 774.98 572.96 926.94 532.80 911.81 648.30 831.18 756.11 952.20 724.16
00006882 00000053 625.39 331.29 369.63 542.27 774.87 577.49 927.66 539.82 910.19 655.36 836.78 763.42 950.19 732.83
00006883 00000054 620.87 332.99 371.03 543.36 776.67 584.30 929.87 547.02 912.60 664.15 838.47 772.02 948.27 741.36
00006884 00000055 622.88 336.31 368.80 542.84 777.73 589.13 931.29 551.58 913.35 668.38 838.52 776.49 948.34 745.40
00006885 00000056 623.69 339.26 368.28 544.54 780.03 591.82 932.70 553.76 915.68 672.30 837.71 779.18 947.49 747.77
00006886 00000057 623.23 343.76 369.55 546.52 781.66 594.40 933.44 555.42 917.17 674.46 837.87 783.09 949.02 750.89
00006887 00000058 627.59 342.41 366.71 553.54 781.60 599.84 933.73 559.77 916.82 678.15 837.05 788.05 951.35 754.83
00006888 00000059 628.11 349.59 367.51 551.89 785.63 604.09 936.04 561.18 921.90 682.69 838.58 792.35 952.58 757.12
00006889 00000060 634.93 351.13 365.48 549.81 789.40 591.66 935.91 555.97 925.71 670.15 840.19 785.26 951.06 756.87
00006890 00000061 635.60 350.84 365.69 546.96 790.76 591.57 936.57 555.47 927.17 669.75 841.59 784.19 952.15 755.22
00006891 00000062 636.41 349.04 365.02 548.80 790.40 591.44 936.57 555.46 926.93 669.16 841.35 783.83 952.17 755.21
00006892 00000063 631.74 352.46 363.67 542.46 789.63 605.53 937.67 560.38 926.37 681.21 840.67 788.23 952.47 751.27
00006893 00000064 631.46 351.69 364.60 541.01 789.43 604.89 938.36 559.94 926.47 680.56 841.42 787.29 952.72 750.39
00006894 00000065 631.55 351.34 364.40 540.20 790.27 604.33 938.81 559.42 927.40 680.21 842.01 786.32 952.96 749.46
00006895 00000066 633.08 352.44 363.91 539.39 791.41 604.23 940.01 558.65 928.74 680.78 843.91 787.36 953.93 749.94
00006896 00000067 638.96 349.54 362.85 546.21 793.29 589.65 938.93 554.63 929.93 667.30 845.68 782.98 954.26 755.07
00006897 00000068 638.60 349.64 363.44 546.83 793.11 590.90 938.49 554.72 930.35 667.50 845.83 783.58 954.55 754.83
00006898 00000069 639.10 349.84 362.76 546.95 792.53 591.85 937.69 555.23 929.88 667.79 844.87 783.85 953.91 754.94
00006899 00000070 637.98 351.60 363.54 546.77 793.24 591.84 937.78 555.16 930.25 668.44 845.50 784.66 953.59 755.50
00006900 00000071 638.05 351.92 364.11 550.63 792.39 592.36 937.58 556.49 929.45 669.17 841.82 784.86 952.80 756.66
00006901 00000072 637.84 352.41 364.42 550.08 791.62 592.49 938.09 556.22 929.27 669.67 839.98 785.05 952.34 756.53
00006902 00000073 639.49 349.13 361.99 553.17 790.90 591.07 939.33 554.27 930.30 669.40 837.10 785.10 951.06 756.82
00006903 00000074 640.17 347.79 361.07 553.89 790.16 590.24 939.10 554.31 928.97 667.84 837.29 783.70 951.93 756.00
00006904 00000075 636.57 350.50 359.67 546.90 788.19 601.54 939.13 556.96 928.09 677.99 838.75 786.69 954.86 750.15
00006905 00000076 636.28 347.48 359.01 546.81 787.59 598.96 938.48 554.79 927.66 675.99 839.47 785.18 954.45 749.01
00006906 00000077 632.90 343.75 361.64 547.60 784.96 596.27 937.60 552.78 924.61 675.53 838.69 783.25 953.91 747.54
00006907 00000078 632.89 337.51 363.80 547.92 782.49 593.85 936.83 552.12 918.55 672.67 837.68 779.18 953.18 744.84
00006908 00000079 629.25 335.63 369.13 544.70 779.04 589.01 935.94 550.02 914.59 667.50 832.83 772.06 952.00 739.94
00006909 00000080 627.49 330.42 373.74 549.22 773.10 584.08 935.55 546.72 909.26 663.15 822.18 766.28 953.22 735.92
00006910 DELETE   620.61 329.31 378.81 553.02 766.58 578.98 929.20 541.33 901.76 662.07 813.40 761.50 949.23 731.61
00006911 00000082 614.38 331.20 381.41 550.40 758.90 574.47 920.26 538.03 891.96 658.53 808.47 758.63 944.11 729.74
00006912 00000083 610.13 328.47 380.44 549.92 754.96 569.28 915.12 534.24 887.22 654.18 806.91 756.50 939.12 728.37
00006913 00000084 607.33 324.73 380.94 549.98 752.24 565.13 911.93 531.50 882.88 649.45 804.88 752.66 936.50 725.62
00006914 00000085 604.65 324.44 379.95 544.27 751.39 564.28 912.40 530.10 883.69 646.14 804.33 750.29 936.20 723.11
00006915 00000086 603.73 323.64 378.03 544.05 750.74 564.52 909.69 530.63 882.50 644.89 804.02 750.29 933.45 723.55
00006916 00000087 603.52 324.94 377.61 543.62 749.83 566.65 908.30 531.43 881.81 646.25 802.77 750.82 933.10 722.94
00006917 00000088 602.47 327.88 378.00 541.34 748.68 567.36 907.14 531.62 879.83 647.66 802.82 751.41 932.72 722.94
00006918 00000089 600.50 329.93 379.53 543.45 747.07 568.19 905.95 532.35 878.75 650.06 799.75 752.76 932.28 724.18
00006919 00000090 597.59 330.73 382.81 545.47 744.08 569.51 907.76 532.93 878.74 653.45 792.97 755.34 933.04 726.33
00006920 00000091 595.15 333.74 384.96 543.78 741.17 571.79 908.71 533.01 879.36 656.13 786.54 755.63 935.32 724.94
00006921 00000092 595.19 335.30 385.99 541.79 741.03 573.41 910.35 533.21 879.97 657.48 786.52 756.16 937.31 724.22
00006922 00000093 596.37 334.76 385.89 542.28 741.78 574.11 911.16 533.28 880.90 658.51 788.12 756.84 938.56 724.47
00006923 00000094 597.34 334.93 385.70 542.27 743.04 574.14 911.28 533.74 881.51 658.64 791.49 757.85 938.81 725.60
00006924 00000095 598.09 333.71 385.85 545.23 743.59 574.32 910.70 533.75 881.79 659.27 793.22 758.53 939.06 725.97
00006925 00000096 598.46 334.15 385.09 544.84 744.02 574.11 910.64 534.24 881.66 659.24 794.10 758.86 938.59 726.81
00006926 00000097 598.03 336.75 385.36 543.29 744.28 574.00 910.17 534.99 881.00 659.90 795.12 759.29 937.88 727.89
00006927 00000098 596.81 337.52 385.82 542.62 744.35 575.08 909.69 535.81 880.76 660.48 795.36 759.96 936.35 728.45
00006928 00000099 597.34 338.81 384.82 541.42 744.91 575.18 909.60 536.79 879.66 660.51 797.10 760.17 935.26 729.40
00006929 00000100 598.81 338.00 383.36 540.94 746.37 575.27 909.77 537.31 879.51 659.97 800.72 760.45 934.73 729.98
00006930 00000101 599.22 338.05 382.48 539.51 746.61 575.23 910.43 537.25 879.64 659.85 802.36 760.78 935.03 730.26
00006931 00000102 598.99 337.35 382.61 540.03 746.67 575.01 910.68 537.09 879.84 659.58 802.96 761.37 935.05 730.86
00006932 00000103 599.29 337.06 381.89 541.22 746.86 574.63 910.54 537.01 880.07 659.58 803.25 761.91 934.68 731.67
00006933 00000104 598.97 336.85 382.38 542.17 746.93 574.94 910.55 537.51 881.19 658.77 803.43 762.46 935.34 732.33
00006934 00000105 599.29 338.15 382.73 542.86 746.54 575.09 910.44 537.76 881.76 658.89 802.74 762.95 936.56 732.86
00006935 00000106 599.56 338.54 383.07 543.04 747.00 575.09 910.63 537.91 882.04 658.74 803.57 763.53 936.79 733.55
00006936 00000107 599.81 338.84 383.84 543.20 747.37 575.41 911.51 537.99 882.88 658.71 804.38 763.86 937.91 733.61
00006937 00000108 600.88 338.32 383.27 543.82 748.07 575.61 912.21 538.46 883.79 659.40 805.30 764.12 938.79 734.05
00006938 00000109 602.46 338.41 382.29 544.16 749.44 575.95 912.74 538.90 884.97 660.43 806.82 764.74 939.01 734.71
00006939 00000110 603.15 338.42 382.92 545.17 749.66 576.71 912.89 539.92 884.75 660.88 806.97 765.22 939.39 735.32
00006940 00000111 602.96 338.40 384.07 545.41 750.02 577.30 912.81 539.81 885.21 661.57 808.57 765.83 939.79 735.31
00006941 00000112 604.20 338.70 383.05 545.21 750.72 577.63 913.81 539.65 886.55 662.65 808.95 766.22 940.49 735.27
00006942 00000113 604.31 338.96 383.68 545.28 751.17 577.49 913.86 539.55 886.67 663.00 809.54 766.20 940.54 735.25
00006943 00000114 604.08 338.43 384.10 545.13 751.57 578.22 914.20 540.01 887.25 663.16 809.53 765.91 940.69 734.75
00006944 00000115 605.38 339.92 383.27 542.97 751.96 578.38 915.06 540.37 887.34 663.65 809.45 765.61 941.09 734.56
00006945 00000116 605.38 340.77 383.58 542.48 752.28 578.45 915.36 540.26 887.71 664.00 809.74 765.68 941.28 734.44
00006946 00000117 604.98 339.74 383.99 541.89 753.00 578.14 916.33 540.34 888.27 663.89 809.72 764.74 941.65 733.78
00006947 00000118 606.73 336.67 383.08 544.07 754.07 577.90 916.82 540.30 889.21 663.94 809.46 763.93 941.99 733.17
00006948 00000119 607.57 337.16 382.23 542.36 754.81 577.11 918.61 540.08 890.03 663.61 809.14 762.64 942.95 732.24
00006949 00000120 609.10 337.92 382.57 541.86 756.18 576.45 920.11 539.48 891.51 662.35 810.41 762.38 943.45 732.17
00006950 00000121 609.06 335.33 382.90 544.16 757.64 575.86 920.74 539.31 893.21 661.45 811.28 761.64 943.75 732.00
00006951 00000122 609.56 334.72 382.57 545.03 758.17 574.81 921.14 538.12 893.90 660.24 811.73 761.51 943.05 731.89
00006952 00000123 610.51 333.12 382.02 546.91 758.52 574.34 921.09 538.41 893.92 659.64 811.45 761.23 943.54 732.19
00006953 00000124 611.88 331.10 381.43 551.48 757.75 575.20 920.83 539.91 893.78 659.49 808.40 761.46 944.26 733.21
00006954 00000125 612.59 327.96 378.28 556.06 756.90 585.08 921.27 548.35 891.53 660.95 801.05 761.65 943.45 733.09
00006955 00000126 613.48 328.75 376.02 556.28 759.78 590.21 921.18 557.69 890.83 659.77 797.86 759.04 940.56 734.43
00006956 00000127 612.21 330.08 378.42 554.85 755.60 587.67 920.63 551.72 889.50 660.16 797.38 760.17 943.20 732.44
00006957 00000128 610.26 329.74 381.92 555.15 755.03 584.34 919.98 548.92 889.16 659.25 799.76 759.92 943.52 732.29
00006958 00000129 611.31 329.35 381.25 552.59 755.61 581.51 920.17 547.16 888.44 659.65 802.81 759.57 942.35 732.58
00006959 00000130 610.25 330.62 381.60 547.12 756.14 579.99 921.12 545.45 889.41 658.84 805.80 759.20 942.73 731.77
00006960 00000131 609.50 331.26 382.07 544.81 756.52 578.90 921.23 544.46 890.09 658.88 807.30 758.73 942.83 731.16
00006961 00000132 610.90 330.97 378.62 544.04 757.80 582.42 920.96 548.75 889.34 658.33 806.34 757.97 942.30 731.22
00006962 00000133 612.48 330.68 376.35 544.89 761.71 588.94 921.55 558.17 890.07 657.54 805.18 757.23 939.23 733.45
00006963 00000134 610.93 329.82 376.44 544.83 758.61 586.83 921.40 553.08 889.90 658.15 804.45 758.02 941.30 731.67
00006964 00000135 610.96 330.48 378.95 544.88 757.92 584.62 920.22 550.89 888.26 658.71 806.26 758.42 941.30 731.59
00006965 00000136 610.74 331.23 379.84 545.44 758.00 580.46 919.78 547.99 887.74 659.21 807.90 758.69 939.77 732.79
00006966 00000137 609.97 328.99 380.48 547.31 757.29 577.60 919.28 544.66 888.14 658.60 810.11 759.56 939.72 733.09
00006967 00000138 610.51 328.07 379.70 547.71 758.78 575.13 918.70 541.59 889.84 656.83 815.15 761.19 938.52 734.18
00006968 00000139 611.09 327.31 377.79 548.74 760.50 572.83 917.46 539.72 891.67 655.51 818.66 762.86 935.54 736.02
CROP_BBOX: 300 77 1183 1048
