Video ID: 	_t8JByziu00
H: 	1080
W: 	1920
FPS: 	25.0

FRAME INDEX X0 Y0 W H [Landmarks (5 Points)]

00009280 00000000 541.77 174.87 432.94 648.13 691.34 467.45 877.51 471.43 805.03 575.99 712.56 675.98 865.80 677.78
00009281 00000001 540.49 174.14 430.81 648.74 691.39 463.71 875.58 468.63 805.22 572.99 710.72 673.59 863.90 676.53
00009282 00000002 538.17 177.75 430.37 645.95 686.18 458.22 876.83 460.16 805.38 571.96 708.82 674.28 865.98 675.10
00009283 00000003 534.64 178.05 431.91 644.84 676.63 461.23 873.90 457.48 801.51 570.95 706.22 676.46 869.28 672.71
00009284 00000004 531.27 179.18 431.63 646.00 670.22 457.05 868.38 451.47 798.35 566.48 705.54 677.03 867.54 672.04
00009285 00000005 525.61 181.34 434.09 643.78 665.74 454.34 864.19 446.32 795.62 564.25 705.83 677.90 864.91 671.24
00009286 00000006 521.23 184.06 431.91 639.26 658.59 453.95 857.05 444.41 787.30 562.96 700.88 675.81 859.38 668.37
00009287 00000007 513.09 181.47 434.10 650.22 647.78 454.32 845.50 442.01 773.52 563.35 690.88 675.87 851.30 666.71
00009288 DELETE   502.32 178.69 435.38 663.24 629.23 454.94 828.97 442.92 750.06 564.56 670.76 680.98 833.61 671.79
00009289 DELETE   481.81 175.67 440.85 660.06 608.12 457.53 810.07 448.57 720.97 570.87 644.66 681.42 810.03 672.84
00009290 00000010 467.38 176.12 448.17 653.04 591.03 454.54 796.23 445.14 705.87 569.84 631.56 678.20 798.10 669.65
00009291 00000011 459.33 180.09 447.71 648.61 580.26 456.28 782.63 442.38 693.53 567.98 626.30 679.41 790.42 667.73
00009292 00000012 453.79 180.84 446.14 653.57 571.36 459.05 768.65 439.48 681.90 568.44 620.12 683.63 779.40 667.85
00009293 00000013 442.99 177.28 448.13 657.98 557.21 462.71 756.49 440.70 667.12 572.06 609.79 687.45 770.14 669.71
00009294 00000014 432.93 178.19 445.06 660.88 544.14 465.88 743.69 440.63 655.97 571.89 598.60 690.86 759.24 670.56
00009295 00000015 418.22 192.57 444.99 641.82 528.80 472.17 735.38 444.32 645.69 571.96 587.50 697.17 747.44 672.95
00009296 00000016 404.07 191.08 451.13 647.32 515.23 471.17 721.82 443.41 633.06 571.10 578.84 698.03 737.79 673.38
00009297 00000017 392.25 192.62 454.47 647.64 503.04 469.43 705.85 440.71 619.17 571.26 569.92 698.01 723.80 672.75
00009298 00000018 383.60 197.50 456.78 647.63 490.07 472.48 691.99 439.79 603.08 570.04 557.73 698.92 713.47 670.62
00009299 00000019 373.21 195.15 459.41 651.74 479.06 476.05 680.76 439.23 589.76 571.61 549.09 701.08 706.47 669.76
00009300 00000020 371.11 190.16 456.23 661.46 472.90 476.52 670.89 439.81 579.33 578.53 543.13 705.75 700.93 675.73
00009301 00000021 368.81 191.33 456.95 660.04 467.83 479.56 666.13 440.38 572.48 581.62 537.23 707.74 694.98 675.75
00009302 00000022 363.38 191.01 458.43 661.22 463.73 482.46 662.98 441.43 568.75 583.01 533.18 708.83 692.10 675.35
00009303 00000023 362.24 191.29 457.55 661.79 461.43 484.80 661.11 443.29 566.58 585.01 530.69 710.77 689.46 677.03
00009304 00000024 358.77 192.79 460.17 660.06 459.15 486.11 660.15 446.36 566.07 587.95 528.29 712.34 686.01 680.02
00009305 00000025 356.85 197.69 461.98 658.65 457.26 489.89 659.23 449.73 565.37 592.40 527.48 716.84 684.41 684.12
00009306 00000026 353.17 201.01 460.16 653.62 453.52 490.29 654.48 452.74 559.38 593.80 519.68 714.28 679.80 683.49
00009307 00000027 354.66 202.21 459.59 659.13 454.47 490.48 653.51 453.29 559.67 594.78 520.55 717.29 678.28 687.15
00009308 00000028 357.49 202.06 456.98 655.57 455.61 490.21 656.49 453.72 561.53 595.58 521.49 715.69 682.12 685.85
00009309 00000029 358.47 201.17 456.98 653.11 456.42 490.39 658.20 453.65 563.07 594.77 523.35 715.16 684.32 684.91
00009310 00000030 359.54 202.70 457.24 653.66 458.33 490.01 659.56 453.00 565.20 594.01 524.54 715.23 685.42 684.83
00009311 00000031 360.24 203.04 458.13 659.00 460.02 488.57 658.56 452.39 565.62 593.79 525.75 716.87 682.87 687.48
00009312 00000032 359.62 202.70 460.02 663.79 460.74 488.05 659.17 451.10 566.54 593.64 526.50 716.51 686.34 686.48
00009313 00000033 360.02 202.32 459.95 661.27 460.98 487.71 659.70 451.13 567.13 594.20 527.34 715.28 687.72 685.30
00009314 00000034 360.95 202.46 457.36 653.92 460.27 488.47 660.23 452.16 566.85 594.50 527.17 714.74 686.91 684.91
00009315 00000035 361.62 200.94 455.31 649.28 458.89 487.20 660.18 451.87 565.33 594.02 525.72 713.44 684.20 684.38
00009316 00000036 360.40 200.00 455.11 649.87 458.03 486.97 659.57 451.22 564.39 592.67 524.54 712.79 682.54 683.56
00009317 00000037 358.86 200.13 455.77 651.37 456.20 486.66 657.66 450.66 562.97 593.15 523.80 713.86 681.21 684.50
00009318 00000038 357.97 199.68 455.24 654.02 455.54 486.65 657.26 450.70 562.56 593.54 523.03 714.68 680.65 685.49
00009319 00000039 357.47 199.74 456.23 656.27 455.95 486.06 656.77 450.46 562.80 593.38 523.22 715.41 679.16 686.67
00009320 00000040 356.05 201.60 459.10 657.27 456.93 485.40 656.25 448.83 563.86 591.38 524.16 715.36 679.32 685.87
00009321 00000041 356.94 199.78 459.81 664.78 459.54 484.43 656.92 447.44 565.53 590.32 525.52 714.72 681.05 684.99
00009322 00000042 358.84 200.00 459.74 663.64 460.67 483.90 658.39 446.10 566.94 589.42 527.56 713.00 685.10 682.43
00009323 00000043 360.02 198.48 459.05 662.93 460.59 483.46 659.09 444.51 566.91 588.41 528.67 712.41 687.18 680.61
00009324 00000044 361.76 197.87 461.12 665.30 462.13 484.13 660.26 444.31 567.09 589.15 530.03 711.45 691.29 678.64
00009325 00000045 363.57 198.60 463.76 665.68 464.13 484.75 661.57 444.89 568.30 589.98 531.27 710.56 694.80 677.30
00009326 00000046 365.89 198.68 464.17 665.74 467.99 485.10 663.94 446.38 571.35 590.66 533.99 708.43 698.70 675.85
00009327 00000047 368.35 198.45 464.84 669.46 471.02 484.80 666.65 446.73 574.49 590.75 535.33 707.25 703.69 674.97
00009328 00000048 369.90 201.42 466.22 668.13 474.58 484.24 672.10 447.70 580.01 591.86 537.18 705.30 710.19 673.90
00009329 00000049 373.34 201.90 465.28 667.63 476.85 484.66 675.05 448.14 582.09 591.52 539.82 706.84 712.06 675.34
00009330 00000050 377.05 201.14 462.00 663.96 479.04 486.73 678.23 448.67 585.46 592.43 543.45 707.32 716.97 674.48
00009331 00000051 378.88 202.36 460.68 660.25 479.61 488.97 679.95 451.42 585.66 594.21 543.26 707.25 718.43 674.82
00009332 00000052 379.10 202.62 459.98 658.88 478.47 490.81 679.60 454.09 585.29 598.17 544.29 710.83 715.81 679.52
00009333 00000053 379.52 204.01 463.67 663.66 479.36 493.02 679.40 457.78 585.08 602.03 545.43 715.81 713.71 686.25
00009334 00000054 379.28 204.04 467.49 674.50 479.83 492.72 679.80 457.80 585.16 604.00 545.71 721.12 711.89 692.05
00009335 00000055 376.99 207.46 471.57 676.83 479.05 493.14 679.52 458.94 584.35 606.65 545.12 724.21 711.69 695.80
00009336 00000056 378.40 210.26 471.40 669.34 478.21 496.53 677.83 461.56 581.90 608.54 545.21 726.22 709.93 696.98
00009337 00000057 380.14 209.32 468.51 669.41 479.77 498.01 678.52 464.85 583.36 610.62 544.36 725.56 709.67 697.97
00009338 00000058 381.27 213.34 467.80 665.57 481.33 498.51 679.88 466.40 584.64 611.20 543.97 724.06 712.17 697.09
00009339 00000059 381.45 211.30 468.01 665.43 481.41 498.00 680.57 467.13 584.37 610.39 542.51 722.04 712.02 695.99
00009340 00000060 382.73 208.29 459.97 652.59 479.59 493.07 679.43 462.98 581.74 605.28 541.19 715.04 707.70 689.47
00009341 00000061 378.71 203.76 459.73 653.04 476.34 488.69 676.99 458.49 580.29 601.11 537.75 710.56 704.27 684.81
00009342 00000062 378.77 200.57 456.89 654.17 473.96 485.16 675.31 454.83 577.72 598.47 535.69 709.88 700.01 684.08
00009343 00000063 379.19 196.80 456.27 654.62 472.88 484.03 675.66 454.60 577.60 596.73 535.21 710.18 696.46 685.19
00009344 00000064 378.68 196.18 456.10 656.71 473.59 483.78 675.01 454.84 577.51 596.45 535.28 709.77 695.35 685.37
00009345 00000065 379.23 194.19 457.11 664.84 475.43 484.08 675.06 453.86 579.36 596.51 538.55 711.53 697.73 686.18
00009346 00000066 378.71 194.96 459.64 668.39 475.59 483.80 676.30 452.86 579.90 596.53 538.97 713.15 700.36 687.33
00009347 00000067 379.60 195.74 458.51 663.78 475.79 483.91 677.44 451.64 580.49 594.16 539.28 710.64 703.12 683.56
00009348 00000068 380.66 197.31 458.12 659.47 475.95 483.24 678.28 450.01 579.52 589.75 539.30 707.57 705.13 679.41
00009349 00000069 381.20 195.64 459.76 655.97 475.89 483.67 678.09 448.26 579.53 585.93 541.42 705.01 707.94 674.75
00009350 00000070 382.80 198.08 459.40 654.30 478.76 484.21 680.43 449.38 583.06 585.48 543.83 704.92 709.72 675.28
00009351 00000071 382.91 201.48 460.27 656.02 480.90 484.43 681.48 451.65 584.53 589.93 545.40 708.43 708.07 680.97
00009352 00000072 382.87 206.39 462.07 654.93 483.26 486.61 683.42 456.30 587.20 595.71 546.10 711.70 708.21 686.49
00009353 00000073 383.62 206.84 463.51 659.70 486.72 488.69 687.76 460.14 591.51 599.29 546.92 714.43 711.71 690.47
00009354 00000074 384.56 206.87 462.61 667.91 490.55 493.35 688.29 465.37 594.04 601.11 547.60 717.03 714.77 693.09
00009355 00000075 388.57 211.95 462.15 662.54 493.72 496.97 690.81 468.16 597.37 603.15 550.75 717.98 718.72 692.90
00009356 00000076 390.42 213.50 460.79 655.28 495.58 499.65 692.95 471.27 599.39 606.04 553.27 717.92 720.10 693.07
00009357 00000077 390.83 215.38 458.96 653.37 496.64 501.80 693.93 473.79 601.34 607.61 552.99 717.88 720.95 693.37
00009358 00000078 393.15 220.76 458.01 656.98 501.22 505.77 696.29 479.61 605.16 613.84 555.40 720.67 723.26 697.71
00009359 00000079 393.31 224.11 454.50 650.27 505.94 510.73 699.10 488.98 609.67 622.37 555.84 722.24 720.67 703.26
00009360 00000080 392.62 221.96 454.64 652.30 505.18 508.79 697.98 487.76 609.24 620.25 552.66 720.26 717.90 702.03
00009361 00000081 392.88 219.09 458.57 657.05 503.86 499.32 698.57 475.58 608.83 610.61 555.92 719.46 722.34 698.54
00009362 00000082 390.94 214.63 460.91 654.76 502.77 492.84 699.83 467.67 607.89 605.12 555.73 715.49 722.12 693.73
00009363 00000083 394.03 209.93 459.06 653.93 506.43 487.45 703.65 464.29 611.53 601.92 558.92 711.83 722.70 691.53
00009364 00000084 399.87 208.50 454.90 650.56 511.66 486.58 710.11 464.75 617.11 600.57 563.16 709.21 726.58 689.91
00009365 00000085 404.36 208.57 454.91 649.21 517.28 485.75 718.72 465.27 625.31 600.11 567.70 708.30 734.29 689.81
00009366 00000086 410.43 208.24 454.06 654.74 524.52 485.01 729.25 464.92 635.10 596.51 570.65 708.11 741.82 690.14
00009367 00000087 413.44 206.59 453.90 656.98 530.99 479.74 734.72 461.49 642.53 590.76 575.65 702.95 746.03 686.26
00009368 00000088 422.51 197.84 450.43 660.79 537.82 475.99 743.97 457.59 650.55 582.35 581.94 698.71 754.37 681.22
00009369 00000089 429.47 179.57 448.37 679.91 538.10 467.11 740.50 443.85 649.57 578.42 585.48 694.64 758.23 675.58
00009370 00000090 433.74 182.00 449.61 666.89 544.49 465.19 744.54 443.66 654.38 577.59 593.25 691.52 759.42 674.08
00009371 00000091 439.26 185.53 448.12 655.58 550.24 466.57 751.89 447.41 659.52 579.43 598.34 693.12 760.22 677.79
00009372 00000092 441.56 186.01 446.80 654.34 554.75 465.57 756.45 448.14 663.48 580.01 601.38 693.38 761.02 679.60
00009373 00000093 445.44 186.83 446.62 653.45 558.53 465.55 758.83 447.62 666.11 579.15 604.75 693.49 762.46 679.32
00009374 00000094 448.04 194.37 445.68 652.08 560.80 463.81 764.48 449.48 673.88 575.46 604.50 692.85 768.11 680.08
00009375 00000095 450.50 191.52 446.79 658.39 565.13 461.83 766.42 448.04 678.46 574.71 607.34 690.13 772.93 677.83
00009376 00000096 453.97 192.17 447.50 654.49 568.35 458.04 770.45 445.09 682.85 572.18 611.51 688.66 775.50 676.78
00009377 00000097 457.44 191.63 446.41 647.76 569.64 455.24 774.23 443.88 684.84 569.50 612.46 686.46 775.90 675.51
00009378 00000098 459.92 190.41 444.16 643.62 572.01 453.63 778.24 444.77 687.72 569.10 614.12 684.22 777.34 675.37
00009379 00000099 461.99 187.15 443.74 645.77 574.09 450.41 780.52 442.79 689.48 567.83 615.84 682.92 776.71 674.94
00009380 00000100 464.41 185.37 442.75 646.29 575.75 448.08 782.19 441.03 690.22 567.94 617.28 682.55 775.18 674.94
00009381 00000101 466.09 184.21 443.16 647.65 576.90 446.84 783.18 439.72 690.75 567.70 618.39 682.89 774.68 675.21
00009382 00000102 467.59 183.53 442.98 646.59 579.02 444.09 784.83 438.39 692.14 566.17 619.37 681.56 772.50 675.13
00009383 00000103 469.34 182.59 442.71 645.81 580.77 442.51 786.10 438.08 692.83 564.57 620.25 679.84 773.13 674.37
00009384 00000104 470.20 174.33 444.82 644.83 586.77 441.68 790.20 440.77 690.77 564.48 619.26 672.00 776.84 671.05
00009385 00000105 470.53 167.58 444.74 645.42 588.48 440.15 792.37 439.88 692.32 561.48 619.92 666.62 779.97 666.02
00009386 00000106 472.58 165.80 443.04 644.21 591.12 439.40 795.31 440.52 694.35 560.78 621.70 664.90 781.94 665.10
00009387 00000107 475.14 163.17 442.28 642.82 594.71 439.02 798.82 440.64 697.65 560.83 625.13 664.08 784.47 664.28
00009388 00000108 477.90 162.31 440.67 649.96 596.07 438.62 800.39 440.47 698.77 560.02 625.47 666.06 786.08 666.40
00009389 00000109 482.06 164.57 439.19 657.13 600.50 438.91 801.47 440.98 701.78 558.89 630.03 670.05 786.65 670.86
00009390 00000110 486.37 169.76 437.25 657.58 603.41 437.90 804.30 439.22 709.89 553.71 632.67 673.94 782.42 672.70
00009391 00000111 487.25 168.40 438.29 663.34 605.05 440.61 806.27 442.56 710.49 555.14 632.86 677.07 785.61 676.14
00009392 00000112 490.67 169.05 439.59 662.73 607.46 442.89 809.78 445.22 711.27 555.17 633.17 677.66 789.70 676.96
00009393 00000113 492.93 170.56 440.76 663.29 609.31 446.31 811.16 448.85 711.33 558.84 635.38 680.36 792.08 679.93
00009394 00000114 495.61 174.97 439.53 658.00 611.52 449.80 812.88 452.57 712.99 562.95 636.28 682.34 793.20 682.12
00009395 00000115 496.58 177.62 439.17 656.56 612.84 452.63 814.44 457.10 713.84 566.13 636.38 683.66 794.13 684.87
00009396 00000116 506.09 179.22 432.68 661.64 619.38 453.05 818.30 459.65 716.07 569.17 634.15 681.98 786.90 688.82
00009397 00000117 506.52 180.73 438.35 681.20 621.02 456.50 822.48 463.82 715.57 574.56 631.11 690.38 789.79 697.80
00009398 00000118 511.33 185.18 439.60 687.74 626.36 458.44 826.86 471.08 717.75 584.75 635.20 699.45 789.63 711.16
00009399 00000119 513.49 198.46 443.42 667.17 625.83 465.26 835.33 474.85 725.24 595.36 635.67 702.15 800.02 710.27
00009400 00000120 516.90 206.91 443.84 663.60 629.24 472.33 837.57 481.14 727.12 601.92 640.18 704.98 809.11 712.18
00009401 00000121 523.59 219.04 441.91 657.55 633.76 479.03 843.67 488.32 730.80 611.92 644.17 714.24 811.72 722.10
00009402 00000122 525.84 219.72 439.26 661.59 638.34 481.99 845.15 493.60 733.98 616.33 646.32 716.39 811.85 726.56
00009403 00000123 527.06 222.15 438.37 654.40 640.23 480.79 846.41 493.88 734.90 612.01 647.75 711.30 815.15 722.51
00009404 00000124 526.16 221.69 443.67 665.93 642.47 477.73 848.05 489.99 739.27 609.19 650.68 713.75 817.92 723.96
00009405 00000125 524.51 212.83 448.46 681.38 642.55 473.22 846.59 483.02 740.62 603.78 653.86 710.51 826.89 718.09
00009406 00000126 528.20 206.93 444.66 659.05 642.06 467.75 850.31 480.33 739.91 598.77 652.47 699.96 824.38 709.87
00009407 00000127 530.85 199.63 447.20 672.20 646.59 461.86 854.01 475.27 743.71 592.92 656.19 698.85 826.41 709.51
00009408 00000128 533.62 196.96 448.53 673.36 651.26 457.68 858.35 470.61 751.19 588.60 662.13 697.30 831.07 707.30
00009409 00000129 534.69 191.03 448.37 678.09 653.58 454.12 861.78 467.65 754.48 582.95 665.08 694.92 833.70 705.33
00009410 00000130 534.90 189.93 446.38 677.36 652.32 452.33 860.58 465.17 753.50 578.98 663.86 692.68 832.79 702.42
00009411 00000131 532.11 191.09 446.22 676.77 648.31 453.03 855.71 466.38 746.32 579.18 659.97 691.40 829.61 701.53
00009412 00000132 528.55 192.10 447.28 678.71 645.93 455.51 851.50 469.43 743.30 584.14 655.38 693.85 825.04 704.75
00009413 00000133 528.60 190.90 445.52 678.09 645.50 455.28 851.62 469.41 743.30 583.86 655.19 693.42 825.11 704.43
00009414 00000134 528.30 190.73 443.07 676.70 645.70 454.31 850.29 468.17 742.83 580.30 653.69 690.12 823.64 700.92
00009415 00000135 524.74 193.10 441.87 671.36 641.83 451.99 846.02 464.50 738.77 577.37 649.67 687.25 819.80 696.86
00009416 00000136 523.75 191.47 438.87 669.16 639.62 450.94 843.63 461.79 737.36 573.89 647.81 684.24 819.08 692.28
00009417 00000137 523.34 190.13 437.19 665.24 637.23 449.30 840.77 458.83 734.49 570.87 647.47 681.23 814.06 688.46
00009418 00000138 528.59 184.63 431.37 666.77 642.38 453.26 834.88 464.77 729.85 569.19 654.28 679.52 809.54 690.02
00009419 00000139 530.28 188.97 430.27 659.66 647.05 458.06 832.33 471.38 732.68 570.84 657.85 678.54 809.32 690.27
00009420 00000140 533.51 188.74 428.38 659.24 650.29 460.29 834.87 474.64 734.30 573.23 660.98 680.63 808.98 693.30
00009421 00000141 534.35 191.84 429.36 654.79 651.99 459.36 843.25 474.82 742.96 572.41 658.42 681.12 812.20 693.35
00009422 00000142 534.67 190.72 431.45 657.08 652.82 456.52 849.37 471.50 748.80 572.52 661.38 683.60 816.85 695.44
00009423 00000143 536.57 192.42 435.49 655.44 653.14 454.09 853.77 466.33 753.12 569.95 666.95 685.70 822.55 695.19
00009424 00000144 538.47 191.89 437.92 654.27 655.22 453.46 858.60 462.80 759.58 570.27 673.80 688.17 829.57 694.97
00009425 00000145 542.14 192.40 440.06 652.38 658.78 452.81 863.25 462.45 763.39 569.42 678.41 688.44 834.35 695.16
00009426 00000146 544.06 189.73 440.40 656.35 662.05 450.70 865.56 461.34 766.35 569.54 681.73 688.69 835.80 696.10
00009427 00000147 544.01 189.48 442.04 657.40 664.43 450.47 868.65 460.53 770.55 569.47 685.93 689.14 839.35 695.97
00009428 00000148 544.62 189.63 441.29 658.82 665.27 447.67 868.42 457.54 771.38 568.14 686.08 687.80 838.12 694.67
00009429 00000149 544.61 186.54 439.69 660.84 666.09 446.07 868.65 456.30 771.80 566.76 686.09 685.89 837.26 693.10
00009430 00000150 544.01 186.80 439.16 657.51 664.54 444.81 867.20 454.90 770.08 564.40 684.03 685.14 834.70 692.28
00009431 00000151 543.48 186.28 440.46 653.67 662.68 444.66 869.03 454.61 769.83 565.87 683.20 685.06 837.93 691.73
00009432 00000152 544.42 185.41 438.99 649.87 662.20 445.32 869.03 454.93 769.80 567.22 684.24 684.85 839.47 691.00
00009433 00000153 544.18 186.49 438.26 645.24 661.62 445.61 868.78 454.91 769.93 567.23 683.82 684.50 839.44 690.30
00009434 00000154 542.73 185.57 441.87 650.16 662.13 445.16 868.20 455.57 769.28 566.48 682.79 681.61 838.99 688.48
00009435 00000155 543.40 185.30 441.35 651.00 662.71 445.59 867.56 455.97 769.04 565.80 682.65 678.90 841.48 685.59
00009436 00000156 543.62 186.43 441.61 648.80 663.47 446.29 867.67 457.71 769.15 565.22 682.58 676.46 844.19 683.89
00009437 00000157 544.77 187.14 442.11 648.99 665.12 446.35 869.59 458.62 771.14 566.88 682.48 675.23 847.28 683.36
00009438 00000158 546.16 184.04 442.94 654.45 669.52 445.97 872.06 459.68 774.75 569.29 686.16 677.12 846.65 686.60
00009439 00000159 547.89 178.77 443.09 656.52 671.64 447.53 875.32 461.84 772.46 578.17 688.50 678.30 848.41 689.36
00009440 00000160 548.20 180.25 444.92 651.70 673.34 450.56 879.28 464.69 774.62 581.99 689.04 678.65 852.25 689.59
00009441 00000161 549.89 180.97 445.45 654.58 677.35 451.33 882.04 466.87 776.98 583.21 690.68 679.11 853.85 691.11
00009442 00000162 550.45 181.70 446.19 656.73 679.92 451.46 883.98 467.54 779.53 584.18 693.43 681.17 855.20 693.53
00009443 00000163 552.63 181.65 443.58 653.91 681.36 453.51 885.72 468.35 781.68 586.36 695.40 682.23 857.31 693.60
00009444 00000164 554.82 182.33 441.15 650.26 683.55 454.68 886.97 469.52 783.27 589.70 698.42 683.07 858.16 694.34
00009445 00000165 556.47 183.05 439.86 650.14 683.82 457.04 888.58 471.10 784.37 593.63 698.75 685.53 859.93 696.19
00009446 00000166 557.23 188.96 439.76 645.77 682.20 459.47 890.54 474.44 781.84 598.87 697.40 690.94 858.33 702.37
00009447 00000167 556.90 191.13 440.13 644.69 682.31 460.49 890.57 476.80 781.63 600.19 698.22 693.28 857.39 705.78
00009448 00000168 552.50 198.97 443.58 639.06 679.37 462.00 887.73 476.28 785.96 592.47 699.26 698.95 859.11 708.20
00009449 00000169 551.80 198.57 442.80 643.71 679.60 462.95 886.24 477.23 785.25 594.38 698.89 701.63 856.03 711.22
00009450 00000170 550.87 199.54 443.41 640.81 677.07 462.47 884.48 476.88 783.04 593.03 696.90 700.06 856.37 709.68
