Video ID: 	HBaEfKA3e_Y
H: 	1080
W: 	1920
FPS: 	29.97002997002997

FRAME INDEX X0 Y0 W H [Landmarks (5 Points)]

00012203 00000000 505.71 263.26 490.34 662.54 704.56 508.14 926.45 458.18 906.01 627.46 720.80 733.88 946.93 693.86
00012204 00000001 506.05 269.44 490.20 656.38 699.70 509.12 923.39 456.34 903.02 627.54 719.98 734.65 947.97 691.87
00012205 00000002 502.97 251.45 492.42 666.01 700.70 499.86 920.90 448.69 898.73 610.48 722.51 726.98 944.53 685.06
00012206 00000003 502.22 241.15 488.77 664.20 700.00 488.07 909.40 437.46 892.62 589.85 726.28 712.26 939.59 670.60
00012207 DELETE   497.54 219.55 493.16 664.05 695.47 475.18 901.35 421.73 883.46 567.41 723.04 694.77 929.90 651.04
00012208 00000005 500.58 195.26 493.62 678.29 695.23 463.58 902.42 406.37 883.64 551.16 723.32 681.67 932.16 634.81
00012209 00000006 498.29 183.57 494.69 681.02 687.78 448.77 907.71 396.41 882.92 543.14 718.28 673.83 940.08 630.44
00012210 00000007 499.10 182.54 496.98 679.38 689.92 444.88 910.53 394.75 884.11 539.53 721.27 670.04 941.70 628.45
00012211 00000008 504.67 184.81 495.63 678.46 692.94 444.35 915.31 394.47 885.17 542.86 723.60 669.93 946.37 628.78
00012212 00000009 515.91 190.51 489.96 673.02 700.45 448.83 920.55 397.94 886.31 545.94 732.15 671.98 954.84 630.01
00012213 00000010 528.40 190.76 480.76 680.50 713.52 452.61 919.39 405.87 897.69 549.01 739.47 682.49 954.59 643.21
00012214 00000011 537.61 201.56 477.09 678.87 718.16 460.89 923.75 416.37 901.95 559.73 742.82 691.39 956.06 654.73
00012215 00000012 541.07 218.81 479.84 671.59 722.45 472.08 926.50 431.00 902.99 571.88 749.18 699.26 958.68 665.87
00012216 00000013 546.06 225.67 481.08 667.78 724.01 478.10 931.50 433.54 905.66 576.35 753.20 704.02 963.07 668.03
00012217 00000014 547.62 222.65 482.54 669.26 727.56 472.55 934.23 431.81 907.96 572.02 757.09 700.29 965.44 667.07
00012218 00000015 553.94 214.12 478.05 681.95 736.33 459.85 944.66 419.63 914.40 556.48 762.82 694.80 969.25 660.28
00012219 00000016 556.52 209.20 480.36 672.80 738.93 448.89 946.15 406.00 916.71 540.60 765.69 682.24 972.12 645.71
00012220 00000017 555.69 195.74 481.23 669.30 735.36 431.97 952.66 400.13 917.36 538.29 764.67 669.50 978.76 641.39
00012221 00000018 557.12 184.62 479.82 673.64 736.91 418.99 956.27 392.60 922.27 523.84 764.12 660.89 976.49 636.75
00012222 00000019 558.83 173.50 479.23 677.30 741.95 412.00 958.81 385.14 928.56 511.69 770.01 652.93 979.29 628.58
00012223 00000020 560.74 173.76 480.37 674.37 746.26 412.08 963.11 387.54 931.20 513.74 772.95 651.18 982.79 629.15
00012224 00000021 562.40 181.16 482.41 670.49 749.64 417.35 969.43 393.22 936.02 525.16 774.77 658.06 985.01 636.70
00012225 00000022 565.17 192.71 486.66 666.62 753.84 428.36 972.90 400.33 937.40 541.11 777.47 665.45 991.34 641.25
00012226 00000023 569.67 203.71 488.88 675.34 766.15 451.33 974.77 414.51 943.81 551.98 786.17 680.32 988.85 649.68
00012227 00000024 572.76 225.87 484.92 682.10 770.55 466.45 978.44 434.34 950.07 575.00 787.00 702.02 991.22 675.26
00012228 00000025 576.00 246.24 492.41 688.64 775.42 479.72 990.65 454.14 957.21 602.31 785.63 720.68 1002.69 698.99
00012229 00000026 581.66 265.53 493.16 688.35 790.51 495.46 998.83 469.24 968.68 612.42 796.50 734.35 1003.52 712.73
00012230 00000027 588.10 271.99 493.56 689.70 796.93 499.63 1004.49 473.55 972.69 615.47 801.15 739.10 1008.71 717.50
00012231 00000028 597.16 260.36 480.93 694.99 796.24 486.09 997.79 466.18 978.90 609.44 799.40 737.13 1010.53 720.39
00012232 00000029 597.67 253.45 480.12 696.30 797.76 479.93 999.71 461.06 978.89 603.95 798.42 730.95 1011.37 714.99
00012233 00000030 596.23 248.27 481.74 691.45 801.39 470.82 1001.47 451.89 980.10 594.48 798.98 720.43 1007.84 704.63
00012234 00000031 585.94 231.62 497.12 686.40 792.59 464.21 1003.37 445.40 968.14 579.98 798.30 700.52 1007.62 684.81
00012235 00000032 586.32 221.18 500.09 678.87 792.39 455.28 1007.81 436.08 968.15 569.14 799.67 692.02 1008.14 676.22
00012236 00000033 593.52 202.97 491.14 680.24 799.66 443.93 1002.25 429.27 974.43 561.48 800.54 682.84 1009.50 671.63
00012237 00000034 597.43 200.32 490.06 680.41 803.84 441.55 1006.45 429.62 978.86 558.89 804.05 679.40 1012.82 670.27
00012238 00000035 599.82 206.45 492.61 674.70 808.09 441.68 1012.52 430.37 987.50 559.93 808.56 680.78 1017.40 672.27
00012239 00000036 601.41 211.57 495.82 671.88 813.36 445.39 1016.37 436.35 990.94 564.17 814.66 685.83 1018.22 679.37
00012240 00000037 606.04 212.83 493.87 671.87 819.96 450.81 1020.36 442.87 997.04 569.44 819.66 691.00 1017.58 685.93
00012241 00000038 608.21 212.49 491.11 673.76 826.11 453.72 1025.81 445.86 1006.19 572.63 822.92 694.63 1019.17 690.09
00012242 00000039 607.83 212.35 492.24 673.83 827.67 453.61 1027.06 446.33 1007.63 573.79 822.26 693.89 1018.73 689.96
00012243 00000040 606.89 205.52 492.31 678.81 827.39 448.05 1025.74 447.11 1002.86 571.54 818.10 688.99 1014.64 690.05
00012244 00000041 604.67 205.14 493.64 677.02 822.95 438.58 1023.82 439.74 997.20 567.13 811.11 682.22 1013.61 684.62
00012245 00000042 600.08 208.19 496.53 667.74 819.82 431.38 1022.66 433.08 991.37 562.81 807.36 676.23 1010.45 678.82
00012246 00000043 596.63 204.50 497.38 668.23 817.87 424.74 1023.74 427.94 989.61 554.94 805.26 671.58 1008.24 675.06
00012247 00000044 594.16 193.51 497.80 677.70 816.05 418.13 1025.64 426.63 990.38 544.88 804.52 665.90 1009.86 673.25
00012248 00000045 593.19 188.41 498.06 680.70 813.74 414.79 1027.03 427.00 991.03 536.60 803.95 662.84 1010.41 673.11
00012249 00000046 595.03 187.25 497.40 685.56 814.04 413.50 1026.83 426.50 991.50 536.78 804.40 663.56 1011.15 674.43
00012250 00000047 598.92 193.25 495.28 683.99 814.85 413.80 1025.34 426.75 990.64 540.09 805.13 667.54 1009.40 678.58
00012251 00000048 600.61 200.62 495.62 682.66 815.95 417.29 1023.81 428.04 988.42 548.93 804.36 672.67 1007.94 682.09
00012252 00000049 601.15 206.34 495.84 682.05 815.51 418.91 1021.61 425.18 988.26 555.61 806.15 680.39 1006.76 686.38
00012253 00000050 600.17 202.57 496.00 691.33 816.11 420.70 1021.84 427.90 989.07 559.38 807.65 684.82 1006.83 691.34
00012254 00000051 597.72 204.29 496.65 692.81 814.53 422.51 1019.79 429.08 986.76 561.74 809.58 689.37 1005.74 695.18
00012255 00000052 593.82 206.13 499.51 695.48 813.72 422.28 1017.82 428.00 985.04 563.23 809.52 693.02 1004.25 698.15
00012256 00000053 590.35 204.63 501.92 698.90 812.34 423.42 1017.89 429.92 984.20 564.83 808.31 695.22 1002.88 700.94
00012257 00000054 587.23 204.75 503.11 699.57 811.14 426.54 1015.49 431.08 982.70 566.98 809.11 697.58 1002.10 701.70
00012258 00000055 583.92 206.07 504.23 696.13 809.49 429.27 1013.14 432.44 980.23 568.37 809.67 699.06 999.25 702.11
00012259 00000056 580.76 214.37 508.41 688.95 808.41 439.48 1019.31 440.92 974.46 569.98 813.08 698.46 997.32 699.66
00012260 00000057 581.35 212.90 507.25 683.13 806.19 441.89 1019.40 442.89 971.14 571.58 814.44 698.88 996.05 699.39
00012261 00000058 579.61 211.91 503.96 677.67 805.15 445.06 1019.45 446.98 971.36 573.00 817.75 701.85 996.12 702.90
00012262 00000059 576.27 209.17 500.95 672.21 799.88 449.25 1014.32 450.44 965.81 576.77 819.05 703.52 993.94 703.46
00012263 00000060 574.38 212.44 496.86 667.54 797.55 450.99 1012.68 452.74 963.52 584.16 817.91 708.81 991.61 709.18
00012264 00000061 578.61 212.07 486.15 664.19 788.34 453.58 1002.97 452.21 957.98 588.87 815.63 713.94 990.60 712.21
00012265 00000062 575.53 215.70 487.74 657.05 783.49 454.57 1001.99 451.21 954.27 588.37 816.63 714.72 990.66 710.79
00012266 00000063 572.83 213.17 489.16 654.84 780.14 449.76 1001.12 446.49 951.92 581.88 814.32 708.26 990.40 704.19
00012267 00000064 569.86 213.83 490.16 645.59 774.42 444.09 998.61 443.04 944.67 572.27 808.15 695.18 989.41 692.95
00012268 00000065 564.54 210.36 493.09 648.01 771.14 438.23 995.33 440.19 940.03 570.42 803.07 689.55 985.99 689.72
00012269 00000066 564.72 211.18 490.99 648.50 772.71 439.25 995.70 443.51 939.49 574.01 801.41 691.90 983.63 694.03
00012270 00000067 563.63 218.30 490.06 648.13 776.87 450.93 995.10 453.95 943.08 591.11 798.53 702.58 976.70 704.48
00012271 00000068 559.42 221.50 492.88 650.49 776.74 458.73 991.27 458.83 941.60 601.19 795.02 713.56 967.63 713.61
00012272 00000069 559.76 220.74 493.60 653.47 779.64 458.70 993.18 458.93 945.20 604.01 794.48 714.02 967.93 714.34
00012273 00000070 561.57 214.03 491.30 655.46 781.28 451.81 994.99 459.08 944.04 594.92 796.20 703.96 970.53 709.41
00012274 00000071 561.47 211.97 488.46 651.41 780.81 446.56 995.90 456.14 945.33 586.38 796.21 697.06 972.69 704.30
00012275 00000072 558.40 208.09 487.58 651.62 777.55 443.89 992.19 455.40 941.27 581.70 790.53 692.64 967.81 701.56
00012276 00000073 552.45 213.59 489.47 647.42 775.55 445.11 986.53 457.57 935.79 585.58 787.44 694.77 959.04 704.52
00012277 00000074 545.82 223.19 495.11 642.38 771.55 452.61 983.98 463.42 931.20 599.59 780.66 704.11 951.62 713.20
00012278 00000075 539.42 236.02 498.58 640.51 767.39 467.38 976.35 473.21 927.98 616.20 773.44 716.19 942.92 722.54
00012279 00000076 537.86 238.79 497.04 643.94 765.89 472.05 973.10 477.40 925.82 619.21 773.30 720.60 940.93 726.54
00012280 00000077 537.17 238.52 496.49 644.08 765.64 470.04 972.16 475.00 926.20 616.37 772.68 718.10 941.36 723.84
00012281 00000078 536.66 236.94 498.03 643.09 765.99 463.28 973.52 470.96 928.21 609.36 771.38 714.92 940.84 722.87
00012282 00000079 532.63 221.84 501.04 656.73 766.28 457.82 971.88 469.22 925.60 602.76 770.54 709.13 939.59 719.38
00012283 00000080 531.31 217.45 501.22 661.26 764.97 454.47 969.25 466.84 922.57 598.80 766.67 704.84 936.25 715.72
00012284 00000081 530.84 219.77 501.40 658.84 765.16 454.57 970.01 466.15 923.56 599.95 766.78 705.18 936.81 715.60
00012285 00000082 533.48 226.28 500.71 654.71 766.98 458.60 972.34 466.82 927.63 603.84 770.69 711.26 939.57 719.12
00012286 00000083 536.64 226.49 499.44 657.07 769.38 461.39 974.19 467.01 931.97 606.32 773.99 715.27 942.43 721.21
00012287 00000084 539.79 219.73 498.07 663.77 770.84 458.39 975.03 464.49 932.09 600.43 776.40 712.72 944.78 718.91
00012288 00000085 539.45 213.24 500.20 662.27 766.10 459.14 975.95 466.26 930.64 590.49 772.86 704.57 950.43 711.28
00012289 00000086 543.26 207.31 494.60 664.02 766.58 454.86 976.47 470.38 927.56 580.75 770.16 695.51 951.30 708.85
00012290 00000087 542.72 205.37 495.10 668.06 768.77 448.82 978.27 462.08 931.31 579.64 769.80 694.85 951.66 706.44
00012291 00000088 544.57 207.31 492.92 670.24 774.67 451.37 977.95 460.49 938.13 582.06 774.17 698.76 951.93 707.32
00012292 00000089 544.44 210.74 493.66 674.47 776.99 455.41 977.28 459.90 942.26 591.61 777.44 707.66 951.48 712.52
00012293 00000090 545.81 214.21 491.99 674.44 775.67 459.32 976.96 458.68 944.70 593.55 780.91 714.14 953.51 714.80
00012294 00000091 546.64 212.43 492.29 676.75 775.98 457.63 977.68 456.31 945.19 590.97 781.38 713.58 955.62 713.70
00012295 00000092 545.27 209.06 492.76 674.60 773.53 450.35 976.50 454.98 941.87 581.01 779.13 703.08 957.02 707.63
00012296 00000093 541.44 200.21 495.83 680.16 769.15 441.79 974.40 449.92 938.53 568.33 775.18 694.02 956.89 701.15
00012297 00000094 539.97 195.06 496.33 683.33 765.10 435.64 972.72 445.31 934.17 564.24 772.16 689.98 956.68 697.90
00012298 00000095 538.15 195.02 495.49 684.15 763.17 436.56 969.35 447.15 931.49 564.07 769.56 689.65 954.13 698.27
00012299 00000096 536.06 199.14 495.22 682.43 761.50 440.68 966.63 450.13 930.66 567.69 766.19 693.14 950.26 701.34
00012300 00000097 535.73 204.16 494.38 680.65 762.78 447.20 965.62 453.18 930.51 577.49 768.09 700.40 948.08 705.96
00012301 00000098 535.93 207.37 495.44 682.32 760.99 452.76 963.68 455.29 928.61 583.30 770.07 707.21 948.56 710.15
00012302 00000099 534.41 204.82 495.75 685.85 759.67 453.02 962.70 455.06 929.08 580.34 770.13 706.97 950.11 709.32
00012303 00000100 530.22 203.81 499.06 686.01 756.28 448.23 961.93 452.85 927.66 572.17 767.24 701.39 950.40 705.44
00012304 00000101 530.71 196.58 498.90 693.37 753.21 441.79 961.25 450.43 925.86 562.92 765.35 696.01 951.98 702.71
00012305 00000102 531.76 198.94 498.91 695.51 753.33 437.84 959.83 444.92 926.76 561.53 765.66 695.71 952.86 701.14
00012306 00000103 533.01 195.75 499.10 703.99 755.72 437.75 962.42 444.75 930.10 561.39 769.11 698.43 956.45 703.59
00012307 00000104 536.09 193.56 498.12 708.42 759.34 439.18 965.28 447.23 933.08 562.73 773.16 700.75 958.25 706.93
00012308 00000105 539.82 197.94 495.80 710.71 764.77 445.38 966.05 450.63 937.72 567.43 781.14 708.15 960.52 712.31
00012309 00000106 542.52 195.79 492.25 720.40 768.02 450.38 976.03 451.99 939.89 570.72 787.62 715.22 964.40 714.40
00012310 00000107 544.28 196.16 493.08 723.93 767.17 450.35 976.98 451.25 940.41 570.56 787.85 717.03 966.80 715.47
00012311 00000108 544.80 198.57 492.66 719.93 762.64 443.74 973.64 439.76 943.42 553.79 789.76 713.79 970.38 708.21
00012312 00000109 542.36 198.75 494.12 701.81 752.52 423.84 963.17 420.98 935.80 536.61 782.79 697.40 970.94 693.44
00012313 00000110 541.10 176.76 498.37 693.97 747.22 408.61 963.03 407.41 931.02 508.20 779.33 668.95 972.54 665.40
00012314 00000111 539.27 157.32 498.60 697.03 747.21 395.27 964.72 395.00 933.60 482.70 789.42 654.69 976.89 650.72
00012315 00000112 542.20 150.43 495.21 690.55 749.47 392.96 967.11 390.25 934.70 476.92 792.80 647.24 978.09 641.61
00012316 00000113 547.89 159.46 490.36 675.83 753.19 398.67 971.81 392.05 941.94 487.37 796.29 650.92 983.41 642.60
00012317 DELETE   551.08 168.46 493.64 669.51 760.66 417.02 981.99 405.73 947.44 515.51 795.44 660.70 991.76 649.41
00012318 DELETE   549.11 185.80 496.96 673.39 760.15 451.08 985.62 428.98 952.23 544.71 797.75 686.76 998.28 667.17
00012319 00000116 548.90 193.15 498.52 699.12 764.18 461.44 983.18 439.71 958.67 563.75 802.62 713.90 995.98 695.43
00012320 00000117 550.69 199.50 494.90 716.34 768.05 463.74 974.75 441.35 952.75 563.66 815.58 728.89 991.15 707.61
00012321 00000118 548.03 193.62 496.14 717.38 768.52 465.47 969.81 440.11 946.73 562.74 819.18 724.30 987.64 700.35
00012322 00000119 546.77 201.87 495.76 705.08 758.74 464.79 965.44 437.58 937.88 560.72 812.82 721.18 985.19 695.05
00012323 00000120 541.84 191.78 499.53 706.94 753.93 465.41 962.37 439.32 935.77 563.41 809.77 717.92 984.63 694.45
00012324 00000121 541.19 193.32 497.81 700.74 749.96 462.42 958.67 437.59 929.18 562.15 808.52 715.43 982.51 692.67
00012325 00000122 538.28 194.83 498.61 695.59 746.29 458.71 952.02 432.17 923.80 557.11 807.24 712.09 980.64 687.73
00012326 00000123 538.49 190.32 500.66 699.08 744.09 454.71 950.94 424.85 923.62 549.18 805.33 708.34 982.80 681.32
00012327 00000124 539.41 188.97 501.74 690.88 742.10 451.13 952.98 422.40 921.74 548.34 797.14 701.03 981.41 675.25
00012328 00000125 541.95 190.49 500.72 686.68 741.90 448.42 955.51 417.83 924.31 547.00 796.92 697.96 984.78 670.57
00012329 00000126 545.45 194.16 499.91 683.44 743.43 447.96 960.90 417.33 927.40 548.55 797.06 697.91 988.26 670.62
00012330 00000127 548.63 195.10 500.52 682.92 746.01 449.28 964.50 416.11 932.60 549.59 800.30 698.16 992.50 669.00
00012331 00000128 557.22 201.39 496.96 685.75 756.84 455.66 967.40 415.13 939.86 546.22 808.17 705.66 991.07 670.29
00012332 00000129 561.94 197.78 498.61 690.32 761.14 455.76 971.79 415.75 942.56 545.57 810.28 703.50 994.27 668.52
00012333 00000130 565.38 194.07 502.25 698.10 767.88 458.03 978.98 420.93 947.86 544.96 813.69 703.23 999.69 670.67
00012334 00000131 567.84 196.66 500.77 709.18 769.44 462.04 982.26 427.41 948.55 543.88 818.04 710.52 1005.88 679.54
00012335 00000132 567.43 202.65 502.65 722.05 766.98 461.53 981.88 430.11 946.37 542.73 816.86 720.21 1008.54 691.22
00012336 00000133 571.90 202.38 501.71 732.93 764.47 461.49 981.82 428.85 946.48 543.56 815.92 727.21 1008.12 697.22
00012337 00000134 574.32 194.88 500.34 741.48 761.09 463.72 977.70 427.90 939.75 547.11 812.99 729.80 1003.35 697.08
00012338 00000135 573.42 195.36 499.65 732.16 759.82 465.84 975.34 428.70 934.16 551.84 808.90 724.98 1000.60 691.32
00012339 00000136 571.47 188.73 499.70 723.78 758.56 470.89 972.62 433.96 929.11 554.94 811.84 718.23 996.48 684.55
00012340 00000137 569.78 199.39 496.84 703.84 753.09 472.49 970.58 440.46 922.83 558.42 807.66 715.67 992.54 685.73
00012341 00000138 568.91 192.87 490.95 699.79 743.29 472.37 966.76 448.04 910.88 561.27 795.60 712.09 987.17 690.44
00012342 00000139 566.02 200.72 491.11 696.16 737.29 472.21 958.53 443.45 900.87 563.00 793.23 717.30 978.99 689.04
00012343 00000140 558.34 202.88 496.70 684.16 727.69 471.31 951.58 448.87 887.16 566.14 779.51 711.85 969.26 691.72
00012344 00000141 562.63 205.65 488.92 688.54 724.09 473.35 946.84 446.63 876.27 564.89 780.98 720.02 965.86 693.09
00012345 00000142 554.65 202.34 495.28 688.69 708.68 474.66 937.54 448.60 862.52 569.62 761.96 716.72 960.61 693.43
00012346 00000143 554.64 204.78 494.02 690.41 704.73 477.02 932.05 450.28 856.14 575.25 757.88 722.52 955.96 698.98
00012347 00000144 553.10 205.43 497.17 693.66 701.81 481.03 929.35 452.82 853.09 585.37 761.31 732.20 951.62 707.84
00012348 00000145 551.69 204.05 500.64 699.61 700.17 483.62 930.80 457.45 851.24 592.28 760.88 741.17 943.76 718.73
00012349 00000146 550.45 205.52 500.95 703.40 694.57 486.62 930.04 458.74 846.31 594.46 753.84 744.69 943.88 720.86
00012350 00000147 547.45 209.61 498.91 706.59 688.23 487.68 922.97 459.73 839.72 597.63 747.31 747.78 937.35 724.10
00012351 00000148 543.01 206.42 496.69 707.66 683.78 488.01 915.07 461.44 831.14 595.05 743.61 745.79 925.28 723.58
00012352 00000149 536.31 208.95 500.47 703.50 674.37 488.46 906.66 460.05 819.48 595.62 733.57 743.54 921.01 719.85
00012353 00000150 530.09 209.15 499.55 701.33 663.44 487.86 898.56 459.19 805.14 593.59 719.87 740.55 911.84 716.15
00012354 00000151 524.61 209.82 505.82 689.57 655.30 486.28 896.61 458.59 799.94 595.77 713.57 740.89 902.03 716.71
00012355 00000152 519.59 215.55 508.75 684.00 642.71 484.53 888.88 454.47 786.87 598.88 704.94 742.09 897.71 716.22
00012356 00000153 515.00 218.80 508.60 682.61 637.62 487.55 882.40 458.78 777.79 600.70 697.93 741.78 891.42 717.27
00012357 00000154 511.95 217.69 509.35 686.09 633.79 488.13 875.34 459.29 770.61 598.49 695.06 744.75 883.73 720.67
00012358 00000155 510.11 215.84 511.95 690.12 630.95 489.40 872.50 459.20 766.71 596.51 688.90 742.35 886.37 716.92
00012359 00000156 510.63 210.31 511.55 695.45 629.30 489.44 873.17 459.35 764.45 596.98 682.31 739.79 890.70 714.15
00012360 00000157 510.75 211.90 511.19 695.76 628.91 489.44 873.24 459.49 764.22 597.67 681.04 739.83 891.85 714.36
00012361 00000158 509.74 217.96 511.08 691.15 627.88 490.23 872.96 461.40 762.93 599.76 679.26 739.86 891.68 715.39
00012362 00000159 508.46 218.33 511.94 695.29 627.38 491.99 873.06 464.92 761.84 602.31 677.44 743.06 888.89 720.20
00012363 00000160 508.96 225.66 511.79 697.54 628.39 493.94 875.38 465.65 765.23 604.01 684.67 753.14 894.07 725.57
00012364 00000161 508.67 225.74 510.76 714.03 628.71 493.93 874.14 464.48 762.44 603.57 687.73 765.19 885.78 737.66
00012365 00000162 508.18 221.97 509.69 736.18 628.36 493.45 874.83 462.69 759.05 604.68 689.32 778.00 880.25 750.48
00012366 00000163 505.81 220.30 509.69 752.61 626.96 492.88 870.98 461.25 756.69 606.53 688.28 786.16 874.60 758.34
00012367 00000164 503.52 219.44 511.47 759.87 623.82 495.87 869.01 462.67 753.61 608.53 685.57 790.66 874.15 761.71
00012368 00000165 500.97 221.23 514.59 749.98 622.98 498.01 868.16 465.34 753.42 611.28 684.17 786.28 874.58 757.50
00012369 00000166 503.34 223.91 515.18 720.12 621.70 501.92 867.53 473.06 755.33 614.89 682.85 772.24 875.89 745.56
00012370 00000167 502.50 229.01 516.22 699.85 619.89 506.44 868.11 480.17 753.82 625.78 676.45 762.60 875.07 741.33
00012371 00000168 503.08 236.34 517.25 686.36 621.48 507.28 871.03 480.40 756.41 627.97 679.24 761.07 877.46 739.31
00012372 00000169 507.07 236.13 513.51 682.37 623.42 507.60 872.17 480.25 756.94 627.63 681.10 761.77 876.44 739.71
