Video ID: 	MisDjEG4Z04
H: 	1080
W: 	1920
FPS: 	29.97002997002997

FRAME INDEX X0 Y0 W H [Landmarks (5 Points)]

00005516 00000000 731.28 140.65 417.91 626.81 960.47 374.81 1120.04 410.03 1120.68 498.10 966.15 599.46 1103.29 629.85
00005517 DELETE   722.66 129.77 425.36 628.18 958.17 373.16 1122.95 409.27 1115.89 486.11 969.86 591.14 1108.31 621.63
00005518 00000002 717.61 129.78 425.42 627.91 951.02 373.89 1116.37 404.92 1106.64 483.85 968.21 590.82 1105.31 617.35
00005519 DELETE   713.53 134.60 427.19 622.22 945.76 377.08 1110.85 404.07 1102.04 492.04 966.43 597.13 1098.08 620.58
00005520 00000004 715.24 134.57 431.68 626.76 947.23 384.34 1116.03 410.08 1108.81 499.25 971.84 608.67 1105.43 630.65
00005521 DELETE   717.51 141.52 437.00 628.94 953.56 393.64 1118.89 410.02 1118.60 511.88 989.42 624.60 1114.22 638.61
00005522 00000006 725.15 150.63 421.50 622.93 962.79 402.88 1115.73 414.22 1116.80 521.93 991.94 640.67 1101.84 650.30
00005523 00000007 723.10 155.22 419.69 603.19 952.15 406.29 1114.69 414.78 1106.92 524.56 991.45 646.32 1104.63 652.49
00005524 00000008 712.15 163.13 431.91 604.66 941.32 414.36 1113.85 417.94 1100.15 536.69 967.18 649.67 1096.15 652.56
00005525 00000009 712.57 165.29 433.09 616.80 937.87 412.62 1119.86 424.20 1104.30 546.53 942.43 648.85 1090.98 658.39
00005526 00000010 711.25 175.84 437.82 614.57 944.88 423.05 1122.03 429.00 1116.15 555.37 943.03 655.48 1088.23 662.41
00005527 00000011 721.32 176.38 431.96 625.68 951.13 426.07 1121.31 433.90 1119.64 561.86 939.43 656.53 1087.40 665.79
00005528 00000012 722.25 177.43 431.94 624.81 949.18 431.39 1124.28 437.19 1115.90 566.91 936.32 660.12 1085.78 667.78
00005529 00000013 717.44 181.30 435.14 617.30 945.31 435.54 1124.01 440.19 1110.21 569.46 936.35 660.83 1086.38 667.29
00005530 00000014 715.11 180.58 438.46 620.34 945.70 436.86 1124.52 440.90 1110.52 572.13 934.29 661.11 1086.12 667.24
00005531 00000015 717.81 183.83 436.79 622.41 949.58 436.98 1126.73 443.53 1113.64 578.56 931.14 664.80 1081.21 673.80
00005532 00000016 720.32 181.82 435.53 635.43 952.09 435.75 1124.79 444.14 1115.47 583.61 929.32 668.92 1076.86 679.77
00005533 00000017 720.34 185.46 435.58 628.57 947.62 438.05 1123.52 446.13 1109.42 587.06 930.44 673.48 1073.21 683.71
00005534 00000018 717.14 188.22 438.90 629.43 945.12 441.29 1121.42 445.83 1105.26 589.51 935.40 673.88 1078.47 681.12
00005535 00000019 715.85 186.27 439.74 631.65 949.80 443.07 1124.43 447.51 1109.85 591.00 944.31 676.93 1081.64 683.73
00005536 00000020 720.41 179.66 434.87 643.06 956.64 445.86 1124.82 448.98 1117.03 592.42 948.21 679.91 1083.39 685.45
00005537 00000021 722.30 179.53 433.85 645.40 957.44 443.64 1124.27 447.90 1119.03 590.76 945.69 679.62 1081.49 686.28
00005538 00000022 721.38 185.14 433.32 636.23 954.07 441.39 1122.59 448.35 1111.83 588.23 943.98 674.61 1078.89 683.69
00005539 00000023 717.97 184.76 435.06 631.13 949.95 440.78 1121.92 444.42 1106.10 588.04 943.12 672.91 1078.30 679.24
00005540 00000024 719.78 187.28 432.84 621.65 950.61 445.14 1123.56 444.60 1108.32 588.93 949.40 672.98 1084.57 675.50
00005541 00000025 719.08 182.85 434.84 632.84 955.77 445.88 1125.87 446.33 1114.21 592.11 952.18 677.96 1085.84 681.18
00005542 00000026 716.36 179.83 439.54 643.70 955.92 445.22 1125.93 447.21 1115.98 593.96 952.86 683.02 1085.33 687.10
00005543 00000027 717.40 182.31 438.27 639.56 955.16 446.48 1125.95 447.15 1114.47 594.70 952.75 681.65 1086.69 684.84
00005544 00000028 719.61 183.58 437.47 634.99 953.55 448.16 1126.44 446.13 1113.95 594.34 949.00 679.28 1086.25 680.72
00005545 00000029 720.15 183.26 437.76 631.35 955.37 445.78 1127.36 447.67 1116.41 592.03 942.68 675.78 1081.25 680.88
00005546 00000030 727.66 183.01 430.59 629.85 956.00 445.62 1128.75 446.35 1118.49 590.84 935.80 669.76 1081.32 674.91
00005547 00000031 725.67 181.50 433.01 626.93 957.14 442.96 1128.02 442.86 1120.28 587.89 934.87 668.90 1079.15 673.60
00005548 00000032 722.26 183.28 435.03 621.68 952.28 439.55 1127.51 443.78 1113.95 586.22 930.66 667.98 1075.95 675.95
00005549 00000033 719.14 183.67 437.81 628.58 947.90 434.46 1124.33 441.33 1108.62 585.08 923.43 666.29 1074.36 676.27
00005550 00000034 713.39 181.35 441.64 638.91 945.43 430.79 1121.43 442.09 1107.07 585.08 922.91 672.85 1068.84 685.98
00005551 00000035 715.09 180.42 439.05 643.95 948.32 433.06 1123.30 443.43 1109.88 585.38 930.41 676.68 1071.42 688.80
00005552 00000036 713.83 178.47 440.17 630.04 950.43 437.38 1123.43 442.95 1109.02 579.53 940.98 669.65 1076.19 677.32
00005553 00000037 714.46 181.04 438.72 621.85 947.23 437.84 1123.29 443.84 1104.65 579.04 941.51 668.27 1076.87 675.91
00005554 00000038 712.17 181.19 438.84 618.71 944.25 437.18 1119.46 442.02 1101.59 579.16 938.68 666.21 1074.69 672.78
00005555 00000039 710.93 182.60 439.47 616.31 943.18 435.95 1117.47 439.55 1101.52 576.25 937.13 662.33 1075.09 668.14
00005556 00000040 709.01 176.92 438.92 621.87 946.71 429.99 1117.21 435.94 1106.09 571.15 933.52 658.88 1071.97 667.03
00005557 00000041 711.96 176.51 438.38 623.65 952.62 425.85 1119.61 431.81 1115.97 571.86 931.33 662.12 1070.10 670.83
00005558 00000042 715.46 178.54 434.23 616.51 956.77 424.27 1120.12 431.31 1117.76 573.76 930.40 659.43 1065.76 669.65
00005559 00000043 715.80 178.60 430.97 614.62 950.66 427.50 1120.26 434.02 1110.42 574.55 923.94 658.71 1064.73 668.43
00005560 00000044 711.95 178.33 432.17 613.10 946.90 426.91 1119.74 435.37 1103.63 575.25 917.59 655.79 1061.07 667.07
00005561 00000045 714.12 178.49 432.26 612.87 947.55 429.58 1121.41 435.51 1106.68 574.13 923.03 657.55 1067.57 666.50
00005562 00000046 720.06 178.51 428.32 612.61 954.17 431.83 1123.91 432.87 1117.24 573.40 930.62 658.40 1073.12 663.79
00005563 00000047 719.39 175.26 430.12 616.23 955.82 429.70 1125.86 434.27 1119.17 571.39 933.34 659.58 1074.07 667.44
00005564 00000048 717.89 173.58 431.29 617.18 954.45 429.58 1125.21 433.66 1116.97 571.25 932.31 659.63 1072.46 667.01
00005565 00000049 717.10 174.37 431.10 617.80 952.06 429.89 1123.53 434.93 1113.23 571.71 931.84 659.33 1073.37 667.24
00005566 00000050 719.94 178.68 428.59 614.43 951.30 433.11 1124.25 438.24 1112.86 572.89 932.79 660.56 1075.69 668.43
00005567 00000051 720.50 180.47 428.76 612.59 954.40 432.69 1124.96 439.08 1114.62 575.41 932.13 661.64 1072.42 670.95
00005568 00000052 720.71 178.81 432.95 624.52 960.01 431.73 1124.67 438.84 1119.58 579.70 934.18 664.29 1073.04 674.35
00005569 00000053 716.57 178.79 436.86 627.48 959.09 432.07 1124.17 441.80 1118.19 577.41 946.37 671.19 1074.90 682.06
00005570 00000054 714.60 175.14 440.87 632.55 958.19 432.13 1123.62 443.52 1113.35 572.99 962.14 677.51 1080.67 687.98
00005571 00000055 714.34 176.73 443.24 642.05 961.56 431.18 1123.08 444.98 1114.33 575.00 973.70 683.64 1084.14 695.54
00005572 00000056 717.44 179.23 442.11 641.90 962.58 435.52 1123.76 447.93 1116.11 581.52 972.78 690.97 1081.16 701.64
00005573 00000057 717.79 183.85 441.34 633.05 963.67 436.48 1127.06 450.55 1116.41 586.45 969.39 691.14 1078.09 703.42
00005574 00000058 722.41 183.48 439.12 636.50 965.72 437.83 1129.25 450.09 1120.55 590.98 967.09 693.63 1077.71 704.94
00005575 00000059 722.68 181.99 441.33 647.55 969.29 436.55 1129.09 450.65 1123.05 594.62 956.08 691.58 1069.03 705.67
00005576 00000060 726.29 185.94 438.34 643.33 971.11 435.97 1130.48 448.38 1124.16 597.37 949.46 688.34 1065.71 701.93
00005577 00000061 729.26 187.37 435.29 630.17 971.45 437.91 1132.72 446.94 1125.69 593.54 953.14 682.47 1071.20 693.51
00005578 00000062 724.27 182.27 439.74 629.33 969.00 438.00 1133.83 445.10 1127.39 583.67 963.93 677.26 1086.62 685.73
00005579 00000063 715.85 180.60 443.35 624.09 959.14 440.59 1128.02 440.11 1118.35 581.34 965.32 678.29 1086.79 680.20
00005580 00000064 717.23 176.49 444.08 625.65 942.03 442.17 1123.90 443.40 1095.25 584.22 949.86 674.14 1082.85 676.69
00005581 00000065 720.40 189.07 430.67 613.95 928.36 448.77 1105.91 445.30 1066.39 587.20 939.02 676.68 1065.45 676.45
00005582 00000066 715.43 192.66 426.64 607.12 915.56 449.16 1097.49 445.49 1055.98 594.29 927.12 677.71 1055.65 677.54
00005583 00000067 710.08 194.67 428.72 609.95 911.87 455.44 1096.28 449.39 1055.33 601.34 926.20 682.14 1057.66 679.23
00005584 00000068 708.84 194.09 428.54 612.82 909.01 460.58 1093.12 452.18 1053.16 606.66 926.26 687.86 1054.37 682.91
00005585 00000069 709.95 201.97 426.24 607.00 907.13 462.45 1090.29 455.24 1049.95 611.27 923.77 691.57 1048.61 688.11
00005586 00000070 713.48 205.03 422.50 602.93 908.99 464.12 1090.58 456.03 1051.19 610.59 927.71 690.25 1052.65 685.89
00005587 00000071 718.68 198.82 421.50 608.37 917.57 466.98 1097.39 456.14 1059.47 609.69 934.42 692.67 1057.87 685.93
00005588 00000072 722.22 201.73 420.66 599.15 929.41 458.93 1103.43 454.59 1071.53 600.69 941.94 689.45 1060.85 687.67
00005589 00000073 727.39 202.76 419.52 601.76 935.85 454.22 1109.30 454.72 1079.22 601.19 949.22 693.39 1065.09 695.25
00005590 00000074 725.91 202.99 422.95 612.97 933.71 455.74 1107.36 456.96 1078.58 606.74 949.35 706.99 1061.91 708.94
00005591 00000075 728.37 199.90 428.17 640.37 933.30 468.89 1110.70 473.18 1073.05 619.00 947.09 720.97 1060.40 725.83
00005592 00000076 720.52 203.29 431.86 658.58 936.85 469.17 1106.73 470.96 1081.24 624.79 949.44 737.20 1057.53 739.44
00005593 00000077 729.46 215.57 429.60 630.69 940.43 475.90 1111.74 473.13 1087.11 630.46 960.48 745.72 1065.49 743.98
00005594 00000078 747.00 218.91 429.74 620.59 948.88 480.48 1129.70 478.14 1088.30 633.29 972.09 737.18 1082.12 736.04
00005595 00000079 747.60 216.44 431.98 630.17 953.11 479.53 1133.07 478.52 1094.68 631.72 975.32 738.51 1085.69 738.65
00005596 00000080 742.09 206.23 436.44 645.20 951.39 470.71 1129.25 466.69 1102.88 624.66 965.12 734.13 1073.69 732.26
00005597 00000081 747.93 204.35 427.71 638.68 953.23 475.06 1130.79 472.56 1095.33 621.80 974.08 729.70 1086.93 729.00
00005598 00000082 735.72 212.00 440.32 628.08 946.55 467.19 1128.35 467.53 1097.41 626.59 957.90 730.13 1070.10 731.71
00005599 00000083 733.27 219.07 443.68 625.02 950.67 470.82 1130.21 470.17 1100.33 632.16 952.45 726.71 1070.13 728.43
00005600 00000084 737.06 221.02 443.23 623.40 959.57 476.31 1135.67 471.89 1109.41 635.81 953.88 721.81 1075.80 721.29
00005601 00000085 740.17 218.70 445.03 624.19 966.45 476.69 1141.18 470.59 1116.71 635.58 956.27 714.41 1083.43 712.98
00005602 00000086 742.16 218.56 444.30 625.06 967.53 472.24 1141.60 469.87 1118.19 631.71 956.30 711.26 1082.23 713.21
00005603 00000087 741.30 214.55 442.30 627.27 967.29 469.96 1139.05 466.59 1119.52 626.70 955.92 707.58 1081.86 708.89
00005604 00000088 737.04 208.66 442.89 634.11 965.42 468.68 1135.89 464.27 1119.52 624.55 954.31 707.99 1080.12 708.43
00005605 00000089 734.26 207.95 443.25 639.76 959.03 466.00 1132.68 464.58 1113.67 623.79 951.29 714.84 1074.60 717.22
00005606 00000090 394.99 93.14 291.84 380.55
00005607 00000091 738.60 200.10 434.59 645.89 952.42 471.89 1125.01 472.48 1093.74 621.27 960.56 723.76 1069.80 726.61
00005608 00000092 721.45 197.26 447.96 636.14 948.58 460.43 1128.50 462.78 1104.14 619.67 956.79 726.17 1067.31 729.28
00005609 00000093 726.87 201.95 445.75 645.41 948.45 464.30 1125.93 467.17 1100.02 621.51 950.41 723.42 1066.08 727.74
00005610 00000094 727.10 203.32 445.56 642.13 951.29 463.05 1123.80 466.49 1100.19 622.06 942.27 712.46 1063.91 718.32
00005611 00000095 724.55 201.76 443.53 636.33 950.13 461.19 1122.12 465.91 1096.40 622.49 926.24 697.92 1059.86 706.25
00005612 00000096 717.91 204.75 440.07 636.95 945.84 456.15 1117.97 468.35 1087.36 628.03 902.35 691.27 1047.68 707.10
00005613 00000097 718.43 202.22 439.68 636.83 940.97 455.28 1114.84 467.99 1086.10 630.42 894.69 690.69 1042.59 707.35
00005614 00000098 706.07 209.58 441.40 649.55 945.79 460.35 1101.75 469.03 1086.20 622.01 895.43 687.79 1035.49 699.77
00005615 00000099 703.41 209.50 440.11 642.93 942.67 462.48 1099.91 470.90 1080.41 619.71 895.76 686.61 1033.11 698.12
00005616 00000100 700.88 213.04 439.81 640.80 939.44 463.96 1095.35 468.72 1075.56 619.40 899.99 689.64 1033.40 697.71
00005617 00000101 709.10 197.19 439.28 644.09 934.48 463.05 1101.54 467.32 1074.33 612.10 909.47 687.12 1041.23 694.84
00005618 00000102 700.46 196.87 440.57 637.68 931.22 456.85 1100.81 456.13 1076.24 602.98 917.40 686.75 1045.22 690.03
00005619 00000103 704.11 185.83 438.12 648.56 933.14 450.10 1099.79 449.03 1078.34 592.94 925.93 681.54 1055.28 683.79
00005620 00000104 705.65 193.51 430.47 629.07 920.55 444.76 1102.43 447.89 1066.77 593.47 927.56 686.09 1064.54 688.83
00005621 00000105 700.31 190.97 430.16 642.90 915.83 443.35 1097.16 446.16 1063.96 591.71 925.33 692.07 1060.24 694.45
00005622 00000106 695.31 192.01 431.43 646.69 915.07 446.25 1092.73 448.39 1062.28 595.68 923.97 696.98 1052.80 698.74
00005623 00000107 691.68 193.76 431.35 645.16 908.62 450.38 1088.08 447.62 1058.32 599.37 918.70 700.51 1048.69 698.12
00005624 00000108 684.09 180.41 436.55 659.02 903.18 446.55 1077.30 448.73 1052.00 593.73 906.09 687.59 1032.73 692.06
00005625 00000109 677.09 183.94 439.65 652.38 887.10 451.64 1070.38 450.04 1040.76 596.36 896.51 688.70 1033.95 689.39
00005626 00000110 669.63 185.47 440.90 647.55 871.94 451.88 1061.68 456.73 1016.98 602.85 882.03 685.57 1023.48 690.71
00005627 00000111 664.78 186.37 443.73 648.20 862.17 453.88 1051.39 460.92 997.59 606.50 869.85 690.86 1006.58 697.50
00005628 00000112 662.64 185.79 446.54 655.70 855.45 448.55 1049.68 457.24 988.27 610.37 865.00 705.03 992.79 712.93
00005629 00000113 656.92 189.04 437.03 651.72 843.77 447.01 1036.60 448.46 982.00 612.22 865.03 717.63 988.26 717.58
00005630 00000114 654.86 189.71 433.16 652.98 837.71 442.12 1028.72 445.81 972.23 607.39 853.41 706.39 977.38 708.84
00005631 00000115 651.73 188.23 429.84 645.77 828.62 447.54 1021.09 446.48 961.84 599.31 837.91 686.64 977.18 688.38
00005632 00000116 650.84 189.68 427.68 636.62 832.64 444.59 1021.68 442.94 966.37 594.31 835.88 677.73 980.36 679.38
00005633 00000117 649.85 182.34 435.01 634.39 839.41 440.40 1027.93 436.11 975.82 583.18 839.91 664.37 994.02 663.62
CROP_BBOX: 320 0 1413 1017
