Video ID: 	Ov0zbFkSlq4
H: 	1080
W: 	1920
FPS: 	23.976023976023978

FRAME INDEX X0 Y0 W H [Landmarks (5 Points)]

00006263 00000000 844.02 110.04 451.92 693.99 903.94 377.49 1009.45 373.95 844.36 486.59 909.53 622.67 998.69 616.47
00006264 00000001 843.62 112.13 450.61 692.41 901.76 379.08 1008.54 374.75 843.78 488.20 908.72 624.03 999.17 617.04
00006265 00000002 843.21 111.66 451.21 693.56 900.89 379.79 1007.73 375.02 843.08 489.36 908.24 625.30 998.14 617.98
00006266 00000003 843.39 111.23 451.64 693.55 900.30 381.33 1006.90 376.26 840.94 489.63 906.82 625.65 997.18 618.04
00006267 00000004 843.64 110.52 453.10 693.27 899.17 379.12 1007.66 376.63 840.55 491.27 905.01 625.54 995.63 620.31
00006268 00000005 843.29 110.78 453.18 692.96 898.87 380.26 1008.42 377.43 840.04 492.58 901.78 628.30 989.43 623.25
00006269 00000006 843.79 101.33 451.70 703.77 896.43 379.75 1001.95 381.82 848.55 490.36 896.34 619.02 982.72 621.14
00006270 00000007 843.68 103.28 451.71 701.88 895.96 380.07 1001.92 381.98 849.00 490.30 895.39 619.77 980.98 621.85
00006271 00000008 844.45 104.34 450.63 695.21 894.82 380.18 1002.85 382.52 850.53 490.01 894.80 617.01 980.76 619.64
00006272 00000009 844.39 103.83 451.28 692.92 895.12 380.11 1002.43 380.80 850.78 488.78 895.62 616.48 980.37 617.71
00006273 00000010 845.41 101.63 449.69 693.95 896.52 378.09 1003.79 378.98 852.04 486.17 895.42 615.75 978.29 617.20
00006274 00000011 846.31 108.71 451.38 689.02 901.45 377.44 1013.91 377.24 844.58 489.33 898.58 625.58 983.53 623.95
00006275 00000012 849.04 109.79 450.42 686.39 903.88 379.73 1015.39 378.90 845.96 490.67 900.02 626.65 983.07 624.81
00006276 00000013 852.82 101.08 448.67 698.60 904.21 381.10 1009.94 383.83 857.49 491.48 901.63 621.70 979.43 624.93
00006277 00000014 859.80 101.74 448.41 701.70 910.85 384.46 1014.45 385.97 860.81 493.54 908.41 626.77 983.75 628.60
00006278 00000015 864.95 102.28 448.08 707.83 916.28 386.99 1020.31 387.47 866.67 495.30 913.89 632.42 988.17 633.13
00006279 00000016 868.48 104.32 443.84 706.50 919.98 385.66 1023.84 386.23 870.87 494.36 917.35 631.53 992.53 632.18
00006280 00000017 867.31 109.89 450.53 695.87 928.91 381.01 1032.91 386.07 867.79 495.54 923.47 628.20 1004.21 630.60
00006281 DELETE   867.04 110.05 451.12 692.27 925.94 379.81 1038.39 386.81 873.32 492.99 923.77 625.15 1008.58 629.46
00006282 00000019 867.11 96.23 453.34 697.23 918.70 375.51 1048.22 383.09 870.36 486.25 916.31 615.87 1013.34 620.68
00006283 00000020 871.41 107.55 452.74 683.04 924.19 378.91 1049.05 383.76 881.65 483.99 920.95 617.13 1015.69 620.61
00006284 00000021 873.27 106.12 453.98 690.54 927.69 375.12 1054.29 381.44 888.43 486.31 927.37 619.14 1022.39 623.88
00006285 00000022 877.59 108.24 452.91 703.23 933.89 375.05 1055.97 379.37 894.67 486.80 937.05 625.10 1031.99 627.82
00006286 00000023 879.38 103.73 455.12 703.98 935.30 372.34 1063.22 377.96 899.32 483.45 936.90 620.20 1036.62 624.50
00006287 00000024 882.93 102.61 458.51 704.62 936.86 371.36 1067.64 374.14 903.27 478.96 939.00 617.67 1043.24 619.83
00006288 00000025 891.29 101.32 452.16 710.41 939.73 368.96 1073.56 371.30 912.82 479.44 945.10 619.52 1049.46 621.69
00006289 00000026 893.34 101.81 453.06 710.01 943.18 370.92 1076.42 371.06 916.54 479.74 950.53 619.67 1053.69 620.10
00006290 00000027 894.01 100.18 457.03 705.61 942.60 373.37 1077.93 371.38 917.68 479.66 947.92 620.77 1047.04 619.95
00006291 00000028 895.65 89.04 454.17 697.11 933.83 365.38 1076.30 364.85 913.45 475.30 942.20 612.13 1043.51 612.33
00006292 00000029 895.49 82.08 453.16 697.16 934.60 361.52 1077.59 362.01 911.00 464.89 936.58 603.84 1039.64 604.91
00006293 00000030 896.27 81.40 454.28 697.51 935.96 359.65 1077.88 358.51 912.02 461.36 937.62 601.46 1040.10 601.20
00006294 00000031 896.76 82.48 452.75 702.32 939.27 357.79 1079.07 357.42 914.43 460.90 940.71 602.39 1042.28 602.58
00006295 00000032 897.03 83.75 453.73 708.64 938.62 357.33 1077.35 358.61 912.73 464.08 940.61 606.17 1042.20 607.60
00006296 00000033 896.84 85.89 451.92 711.28 938.80 359.26 1077.40 360.89 910.88 466.55 940.61 610.45 1043.47 612.08
00006297 00000034 897.40 85.77 450.44 709.35 937.82 359.66 1077.31 365.46 909.60 467.37 940.24 606.77 1045.23 611.80
00006298 00000035 894.74 88.16 445.56 700.60 941.08 352.27 1075.71 364.64 906.02 461.57 935.05 596.99 1037.30 607.29
00006299 00000036 884.96 85.06 450.57 704.06 943.75 347.18 1071.33 363.08 897.29 453.56 931.09 590.33 1028.22 603.07
00006300 00000037 865.93 97.23 458.25 691.81 956.66 340.68 1062.77 359.37 882.81 441.74 915.69 586.45 996.91 601.04
00006301 00000038 860.85 76.80 449.43 721.38 955.01 321.95 1048.58 345.05 875.15 425.56 905.39 580.68 973.52 598.23
00006302 00000039 858.50 79.49 454.76 717.82 961.72 320.78 1049.65 347.99 876.40 426.60 910.47 579.06 973.95 599.36
00006303 DELETE   870.81 75.83 451.53 723.02 971.10 326.76 1054.35 355.95 887.49 432.53 924.48 579.98 983.63 601.66
00006304 00000041 876.30 91.42 454.36 701.35 976.28 334.75 1071.32 363.88 892.82 446.27 930.00 584.07 1004.01 606.95
00006305 00000042 887.09 86.27 459.00 708.93 975.54 338.86 1078.18 368.34 898.52 446.39 937.53 583.49 1017.22 606.53
00006306 00000043 883.29 94.49 461.41 701.73 976.79 344.21 1081.49 369.26 903.87 454.73 936.32 592.03 1017.16 612.23
00006307 00000044 883.96 95.04 460.59 702.96 975.03 346.33 1079.25 372.80 900.08 459.53 933.93 595.99 1014.00 617.12
00006308 00000045 881.60 98.92 461.73 699.60 972.71 351.42 1074.71 376.59 897.46 463.05 930.47 599.36 1008.50 619.37
00006309 00000046 879.90 104.33 458.47 696.38 969.11 354.57 1070.99 376.93 891.07 463.50 924.68 602.28 1003.95 619.84
00006310 00000047 866.95 99.11 467.70 704.54 964.07 348.28 1065.75 372.27 883.09 456.69 916.45 598.56 996.71 617.36
00006311 00000048 861.13 98.98 466.05 697.79 956.79 345.05 1061.84 368.13 879.21 450.00 906.80 594.19 986.73 612.57
00006312 00000049 856.11 99.80 470.20 691.31 956.29 342.63 1057.89 368.82 874.69 446.96 902.27 587.15 980.22 608.09
00006313 00000050 854.31 99.48 469.67 689.11 951.62 343.80 1054.47 369.50 868.73 445.94 897.38 585.34 977.55 605.89
00006314 00000051 854.65 88.27 462.76 710.14 940.11 341.89 1047.47 366.36 878.43 446.98 896.57 592.10 972.81 611.30
00006315 00000052 851.66 98.57 466.00 710.32 933.61 348.84 1046.03 373.11 878.95 460.89 894.65 603.90 973.21 623.14
00006316 00000053 857.92 97.02 455.60 714.07 929.96 363.09 1040.14 387.49 872.11 477.38 898.72 616.49 976.58 637.33
00006317 00000054 853.40 101.41 452.38 727.93 921.14 369.15 1031.27 392.42 864.92 489.09 892.97 630.78 970.71 650.55
00006318 00000055 838.56 113.10 463.32 731.44 923.36 377.63 1029.18 398.82 854.99 499.43 896.30 640.79 973.75 658.36
00006319 00000056 833.48 119.50 459.33 721.63 908.19 389.52 1012.21 406.68 840.38 507.60 888.56 648.23 967.65 661.55
00006320 00000057 830.05 115.29 452.19 727.16 895.11 388.63 999.99 411.32 836.46 511.13 875.82 643.76 956.14 661.89
00006321 00000058 820.52 128.44 455.80 703.14 893.13 393.24 1005.67 408.11 839.03 508.68 871.99 643.47 949.96 657.08
00006322 00000059 815.80 124.44 455.70 704.63 887.54 390.14 1003.55 405.22 833.76 506.43 862.38 642.60 943.98 656.67
00006323 00000060 811.86 117.42 459.38 702.24 884.42 384.44 1001.12 398.43 829.11 499.87 856.32 634.68 938.10 647.67
00006324 00000061 813.06 103.29 461.34 722.80 885.28 376.87 991.39 399.37 815.92 493.52 857.79 627.83 943.02 645.16
00006325 00000062 809.13 98.17 464.38 725.88 883.20 373.98 993.80 395.14 818.01 485.05 856.38 622.70 946.51 639.33
00006326 00000063 806.94 103.43 463.01 707.29 881.01 364.77 995.78 387.43 819.47 478.14 852.38 613.64 941.76 631.64
00006327 00000064 805.49 102.61 462.54 706.30 879.10 359.72 997.56 382.68 820.49 474.25 850.15 610.72 940.90 629.09
00006328 00000065 803.78 96.80 461.50 711.24 879.21 354.80 995.63 377.57 817.49 469.30 846.86 607.91 938.04 626.41
00006329 00000066 797.94 100.20 458.31 701.04 876.24 349.31 992.34 370.42 814.61 460.57 844.11 601.70 933.51 618.41
00006330 00000067 794.96 91.86 465.65 704.49 875.47 342.10 994.21 358.12 814.20 452.25 840.34 597.75 931.84 610.75
00006331 00000068 793.12 88.92 467.32 704.15 869.26 342.28 992.66 353.92 808.57 448.30 835.96 597.08 930.58 606.79
00006332 00000069 788.62 94.25 468.29 698.89 865.37 343.30 990.24 354.39 805.28 449.13 833.81 597.83 931.40 606.68
00006333 00000070 786.26 91.50 467.26 709.35 857.67 345.25 986.30 357.58 804.70 458.64 836.22 605.13 937.08 614.58
00006334 00000071 783.06 94.38 464.83 716.39 848.77 355.28 978.00 367.76 799.86 472.57 838.13 615.56 939.29 624.61
00006335 00000072 782.87 103.36 463.17 718.21 842.35 370.48 970.31 374.65 798.68 491.47 832.28 628.17 938.22 632.82
00006336 00000073 776.13 108.13 462.15 719.22 829.09 381.15 966.34 388.37 795.43 506.04 826.20 637.59 937.04 644.36
00006337 00000074 767.89 117.95 465.21 716.93 817.75 399.18 959.18 400.44 792.30 519.78 820.97 652.96 932.08 654.53
00006338 00000075 772.15 119.31 458.06 726.15 815.65 402.62 949.00 412.87 791.39 525.29 821.34 652.93 923.80 662.45
00006339 00000076 768.14 123.95 464.41 728.26 810.76 403.71 940.28 414.65 783.60 535.78 824.57 661.87 923.07 671.18
00006340 00000077 761.94 126.62 467.73 726.44 806.65 402.25 936.28 415.65 777.59 537.34 822.26 659.50 924.20 670.34
00006341 00000078 758.53 126.77 466.60 725.84 803.56 401.51 932.56 413.61 771.56 534.05 818.50 658.57 921.80 668.04
00006342 00000079 754.89 126.63 467.64 725.15 801.06 402.38 930.72 413.74 766.83 532.27 815.11 658.08 919.32 666.79
00006343 00000080 745.84 131.70 470.14 710.41 794.83 408.23 936.93 410.95 774.89 532.94 804.28 661.22 913.04 664.24
00006344 00000081 745.37 131.63 472.08 706.85 794.76 411.06 933.30 411.37 770.35 530.55 801.21 662.09 906.66 663.33
00006345 00000082 741.62 125.68 470.64 714.01 794.06 406.45 929.74 408.53 764.30 527.74 796.26 660.48 899.36 663.15
00006346 00000083 732.58 123.53 477.83 720.78 790.57 402.91 928.61 402.99 763.38 520.64 796.88 660.93 898.02 661.93
00006347 00000084 731.93 118.72 474.96 719.60 787.06 398.28 927.65 397.26 758.56 516.51 789.02 654.76 895.93 654.97
00006348 00000085 728.96 121.61 472.59 702.95 782.27 397.11 925.50 395.99 758.23 515.14 783.31 647.42 892.95 648.08
00006349 00000086 728.62 120.33 471.30 700.43 780.84 398.53 922.94 396.61 756.47 515.42 781.28 647.88 888.34 648.11
00006350 00000087 729.45 121.32 470.31 701.79 781.68 400.55 919.74 400.82 752.67 519.69 779.64 650.64 884.44 652.51
00006351 00000088 728.83 124.10 470.03 703.64 781.65 403.72 920.43 405.56 753.35 524.45 778.67 654.33 885.23 657.28
00006352 00000089 729.80 126.54 471.77 708.01 784.10 408.97 920.43 408.81 756.09 530.31 785.45 662.22 888.67 663.22
00006353 00000090 731.07 130.63 474.58 711.25 788.82 411.78 920.18 409.82 759.11 533.53 796.67 666.87 897.47 665.77
00006354 00000091 732.57 134.35 475.96 708.22 790.87 413.00 922.06 411.36 761.69 534.73 801.30 666.58 901.62 665.73
00006355 00000092 735.32 136.59 473.52 705.69 793.03 411.45 924.78 412.49 764.65 536.27 805.41 663.98 907.03 665.24
00006356 00000093 739.35 136.55 474.75 707.01 796.65 410.96 927.87 412.62 767.89 534.66 808.30 664.56 907.33 666.52
00006357 00000094 751.11 127.93 474.15 721.99 798.25 410.36 925.39 418.76 762.91 535.71 813.48 661.28 913.55 667.64
00006358 00000095 758.04 120.82 466.61 731.91 800.72 406.51 931.99 415.13 772.61 533.17 815.66 661.78 916.29 668.81
00006359 00000096 761.20 116.55 469.10 732.92 804.72 402.88 935.93 412.22 778.92 532.37 820.18 659.50 919.35 667.36
00006360 00000097 762.91 119.90 469.27 728.92 805.84 405.04 939.97 412.67 783.22 532.15 820.65 659.50 921.05 666.27
00006361 00000098 765.12 126.49 469.12 730.50 806.26 410.89 940.62 418.08 786.01 543.14 824.28 669.25 925.12 675.68
00006362 00000099 769.15 138.14 469.38 735.00 805.40 433.21 943.66 435.87 791.35 567.18 832.43 687.96 936.24 691.03
00006363 00000100 765.09 158.13 476.25 736.26 819.42 450.79 961.22 451.58 803.25 591.00 850.77 717.15 954.31 716.00
00006364 00000101 767.76 164.50 485.66 749.26 823.45 465.74 967.05 463.91 808.55 603.43 861.68 732.89 969.54 728.86
00006365 00000102 775.54 174.84 484.75 745.17 823.49 476.76 974.68 479.90 820.05 619.74 860.91 735.14 971.32 737.50
00006366 00000103 775.00 180.96 489.03 741.92 824.48 477.56 982.94 478.90 821.79 620.94 864.47 743.80 986.07 743.02
00006367 00000104 777.42 185.26 487.37 727.03 823.81 474.55 986.57 480.89 823.25 620.34 860.02 736.11 985.41 739.98
00006368 00000105 784.61 177.29 480.43 723.05 828.98 462.74 993.49 473.53 831.18 612.61 860.79 726.49 983.03 734.89
00006369 00000106 788.19 162.81 478.88 721.19 838.12 450.59 1001.05 460.47 838.41 593.42 862.11 708.39 982.87 716.55
00006370 00000107 798.41 155.76 472.93 706.87 854.16 434.21 1011.09 446.48 849.94 565.18 868.93 681.60 984.42 692.36
00006371 00000108 812.67 131.74 470.66 716.21 869.68 406.94 1017.39 417.74 857.66 532.70 875.55 663.03 983.38 673.26
00006372 00000109 830.70 118.69 466.69 710.90 880.28 390.05 1025.11 396.22 857.60 513.15 882.98 644.28 997.44 650.92
00006373 00000110 846.93 109.24 455.43 705.54 896.17 371.25 1037.26 376.49 863.46 486.66 885.47 621.10 1000.60 627.06
00006374 00000111 853.63 94.78 458.67 715.23 908.73 358.29 1043.76 359.34 868.82 469.70 896.05 609.79 1008.97 612.83
00006375 00000112 854.88 94.83 462.55 714.02 920.29 348.48 1052.22 354.15 873.29 453.26 907.79 605.61 1017.53 608.79
00006376 DELETE   857.66 95.90 464.23 706.76 924.51 343.30 1057.82 348.32 875.62 441.46 906.02 598.63 1014.25 601.72
00006377 00000114 858.07 91.73 464.87 689.36 928.41 342.47 1061.15 346.10 878.31 437.64 903.89 583.40 1010.49 586.13
00006378 00000115 869.05 72.23 450.02 697.70 918.47 333.07 1050.82 341.90 888.93 430.95 902.92 572.21 1003.28 579.46
00006379 00000116 872.41 68.42 450.61 692.81 920.08 333.24 1054.13 339.69 890.51 427.68 902.95 569.92 1003.00 575.33
00006380 00000117 872.84 69.26 449.91 689.51 919.75 331.63 1055.21 338.53 890.53 426.79 902.47 568.83 1003.86 574.52
00006381 00000118 870.41 69.66 453.11 693.75 917.94 335.28 1054.10 338.80 889.93 427.79 902.74 573.03 1003.77 575.98
00006382 00000119 861.14 94.27 464.62 682.56 931.76 348.03 1061.10 344.47 882.05 436.46 907.88 586.41 1006.60 583.51
00006383 00000120 858.90 98.11 465.75 699.02 925.79 353.53 1056.27 348.42 877.80 444.94 908.69 604.76 1010.46 599.81
00006384 00000121 857.19 100.38 465.18 703.97 919.40 353.85 1051.16 353.65 872.80 456.83 908.36 609.66 1014.30 608.30
00006385 00000122 851.74 101.18 464.37 704.36 910.79 361.29 1042.37 359.35 867.77 465.84 907.49 616.17 1013.02 613.25
00006386 00000123 848.61 101.47 460.94 703.63 904.65 363.08 1032.04 361.95 857.90 474.49 904.76 618.73 1007.39 616.00
00006387 00000124 845.36 99.70 452.73 705.63 886.69 370.76 1013.96 368.71 858.69 480.16 891.47 617.85 991.11 616.98
00006388 00000125 838.09 101.61 452.32 706.78 881.19 377.75 1005.81 374.83 848.93 485.90 888.30 620.95 985.14 619.30
00006389 00000126 830.14 102.91 454.88 706.97 875.95 379.11 1000.14 380.21 839.91 490.59 883.42 620.93 982.13 622.17
00006390 00000127 822.18 103.87 454.80 704.56 867.08 378.14 999.67 381.35 836.04 490.09 874.64 620.99 979.73 623.85
00006391 00000128 812.71 103.41 459.95 708.09 866.75 379.85 992.84 380.60 827.06 489.65 873.66 625.29 974.51 625.57
00006392 00000129 808.40 104.34 461.43 713.60 865.98 380.81 987.25 380.32 823.75 491.35 874.58 629.42 972.62 628.17
00006393 00000130 804.55 104.40 461.29 715.69 865.59 379.95 985.77 381.16 820.75 491.56 871.02 630.12 970.09 630.01
00006394 00000131 802.88 106.28 460.89 714.32 864.75 379.37 984.68 381.53 820.16 491.88 870.80 629.53 970.06 630.12
00006395 00000132 803.23 105.51 463.16 716.11 864.41 380.38 984.90 381.67 820.50 491.86 870.81 630.39 971.50 630.29
00006396 00000133 804.37 106.56 461.92 715.69 865.86 380.91 985.58 382.06 821.42 492.60 872.84 630.70 973.05 630.45
00006397 00000134 805.37 106.39 460.98 717.69 867.43 382.07 983.71 383.54 820.85 492.56 873.49 631.57 971.98 631.45
00006398 00000135 804.11 105.93 461.55 721.06 869.30 382.66 980.69 383.14 818.77 492.92 874.00 634.37 969.38 633.17
00006399 00000136 801.78 104.77 462.00 724.99 869.51 377.83 975.29 381.85 814.29 496.81 874.85 635.38 967.61 636.45
00006400 00000137 797.36 108.23 460.40 724.36 865.86 376.48 969.87 382.01 809.29 499.05 873.72 636.49 965.72 637.87
00006401 00000138 791.02 107.16 461.62 724.08 860.45 374.81 962.76 382.08 802.29 502.93 869.41 636.02 958.46 638.37
00006402 00000139 786.61 112.97 459.66 704.92 850.74 378.76 956.60 386.85 791.01 505.00 858.40 631.16 950.60 634.41
00006403 00000140 781.37 103.20 462.31 717.31 833.69 377.91 949.72 388.44 791.23 502.79 838.92 627.42 932.31 634.43
00006404 00000141 778.93 101.75 460.55 715.62 830.57 376.51 947.67 390.67 789.24 502.52 833.53 625.53 924.97 636.06
00006405 00000142 780.23 103.14 458.79 716.34 832.32 375.67 950.02 389.36 793.34 502.07 833.01 628.04 920.69 638.60
00006406 00000143 781.38 103.09 463.02 715.52 837.24 374.05 955.85 385.22 799.68 499.89 836.52 627.50 922.58 635.93
00006407 00000144 783.89 98.28 458.94 712.40 835.29 374.25 960.87 383.37 807.04 492.68 834.48 621.34 925.71 628.79
00006408 00000145 789.33 105.65 458.31 699.05 846.89 376.52 968.42 380.36 797.79 488.13 845.55 625.73 937.57 628.00
00006409 00000146 788.63 104.51 464.16 711.93 853.04 375.80 970.08 376.75 805.42 489.05 856.64 632.38 947.17 631.64
00006410 00000147 793.57 108.05 462.76 705.35 856.87 373.60 973.31 376.50 809.70 489.81 862.67 628.04 956.39 628.66
00006411 00000148 797.20 106.72 458.30 693.36 855.44 370.50 979.43 378.36 811.54 488.23 856.96 617.00 958.36 622.28
00006412 00000149 800.16 105.81 456.92 690.84 853.65 373.03 983.64 377.87 816.49 487.36 855.76 615.98 962.48 619.24
00006413 00000150 802.80 106.92 457.33 689.25 856.24 374.34 986.23 378.78 820.71 488.65 860.96 616.32 966.80 619.37
00006414 00000151 807.04 104.11 458.07 695.13 861.04 374.84 988.18 379.98 823.21 487.93 866.27 617.04 969.18 620.71
00006415 00000152 810.98 102.80 455.55 693.06 859.62 377.19 991.33 378.91 828.90 487.36 866.49 619.57 968.51 620.93
00006416 00000153 813.28 89.46 457.17 708.41 858.01 373.98 996.48 378.15 826.99 486.26 867.96 619.17 969.25 622.31
00006417 00000154 819.01 90.06 456.92 704.47 860.21 372.74 999.17 376.02 831.05 486.75 868.87 620.66 967.99 623.56
00006418 00000155 825.99 87.17 458.09 714.21 864.07 370.40 1002.34 374.37 835.20 486.97 873.66 622.22 973.90 625.81
00006419 00000156 832.59 93.69 454.54 714.49 878.58 369.87 1002.24 375.09 835.71 488.26 875.49 623.08 969.02 627.67
00006420 00000157 834.34 94.18 456.90 725.71 881.87 370.23 1003.01 369.20 842.51 487.40 881.81 633.89 970.62 633.20
00006421 00000158 836.19 96.08 454.03 719.13 882.74 374.27 1004.23 374.86 846.65 487.97 886.59 627.83 978.22 628.89
00006422 00000159 836.87 105.93 454.87 701.05 885.49 378.38 1013.78 373.32 839.76 490.04 890.69 635.51 982.82 630.07
00006423 00000160 841.04 107.03 452.63 700.19 888.35 380.54 1016.95 377.53 843.67 493.11 893.41 636.27 985.22 632.94
00006424 00000161 842.49 109.91 454.74 698.00 888.78 384.65 1018.37 382.20 845.28 497.67 892.69 638.11 986.67 635.31
00006425 00000162 843.64 111.03 454.34 700.30 892.31 388.09 1020.78 386.12 849.16 500.05 894.46 641.11 987.82 638.81
00006426 00000163 843.42 115.85 456.54 700.06 897.62 388.87 1021.83 388.65 851.51 504.75 897.78 643.54 989.86 642.12
00006427 00000164 842.39 117.56 462.06 707.65 895.55 391.67 1020.14 389.43 856.29 508.11 895.76 647.27 991.77 646.17
00006428 00000165 841.71 115.64 465.40 719.16 900.67 391.29 1021.91 390.07 858.08 507.62 899.12 649.27 992.60 648.48
00006429 00000166 842.86 119.09 463.89 715.22 901.45 392.93 1025.08 390.36 860.11 506.34 898.28 649.51 995.27 647.80
00006430 00000167 848.16 105.20 455.61 717.17 895.30 386.81 1017.09 392.48 860.14 501.92 894.38 635.24 986.96 640.74
00006431 00000168 846.42 100.22 453.81 701.42 893.71 376.75 1014.50 386.87 854.34 491.58 889.48 618.98 982.62 628.32
00006432 00000169 844.84 97.25 450.16 689.92 892.73 371.18 1012.40 377.70 853.91 481.15 888.29 611.06 978.50 617.56
