Video ID: 	AadHnRy2EdQ
H: 	1080
W: 	1920
FPS: 	25.0

FRAME INDEX X0 Y0 W H [Landmarks (5 Points)]

00009116 00000000 387.32 128.82 401.15 518.25 441.19 387.66 579.50 305.10 491.84 405.15 515.06 539.49 636.14 471.70
00009117 00000001 385.62 133.56 385.19 518.01 444.45 374.24 585.63 299.12 493.75 412.96 507.60 541.66 635.33 479.16
00009118 DELETE   389.93 133.09 384.65 516.49 449.96 373.92 593.74 298.34 506.98 414.33 513.53 540.88 644.51 478.27
00009119 00000003 390.94 133.39 394.06 516.58 445.40 388.66 606.30 302.19 520.92 407.58 530.64 550.58 669.46 478.40
00009120 00000004 388.71 140.18 394.99 499.01 449.45 389.40 606.58 298.68 534.78 405.21 537.62 544.86 669.66 470.07
00009121 00000005 385.17 138.01 392.91 500.74 457.55 377.43 602.97 296.44 535.57 410.53 533.38 536.70 662.64 469.01
00009122 00000006 381.14 137.84 397.60 502.70 456.78 379.55 603.05 299.33 538.20 414.08 534.89 537.45 664.12 470.25
00009123 00000007 377.46 142.22 403.11 508.63 455.22 381.91 602.44 301.38 538.96 417.37 537.30 545.25 664.95 477.47
00009124 00000008 370.61 153.17 405.25 520.61 452.48 392.45 596.09 306.57 543.54 423.55 540.61 554.36 668.50 482.88
00009125 00000009 364.96 154.65 410.78 527.34 449.63 397.65 594.33 309.63 545.50 428.65 541.66 559.22 673.45 485.67
00009126 00000010 363.55 154.42 412.97 528.92 448.22 399.29 595.51 310.17 546.94 430.55 541.18 559.89 676.65 485.11
00009127 00000011 362.63 154.73 415.48 528.24 448.97 399.45 596.24 308.56 549.33 430.38 542.18 559.15 677.99 482.80
00009128 00000012 360.69 156.21 418.01 529.24 450.51 402.01 597.84 311.29 553.72 432.83 544.14 560.86 680.30 484.56
00009129 00000013 360.66 160.30 417.45 530.03 453.07 406.76 600.10 315.34 558.34 435.84 545.25 565.08 681.68 488.56
00009130 00000014 361.20 164.98 417.33 529.59 454.68 410.57 601.43 324.53 560.94 449.23 545.14 570.58 681.33 498.39
00009131 00000015 361.74 170.04 414.65 530.61 455.93 416.11 601.35 331.56 561.62 460.49 546.39 577.03 682.12 506.16
00009132 00000016 364.07 169.77 411.21 530.11 457.33 414.85 604.44 331.56 564.19 462.13 545.66 577.41 682.79 507.37
00009133 00000017 365.81 168.89 411.28 529.38 459.09 411.82 606.16 329.69 565.42 460.17 545.33 574.06 682.97 505.05
00009134 00000018 370.30 166.10 406.92 527.36 462.80 415.34 608.24 337.76 567.68 453.19 547.09 571.18 681.60 506.29
00009135 00000019 374.78 162.34 410.36 534.65 467.52 409.39 625.55 337.46 571.91 449.10 555.41 569.97 697.73 509.26
00009136 00000020 375.64 161.02 411.71 535.59 470.35 405.97 628.82 331.94 577.76 446.49 560.34 569.89 702.96 507.37
00009137 00000021 377.36 157.28 408.56 540.64 469.69 397.93 630.39 326.01 580.60 448.14 560.45 568.55 706.31 507.84
00009138 00000022 377.30 156.33 409.62 542.96 469.61 396.94 632.77 323.38 582.58 448.59 561.04 569.65 709.27 507.54
00009139 00000023 377.32 154.61 409.81 548.33 469.73 394.94 633.75 322.96 584.02 450.26 561.28 571.31 710.60 510.72
00009140 00000024 380.12 152.23 406.57 550.67 470.72 393.67 635.46 322.09 585.84 451.01 561.90 571.38 712.48 511.15
00009141 00000025 382.21 155.07 404.25 550.32 472.08 393.43 636.34 324.09 586.56 452.89 562.52 573.15 711.20 515.13
00009142 00000026 383.18 154.86 404.29 555.85 473.82 396.73 638.49 327.63 588.36 457.75 563.13 577.63 712.13 519.93
00009143 00000027 385.65 156.15 402.20 558.67 476.43 397.79 640.79 329.70 592.80 461.57 564.38 580.00 713.80 523.18
00009144 00000028 389.21 156.18 399.23 557.74 479.29 398.64 642.04 331.48 594.16 461.96 566.24 580.54 713.80 524.46
00009145 00000029 391.99 152.14 397.53 560.81 481.85 399.70 644.25 332.09 596.71 462.31 567.41 580.15 715.35 523.62
00009146 00000030 393.62 149.42 398.03 561.39 484.08 398.65 647.67 331.38 598.97 462.48 568.76 578.46 717.09 522.08
00009147 00000031 396.72 149.84 396.12 558.27 486.91 396.54 648.43 329.86 601.02 460.60 570.79 576.32 717.38 520.30
00009148 00000032 398.21 149.81 394.68 555.71 489.08 397.43 649.75 331.13 603.09 460.10 572.00 575.11 717.99 519.23
00009149 00000033 399.16 148.85 395.04 554.88 490.93 398.07 651.27 331.76 605.07 461.04 573.28 574.39 718.69 518.50
00009150 00000034 399.76 146.99 395.23 553.84 491.35 396.30 652.72 330.55 605.88 460.91 572.59 572.14 719.80 516.59
00009151 00000035 401.02 143.53 394.67 553.46 492.69 394.88 652.66 328.47 605.47 460.63 573.57 569.84 719.63 513.73
00009152 00000036 401.53 143.66 393.85 550.96 493.77 392.51 652.52 327.69 606.46 458.28 574.34 567.65 718.69 512.86
00009153 00000037 400.50 142.67 395.81 550.88 492.58 390.54 651.88 325.17 604.61 456.84 573.81 566.07 719.68 510.63
00009154 00000038 400.18 141.13 395.77 552.25 491.79 390.03 651.37 323.91 604.10 455.43 573.24 565.72 719.89 509.63
00009155 00000039 399.73 141.19 395.69 553.64 491.02 389.46 649.23 323.35 603.03 455.46 572.95 565.45 719.29 509.32
00009156 00000040 399.00 141.26 396.69 553.74 489.75 389.99 649.38 323.02 601.81 456.07 572.61 566.79 719.38 509.96
00009157 00000041 399.30 141.57 396.91 552.64 490.26 390.35 649.59 324.18 601.78 457.42 571.86 565.71 719.47 509.49
00009158 00000042 399.57 140.63 396.85 551.43 490.84 390.32 649.71 323.60 602.13 458.05 573.03 565.47 719.43 508.75
00009159 00000043 399.69 139.84 396.36 551.90 491.02 389.50 648.76 324.21 601.71 457.72 572.31 564.19 718.12 508.72
00009160 00000044 399.29 138.24 396.84 552.53 490.42 388.23 648.96 323.57 601.22 456.77 571.03 563.65 717.08 508.79
00009161 00000045 400.23 137.97 394.83 552.11 491.94 387.85 649.03 324.69 602.39 456.18 571.92 562.79 715.67 509.22
00009162 00000046 400.73 134.42 395.65 560.81 492.95 386.32 650.18 322.86 604.60 455.65 575.76 567.64 716.58 513.94
00009163 00000047 400.74 129.64 394.66 565.20 492.61 384.47 650.15 322.26 604.58 454.05 574.30 566.57 715.94 513.87
00009164 00000048 402.99 124.87 393.53 563.90 491.91 380.06 649.71 320.52 601.82 450.81 569.34 559.03 714.75 508.70
00009165 00000049 403.30 122.57 394.31 557.45 492.80 375.55 649.97 317.07 601.21 446.45 570.35 551.84 716.52 502.48
00009166 00000050 404.73 121.61 395.11 555.58 493.49 373.11 652.90 316.10 601.57 444.39 569.01 550.28 716.80 502.00
00009167 00000051 405.81 120.75 392.31 561.90 496.19 372.47 653.35 318.03 603.81 446.21 570.99 552.29 716.26 506.11
00009168 00000052 409.50 122.12 386.06 563.97 497.88 373.45 656.91 319.87 607.39 450.03 570.00 553.23 719.75 507.35
00009169 00000053 411.72 122.91 385.07 562.83 499.62 375.97 659.92 323.39 608.69 453.42 570.39 554.56 720.25 509.53
00009170 00000054 409.04 124.80 386.89 561.85 500.06 377.59 661.86 326.03 610.51 456.03 568.79 554.58 720.49 510.61
00009171 00000055 409.27 126.06 385.43 561.72 500.86 378.67 663.28 327.17 612.97 457.22 569.74 556.16 721.25 512.20
00009172 00000056 409.85 127.21 383.15 560.39 501.51 378.21 663.25 327.71 613.57 457.19 569.08 555.19 720.26 512.14
00009173 00000057 409.16 125.14 382.93 560.21 501.25 377.75 662.73 327.30 613.32 456.96 568.20 552.88 720.69 509.83
00009174 00000058 409.31 125.69 382.27 557.37 505.62 381.92 665.00 334.54 613.56 452.83 568.05 549.98 718.76 510.60
00009175 00000059 412.94 127.17 377.21 554.16 512.43 382.52 670.43 338.10 620.07 452.31 570.43 549.61 719.36 512.77
00009176 00000060 414.52 128.81 375.27 557.29 512.10 381.02 675.19 332.04 627.07 455.81 571.68 552.62 727.50 511.53
00009177 00000061 413.06 130.70 374.16 558.52 514.31 381.59 680.48 330.67 638.52 459.74 575.55 557.33 731.05 514.15
00009178 00000062 408.23 137.71 375.46 559.09 516.22 381.76 684.17 330.31 646.75 464.38 578.57 563.50 734.51 519.50
00009179 00000063 399.37 145.63 380.15 562.46 513.72 384.46 683.65 334.22 648.04 469.83 575.29 568.34 732.57 525.21
00009180 00000064 399.12 150.03 374.83 560.74 509.94 392.30 678.89 340.32 644.59 474.39 573.36 572.85 728.88 528.56
00009181 00000065 395.45 154.99 372.51 559.61 505.91 401.92 670.71 344.49 641.62 480.24 575.94 580.41 725.65 532.17
00009182 00000066 389.67 162.78 379.11 552.15 501.85 421.77 657.54 341.79 641.76 487.66 567.01 594.91 713.29 529.78
00009183 00000067 392.35 181.58 374.60 544.87 501.17 420.07 657.33 357.50 636.32 497.11 579.25 603.39 725.84 550.90
00009184 00000068 388.40 186.97 377.73 542.46 499.11 433.15 657.46 366.00 633.87 509.76 580.07 611.76 728.89 555.10
00009185 00000069 386.25 188.98 376.53 542.16 499.65 437.88 657.29 371.96 635.99 514.23 579.22 614.66 725.53 559.30
00009186 00000070 383.66 188.81 372.34 544.09 498.94 447.40 657.71 362.58 642.87 523.97 565.36 623.38 706.72 554.38
00009187 00000071 381.89 191.43 372.39 541.85 494.39 447.30 651.97 375.22 630.73 520.20 573.21 618.43 720.12 557.79
00009188 00000072 375.66 194.03 376.38 527.97 489.40 456.67 643.59 363.28 630.71 521.89 566.63 624.59 700.78 547.54
00009189 00000073 369.21 190.88 369.94 510.41 485.67 452.73 638.63 361.85 625.69 521.07 574.45 625.02 688.34 549.64
00009190 00000074 360.36 202.56 372.53 512.41 478.94 465.87 627.45 376.26 615.53 523.39 576.63 637.01 687.32 562.38
00009191 00000075 348.29 211.96 378.87 526.13 464.96 476.43 612.96 386.04 601.14 530.10 559.54 642.29 683.00 566.77
00009192 00000076 335.45 219.86 384.81 519.85 453.18 478.03 606.12 386.80 591.38 544.55 557.99 646.94 680.62 569.54
00009193 00000077 323.88 222.35 389.65 529.60 442.25 482.97 593.79 391.26 581.92 543.88 544.18 649.80 672.12 572.69
00009194 00000078 311.20 235.62 388.95 521.65 426.06 490.89 577.51 400.74 566.32 545.47 532.61 653.14 660.88 579.42
00009195 00000079 302.88 241.13 381.94 523.49 416.71 495.51 569.25 406.31 556.20 551.56 517.62 655.75 652.29 583.35
00009196 00000080 293.32 248.48 382.73 520.86 408.02 502.04 558.66 413.24 542.31 561.73 503.05 659.65 636.15 588.40
00009197 00000081 282.19 244.13 390.23 530.23 400.50 514.49 552.62 408.96 548.38 569.45 481.50 667.95 623.22 581.78
00009198 00000082 268.16 245.62 397.89 530.64 393.17 516.21 544.36 415.28 539.49 573.01 472.36 666.76 614.79 584.12
00009199 00000083 255.52 249.55 402.62 525.76 384.60 515.64 538.89 417.65 531.93 574.55 466.83 668.33 607.73 587.71
00009200 00000084 248.60 252.57 403.10 521.08 378.04 519.90 532.55 419.58 525.29 580.10 463.75 673.78 602.40 591.09
00009201 00000085 250.70 257.54 385.53 499.63 373.71 507.87 523.40 424.06 513.75 572.39 462.68 659.53 588.12 590.99
00009202 00000086 248.30 254.99 386.34 499.52 366.65 510.22 517.27 422.40 505.24 568.29 459.63 660.37 587.73 588.56
00009203 00000087 245.42 253.66 387.05 500.12 361.96 506.95 513.41 419.59 499.58 563.88 458.34 658.50 588.35 586.66
00009204 00000088 240.41 253.96 389.61 500.16 356.61 503.91 507.79 414.87 493.05 559.65 456.63 657.12 586.61 583.97
00009205 00000089 234.30 253.79 399.75 499.87 352.24 502.90 502.65 408.40 489.00 553.03 459.51 656.02 588.01 578.51
00009206 DELETE   232.56 235.90 403.31 513.96 355.98 503.80 502.19 409.91 490.92 550.17 455.81 648.87 584.98 572.00
00009207 DELETE   232.10 223.83 405.87 523.59 355.05 497.79 500.13 398.06 490.47 542.45 458.64 646.46 585.94 564.54
00009208 DELETE   232.05 213.94 412.27 527.88 356.66 488.47 502.72 387.68 490.72 534.38 462.78 640.47 590.24 556.53
00009209 00000093 237.90 201.00 414.01 537.36 361.04 476.38 511.54 378.61 495.35 529.14 463.10 635.92 597.79 553.68
00009210 00000094 245.46 188.82 412.17 541.93 369.52 464.12 525.33 368.82 505.30 522.40 470.05 627.13 610.00 546.27
00009211 00000095 256.99 181.99 409.58 540.95 379.42 451.63 534.57 359.04 516.39 510.09 477.89 613.82 619.79 534.76
00009212 00000096 274.33 171.45 405.75 544.80 389.95 441.65 543.05 347.45 523.70 494.65 490.50 608.87 625.29 529.37
00009213 DELETE   289.31 165.08 404.32 543.25 400.81 432.07 554.77 336.72 536.57 489.62 495.65 601.41 633.26 521.40
00009214 DELETE   303.04 153.89 403.54 554.31 416.44 416.26 571.29 329.12 551.71 474.12 521.71 589.26 660.63 517.11
00009215 00000099 320.55 142.95 398.24 555.31 433.55 404.83 590.82 322.77 566.61 469.23 529.76 581.13 669.74 511.45
00009216 00000100 344.24 136.80 393.20 562.42 452.97 396.57 609.69 312.30 584.76 459.23 543.32 578.53 683.24 507.37
00009217 00000101 358.75 131.22 386.27 560.45 464.91 393.02 619.90 308.89 595.93 453.84 551.33 573.16 688.23 501.94
00009218 00000102 363.23 124.98 392.84 565.27 472.88 388.72 629.99 304.96 608.41 454.87 552.10 566.33 694.41 495.86
00009219 00000103 368.34 122.07 395.82 565.27 478.81 384.95 636.69 300.97 616.94 449.94 555.53 561.38 699.64 491.41
00009220 00000104 386.10 117.62 380.47 554.27 493.42 369.94 645.05 303.19 619.51 440.63 574.84 546.31 719.11 489.88
00009221 00000105 388.87 115.97 386.96 551.93 498.98 365.10 654.03 300.06 630.36 435.37 581.56 543.58 728.25 488.50
00009222 00000106 392.48 112.42 390.73 555.14 502.07 361.34 660.05 294.98 635.26 429.84 585.82 543.91 734.61 487.52
00009223 00000107 397.60 111.13 389.11 556.48 505.42 356.94 665.36 293.01 637.17 429.38 586.66 541.61 737.50 487.16
00009224 00000108 401.81 107.05 387.80 563.19 507.61 353.96 666.76 291.95 638.77 429.08 587.69 540.32 739.38 487.48
00009225 00000109 402.50 103.26 390.18 567.08 511.57 352.00 671.22 291.67 642.19 427.37 589.67 538.38 740.83 487.10
00009226 00000110 404.70 101.69 390.08 567.72 515.48 348.12 674.43 290.75 645.34 423.63 590.83 534.02 741.17 484.95
00009227 00000111 407.67 95.38 390.11 575.53 518.73 345.62 678.27 288.47 648.67 420.63 594.50 533.70 743.68 484.75
00009228 00000112 416.23 94.45 383.58 576.41 522.50 342.17 681.13 284.84 651.85 415.23 596.07 532.71 743.70 483.87
00009229 00000113 417.05 92.44 386.22 577.74 526.22 336.86 686.42 281.48 656.05 411.76 597.37 529.28 746.05 481.76
00009230 00000114 421.13 90.13 383.87 577.83 529.50 332.29 690.63 278.51 659.91 409.57 598.32 526.13 746.68 479.96
00009231 00000115 424.41 89.88 384.47 576.50 532.10 329.23 694.54 274.84 663.16 406.53 598.91 524.39 748.27 477.85
00009232 00000116 428.34 89.72 383.18 575.44 534.18 327.80 696.98 271.92 665.52 402.30 599.27 522.31 749.87 474.70
00009233 00000117 432.29 87.41 381.45 575.32 536.68 328.06 699.77 271.24 667.56 400.13 599.83 520.46 753.04 472.09
00009234 00000118 436.01 87.12 380.28 573.14 540.61 327.87 703.18 272.65 671.05 400.80 601.10 518.39 754.80 471.50
00009235 00000119 436.59 86.77 381.30 573.35 543.19 328.83 705.30 274.08 673.82 401.42 603.43 519.21 755.69 472.65
00009236 00000120 439.73 89.52 379.13 570.56 546.57 330.35 707.85 277.52 675.49 404.92 605.98 520.30 755.31 475.61
00009237 00000121 441.55 90.76 379.79 570.27 549.23 331.17 710.37 279.35 677.50 406.51 608.75 521.26 756.98 477.49
00009238 00000122 443.56 90.51 380.27 570.54 551.37 330.90 712.42 279.31 679.76 405.81 611.19 521.36 758.24 478.03
00009239 00000123 445.55 90.21 380.09 570.92 552.13 330.46 714.01 278.20 681.36 403.27 612.10 521.14 760.72 477.13
00009240 00000124 443.59 89.24 382.01 574.11 551.41 330.50 713.64 279.84 680.11 403.62 611.11 522.14 758.94 479.21
00009241 00000125 443.94 92.60 380.48 575.94 555.93 340.04 715.92 296.81 679.64 412.23 607.49 523.42 756.17 487.15
00009242 00000126 449.19 104.64 372.85 564.09 560.84 351.49 719.32 313.53 680.78 422.35 609.25 529.61 756.47 498.12
00009243 00000127 453.65 118.54 369.38 552.55 566.05 366.54 721.71 324.74 683.99 437.86 613.36 541.53 754.70 507.30
00009244 00000128 466.84 131.73 357.88 552.06 576.50 380.10 735.27 338.27 695.44 454.63 615.40 553.42 760.46 520.12
00009245 DELETE   482.63 144.83 353.88 550.16 589.47 385.27 755.79 352.78 714.56 466.46 622.58 561.55 776.73 535.51
00009246 DELETE   481.62 161.12 360.41 551.42 608.73 391.22 767.58 363.21 730.91 478.91 629.07 565.47 782.01 544.24
00009247 DELETE   495.96 163.43 351.14 553.40 615.93 384.84 786.16 361.17 740.32 496.79 638.86 573.49 791.28 555.61
00009248 00000132 509.43 177.79 345.40 540.92 626.76 386.98 797.87 366.89 749.68 513.31 649.81 583.92 794.96 569.28
00009249 00000133 511.89 185.00 346.88 537.74 635.71 387.82 804.75 369.12 761.81 518.96 658.80 588.75 797.44 575.72
00009250 00000134 507.68 191.89 359.53 535.21 641.84 399.41 811.54 374.93 770.76 531.29 667.93 594.74 808.63 576.73
00009251 00000135 513.19 199.91 357.28 532.52 647.55 408.77 817.21 383.42 776.93 539.81 665.42 598.83 810.16 581.33
00009252 00000136 520.72 208.55 355.04 525.96 651.67 415.71 822.66 388.91 781.24 545.12 672.03 603.64 816.59 584.63
00009253 00000137 518.07 211.18 364.03 531.68 654.07 423.64 818.59 391.67 785.95 548.18 673.75 609.27 816.76 585.71
00009254 00000138 516.42 211.67 368.79 530.35 655.33 423.95 820.89 391.16 787.70 548.09 675.92 609.38 819.52 584.92
00009255 00000139 527.93 211.56 357.76 522.60 657.69 418.81 826.47 390.22 786.08 545.51 678.62 603.39 825.06 582.98
00009256 00000140 526.69 202.82 360.34 528.10 656.19 414.18 826.81 385.97 784.75 542.30 676.61 599.94 826.36 580.01
00009257 00000141 523.73 195.88 362.12 532.12 655.10 409.77 824.84 382.30 783.04 537.33 675.44 595.99 824.45 576.67
00009258 00000142 518.68 190.34 364.54 535.16 651.89 401.26 821.97 375.71 781.36 532.51 671.64 592.41 819.07 574.81
00009259 00000143 515.23 183.29 364.84 537.13 649.24 393.29 818.03 369.04 779.77 524.83 669.97 587.14 814.83 570.50
00009260 00000144 511.28 177.12 366.69 540.30 645.34 387.56 814.72 361.19 779.38 512.71 667.24 583.15 812.25 564.40
00009261 00000145 519.07 165.53 359.63 544.31 638.25 377.54 807.93 353.85 766.97 497.59 666.07 573.34 812.06 555.36
00009262 00000146 513.50 157.46 364.76 549.71 636.37 366.67 806.02 346.69 761.70 488.38 664.96 566.02 810.30 549.76
00009263 00000147 510.32 150.45 368.08 554.60 633.82 358.95 804.24 340.55 757.63 482.21 664.12 561.98 808.30 546.37
00009264 00000148 507.66 143.87 365.23 555.40 632.29 354.56 800.29 337.55 755.80 474.76 662.04 558.13 801.88 543.69
00009265 00000149 505.04 142.48 364.12 553.06 630.41 350.07 797.22 333.20 754.91 466.65 661.22 553.55 799.09 539.27
00009266 00000150 501.79 141.96 367.47 553.50 628.00 345.76 794.19 328.94 750.68 459.33 658.96 549.63 797.30 535.04
00009267 00000151 498.50 137.13 368.59 557.11 625.55 340.34 791.19 325.17 746.80 452.39 657.49 545.82 794.51 532.31
00009268 00000152 497.50 130.42 366.40 559.92 623.35 335.58 790.25 320.61 746.06 447.63 657.47 543.08 793.08 529.77
00009269 00000153 495.74 118.05 362.18 575.62 615.55 336.07 786.86 319.88 744.38 447.71 654.32 545.46 796.09 531.98
00009270 00000154 495.13 117.73 361.10 572.99 614.15 337.18 783.93 319.34 742.39 443.76 657.68 546.84 794.99 531.91
00009271 00000155 494.30 116.19 362.57 567.55 610.93 335.31 786.18 318.78 739.03 442.76 654.58 542.07 797.58 527.89
00009272 00000156 493.26 111.57 364.25 570.46 608.61 330.92 785.82 316.57 734.45 436.89 647.66 537.48 795.71 525.21
00009273 00000157 494.55 108.12 361.89 571.75 607.96 325.89 783.86 313.79 732.38 428.44 644.85 534.08 791.94 523.80
00009274 00000158 493.79 108.15 360.89 568.28 609.16 321.76 780.66 312.59 728.15 420.94 646.31 529.93 785.89 522.07
00009275 00000159 493.84 104.84 361.82 565.98 608.00 317.60 781.69 309.77 724.83 416.67 644.29 524.19 786.98 517.37
00009276 00000160 491.64 103.98 364.60 563.02 606.68 313.01 781.12 307.63 722.17 413.39 641.20 519.50 784.16 514.66
00009277 00000161 490.54 102.01 366.22 565.54 606.41 310.50 780.78 307.01 721.53 412.95 639.00 520.05 781.33 516.93
00009278 00000162 490.29 101.30 367.63 569.90 606.56 314.68 781.33 311.60 720.28 414.38 638.65 523.48 779.70 520.72
00009279 00000163 491.08 105.52 369.61 569.99 607.56 320.25 783.57 317.28 721.69 420.11 637.11 528.80 778.90 526.52
00009280 00000164 492.00 109.05 370.29 570.72 609.04 324.52 787.96 322.08 725.90 430.39 634.26 531.52 782.65 529.79
00009281 00000165 493.75 111.53 372.88 571.39 611.19 329.01 794.12 327.87 727.99 435.70 635.36 534.34 786.59 533.72
00009282 00000166 498.59 112.08 368.91 571.96 612.83 330.86 798.10 328.71 730.53 438.48 636.04 535.46 791.24 533.99
00009283 00000167 500.68 112.28 369.12 569.68 614.21 329.61 800.49 327.03 732.77 437.32 638.03 533.34 796.48 531.40
00009284 00000168 501.54 109.17 369.78 569.36 616.74 329.38 801.18 326.25 735.33 433.29 641.91 531.93 797.18 529.58
00009285 00000169 501.07 108.89 369.89 566.44 617.94 328.61 802.66 324.47 739.17 430.78 645.74 530.71 801.06 527.27
00009286 00000170 502.26 108.16 368.37 566.16 619.52 327.23 803.87 323.07 740.71 429.32 647.22 529.69 801.63 526.15
