Video ID: 	zdAfW7Dv99o
H: 	1080
W: 	1920
FPS: 	29.97002997002997

FRAME INDEX X0 Y0 W H [Landmarks (5 Points)]

00004598 00000000 471.60 59.99 282.89 394.46
00004599 00000001 468.53 60.72 282.39 393.43
00004600 00000002 465.46 61.45 281.89 392.40
00004601 00000003 462.39 62.17 281.40 391.37
00004602 00000004 459.34 62.90 280.90 390.35
00004603 00000005 458.08 62.48 280.61 389.93
00004604 00000006 456.82 62.06 280.32 389.50
00004605 00000007 455.56 61.65 280.04 389.08
00004606 00000008 454.30 61.23 279.75 388.66
00004607 00000009 453.04 60.81 279.46 388.23
00004608 00000010 451.79 60.40 279.18 387.82
00004609 00000011 450.96 60.10 279.13 388.05
00004610 00000012 450.14 59.80 279.09 388.28
00004611 00000013 449.32 59.50 279.05 388.52
00004612 00000014 448.50 59.20 279.01 388.75
00004613 00000015 447.68 58.90 278.97 388.98
00004614 00000016 446.86 58.62 278.93 389.19
00004615 00000017 446.18 59.67 278.75 388.26
00004616 00000018 445.49 60.73 278.58 387.32
00004617 00000019 444.81 61.78 278.40 386.38
00004618 00000020 444.12 62.83 278.22 385.44
00004619 00000021 443.44 63.88 278.05 384.51
00004620 00000022 442.74 64.89 277.87 383.59
00004621 00000023 441.65 64.01 277.51 383.72
00004622 00000024 440.56 63.14 277.14 383.84
00004623 DELETE   439.46 62.27 276.78 383.96
00004624 00000026 438.37 61.40 276.42 384.08
00004625 00000027 437.27 60.52 276.06 384.20
00004626 00000028 436.17 59.66 275.70 384.33
00004627 00000029 434.91 59.03 275.35 384.60
00004628 00000030 433.64 58.40 275.00 384.87
00004629 00000031 432.38 57.77 274.65 385.15
00004630 00000032 431.11 57.14 274.30 385.42
00004631 00000033 429.84 56.51 273.96 385.69
00004632 00000034 428.58 55.87 273.61 385.97
00004633 00000035 427.46 54.90 273.32 386.42
00004634 00000036 426.34 53.92 273.03 386.87
00004635 00000037 425.21 52.95 272.74 387.32
00004636 00000038 424.09 51.97 272.45 387.77
00004637 00000039 422.97 51.00 272.16 388.22
00004638 00000040 421.87 50.05 271.88 388.69
00004639 00000041 421.40 49.74 271.77 389.53
00004640 00000042 420.93 49.44 271.65 390.37
00004641 00000043 420.46 49.13 271.53 391.21
00004642 00000044 419.99 48.82 271.42 392.05
00004643 00000045 419.52 48.51 271.30 392.88
00004644 00000046 419.05 48.17 271.18 393.72
00004645 00000047 418.77 47.34 271.12 394.60
00004646 00000048 418.48 46.51 271.05 395.48
00004647 00000049 418.19 45.67 270.99 396.35
00004648 00000050 417.91 44.84 270.93 397.23
00004649 00000051 417.62 44.01 270.86 398.10
00004650 00000052 417.41 43.15 270.80 398.94
00004651 00000053 418.56 41.93 270.71 399.13
00004652 00000054 419.71 40.72 270.62 399.32
00004653 00000055 420.85 39.50 270.53 399.50
00004654 00000056 422.00 38.28 270.44 399.69
00004655 00000057 423.15 37.06 270.36 399.88
00004656 00000058 424.34 35.96 270.28 400.01
00004657 00000059 426.19 36.64 270.36 399.39
00004658 00000060 428.04 37.32 270.44 398.77
00004659 00000061 429.90 38.01 270.52 398.14
00004660 00000062 431.75 38.69 270.60 397.52
00004661 00000063 433.60 39.37 270.68 396.90
00004662 00000064 435.36 40.03 270.76 396.30
00004663 00000065 435.75 40.35 270.83 396.00
00004664 00000066 436.14 40.67 270.90 395.71
00004665 00000067 436.53 40.99 270.96 395.42
00004666 00000068 436.92 41.31 271.03 395.13
00004667 00000069 437.31 41.63 271.09 394.84
00004668 00000070 437.70 41.95 271.16 394.56
00004669 00000071 437.99 42.34 271.16 394.39
00004670 00000072 438.28 42.73 271.16 394.23
00004671 00000073 438.56 43.12 271.15 394.07
00004672 00000074 438.85 43.51 271.15 393.91
00004673 00000075 439.14 43.90 271.15 393.74
00004674 00000076 439.42 44.30 271.17 393.59
00004675 00000077 439.64 44.94 271.32 393.55
00004676 00000078 439.86 45.57 271.47 393.51
00004677 DELETE   440.07 46.20 271.62 393.47
00004678 DELETE   440.29 46.83 271.77 393.42
00004679 00000081 440.51 47.46 271.92 393.38
00004680 DELETE   440.63 47.93 272.07 393.32
00004681 00000083 439.77 46.68 272.20 393.05
00004682 00000084 438.91 45.44 272.32 392.78
00004683 DELETE   438.04 44.19 272.45 392.51
00004684 00000086 437.18 42.94 272.58 392.24
00004685 00000087 436.32 41.69 272.71 391.97
00004686 00000088 435.62 40.52 272.83 391.67
00004687 DELETE   436.56 40.08 272.86 391.04
00004688 00000090 437.51 39.65 272.88 390.41
00004689 00000091 438.46 39.21 272.90 389.79
00004690 00000092 439.40 38.78 272.93 389.16
00004691 00000093 440.35 38.34 272.95 388.53
00004692 00000094 441.26 38.03 272.98 387.96
00004693 00000095 441.77 38.84 273.04 387.91
00004694 00000096 442.29 39.65 273.11 387.86
00004695 00000097 442.80 40.47 273.17 387.82
00004696 DELETE   443.32 41.28 273.23 387.77
00004697 DELETE   443.83 42.10 273.30 387.73
00004698 00000100 444.48 42.89 273.34 387.67
00004699 00000101 446.30 43.50 273.23 387.52
00004700 00000102 448.11 44.11 273.11 387.38
00004701 00000103 449.93 44.71 273.00 387.23
00004702 00000104 451.74 45.32 272.88 387.09
00004703 00000105 453.56 45.93 272.76 386.94
00004704 00000106 455.17 46.46 272.66 386.81
00004705 00000107 455.05 46.37 272.64 386.80
00004706 00000108 454.93 46.27 272.62 386.78
00004707 00000109 454.81 46.17 272.60 386.77
00004708 00000110 454.70 46.07 272.58 386.76
00004709 00000111 454.58 45.97 272.56 386.75
00004710 DELETE   454.51 45.92 272.53 386.75
00004711 00000113 454.83 46.17 272.45 386.87
00004712 00000114 455.14 46.43 272.37 386.99
00004713 00000115 455.46 46.69 272.30 387.11
00004714 00000116 455.77 46.94 272.22 387.23
00004715 00000117 456.09 47.20 272.14 387.35
00004716 00000118 456.36 47.42 272.07 387.44
00004717 00000119 456.34 47.34 272.09 387.34
00004718 00000120 456.31 47.26 272.10 387.23
00004719 00000121 456.28 47.18 272.12 387.12
00004720 00000122 456.26 47.10 272.13 387.02
CROP_BBOX: 585 0 1563 910
