Video ID: 	A1e0Ya0ZQJ8
H: 	2160
W: 	3840
FPS: 	23.976023976023978

FRAME INDEX X0 Y0 W H [Landmarks (5 Points)]

00002344 00000000 1743.46 219.98 837.75 1310.32 1806.03 749.76 2058.31 701.79 1810.09 956.15 1876.03 1223.88 2056.01 1186.43
00002345 00000001 1741.42 215.12 834.09 1305.29 1802.90 747.92 2070.52 700.06 1827.38 958.88 1883.52 1215.96 2073.84 1178.90
00002346 DELETE   1746.01 216.26 831.61 1317.83 1811.58 751.55 2095.17 697.19 1850.51 957.70 1891.47 1220.09 2099.74 1177.08
00002347 DELETE   1749.27 209.48 840.07 1311.79 1820.78 750.35 2125.75 697.48 1871.71 955.57 1902.31 1217.10 2123.67 1174.67
00002348 00000004 1743.63 232.11 859.64 1274.64 1834.20 740.07 2157.97 693.22 1898.93 939.62 1918.26 1207.94 2152.75 1169.22
00002349 00000005 1744.55 211.54 854.93 1294.87 1819.75 713.15 2146.32 672.86 1884.60 936.14 1893.21 1185.95 2140.60 1152.39
00002350 00000006 1745.35 208.04 847.87 1287.26 1813.59 709.30 2129.39 666.67 1868.04 927.62 1884.88 1180.49 2121.30 1146.24
00002351 00000007 1749.17 204.56 838.13 1284.57 1812.28 705.40 2121.71 664.61 1859.46 923.04 1878.22 1177.89 2106.09 1146.08
00002352 00000008 1754.14 199.37 834.49 1287.57 1819.26 699.08 2129.95 663.80 1866.66 923.27 1884.05 1177.59 2107.33 1150.03
00002353 00000009 1761.79 220.93 854.62 1255.50 1848.06 704.66 2157.68 672.59 1895.48 915.03 1910.69 1172.80 2131.00 1147.10
00002354 00000010 1772.44 218.87 851.66 1250.03 1858.83 698.91 2166.49 668.90 1913.82 911.62 1925.65 1166.46 2142.34 1142.78
00002355 00000011 1784.07 210.07 846.68 1251.41 1868.41 691.85 2175.52 663.83 1918.56 906.85 1928.30 1158.11 2144.89 1137.15
00002356 00000012 1791.57 200.61 847.69 1257.67 1875.15 682.43 2179.73 658.48 1915.76 900.31 1924.76 1149.64 2145.14 1132.95
00002357 00000013 1798.96 201.45 845.19 1236.97 1879.89 677.47 2182.23 649.56 1916.67 896.57 1931.47 1146.27 2151.11 1126.17
00002358 00000014 1809.69 188.36 841.23 1250.68 1882.82 676.74 2186.38 642.94 1920.59 892.16 1937.00 1146.58 2158.03 1121.96
00002359 00000015 1812.37 185.60 841.80 1258.19 1884.87 673.56 2190.89 639.54 1919.34 884.69 1935.00 1145.84 2153.90 1121.52
00002360 00000016 1813.13 188.76 842.02 1268.48 1886.39 675.15 2188.84 640.19 1917.66 880.73 1930.28 1146.92 2148.51 1122.69
00002361 00000017 1810.01 191.74 839.91 1273.70 1886.28 672.54 2189.35 642.61 1919.59 884.32 1928.25 1146.83 2147.03 1126.73
00002362 00000018 1809.97 196.88 841.79 1277.85 1884.17 676.64 2186.07 646.08 1918.43 891.43 1930.46 1153.27 2150.20 1132.34
00002363 00000019 1801.49 203.76 851.39 1279.84 1883.02 681.54 2188.26 646.19 1919.53 892.68 1933.88 1159.66 2157.77 1134.21
00002364 00000020 1797.25 204.67 851.20 1281.53 1880.59 679.77 2188.13 647.05 1922.76 897.78 1935.76 1161.17 2160.66 1137.57
00002365 00000021 1791.25 208.25 858.30 1271.76 1877.03 683.94 2186.36 650.78 1922.34 900.17 1934.71 1159.28 2160.60 1135.10
00002366 00000022 1788.44 205.08 855.07 1272.04 1874.47 681.86 2180.82 652.90 1918.26 899.62 1928.16 1157.29 2148.23 1136.49
00002367 00000023 1789.09 201.41 853.17 1276.45 1875.65 676.24 2179.01 652.91 1912.83 894.78 1922.94 1152.69 2141.20 1136.41
00002368 00000024 1788.86 196.86 856.73 1276.39 1874.99 674.79 2180.26 648.64 1913.03 891.98 1923.54 1151.90 2142.87 1133.38
00002369 00000025 1794.51 202.09 853.29 1264.05 1877.95 674.03 2187.16 642.34 1917.17 888.68 1928.12 1151.70 2148.88 1129.26
00002370 00000026 1807.14 191.56 843.53 1265.80 1883.06 670.67 2188.18 637.29 1919.37 886.76 1934.88 1149.16 2152.97 1125.55
00002371 00000027 1811.93 188.03 842.86 1241.69 1884.03 673.24 2190.68 634.70 1920.06 885.25 1939.80 1146.24 2161.10 1118.25
00002372 00000028 1813.31 185.68 845.38 1240.74 1888.21 673.18 2196.36 635.14 1925.37 880.85 1942.41 1138.77 2171.41 1111.12
00002373 00000029 1816.05 187.00 842.91 1247.87 1889.08 672.75 2195.56 635.34 1922.81 879.83 1940.30 1140.86 2168.89 1114.07
00002374 00000030 1814.10 187.86 847.89 1273.51 1890.97 674.46 2195.78 634.47 1925.26 880.30 1942.21 1150.92 2162.66 1122.00
00002375 00000031 1818.81 189.44 842.56 1257.55 1891.67 674.95 2196.40 639.67 1925.10 886.09 1943.49 1141.21 2176.85 1115.84
00002376 00000032 1817.70 191.09 842.74 1259.83 1888.20 676.82 2194.82 641.05 1923.88 888.39 1938.84 1143.92 2172.97 1118.33
00002377 00000033 1812.21 191.79 845.99 1267.40 1891.26 678.18 2195.10 642.21 1927.11 887.49 1942.82 1145.46 2169.20 1119.75
00002378 00000034 1806.58 195.25 846.60 1273.36 1889.45 677.73 2195.66 644.15 1933.35 892.46 1943.25 1152.38 2164.68 1128.49
00002379 00000035 1809.49 198.25 851.00 1268.18 1888.54 682.41 2195.40 648.45 1933.89 898.19 1939.79 1159.05 2162.83 1135.26
00002380 00000036 1807.50 202.59 853.59 1266.16 1888.39 686.21 2195.21 652.85 1933.22 902.23 1938.38 1162.54 2163.83 1139.08
00002381 00000037 1806.42 205.66 860.58 1262.57 1885.62 690.93 2196.97 657.08 1930.80 905.18 1933.86 1164.68 2166.00 1140.94
00002382 00000038 1803.47 208.38 859.21 1255.18 1882.76 691.34 2197.61 657.61 1932.15 908.57 1932.68 1169.65 2166.47 1145.76
00002383 00000039 1803.28 212.80 857.01 1251.49 1882.98 693.80 2195.86 661.48 1932.96 915.21 1937.72 1172.31 2170.88 1149.23
00002384 00000040 1801.65 217.58 857.55 1248.41 1883.51 695.30 2195.05 665.50 1932.25 922.74 1942.05 1175.12 2170.48 1153.71
00002385 00000041 1798.65 219.71 855.63 1250.68 1881.02 698.58 2194.53 668.96 1931.28 925.85 1940.51 1178.37 2168.57 1156.85
00002386 00000042 1795.49 218.11 861.39 1262.44 1879.57 703.57 2193.54 673.10 1929.80 928.26 1942.05 1183.81 2169.28 1161.40
00002387 00000043 1796.26 222.14 859.13 1260.62 1879.94 704.19 2193.49 676.03 1930.91 934.92 1946.37 1187.23 2171.88 1166.50
00002388 00000044 1796.17 218.53 860.16 1274.39 1880.90 708.14 2195.60 675.03 1932.71 935.94 1948.66 1193.71 2177.58 1169.28
00002389 00000045 1797.75 219.07 860.18 1272.60 1882.08 707.12 2196.65 673.91 1934.17 937.75 1949.30 1193.34 2176.98 1169.04
00002390 00000046 1799.23 219.36 860.31 1269.42 1882.04 706.60 2194.80 674.45 1934.26 937.90 1950.37 1192.87 2175.73 1169.10
00002391 00000047 1798.35 218.18 863.23 1272.31 1883.48 706.03 2198.20 675.16 1936.30 933.48 1947.92 1192.53 2176.60 1169.97
00002392 00000048 1798.45 218.35 864.49 1276.92 1883.67 706.52 2199.36 671.92 1936.87 931.57 1950.01 1194.30 2178.12 1168.73
00002393 00000049 1800.47 223.03 864.53 1278.27 1886.12 705.29 2197.25 669.77 1936.27 929.36 1951.48 1193.40 2178.17 1167.03
00002394 00000050 1802.55 221.32 860.73 1280.58 1888.59 703.20 2196.85 667.69 1935.82 925.75 1952.49 1192.00 2176.99 1165.54
00002395 00000051 1802.21 225.07 861.78 1280.72 1887.18 700.34 2197.66 665.22 1937.14 923.76 1949.71 1191.23 2175.67 1165.21
00002396 00000052 1803.69 222.43 861.95 1288.60 1888.16 699.75 2198.48 664.51 1935.08 922.75 1947.93 1192.31 2176.93 1166.46
00002397 00000053 1802.16 219.01 861.58 1291.57 1888.96 697.97 2201.25 661.99 1936.26 919.52 1949.25 1190.30 2180.76 1163.78
00002398 00000054 1799.31 223.81 860.00 1282.91 1886.51 695.00 2202.34 660.38 1936.36 916.66 1946.28 1189.68 2176.88 1164.20
00002399 00000055 1798.89 220.23 859.39 1288.58 1884.64 696.34 2198.01 659.26 1931.20 914.89 1945.68 1191.38 2174.77 1163.72
00002400 00000056 1792.54 216.58 861.52 1290.11 1883.59 694.57 2199.78 661.90 1932.08 914.30 1943.06 1186.49 2173.47 1162.62
00002401 00000057 1790.38 219.17 859.67 1283.50 1879.94 696.37 2197.42 664.99 1928.02 915.41 1940.55 1185.15 2172.32 1162.05
00002402 00000058 1786.59 221.58 857.83 1285.32 1871.92 699.33 2191.37 668.92 1920.04 923.93 1935.60 1190.33 2167.88 1167.78
00002403 00000059 1773.20 222.80 864.49 1293.29 1860.13 707.01 2185.74 678.78 1913.72 936.35 1927.01 1202.15 2159.38 1180.65
00002404 00000060 1764.12 223.87 863.75 1313.10 1849.86 712.65 2181.48 686.63 1905.45 944.93 1918.50 1218.60 2152.08 1198.64
00002405 00000061 1747.83 242.92 868.91 1315.78 1838.75 731.84 2184.36 704.67 1900.40 976.97 1910.73 1244.83 2154.83 1222.80
00002406 00000062 1725.53 254.80 874.67 1338.63 1820.89 743.88 2167.06 716.97 1882.14 1006.33 1904.26 1271.51 2158.16 1248.64
00002407 00000063 1705.32 278.47 863.68 1362.22 1797.73 760.84 2133.46 731.56 1870.42 1031.56 1896.10 1295.56 2157.28 1270.39
00002408 00000064 1683.85 308.97 888.64 1356.49 1766.71 810.48 2102.70 776.95 1834.65 1093.20 1870.73 1337.34 2133.39 1310.07
00002409 DELETE   1667.85 361.97 879.75 1330.44 1739.62 862.23 2067.16 832.02 1799.55 1156.70 1859.69 1379.61 2113.09 1354.98
00002410 00000066 1634.28 399.36 888.17 1333.23 1725.74 924.20 2042.63 912.18 1793.34 1234.57 1836.66 1423.97 2098.79 1412.91
00002411 00000067 1610.37 435.67 904.40 1311.66 1698.90 971.35 2018.20 967.76 1759.37 1283.98 1805.68 1449.41 2071.19 1445.89
00002412 00000068 1592.55 470.20 909.46 1301.70 1681.91 981.99 2021.63 991.10 1749.64 1304.10 1781.28 1474.16 2046.45 1481.92
00002413 00000069 1587.05 476.29 916.82 1301.45 1675.21 983.01 2014.30 989.15 1744.81 1302.37 1780.32 1487.86 2027.57 1493.32
00002414 00000070 1580.63 457.96 906.73 1289.19 1675.17 964.12 2016.58 974.17 1748.05 1280.71 1776.91 1461.76 2017.77 1470.09
00002415 00000071 1598.94 425.36 903.68 1302.26 1687.74 934.20 2042.55 937.16 1763.54 1245.94 1781.23 1444.70 2024.59 1448.30
00002416 00000072 1623.40 410.10 903.28 1308.47 1695.70 893.60 2049.16 905.67 1765.84 1221.27 1795.32 1424.97 2035.64 1435.71
00002417 00000073 1649.16 376.34 898.11 1310.39 1728.53 861.96 2065.81 855.78 1790.35 1155.87 1827.55 1388.20 2048.85 1385.78
00002418 00000074 1678.73 315.67 877.15 1331.14 1749.65 807.71 2079.60 801.38 1812.70 1095.06 1825.27 1326.94 2064.10 1324.53
00002419 00000075 1699.84 276.17 872.09 1309.11 1772.30 772.33 2120.57 771.90 1845.67 1046.80 1828.82 1269.43 2087.79 1271.81
00002420 00000076 1728.21 246.39 850.79 1298.65 1784.46 736.90 2123.16 732.66 1833.89 1002.30 1847.00 1233.54 2093.81 1231.12
00002421 00000077 1738.19 224.37 865.40 1293.51 1805.69 691.93 2121.75 683.37 1839.57 946.53 1859.53 1190.36 2093.04 1185.67
00002422 00000078 1764.29 183.86 843.91 1286.07 1821.14 664.79 2137.45 655.44 1852.51 895.47 1854.87 1143.81 2094.89 1136.85
00002423 DELETE   1780.50 184.11 861.34 1248.10 1859.27 656.35 2166.76 645.66 1873.73 872.34 1891.04 1114.12 2138.97 1106.68
00002424 DELETE   1795.54 176.53 856.02 1242.99 1871.54 652.66 2184.10 628.62 1893.32 852.48 1905.98 1112.18 2150.92 1095.02
00002425 DELETE   1810.93 184.34 847.83 1269.87 1881.96 648.78 2189.15 610.48 1908.67 844.81 1928.75 1128.58 2163.74 1099.59
00002426 00000082 1832.91 175.68 828.86 1298.75 1894.77 635.03 2191.70 590.69 1905.04 831.30 1943.45 1123.28 2202.53 1086.94
00002427 00000083 1841.52 164.94 821.66 1271.93 1905.23 620.08 2213.72 586.58 1926.24 822.39 1947.09 1110.72 2207.16 1083.88
00002428 00000084 1840.54 148.43 823.56 1254.84 1904.57 612.96 2227.76 586.52 1934.52 814.46 1938.21 1099.34 2196.49 1079.48
00002429 00000085 1842.03 142.17 820.19 1247.36 1907.53 605.72 2239.79 585.13 1946.30 808.43 1930.91 1088.75 2194.61 1074.76
00002430 00000086 1844.75 137.70 817.62 1248.48 1912.45 604.98 2244.42 584.34 1949.52 800.76 1931.76 1084.12 2187.27 1070.72
00002431 00000087 1844.36 140.92 818.97 1236.37 1918.61 609.56 2244.59 588.48 1946.16 793.77 1932.06 1081.12 2162.68 1068.46
00002432 00000088 1846.56 140.58 814.91 1229.24 1920.07 609.45 2241.34 587.75 1946.15 791.89 1932.61 1077.73 2154.88 1064.39
00002433 00000089 1844.55 142.29 814.62 1236.75 1918.13 608.97 2238.01 591.20 1944.58 795.89 1931.98 1081.20 2148.45 1070.66
00002434 00000090 1848.06 152.28 809.49 1260.39 1922.25 606.97 2234.91 592.91 1944.36 795.91 1936.30 1086.62 2147.50 1079.31
00002435 00000091 1855.90 157.39 811.09 1290.42 1922.77 604.63 2234.47 588.37 1948.31 808.21 1949.60 1100.79 2184.92 1090.05
00002436 00000092 1855.40 154.19 815.76 1292.45 1922.09 611.58 2240.86 591.20 1950.27 813.90 1948.87 1105.28 2198.54 1091.37
00002437 00000093 1853.24 153.98 816.03 1289.55 1921.21 616.15 2243.04 595.42 1951.55 817.36 1945.92 1108.51 2195.75 1094.53
00002438 00000094 1855.06 152.16 815.55 1291.16 1919.64 615.75 2244.97 596.17 1954.09 818.40 1944.44 1109.35 2194.77 1096.57
00002439 00000095 1854.95 155.52 815.55 1284.73 1919.71 616.39 2244.95 596.62 1953.58 817.62 1943.34 1108.74 2193.03 1095.81
00002440 00000096 1854.76 151.82 814.61 1282.44 1918.76 619.09 2245.23 600.31 1953.54 818.99 1940.97 1108.93 2189.21 1097.24
00002441 00000097 1855.96 152.83 815.87 1286.46 1918.51 624.72 2242.82 604.61 1951.42 824.79 1940.74 1113.56 2186.97 1100.76
00002442 00000098 1852.68 153.28 816.31 1283.72 1915.22 627.54 2241.26 608.76 1948.40 827.89 1937.04 1113.91 2182.48 1102.43
00002443 00000099 1849.48 158.92 819.76 1277.70 1912.51 630.03 2237.53 611.14 1945.86 831.55 1932.64 1116.24 2176.29 1105.18
00002444 00000100 1844.81 161.73 823.77 1276.93 1909.29 630.95 2235.65 613.24 1942.78 838.28 1931.32 1117.35 2178.71 1106.86
00002445 00000101 1840.58 164.29 825.70 1272.64 1905.85 633.16 2233.43 614.10 1941.86 840.99 1928.95 1119.53 2178.48 1107.86
00002446 00000102 1837.19 164.06 830.58 1269.95 1902.24 643.48 2227.16 615.86 1935.26 847.09 1932.43 1127.88 2177.33 1109.18
00002447 00000103 1826.42 162.86 838.27 1259.74 1894.50 653.86 2226.69 627.79 1933.61 855.20 1922.91 1134.64 2164.94 1117.68
00002448 00000104 1820.88 172.82 839.45 1257.01 1892.04 658.83 2217.10 631.53 1930.40 871.00 1926.18 1137.98 2169.42 1120.10
00002449 00000105 1808.30 197.87 849.17 1239.65 1887.59 669.56 2209.04 647.83 1933.54 898.69 1933.50 1144.21 2179.10 1129.82
00002450 00000106 1794.37 210.08 857.17 1285.76 1885.47 691.47 2201.61 666.60 1933.56 919.35 1945.11 1181.81 2184.02 1163.97
00002451 00000107 1782.17 221.33 855.74 1298.32 1871.04 700.76 2191.95 679.41 1919.02 935.36 1937.43 1195.34 2179.68 1179.99
00002452 00000108 1771.51 208.60 861.43 1268.77 1866.52 690.85 2190.73 675.17 1922.98 918.65 1919.36 1171.40 2162.12 1160.42
00002453 00000109 1771.69 199.80 864.00 1253.40 1862.16 672.41 2190.23 659.10 1923.22 904.15 1910.23 1144.00 2157.29 1135.33
00002454 00000110 1772.89 189.25 868.45 1275.08 1865.43 666.90 2196.09 649.42 1924.70 895.87 1913.18 1145.48 2159.92 1133.56
00002455 00000111 1773.25 197.75 871.87 1298.96 1869.72 668.31 2195.23 647.08 1925.84 900.69 1927.82 1159.27 2168.86 1144.19
00002456 00000112 1784.23 205.47 865.82 1293.45 1873.86 671.96 2203.63 648.74 1930.41 908.56 1930.77 1169.54 2177.18 1153.14
00002457 00000113 1786.62 211.27 865.70 1279.10 1876.53 679.18 2206.30 654.25 1936.33 910.65 1932.70 1170.21 2178.45 1152.44
00002458 00000114 1783.47 208.65 870.87 1282.82 1875.51 682.42 2200.55 650.00 1932.42 908.12 1938.12 1169.37 2178.17 1145.60
CROP_BBOX: 1063 0 3359 2105
