Video ID: 	dXEIdSObYeQ
H: 	1080
W: 	1920
FPS: 	29.97002997002997

FRAME INDEX X0 Y0 W H [Landmarks (5 Points)]

00008851 00000000 763.85 247.62 420.91 589.41 924.16 496.42 1117.62 482.39 1066.13 605.12 932.84 684.07 1119.48 673.84
00008852 DELETE   753.34 248.72 420.81 597.59 906.06 500.22 1102.67 485.44 1045.72 613.26 916.89 691.94 1104.96 681.31
00008853 DELETE   743.63 250.68 421.20 601.10 888.33 501.02 1089.98 491.84 1022.85 609.15 898.45 693.19 1091.47 687.30
00008854 DELETE   730.06 260.95 418.08 598.44 861.80 510.25 1060.99 503.36 993.01 619.40 873.70 706.33 1061.91 699.94
00008855 00000004 725.42 268.31 414.95 600.83 854.33 523.63 1054.32 518.41 983.46 630.71 868.78 720.03 1056.29 714.95
00008856 00000005 725.11 268.00 415.24 601.14 854.20 523.51 1054.09 518.43 983.23 630.60 868.65 719.96 1056.12 715.01
00008857 00000006 727.63 282.43 416.46 610.01 860.39 536.20 1057.48 530.89 990.01 645.52 879.18 739.87 1060.55 735.02
00008858 00000007 735.40 290.33 412.47 613.59 870.16 541.43 1065.65 534.77 1000.68 659.45 889.92 751.47 1065.79 745.76
00008859 00000008 742.50 296.85 409.99 611.98 881.61 545.32 1069.45 536.16 1008.96 670.76 908.11 759.21 1068.49 751.69
00008860 00000009 742.72 295.92 410.99 613.10 881.47 545.71 1069.78 536.55 1008.74 671.00 907.83 758.99 1069.39 751.43
00008861 00000010 740.69 300.19 411.86 604.92 881.47 546.90 1069.64 537.25 1008.79 672.89 906.65 756.50 1067.77 748.89
00008862 00000011 735.82 292.11 410.23 607.39 877.94 542.12 1069.28 537.51 1005.79 670.11 892.17 751.06 1062.94 747.37
00008863 00000012 730.94 283.06 410.41 620.24 876.52 532.00 1061.28 532.96 999.84 654.60 890.21 747.48 1050.82 747.73
00008864 00000013 725.84 274.06 417.01 621.33 873.57 525.66 1060.68 530.63 997.37 645.71 888.96 740.43 1047.57 743.85
00008865 00000014 725.86 274.09 417.01 621.31 873.57 525.66 1060.69 530.63 997.38 645.71 888.97 740.44 1047.59 743.86
00008866 00000015 723.78 267.66 419.03 621.46 869.82 517.38 1063.10 522.48 997.10 638.16 886.90 734.77 1049.26 738.25
00008867 00000016 723.54 269.30 420.16 620.08 868.12 516.16 1064.80 520.49 997.11 637.10 884.16 733.38 1052.33 736.15
00008868 00000017 721.46 272.11 424.18 618.60 868.66 514.77 1067.76 519.67 1000.47 638.16 882.14 732.01 1054.86 735.45
00008869 00000018 723.04 275.40 423.49 619.32 870.71 515.93 1069.08 520.67 1002.56 639.31 883.36 734.06 1056.52 737.60
00008870 00000019 723.02 275.69 423.12 618.36 870.04 516.04 1068.66 520.46 1001.85 639.78 883.50 734.54 1056.17 737.75
00008871 00000020 723.77 276.36 423.86 636.14 873.75 518.59 1071.03 522.96 1004.61 645.11 884.21 741.36 1059.64 744.40
00008872 00000021 724.29 275.90 424.36 646.79 875.18 518.99 1071.70 523.91 1006.61 647.89 883.27 745.16 1059.78 748.66
00008873 00000022 723.56 272.05 428.68 663.10 876.42 519.74 1065.72 527.31 1001.36 652.06 877.56 746.04 1052.48 751.22
00008874 00000023 723.88 271.45 427.99 664.29 877.72 520.09 1065.08 528.45 1001.97 650.94 877.29 744.91 1051.70 750.83
00008875 00000024 725.74 272.90 428.48 669.11 879.13 523.23 1065.17 530.03 1003.82 656.01 879.04 751.28 1051.77 756.22
00008876 00000025 732.31 284.24 425.26 666.49 877.77 524.89 1071.04 525.46 1001.95 657.19 884.80 754.43 1052.09 754.13
00008877 00000026 734.25 287.15 424.54 663.91 878.05 525.11 1072.01 525.97 1001.56 657.50 885.03 755.51 1052.24 755.45
00008878 00000027 734.74 289.07 424.50 660.21 878.08 525.30 1072.15 525.58 1001.68 656.89 886.47 755.60 1052.86 754.95
00008879 00000028 735.07 288.65 424.14 660.59 877.87 525.09 1072.35 525.60 1001.53 656.48 886.83 756.17 1052.80 755.71
00008880 00000029 735.64 289.08 423.78 656.88 879.06 525.25 1072.89 525.22 1003.09 656.96 887.84 756.38 1052.60 755.57
00008881 00000030 732.60 279.45 424.78 655.58 877.86 524.77 1070.27 529.32 1005.85 657.18 888.02 756.91 1053.94 760.11
00008882 00000031 732.20 280.23 424.89 642.16 879.11 523.49 1071.72 527.76 1006.91 653.97 892.12 751.74 1052.17 754.53
00008883 00000032 733.97 279.31 423.22 636.22 879.21 522.72 1071.49 526.79 1006.11 649.65 891.71 746.35 1052.98 748.68
00008884 00000033 733.98 279.32 423.21 636.21 879.21 522.74 1071.48 526.79 1006.11 649.66 891.72 746.37 1052.99 748.68
00008885 00000034 735.05 278.48 421.94 627.85 879.96 521.09 1073.53 525.46 1006.45 643.73 893.23 740.85 1054.46 743.29
00008886 00000035 735.42 277.79 421.29 624.98 880.75 518.86 1075.36 524.42 1007.05 639.41 896.01 739.46 1054.17 742.97
00008887 00000036 736.81 276.20 421.11 624.84 883.23 518.73 1077.25 524.94 1009.71 636.47 896.32 736.66 1058.09 740.65
00008888 00000037 737.77 275.58 421.24 624.77 884.57 517.89 1076.56 523.59 1009.85 634.42 897.51 734.10 1058.35 737.62
00008889 00000038 737.74 275.56 421.27 624.79 884.55 517.97 1076.49 523.68 1009.80 634.40 897.48 734.10 1058.37 737.62
00008890 00000039 740.13 272.48 421.85 633.03 889.38 513.82 1080.43 524.71 1013.85 632.65 894.49 731.70 1059.92 739.31
00008891 00000040 742.52 272.02 419.87 630.03 890.50 508.06 1083.02 521.45 1014.83 628.76 892.69 727.83 1061.49 737.56
00008892 00000041 742.77 248.49 420.88 629.46 891.07 496.50 1086.88 506.44 1016.92 614.23 894.48 708.27 1067.30 717.31
00008893 00000042 743.12 248.71 420.30 629.33 890.90 496.41 1086.72 506.47 1016.72 614.12 894.25 708.12 1067.26 717.25
00008894 00000043 742.87 239.79 425.98 613.09 896.27 482.40 1095.56 495.02 1022.36 604.25 898.69 693.85 1072.45 704.86
00008895 00000044 749.46 226.76 422.07 601.81 899.91 465.11 1098.76 483.05 1024.16 577.76 901.19 672.51 1074.32 686.99
00008896 DELETE   746.69 211.96 427.41 598.22 902.44 456.66 1106.89 477.57 1023.67 569.05 900.90 659.10 1071.48 676.98
00008897 DELETE   749.73 204.80 421.15 585.36 906.27 443.55 1105.45 464.29 1028.34 551.27 902.08 640.19 1075.12 657.96
00008898 00000047 749.73 204.72 421.04 584.99 906.35 443.25 1105.23 463.88 1028.52 550.79 902.39 640.10 1075.07 657.80
00008899 00000048 751.59 194.35 417.87 583.75 909.45 429.17 1107.82 449.55 1033.95 538.78 904.99 626.51 1079.94 644.23
00008900 00000049 751.38 189.28 416.58 582.12 912.49 423.32 1110.10 445.85 1037.88 531.52 908.95 620.63 1081.93 639.95
00008901 00000050 751.81 186.44 416.30 582.62 916.06 421.49 1111.07 444.61 1042.41 527.79 913.77 619.21 1081.66 638.94
00008902 00000051 751.36 185.47 416.87 588.96 917.31 422.38 1110.74 446.11 1044.57 529.32 912.96 620.45 1080.77 640.69
00008903 00000052 751.42 185.57 416.90 588.86 917.28 422.39 1110.83 446.17 1044.55 529.26 912.89 620.45 1080.80 640.75
00008904 00000053 750.69 186.55 415.66 596.38 916.91 424.73 1107.38 448.87 1044.00 531.41 909.42 622.12 1076.73 642.78
00008905 00000054 751.18 186.51 414.41 598.06 915.92 424.04 1104.66 447.55 1043.29 530.53 908.86 622.71 1074.02 642.85
00008906 00000055 750.96 184.02 412.91 598.39 917.04 422.74 1103.44 443.82 1045.19 529.02 911.87 621.58 1075.13 639.66
00008907 00000056 751.57 183.39 413.17 597.75 918.10 422.93 1104.31 442.12 1047.25 526.01 915.34 620.96 1077.73 637.40
00008908 00000057 751.38 183.23 413.28 598.27 917.45 422.47 1104.64 442.11 1047.06 526.00 914.92 621.63 1077.64 638.43
00008909 00000058 753.84 194.41 413.10 590.60 921.86 418.82 1103.61 440.12 1052.95 521.22 924.79 619.40 1080.61 637.06
00008910 00000059 754.38 195.60 412.43 590.04 921.51 419.57 1102.64 438.92 1053.56 519.82 927.47 620.06 1081.99 635.90
00008911 00000060 753.71 196.12 411.09 588.32 919.10 420.59 1101.01 438.78 1050.36 520.14 927.59 622.23 1080.14 636.85
00008912 00000061 753.69 195.85 410.99 587.89 918.93 420.46 1100.92 438.28 1050.37 520.39 927.45 622.28 1080.12 636.65
00008913 00000062 754.02 196.68 408.33 585.45 916.26 418.52 1098.02 434.86 1046.60 519.75 926.84 622.94 1077.37 635.82
00008914 00000063 755.37 196.49 407.10 589.17 916.02 416.59 1096.57 432.65 1044.46 515.70 930.38 625.02 1076.14 636.93
00008915 00000064 758.17 198.56 406.57 593.14 919.42 417.56 1096.77 432.42 1047.84 513.00 936.80 627.92 1078.71 638.63
00008916 00000065 760.45 196.25 405.96 598.03 922.88 418.50 1097.18 433.29 1052.11 513.36 942.87 628.66 1081.74 639.33
00008917 00000066 760.28 195.54 405.87 599.11 922.84 418.57 1097.56 433.57 1052.48 513.23 942.42 628.67 1081.88 639.54
00008918 00000067 762.66 195.49 407.75 602.44 928.59 419.84 1100.59 435.20 1058.27 514.09 948.18 630.19 1085.72 641.22
00008919 00000068 764.48 194.12 407.65 604.47 931.35 420.25 1102.23 434.83 1061.10 513.92 950.94 629.55 1088.34 639.95
00008920 00000069 766.51 194.11 406.53 604.69 934.35 420.67 1105.18 436.55 1064.03 514.35 952.08 629.90 1089.99 641.53
00008921 00000070 767.50 194.09 405.40 608.90 934.85 420.35 1105.32 437.99 1064.69 513.83 951.67 633.52 1087.57 646.63
00008922 00000071 767.71 193.90 405.29 609.06 935.27 420.17 1105.66 437.76 1065.02 513.97 951.84 633.75 1087.68 646.85
00008923 00000072 768.37 194.30 402.55 621.21 934.70 421.13 1107.32 442.40 1067.09 517.94 949.86 642.16 1086.38 658.38
00008924 00000073 769.14 200.97 401.08 625.68 934.14 425.83 1107.94 450.48 1069.82 524.74 946.24 650.85 1083.92 669.91
00008925 00000074 770.20 206.75 399.78 639.47 935.53 438.22 1105.81 463.50 1067.23 542.50 944.56 667.58 1083.85 687.17
00008926 00000075 770.32 206.78 399.46 639.86 935.21 438.05 1105.76 463.46 1066.94 541.95 944.13 667.83 1083.73 687.53
00008927 00000076 771.44 213.24 400.93 646.43 934.35 449.43 1105.70 471.57 1064.88 555.84 943.45 680.07 1085.57 697.34
00008928 00000077 771.92 240.08 402.05 618.59 936.84 467.16 1111.35 484.23 1063.72 572.37 947.52 688.75 1086.10 701.80
00008929 00000078 769.79 233.00 403.43 607.51 935.37 475.72 1107.69 490.73 1058.97 578.40 945.99 680.59 1087.77 692.46
00008930 00000079 771.41 231.45 404.33 594.06 937.40 470.07 1111.30 487.36 1063.08 569.67 946.85 667.94 1092.35 681.94
00008931 00000080 771.36 231.36 404.31 594.12 937.44 469.98 1111.18 487.27 1063.14 569.75 946.85 667.92 1092.24 681.91
00008932 00000081 773.37 225.03 402.14 587.98 937.99 456.75 1110.84 475.60 1063.74 556.85 947.29 655.93 1089.22 670.99
00008933 00000082 770.52 220.80 404.86 580.88 938.92 449.12 1112.89 470.11 1065.09 551.18 943.37 646.89 1087.33 663.52
00008934 00000083 771.09 212.87 406.08 575.19 936.82 440.71 1120.61 463.20 1068.10 547.05 941.36 641.19 1092.43 659.49
00008935 00000084 771.11 207.74 406.59 582.18 938.48 436.68 1118.53 457.60 1070.51 537.44 946.64 639.50 1092.57 656.11
00008936 00000085 771.10 207.84 406.61 582.10 938.53 436.74 1118.57 457.58 1070.53 537.52 946.61 639.54 1092.57 656.09
00008937 00000086 770.06 196.28 407.05 605.39 938.07 423.90 1113.31 446.02 1069.16 524.19 945.28 633.70 1088.34 650.66
00008938 00000087 770.13 189.40 410.13 604.56 935.16 418.82 1114.74 442.28 1066.61 515.18 939.96 622.08 1091.43 640.52
00008939 00000088 767.55 176.60 407.70 597.63 928.95 414.50 1114.42 433.87 1058.58 511.47 930.91 614.05 1091.04 630.31
00008940 00000089 767.88 174.62 406.62 586.35 927.57 411.62 1115.62 430.59 1057.96 508.99 932.20 609.17 1093.60 625.00
00008941 00000090 767.87 175.07 406.88 585.75 927.62 411.58 1115.71 430.55 1057.85 509.07 932.45 609.13 1093.68 624.96
00008942 DELETE   769.14 176.11 405.14 581.12 924.35 420.14 1119.19 436.22 1053.16 512.28 927.42 608.23 1098.98 621.67
00008943 DELETE   769.16 174.48 406.54 596.89 924.31 424.81 1115.47 441.28 1050.95 517.48 923.11 612.42 1095.72 625.63
00008944 00000093 770.38 188.48 412.16 604.89 925.99 427.59 1111.01 447.20 1049.45 524.11 925.98 622.81 1089.05 638.11
00008945 00000094 770.41 188.38 412.12 605.02 925.96 427.58 1110.97 447.20 1049.48 524.06 925.97 622.80 1089.09 638.10
00008946 DELETE   769.57 191.15 411.71 602.10 922.47 428.76 1108.27 446.48 1046.01 531.59 922.40 628.42 1085.43 642.05
00008947 00000096 768.55 198.78 411.77 591.73 915.46 432.08 1104.29 450.49 1036.40 540.26 914.62 630.60 1081.73 644.93
00008948 00000097 769.24 207.20 406.86 588.89 909.16 439.99 1099.87 459.98 1026.45 549.43 905.39 637.68 1077.71 653.50
00008949 00000098 768.12 212.55 406.17 599.53 904.27 444.20 1098.13 463.68 1021.75 555.30 902.68 650.25 1074.74 665.28
00008950 00000099 768.17 212.86 406.16 599.20 904.29 444.20 1098.20 463.63 1021.75 555.28 902.68 650.26 1074.73 665.27
00008951 00000100 767.55 214.29 407.84 619.86 899.88 454.78 1094.55 470.71 1019.11 569.58 906.01 673.56 1073.60 685.20
00008952 00000101 766.88 218.07 412.51 632.40 902.52 465.62 1093.45 481.49 1021.22 580.10 906.21 682.69 1074.23 694.73
00008953 00000102 766.36 231.79 414.92 623.76 905.08 482.12 1096.21 493.32 1023.62 599.47 916.33 696.53 1076.92 705.13
00008954 00000103 764.28 243.09 414.01 610.52 902.98 493.17 1096.16 500.15 1022.37 609.42 916.25 701.02 1079.84 706.20
00008955 00000104 764.30 243.09 413.96 610.51 902.97 493.17 1096.14 500.13 1022.37 609.41 916.26 701.02 1079.86 706.17
00008956 00000105 761.45 251.49 412.78 599.23 899.51 500.19 1095.05 504.60 1019.46 615.56 913.28 701.71 1081.37 705.27
00008957 00000106 760.48 254.27 411.65 595.14 898.20 499.08 1091.60 505.69 1015.45 613.09 910.92 699.56 1075.95 705.13
00008958 00000107 758.22 261.73 409.32 585.81 896.64 500.84 1086.91 506.88 1011.96 615.05 908.52 698.43 1071.15 703.91
00008959 00000108 758.21 261.71 409.35 585.83 896.64 500.83 1086.90 506.86 1011.95 615.05 908.53 698.43 1071.15 703.90
00008960 00000109 758.35 261.77 407.70 586.32 895.04 499.60 1085.33 508.53 1008.46 614.44 905.15 697.29 1067.33 705.24
00008961 00000110 757.17 257.82 407.60 585.62 893.66 493.51 1082.43 505.16 1004.72 611.92 905.47 696.51 1060.68 706.91
00008962 00000111 756.34 253.23 405.42 580.90 892.64 488.22 1080.23 498.63 1003.41 607.25 905.24 691.99 1058.11 701.11
00008963 00000112 756.77 244.16 403.85 581.68 890.88 479.29 1076.67 490.99 999.58 596.29 903.41 683.18 1054.61 692.84
00008964 00000113 756.96 244.19 403.70 581.18 891.68 479.20 1076.67 491.31 999.87 595.88 904.29 683.21 1053.83 693.23
00008965 00000114 757.87 233.98 402.64 589.69 889.17 473.14 1079.17 484.44 1002.90 585.72 902.39 682.14 1057.19 691.04
00008966 00000115 758.10 232.95 403.23 589.97 888.57 471.88 1080.87 483.01 1003.35 584.24 900.76 680.83 1058.51 689.46
00008967 00000116 758.49 230.54 403.48 592.31 887.96 470.88 1080.36 481.65 1002.94 582.02 899.95 679.59 1058.52 687.87
00008968 00000117 758.35 229.58 402.84 594.94 886.61 469.33 1078.18 480.19 1000.89 580.84 897.87 679.63 1055.61 688.05
00008969 00000118 758.36 229.57 402.82 594.96 886.60 469.33 1078.18 480.18 1000.90 580.83 897.86 679.64 1055.62 688.06
00008970 00000119 757.11 228.02 400.18 592.00 883.08 467.93 1074.24 480.18 995.89 578.55 892.57 675.14 1051.47 684.88
00008971 00000120 752.80 228.21 403.84 582.90 881.02 466.47 1073.35 476.11 994.86 582.31 891.79 671.31 1052.03 679.52
00008972 00000121 755.02 222.69 401.61 593.39 885.03 460.74 1076.76 477.63 996.73 571.45 886.24 666.12 1049.86 679.67
00008973 00000122 754.12 221.68 403.05 592.18 887.00 457.54 1079.35 476.63 997.91 568.72 884.45 661.71 1051.36 677.02
00008974 00000123 754.35 221.48 402.35 592.34 887.14 457.32 1079.35 475.89 998.65 569.54 884.81 662.60 1050.77 677.59
00008975 00000124 749.63 213.39 414.13 596.71 890.68 459.09 1089.40 479.97 1001.42 574.55 882.74 653.43 1054.40 671.53
00008976 00000125 754.24 219.42 409.73 601.15 894.30 457.40 1087.53 480.96 1006.56 570.93 883.35 656.38 1061.11 675.30
00008977 00000126 753.14 221.72 415.05 623.10 898.27 460.53 1086.90 484.06 1012.44 580.45 884.23 666.54 1060.88 685.11
00008978 00000127 752.84 220.78 415.75 624.39 897.96 460.28 1086.90 484.12 1011.70 580.55 884.17 666.52 1060.19 685.32
00008979 00000128 754.07 221.96 414.66 637.84 899.78 465.54 1083.86 487.53 1014.47 587.50 887.91 675.01 1061.13 692.42
00008980 00000129 758.92 248.83 408.29 623.13 901.56 466.58 1089.01 486.94 1014.33 597.08 892.11 683.24 1059.02 699.14
00008981 00000130 754.07 220.82 414.07 638.00 905.75 465.27 1086.39 487.43 1022.59 586.13 894.09 674.18 1064.07 691.83
00008982 00000131 755.33 217.39 414.68 628.60 910.48 460.00 1090.40 484.43 1025.91 578.72 898.32 663.56 1066.93 682.76
00008983 00000132 755.34 217.37 414.69 628.58 910.49 459.99 1090.40 484.44 1025.92 578.71 898.33 663.53 1066.92 682.75
00008984 00000133 756.65 219.75 415.02 604.48 911.52 457.23 1098.03 482.29 1028.04 574.00 900.94 653.69 1070.69 674.19
00008985 00000134 751.95 217.99 420.21 598.57 912.42 463.01 1105.59 488.76 1027.97 581.21 895.91 652.07 1069.20 674.15
00008986 00000135 753.58 232.82 416.09 589.51 914.36 465.76 1102.49 490.79 1030.95 593.42 894.65 656.82 1069.47 678.75
00008987 00000136 752.91 234.87 416.49 587.49 915.26 466.02 1101.80 492.39 1030.25 595.91 890.91 656.16 1065.60 679.48
00008988 00000137 752.88 234.01 416.69 588.56 914.95 465.91 1101.77 492.04 1030.11 596.03 891.36 656.81 1065.81 679.87
00008989 00000138 754.68 227.96 416.67 589.66 920.22 456.25 1102.12 491.97 1031.02 579.92 891.96 646.38 1061.42 676.67
00008990 00000139 756.95 221.84 419.41 601.18 924.67 448.03 1103.19 487.92 1035.12 572.49 893.99 643.24 1062.29 676.51
00008991 00000140 757.99 220.60 423.72 608.28 931.32 444.92 1105.58 486.76 1040.27 571.74 898.07 642.55 1062.15 677.08
00008992 00000141 757.35 221.14 424.34 607.27 931.39 444.62 1105.03 486.98 1040.11 570.91 898.16 641.29 1062.16 676.25
00008993 00000142 757.25 221.35 424.87 609.31 932.58 447.08 1105.57 487.00 1041.60 573.68 901.37 644.41 1063.84 677.34
00008994 00000143 756.95 224.52 421.64 607.15 929.99 451.46 1103.16 487.74 1039.85 578.16 902.74 648.79 1064.42 678.74
00008995 00000144 756.99 223.28 417.85 600.79 926.66 449.42 1102.11 487.38 1037.58 572.19 901.96 645.94 1062.78 677.27
00008996 00000145 754.92 219.79 413.69 583.52 923.75 439.29 1103.22 474.53 1037.13 555.23 900.63 636.70 1059.66 666.33
00008997 00000146 754.92 219.79 413.69 583.54 923.73 439.29 1103.22 474.54 1037.14 555.24 900.63 636.69 1059.67 666.32
00008998 00000147 753.51 202.91 416.97 582.47 918.34 431.16 1102.35 463.16 1031.00 543.46 901.70 625.62 1060.73 653.25
00008999 00000148 752.06 192.81 415.97 577.04 919.90 419.47 1104.79 454.78 1031.90 528.17 904.14 615.33 1060.36 645.81
00009000 00000149 757.29 202.98 415.25 585.59 922.93 414.43 1101.87 454.21 1032.84 517.95 903.34 616.49 1050.10 649.32
00009001 00000150 758.81 202.77 414.69 594.59 923.02 412.76 1102.04 453.80 1030.55 520.44 899.54 621.70 1045.15 655.43
00009002 00000151 758.13 202.71 415.82 594.91 922.71 413.03 1102.25 453.85 1030.52 520.17 900.19 621.70 1045.84 655.19
00009003 00000152 758.90 205.28 413.72 595.54 922.72 416.47 1099.10 455.04 1028.12 530.41 900.85 629.01 1040.29 660.50
00009004 00000153 757.92 203.72 415.53 598.15 927.19 424.03 1099.83 463.37 1030.99 538.21 904.08 629.82 1043.09 661.52
00009005 00000154 760.70 208.38 414.81 582.84 929.80 426.32 1103.51 465.48 1035.73 541.81 909.51 624.15 1052.63 656.24
00009006 00000155 758.70 192.26 416.44 581.46 926.69 422.66 1106.34 459.62 1034.46 533.42 912.62 616.06 1060.40 647.54
00009007 00000156 758.68 192.34 416.45 581.39 926.72 422.65 1106.32 459.64 1034.47 533.41 912.65 616.03 1060.39 647.54
00009008 00000157 758.83 184.75 416.23 579.88 925.05 413.55 1109.63 447.12 1037.33 518.66 916.29 610.78 1065.25 639.57
00009009 00000158 758.34 182.99 416.03 582.69 925.73 409.57 1109.82 443.30 1039.13 515.38 918.16 611.45 1065.77 640.39
00009010 00000159 754.80 182.23 416.52 581.51 919.56 406.75 1107.07 440.97 1034.43 513.50 912.61 610.98 1063.12 640.18
00009011 00000160 754.82 182.29 416.50 581.47 919.56 406.74 1107.07 440.98 1034.43 513.51 912.59 611.00 1063.10 640.20
00009012 00000161 752.10 182.85 416.94 581.28 913.92 407.58 1103.51 441.92 1028.00 513.45 905.61 611.11 1058.73 640.17
00009013 00000162 749.55 186.09 416.44 588.06 908.76 412.50 1097.07 447.72 1019.24 523.06 895.04 615.02 1049.97 645.25
00009014 00000163 749.67 187.82 413.74 601.56 904.49 419.97 1088.63 453.73 1010.50 532.62 888.10 623.97 1040.76 653.27
00009015 00000164 749.46 209.20 409.18 596.64 901.38 427.49 1083.04 458.76 1008.19 543.20 885.60 638.90 1034.71 664.53
00009016 00000165 749.79 208.02 408.11 597.34 901.35 427.64 1082.38 458.86 1008.37 544.11 886.70 639.34 1034.22 664.88
00009017 00000166 748.02 213.38 408.27 588.95 898.29 431.92 1080.18 459.80 1005.38 545.23 885.47 636.96 1038.65 659.65
