Video ID: 	7ah9JSWVzak
H: 	1080
W: 	1920
FPS: 	23.976023976023978

FRAME INDEX X0 Y0 W H [Landmarks (5 Points)]

00004455 00000000 505.37 160.14 464.27 574.87 668.04 369.68 873.07 352.90 830.21 401.54 723.10 560.76 916.37 543.91
00004456 00000001 509.92 158.96 466.96 577.54 668.66 356.97 878.39 346.93 837.68 378.94 730.31 550.87 929.66 539.61
00004457 00000002 514.50 161.51 465.83 569.01 672.89 346.46 884.57 342.42 844.92 365.07 736.67 545.08 933.39 539.19
00004458 00000003 517.86 167.45 465.16 549.14 677.78 342.54 887.68 343.09 849.16 356.98 744.59 538.31 936.76 535.68
00004459 00000004 518.39 170.30 459.89 528.98 684.78 343.35 887.05 347.64 854.13 358.57 752.83 535.41 933.86 535.82
00004460 00000005 517.51 176.06 453.19 513.11 686.33 348.47 884.97 354.57 854.90 363.30 756.68 534.31 930.52 536.37
00004461 00000006 512.29 172.96 458.79 528.70 678.20 362.80 882.18 360.20 848.54 370.99 749.73 544.90 932.55 539.73
00004462 DELETE   507.05 162.32 456.85 550.75 670.15 372.23 870.95 360.84 839.11 383.38 743.34 557.65 922.23 545.01
00004463 00000008 501.34 166.24 455.92 553.77 667.18 377.89 867.70 367.04 827.53 399.87 728.74 561.59 907.57 550.43
00004464 00000009 501.14 167.37 454.31 565.21 667.95 383.96 861.43 369.02 820.50 412.18 727.39 568.58 898.94 554.24
00004465 DELETE   500.19 174.10 461.04 568.22 671.28 392.03 863.85 372.77 825.37 420.63 735.01 579.11 903.90 561.15
00004466 DELETE   500.44 180.78 465.44 562.03 675.12 394.46 878.20 375.33 835.45 435.03 735.88 585.50 911.38 567.64
00004467 DELETE   502.51 178.75 468.14 583.27 678.85 402.52 880.18 377.89 840.42 448.42 738.12 596.65 914.42 574.34
00004468 00000013 512.17 180.65 461.96 581.01 685.11 402.01 886.02 377.62 845.19 457.66 743.21 600.88 916.87 579.04
00004469 DELETE   519.89 175.03 453.83 593.17 695.54 396.35 886.94 384.62 857.38 453.83 751.63 600.71 919.72 587.41
00004470 DELETE   532.09 176.45 453.90 598.69 706.25 397.69 893.28 382.82 868.31 451.45 760.96 601.09 929.61 585.60
00004471 00000016 537.86 174.11 449.21 601.34 711.99 397.69 898.81 386.10 874.61 452.40 756.93 594.85 931.12 582.54
00004472 00000017 543.86 177.85 447.73 598.08 714.97 395.05 905.28 382.27 880.98 454.28 761.90 596.68 937.67 583.59
00004473 00000018 542.61 174.15 448.78 601.17 715.77 396.10 905.30 383.86 881.48 454.63 764.13 597.76 937.82 585.27
00004474 00000019 543.53 167.02 450.11 612.32 716.95 395.19 904.72 381.99 877.67 450.05 762.86 603.47 939.86 590.81
00004475 00000020 531.70 168.19 453.27 604.04 710.89 397.03 895.27 389.03 873.94 443.85 765.90 597.60 930.47 587.40
00004476 00000021 524.82 170.19 458.46 605.13 707.30 395.17 891.74 386.63 871.85 441.21 764.17 596.69 929.26 585.84
00004477 00000022 525.68 170.05 457.98 602.82 707.05 395.57 890.97 386.74 871.14 439.74 766.96 597.12 929.78 585.89
00004478 00000023 525.84 171.96 456.36 599.86 707.20 398.06 889.87 388.81 872.01 439.78 768.35 598.52 929.41 587.01
00004479 00000024 527.32 171.60 455.53 599.84 709.66 403.10 890.65 392.28 874.08 441.80 772.27 599.42 932.16 586.58
00004480 00000025 527.70 169.42 455.16 599.17 711.50 404.74 892.38 393.06 876.42 442.93 774.50 599.44 933.94 586.06
00004481 00000026 529.03 172.39 454.93 595.79 712.79 406.35 894.21 395.70 876.85 444.11 775.16 599.39 935.26 587.09
00004482 00000027 535.19 178.33 451.23 593.01 716.11 408.55 896.79 396.37 879.73 449.39 775.94 601.33 937.49 587.92
00004483 00000028 538.47 179.05 449.91 596.35 720.71 412.08 901.36 397.17 885.88 458.23 779.46 606.66 941.64 591.15
00004484 00000029 546.72 179.36 451.84 589.93 729.94 418.67 913.41 396.68 892.93 469.08 791.48 613.05 951.12 594.27
00004485 00000030 549.73 177.78 452.53 593.96 729.70 423.12 918.93 397.07 895.15 477.67 791.34 622.05 954.28 600.17
00004486 00000031 547.70 188.09 448.11 590.43 730.32 417.94 914.05 399.28 896.14 484.56 780.53 620.45 944.31 603.03
00004487 00000032 540.78 193.01 452.49 585.92 721.86 418.11 910.59 399.73 888.87 483.97 776.20 621.85 941.35 604.33
00004488 DELETE   536.79 192.71 450.04 586.69 711.76 419.70 905.16 403.33 876.79 483.72 765.90 621.91 933.48 605.66
00004489 00000034 528.20 188.85 452.21 593.08 703.40 418.74 901.88 407.44 868.09 479.22 755.90 621.35 927.08 608.66
00004490 00000035 523.70 185.38 450.96 598.00 696.12 416.31 894.14 403.27 856.44 478.32 748.18 622.03 917.23 607.79
00004491 00000036 519.02 193.60 452.88 594.72 691.90 416.09 890.60 400.72 852.35 478.48 744.81 624.31 915.49 608.08
00004492 00000037 519.41 194.04 453.35 597.04 689.53 418.15 891.20 402.80 849.68 479.29 741.38 626.25 915.87 609.90
00004493 00000038 522.14 193.22 451.98 596.93 691.99 419.51 893.19 404.10 852.03 481.61 742.03 625.53 917.16 609.45
00004494 00000039 523.94 192.35 451.58 594.18 696.21 419.72 895.19 405.51 854.13 483.90 745.36 624.44 917.24 609.52
00004495 00000040 530.58 189.04 449.87 594.93 701.73 421.47 899.06 407.15 860.44 484.06 755.37 625.77 923.34 610.15
00004496 00000041 534.43 193.28 447.01 584.50 707.73 418.99 899.56 405.10 862.96 483.77 760.63 621.59 923.13 606.65
00004497 00000042 535.38 194.36 448.46 582.26 709.30 416.08 902.11 402.98 865.82 482.57 760.26 619.22 925.09 605.18
00004498 00000043 536.02 190.04 450.45 595.73 710.17 415.81 906.22 404.56 870.94 482.42 759.58 621.41 930.61 608.96
00004499 00000044 540.51 192.93 444.78 590.94 710.94 415.34 905.79 404.54 869.66 483.80 758.89 621.94 926.61 609.94
00004500 00000045 542.37 194.05 444.54 591.80 710.68 415.77 907.37 407.15 868.74 483.34 756.51 622.35 927.19 612.12
00004501 00000046 541.17 193.30 444.48 590.95 710.97 415.84 908.17 408.18 869.31 484.40 755.62 622.10 926.32 612.64
00004502 00000047 540.86 192.78 446.32 591.98 711.27 416.75 910.26 409.23 868.70 486.29 752.79 621.35 926.75 612.32
00004503 00000048 541.07 188.00 449.02 594.93 713.72 416.67 913.03 408.24 873.10 487.74 755.97 621.89 930.77 612.49
00004504 00000049 549.77 194.71 447.30 588.02 719.27 417.37 917.53 406.74 878.09 488.71 761.10 622.93 935.70 611.72
00004505 00000050 549.58 191.61 453.91 586.27 722.81 419.12 921.61 411.15 882.18 488.31 764.23 620.68 938.86 611.88
00004506 00000051 553.55 193.84 450.66 584.48 726.91 421.62 924.42 413.80 884.55 490.30 767.36 623.10 940.43 614.50
00004507 00000052 551.45 197.88 454.11 587.28 722.33 423.75 923.53 417.25 879.32 492.45 760.71 625.64 938.52 618.14
00004508 00000053 549.28 196.73 454.47 590.03 719.32 424.64 921.79 416.47 875.85 496.19 758.97 630.26 935.48 621.40
00004509 00000054 548.37 197.83 449.65 582.05 715.60 426.82 916.19 414.57 870.73 499.93 758.65 631.36 930.85 619.14
00004510 00000055 544.94 196.90 450.46 582.14 712.60 426.61 914.37 414.58 868.31 500.50 757.49 632.68 928.53 620.35
00004511 00000056 544.52 197.84 448.78 583.35 710.47 426.06 911.44 413.61 864.91 499.73 755.45 633.52 925.42 620.63
00004512 00000057 542.55 195.82 446.49 583.12 708.64 427.72 906.37 415.02 861.82 498.19 756.06 631.69 922.99 618.28
00004513 00000058 537.63 201.82 448.63 580.40 706.28 427.39 903.12 414.92 858.84 497.62 754.36 633.56 919.67 620.03
00004514 00000059 534.52 200.16 450.66 582.56 702.97 428.10 900.89 414.59 856.38 494.44 753.54 633.79 919.89 619.24
00004515 00000060 531.83 196.70 454.16 586.94 698.23 426.80 899.26 410.70 851.65 494.26 750.96 635.23 919.25 618.43
00004516 00000061 532.40 199.08 453.74 586.20 696.10 428.47 899.38 411.87 850.01 495.25 746.51 635.21 919.84 617.96
00004517 00000062 531.22 198.25 452.21 585.89 696.41 429.44 899.75 414.47 849.21 498.87 746.60 637.53 916.72 621.59
00004518 00000063 534.15 200.82 448.70 583.95 697.89 431.32 902.04 418.12 849.64 503.08 743.92 637.93 915.36 623.73
00004519 00000064 535.20 199.98 447.20 590.72 697.25 430.93 902.18 417.67 849.16 504.60 742.47 640.82 914.40 626.58
00004520 00000065 530.87 200.17 450.28 590.67 695.72 427.48 902.61 416.21 850.18 500.14 739.35 635.39 915.71 622.86
00004521 00000066 531.57 197.32 448.65 592.01 696.51 425.83 904.82 416.84 851.90 499.09 738.26 632.96 916.87 622.39
00004522 00000067 530.22 203.88 449.54 580.67 699.57 428.76 907.32 419.96 856.71 504.25 740.25 633.08 919.46 623.27
00004523 00000068 534.16 204.44 445.95 582.81 701.30 428.04 908.71 419.38 858.83 504.98 740.14 634.06 920.03 624.50
00004524 00000069 536.09 202.95 445.60 587.58 702.58 427.62 909.07 415.97 860.99 504.07 742.58 634.13 922.90 622.07
00004525 00000070 536.10 204.27 446.45 585.97 704.06 422.25 909.86 412.73 861.24 504.32 742.43 631.81 921.70 621.68
00004526 00000071 539.28 200.20 441.92 580.80 708.35 421.67 911.34 411.17 863.25 504.24 751.00 633.84 919.74 622.61
00004527 00000072 534.41 201.01 449.97 588.81 708.98 418.21 906.08 407.53 861.76 501.44 756.16 636.15 919.05 624.35
00004528 00000073 536.19 203.18 445.87 581.77 708.53 417.19 901.22 403.74 857.45 500.07 759.11 634.40 915.43 620.21
00004529 00000074 534.02 201.68 447.40 581.92 708.12 417.01 898.81 400.75 857.16 497.93 762.19 635.93 916.18 619.69
00004530 00000075 534.87 199.94 448.88 586.35 708.74 416.35 899.52 399.72 857.74 498.20 761.84 636.09 917.54 619.84
00004531 00000076 537.12 199.64 450.73 588.76 706.94 410.04 903.08 395.32 859.55 491.31 759.73 631.12 922.31 615.97
00004532 00000077 539.29 198.25 451.76 591.52 705.39 406.36 901.52 391.00 858.81 485.66 756.63 625.14 922.84 608.86
00004533 00000078 540.92 200.09 448.61 582.73 706.31 404.83 896.87 387.53 855.02 483.90 758.33 619.41 918.67 601.78
00004534 00000079 539.63 200.98 448.46 582.59 703.84 405.69 897.92 386.74 852.48 487.98 756.37 623.52 919.03 604.92
00004535 00000080 534.46 196.69 452.16 591.84 702.02 408.10 897.90 390.24 852.68 488.61 756.49 628.98 918.22 610.70
00004536 00000081 531.95 196.39 452.35 590.67 699.00 409.18 897.95 392.89 850.24 492.10 753.30 628.98 917.38 611.75
00004537 00000082 523.99 194.79 454.40 588.76 694.35 407.72 896.66 394.41 849.42 486.83 747.69 626.18 914.79 611.30
00004538 00000083 527.55 189.26 450.15 588.88 693.84 405.68 899.00 395.34 849.38 486.04 744.33 623.06 914.76 610.49
00004539 00000084 522.16 183.67 452.83 603.05 690.65 403.14 901.35 396.72 850.58 484.74 737.23 624.74 913.44 615.70
00004540 00000085 524.75 181.83 449.40 605.43 689.33 405.27 900.45 398.83 848.64 486.05 736.24 626.41 911.89 617.09
00004541 00000086 524.01 181.02 452.21 608.98 690.17 406.44 899.78 400.99 848.95 481.61 738.70 627.59 911.76 619.02
00004542 00000087 523.28 183.68 454.50 606.27 692.21 406.68 899.35 397.88 852.47 483.46 743.81 628.69 916.73 617.52
00004543 00000088 526.69 180.95 451.25 600.06 696.03 407.26 896.33 396.34 852.70 481.01 748.06 624.32 913.44 611.48
00004544 00000089 523.87 183.42 453.54 602.24 693.90 404.13 895.80 397.17 850.84 478.94 743.62 621.95 913.04 612.21
00004545 00000090 525.32 181.83 450.82 603.66 691.51 401.94 895.93 396.65 848.90 476.63 736.95 619.90 913.11 611.97
00004546 00000091 523.07 181.10 451.63 607.41 689.80 400.93 897.26 395.37 849.60 477.59 733.42 618.81 916.46 611.19
00004547 00000092 523.63 177.91 450.51 609.59 689.59 401.49 896.07 396.50 846.71 477.12 730.13 618.14 912.04 611.04
00004548 00000093 523.15 177.53 449.68 607.71 689.79 402.27 897.56 398.21 848.09 476.58 728.34 617.56 911.30 611.48
00004549 00000094 519.25 178.09 455.24 608.93 692.12 404.70 895.83 399.71 846.85 475.73 733.34 616.74 910.93 609.13
00004550 00000095 515.53 175.63 459.60 608.31 694.20 404.37 893.71 398.35 846.88 473.61 738.84 613.78 912.13 604.99
00004551 00000096 515.12 175.06 460.81 607.88 694.41 404.54 895.37 398.58 848.34 474.25 738.70 614.50 913.46 605.87
00004552 00000097 521.32 175.46 457.68 606.31 692.05 407.36 907.04 401.09 853.32 476.15 729.84 619.36 915.85 613.57
00004553 00000098 525.36 176.97 453.23 607.69 691.56 408.84 905.29 399.53 849.95 479.67 728.59 622.36 913.31 614.18
00004554 00000099 521.58 181.26 452.24 608.04 691.65 406.63 898.87 402.20 849.02 478.08 733.31 621.16 912.66 613.82
00004555 00000100 520.41 181.62 454.04 611.12 690.25 408.21 898.74 401.49 848.55 478.75 733.16 623.63 914.75 614.35
00004556 00000101 520.52 181.89 454.31 610.44 689.17 408.81 898.30 401.09 847.70 478.54 732.81 624.72 915.09 614.39
00004557 00000102 520.03 181.78 453.35 606.69 689.43 408.23 898.85 400.41 847.31 478.04 731.73 622.58 913.29 612.23
00004558 00000103 520.42 182.76 451.99 599.21 689.81 408.19 899.72 400.37 847.36 478.83 731.98 620.91 913.41 610.48
00004559 00000104 520.59 181.35 452.42 599.54 690.43 408.54 899.12 401.36 847.37 478.75 732.23 619.57 912.86 609.71
00004560 00000105 521.96 176.36 455.54 607.99 690.85 410.01 907.34 401.36 850.76 482.24 724.41 621.04 914.22 613.67
00004561 00000106 521.08 180.20 453.74 607.00 692.02 409.26 901.26 403.47 849.96 479.34 733.80 621.35 915.58 612.97
00004562 00000107 522.09 179.70 453.12 604.82 693.32 410.38 902.22 404.48 852.12 479.44 735.30 621.45 916.45 612.86
00004563 00000108 526.30 179.94 450.13 600.53 695.15 410.50 902.90 403.11 852.90 480.89 738.27 622.05 915.79 612.37
00004564 00000109 527.10 179.31 451.17 603.15 694.95 411.33 902.39 401.34 853.51 480.52 740.35 622.31 919.68 610.49
00004565 00000110 527.63 178.84 451.21 605.79 696.39 411.62 903.04 400.85 857.37 478.42 743.36 623.13 923.38 610.59
00004566 00000111 528.49 176.37 451.02 605.15 697.46 411.71 902.53 401.97 858.02 476.28 746.15 622.74 922.30 610.89
00004567 00000112 528.33 175.50 451.09 606.44 698.73 412.16 901.08 401.78 858.64 475.09 751.55 623.85 921.91 610.96
00004568 00000113 527.22 175.89 452.31 607.40 698.36 412.64 900.81 402.18 858.94 475.47 751.34 623.82 922.78 610.99
00004569 00000114 531.34 175.51 452.89 606.85 700.16 413.31 908.01 399.75 860.53 479.43 748.54 624.49 926.23 612.55
00004570 00000115 528.25 175.01 450.73 607.59 700.02 411.96 901.70 400.70 860.71 476.49 755.27 624.99 923.33 611.48
00004571 00000116 525.75 179.19 452.24 603.23 700.40 410.93 903.38 399.47 862.61 477.66 754.41 624.75 923.66 611.20
00004572 00000117 526.23 179.68 452.32 600.90 700.28 412.06 901.83 399.01 862.52 477.50 756.70 625.58 924.31 610.75
00004573 00000118 526.32 182.36 451.86 595.92 701.01 411.58 902.45 398.77 863.16 476.99 757.91 625.67 925.30 611.10
00004574 00000119 526.42 183.48 451.88 592.28 702.30 410.61 904.23 399.02 864.89 476.18 760.72 626.22 926.52 612.48
00004575 00000120 526.62 185.42 452.79 593.86 703.71 410.73 902.13 398.48 864.34 475.58 761.11 624.88 924.99 610.88
00004576 00000121 528.51 183.72 449.23 589.47 705.44 409.61 901.56 397.24 863.56 476.39 762.34 621.95 922.87 607.92
00004577 00000122 525.88 185.03 450.83 586.06 706.56 409.47 898.13 396.96 861.94 474.76 764.14 618.05 921.81 603.78
00004578 00000123 525.69 185.78 451.57 585.20 709.08 408.69 897.02 395.86 862.23 474.96 764.12 614.89 920.16 600.49
CROP_BBOX: 309 0 1196 919
