Video ID: 	aYWmV-LhkGs
H: 	1080
W: 	1920
FPS: 	29.97002997002997

FRAME INDEX X0 Y0 W H [Landmarks (5 Points)]

00001343 00000000 877.29 174.72 370.88 511.26 973.35 360.44 1140.96 354.00 1066.32 449.34 1001.54 557.40 1121.61 553.60
00001344 00000001 875.80 174.68 370.71 510.89 971.06 359.91 1139.49 353.51 1064.18 448.06 998.66 556.72 1118.98 553.05
00001345 00000002 874.66 173.19 370.88 510.77 969.33 358.09 1140.15 353.31 1061.95 450.56 996.14 554.59 1120.89 551.91
00001346 00000003 872.13 173.79 371.41 510.35 967.10 358.85 1138.08 353.51 1059.91 449.97 994.83 555.25 1119.74 552.00
00001347 00000004 870.60 172.97 371.87 517.24 965.24 362.38 1136.42 356.60 1057.78 453.67 993.51 559.77 1121.82 556.26
00001348 DELETE   869.98 172.61 373.05 520.78 965.31 366.53 1135.92 357.90 1059.67 453.94 994.80 566.04 1125.66 560.16
00001349 00000006 870.10 174.99 373.36 522.29 967.73 371.31 1136.98 360.54 1063.69 455.97 997.21 566.65 1132.75 558.81
00001350 00000007 870.67 179.84 374.48 521.33 969.81 374.37 1141.19 362.89 1066.63 457.28 996.38 565.86 1140.72 557.34
00001351 00000008 871.49 179.37 373.72 519.42 972.00 373.64 1144.77 362.23 1071.21 456.81 998.93 565.49 1144.01 556.63
00001352 00000009 872.81 178.48 372.25 516.31 973.96 372.67 1146.42 362.94 1073.08 455.36 999.21 562.52 1144.66 555.09
00001353 00000010 873.41 178.20 372.24 515.58 974.66 371.18 1148.22 362.61 1074.40 454.66 998.44 559.73 1145.52 553.24
00001354 00000011 874.27 177.57 372.54 517.77 974.38 371.07 1147.53 362.28 1072.51 453.71 997.82 560.34 1145.13 553.80
00001355 00000012 875.09 176.85 373.31 520.69 974.97 369.87 1148.49 362.81 1070.96 453.59 996.84 560.63 1144.38 555.54
00001356 00000013 877.62 176.54 372.10 520.24 976.93 370.64 1150.38 364.45 1072.14 453.54 997.63 560.58 1146.06 556.00
00001357 00000014 878.63 176.28 373.39 520.45 978.80 371.37 1151.98 366.04 1073.80 453.64 998.59 559.61 1147.58 555.68
00001358 00000015 880.35 177.51 372.90 519.39 981.37 372.41 1153.78 367.18 1076.62 454.02 1000.36 559.20 1150.27 555.42
00001359 00000016 881.05 176.96 371.95 519.66 981.73 372.45 1153.85 367.52 1076.33 453.70 999.91 558.80 1149.96 555.33
00001360 00000017 881.56 177.97 371.55 518.36 981.84 372.73 1154.06 368.27 1076.52 454.15 999.92 558.99 1150.22 555.95
00001361 00000018 882.01 177.28 371.74 517.81 982.09 373.25 1154.53 369.05 1076.23 454.02 999.76 558.73 1150.76 555.83
00001362 00000019 881.38 177.31 372.57 517.61 981.60 372.99 1154.03 368.74 1075.89 453.65 1000.24 558.49 1150.85 555.43
00001363 00000020 882.59 174.64 371.95 518.60 981.62 372.10 1154.86 367.32 1076.61 452.71 1001.13 558.81 1151.66 555.23
00001364 00000021 882.76 171.92 371.60 520.63 981.44 371.19 1154.69 367.87 1076.49 451.81 1000.11 557.34 1151.77 554.96
00001365 00000022 883.40 171.39 371.56 518.51 980.82 369.47 1155.14 366.29 1075.68 450.79 1000.54 556.70 1151.97 554.40
00001366 00000023 883.08 168.03 372.54 522.04 980.29 368.85 1155.68 366.10 1075.69 449.89 999.73 556.04 1152.67 553.90
00001367 00000024 883.97 168.54 371.42 521.03 980.82 369.13 1156.27 366.06 1075.90 449.86 1000.34 556.28 1153.34 553.90
00001368 00000025 885.14 168.20 370.53 521.51 981.34 369.62 1156.58 367.02 1076.21 449.94 1000.77 556.24 1153.26 554.30
00001369 00000026 885.90 170.57 370.16 519.69 982.01 371.12 1157.58 367.63 1076.65 451.08 1001.53 557.60 1154.53 555.00
00001370 00000027 886.92 174.84 369.96 517.57 983.16 373.08 1158.54 370.96 1076.21 452.60 1001.56 558.66 1154.27 557.26
00001371 00000028 885.76 176.41 371.89 520.46 982.13 376.40 1157.57 374.80 1073.17 458.74 998.55 561.14 1153.20 560.18
00001372 00000029 885.56 178.86 372.39 523.57 982.95 379.69 1157.62 377.28 1074.48 463.75 998.38 563.42 1155.01 561.96
00001373 00000030 885.07 178.61 373.31 527.45 982.98 382.10 1157.14 378.90 1075.96 467.57 999.31 565.44 1157.02 563.25
00001374 00000031 884.17 179.22 373.96 530.75 983.11 386.35 1158.39 381.87 1077.59 472.69 1000.20 568.27 1161.40 565.05
00001375 00000032 883.98 181.31 377.07 534.10 983.01 388.64 1158.54 380.88 1078.38 476.09 1000.50 571.08 1163.52 565.28
00001376 00000033 884.48 185.30 377.98 531.50 984.51 390.97 1159.18 383.52 1079.52 479.23 1002.27 571.10 1166.14 565.60
00001377 00000034 886.06 187.00 377.45 529.69 985.73 392.19 1160.01 384.06 1080.75 481.32 1003.79 571.11 1168.95 565.05
00001378 00000035 886.49 186.05 378.02 531.04 985.76 392.21 1160.96 383.65 1080.52 481.65 1003.75 571.59 1169.86 565.14
00001379 00000036 887.37 186.89 377.80 528.71 986.31 394.01 1160.58 384.19 1080.59 482.75 1004.37 569.76 1171.86 562.42
00001380 00000037 889.69 187.15 376.17 525.76 985.94 394.63 1161.17 383.60 1080.42 482.87 1005.46 569.88 1172.77 561.47
00001381 00000038 891.16 189.90 376.00 523.27 987.10 395.75 1162.58 384.88 1081.27 483.86 1007.20 570.40 1174.57 562.18
00001382 00000039 892.10 189.64 376.41 523.75 987.84 397.32 1164.49 386.43 1083.04 487.24 1008.04 571.12 1177.02 562.98
00001383 00000040 892.00 189.58 375.88 522.88 988.72 397.64 1163.93 387.49 1084.12 489.20 1009.30 571.42 1175.34 564.03
00001384 00000041 894.13 187.62 374.24 523.63 992.04 395.97 1166.60 386.99 1087.37 489.57 1014.41 574.35 1173.67 567.67
00001385 00000042 896.01 187.17 374.82 523.25 996.43 394.64 1168.68 386.29 1090.94 489.40 1020.95 577.50 1170.70 570.92
00001386 00000043 897.98 185.11 373.90 525.26 1000.37 392.53 1169.69 384.80 1093.84 490.60 1026.22 581.23 1167.12 575.12
00001387 00000044 896.48 184.91 375.72 528.73 1000.17 392.69 1170.04 383.10 1094.49 492.17 1030.63 587.05 1166.35 579.29
00001388 00000045 896.26 184.12 375.42 528.11 999.37 393.47 1171.03 384.53 1094.14 495.63 1030.98 589.56 1165.52 582.34
00001389 00000046 896.33 183.71 375.67 532.16 999.67 393.62 1171.04 384.56 1094.13 494.90 1031.62 590.66 1166.29 583.35
00001390 00000047 897.89 185.63 374.77 537.72 1001.49 392.86 1171.41 384.17 1095.36 494.48 1032.05 592.41 1166.19 585.73
00001391 00000048 898.55 187.14 373.05 538.01 1003.84 393.51 1172.19 385.87 1098.23 493.36 1032.64 592.18 1165.73 586.49
00001392 00000049 899.07 185.12 373.84 532.88 1004.51 393.66 1175.55 387.50 1100.30 491.70 1032.22 589.20 1168.59 584.42
00001393 00000050 900.15 181.37 373.46 531.05 1004.29 392.65 1178.39 387.80 1101.19 491.32 1031.29 587.77 1170.46 583.94
00001394 00000051 901.96 178.54 372.50 532.21 1005.20 392.36 1178.26 386.97 1100.74 489.49 1031.52 586.26 1170.80 582.08
00001395 DELETE   900.87 184.88 375.71 527.39 1009.80 393.89 1177.12 390.20 1104.87 489.32 1035.16 581.91 1171.04 579.21
00001396 DELETE   902.52 183.07 374.83 529.32 1011.03 392.16 1175.72 388.57 1104.62 487.98 1037.10 580.45 1170.68 577.70
00001397 DELETE   905.28 183.44 373.42 520.45 1010.35 387.27 1176.98 382.42 1104.11 481.86 1037.40 576.73 1171.17 573.09
00001398 00000055 911.27 184.46 366.55 510.34 1011.67 383.09 1181.78 377.80 1105.54 473.31 1037.28 571.59 1174.99 568.35
00001399 00000056 914.63 181.23 365.81 509.22 1014.67 378.01 1187.29 371.08 1111.46 467.44 1039.72 566.44 1181.66 561.93
00001400 00000057 916.70 177.19 367.49 510.40 1019.40 362.80 1191.15 363.64 1113.92 457.64 1036.87 555.26 1175.58 556.51
00001401 00000058 926.30 171.39 365.27 509.58 1027.37 354.02 1198.80 355.28 1120.98 450.48 1047.27 546.79 1181.00 548.23
00001402 DELETE   933.76 165.27 364.66 510.30 1037.96 346.99 1206.31 348.37 1130.68 443.55 1058.42 541.56 1181.76 543.39
00001403 00000060 938.85 167.46 367.19 508.00 1046.27 342.69 1215.97 344.90 1139.66 434.87 1064.54 538.24 1186.96 541.19
00001404 00000061 942.06 161.97 371.37 512.31 1052.13 338.36 1223.69 340.28 1145.82 428.06 1067.58 535.75 1192.35 538.45
00001405 00000062 945.90 153.82 371.68 516.96 1058.94 332.97 1229.73 338.83 1151.53 424.19 1069.72 531.51 1195.25 537.76
00001406 00000063 948.18 146.43 371.98 516.91 1064.31 325.09 1236.01 338.21 1157.72 421.36 1069.37 524.29 1196.91 536.67
00001407 00000064 951.50 138.07 370.84 519.03 1071.02 323.14 1245.00 345.26 1160.65 417.02 1069.35 516.78 1201.58 536.86
00001408 00000065 947.41 135.00 374.15 518.45 1070.04 318.59 1245.18 343.06 1159.39 414.15 1067.40 512.45 1200.84 534.02
00001409 00000066 941.29 131.88 377.84 519.42 1066.89 316.44 1242.85 343.28 1155.68 413.90 1061.92 509.59 1197.45 532.96
00001410 00000067 938.17 132.79 379.47 517.76 1062.53 317.52 1239.25 343.60 1149.70 414.66 1057.22 509.19 1192.92 531.82
00001411 00000068 935.98 135.88 379.19 514.26 1058.93 319.99 1234.76 345.35 1145.21 415.30 1053.98 509.37 1189.53 531.22
00001412 00000069 934.41 138.48 378.86 513.20 1056.14 321.61 1231.00 346.33 1141.19 417.46 1051.64 511.59 1185.47 532.86
00001413 00000070 932.23 138.64 378.00 516.59 1053.41 326.33 1227.75 350.91 1138.06 419.94 1048.64 515.42 1181.84 536.81
00001414 00000071 930.32 150.58 378.09 504.46 1046.50 326.68 1219.55 344.97 1133.95 427.62 1042.52 518.65 1175.82 534.56
00001415 00000072 928.03 154.03 377.69 505.12 1044.23 329.91 1216.48 348.65 1131.25 427.48 1037.85 518.40 1178.33 534.67
00001416 00000073 926.78 156.11 375.46 504.34 1040.18 333.39 1210.99 351.48 1124.43 428.48 1032.20 518.77 1177.16 534.65
00001417 00000074 923.76 158.93 374.48 503.91 1034.22 337.83 1205.20 354.09 1117.60 431.77 1026.21 520.85 1174.18 535.05
00001418 00000075 913.28 159.26 374.43 506.54 1027.47 337.99 1205.17 359.20 1109.97 429.08 1022.99 518.62 1173.68 536.97
00001419 00000076 911.38 168.34 371.03 499.37 1020.85 343.49 1196.43 356.98 1109.70 432.88 1012.62 525.17 1171.30 536.63
00001420 00000077 909.86 163.92 368.40 506.18 1009.70 342.75 1190.30 356.78 1097.07 430.18 1010.97 528.42 1166.67 541.62
00001421 00000078 903.21 160.36 369.15 516.24 1004.83 341.45 1183.93 359.27 1092.12 434.14 1005.03 531.61 1155.33 547.58
00001422 00000079 894.42 159.29 371.53 519.49 998.27 343.18 1174.69 363.19 1085.11 438.69 997.50 535.19 1143.41 552.85
00001423 00000080 888.28 161.80 372.64 521.88 993.02 347.55 1165.44 366.40 1076.36 443.97 992.99 539.89 1133.58 556.61
00001424 00000081 881.31 165.47 376.71 523.09 985.47 349.37 1160.27 366.64 1068.32 447.58 987.84 543.60 1128.46 558.69
00001425 00000082 883.00 165.58 376.08 523.25 987.24 350.98 1161.09 368.61 1069.85 448.82 989.14 544.17 1129.01 559.58
00001426 00000083 883.94 164.65 375.75 523.81 988.99 351.07 1162.11 369.33 1072.39 449.51 991.87 545.29 1130.37 561.18
00001427 00000084 884.43 165.37 375.32 523.59 990.31 352.20 1164.33 371.56 1074.46 452.25 992.01 547.74 1130.43 564.71
00001428 00000085 885.24 166.27 374.46 523.84 990.40 354.53 1164.39 375.18 1074.34 454.04 990.54 548.16 1131.64 566.06
00001429 00000086 885.03 165.97 375.64 525.64 990.65 356.44 1165.20 378.46 1074.60 455.14 990.73 548.75 1134.76 567.72
00001430 00000087 886.14 167.19 375.97 524.90 990.73 359.51 1166.59 382.35 1074.10 456.68 988.58 548.83 1137.52 568.77
00001431 00000088 885.67 167.29 376.38 525.08 991.27 359.72 1167.66 382.93 1075.17 456.94 988.09 548.74 1138.96 569.00
00001432 00000089 886.06 167.71 376.00 523.79 991.08 360.94 1167.73 384.24 1074.44 457.76 987.65 549.34 1140.18 569.65
00001433 00000090 886.35 170.07 375.33 522.24 991.23 362.80 1168.42 384.87 1075.31 459.15 987.85 550.83 1141.86 570.15
00001434 00000091 887.45 168.98 375.31 523.56 991.86 364.18 1169.32 385.13 1077.28 460.61 990.43 552.98 1143.64 571.30
00001435 00000092 887.77 170.79 375.96 521.87 993.23 365.47 1170.58 385.42 1079.84 460.83 992.86 554.08 1145.60 571.59
00001436 00000093 889.21 171.65 375.46 520.81 994.52 366.03 1170.92 384.80 1081.32 460.66 994.67 554.06 1146.56 570.55
00001437 00000094 890.23 170.46 375.55 520.90 995.20 366.37 1172.44 384.77 1082.53 461.59 996.17 554.98 1147.54 570.91
00001438 00000095 890.36 171.07 376.71 520.89 996.27 366.70 1172.39 384.54 1083.52 461.40 997.28 554.79 1147.29 569.93
00001439 00000096 890.89 170.38 375.90 523.22 996.42 366.63 1172.17 384.46 1083.10 460.88 997.20 555.71 1146.76 571.06
00001440 00000097 891.00 171.63 376.77 523.64 996.72 366.42 1172.58 383.45 1082.44 459.55 998.63 559.70 1143.69 574.32
00001441 00000098 889.98 173.91 377.87 527.52 998.27 366.58 1172.20 381.53 1083.20 458.52 998.67 558.39 1145.00 571.55
00001442 00000099 892.24 181.18 376.16 522.64 1002.19 370.37 1172.53 382.99 1085.43 458.12 1002.64 560.25 1145.82 572.17
00001443 00000100 894.44 181.43 374.97 520.91 1005.36 370.80 1175.15 382.76 1090.51 455.47 1005.92 557.14 1151.05 568.42
00001444 00000101 893.98 176.50 377.74 522.65 1004.50 366.77 1175.98 374.64 1094.77 449.35 1010.11 555.10 1155.50 562.32
00001445 00000102 894.08 170.94 377.75 526.59 1003.94 362.89 1178.59 368.46 1097.59 445.63 1011.88 554.39 1161.65 559.46
00001446 00000103 895.16 166.41 376.37 526.98 1004.14 355.73 1180.17 361.43 1099.51 435.48 1012.65 548.82 1162.56 554.00
00001447 00000104 893.97 162.42 375.37 527.84 1002.79 350.15 1181.87 357.90 1099.25 428.68 1010.61 546.11 1161.57 553.15
00001448 00000105 892.62 160.72 375.03 526.87 1001.85 346.27 1180.82 356.35 1097.56 425.13 1009.23 542.95 1156.93 551.75
00001449 00000106 890.56 160.86 373.43 523.20 999.99 343.80 1177.26 355.03 1094.50 425.51 1007.30 540.46 1150.71 550.62
00001450 00000107 887.14 162.24 373.12 522.32 996.75 343.08 1172.22 353.98 1090.30 425.79 1002.88 538.98 1144.43 549.36
00001451 00000108 883.32 158.00 375.44 526.25 991.57 342.25 1169.99 352.41 1085.54 428.36 998.95 540.51 1140.36 550.16
00001452 00000109 879.91 159.41 375.86 525.64 987.95 341.96 1165.68 351.68 1079.48 428.97 996.49 542.68 1134.66 551.88
00001453 00000110 877.01 161.36 374.30 525.81 983.72 342.38 1161.40 350.45 1074.15 431.92 993.96 546.64 1126.65 554.53
00001454 00000111 873.23 164.40 375.02 521.85 980.51 342.48 1155.52 349.80 1069.51 436.13 991.76 547.15 1118.77 554.14
00001455 DELETE   870.62 166.42 374.49 519.87 978.06 342.27 1151.82 349.65 1067.17 436.62 990.08 547.25 1113.59 554.27
00001456 00000113 867.18 169.66 375.20 515.59 976.29 341.43 1147.83 349.67 1065.92 434.85 990.15 547.29 1109.73 554.90
00001457 00000114 863.46 169.64 376.63 513.70 974.18 341.79 1145.29 349.53 1065.16 435.69 989.13 547.33 1107.02 554.38
00001458 00000115 859.24 170.62 379.09 512.98 971.49 341.94 1140.98 349.54 1061.67 433.90 986.58 546.97 1101.80 553.78
00001459 00000116 856.91 170.22 377.81 515.55 967.79 340.04 1138.29 348.04 1057.80 432.92 978.50 547.01 1100.11 554.29
00001460 00000117 854.94 171.09 377.16 513.22 965.64 341.51 1138.23 350.53 1056.09 434.60 972.68 542.83 1106.71 550.86
00001461 00000118 852.29 170.09 377.61 511.06 964.30 342.90 1137.64 352.23 1055.55 434.90 970.15 540.63 1107.27 548.78
00001462 00000119 851.49 168.77 377.62 506.76 962.79 345.02 1137.34 354.06 1055.40 436.67 967.07 539.13 1107.95 546.84
00001463 00000120 851.23 169.15 377.79 503.74 960.82 345.10 1136.10 353.57 1053.28 436.82 966.64 537.32 1107.85 544.46
00001464 00000121 851.62 166.88 378.00 503.12 960.14 345.51 1135.83 354.07 1052.89 436.42 966.40 536.54 1109.08 543.63
00001465 00000122 851.78 167.44 378.28 502.99 959.86 346.07 1136.05 353.76 1053.17 436.50 967.24 537.42 1109.69 543.73
00001466 00000123 852.85 169.67 378.32 502.67 961.04 346.99 1136.36 354.98 1053.22 437.69 967.53 537.94 1109.63 544.63
00001467 00000124 854.23 172.36 378.17 504.54 960.84 348.46 1136.24 356.55 1051.88 439.91 967.36 540.42 1109.84 547.29
00001468 00000125 854.95 171.44 381.17 511.54 962.17 352.00 1135.76 361.42 1052.47 447.04 968.49 545.07 1110.25 553.34
00001469 00000126 857.76 175.95 380.46 515.62 964.04 353.61 1135.81 362.93 1050.87 449.94 971.36 551.32 1109.68 559.88
00001470 00000127 860.35 178.94 381.41 520.18 963.92 354.42 1136.26 363.81 1048.28 450.89 973.58 553.86 1110.78 562.84
00001471 00000128 864.41 178.92 380.38 520.05 966.15 353.92 1138.93 362.47 1049.69 449.17 975.66 553.97 1113.42 562.25
00001472 00000129 866.55 177.34 380.36 518.24 967.59 352.05 1141.69 359.97 1051.15 446.21 976.60 552.25 1116.59 559.88
00001473 00000130 870.42 171.57 377.20 517.01 969.77 350.31 1145.01 356.56 1053.62 440.25 978.58 547.64 1120.50 553.86
00001474 00000131 872.47 168.73 378.03 513.38 969.29 349.13 1146.34 353.93 1053.40 436.50 978.74 543.33 1121.97 548.36
00001475 00000132 876.12 167.90 375.42 512.41 970.32 348.80 1146.54 353.80 1052.34 437.04 978.79 542.66 1120.11 548.13
00001476 00000133 877.34 167.26 377.33 516.41 970.10 349.44 1147.13 354.99 1050.28 439.43 978.49 546.52 1119.60 552.56
00001477 00000134 882.15 169.52 372.86 519.07 971.76 351.57 1149.03 358.17 1050.46 444.86 979.76 551.53 1120.04 558.95
00001478 00000135 887.13 167.74 371.98 525.03 976.02 357.04 1152.18 361.24 1056.27 448.09 985.04 556.86 1124.39 562.37
00001479 00000136 888.67 164.93 376.12 532.57 980.06 362.64 1157.49 364.14 1063.90 452.28 993.04 565.55 1130.84 568.41
00001480 00000137 893.49 163.99 375.58 534.35 984.06 366.16 1162.87 369.19 1067.53 459.70 996.60 567.98 1138.36 572.46
00001481 00000138 897.51 163.43 377.59 535.53 988.67 370.68 1168.71 371.53 1073.28 464.17 1004.32 573.49 1146.68 575.65
00001482 00000139 900.35 168.71 379.73 532.30 996.20 372.78 1171.18 371.58 1083.18 466.93 1015.84 574.80 1149.97 575.38
00001483 00000140 907.76 174.80 377.81 528.13 1002.80 362.96 1178.17 369.09 1088.94 464.63 1019.20 568.89 1145.23 574.69
00001484 00000141 911.01 173.38 378.13 530.08 1008.28 359.81 1185.45 368.64 1096.49 460.02 1023.49 566.04 1154.97 573.93
00001485 00000142 915.66 175.30 380.89 531.22 1011.73 358.42 1192.72 366.45 1101.29 457.12 1028.45 566.24 1164.69 573.79
00001486 00000143 920.99 177.70 380.66 529.48 1018.17 357.29 1199.09 365.69 1106.81 453.46 1034.33 565.93 1170.54 573.76
00001487 00000144 926.34 179.00 382.38 526.68 1025.47 357.36 1203.02 366.74 1112.84 452.90 1040.01 564.47 1172.85 573.22
00001488 00000145 928.56 179.56 384.50 524.98 1029.47 358.21 1204.98 366.44 1116.64 455.02 1044.81 564.96 1174.34 572.68
00001489 00000146 932.69 178.61 384.72 527.16 1034.04 359.45 1208.66 367.54 1119.98 454.73 1048.37 565.42 1178.25 573.26
00001490 00000147 936.61 177.50 383.10 528.85 1038.49 360.14 1214.07 369.65 1123.45 455.24 1051.36 565.80 1182.70 574.89
00001491 00000148 940.80 178.03 381.29 528.94 1042.39 361.10 1219.18 371.04 1127.19 455.35 1053.99 566.82 1187.56 576.43
00001492 00000149 943.20 177.81 379.86 530.29 1043.77 361.92 1222.49 372.07 1129.35 455.48 1054.77 567.79 1190.90 577.78
00001493 DELETE   945.12 177.34 378.06 530.58 1044.85 362.64 1224.33 373.23 1130.79 456.28 1055.54 568.26 1193.30 578.66
00001494 00000151 945.45 177.12 379.57 531.31 1045.95 363.95 1225.89 374.01 1132.17 457.91 1056.82 569.62 1194.52 579.40
00001495 00000152 945.54 176.99 379.90 533.41 1045.96 365.47 1225.48 375.35 1132.78 460.09 1057.45 571.98 1193.52 581.63
00001496 00000153 944.40 178.24 380.75 534.23 1045.53 365.95 1223.09 375.07 1132.06 462.10 1059.12 574.08 1189.13 582.97
00001497 DELETE   941.50 177.68 382.01 539.36 1045.51 370.79 1219.78 378.94 1132.03 466.17 1059.77 579.92 1182.65 588.02
00001498 DELETE   938.71 177.37 379.88 553.67 1046.23 374.19 1215.54 380.87 1133.30 473.05 1061.42 590.92 1174.49 598.40
00001499 DELETE   933.51 180.83 383.26 561.93 1042.58 376.05 1214.01 383.08 1132.04 473.01 1056.69 596.98 1174.86 604.71
00001500 00000157 929.72 181.03 384.35 553.86 1034.98 375.28 1210.54 382.20 1121.88 475.08 1051.39 593.32 1174.41 600.56
00001501 00000158 924.45 181.92 384.33 535.94 1026.48 371.90 1204.51 378.18 1111.19 468.88 1044.69 581.23 1170.58 587.54
00001502 00000159 922.15 181.21 380.72 523.62 1021.67 368.56 1197.49 374.52 1107.81 458.82 1037.98 568.01 1168.63 573.85
00001503 00000160 917.61 179.71 380.47 516.71 1016.16 363.34 1190.88 369.16 1103.38 451.80 1036.47 561.24 1162.53 566.60
00001504 00000161 911.87 176.53 379.21 516.62 1008.65 357.02 1182.87 361.60 1098.77 446.84 1030.99 556.53 1156.59 560.67
00001505 00000162 907.89 175.60 379.32 516.49 1001.99 356.15 1176.59 358.09 1091.61 446.49 1024.68 556.04 1150.19 558.06
00001506 00000163 904.52 172.66 378.44 518.50 998.56 356.78 1172.75 358.23 1087.54 448.02 1018.26 555.24 1145.27 557.14
00001507 00000164 899.81 163.02 377.52 523.32 993.39 362.07 1169.18 357.03 1082.65 451.29 1015.94 562.84 1149.98 559.45
