Video ID: 	OSO0bzns5dQ
H: 	1080
W: 	1920
FPS: 	23.976023976023978

FRAME INDEX X0 Y0 W H [Landmarks (5 Points)]

00025666 00000000 838.20 203.64 389.10 551.01 1082.59 447.26 1184.76 498.53 1178.18 559.63 1058.57 621.09 1134.06 665.06
00025667 DELETE   860.57 206.11 375.16 540.95 1090.71 447.73 1198.88 501.74 1188.12 560.07 1066.61 618.51 1147.11 664.43
00025668 00000002 861.49 201.98 381.09 553.27 1098.00 448.34 1207.68 501.04 1190.40 563.06 1071.53 622.88 1150.12 667.48
00025669 00000003 861.73 205.08 385.02 537.74 1095.25 446.71 1206.98 499.18 1184.54 558.34 1060.01 609.71 1140.79 654.01
00025670 00000004 860.53 205.16 385.50 531.63 1091.18 445.14 1202.63 498.39 1181.16 552.36 1055.56 606.27 1136.36 651.24
00025671 00000005 845.66 201.14 400.18 542.33 1074.82 440.66 1190.91 500.39 1161.79 552.84 1035.46 602.67 1120.02 653.25
00025672 00000006 841.94 201.53 390.31 531.14 1074.43 440.22 1176.98 492.66 1157.80 546.34 1040.81 597.14 1115.05 641.66
00025673 00000007 833.98 200.41 394.40 533.62 1065.44 438.31 1169.05 485.73 1155.68 538.52 1036.70 595.04 1112.79 635.71
00025674 00000008 837.41 196.26 385.85 531.26 1061.31 437.27 1162.82 487.10 1148.44 539.06 1031.77 593.05 1103.26 635.67
00025675 00000009 826.95 204.69 386.82 517.95 1038.92 439.14 1171.56 486.19 1137.02 536.57 1016.04 597.93 1110.31 636.46
00025676 00000010 823.89 205.86 384.69 508.64 1032.29 435.61 1167.38 485.13 1127.16 535.98 1004.54 592.54 1101.59 633.45
00025677 00000011 819.77 206.08 381.19 508.72 1028.82 430.74 1156.22 482.25 1120.82 528.16 1007.52 586.09 1100.22 628.74
00025678 00000012 814.96 207.77 380.00 502.60 1025.31 424.51 1150.52 472.66 1115.42 524.83 1006.04 583.48 1096.41 623.36
00025679 00000013 809.43 207.36 380.89 494.94 1022.78 419.64 1145.87 466.51 1115.02 514.28 1008.38 575.09 1095.18 613.29
00025680 00000014 803.02 204.88 385.14 502.51 1018.75 419.67 1143.51 467.61 1116.80 516.36 1006.28 580.44 1096.71 619.54
00025681 00000015 802.95 200.78 379.98 496.28 1012.99 420.34 1130.99 465.38 1103.39 513.29 992.22 576.46 1077.78 613.27
00025682 00000016 802.19 200.14 374.92 502.43 1009.46 418.15 1128.32 461.37 1104.55 514.92 988.91 580.03 1074.21 615.88
00025683 00000017 794.51 199.94 376.29 506.17 1010.06 417.98 1122.72 466.98 1104.43 515.09 985.52 577.66 1066.46 618.43
00025684 00000018 801.13 202.59 360.47 501.46 1007.31 419.09 1114.79 461.56 1100.34 514.86 987.74 577.08 1064.37 612.66
00025685 00000019 786.72 201.77 361.18 511.08 1005.86 414.68 1104.55 459.98 1100.55 516.42 985.53 579.43 1059.75 616.95
00025686 00000020 774.36 205.23 366.10 506.05 983.12 419.83 1107.01 460.64 1081.17 520.01 971.41 576.47 1058.39 609.87
00025687 00000021 769.42 202.76 366.52 507.88 972.13 416.38 1102.02 451.69 1074.14 515.55 966.48 578.36 1056.51 606.71
00025688 00000022 765.13 197.25 365.34 507.99 965.23 417.21 1092.99 451.58 1064.28 509.11 958.47 574.35 1049.88 602.53
00025689 00000023 752.29 190.45 373.30 513.44 962.20 408.58 1084.50 448.60 1059.55 506.73 955.12 571.68 1041.05 604.26
00025690 00000024 748.62 186.49 366.74 519.28 961.07 407.93 1076.18 446.47 1058.29 507.42 959.30 576.49 1039.41 607.89
00025691 00000025 746.85 189.10 364.28 511.80 961.43 406.87 1075.72 443.12 1059.83 507.32 960.98 577.31 1040.08 606.43
00025692 00000026 744.60 188.69 364.18 510.35 960.32 406.36 1074.13 441.29 1059.83 507.76 959.54 577.92 1038.24 605.84
00025693 00000027 743.25 188.87 363.44 503.77 961.02 404.91 1072.30 439.37 1060.03 505.06 959.76 575.23 1036.72 602.78
00025694 00000028 743.72 188.30 360.93 503.53 957.64 402.28 1072.76 435.83 1057.59 503.19 959.84 575.67 1039.82 602.44
00025695 00000029 741.03 187.64 362.76 501.22 954.72 399.11 1070.21 432.51 1055.23 501.01 956.75 574.00 1036.80 600.47
00025696 00000030 740.31 186.11 361.49 501.38 954.64 398.07 1066.91 429.40 1052.38 497.90 958.21 572.44 1036.65 597.14
00025697 00000031 740.26 183.16 359.57 506.69 950.85 395.46 1063.75 425.36 1050.44 492.59 958.21 571.60 1037.41 595.23
00025698 00000032 730.22 179.52 369.77 523.72 948.75 394.80 1057.62 430.67 1050.61 481.99 957.56 570.44 1036.76 598.67
00025699 00000033 739.99 180.79 359.06 532.52 948.52 394.11 1064.15 442.05 1050.36 484.67 926.11 562.27 1021.99 603.20
00025700 00000034 732.91 185.81 356.20 517.96 944.37 390.34 1056.45 432.97 1045.54 481.63 919.42 553.96 1013.02 591.05
00025701 00000035 721.05 173.85 365.70 526.62 935.68 387.62 1053.65 426.95 1046.66 472.76 921.03 551.51 1018.09 585.52
00025702 DELETE   715.26 161.39 367.54 527.35 924.69 387.96 1042.86 414.74 1044.37 471.69 928.51 556.12 1030.20 581.10
00025703 00000037 710.09 158.68 372.27 525.84 917.11 388.61 1036.99 405.89 1041.56 461.76 942.04 557.22 1038.61 573.68
00025704 00000038 710.81 154.29 367.19 524.49 911.92 385.81 1035.53 402.51 1038.09 458.94 934.83 554.57 1034.24 570.42
00025705 00000039 710.55 155.12 363.29 521.25 906.80 387.57 1031.17 402.58 1035.80 454.11 934.69 552.90 1035.17 567.32
00025706 00000040 704.59 151.54 366.78 524.06 906.89 386.09 1029.45 400.72 1036.41 451.79 938.00 553.73 1035.50 567.59
00025707 00000041 706.29 153.65 364.49 523.79 906.43 386.41 1029.44 399.48 1038.17 451.64 941.08 556.81 1038.23 569.24
00025708 00000042 709.55 154.23 360.56 520.72 907.69 386.94 1029.43 397.94 1036.60 450.66 940.72 554.61 1037.09 565.54
00025709 00000043 699.43 155.94 366.88 515.16 904.14 384.25 1027.52 396.94 1034.92 451.61 933.67 552.74 1033.80 564.87
00025710 00000044 698.22 157.06 363.86 517.68 902.37 383.15 1026.17 397.06 1031.67 455.45 922.79 552.50 1027.37 566.07
00025711 00000045 704.87 157.96 353.63 514.78 902.11 382.54 1027.14 400.27 1024.95 463.08 906.84 550.27 1015.33 567.17
00025712 00000046 706.49 154.87 350.74 515.18 905.64 379.07 1028.12 400.69 1021.99 465.38 898.98 546.14 1004.58 566.33
00025713 00000047 703.26 154.97 352.51 517.86 904.26 378.29 1027.89 399.42 1019.54 466.14 894.53 547.25 1000.10 567.26
00025714 00000048 701.62 153.56 353.87 524.07 899.81 379.26 1028.24 397.27 1017.66 467.01 893.06 551.02 1000.57 568.71
00025715 00000049 694.62 150.90 361.26 535.06 895.16 380.92 1026.09 395.89 1016.81 466.08 894.31 555.65 1001.74 571.30
00025716 00000050 694.75 148.62 361.34 545.08 895.15 377.29 1025.70 395.23 1017.02 462.89 893.45 555.96 1001.98 574.19
00025717 00000051 696.41 145.47 359.85 552.69 895.66 369.06 1025.49 390.93 1017.86 459.68 893.87 555.68 1000.29 576.70
00025718 00000052 695.61 146.39 361.86 551.22 898.13 368.27 1026.38 388.50 1025.70 456.96 904.17 556.71 1011.07 576.06
00025719 00000053 697.70 149.69 360.70 545.84 898.58 369.15 1024.57 387.50 1028.55 454.83 911.32 557.65 1014.98 575.28
00025720 00000054 700.38 152.75 360.78 531.76 900.74 375.88 1023.85 389.23 1031.76 454.66 923.98 558.37 1024.84 571.39
00025721 00000055 700.34 151.75 362.88 526.08 900.65 379.36 1025.86 391.52 1033.36 452.56 932.15 558.43 1031.38 569.93
00025722 00000056 703.29 153.47 360.94 517.38 902.26 382.62 1025.49 392.53 1034.61 450.97 936.38 555.14 1033.80 564.92
00025723 00000057 711.30 156.54 356.55 516.18 904.02 383.89 1026.45 394.72 1035.35 450.45 938.78 554.58 1034.89 565.28
00025724 00000058 708.94 154.72 359.06 521.75 904.52 384.97 1026.85 396.60 1036.47 452.48 938.02 556.60 1034.70 568.00
00025725 00000059 710.99 156.74 360.98 520.74 906.97 385.16 1030.87 397.78 1037.31 455.36 940.34 556.92 1037.23 569.10
00025726 00000060 717.74 157.77 357.59 521.55 908.98 387.57 1035.15 398.83 1038.09 457.65 939.68 558.04 1039.80 569.34
00025727 00000061 716.37 156.90 359.92 525.63 910.25 385.25 1034.33 400.69 1038.16 456.28 937.84 559.12 1036.72 573.85
00025728 00000062 725.20 152.11 355.39 533.76 918.20 381.96 1041.92 406.28 1043.49 452.26 946.76 557.18 1037.97 576.86
00025729 00000063 719.62 154.51 362.77 535.11 910.58 389.05 1039.91 399.80 1044.29 458.09 954.23 568.70 1050.53 579.12
00025730 00000064 725.85 154.79 357.82 527.60 925.62 380.46 1043.90 404.66 1048.56 457.04 955.84 558.51 1041.94 578.89
00025731 00000065 731.97 154.14 353.88 526.34 929.19 383.59 1045.67 408.26 1052.23 456.39 957.09 557.39 1045.07 578.46
00025732 00000066 738.29 155.60 351.83 528.75 929.58 386.96 1050.88 407.23 1054.55 458.87 957.44 560.80 1051.15 578.01
00025733 00000067 745.88 160.54 345.38 521.62 930.17 391.10 1052.39 406.47 1053.17 460.51 958.29 561.07 1053.98 574.17
00025734 00000068 746.86 165.23 348.64 519.55 931.23 394.44 1056.77 406.75 1054.29 465.14 957.68 564.48 1056.68 575.33
00025735 00000069 748.59 168.77 348.57 524.49 927.71 398.93 1057.35 408.47 1051.82 468.74 956.51 570.76 1059.96 578.81
00025736 00000070 747.50 168.53 349.71 527.81 923.04 401.85 1055.41 406.02 1048.96 469.84 952.79 573.40 1059.45 577.03
00025737 00000071 744.66 165.03 350.72 529.46 916.89 405.34 1050.84 405.40 1044.21 472.15 948.46 575.82 1053.53 576.35
00025738 00000072 735.82 164.06 356.11 533.53 913.44 404.85 1045.89 406.66 1042.91 471.45 946.81 576.30 1048.92 578.71
00025739 00000073 731.88 167.91 357.54 522.90 909.27 406.21 1041.78 405.38 1036.78 471.26 944.69 574.16 1044.27 574.53
00025740 00000074 734.81 168.45 354.09 521.41 905.74 406.28 1039.37 405.11 1033.44 468.85 942.49 574.14 1043.62 574.43
00025741 00000075 735.14 164.52 352.41 526.93 905.55 405.96 1038.58 405.75 1034.65 468.01 942.20 573.84 1044.65 575.09
00025742 00000076 733.41 163.58 353.32 524.04 902.21 405.00 1035.11 403.64 1029.51 466.83 940.04 572.07 1040.84 572.31
00025743 00000077 728.29 163.39 357.83 526.02 898.20 404.28 1032.69 401.81 1026.45 465.84 937.78 572.70 1038.25 571.53
00025744 00000078 724.98 161.78 357.87 526.19 897.73 403.86 1028.90 402.88 1022.58 465.25 936.90 571.08 1033.08 571.11
00025745 00000079 723.89 163.77 357.54 521.52 895.48 402.69 1027.47 401.49 1019.92 464.26 935.56 569.88 1030.80 569.47
00025746 00000080 722.51 164.33 358.04 518.79 891.81 401.66 1025.51 401.55 1015.48 463.28 931.85 567.59 1027.95 567.63
00025747 00000081 719.23 162.92 360.05 527.40 887.40 400.21 1022.43 404.15 1010.64 464.32 922.27 568.61 1019.18 571.57
00025748 00000082 719.58 162.70 359.07 528.42 884.14 400.34 1021.56 404.82 1007.13 464.76 917.98 568.95 1017.48 572.21
00025749 00000083 716.58 163.25 359.92 527.69 883.20 399.90 1020.22 406.18 1004.92 464.80 914.73 568.10 1013.53 572.79
00025750 00000084 713.18 163.90 361.49 531.46 880.92 400.19 1020.02 406.65 1004.60 465.57 910.23 568.58 1011.77 573.44
00025751 00000085 713.17 164.39 360.44 532.52 880.65 399.13 1021.80 407.12 1003.91 468.02 905.40 569.10 1007.48 575.53
00025752 00000086 715.02 161.16 358.13 534.51 894.09 399.62 1034.78 400.95 1017.20 483.25 905.40 577.22 1015.36 582.11
00025753 00000087 711.47 160.23 360.41 539.14 895.80 397.91 1035.31 403.55 1016.94 483.90 897.25 574.10 1009.31 582.97
00025754 00000088 702.44 165.16 370.75 534.80 884.49 394.30 1026.11 408.04 1010.08 468.39 896.62 565.38 999.96 577.31
00025755 00000089 706.17 164.99 369.84 534.70 886.81 390.17 1027.33 405.91 1011.49 467.28 896.64 562.29 1001.39 576.03
00025756 00000090 712.72 163.29 361.67 534.02 900.60 390.66 1037.51 402.56 1021.24 481.50 895.05 566.79 1008.58 580.61
00025757 00000091 719.99 166.52 355.33 531.40 904.84 392.39 1038.66 404.13 1023.46 482.27 894.60 564.83 1007.41 578.86
00025758 00000092 720.16 166.09 356.15 532.23 905.71 392.84 1038.86 404.21 1025.54 481.53 898.34 565.16 1010.09 578.79
00025759 00000093 717.49 169.34 362.49 529.26 899.29 388.06 1034.65 409.34 1024.45 467.10 904.93 558.20 1008.35 576.34
00025760 00000094 721.63 168.56 360.95 530.41 898.53 392.53 1036.54 411.06 1025.26 466.33 909.51 559.38 1018.12 575.23
00025761 00000095 725.65 165.82 359.30 533.67 895.89 394.47 1037.39 411.36 1024.17 465.12 914.12 562.04 1025.53 576.58
00025762 00000096 725.68 164.45 360.03 534.82 898.49 396.08 1037.70 412.38 1026.49 464.92 918.58 563.09 1028.49 577.14
00025763 00000097 729.59 162.85 356.55 533.97 900.14 396.98 1037.71 411.78 1026.83 465.51 921.49 563.32 1029.08 576.20
00025764 00000098 725.51 163.25 361.09 531.72 904.36 400.75 1036.22 412.78 1031.00 467.34 930.72 566.37 1031.47 576.82
00025765 00000099 723.88 165.13 362.85 528.77 907.44 399.59 1038.00 412.22 1032.69 469.83 935.43 568.52 1031.26 579.55
00025766 00000100 721.82 165.70 364.73 531.40 909.57 400.94 1040.59 411.82 1036.67 472.20 939.23 572.91 1033.81 582.07
00025767 00000101 717.92 166.83 368.52 531.11 907.87 401.01 1038.24 414.69 1034.45 470.98 937.09 572.18 1030.87 583.37
00025768 00000102 714.97 168.25 368.29 535.13 905.87 400.17 1034.78 414.93 1032.65 471.25 934.41 572.43 1027.89 584.34
00025769 00000103 711.36 168.76 369.77 536.46 900.14 399.57 1030.49 416.52 1023.83 470.86 924.73 571.26 1020.50 585.01
00025770 00000104 707.40 175.47 369.50 534.14 893.34 401.81 1028.24 419.96 1011.88 477.74 902.75 571.41 1001.73 586.47
00025771 00000105 695.98 175.25 376.71 535.04 889.23 403.34 1022.19 420.44 1004.24 481.91 890.94 571.64 989.67 586.04
00025772 00000106 697.99 173.25 372.05 537.19 886.60 401.41 1019.92 422.45 999.04 483.87 881.46 569.48 981.76 587.50
00025773 00000107 687.02 170.03 374.98 540.26 882.64 396.33 1016.72 417.92 993.73 485.21 874.68 570.24 975.40 588.45
00025774 00000108 680.40 167.57 376.96 544.90 876.82 391.07 1010.85 410.55 986.38 488.22 868.23 570.47 967.94 587.36
00025775 00000109 678.41 166.45 373.26 542.99 872.04 392.24 1007.46 408.78 984.28 489.31 863.86 570.79 965.48 585.76
00025776 00000110 673.47 166.99 373.62 543.41 867.85 393.22 1003.93 408.80 979.96 493.73 856.44 571.94 960.65 586.60
00025777 00000111 673.32 174.37 369.76 537.76 871.05 388.83 1008.72 411.11 987.21 493.64 853.14 575.35 964.76 595.50
00025778 00000112 668.68 176.47 370.61 535.57 867.31 390.64 1005.14 414.44 982.79 491.23 846.71 571.87 962.22 593.25
00025779 00000113 667.37 175.35 370.06 532.40 860.20 391.54 1004.04 414.23 977.21 489.13 841.93 571.62 961.02 592.13
00025780 00000114 661.54 174.48 373.67 531.39 855.75 393.43 1001.62 415.56 973.18 488.38 838.70 571.16 958.68 591.02
00025781 00000115 659.01 175.26 372.78 532.49 850.67 392.63 996.40 414.99 968.46 485.62 837.13 572.45 955.58 592.02
00025782 00000116 650.65 172.15 376.24 541.73 846.36 394.05 990.08 420.08 965.28 486.99 831.61 573.52 950.72 596.22
00025783 00000117 647.25 171.67 378.35 546.92 837.20 393.73 985.10 418.87 961.55 485.98 823.25 571.63 949.67 594.06
00025784 00000118 646.44 169.49 374.02 541.32 827.91 394.17 976.69 413.35 952.77 480.24 822.29 567.79 948.45 584.91
00025785 00000119 642.06 164.73 371.02 537.35 823.92 391.87 971.63 410.16 946.19 479.30 822.12 566.95 941.38 583.10
00025786 00000120 644.06 154.43 365.79 546.24 826.26 392.41 972.32 403.77 947.23 482.91 821.61 566.38 944.76 580.10
00025787 00000121 637.46 151.58 364.90 546.90 820.02 388.92 966.11 401.18 941.24 482.18 816.18 565.25 937.33 579.68
00025788 00000122 629.71 153.86 366.49 544.13 814.27 389.82 960.68 402.06 936.05 482.04 813.77 565.92 935.18 579.97
00025789 00000123 622.71 158.32 368.03 538.55 810.37 390.98 955.96 399.75 932.68 483.87 809.14 566.18 930.60 577.43
00025790 00000124 619.52 158.83 367.56 537.93 806.41 392.34 953.29 399.69 930.07 483.40 808.77 568.59 929.50 578.55
00025791 00000125 615.84 159.85 366.04 537.33 803.46 395.79 948.58 401.83 927.38 486.12 807.73 570.06 926.99 579.09
00025792 00000126 611.78 161.38 369.08 539.41 802.53 396.02 946.26 402.11 927.43 489.76 806.36 572.60 923.41 581.79
00025793 00000127 609.53 161.42 368.52 544.03 802.05 397.20 946.09 404.86 928.54 491.34 804.81 575.47 922.43 586.16
00025794 00000128 608.43 166.76 374.38 543.76 787.41 404.46 941.82 411.03 918.17 487.27 799.62 581.65 920.58 588.55
00025795 00000129 611.22 169.41 372.12 542.39 789.10 406.87 944.57 415.44 919.02 489.53 799.45 583.28 921.57 591.93
00025796 00000130 610.93 172.87 373.34 541.15 789.71 408.90 946.54 417.91 920.08 490.45 801.24 585.19 924.30 594.09
00025797 00000131 614.94 175.50 368.14 535.32 793.08 413.96 944.30 420.74 919.02 491.85 804.71 585.64 921.04 592.66
00025798 00000132 609.74 176.40 367.67 534.13 787.89 417.94 937.68 419.38 911.31 500.75 801.68 593.21 914.78 595.61
00025799 DELETE   604.42 177.51 372.72 535.69 779.37 416.75 939.31 414.32 907.27 518.57 792.04 605.19 910.93 605.24
00025800 DELETE   590.37 194.61 371.47 533.56 755.62 435.72 925.87 425.80 885.40 527.96 771.12 618.80 897.50 611.89
00025801 DELETE   587.18 211.28 365.48 529.61 736.23 450.18 909.44 443.06 862.84 539.34 752.26 624.70 885.81 620.62
00025802 00000136 581.16 219.63 367.15 529.26 730.08 445.82 903.42 443.71 859.08 549.58 743.33 626.08 883.05 627.38
00025803 00000137 578.60 223.51 366.28 530.24 731.24 452.31 898.71 451.57 855.89 552.55 742.75 627.53 879.76 629.74
00025804 00000138 582.75 227.17 364.16 526.80 735.87 454.07 903.54 452.35 864.64 554.67 743.80 627.88 883.75 630.16
00025805 00000139 585.12 228.24 362.73 527.25 741.62 460.26 906.57 452.64 873.29 558.32 748.21 633.99 884.89 631.76
00025806 00000140 586.66 234.77 360.58 520.55 743.04 470.33 906.12 459.88 874.72 560.43 756.17 641.59 885.16 636.02
00025807 00000141 591.28 242.52 358.91 514.68 742.72 476.90 909.32 467.20 870.85 566.85 758.04 649.02 885.39 643.37
00025808 00000142 592.52 248.24 361.65 511.30 742.91 479.23 915.29 470.68 869.60 569.25 760.55 653.67 889.42 648.32
00025809 00000143 593.41 251.25 361.47 509.44 745.27 479.03 916.90 471.07 870.96 570.10 762.60 654.35 890.17 649.50
00025810 00000144 596.50 248.19 361.82 511.23 748.00 477.53 920.30 470.78 873.81 569.41 763.91 653.50 892.93 649.48
00025811 00000145 600.42 244.57 360.67 512.90 751.13 474.42 922.62 468.47 877.42 569.09 767.81 653.53 894.30 650.09
00025812 00000146 602.12 242.58 359.79 511.78 753.32 471.82 922.05 467.65 879.13 567.22 771.52 652.29 894.82 650.13
00025813 00000147 603.60 240.98 361.15 512.06 754.28 470.31 921.58 466.45 879.50 565.61 773.88 651.42 895.84 649.48
00025814 00000148 603.73 241.32 361.85 516.15 756.69 469.46 922.98 465.98 882.60 565.23 773.98 651.78 899.05 650.43
00025815 00000149 607.74 240.36 359.80 515.57 759.81 464.99 926.96 463.23 886.00 564.63 775.27 650.22 900.70 650.71
00025816 00000150 612.70 239.38 358.74 516.33 765.64 462.62 930.63 464.06 890.97 561.27 780.62 648.59 904.26 651.71
00025817 00000151 614.80 235.31 361.30 521.88 770.03 462.17 932.76 463.21 895.65 558.68 786.27 648.29 909.01 651.00
00025818 00000152 616.50 236.68 361.81 521.09 773.08 460.77 936.04 463.82 899.77 555.55 789.22 648.22 912.70 652.45
00025819 00000153 616.65 235.39 362.96 523.34 777.70 457.32 937.87 464.23 902.57 554.56 790.49 645.49 912.39 652.87
00025820 00000154 619.78 235.45 361.39 523.29 779.95 456.34 939.25 465.66 904.28 554.20 791.87 645.05 913.39 654.36
00025821 00000155 619.06 235.30 364.11 524.63 781.93 454.80 942.56 466.65 907.01 554.41 788.81 641.89 915.03 653.39
00025822 00000156 617.98 232.92 367.17 527.28 784.51 449.65 945.28 464.64 908.76 553.50 786.82 638.76 913.56 652.75
00025823 00000157 598.97 212.08 385.26 549.40 782.82 448.52 948.31 455.48 908.82 547.36 790.79 632.79 912.66 640.12
00025824 00000158 599.56 209.22 383.14 545.07 785.36 445.32 948.11 452.35 911.37 542.25 790.89 624.93 912.90 632.00
00025825 00000159 601.59 204.97 383.33 545.13 785.13 443.05 946.22 452.30 907.27 537.90 787.34 619.62 909.45 628.38
00025826 00000160 602.34 203.98 383.62 543.66 784.60 441.57 945.27 451.01 906.36 535.82 786.97 616.28 909.99 625.09
00025827 00000161 600.77 204.64 385.06 545.40 786.03 442.62 945.20 451.49 908.45 537.38 788.18 616.04 910.79 624.40
00025828 00000162 601.12 204.89 383.06 544.95 788.59 443.44 946.80 450.20 912.94 539.53 792.26 616.51 914.50 623.15
00025829 00000163 602.53 206.81 380.70 545.18 791.74 445.90 950.72 447.87 919.60 541.94 797.67 622.25 917.09 625.24
00025830 00000164 602.51 205.31 381.95 544.63 794.45 447.92 950.78 444.73 921.40 544.04 807.09 630.55 917.94 629.04
00025831 00000165 600.83 203.83 382.92 541.91 793.98 446.26 947.71 440.36 920.39 539.80 815.62 633.67 918.90 629.33
00025832 00000166 602.84 196.54 376.84 535.04 789.58 443.18 942.13 438.91 917.57 528.79 816.36 626.11 917.95 622.29
00025833 00000167 601.66 190.86 381.02 532.69 783.25 435.44 937.48 433.96 907.45 518.50 808.67 615.36 915.90 613.99
