Video ID: 	VqFDkWY737A
H: 	1080
W: 	1920
FPS: 	25.0

FRAME INDEX X0 Y0 W H [Landmarks (5 Points)]

00009306 00000000 782.33 127.85 415.79 628.99 889.98 361.54 1077.54 428.26 929.31 522.31 844.86 568.13 1014.73 624.30
00009307 DELETE   788.02 121.17 414.57 635.09 896.28 359.59 1083.26 430.45 933.97 524.60 849.17 568.08 1015.91 627.62
00009308 00000002 792.48 119.61 413.85 638.01 900.93 358.65 1086.84 431.56 938.37 527.12 851.96 565.61 1020.55 626.56
00009309 00000003 795.72 117.54 414.63 639.25 903.03 357.38 1091.01 430.43 941.77 526.40 855.98 566.57 1025.13 627.61
00009310 00000004 797.74 117.44 413.75 636.55 905.54 356.78 1093.03 429.65 943.90 526.32 859.70 565.19 1027.25 625.88
00009311 00000005 792.55 129.41 419.99 615.73 908.61 358.35 1088.48 423.13 948.25 514.04 866.49 554.56 1033.31 608.11
00009312 00000006 802.17 111.93 413.97 639.44 920.48 354.24 1101.19 426.11 961.44 513.44 872.82 561.06 1029.63 621.81
00009313 00000007 797.36 130.10 418.23 613.50 913.57 356.81 1092.40 422.35 953.12 508.27 870.95 553.35 1035.49 607.59
00009314 DELETE   798.94 135.76 413.04 605.15 915.62 360.62 1091.34 422.92 955.81 508.08 874.81 554.93 1037.07 606.68
00009315 00000009 800.07 136.13 412.66 598.49 914.39 361.03 1092.39 420.71 955.88 505.12 880.40 560.47 1032.98 609.86
00009316 00000010 803.67 132.82 411.38 603.34 916.52 361.68 1095.14 417.73 959.93 506.53 887.67 565.95 1034.23 612.26
00009317 00000011 808.77 125.54 405.47 616.04 918.44 360.57 1097.55 421.44 959.67 509.87 885.19 571.21 1028.73 621.81
00009318 00000012 808.35 121.79 405.99 618.55 916.97 359.20 1097.42 421.15 957.23 508.17 882.67 570.42 1027.75 621.92
00009319 00000013 806.02 120.24 407.29 619.43 915.36 359.00 1094.29 422.12 954.92 506.70 880.30 571.36 1022.37 623.88
00009320 00000014 804.81 117.52 406.69 623.62 912.28 359.36 1092.23 424.96 951.45 511.08 875.90 571.30 1020.98 625.74
00009321 00000015 804.55 116.36 406.67 624.60 909.32 359.79 1089.64 425.67 947.12 512.65 873.93 571.48 1019.88 626.02
00009322 00000016 802.33 120.27 405.86 621.52 909.06 359.87 1087.62 427.77 945.46 512.29 870.78 569.24 1017.33 625.67
00009323 00000017 799.03 119.06 406.68 622.76 907.16 360.15 1085.15 428.97 945.18 513.25 866.97 567.78 1014.48 625.24
00009324 00000018 797.30 116.52 408.34 623.65 904.52 360.17 1082.64 427.66 942.67 512.75 865.00 566.42 1013.29 622.79
00009325 00000019 796.30 121.46 405.97 617.12 902.47 359.90 1079.07 427.24 939.56 511.80 862.20 562.80 1012.20 619.09
00009326 00000020 795.30 123.32 406.35 613.63 900.62 359.42 1075.73 427.31 935.06 508.42 860.00 560.09 1009.26 616.85
00009327 00000021 796.49 124.04 403.60 607.75 899.95 363.45 1073.35 428.41 934.89 510.27 860.62 559.12 1010.12 613.24
00009328 00000022 796.63 127.42 402.38 604.21 900.52 364.81 1073.00 429.70 937.17 508.70 858.20 554.63 1011.64 609.07
00009329 00000023 795.84 129.16 402.02 601.58 900.74 364.70 1073.27 429.82 937.48 508.01 856.23 551.90 1012.26 606.85
00009330 00000024 797.03 130.23 402.17 599.54 901.35 364.36 1073.77 430.34 936.76 508.38 856.77 553.05 1010.96 608.53
00009331 00000025 798.29 128.11 401.18 600.82 901.80 362.59 1075.32 430.39 935.65 506.53 857.21 554.40 1008.92 611.14
00009332 00000026 796.37 127.96 403.41 599.74 901.60 360.08 1077.03 428.99 933.76 505.64 856.11 554.47 1007.32 612.24
00009333 00000027 796.22 126.80 404.08 601.99 901.71 358.43 1077.32 428.05 934.06 506.23 856.19 554.56 1007.04 613.00
00009334 00000028 797.77 124.27 402.20 605.77 902.44 358.66 1077.06 429.47 934.18 506.55 856.98 554.22 1007.18 613.53
00009335 00000029 797.39 125.82 403.09 605.37 902.85 359.51 1077.06 429.53 934.35 505.94 856.85 553.94 1008.08 612.50
00009336 00000030 795.75 127.44 405.05 605.05 902.40 360.03 1077.50 428.97 934.29 505.86 856.10 554.54 1008.21 612.41
00009337 00000031 795.95 124.82 405.69 612.18 903.10 360.65 1077.52 429.75 934.46 505.95 856.12 555.63 1008.98 613.54
00009338 00000032 796.20 127.04 404.75 610.85 902.65 361.43 1076.13 429.20 933.68 505.51 855.38 557.15 1007.44 614.16
00009339 00000033 796.99 128.88 402.42 611.02 902.18 360.84 1074.70 429.67 932.75 507.22 854.64 557.48 1006.82 615.39
00009340 00000034 796.62 127.74 403.28 614.79 900.89 360.67 1074.62 429.75 931.31 507.79 853.44 558.64 1007.41 616.66
00009341 00000035 792.76 133.46 404.87 610.90 900.19 364.33 1073.19 426.07 934.79 500.37 857.87 557.37 1015.79 608.12
00009342 00000036 792.40 133.10 405.59 610.98 899.59 364.50 1073.04 425.74 934.53 499.78 858.25 558.62 1016.07 608.77
00009343 00000037 791.93 133.59 406.56 610.74 899.35 364.66 1072.95 424.81 934.28 499.50 858.72 559.98 1016.09 609.14
00009344 00000038 792.39 131.57 406.47 611.99 899.60 364.99 1072.08 425.56 934.44 499.42 859.61 560.01 1014.83 609.41
00009345 00000039 794.84 127.40 405.20 610.74 899.74 362.31 1072.61 429.93 929.85 504.18 855.80 559.59 1003.58 616.35
00009346 00000040 793.87 129.54 404.20 598.34 897.93 362.24 1072.75 427.58 930.12 502.83 857.10 557.58 1004.66 612.26
00009347 00000041 792.63 128.27 405.10 600.05 893.40 363.97 1068.40 425.63 925.14 503.18 854.69 556.93 1005.44 608.43
00009348 00000042 793.61 129.29 401.70 596.52 892.37 365.52 1066.24 427.28 924.67 502.71 853.85 555.96 1003.86 607.51
00009349 00000043 792.89 132.81 402.17 593.41 891.59 364.95 1063.76 428.98 922.14 504.55 850.97 553.70 1001.50 607.27
00009350 00000044 790.53 133.26 404.14 599.15 889.55 364.59 1062.05 430.41 918.22 507.01 846.65 555.62 998.84 610.80
00009351 00000045 789.34 133.25 404.42 603.00 888.20 365.54 1060.22 431.88 915.60 510.45 843.61 558.65 994.68 614.36
00009352 00000046 787.60 130.64 399.02 601.48 888.12 363.14 1066.04 429.37 917.09 503.70 841.23 553.26 997.73 608.93
00009353 00000047 787.28 155.56 397.63 578.65 890.62 352.08 1069.71 419.81 917.48 491.36 842.24 543.48 1004.81 599.65
00009354 00000048 788.96 157.59 395.97 574.81 895.35 345.02 1074.51 410.86 924.72 479.43 847.44 542.83 1004.64 597.58
00009355 00000049 794.64 174.26 390.71 545.55 898.72 346.96 1072.75 403.17 927.08 471.15 856.80 542.92 997.45 590.59
00009356 DELETE   800.48 171.04 385.90 541.15 899.63 345.84 1073.09 397.39 929.10 466.06 863.84 541.35 999.59 585.95
00009357 00000051 803.75 166.26 381.48 545.41 900.65 344.10 1076.55 396.56 930.77 464.86 865.47 539.63 1007.42 585.39
00009358 00000052 805.43 170.22 383.43 532.63 903.50 342.35 1079.01 396.14 934.80 459.70 867.68 536.06 1006.45 582.47
00009359 00000053 806.06 163.69 388.38 531.15 904.17 340.40 1083.15 394.34 939.26 458.51 870.19 533.77 1011.16 579.84
00009360 00000054 808.76 169.32 394.36 524.81 908.44 339.00 1089.28 394.44 943.81 455.20 871.98 532.79 1019.08 580.39
00009361 00000055 812.57 173.41 396.53 517.38 912.47 335.98 1093.15 394.20 945.85 453.00 873.15 527.26 1024.56 577.60
00009362 00000056 811.57 171.91 401.08 528.07 931.45 330.02 1105.00 390.60 965.38 450.82 882.32 524.07 1032.35 574.48
00009363 00000057 815.00 168.14 403.51 536.89 938.78 325.63 1111.45 391.61 969.56 450.12 883.25 520.99 1033.26 576.21
00009364 00000058 815.38 175.49 403.99 531.06 942.50 323.72 1115.30 391.14 973.12 448.77 883.46 520.17 1036.57 576.45
00009365 00000059 817.42 166.18 402.23 542.91 945.89 323.36 1119.69 392.22 976.57 449.73 887.08 519.88 1041.16 577.57
00009366 00000060 827.28 175.00 397.35 534.97 942.50 325.78 1118.76 398.60 976.62 452.03 888.46 516.55 1047.05 576.69
00009367 00000061 830.78 185.45 395.05 524.64 943.94 328.62 1118.78 398.70 977.71 457.97 891.78 519.32 1049.79 577.12
00009368 00000062 833.27 181.85 396.55 528.90 947.90 329.63 1121.82 400.60 978.95 460.73 895.89 519.29 1051.81 577.85
00009369 00000063 836.07 175.48 401.59 533.66 953.08 331.25 1125.50 403.26 980.64 461.10 898.18 517.90 1051.60 577.15
00009370 00000064 839.57 178.63 400.54 530.11 955.46 330.83 1126.67 402.97 979.91 462.07 900.13 519.98 1049.85 578.98
00009371 00000065 841.46 173.45 398.75 533.82 958.52 333.25 1127.59 408.01 983.11 463.82 902.57 518.93 1050.04 580.23
00009372 00000066 840.80 175.61 402.39 536.54 962.35 339.04 1132.92 412.63 991.48 466.37 906.53 524.77 1055.20 585.48
00009373 00000067 841.51 173.90 401.64 540.65 962.23 338.93 1133.16 414.75 991.63 468.06 907.98 523.69 1058.60 586.05
00009374 00000068 840.69 180.05 401.79 533.75 962.76 337.79 1135.56 416.62 991.40 471.59 908.28 523.03 1058.21 587.41
00009375 00000069 841.51 181.17 401.38 531.91 963.96 336.46 1136.36 416.78 990.78 473.33 908.88 522.58 1057.22 588.12
00009376 00000070 839.86 176.47 403.85 537.36 963.03 335.49 1136.85 415.04 992.53 471.08 908.52 522.53 1058.47 587.54
00009377 00000071 839.34 169.82 405.77 544.45 963.60 334.24 1136.74 414.81 992.25 468.12 907.98 520.77 1057.46 586.65
00009378 00000072 840.01 172.44 405.40 540.53 962.94 333.25 1134.88 413.09 990.08 468.76 908.25 520.62 1054.85 585.78
00009379 00000073 838.34 171.28 406.75 542.25 962.37 333.69 1135.09 413.79 989.46 469.33 907.17 521.49 1053.42 586.94
00009380 00000074 838.98 170.63 404.03 541.56 961.31 333.23 1133.14 413.31 987.90 471.96 906.03 521.62 1050.66 587.08
00009381 00000075 838.75 171.88 403.14 539.30 958.68 333.61 1130.63 411.73 985.28 473.32 903.45 522.67 1049.31 586.56
00009382 00000076 837.56 176.09 400.75 533.98 957.39 332.70 1128.97 410.43 984.68 472.00 901.22 521.04 1049.58 584.61
00009383 00000077 837.00 174.92 401.56 535.89 957.00 332.47 1128.19 409.02 984.07 470.48 900.40 520.48 1050.25 583.18
00009384 00000078 836.17 179.02 401.89 530.52 954.79 331.00 1126.35 408.00 981.07 469.78 898.99 518.97 1050.18 581.92
00009385 00000079 835.27 180.30 402.43 529.93 953.38 331.25 1125.90 407.35 980.45 469.11 897.77 519.39 1050.00 581.63
00009386 00000080 836.43 181.72 398.13 529.74 953.70 336.98 1124.03 408.05 984.27 468.43 899.53 522.29 1054.15 580.90
00009387 00000081 835.99 182.59 397.62 528.09 953.06 339.81 1123.25 409.25 985.76 469.16 900.09 523.96 1053.21 581.22
00009388 00000082 837.04 190.96 394.60 519.12 951.49 337.62 1121.83 409.41 981.46 470.53 897.63 522.53 1051.20 581.38
00009389 00000083 836.22 192.32 393.77 516.36 952.22 338.22 1122.69 410.36 981.97 472.06 898.41 523.82 1049.23 583.02
00009390 00000084 835.31 198.71 395.07 510.38 951.97 341.30 1122.59 410.14 983.26 473.09 899.98 527.96 1049.65 584.41
00009391 00000085 834.03 197.41 396.86 514.18 952.69 342.42 1123.65 411.41 985.59 473.54 899.74 527.21 1054.05 583.82
00009392 00000086 836.31 182.63 398.15 530.91 955.00 343.80 1127.57 411.70 989.80 475.04 903.74 530.74 1053.88 586.91
00009393 00000087 836.61 192.70 396.88 522.88 956.27 347.44 1128.72 413.20 991.96 477.35 904.31 535.13 1056.37 589.49
00009394 00000088 837.60 186.75 395.44 528.44 958.69 347.28 1130.18 415.67 993.67 480.11 904.86 534.45 1055.47 590.99
00009395 00000089 837.42 189.07 395.39 527.56 959.92 350.05 1131.27 417.72 996.02 481.33 905.85 537.38 1056.73 593.03
00009396 00000090 835.13 172.17 398.56 549.21 961.43 350.53 1133.16 420.68 1000.22 481.83 906.89 539.25 1056.81 597.08
00009397 00000091 836.37 168.68 398.47 555.32 961.55 352.47 1134.36 423.48 1000.49 483.18 907.58 541.72 1057.86 600.04
00009398 00000092 837.57 159.31 398.25 568.77 961.72 353.55 1134.92 425.65 1000.68 485.12 910.17 544.25 1058.10 603.42
00009399 00000093 837.87 160.52 398.94 568.30 962.61 355.60 1135.60 426.87 1001.74 486.32 911.49 546.47 1058.16 604.96
00009400 00000094 837.94 154.98 399.68 575.63 962.32 356.25 1135.54 427.46 1001.06 487.02 911.72 546.83 1058.72 605.33
00009401 00000095 838.92 157.12 399.83 575.18 962.62 356.04 1135.55 427.43 1000.05 488.53 911.70 546.74 1059.89 605.32
00009402 00000096 838.75 158.93 400.94 573.47 963.90 357.90 1136.58 429.00 1001.72 489.45 912.23 547.50 1060.72 605.92
00009403 00000097 838.20 154.73 402.05 579.05 963.95 357.53 1137.30 430.20 1001.91 489.38 910.67 546.37 1062.71 605.99
00009404 00000098 836.80 155.04 404.01 579.59 963.08 357.68 1138.01 429.41 1002.22 489.75 910.32 547.91 1063.00 606.84
00009405 00000099 836.11 156.34 404.37 577.23 963.20 357.46 1139.05 429.37 1002.71 490.49 911.58 548.54 1062.51 607.66
00009406 00000100 835.53 155.74 403.05 576.13 962.62 358.16 1138.27 429.78 1003.33 491.02 911.76 548.06 1063.82 606.97
00009407 00000101 833.43 157.55 403.90 573.89 961.60 357.41 1136.22 430.07 1002.02 493.11 909.04 547.06 1062.30 606.69
00009408 00000102 833.59 151.90 401.12 578.35 958.81 359.54 1135.19 431.48 999.18 492.30 908.89 548.47 1060.63 607.43
00009409 00000103 831.14 166.48 396.34 563.09 954.70 363.30 1127.36 432.70 991.50 502.57 905.26 553.21 1059.42 611.19
00009410 00000104 829.58 162.56 397.85 565.73 952.18 363.03 1125.80 432.69 990.00 502.03 904.25 553.06 1058.71 611.08
00009411 00000105 829.04 163.04 398.38 565.88 951.81 363.31 1125.68 431.88 990.49 502.82 905.08 553.95 1059.92 611.10
00009412 00000106 829.08 162.63 398.23 566.45 951.74 363.64 1125.43 432.25 990.14 503.99 905.01 554.53 1059.91 611.64
00009413 00000107 829.46 163.91 397.25 568.21 953.40 362.27 1125.16 429.42 990.23 504.75 906.03 554.90 1060.14 610.76
00009414 00000108 827.71 163.07 398.61 571.38 952.44 361.33 1122.50 429.01 988.71 504.15 905.23 553.17 1059.76 609.43
00009415 00000109 827.93 165.87 400.13 567.13 951.63 361.93 1123.01 432.04 987.45 505.81 902.08 549.00 1060.52 607.50
00009416 00000110 825.98 168.67 403.70 564.49 951.77 362.16 1124.55 434.40 988.27 507.68 900.35 548.64 1060.36 609.12
00009417 00000111 825.01 174.08 404.21 557.32 951.31 361.78 1124.36 437.84 987.66 508.03 897.53 544.50 1059.62 608.50
00009418 00000112 827.84 167.75 401.78 555.67 950.58 361.76 1124.60 440.71 988.68 508.54 896.52 539.87 1060.55 606.48
00009419 00000113 827.25 170.14 403.57 549.51 953.77 356.52 1125.62 439.40 988.93 506.58 897.07 533.03 1059.13 602.88
00009420 00000114 825.49 171.71 405.96 550.80 954.49 349.10 1124.04 434.73 985.25 500.63 895.84 524.75 1061.50 596.93
00009421 00000115 828.95 168.31 401.33 552.06 953.75 340.03 1129.54 419.47 987.44 490.44 897.49 525.99 1062.77 591.20
00009422 00000116 829.73 163.51 401.50 556.56 951.58 338.90 1126.63 416.90 984.97 487.04 896.42 527.55 1057.14 591.71
00009423 00000117 828.01 165.26 403.52 554.15 949.21 336.68 1124.71 413.77 982.30 481.96 895.93 525.81 1056.49 589.34
00009424 00000118 827.78 172.98 398.98 541.08 947.19 336.25 1121.89 412.93 981.02 478.90 893.42 521.78 1060.08 584.90
00009425 00000119 828.13 171.26 399.63 540.54 947.08 334.23 1122.31 412.81 979.64 478.69 892.56 519.32 1058.94 583.77
00009426 00000120 829.94 171.50 395.93 534.99 946.77 332.42 1122.05 413.45 975.75 478.80 893.56 517.30 1057.42 583.52
00009427 00000121 828.68 170.50 395.49 536.20 945.39 333.17 1121.33 411.80 975.93 478.14 894.91 519.52 1054.75 584.05
00009428 00000122 819.48 163.05 406.56 544.01 947.59 332.42 1127.19 406.31 979.42 476.43 891.64 521.40 1051.08 583.70
00009429 00000123 829.84 170.23 397.95 535.96 946.80 331.78 1123.39 409.08 977.32 475.12 894.72 519.00 1054.86 582.34
00009430 00000124 822.11 158.58 403.38 548.41 950.57 328.71 1129.52 403.99 980.29 474.07 893.10 520.54 1051.83 583.88
00009431 00000125 826.03 157.03 399.58 550.71 952.44 329.29 1126.34 405.55 977.44 475.05 890.77 517.41 1049.81 581.76
00009432 00000126 824.20 153.42 402.89 555.61 948.98 327.33 1127.15 403.10 974.14 471.72 889.79 521.10 1046.09 584.84
00009433 00000127 820.54 154.19 404.23 554.73 952.33 325.28 1128.05 406.41 976.91 472.90 884.30 514.20 1044.45 582.64
00009434 00000128 838.08 169.52 381.54 534.57 945.52 329.73 1116.79 404.20 972.08 473.27 889.24 520.04 1035.01 582.48
00009435 00000129 836.73 166.22 382.42 536.67 943.04 341.16 1118.78 393.93 982.20 465.90 900.26 544.10 1036.94 588.32
00009436 00000130 825.87 169.49 387.98 521.81 945.07 333.02 1117.72 391.82 1001.55 453.71 916.45 526.23 1048.47 575.39
00009437 00000131 832.69 167.75 381.13 509.85 945.18 333.50 1121.05 393.04 998.37 454.26 915.95 522.59 1050.61 572.03
00009438 00000132 828.59 175.03 387.15 509.52 946.44 332.03 1122.21 396.39 999.16 458.46 905.34 521.29 1043.12 575.13
00009439 00000133 828.71 179.70 387.75 510.98 944.48 333.03 1122.31 395.82 998.73 461.46 906.93 525.26 1046.98 577.88
00009440 00000134 822.96 166.13 395.33 537.94 946.74 333.49 1125.04 395.34 979.17 471.65 899.77 536.03 1040.36 587.56
00009441 00000135 824.21 171.27 397.30 533.05 929.59 338.73 1115.65 399.57 972.45 466.21 895.93 540.95 1041.15 592.21
00009442 00000136 828.31 155.68 389.79 542.23 947.55 335.71 1124.18 394.22 979.46 470.93 903.17 536.68 1040.62 585.93
00009443 00000137 831.39 149.56 385.93 538.89 946.97 334.41 1123.40 394.21 978.17 472.38 902.01 531.93 1039.26 582.15
00009444 00000138 837.80 164.93 377.37 524.24 942.92 336.65 1125.58 395.80 996.94 469.58 908.12 530.85 1051.02 580.42
00009445 00000139 836.99 166.04 379.17 518.88 944.18 337.38 1125.68 396.25 997.56 470.52 909.29 530.10 1050.25 579.58
00009446 00000140 834.43 168.31 382.63 509.17 946.19 337.25 1125.44 398.37 998.65 471.50 907.98 525.83 1046.70 576.81
00009447 00000141 833.35 170.27 386.77 517.37 944.05 335.94 1125.41 399.57 998.50 470.95 905.70 526.83 1050.11 579.82
00009448 00000142 832.45 163.73 385.29 537.11 943.06 340.91 1119.87 403.01 979.70 476.81 897.77 539.22 1047.92 589.90
00009449 00000143 832.40 161.64 386.91 540.60 943.45 340.50 1121.30 402.29 981.31 477.62 897.33 540.70 1049.06 591.36
00009450 00000144 832.72 166.26 385.46 534.58 943.38 340.04 1121.53 403.48 980.59 480.75 895.73 540.58 1047.15 592.58
00009451 00000145 832.89 162.89 385.38 540.10 943.83 339.94 1121.45 405.17 980.56 482.56 896.35 538.96 1048.43 592.55
00009452 00000146 832.92 168.90 384.66 533.03 944.82 341.28 1121.83 408.23 979.56 484.45 895.41 540.35 1046.98 595.03
00009453 00000147 831.07 173.20 387.98 532.41 945.18 342.99 1122.15 408.27 981.23 483.42 895.35 542.15 1049.34 595.62
00009454 00000148 831.22 172.03 388.48 534.56 945.32 343.48 1122.04 410.41 979.65 484.82 894.35 541.25 1049.62 596.04
00009455 00000149 829.33 164.38 393.34 550.79 944.27 346.55 1120.46 410.24 983.80 486.20 895.09 542.56 1051.09 595.34
00009456 00000150 830.45 162.80 394.06 553.03 944.47 347.60 1121.13 410.90 983.22 488.36 896.00 544.09 1051.57 596.41
00009457 00000151 832.42 165.68 391.11 549.00 945.49 348.25 1120.96 413.09 983.35 491.40 894.94 543.89 1051.97 597.40
00009458 00000152 832.98 161.31 389.06 554.98 944.76 350.37 1121.78 415.62 982.88 493.00 893.99 547.00 1048.94 601.27
00009459 00000153 832.06 161.49 390.54 556.25 944.09 353.67 1121.67 417.53 984.07 496.56 893.47 550.83 1047.58 603.94
00009460 00000154 831.55 162.15 391.83 555.08 944.57 354.47 1121.84 419.65 982.86 498.78 893.10 551.01 1045.85 604.92
00009461 00000155 823.66 167.20 401.01 550.60 940.07 357.83 1117.17 424.91 977.57 499.89 893.10 544.99 1049.79 602.10
00009462 00000156 823.59 169.71 401.58 547.83 940.04 358.06 1117.33 424.57 977.68 500.64 893.59 545.18 1050.55 601.73
00009463 00000157 823.97 171.42 399.55 542.00 939.62 357.46 1114.86 425.89 976.13 502.88 891.71 541.65 1047.84 599.97
00009464 00000158 822.72 171.97 399.38 538.54 938.96 357.17 1113.27 427.33 974.34 502.53 891.30 539.96 1046.12 599.57
00009465 00000159 821.21 168.87 400.70 540.18 938.12 356.81 1112.69 428.87 974.19 504.61 890.42 536.20 1048.23 597.52
00009466 00000160 821.22 167.44 400.27 542.20 937.55 356.22 1112.27 427.51 973.61 504.21 891.15 536.02 1050.01 596.50
00009467 00000161 821.14 163.39 399.46 550.02 935.47 358.13 1109.52 426.31 973.71 505.85 891.96 539.39 1049.89 597.23
00009468 00000162 819.62 163.53 403.11 551.56 933.93 357.96 1109.29 425.74 970.73 503.78 890.80 540.71 1048.61 598.00
00009469 00000163 822.58 139.65 405.21 574.14 937.88 353.30 1120.87 419.31 977.11 498.74 895.42 545.15 1042.49 601.34
00009470 00000164 822.49 135.71 405.34 579.42 937.67 354.19 1120.29 421.26 977.64 499.36 893.76 546.74 1042.00 603.67
00009471 00000165 821.19 135.52 406.19 582.61 935.75 353.54 1119.43 420.02 974.61 500.34 892.13 550.44 1039.04 606.98
00009472 00000166 823.33 132.41 403.13 580.83 934.31 354.70 1121.90 418.05 977.92 496.41 894.77 554.63 1040.92 608.40
00009473 00000167 821.56 133.62 404.65 582.01 934.54 354.79 1121.82 418.68 977.15 495.86 894.10 554.27 1039.96 608.51
