Video ID: 	p8Fo4zpOBK8
H: 	1080
W: 	1920
FPS: 	23.976023976023978

FRAME INDEX X0 Y0 W H [Landmarks (5 Points)]

00002349 00000000 469.65 132.68 346.44 531.49 591.56 334.79 741.00 339.24 683.00 445.82 604.25 523.89 728.13 528.23
00002350 00000001 471.58 133.90 347.29 528.96 592.10 332.48 743.05 338.77 683.51 443.03 603.82 520.72 730.17 526.68
00002351 00000002 472.54 132.57 349.04 527.15 593.82 330.40 745.48 337.66 685.38 441.46 603.40 516.01 731.71 523.08
00002352 00000003 473.16 133.24 349.85 523.25 593.92 328.56 746.22 336.61 685.40 441.53 602.21 512.30 732.46 520.35
00002353 00000004 473.32 133.54 350.70 522.42 594.27 327.87 747.04 336.40 685.86 440.55 601.03 509.87 733.57 518.50
00002354 00000005 472.93 131.47 351.79 526.51 594.70 327.48 746.49 336.94 685.06 440.82 597.28 507.34 733.05 517.14
00002355 00000006 473.87 134.09 350.79 527.30 595.59 328.76 746.53 339.51 684.98 441.44 595.98 507.87 732.80 518.79
00002356 00000007 473.55 135.90 350.94 528.38 596.55 330.19 746.35 341.01 685.65 442.11 597.32 510.39 733.09 521.11
00002357 00000008 473.62 136.15 351.40 529.92 596.91 331.81 746.81 342.26 686.30 443.86 597.29 512.21 733.27 522.61
00002358 00000009 474.52 137.17 351.26 530.26 596.86 333.67 745.61 343.72 685.25 447.22 597.99 514.04 733.27 523.94
00002359 00000010 474.92 138.30 351.95 529.12 596.75 335.29 745.45 344.71 685.27 450.05 598.30 515.64 732.82 525.09
00002360 00000011 475.19 141.07 351.79 529.78 598.22 337.28 747.53 346.09 687.69 453.84 598.16 518.00 733.68 526.88
00002361 00000012 474.80 143.95 353.40 530.13 598.56 339.27 748.73 348.07 688.43 455.43 597.54 520.72 733.72 529.56
00002362 00000013 473.66 140.84 354.66 540.65 589.55 338.80 745.21 349.67 684.95 456.37 593.81 521.53 734.22 531.00
00002363 00000014 474.31 140.99 353.05 541.11 589.56 338.15 743.66 348.83 684.18 454.40 594.35 520.68 734.08 529.97
00002364 00000015 473.78 140.49 348.99 535.04 594.38 337.97 743.39 346.54 683.77 450.71 592.80 516.13 733.61 524.94
00002365 00000016 471.69 140.87 351.09 534.06 592.32 336.01 742.82 344.69 681.97 447.39 590.18 512.90 734.54 521.99
00002366 00000017 468.44 140.11 351.38 537.09 588.95 335.63 741.19 344.19 678.39 445.04 585.72 510.73 734.60 519.71
00002367 00000018 467.53 138.43 349.42 538.87 589.65 337.36 739.33 348.08 676.69 447.04 585.27 511.72 730.57 522.05
00002368 DELETE   465.95 139.81 347.86 531.76 585.07 342.98 736.05 351.05 673.65 455.35 584.50 517.10 725.34 525.56
00002369 DELETE   466.11 140.13 347.49 533.77 582.93 345.38 736.52 351.27 673.29 460.33 585.23 524.40 724.04 530.89
00002370 00000021 460.69 135.99 360.35 554.54 573.81 344.98 733.05 352.10 669.89 465.62 583.76 536.46 719.51 542.35
00002371 00000022 461.90 137.76 357.99 556.35 575.92 349.19 732.19 354.94 671.21 468.00 584.42 538.27 722.44 543.23
00002372 00000023 461.23 140.95 355.33 550.23 574.10 350.80 728.72 356.12 667.62 469.11 584.35 538.67 718.69 543.37
00002373 00000024 460.80 144.12 354.41 544.48 569.79 354.08 727.72 359.03 663.55 471.57 580.53 538.13 717.22 542.78
00002374 00000025 459.90 146.47 355.05 542.32 567.36 357.21 724.81 360.61 660.17 475.06 578.51 539.48 716.08 542.83
00002375 00000026 459.54 152.46 355.44 535.23 564.69 360.15 724.47 362.33 659.04 478.62 577.61 542.29 714.52 544.63
00002376 00000027 459.58 152.28 355.25 534.29 564.62 361.67 724.60 363.40 659.16 481.47 578.02 544.21 713.60 546.43
00002377 00000028 459.91 153.75 353.38 529.88 566.10 361.25 724.15 363.57 659.27 482.60 580.85 545.83 709.62 548.60
00002378 00000029 460.37 153.61 352.20 529.57 566.42 360.84 723.42 363.29 658.95 482.45 581.39 546.86 707.39 549.81
00002379 00000030 460.27 152.51 353.27 533.21 566.16 359.81 724.45 362.48 659.36 482.40 580.21 545.07 710.73 548.03
00002380 00000031 458.61 152.56 355.53 534.26 564.11 359.75 723.80 361.33 657.78 480.27 577.89 544.02 711.34 546.01
00002381 00000032 459.08 149.85 354.88 536.64 563.49 358.51 723.53 361.07 657.16 478.13 575.89 541.65 712.01 544.62
00002382 00000033 458.81 149.55 354.32 534.32 564.29 357.18 723.88 359.45 658.05 476.35 576.21 540.56 711.31 543.27
00002383 00000034 458.42 151.15 353.41 531.80 564.61 356.38 721.83 359.18 656.65 475.78 575.92 539.81 708.08 542.96
00002384 00000035 458.34 148.66 350.63 532.01 563.05 356.70 721.18 357.77 656.86 475.10 577.68 541.19 708.37 542.94
00002385 00000036 458.01 149.05 350.22 532.60 561.82 357.15 719.16 357.58 654.48 475.89 578.01 542.32 706.80 543.47
00002386 00000037 457.38 150.14 350.38 531.80 561.13 357.28 717.90 357.51 653.30 476.39 576.93 541.90 705.90 542.93
00002387 00000038 457.10 149.72 350.51 533.56 560.53 357.32 717.59 357.44 652.52 477.20 576.18 542.90 704.48 543.75
00002388 00000039 456.67 149.95 350.63 532.03 559.07 357.39 717.65 357.83 651.65 477.09 574.21 542.35 704.04 543.64
00002389 00000040 455.31 150.08 351.61 532.81 558.64 357.20 717.54 358.38 650.90 477.57 571.92 541.62 703.21 543.60
00002390 00000041 453.92 151.53 352.44 531.64 557.68 356.41 716.53 357.27 649.80 476.56 571.54 542.82 699.60 544.47
00002391 00000042 452.73 152.41 353.09 534.07 556.55 356.86 715.35 357.90 648.00 476.73 569.18 543.19 698.46 544.82
00002392 00000043 451.60 151.24 353.86 535.56 554.50 357.57 714.18 356.78 646.94 478.65 566.98 543.55 699.16 543.81
00002393 00000044 451.26 152.81 352.10 534.17 553.87 356.97 713.16 356.36 645.21 478.09 566.22 543.59 696.90 543.94
00002394 00000045 451.42 153.57 350.75 533.61 554.04 355.77 712.56 355.89 644.21 476.68 566.01 542.89 695.60 543.93
00002395 00000046 450.77 153.19 350.62 533.61 553.53 355.12 711.93 354.73 643.80 475.77 566.13 543.29 694.52 543.99
00002396 00000047 449.95 153.58 349.55 528.93 552.61 355.71 712.12 354.20 644.39 476.08 566.59 541.86 696.54 541.68
00002397 00000048 449.77 151.85 344.69 523.57 558.65 357.52 712.49 362.56 644.06 474.77 566.54 534.38 698.77 540.24
00002398 00000049 450.89 153.69 349.71 529.00 554.24 354.39 713.10 354.45 645.19 475.25 566.51 540.05 696.85 541.23
00002399 00000050 451.34 154.72 350.75 529.65 556.13 353.95 712.96 354.59 646.28 475.73 566.74 539.17 697.40 540.77
00002400 00000051 451.44 153.47 351.99 530.98 556.73 352.81 713.96 354.22 646.88 475.02 567.09 538.33 698.08 540.42
00002401 00000052 451.67 153.05 352.38 531.61 557.10 353.25 714.84 354.20 648.15 475.25 567.44 539.00 699.45 540.69
00002402 00000053 451.83 151.87 354.08 532.77 557.81 353.48 716.02 354.11 649.70 475.82 568.66 539.12 701.19 540.43
00002403 00000054 452.96 151.06 354.46 534.06 560.22 353.21 717.33 353.64 652.11 474.40 570.74 538.93 703.33 540.07
00002404 00000055 455.60 147.40 354.54 539.32 563.77 352.91 719.57 353.92 656.13 472.03 574.22 538.54 708.14 540.07
00002405 00000056 455.37 142.77 355.06 544.55 566.27 351.18 723.23 354.34 658.76 471.92 575.26 537.06 710.62 540.33
00002406 00000057 457.39 139.84 355.47 549.81 572.24 352.51 723.94 357.26 662.50 469.53 580.37 536.23 714.00 540.49
00002407 00000058 459.08 137.21 355.83 553.87 576.12 350.69 728.29 355.50 669.09 467.98 583.96 536.71 718.64 540.93
00002408 00000059 462.20 140.65 356.94 552.38 576.15 347.22 733.50 350.60 674.28 466.40 587.43 536.92 724.83 540.19
00002409 00000060 467.09 141.35 354.14 551.43 581.45 346.74 736.00 350.60 678.92 462.01 591.73 534.80 729.32 538.63
00002410 00000061 471.03 143.07 353.57 548.06 585.63 345.37 740.59 350.54 683.60 459.64 594.80 533.76 732.31 538.65
00002411 00000062 475.81 143.97 353.52 546.55 590.92 344.99 744.32 350.79 687.84 459.08 598.21 532.25 736.38 537.80
00002412 00000063 478.66 146.92 355.19 537.30 594.26 343.07 748.95 350.34 691.11 458.39 601.07 527.37 740.88 534.08
00002413 00000064 480.90 147.54 354.30 530.08 603.63 345.81 754.27 349.53 695.35 461.90 607.28 528.46 742.69 532.60
00002414 00000065 470.28 152.81 360.14 523.90 604.38 339.28 754.48 351.14 691.88 459.92 606.69 521.20 732.57 530.33
00002415 00000066 472.77 153.60 359.47 518.92 606.38 338.51 757.63 350.83 694.41 460.59 608.69 519.45 733.26 529.29
00002416 00000067 473.80 152.42 359.09 518.15 608.43 339.38 760.04 351.53 696.61 460.83 610.76 518.51 735.20 528.25
00002417 00000068 474.73 153.04 357.99 514.71 609.98 339.95 761.92 351.10 698.84 460.65 611.84 517.82 737.23 526.83
00002418 00000069 476.00 153.55 357.13 513.36 610.84 340.78 762.04 351.71 699.11 460.11 611.82 517.08 737.88 525.98
00002419 00000070 482.69 142.10 355.58 521.73 613.46 339.21 765.94 350.28 701.16 464.09 613.72 520.66 741.38 531.34
00002420 00000071 481.96 142.41 355.81 522.70 613.80 339.90 766.35 351.90 701.60 463.52 613.94 520.60 741.51 531.90
00002421 00000072 477.67 155.18 355.72 511.01 613.26 340.58 764.70 352.29 701.07 458.34 612.80 516.28 738.23 525.93
00002422 00000073 477.67 156.12 356.20 511.39 613.63 340.54 764.98 352.22 701.15 458.51 612.40 516.55 738.11 526.13
00002423 00000074 478.13 156.14 355.84 511.41 614.30 340.27 765.39 352.25 701.71 458.49 612.55 516.37 738.34 526.19
00002424 00000075 478.46 155.74 356.01 512.36 614.23 340.11 765.43 352.48 701.52 457.96 613.24 516.30 738.58 526.39
00002425 00000076 483.91 141.96 354.20 525.96 616.48 340.34 767.59 353.26 703.07 463.48 614.44 520.51 741.25 532.68
00002426 00000077 484.27 141.06 354.03 526.85 616.54 340.09 767.50 353.17 702.87 463.39 614.13 520.33 741.08 532.66
00002427 00000078 484.14 140.63 354.31 527.73 616.14 340.10 767.11 353.63 702.40 462.65 613.14 520.18 740.25 532.95
00002428 00000079 468.91 113.75 481.23 731.06 639.87 390.77 855.31 393.69 777.15 543.18 650.14 640.91 838.70 643.45
00002429 00000080 468.67 114.74 480.90 730.59 639.96 391.47 855.26 394.66 777.37 544.01 651.69 641.91 838.79 644.63
00002430 00000081 473.97 121.09 476.08 720.96 644.62 394.68 860.16 389.62 780.42 543.41 662.25 651.45 843.45 646.25
00002431 00000082 473.53 119.80 475.37 720.00 644.52 393.77 859.90 387.54 781.82 543.47 667.47 652.27 843.54 645.78
00002432 00000083 474.00 120.77 473.17 717.28 644.82 393.51 860.67 388.14 782.16 545.92 666.12 652.91 842.28 647.31
00002433 00000084 473.70 121.47 474.59 719.49 645.35 393.23 861.36 388.92 781.90 546.80 660.59 650.09 842.75 645.56
00002434 00000085 471.08 113.55 479.06 730.98 642.80 392.50 859.99 393.02 783.20 548.16 654.74 644.45 841.74 645.17
00002435 00000086 472.02 115.96 480.89 732.07 646.29 392.50 865.64 392.02 789.40 546.81 659.51 646.99 846.08 646.64
00002436 00000087 474.01 115.93 479.77 730.60 651.60 394.12 869.89 392.08 795.55 548.02 668.88 648.58 852.80 646.43
00002437 00000088 476.82 113.47 478.14 729.34 656.30 393.54 871.53 391.33 800.59 544.05 677.88 648.40 856.92 645.86
00002438 00000089 479.81 109.12 477.74 737.63 661.49 392.36 872.79 389.07 807.13 537.74 686.39 649.19 864.96 645.25
00002439 00000090 483.50 110.04 474.32 746.49 667.77 385.00 876.04 383.31 811.60 530.45 689.80 647.76 861.73 642.94
00002440 00000091 484.31 108.13 472.53 755.35 668.39 387.92 873.56 381.62 814.04 531.08 684.29 648.97 864.74 640.45
00002441 00000092 485.19 106.51 472.97 754.35 666.55 386.32 873.64 378.64 812.49 528.49 685.41 647.52 865.79 637.81
00002442 00000093 485.34 108.56 471.63 743.74 665.57 382.49 872.59 374.68 810.77 523.12 688.14 641.91 863.02 632.01
00002443 00000094 484.55 103.94 472.73 742.01 665.54 380.15 870.26 371.22 808.93 516.56 690.42 636.75 862.89 625.88
00002444 00000095 482.78 105.35 473.97 737.84 665.26 376.79 867.52 365.80 807.64 508.45 690.06 632.19 862.80 619.74
00002445 00000096 480.92 100.32 474.05 745.88 664.52 371.71 866.46 362.24 806.37 506.06 687.28 630.59 860.34 619.43
00002446 00000097 482.04 101.67 472.80 741.09 662.41 371.31 865.14 359.71 806.06 502.60 684.45 627.97 859.85 615.52
00002447 00000098 481.46 96.67 477.28 734.97 660.40 372.43 875.25 364.02 811.34 500.79 689.62 626.08 870.92 619.36
00002448 00000099 482.25 94.19 477.74 729.47 661.88 374.73 879.80 363.31 813.30 504.11 693.41 626.83 873.22 617.54
00002449 00000100 483.45 94.36 477.44 725.75 664.70 374.96 882.48 364.18 814.72 505.96 694.51 625.78 873.25 617.05
00002450 00000101 484.88 99.05 479.17 725.10 670.36 376.19 882.98 364.95 817.14 507.38 701.90 628.18 873.70 619.07
00002451 00000102 479.71 99.03 481.45 733.02 673.57 371.52 875.77 368.87 817.88 512.60 701.10 631.71 871.94 627.11
00002452 00000103 484.37 106.82 476.89 735.91 672.20 375.83 875.75 368.99 813.71 511.65 697.39 634.68 864.87 625.51
00002453 00000104 486.52 105.29 474.50 739.65 674.51 380.63 878.10 372.81 816.88 515.63 694.99 634.32 867.92 624.36
00002454 00000105 487.49 104.15 473.73 744.95 674.39 381.86 879.88 374.34 818.34 518.88 692.93 638.06 870.64 628.40
00002455 00000106 480.45 107.26 482.03 737.26 676.95 385.44 882.89 380.80 826.12 526.71 691.52 640.69 877.53 635.16
00002456 00000107 480.81 107.88 484.86 735.22 675.35 388.11 886.00 383.47 826.81 529.34 689.52 640.29 879.33 634.99
00002457 00000108 484.77 107.25 481.02 734.55 676.24 389.58 888.32 383.59 828.60 528.95 694.06 641.82 883.14 635.23
00002458 00000109 485.41 107.79 484.25 735.22 679.70 390.97 890.22 385.48 829.80 529.68 696.51 642.13 885.84 636.07
00002459 00000110 487.46 109.76 484.61 732.66 683.41 391.01 893.67 385.50 832.53 532.45 700.35 643.41 889.10 637.47
00002460 00000111 487.78 113.33 483.87 730.54 686.61 391.70 895.72 386.96 835.48 534.48 700.64 645.25 888.31 640.24
00002461 00000112 488.96 114.95 485.96 729.76 686.94 391.30 898.96 387.22 836.44 536.20 701.53 646.99 889.99 642.54
00002462 00000113 488.51 119.25 486.18 725.55 688.00 392.02 898.35 387.34 837.56 536.01 703.06 647.16 890.46 642.25
00002463 00000114 488.77 117.98 486.16 725.22 687.99 391.64 899.17 387.37 837.45 537.00 701.69 644.68 891.41 640.27
00002464 00000115 489.45 113.95 485.35 727.60 687.97 391.53 899.38 386.25 837.00 536.86 700.90 643.15 892.01 637.89
00002465 00000116 488.67 113.03 484.80 726.36 686.10 390.53 898.55 384.24 836.73 536.25 697.59 641.03 891.38 635.10
00002466 00000117 488.89 110.74 484.01 727.89 684.58 389.62 897.11 383.58 834.83 535.24 695.97 639.73 889.94 633.96
00002467 00000118 489.68 110.88 482.92 727.44 684.22 389.83 896.33 384.68 833.48 535.56 694.19 638.86 888.74 633.96
00002468 00000119 489.01 113.25 484.31 726.30 685.64 390.11 896.89 384.84 834.54 536.77 696.03 640.09 889.94 635.08
00002469 00000120 491.69 114.95 483.67 726.00 687.69 391.74 898.90 386.19 836.27 538.08 699.01 642.20 891.09 637.02
00002470 00000121 497.59 120.85 479.35 726.77 690.08 393.56 903.07 387.00 837.77 537.11 704.58 640.89 887.92 633.07
00002471 00000122 498.75 122.58 479.44 725.10 691.29 393.45 904.91 386.88 839.87 537.29 705.75 640.70 889.76 632.97
00002472 00000123 498.74 119.43 478.45 716.10 693.95 395.52 906.81 387.27 845.63 539.75 704.28 640.48 897.09 633.63
00002473 00000124 500.67 121.10 476.59 712.25 695.58 398.36 908.16 388.99 846.86 541.40 706.97 641.09 898.19 633.35
00002474 00000125 501.66 122.30 474.48 709.90 695.97 399.01 908.91 389.01 847.60 542.88 707.32 641.89 898.50 633.74
00002475 00000126 500.50 120.72 476.26 713.57 695.17 398.07 908.55 389.32 846.47 542.51 707.85 643.01 898.09 635.58
00002476 00000127 498.44 119.90 477.51 713.69 693.16 397.79 906.30 390.06 843.43 543.07 706.08 642.37 896.05 635.72
00002477 00000128 497.98 121.74 476.55 710.38 689.92 396.99 904.96 390.93 839.82 542.11 706.08 643.16 894.97 637.53
00002478 00000129 496.32 118.59 478.67 715.83 687.80 395.71 902.57 390.44 836.99 542.30 704.92 645.30 892.34 640.22
00002479 00000130 493.04 118.77 480.37 719.82 683.81 396.33 897.53 389.72 832.93 542.71 701.87 646.61 891.43 640.24
00002480 00000131 488.05 122.67 484.53 717.01 682.55 399.25 892.63 391.12 828.14 542.34 701.86 650.71 883.10 643.37
00002481 00000132 487.20 125.02 483.49 714.65 683.21 400.12 890.96 394.35 826.64 544.27 702.21 651.26 880.26 645.78
00002482 00000133 486.82 122.92 483.48 718.07 680.26 401.13 892.87 395.50 826.53 547.43 695.65 650.48 880.80 645.42
00002483 00000134 485.88 124.27 484.92 716.97 680.64 401.95 894.26 396.33 827.54 548.34 694.01 649.53 881.66 644.67
00002484 00000135 486.52 122.93 485.67 720.69 680.20 401.14 895.93 394.99 828.33 547.13 696.92 652.79 884.21 647.21
00002485 00000136 488.47 119.98 483.90 729.89 685.16 400.19 896.34 396.52 830.30 546.43 706.11 658.38 884.37 654.26
00002486 00000137 489.01 121.44 483.65 730.27 686.91 399.88 896.74 394.99 832.76 545.92 711.31 660.93 886.46 655.67
00002487 00000138 489.01 122.58 484.69 733.71 688.65 398.92 900.59 396.89 833.89 545.04 713.94 655.56 881.24 650.20
00002488 00000139 488.99 121.66 484.99 725.67 686.66 399.21 898.56 393.98 834.27 544.55 708.95 655.45 890.36 649.78
00002489 00000140 488.00 121.33 486.88 726.12 686.68 397.38 898.29 392.58 834.85 543.44 705.95 654.08 889.48 648.93
00002490 00000141 487.41 121.37 487.31 726.69 688.74 395.69 896.80 393.19 834.68 540.56 706.10 653.70 885.73 650.64
00002491 00000142 488.59 121.34 486.27 724.24 690.22 395.30 898.63 393.11 836.68 540.15 705.21 651.55 885.64 648.88
00002492 00000143 490.72 121.21 484.13 720.39 689.86 395.56 901.33 391.77 838.21 541.49 702.65 647.14 889.01 643.44
00002493 00000144 491.92 120.71 483.10 723.89 692.04 394.87 902.27 391.88 839.55 540.52 705.29 649.00 889.64 645.77
00002494 00000145 492.18 121.25 482.72 730.87 691.61 394.68 904.06 394.24 836.96 541.12 706.29 646.80 880.98 643.47
00002495 00000146 487.56 121.38 485.31 727.68 687.43 396.03 898.78 395.17 834.31 545.29 697.49 650.34 884.68 649.03
00002496 00000147 485.56 124.06 484.54 724.75 679.11 395.48 889.56 394.93 822.38 544.58 693.56 649.88 878.40 648.41
00002497 00000148 483.13 125.54 485.15 722.74 674.87 394.97 883.73 397.31 815.85 545.39 687.68 649.43 871.59 650.59
00002498 00000149 483.86 123.26 483.80 726.97 673.97 394.61 881.44 398.46 814.35 543.21 685.07 648.73 868.87 651.12
00002499 00000150 482.76 126.23 486.08 725.53 672.21 398.32 883.36 397.68 816.44 544.15 685.01 650.82 872.43 649.67
00002500 00000151 480.87 127.09 486.74 728.40 674.93 400.09 882.37 397.02 820.31 542.51 686.35 651.81 872.92 648.98
00002501 00000152 483.77 126.86 483.56 739.56 681.91 399.42 885.81 395.53 826.27 543.21 690.45 651.44 872.69 645.29
00002502 00000153 483.76 123.98 483.65 748.14 683.29 402.10 888.30 394.78 831.62 542.80 693.54 655.18 879.03 646.24
00002503 00000154 483.08 129.86 485.00 741.44 685.83 402.87 890.78 397.17 835.18 544.77 696.76 656.43 881.18 648.75
00002504 00000155 483.11 132.19 483.66 735.13 684.60 403.51 888.94 398.77 832.23 545.84 697.36 655.06 878.76 648.04
00002505 00000156 483.65 131.75 483.50 725.11 675.92 405.50 884.24 395.09 826.80 545.38 694.23 656.25 882.84 647.45
00002506 00000157 482.89 134.66 481.91 715.21 669.85 410.26 879.20 399.51 816.90 549.38 688.08 652.94 878.53 644.00
CROP_BBOX: 161 0 1250 1027
