Video ID: 	GDR1gjzyB1M
H: 	1080
W: 	1920
FPS: 	25.0

FRAME INDEX X0 Y0 W H [Landmarks (5 Points)]

00003853 00000000 614.84 135.05 367.13 516.61 771.75 357.76 937.63 352.64 888.27 465.44 788.08 543.85 906.39 540.34
00003854 00000001 615.58 133.24 365.72 518.22 772.31 356.61 938.12 350.66 889.73 464.79 790.06 543.72 908.06 539.42
00003855 00000002 616.15 132.82 365.31 517.22 772.85 356.45 938.02 350.59 890.17 463.61 789.60 541.87 908.13 537.55
00003856 00000003 615.47 133.08 366.71 515.14 771.01 356.30 939.09 351.26 889.33 464.14 785.37 540.58 907.89 537.11
00003857 00000004 615.03 134.17 368.54 513.34 770.70 357.51 940.67 350.39 890.14 465.28 782.74 538.77 909.80 533.91
00003858 00000005 615.72 133.25 368.94 514.11 771.09 357.34 941.06 351.22 889.64 464.07 782.17 537.14 910.30 533.12
00003859 00000006 616.23 132.57 369.24 514.69 770.80 357.03 942.00 351.58 889.75 463.49 781.44 536.02 911.77 532.59
00003860 00000007 617.15 131.91 368.35 514.12 771.52 356.02 942.60 351.73 890.55 462.34 782.61 534.67 913.12 532.08
00003861 00000008 617.91 132.74 366.68 511.34 772.44 354.65 943.00 350.18 891.55 460.49 783.39 533.29 914.53 530.53
00003862 00000009 617.94 133.07 366.73 510.51 772.25 354.65 943.72 350.27 891.74 459.34 782.80 532.96 915.64 530.39
00003863 00000010 618.47 133.63 366.95 509.45 772.73 356.21 944.46 351.22 892.12 460.06 782.69 532.85 916.33 529.83
00003864 00000011 618.77 135.00 366.43 507.80 772.55 356.82 944.70 350.96 891.84 461.03 782.86 532.67 917.09 528.97
00003865 00000012 618.89 135.45 366.39 507.16 772.46 357.46 944.41 351.40 891.49 461.79 781.70 531.70 917.46 527.98
00003866 00000013 618.11 136.44 367.17 506.31 771.98 357.59 944.53 351.11 891.20 462.03 780.35 531.14 917.96 527.24
00003867 00000014 617.76 136.26 367.38 506.22 771.89 357.24 944.47 350.85 891.05 462.33 779.72 530.33 917.75 526.56
00003868 00000015 617.64 136.34 367.01 505.66 771.61 357.37 944.72 350.78 891.19 462.58 778.91 530.00 918.21 526.13
00003869 00000016 618.58 136.11 365.44 504.89 771.72 356.47 944.36 350.06 891.12 461.61 779.18 528.72 918.51 525.00
00003870 00000017 619.07 135.13 364.63 504.65 771.58 355.37 944.41 349.82 890.75 460.44 779.09 527.28 919.06 524.22
00003871 00000018 619.12 135.35 364.65 503.28 771.15 354.70 944.50 349.30 890.20 459.15 778.93 526.26 919.55 523.30
00003872 00000019 619.97 135.31 363.96 502.72 771.81 355.21 945.35 350.14 891.02 457.99 779.47 526.03 920.62 523.33
00003873 00000020 618.27 137.01 366.48 501.06 772.05 362.26 948.87 357.31 893.29 458.20 778.49 527.75 921.72 524.68
00003874 DELETE   618.58 136.00 366.18 501.13 773.87 363.17 948.11 359.21 893.51 457.49 780.10 527.13 920.85 524.92
00003875 00000022 619.58 134.80 367.66 505.80 775.33 360.77 949.48 357.80 895.10 456.83 780.02 527.54 920.90 526.45
00003876 00000023 619.75 135.41 368.32 506.42 775.78 359.12 948.72 355.26 894.65 458.03 780.78 528.13 919.37 526.51
00003877 00000024 619.84 136.00 368.37 505.96 774.38 358.33 947.40 353.21 892.88 459.62 779.83 529.14 918.86 526.60
00003878 00000025 619.71 135.82 368.67 506.20 773.93 357.21 946.60 352.23 891.81 459.98 779.31 528.45 918.18 526.11
00003879 00000026 619.98 135.81 368.29 506.62 773.53 356.11 945.82 351.66 890.95 460.77 778.61 527.59 917.93 525.82
00003880 00000027 619.52 135.81 367.35 506.17 773.34 355.98 945.04 350.98 890.86 460.64 778.65 527.43 917.26 525.15
00003881 00000028 618.19 135.64 367.19 505.94 772.51 355.41 944.50 350.79 890.43 461.06 777.69 527.31 916.64 525.17
00003882 00000029 616.46 134.51 366.79 506.62 770.29 355.18 943.20 350.67 888.90 462.33 775.71 527.24 916.44 524.96
00003883 00000030 615.00 134.84 367.58 506.04 769.09 354.80 941.86 350.80 887.08 463.18 774.49 527.14 914.85 525.16
00003884 00000031 613.26 135.06 368.03 505.71 767.97 354.23 940.91 350.47 886.04 462.91 773.09 526.77 913.57 524.93
00003885 00000032 612.00 134.38 368.04 506.25 766.05 353.87 939.36 349.63 884.37 462.28 770.77 527.17 911.89 524.89
00003886 00000033 611.25 134.23 367.41 506.60 764.62 352.98 938.68 349.46 882.87 461.49 769.16 527.11 911.31 525.34
00003887 00000034 610.81 133.70 366.47 506.64 764.23 352.56 938.45 348.75 883.08 460.84 769.31 527.16 911.73 525.07
00003888 00000035 614.45 136.25 368.00 501.94 760.79 347.15 937.74 350.78 882.52 461.33 767.29 526.72 911.71 531.91
00003889 00000036 614.33 135.62 367.85 501.91 760.05 347.12 937.96 349.87 882.31 460.99 767.84 527.69 912.11 532.10
00003890 00000037 613.38 134.69 368.35 501.99 758.74 346.81 938.23 349.69 882.14 460.65 768.02 528.14 912.46 532.62
00003891 00000038 612.40 134.33 368.14 501.06 756.86 346.53 937.35 349.59 880.43 460.12 767.81 528.85 911.61 533.32
00003892 00000039 611.21 132.99 368.13 502.02 754.33 346.48 935.92 349.27 878.23 459.94 766.20 529.29 910.55 533.49
00003893 00000040 610.47 133.55 367.79 501.37 753.14 346.10 935.58 349.50 876.88 459.46 764.57 528.91 909.66 533.65
00003894 00000041 609.28 134.02 367.04 501.17 751.91 346.21 933.95 349.46 875.74 459.85 762.89 528.53 907.86 533.12
00003895 00000042 608.23 131.51 366.63 502.28 751.48 345.93 932.52 349.64 874.32 458.66 762.52 527.66 906.04 532.61
00003896 00000043 607.28 133.40 366.25 500.46 750.06 345.47 931.89 350.30 872.76 458.15 760.55 526.70 905.11 532.59
00003897 00000044 605.43 131.91 366.26 500.96 749.38 344.77 930.73 349.46 872.13 456.77 760.43 526.25 903.18 532.02
00003898 00000045 604.41 131.99 366.18 500.69 748.78 344.90 929.92 349.67 871.55 456.43 759.69 526.06 902.23 531.87
00003899 00000046 603.81 130.43 366.61 502.38 748.22 344.33 929.65 349.52 870.75 456.20 758.90 525.76 901.64 531.91
00003900 00000047 603.01 128.56 367.26 503.54 747.71 343.04 930.13 348.81 870.65 455.79 758.23 525.35 901.65 531.88
00003901 00000048 602.40 127.41 367.15 504.33 747.37 342.31 930.25 348.24 870.85 455.09 758.03 525.40 901.25 532.06
00003902 00000049 601.90 125.57 367.63 506.25 746.88 341.99 930.30 347.93 870.72 455.25 757.97 526.19 901.01 532.76
00003903 00000050 600.36 125.90 368.67 506.27 745.48 342.36 929.87 348.02 870.40 455.70 757.87 528.37 900.53 534.56
00003904 00000051 598.63 125.05 370.11 508.90 744.25 343.38 928.95 348.70 869.73 457.08 757.96 531.23 899.55 536.86
00003905 00000052 597.50 125.35 370.63 510.88 744.59 343.21 928.04 349.55 869.62 456.45 758.30 531.74 898.18 538.07
00003906 00000053 597.21 125.35 370.83 512.80 745.66 342.57 927.29 348.88 870.13 456.31 758.93 532.22 897.29 538.49
00003907 00000054 596.27 123.99 371.44 516.91 745.97 342.31 927.05 349.17 870.74 455.70 759.02 533.02 897.09 539.61
00003908 00000055 595.74 123.99 371.95 520.28 746.29 341.94 926.71 349.11 871.24 455.81 758.68 533.45 896.99 540.26
00003909 00000056 595.84 122.87 371.95 522.17 747.38 341.66 926.25 349.33 871.32 455.22 759.48 533.72 896.06 540.88
00003910 00000057 596.41 123.10 372.39 522.37 747.96 340.96 927.03 349.43 871.43 455.02 759.34 533.65 895.88 541.49
00003911 00000058 597.63 124.63 372.20 522.79 749.67 339.89 927.67 348.43 872.86 455.19 760.64 533.85 896.44 541.78
00003912 00000059 598.35 125.61 372.58 523.06 750.25 340.07 928.32 349.19 873.22 455.64 761.57 535.23 896.83 543.51
00003913 00000060 598.02 126.88 373.52 522.78 751.09 340.91 927.93 349.86 873.54 456.62 762.08 535.42 896.30 543.57
00003914 00000061 598.04 127.57 373.32 522.76 751.49 341.35 927.68 350.24 873.72 456.95 761.99 535.66 895.82 543.78
00003915 00000062 597.31 127.76 373.93 522.80 751.16 341.65 927.71 350.63 873.82 457.11 761.76 535.80 895.76 543.94
00003916 00000063 596.54 128.13 374.20 523.18 750.22 341.95 927.63 350.93 873.39 457.52 760.85 536.27 895.72 544.41
00003917 00000064 595.67 129.30 373.24 522.41 749.60 343.49 926.45 352.24 873.12 458.01 760.60 537.22 894.60 545.22
00003918 00000065 594.94 129.99 372.76 522.98 749.47 345.01 925.28 352.78 872.53 459.05 760.48 538.70 893.35 545.91
00003919 00000066 593.62 131.87 372.82 521.97 748.91 345.94 924.51 353.26 872.13 459.58 760.13 539.89 892.50 546.70
00003920 00000067 592.94 134.82 371.48 519.12 748.49 348.52 922.67 355.00 871.33 461.19 760.02 541.64 890.22 547.79
00003921 00000068 591.69 135.38 371.98 517.93 747.12 349.78 921.34 356.41 869.22 461.58 759.54 542.05 888.24 548.32
00003922 00000069 589.78 136.08 372.81 516.75 745.81 350.29 920.12 356.87 867.86 461.65 759.14 542.39 886.92 548.58
00003923 00000070 588.44 135.70 373.61 516.56 744.52 350.32 919.17 356.88 866.25 461.52 758.10 542.26 885.90 548.43
00003924 00000071 587.67 136.39 373.82 515.29 743.54 349.88 918.65 356.98 864.91 461.36 757.44 542.20 884.83 548.80
00003925 00000072 585.85 134.91 374.91 516.57 742.25 349.98 917.74 357.31 863.47 461.55 756.54 542.37 883.93 549.15
00003926 00000073 585.30 134.81 374.80 516.78 740.86 350.83 916.93 357.73 862.56 462.31 755.73 543.18 883.76 549.59
00003927 00000074 584.66 134.40 374.41 517.53 739.75 351.56 916.53 357.95 862.12 462.72 754.91 544.35 883.10 550.38
00003928 00000075 584.12 137.08 374.34 515.58 738.75 352.54 915.34 358.76 860.58 463.65 754.57 544.96 882.18 550.81
00003929 00000076 583.76 137.45 374.38 516.85 738.42 353.64 915.14 359.73 860.96 464.74 754.19 545.43 882.87 551.13
00003930 00000077 582.89 137.33 373.88 517.48 737.95 354.60 913.98 359.49 859.84 466.33 753.91 546.85 881.01 551.64
00003931 00000078 583.42 144.15 374.46 512.50 738.98 367.30 916.95 375.65 860.75 467.39 748.68 546.46 882.11 554.56
00003932 00000079 583.82 145.67 374.08 510.98 739.81 369.72 916.08 377.49 860.28 469.29 749.51 547.90 880.56 555.51
00003933 00000080 585.05 147.77 372.14 510.71 742.89 369.49 916.16 376.81 861.67 469.76 752.81 550.55 879.75 557.62
00003934 00000081 585.67 146.09 372.05 514.91 747.53 370.06 918.75 376.41 867.58 471.92 757.66 553.08 882.70 559.29
00003935 00000082 587.17 147.48 372.24 514.84 751.36 369.85 921.72 376.15 871.73 473.65 761.59 555.21 884.30 561.29
00003936 00000083 589.12 146.61 372.18 517.33 755.69 369.89 923.04 375.83 875.04 476.35 765.46 557.14 884.98 562.84
00003937 00000084 591.82 147.81 371.33 518.40 759.98 370.59 926.72 376.87 879.70 478.36 768.70 559.15 888.20 564.98
00003938 00000085 595.16 148.47 369.82 519.82 764.88 369.55 930.29 376.37 884.42 478.11 772.93 560.27 891.62 566.47
00003939 00000086 598.43 147.36 367.95 521.72 770.41 369.21 932.68 377.89 888.00 478.41 777.96 561.64 893.81 569.22
00003940 00000087 601.23 147.55 367.02 519.92 773.78 368.59 934.21 379.48 889.94 477.41 780.81 560.78 894.94 570.33
00003941 00000088 601.05 147.35 367.10 518.43 774.94 370.19 934.17 376.64 892.89 476.00 784.65 554.59 899.67 561.18
00003942 00000089 602.02 148.47 366.78 515.68 777.45 369.62 935.48 377.19 894.74 475.06 785.18 553.21 899.44 560.72
00003943 00000090 602.37 147.84 366.47 515.59 778.49 369.60 936.31 376.94 896.17 474.93 785.87 552.63 900.60 559.93
00003944 00000091 602.56 147.77 366.40 514.93 779.10 369.49 937.12 376.80 897.39 473.91 786.07 551.50 901.02 558.73
00003945 00000092 602.90 148.00 366.57 514.43 779.95 370.03 937.91 377.24 898.87 473.34 786.11 550.70 901.48 557.91
00003946 00000093 603.19 147.58 365.98 513.32 780.54 370.21 938.25 377.50 899.49 472.30 786.62 550.24 901.59 557.44
00003947 00000094 603.49 147.94 366.23 512.50 781.50 369.73 939.04 378.40 899.90 471.51 786.78 549.13 901.86 557.32
00003948 00000095 604.10 148.16 365.71 511.65 782.65 369.50 939.97 377.72 901.35 471.06 787.30 548.92 902.44 556.70
00003949 00000096 603.87 147.89 366.31 512.60 782.61 368.97 940.27 377.67 901.45 471.29 786.59 548.26 902.13 556.51
00003950 00000097 603.43 148.48 367.05 513.04 782.85 368.89 940.46 377.99 901.50 471.22 786.51 547.75 901.79 556.38
00003951 00000098 602.67 147.63 367.19 513.89 782.81 368.31 939.89 377.64 901.38 471.47 785.42 547.27 900.78 556.27
00003952 00000099 601.65 148.10 366.63 513.95 782.03 368.58 938.52 378.07 900.73 471.85 784.84 547.80 900.39 556.95
00003953 00000100 600.12 148.75 366.56 513.61 780.65 368.26 937.67 377.07 899.88 472.43 783.80 548.23 899.64 556.92
00003954 00000101 603.31 153.38 362.33 511.10 779.28 366.10 937.56 380.59 894.91 474.55 777.87 553.50 892.68 566.66
00003955 00000102 601.19 153.23 360.84 512.29 777.38 367.85 932.84 381.99 891.35 474.81 776.38 554.79 888.71 567.63
00003956 00000103 598.45 151.91 360.28 518.17 775.04 368.49 927.73 382.34 887.39 476.51 775.33 557.73 884.66 569.92
00003957 00000104 596.20 151.57 359.07 526.41 773.98 368.59 921.82 383.72 884.17 478.09 771.83 559.31 878.94 572.57
00003958 00000105 594.82 151.57 359.62 526.11 772.35 368.19 920.56 383.73 882.06 478.42 766.97 557.18 876.18 571.14
00003959 00000106 590.20 152.49 362.70 520.26 770.49 370.12 922.58 385.01 883.30 478.48 762.99 554.76 875.20 568.56
00003960 00000107 589.54 157.07 363.20 509.72 770.35 370.36 928.30 388.23 885.82 477.37 760.36 551.53 876.95 567.91
00003961 00000108 590.07 157.99 363.42 508.50 772.19 370.87 930.16 389.55 887.97 477.96 760.72 551.00 878.03 568.13
00003962 00000109 590.79 157.85 365.22 512.27 774.25 370.26 930.87 389.41 889.34 479.57 761.90 552.76 877.97 570.20
00003963 00000110 590.01 158.45 366.42 513.57 774.49 371.32 929.74 390.86 888.97 482.18 763.61 555.89 876.96 573.36
00003964 00000111 588.78 157.29 368.58 518.94 774.21 373.53 929.70 392.19 888.76 485.17 764.74 559.52 877.68 576.11
00003965 00000112 587.33 157.02 370.34 519.89 777.58 374.34 930.20 392.09 894.50 484.67 766.75 553.82 883.07 570.94
00003966 00000113 587.61 153.68 369.42 524.42 781.61 373.49 932.04 391.98 897.95 485.18 770.53 553.95 884.20 571.69
00003967 00000114 590.02 153.20 368.82 528.50 787.69 372.88 934.39 393.23 901.01 486.23 773.61 553.62 883.78 572.96
00003968 00000115 591.18 149.52 367.57 528.30 799.30 369.71 932.36 391.63 909.07 485.55 777.34 550.29 881.63 572.16
00003969 00000116 591.16 150.27 368.29 527.12 807.43 371.24 933.75 392.32 916.27 487.09 786.82 552.66 882.13 574.26
00003970 00000117 591.67 153.17 367.95 521.73 814.70 371.88 933.53 391.44 921.50 486.35 794.21 551.23 881.99 572.20
00003971 00000118 587.39 153.05 368.72 523.69 814.78 372.15 932.42 391.23 922.50 487.88 791.04 550.08 881.42 571.05
00003972 00000119 585.13 154.69 367.85 527.32 808.98 370.73 931.24 392.54 917.43 489.42 783.17 551.51 879.27 574.44
00003973 00000120 583.64 158.56 368.85 529.17 792.86 383.24 928.66 402.87 903.47 493.34 767.05 556.71 873.29 576.44
00003974 DELETE   571.97 154.94 376.32 532.06 780.05 378.68 920.93 400.42 891.74 493.02 751.99 552.34 861.94 574.34
00003975 00000122 554.23 150.03 382.82 525.83 757.19 368.70 906.61 388.07 871.90 485.54 729.56 545.85 848.46 565.34
00003976 DELETE   540.85 140.38 388.05 531.29 728.91 364.16 890.85 376.04 844.66 478.39 717.45 545.92 840.29 557.69
00003977 DELETE   532.89 138.55 388.59 536.22 714.38 356.70 877.37 373.70 827.34 477.29 696.53 537.64 827.98 554.53
00003978 00000125 527.99 135.70 385.57 535.08 704.16 350.32 870.07 368.64 814.69 477.12 676.92 528.98 821.30 547.64
00003979 00000126 522.24 135.15 384.81 533.61 697.84 346.07 866.57 368.49 807.65 473.28 664.76 522.27 817.91 544.41
00003980 00000127 517.38 131.85 385.82 536.68 692.09 343.74 864.84 366.33 802.51 470.95 653.94 517.23 817.28 539.86
00003981 00000128 514.50 130.03 389.19 538.59 687.97 340.16 862.16 362.09 796.67 468.93 644.71 510.25 816.66 532.72
00003982 00000129 521.18 130.95 382.07 532.21 686.18 338.19 857.80 367.92 796.47 459.68 650.76 504.19 821.31 532.95
00003983 00000130 522.85 129.76 381.00 532.21 685.73 336.88 857.94 365.82 797.14 457.58 651.94 502.78 823.58 530.94
00003984 00000131 526.03 130.13 378.40 531.19 686.65 337.49 859.31 363.83 799.87 458.75 654.02 502.53 827.57 528.75
00003985 00000132 520.61 126.66 383.60 536.01 686.72 336.33 864.83 353.71 801.12 464.69 647.75 504.79 828.05 523.66
00003986 00000133 532.32 129.88 375.05 526.85 686.68 336.97 859.71 362.93 799.27 457.77 658.22 502.45 829.74 528.14
00003987 00000134 532.96 128.93 375.69 522.56 685.91 335.51 859.16 359.28 798.41 454.76 661.78 503.10 828.09 526.61
00003988 00000135 528.85 120.53 378.12 532.47 688.54 333.06 861.90 349.49 799.14 453.58 662.33 509.82 823.17 526.24
00003989 00000136 532.04 118.02 375.76 535.38 690.44 330.48 859.33 348.73 798.62 449.52 667.17 509.51 820.42 527.06
00003990 00000137 535.65 115.34 373.48 534.48 692.08 329.06 859.68 345.85 800.01 446.27 670.76 506.95 822.02 523.28
00003991 00000138 537.91 115.17 373.23 530.85 695.27 328.85 862.34 345.93 803.70 442.46 676.21 503.28 826.21 519.72
00003992 00000139 540.11 112.88 373.95 532.72 695.96 329.22 865.01 347.41 805.93 437.68 681.57 503.01 830.35 519.83
00003993 00000140 544.49 109.94 373.02 533.42 698.84 326.51 868.01 346.43 809.11 432.67 690.04 506.18 831.49 523.92
00003994 00000141 549.23 107.95 371.45 534.84 702.33 324.15 868.28 345.91 810.65 428.57 694.05 505.81 829.21 525.04
00003995 00000142 554.27 108.43 368.18 527.41 707.75 322.31 868.95 345.38 812.93 420.41 699.32 500.77 828.29 520.95
00003996 00000143 559.15 110.86 365.01 523.10 712.99 319.54 873.40 343.14 818.27 414.59 702.45 495.46 833.85 516.25
00003997 00000144 562.84 113.15 363.36 520.98 717.75 316.74 878.83 341.33 824.95 410.17 704.56 490.11 842.15 512.14
00003998 00000145 566.99 113.38 366.06 522.63 725.21 315.94 884.29 342.71 832.49 410.69 709.43 488.01 846.20 512.18
00003999 00000146 577.09 115.22 364.53 519.33 732.51 314.29 889.17 344.05 836.81 410.07 718.78 487.78 850.68 514.29
00004000 00000147 584.83 117.07 361.65 512.60 740.04 315.76 894.74 342.29 844.29 413.41 732.15 490.47 856.40 514.24
00004001 00000148 595.17 115.92 355.72 505.35 742.20 315.70 900.70 341.29 849.21 413.11 740.41 492.23 863.12 514.91
00004002 00000149 604.66 114.39 350.02 499.35 746.92 316.05 908.51 341.65 854.51 412.68 744.92 491.60 870.82 514.80
00004003 00000150 611.87 114.78 349.20 499.29 751.95 318.84 915.32 342.34 861.19 412.56 750.55 492.57 880.41 514.33
CROP_BBOX: 356 0 1167 803
