Video ID: 	XNZvmoVaVgU
H: 	1080
W: 	1920
FPS: 	25.0

FRAME INDEX X0 Y0 W H [Landmarks (5 Points)]

00002847 00000000 736.31 205.46 490.46 636.98 765.02 448.79 950.02 399.74 807.93 555.34 837.72 700.04 973.12 658.62
00002848 00000001 734.80 201.97 487.25 640.54 759.41 453.12 942.68 404.41 797.86 555.49 825.30 700.66 961.77 660.00
00002849 00000002 736.30 216.43 486.62 619.78 757.97 439.19 941.28 392.41 796.03 546.78 826.93 693.67 961.29 654.30
00002850 DELETE   737.65 206.58 483.83 636.09 772.69 442.10 952.70 392.35 812.22 537.13 844.00 693.17 972.86 651.24
00002851 DELETE   749.57 167.82 497.14 668.60 785.39 435.47 961.35 374.98 821.91 525.75 853.25 683.83 986.87 633.71
00002852 DELETE   756.44 168.94 494.82 665.13 799.09 432.68 976.76 372.91 838.81 519.74 862.08 679.32 995.88 629.71
00002853 00000006 757.57 153.08 496.58 680.82 806.07 425.17 983.55 366.86 847.68 514.10 869.53 676.35 1002.43 627.34
00002854 00000007 759.31 156.20 492.72 676.03 805.26 422.09 982.44 367.78 845.19 514.27 865.67 673.71 997.42 628.26
00002855 00000008 762.70 165.07 487.47 660.31 802.31 422.38 975.56 369.53 837.50 513.43 860.45 671.76 985.50 628.08
00002856 00000009 764.51 166.92 483.02 657.76 801.10 424.15 973.14 368.34 834.18 513.03 858.36 671.37 985.22 625.54
00002857 00000010 763.73 171.86 486.13 649.48 802.56 416.02 979.01 362.27 838.16 505.91 860.50 664.95 989.94 620.05
00002858 00000011 766.18 191.00 492.24 624.61 804.79 412.40 992.21 354.97 852.04 497.84 867.19 657.39 1009.49 608.29
00002859 DELETE   763.78 172.76 494.18 636.08 802.54 415.45 999.28 344.90 860.73 490.68 879.56 662.75 1028.47 603.61
00002860 DELETE   765.15 160.26 494.41 640.79 808.32 406.53 1007.90 339.20 871.62 484.17 882.34 653.70 1033.98 597.57
00002861 00000014 766.01 162.00 492.60 634.57 808.96 404.68 1014.39 335.61 878.03 482.11 883.99 649.63 1045.37 591.71
00002862 00000015 766.68 167.28 488.06 625.96 807.05 402.57 1011.67 332.83 876.54 479.46 882.22 648.63 1041.78 589.99
00002863 00000016 763.56 172.38 490.04 623.89 800.99 404.69 1007.82 331.65 872.44 480.27 878.75 652.23 1038.36 590.89
00002864 00000017 762.77 172.12 491.27 624.86 801.67 406.75 1008.01 333.36 875.72 482.25 883.78 654.13 1039.66 592.47
00002865 00000018 769.21 174.99 489.19 630.03 808.93 409.55 1011.99 334.23 880.01 482.60 893.93 660.61 1046.09 597.30
00002866 00000019 774.88 176.07 488.16 632.35 819.90 406.95 1018.93 333.78 886.39 479.92 901.40 658.42 1054.51 596.73
00002867 00000020 780.55 169.88 491.67 638.47 830.89 400.85 1027.64 333.89 898.73 479.61 910.88 653.35 1063.43 596.80
00002868 00000021 782.25 162.94 495.92 650.03 837.17 399.60 1033.74 334.21 906.39 480.60 915.86 653.67 1068.08 598.43
00002869 00000022 785.35 163.54 497.66 650.36 841.84 398.17 1037.33 333.92 910.73 481.71 920.02 652.46 1070.88 598.22
00002870 00000023 790.33 157.50 494.12 658.41 845.86 398.70 1038.27 334.07 911.44 483.50 923.10 654.09 1074.71 599.26
00002871 00000024 796.27 155.40 490.41 661.92 850.10 398.08 1042.65 335.68 914.98 484.98 925.72 654.91 1075.78 602.02
00002872 00000025 801.06 158.03 488.36 659.51 855.22 400.67 1044.36 340.24 918.15 488.01 929.75 654.64 1077.23 603.24
00002873 00000026 805.68 162.35 487.18 653.47 860.07 404.08 1046.25 343.01 919.52 489.76 931.27 654.27 1080.63 602.23
00002874 00000027 808.83 162.90 485.76 651.30 862.44 405.64 1047.33 344.21 919.56 490.05 931.57 654.82 1080.07 602.43
00002875 00000028 809.17 163.45 485.25 648.19 861.55 404.96 1048.67 345.09 918.80 490.21 928.25 653.41 1078.80 602.27
00002876 00000029 810.97 162.72 485.28 649.69 862.46 404.48 1050.85 344.18 918.86 489.71 927.64 652.00 1080.57 600.54
00002877 00000030 812.47 158.02 486.56 655.10 863.83 403.61 1052.89 342.70 919.05 487.98 930.14 651.80 1080.74 599.76
00002878 00000031 814.42 155.97 486.38 655.56 866.81 401.48 1054.95 340.03 920.61 485.51 933.36 650.64 1083.45 598.03
00002879 00000032 816.55 162.14 484.43 646.29 868.45 399.27 1057.48 339.90 923.94 483.66 934.18 647.28 1084.97 596.31
00002880 00000033 816.95 162.17 483.31 647.11 869.17 397.55 1057.60 338.93 925.16 482.69 935.66 647.06 1084.64 596.81
00002881 00000034 816.67 163.18 483.81 645.12 868.98 398.15 1057.77 339.46 926.06 483.59 936.44 647.07 1085.89 596.66
00002882 00000035 814.69 158.64 486.18 649.04 867.11 401.00 1056.51 339.47 923.20 484.76 934.36 648.59 1086.23 595.75
00002883 00000036 811.06 156.64 488.50 650.98 862.24 401.74 1054.05 339.57 919.63 487.31 930.32 649.91 1084.04 596.60
00002884 00000037 808.79 157.67 489.60 651.80 860.54 403.69 1050.95 340.39 917.57 487.68 929.05 650.81 1083.36 596.50
00002885 00000038 808.67 157.17 489.32 652.09 861.13 404.44 1049.24 342.29 916.20 489.32 928.46 651.40 1080.04 598.22
00002886 00000039 809.29 159.90 489.71 649.84 860.86 407.16 1048.54 343.05 916.16 490.50 928.29 652.94 1081.31 597.95
00002887 00000040 809.82 158.61 488.52 652.02 861.66 408.00 1048.60 343.77 916.57 490.79 928.56 653.74 1080.68 598.84
00002888 00000041 810.89 165.79 488.90 645.22 861.82 407.71 1050.36 344.40 918.50 490.85 929.32 654.23 1082.01 600.05
00002889 00000042 811.62 164.87 487.37 647.17 862.46 407.43 1050.87 344.64 919.13 491.45 929.19 654.76 1082.40 601.06
00002890 00000043 812.07 166.15 486.67 646.29 862.64 407.47 1051.09 344.91 919.70 491.86 928.81 654.74 1082.74 601.19
00002891 00000044 813.32 168.56 483.71 642.14 863.75 406.17 1051.73 345.94 921.19 491.89 929.49 653.29 1082.31 601.68
00002892 00000045 811.50 162.81 486.31 645.54 862.39 405.25 1053.07 344.75 922.34 492.13 929.41 651.86 1084.75 599.95
00002893 00000046 809.07 157.43 487.79 643.98 861.29 405.19 1052.96 344.33 922.69 492.78 929.63 648.80 1086.66 596.60
00002894 00000047 808.51 158.62 487.89 643.97 859.06 405.51 1051.81 345.06 920.05 493.53 925.84 648.06 1086.41 596.15
00002895 00000048 808.87 159.56 486.21 640.04 859.41 405.34 1050.82 345.01 921.03 493.11 927.61 648.86 1082.96 597.34
00002896 00000049 811.74 169.60 487.78 640.84 864.70 406.95 1051.60 345.56 923.35 492.12 934.71 653.41 1083.99 601.24
00002897 00000050 812.62 174.53 486.46 632.75 866.41 408.35 1053.59 350.65 925.91 496.20 934.50 651.24 1086.53 602.21
00002898 00000051 812.69 173.90 486.89 633.44 866.42 414.11 1053.20 356.48 924.87 500.83 931.99 654.92 1083.68 606.20
00002899 00000052 807.29 187.98 485.13 620.90 858.82 414.69 1046.66 356.88 921.32 503.96 926.61 657.00 1076.83 608.23
00002900 00000053 803.88 194.59 488.79 607.06 854.71 415.24 1044.53 354.01 920.95 503.06 928.86 658.35 1076.40 606.84
00002901 00000054 804.51 185.18 489.74 638.83 857.91 416.73 1042.19 352.89 916.89 502.10 931.90 668.25 1073.60 614.86
00002902 00000055 799.93 186.28 489.39 642.04 850.66 417.80 1039.62 353.02 914.67 509.02 926.40 673.31 1074.53 618.89
00002903 00000056 798.05 190.11 487.69 623.01 843.28 418.73 1037.98 356.54 911.43 514.36 917.47 668.30 1072.25 616.24
00002904 00000057 796.30 187.80 486.49 619.66 840.98 419.20 1037.59 358.21 909.45 513.70 912.14 664.35 1071.18 613.35
00002905 00000058 797.17 190.55 485.43 620.33 843.07 417.37 1034.77 354.98 909.37 509.55 917.29 663.87 1070.64 611.50
00002906 00000059 796.87 188.56 487.17 622.52 845.48 416.50 1034.90 354.62 911.44 509.67 920.90 663.43 1072.09 611.44
00002907 00000060 797.64 190.70 488.54 620.59 845.33 417.52 1034.74 354.75 910.69 510.00 920.94 664.02 1071.93 611.34
00002908 00000061 798.56 193.33 490.35 625.10 845.53 417.09 1035.72 354.43 910.08 510.43 921.13 666.12 1073.88 613.33
00002909 00000062 798.19 192.71 489.59 628.35 846.86 417.22 1036.05 354.21 911.75 511.24 924.55 668.27 1075.68 615.26
00002910 00000063 799.40 191.26 489.33 621.73 845.41 417.20 1035.05 356.75 909.92 512.12 918.14 663.08 1070.63 612.32
00002911 00000064 800.36 187.61 491.10 623.49 844.10 416.78 1034.97 355.44 906.71 510.03 914.50 658.17 1076.46 606.30
00002912 00000065 801.71 186.47 489.45 624.02 846.16 414.53 1035.51 354.32 906.65 505.78 916.18 656.57 1074.98 605.57
00002913 00000066 802.14 186.39 486.12 620.42 847.47 412.01 1035.90 353.43 908.53 504.47 917.71 655.68 1071.00 606.23
00002914 00000067 802.19 184.47 487.08 619.99 848.20 413.02 1034.66 353.68 909.52 504.14 920.93 657.23 1065.90 607.31
00002915 00000068 799.77 186.26 488.28 620.90 843.68 414.19 1034.21 353.87 907.07 504.93 916.64 659.91 1062.15 609.15
00002916 00000069 796.37 187.91 486.59 618.94 840.78 412.40 1033.12 353.42 905.43 502.50 912.09 658.43 1058.18 609.09
00002917 00000070 793.15 182.85 489.80 623.53 838.30 411.70 1031.83 353.18 901.56 501.38 907.90 658.24 1054.65 609.52
00002918 00000071 792.61 187.58 491.08 622.50 838.59 412.12 1030.73 351.04 903.43 500.52 911.30 658.49 1058.49 607.45
00002919 00000072 793.71 190.70 488.40 614.85 838.69 412.04 1030.22 351.52 904.31 501.16 910.28 655.34 1060.39 604.77
00002920 00000073 795.82 189.92 487.87 619.13 838.12 409.91 1031.53 352.71 900.72 502.67 904.99 654.50 1061.64 606.48
00002921 00000074 798.74 190.37 483.23 619.44 837.37 408.41 1032.89 353.47 899.50 504.13 901.50 654.61 1060.81 608.45
00002922 00000075 800.96 190.55 481.66 620.11 843.20 406.77 1034.67 354.53 903.25 501.20 907.66 654.64 1060.21 610.80
00002923 00000076 799.30 190.71 486.72 623.74 845.80 408.15 1037.25 351.39 908.22 500.77 914.41 655.60 1070.73 607.61
00002924 00000077 797.68 191.65 488.88 614.62 844.31 406.54 1036.99 349.43 909.08 498.17 914.16 649.98 1071.21 601.64
00002925 00000078 795.50 182.90 491.91 621.35 842.95 404.14 1035.98 346.17 905.35 494.94 913.17 648.49 1069.74 599.02
00002926 00000079 794.52 179.48 493.01 626.68 841.27 404.57 1035.47 345.97 903.16 494.12 910.83 649.40 1066.45 599.28
00002927 00000080 793.90 180.48 493.32 627.39 841.08 403.84 1036.13 346.07 903.53 494.65 910.44 649.80 1066.21 600.38
00002928 00000081 797.62 181.51 491.25 627.12 843.38 406.43 1037.12 348.60 904.08 496.90 911.25 651.70 1067.93 602.25
00002929 00000082 798.64 183.88 490.07 624.70 846.10 409.08 1038.20 351.13 907.29 499.83 915.35 653.16 1071.42 603.96
00002930 00000083 798.99 180.25 488.72 626.71 846.92 411.00 1039.39 353.32 909.41 502.62 914.14 653.80 1072.37 605.15
00002931 00000084 798.63 182.25 489.26 624.02 846.48 410.96 1038.86 353.50 908.82 502.84 913.99 653.68 1072.22 605.21
00002932 00000085 797.76 183.30 490.48 622.13 846.21 410.76 1039.11 353.85 908.70 502.75 913.90 653.33 1071.98 605.32
00002933 00000086 797.26 184.78 489.49 621.96 844.03 411.47 1037.49 353.07 906.06 502.23 912.34 654.36 1070.67 605.07
00002934 00000087 796.12 186.97 489.60 619.26 843.23 410.90 1037.13 352.66 905.98 501.81 912.41 654.12 1070.34 604.96
00002935 00000088 795.22 189.46 490.68 620.28 842.96 411.67 1037.57 353.00 905.79 502.19 912.26 655.29 1070.91 605.75
00002936 00000089 795.70 189.98 490.69 620.43 843.26 411.70 1037.59 352.63 906.55 502.91 913.41 656.98 1070.33 607.14
00002937 00000090 794.82 190.49 489.83 621.29 841.92 411.46 1036.52 352.07 906.06 503.04 912.49 657.29 1069.69 607.18
00002938 00000091 793.73 189.67 491.23 622.08 840.26 410.19 1036.34 350.51 904.69 502.06 910.91 656.99 1068.66 606.68
00002939 00000092 793.70 188.45 492.48 623.98 839.90 409.40 1035.04 349.80 903.41 500.27 909.78 656.43 1066.60 606.22
00002940 00000093 793.29 187.17 491.08 625.98 839.43 410.58 1032.63 349.43 902.32 500.07 910.49 657.40 1066.05 605.90
00002941 00000094 790.77 200.22 490.76 611.05 834.89 419.13 1029.84 354.04 899.68 500.85 907.86 663.09 1064.34 608.01
00002942 00000095 788.84 197.50 485.53 610.80 826.92 419.58 1024.33 358.18 889.85 507.77 899.53 666.50 1052.63 614.82
00002943 00000096 783.65 201.66 486.86 617.59 814.65 419.14 1015.33 358.27 876.24 509.50 889.52 673.55 1043.35 622.24
00002944 00000097 781.02 197.51 487.21 629.26 810.70 416.96 1008.08 360.44 864.71 510.68 881.91 674.82 1034.39 627.11
00002945 00000098 780.92 195.11 488.89 629.44 808.90 422.14 1003.50 363.66 857.52 513.16 880.94 679.50 1028.17 630.42
00002946 00000099 781.12 200.05 489.93 627.63 809.46 421.54 1004.60 364.29 858.09 513.74 881.20 678.67 1029.98 630.67
00002947 00000100 783.73 200.46 485.94 628.25 812.78 419.67 1007.00 363.20 862.86 512.23 883.49 678.31 1031.27 630.96
00002948 00000101 783.69 196.45 483.39 629.89 814.17 418.02 1008.44 362.55 865.23 511.91 884.78 677.53 1032.26 631.09
00002949 00000102 784.06 191.76 484.42 629.82 810.78 416.60 1009.19 363.78 860.55 514.08 875.05 674.12 1031.40 629.90
00002950 00000103 783.69 193.32 484.60 636.12 810.98 416.91 1007.98 363.59 859.49 515.51 876.85 678.04 1031.19 633.32
00002951 00000104 783.07 194.61 485.00 638.76 814.58 420.11 1011.40 358.91 868.76 512.51 889.72 682.35 1043.31 630.84
00002952 DELETE   790.12 198.19 499.16 630.46 828.62 419.72 1024.65 359.82 886.54 510.59 905.52 674.98 1057.05 623.98
00002953 DELETE   796.12 187.10 502.23 631.21 850.04 411.47 1036.03 341.51 914.37 490.66 937.48 659.03 1078.93 599.15
00002954 DELETE   796.09 174.22 492.66 627.35 865.12 407.36 1057.89 340.96 940.77 476.47 945.46 644.91 1095.96 588.14
00002955 00000108 791.27 169.66 491.73 628.00 863.67 399.17 1064.07 332.85 948.85 470.53 942.44 634.81 1107.37 577.35
00002956 DELETE   782.52 173.92 496.45 629.32 849.62 404.36 1052.02 332.17 930.12 473.90 932.60 643.80 1097.98 581.96
00002957 DELETE   766.20 180.53 501.15 628.34 829.86 415.90 1034.45 337.81 912.15 487.49 916.52 658.27 1084.65 591.85
00002958 DELETE   766.28 189.48 494.11 621.43 819.00 426.50 1025.57 351.74 897.39 501.68 901.66 667.99 1069.07 604.87
00002959 00000112 767.43 202.59 503.65 618.57 821.92 422.32 1021.31 361.17 884.60 511.15 896.53 663.66 1057.72 610.72
00002960 00000113 768.17 200.53 502.90 623.22 824.76 423.11 1024.05 363.32 888.27 513.45 897.58 665.99 1056.58 614.39
00002961 00000114 768.55 200.65 500.89 629.52 828.84 421.69 1027.38 365.69 891.47 512.89 897.91 666.50 1055.80 618.26
00002962 00000115 771.91 206.11 488.83 613.42 818.88 429.03 1023.08 358.41 892.14 509.59 898.89 675.12 1060.26 615.83
00002963 00000116 777.65 198.75 492.51 618.00 820.47 421.92 1025.09 353.49 891.75 504.03 898.43 671.06 1059.20 613.48
00002964 00000117 778.38 183.43 493.12 616.86 829.33 409.81 1028.44 344.75 898.31 489.36 909.13 654.50 1059.26 599.27
00002965 00000118 779.79 163.78 486.61 629.18 831.01 397.05 1029.24 340.03 897.81 474.30 901.43 638.81 1046.88 590.87
CROP_BBOX: 529 0 1559 1036
