Video ID: 	wbUGtWi1xPo
H: 	1080
W: 	1920
FPS: 	23.976023976023978

FRAME INDEX X0 Y0 W H [Landmarks (5 Points)]

00000893 00000000 896.83 93.10 473.06 650.13 955.22 328.49 1159.35 318.31 1020.38 457.94 992.01 573.82 1153.28 565.92
00000894 00000001 900.39 94.28 477.36 649.42 962.45 325.82 1166.54 318.40 1027.37 454.86 999.75 570.42 1159.88 564.23
00000895 00000002 901.61 90.60 478.32 653.70 967.14 327.59 1167.81 319.44 1030.29 452.16 1003.70 569.31 1160.45 562.35
00000896 00000003 900.89 85.29 474.88 659.61 968.65 335.27 1165.24 327.68 1029.16 453.76 1002.16 570.70 1158.46 564.31
00000897 00000004 898.82 84.78 471.27 656.04 965.96 336.41 1160.93 328.92 1024.97 454.17 998.04 568.77 1153.78 562.80
00000898 00000005 895.83 83.33 471.93 654.96 963.36 337.52 1154.21 330.18 1019.00 452.20 992.23 568.55 1144.52 563.13
00000899 00000006 892.51 82.91 469.58 657.83 960.39 339.49 1150.06 331.51 1013.65 451.94 987.38 570.74 1139.06 565.06
00000900 00000007 882.76 84.56 470.65 652.08 952.08 339.20 1144.30 331.76 1007.22 452.39 978.79 571.06 1131.95 565.80
00000901 00000008 869.15 83.24 475.66 649.78 942.13 340.27 1139.07 334.71 998.59 453.10 966.98 568.90 1123.02 565.17
00000902 00000009 856.72 83.43 478.65 654.14 932.69 342.23 1132.04 337.23 990.29 454.09 956.29 570.65 1112.79 567.47
00000903 00000010 842.09 88.14 477.07 652.10 912.76 339.20 1117.75 334.59 975.65 458.18 936.06 569.81 1098.02 565.77
00000904 00000011 834.45 92.74 471.36 654.38 900.42 339.68 1102.95 333.50 964.12 456.96 929.17 575.18 1088.24 570.37
00000905 00000012 825.55 89.88 469.54 667.59 889.14 346.57 1089.78 339.45 950.27 459.45 915.01 584.35 1072.05 579.30
00000906 00000013 807.05 92.18 475.70 672.49 874.07 351.60 1073.90 345.13 929.27 465.94 897.43 592.96 1054.82 588.71
00000907 00000014 785.06 101.94 479.05 670.46 855.58 361.24 1060.07 354.47 915.04 472.25 880.86 600.66 1040.90 596.04
00000908 00000015 764.57 116.93 477.54 657.22 834.42 364.15 1040.79 355.69 895.21 476.39 863.74 608.12 1023.24 601.05
00000909 00000016 750.09 122.45 459.54 656.00 812.65 376.38 1007.98 369.04 868.08 484.95 839.77 610.74 997.34 605.08
00000910 00000017 720.88 119.40 475.66 660.92 797.46 380.14 997.28 371.57 856.88 487.71 823.40 614.70 978.49 609.22
00000911 DELETE   709.90 100.91 472.24 664.01 780.47 373.04 972.43 366.21 828.99 469.34 806.19 604.83 942.01 599.79
00000912 DELETE   701.88 83.80 461.84 662.33 758.61 344.40 949.71 339.90 805.00 446.22 773.36 579.37 906.52 577.47
00000913 00000020 692.14 62.33 459.32 662.78 748.67 332.67 925.73 324.87 782.03 425.78 759.63 566.42 876.04 562.71
00000914 00000021 690.33 59.17 460.83 656.41 744.19 326.41 924.57 317.83 776.55 418.74 752.46 561.50 872.13 557.41
00000915 00000022 689.78 63.44 464.18 668.35 746.13 328.01 927.96 319.57 780.02 425.45 758.43 568.41 882.94 563.80
00000916 00000023 689.12 88.66 462.36 662.82 740.40 343.23 932.30 333.74 781.22 447.00 757.12 587.37 896.03 581.36
00000917 00000024 688.86 120.70 455.13 635.92 732.11 371.45 928.69 366.55 782.62 486.21 756.59 613.09 898.64 610.41
00000918 00000025 675.83 134.75 466.41 649.11 729.42 389.57 924.60 379.00 782.78 506.32 755.83 636.19 903.57 629.13
00000919 00000026 668.14 163.85 470.49 644.70 726.27 401.06 924.69 389.92 781.36 525.69 759.24 650.08 907.99 642.19
00000920 00000027 667.85 175.50 471.86 652.89 726.10 411.04 924.79 398.72 781.04 535.41 759.43 662.21 913.60 653.17
00000921 00000028 669.77 187.30 467.57 646.12 724.43 422.39 921.91 412.71 780.08 548.64 759.15 672.61 909.75 665.57
00000922 00000029 663.75 204.44 470.28 640.85 724.78 440.00 925.25 433.93 784.05 566.30 761.36 683.90 917.73 678.84
00000923 00000030 660.43 208.28 471.91 655.72 723.17 454.13 920.61 442.44 779.40 579.12 757.32 705.66 911.10 696.89
00000924 00000031 659.71 223.77 475.43 658.90 725.01 463.46 918.34 451.98 778.25 589.00 759.46 716.56 906.71 708.01
00000925 00000032 658.08 230.18 479.68 646.40 721.18 469.06 918.32 457.17 777.31 595.47 756.93 717.90 904.10 709.29
00000926 00000033 659.10 230.33 477.75 637.03 719.05 468.85 918.94 458.73 778.24 597.79 753.82 715.92 901.51 708.87
00000927 00000034 661.88 233.09 471.73 631.89 721.72 470.17 923.01 461.03 781.48 599.13 755.43 717.17 903.42 711.04
00000928 00000035 663.17 234.78 471.51 637.55 723.57 471.10 923.55 462.14 781.54 600.07 758.01 719.37 901.99 713.49
00000929 00000036 666.05 241.30 467.57 636.19 725.51 473.78 924.95 464.45 782.28 601.26 759.46 721.63 903.10 715.46
00000930 00000037 666.84 243.59 468.43 641.07 726.11 476.69 925.58 468.76 780.79 604.34 755.41 724.74 901.54 719.80
00000931 00000038 668.28 248.65 464.55 640.91 725.59 483.17 923.23 473.19 777.59 604.97 754.42 733.25 897.01 726.38
00000932 00000039 668.45 248.33 466.58 638.10 725.58 484.37 922.88 473.98 777.51 603.18 752.58 732.95 895.05 725.78
00000933 00000040 669.23 239.63 464.32 630.10 724.05 475.89 923.43 468.57 778.27 597.08 747.06 722.63 890.12 718.32
00000934 00000041 675.26 230.95 457.92 629.89 730.96 469.74 927.49 462.72 783.10 583.89 750.73 713.78 887.91 710.08
00000935 00000042 679.01 227.09 457.79 637.45 738.83 457.79 943.23 451.27 790.96 574.99 755.91 706.77 899.81 701.86
00000936 00000043 687.62 222.01 452.14 634.09 744.13 449.36 951.07 446.88 794.61 568.25 756.05 699.31 907.16 697.56
00000937 00000044 690.62 222.65 452.77 632.53 745.63 449.83 957.77 450.34 798.25 568.48 752.44 696.11 917.15 696.29
00000938 00000045 686.30 232.32 459.39 634.31 745.25 457.64 960.48 456.54 802.23 576.63 756.30 707.65 924.22 705.75
00000939 00000046 690.54 245.15 462.50 654.97 743.95 473.09 953.73 469.74 807.57 598.31 769.60 731.98 922.17 730.70
00000940 00000047 683.91 271.92 463.02 641.11 741.99 494.99 954.34 488.04 803.60 623.34 771.01 753.37 929.47 747.98
00000941 00000048 675.29 285.27 465.42 639.43 737.00 515.73 937.99 508.30 802.20 646.29 776.59 767.42 923.58 761.55
00000942 00000049 661.70 291.86 475.47 639.21 727.06 524.07 928.74 514.33 791.70 656.60 767.84 776.31 918.89 768.76
00000943 00000050 653.40 288.68 477.84 636.71 721.70 522.29 924.80 513.54 786.94 657.28 760.37 772.66 912.66 766.26
00000944 00000051 648.33 282.25 478.60 637.28 720.21 516.01 926.39 510.32 787.93 651.17 757.57 763.96 912.48 760.00
00000945 00000052 648.38 278.54 475.59 632.53 718.66 511.20 925.43 507.21 786.42 644.33 755.34 756.16 911.48 753.49
00000946 00000053 647.42 277.49 474.17 629.34 716.70 506.75 922.86 503.46 783.96 638.08 751.34 750.88 908.74 748.79
00000947 00000054 650.51 275.52 468.59 628.07 710.75 502.17 919.77 496.57 778.32 630.24 745.64 748.79 901.27 744.95
00000948 00000055 650.17 275.69 469.30 626.04 710.92 501.05 917.72 494.86 775.69 627.50 744.18 747.59 897.62 743.28
00000949 00000056 649.87 271.43 468.34 629.27 710.17 499.49 917.68 494.65 774.49 626.48 741.82 745.76 896.57 742.69
00000950 00000057 647.03 268.93 469.72 633.10 709.41 497.34 916.61 491.50 773.15 623.25 741.17 744.10 896.30 740.06
00000951 00000058 645.22 262.28 474.17 638.45 708.25 493.78 914.71 486.74 770.82 619.66 740.18 739.78 894.96 734.91
00000952 00000059 645.83 255.34 473.80 640.99 707.47 487.84 914.80 480.97 769.57 615.70 739.09 733.80 896.85 729.05
00000953 00000060 641.98 248.57 478.39 639.60 706.42 481.50 911.18 476.39 766.57 608.64 737.07 724.43 894.16 721.04
00000954 00000061 637.16 235.16 478.23 648.27 709.36 485.25 905.78 484.02 761.16 603.30 735.42 717.40 890.42 717.00
00000955 00000062 632.06 231.43 477.46 642.89 703.00 481.89 900.28 478.04 757.13 599.29 731.02 713.54 885.85 710.82
00000956 00000063 627.02 235.08 480.35 637.81 695.56 475.46 896.86 473.49 752.93 599.21 725.09 712.65 880.36 711.28
00000957 00000064 622.53 234.31 478.69 633.19 692.08 473.63 893.03 470.80 750.38 596.80 721.90 711.21 875.09 709.06
00000958 00000065 623.58 240.93 462.04 629.26 683.07 469.27 883.86 465.05 735.39 589.56 708.29 706.54 872.17 701.38
00000959 00000066 619.56 236.25 461.74 630.49 676.23 465.52 878.57 461.36 726.93 587.20 699.12 705.59 862.93 700.20
00000960 00000067 616.93 229.31 460.46 634.02 670.78 458.78 873.24 454.73 718.89 585.17 693.02 704.46 854.63 699.35
00000961 00000068 614.95 226.56 461.15 635.37 667.18 456.73 869.84 451.55 714.97 582.94 690.13 703.45 850.46 697.31
00000962 00000069 615.18 217.56 464.70 631.75 668.84 458.71 858.93 454.38 715.80 580.65 694.91 698.41 839.81 695.49
00000963 00000070 611.24 212.63 464.69 634.23 666.77 457.47 856.54 451.86 713.41 576.16 692.18 695.24 837.48 691.47
00000964 00000071 608.19 210.83 466.55 633.74 662.75 455.34 854.79 449.39 712.63 574.04 689.39 693.79 833.17 689.91
00000965 00000072 605.08 207.95 465.35 640.77 662.51 455.48 853.63 447.34 711.18 571.35 690.65 696.29 830.12 690.75
00000966 00000073 602.86 206.44 464.16 641.88 662.94 457.65 851.35 449.78 710.04 569.38 691.23 695.15 827.45 689.75
00000967 00000074 601.22 206.54 462.38 639.82 660.66 458.33 849.99 450.84 708.82 568.06 688.98 694.13 824.29 689.35
00000968 00000075 597.16 205.88 462.82 632.77 657.85 454.08 850.40 446.28 710.32 566.06 687.34 689.34 825.06 684.19
00000969 00000076 593.85 201.40 462.92 628.00 658.02 447.85 853.00 440.33 713.64 556.04 684.43 680.22 825.45 675.38
00000970 00000077 597.99 196.60 461.07 624.38 654.81 430.17 847.99 425.04 706.45 543.43 680.69 671.61 818.42 668.31
00000971 00000078 595.42 173.85 466.52 636.61 656.10 415.20 850.34 410.65 704.94 529.66 674.38 651.82 817.16 649.78
00000972 00000079 594.61 169.50 467.57 633.66 658.52 410.62 851.98 404.55 709.41 524.64 678.20 646.81 819.24 643.57
00000973 00000080 596.45 168.57 469.18 642.71 658.92 409.61 852.18 401.87 708.15 525.91 682.61 652.41 821.53 647.72
00000974 00000081 591.42 174.96 471.08 645.03 655.28 414.30 850.81 404.94 708.79 533.15 684.53 662.77 823.36 656.49
00000975 00000082 582.44 183.28 470.24 640.61 648.81 427.88 845.99 420.96 708.15 549.35 681.49 675.45 818.58 670.73
00000976 00000083 572.68 201.43 475.44 633.50 634.95 443.79 844.53 433.42 705.19 574.82 679.41 695.50 824.56 687.52
00000977 00000084 567.51 209.47 475.92 636.79 630.27 450.84 840.80 436.90 698.12 580.67 678.40 705.47 823.68 694.87
00000978 00000085 563.88 209.33 470.70 630.16 625.54 444.79 836.43 432.92 692.62 576.25 669.71 698.02 818.61 688.88
00000979 00000086 558.50 198.50 474.63 630.49 623.60 432.07 834.44 423.88 693.67 565.04 664.39 681.91 814.17 675.68
00000980 00000087 556.41 184.90 478.16 637.96 622.38 425.82 833.30 416.08 690.25 555.11 662.77 674.63 813.56 667.19
00000981 00000088 556.24 187.23 478.07 632.53 622.57 425.05 832.76 415.52 690.08 555.27 663.67 672.27 812.76 664.99
00000982 00000089 554.84 193.85 478.62 632.38 619.38 426.02 831.49 419.25 688.91 561.61 660.51 678.77 809.00 673.78
00000983 00000090 552.78 201.95 475.43 628.12 617.56 430.07 830.06 423.75 687.62 566.43 660.18 682.39 808.05 677.64
00000984 00000091 555.62 206.12 461.12 624.81 617.89 431.58 827.80 424.02 686.34 561.62 653.19 682.08 809.04 674.64
00000985 00000092 549.61 197.29 474.06 625.37 614.91 426.66 827.79 420.35 685.49 560.36 654.36 678.52 800.97 673.67
00000986 00000093 550.95 186.52 475.87 628.81 615.46 418.80 826.60 411.33 682.67 549.65 655.32 670.51 801.31 664.82
00000987 00000094 548.75 177.22 479.81 634.58 616.91 414.11 825.41 405.79 683.61 543.39 661.58 664.04 803.90 657.51
00000988 00000095 548.56 176.86 479.59 632.86 616.00 409.82 827.12 403.74 683.90 541.86 656.56 658.64 805.60 653.85
00000989 00000096 545.93 175.14 478.90 630.92 613.40 407.77 825.84 403.25 682.60 540.57 650.79 655.95 803.40 652.27
00000990 00000097 544.61 176.29 480.63 633.39 611.97 410.71 825.26 404.35 681.17 541.06 651.44 659.65 802.03 654.52
00000991 00000098 543.82 178.27 479.95 633.32 612.24 413.99 822.30 405.25 679.60 540.55 656.57 662.35 800.64 655.19
00000992 00000099 542.81 176.85 479.19 637.48 612.71 412.08 821.38 403.26 677.47 537.11 656.98 662.96 797.91 655.77
00000993 00000100 541.52 172.11 478.18 642.04 612.08 407.38 821.51 399.53 676.95 533.96 654.62 659.40 798.27 652.96
00000994 00000101 544.20 173.60 466.38 638.48 607.21 401.85 817.70 392.70 671.46 527.17 642.61 653.30 802.05 645.08
00000995 00000102 548.39 164.62 462.85 637.31 615.78 406.59 820.62 396.49 680.32 519.67 648.42 646.18 807.57 637.13
00000996 00000103 553.45 161.70 460.72 628.75 620.23 400.50 832.30 392.80 686.45 510.06 644.19 639.12 811.48 631.49
00000997 00000104 554.01 152.59 462.21 633.33 625.50 391.54 840.93 387.74 694.78 504.21 643.46 628.76 814.86 624.52
00000998 00000105 554.03 154.58 462.10 632.68 624.04 391.86 836.85 387.17 690.53 505.53 641.33 629.55 811.02 624.60
00000999 00000106 546.58 163.31 463.98 635.43 614.73 398.75 827.82 395.18 681.99 522.00 638.45 640.44 807.95 636.30
00001000 00000107 545.67 183.19 467.12 641.81 607.91 417.17 827.11 407.83 679.45 543.21 641.74 668.79 811.83 659.83
00001001 00000108 540.14 208.05 466.70 642.10 603.20 435.09 817.19 425.41 675.81 565.95 642.18 690.21 805.09 681.21
00001002 00000109 530.64 220.58 473.64 648.50 596.39 450.01 808.69 436.98 669.04 583.67 640.63 708.48 801.87 696.35
00001003 00000110 523.10 225.46 476.19 641.22 589.36 448.56 804.70 438.71 661.82 587.58 630.95 707.71 793.31 697.91
00001004 00000111 524.59 216.26 470.00 637.77 589.15 445.32 802.61 434.47 660.51 580.16 630.12 700.56 790.94 690.10
00001005 00000112 524.47 206.90 466.25 634.24 591.20 441.77 796.16 436.30 658.65 574.71 631.75 689.16 784.41 685.05
00001006 00000113 525.71 206.55 466.74 628.92 590.42 440.64 797.13 436.26 659.35 573.77 629.23 684.42 784.23 681.30
00001007 00000114 523.05 209.61 469.50 636.68 591.07 444.60 796.59 438.59 657.32 579.08 632.02 693.42 782.31 689.00
00001008 00000115 520.31 214.08 472.07 649.74 588.93 451.37 790.38 443.29 655.37 589.69 633.20 707.49 776.47 701.44
00001009 00000116 518.18 221.38 475.67 640.39 586.23 454.65 789.22 446.58 655.77 593.69 632.29 708.60 776.73 702.40
00001010 00000117 517.02 218.79 476.41 645.33 586.50 451.28 789.00 443.27 655.58 589.92 631.50 705.16 780.93 698.71
00001011 00000118 522.12 216.36 475.95 642.91 592.73 444.68 794.74 437.85 659.00 583.20 636.11 698.15 786.86 692.49
00001012 00000119 523.32 217.93 476.74 632.07 594.39 443.04 801.00 435.75 666.53 579.15 636.49 692.23 792.96 685.90
00001013 00000120 530.14 218.25 473.54 630.17 596.18 441.33 815.32 431.82 671.75 574.45 630.69 692.15 800.23 682.84
00001014 00000121 530.51 218.45 477.94 629.64 599.12 440.68 820.01 431.17 677.78 572.69 632.59 690.27 802.69 681.12
00001015 00000122 532.46 221.49 475.05 628.89 601.33 442.67 820.88 431.71 680.36 575.40 636.55 692.99 807.27 682.56
00001016 00000123 532.50 220.36 477.98 635.92 602.56 442.35 820.76 430.86 680.43 575.53 640.92 695.15 810.73 684.04
00001017 00000124 532.20 218.57 480.50 641.04 603.09 440.74 820.55 429.38 680.10 574.55 642.31 695.18 812.15 684.10
00001018 00000125 531.48 217.83 479.80 636.75 601.90 439.99 820.50 427.92 680.74 573.65 643.18 694.10 811.98 682.46
00001019 00000126 532.22 217.38 478.37 633.99 601.54 440.20 820.60 428.74 679.61 572.44 640.57 692.88 810.39 681.81
00001020 00000127 530.81 220.35 477.65 629.05 598.68 440.21 817.29 429.33 675.93 572.88 637.41 692.03 806.28 681.46
00001021 00000128 532.36 212.84 471.03 631.40 597.54 448.89 813.75 439.08 671.94 572.99 630.73 689.79 801.35 680.18
00001022 00000129 532.40 201.46 466.43 633.54 594.94 449.65 796.16 444.53 660.54 570.25 629.40 678.51 787.52 674.90
00001023 00000130 532.54 193.72 469.60 635.75 587.43 431.96 790.77 430.24 648.23 560.61 623.57 674.33 777.13 672.85
00001024 00000131 532.21 182.42 466.79 638.38 587.79 416.98 785.33 415.12 639.33 545.87 615.99 658.33 770.55 657.37
00001025 00000132 532.55 172.94 466.26 642.47 587.57 403.87 783.64 402.87 636.11 534.40 614.95 648.54 769.20 648.50
00001026 00000133 532.05 167.19 466.83 639.23 589.97 396.78 783.29 393.42 637.61 523.62 616.73 642.62 766.23 640.87
00001027 00000134 539.08 164.45 461.83 635.01 593.72 390.71 784.77 386.60 641.31 517.82 620.64 637.88 766.16 635.34
00001028 00000135 538.20 161.68 459.61 637.44 594.18 383.72 796.04 376.39 644.50 507.29 617.37 636.27 772.06 629.38
00001029 00000136 541.45 162.04 455.65 635.77 595.51 382.02 797.01 373.40 646.31 504.38 617.58 633.90 773.80 625.83
00001030 00000137 540.33 159.89 455.92 639.38 596.63 380.41 798.52 372.03 648.07 503.43 618.29 632.44 775.24 624.70
00001031 00000138 541.18 157.68 456.12 643.23 596.95 377.90 798.72 368.99 645.53 500.72 617.84 631.68 777.31 623.37
00001032 00000139 547.37 151.87 452.42 648.69 602.45 379.37 792.25 373.48 649.90 499.78 629.11 629.85 773.36 625.60
00001033 00000140 545.14 150.12 451.02 649.11 599.97 379.13 787.88 372.21 648.53 498.55 630.28 630.93 769.78 625.77
00001034 00000141 542.13 146.37 451.14 644.79 596.01 376.88 787.13 368.24 645.49 494.92 628.26 629.13 764.90 622.72
CROP_BBOX: 338 0 1558 1080
