Video ID: 	1iThiTnODYE
H: 	1080
W: 	1920
FPS: 	29.97002997002997

FRAME INDEX X0 Y0 W H [Landmarks (5 Points)]

00011889 00000000 659.23 99.78 393.62 514.76 790.18 294.72 964.25 289.73 900.58 385.98 824.47 496.85 949.96 491.88
00011890 00000001 656.28 98.81 396.16 516.27 789.76 290.82 962.20 285.86 900.70 381.01 824.77 495.51 945.85 490.51
00011891 00000002 656.36 98.43 396.41 517.18 790.69 288.44 961.63 282.91 901.28 378.35 825.32 495.02 943.73 489.71
00011892 00000003 661.16 96.76 391.63 510.23 789.29 286.13 964.50 280.71 901.03 377.90 824.90 492.70 946.05 487.55
00011893 00000004 663.37 96.21 389.54 506.69 789.28 283.35 966.29 278.32 901.59 376.51 824.73 490.56 946.01 485.74
00011894 00000005 664.87 97.70 389.60 503.38 789.36 281.83 968.92 278.44 901.31 377.58 824.07 490.04 946.59 486.48
00011895 00000006 666.57 99.25 389.86 500.37 790.95 280.22 971.07 278.89 902.27 378.13 824.16 488.62 947.03 486.68
00011896 00000007 667.08 100.98 390.79 497.99 792.69 278.54 971.94 278.11 903.30 376.28 824.89 487.00 947.47 485.70
00011897 00000008 668.56 101.49 390.32 497.16 793.65 277.97 972.50 278.19 903.24 375.00 824.95 485.77 947.09 485.04
00011898 00000009 669.52 101.78 391.73 497.73 794.74 279.10 973.95 279.80 903.49 375.23 824.83 486.30 948.32 485.94
00011899 00000010 671.33 103.06 392.57 499.60 795.54 281.98 975.67 282.61 903.41 376.55 824.87 488.89 951.00 488.61
00011900 00000011 670.14 106.14 395.86 500.64 796.44 284.10 976.11 285.97 903.89 377.59 824.51 490.37 951.48 491.07
00011901 00000012 670.03 110.21 400.10 502.85 797.70 286.39 975.59 289.04 902.92 379.78 824.24 492.21 950.30 493.59
00011902 00000013 667.03 115.99 404.05 504.97 797.51 288.09 974.24 292.16 901.14 382.55 822.72 494.24 948.78 496.63
00011903 00000014 663.81 119.77 407.25 507.00 795.92 291.78 971.81 296.48 899.39 384.55 819.82 496.75 947.20 499.74
00011904 00000015 659.74 122.85 410.17 510.09 793.28 295.60 970.63 301.35 896.78 391.46 816.46 501.46 944.85 505.21
00011905 00000016 657.39 126.09 409.38 509.52 793.16 300.52 970.72 307.24 896.51 396.15 815.91 505.61 943.71 510.56
00011906 00000017 656.91 129.24 407.82 510.37 792.20 306.26 967.47 312.17 893.65 401.90 813.96 509.56 941.43 514.43
00011907 DELETE   654.39 128.88 406.94 514.00 789.68 311.21 967.87 316.92 892.60 408.59 812.37 516.49 939.50 521.63
00011908 00000019 652.96 132.38 406.61 517.25 787.48 316.11 968.71 324.30 891.49 411.90 809.09 523.39 937.13 531.02
00011909 00000020 648.82 133.58 409.27 520.36 787.63 319.17 969.53 328.47 891.86 415.49 807.53 526.99 935.67 535.48
00011910 00000021 645.56 134.63 410.87 520.57 785.47 321.04 968.98 331.83 889.73 416.96 804.54 527.89 933.73 537.67
00011911 00000022 643.52 135.95 412.78 520.88 783.06 322.91 967.57 334.30 887.26 419.05 801.99 528.44 932.05 538.69
00011912 00000023 647.14 143.49 408.17 510.56 775.78 320.89 962.03 327.81 884.24 421.82 798.57 532.32 926.10 537.12
00011913 00000024 647.37 144.06 405.94 511.32 775.71 321.39 961.23 328.28 884.01 422.97 798.18 532.87 925.41 537.63
00011914 00000025 646.08 144.21 406.15 512.05 774.32 322.62 959.74 329.18 882.91 424.19 796.12 533.37 924.05 537.82
00011915 00000026 645.64 144.02 406.45 512.43 774.09 322.18 959.96 329.57 882.81 425.09 795.74 533.35 924.09 538.47
00011916 00000027 647.03 143.66 404.90 512.61 774.45 322.61 960.29 329.72 883.43 425.88 796.35 534.01 925.01 538.97
00011917 00000028 646.98 144.27 404.85 513.54 774.59 323.10 960.83 329.94 883.96 427.71 796.87 535.56 925.37 540.29
00011918 00000029 645.61 145.18 406.50 514.42 775.24 324.00 961.31 330.09 885.06 429.87 797.86 537.46 925.53 541.60
00011919 00000030 646.78 145.86 406.06 514.01 776.25 324.63 962.95 330.81 886.68 432.50 798.07 538.89 926.33 543.20
00011920 00000031 646.60 149.68 406.48 513.03 777.10 327.14 963.65 332.05 887.96 435.25 799.54 541.93 926.18 545.06
00011921 00000032 645.81 153.28 407.06 514.24 780.09 330.43 965.21 334.85 890.99 438.95 801.92 546.09 926.50 548.76
00011922 00000033 646.84 156.07 405.28 516.45 781.87 333.64 964.99 338.24 891.61 441.39 802.52 549.10 925.45 552.06
00011923 00000034 647.76 156.99 404.64 518.45 782.69 337.51 965.07 341.90 892.03 444.53 803.63 552.42 926.00 555.26
00011924 00000035 647.30 157.82 405.79 520.82 782.60 340.46 965.23 345.51 891.97 447.00 802.82 554.88 926.21 558.25
00011925 00000036 646.20 158.61 407.18 523.39 783.28 341.69 966.74 347.61 893.11 450.29 802.86 556.98 927.35 561.09
00011926 00000037 646.68 159.27 406.06 523.35 783.61 342.25 966.03 348.20 892.68 450.61 802.89 556.96 926.75 561.09
00011927 00000038 645.22 160.13 406.89 523.31 783.38 341.74 966.31 348.29 892.57 450.78 802.15 556.29 926.09 560.87
00011928 00000039 643.82 160.12 408.66 523.45 782.26 341.47 964.52 347.90 890.43 450.67 801.06 555.46 923.79 559.81
00011929 00000040 643.25 157.81 408.35 523.15 782.50 339.55 964.64 346.63 890.63 448.47 799.91 552.42 924.35 557.35
00011930 00000041 641.72 157.34 408.46 522.83 781.76 337.65 962.86 344.61 888.97 447.55 798.46 549.57 923.22 554.57
00011931 00000042 640.25 158.15 408.89 519.83 780.34 337.55 961.29 344.59 887.17 447.88 796.22 546.21 923.14 551.43
00011932 00000043 638.29 157.66 409.93 518.56 779.05 336.31 959.86 343.48 885.16 447.67 794.76 543.85 922.53 549.16
00011933 00000044 637.91 157.65 409.66 517.02 777.09 335.43 958.92 343.01 884.06 446.32 792.60 541.56 922.94 547.18
00011934 00000045 636.43 157.89 410.45 518.51 776.14 336.50 957.31 344.26 882.17 447.29 790.85 541.12 922.74 546.90
00011935 00000046 635.18 159.26 411.16 521.60 776.95 339.15 957.41 347.06 882.75 450.29 789.71 541.99 924.24 548.13
00011936 00000047 634.37 161.27 411.46 525.59 778.31 338.76 958.16 347.85 884.40 450.67 788.79 541.04 925.93 548.27
00011937 00000048 635.15 160.14 411.14 526.76 779.98 336.50 959.18 346.36 884.94 449.15 789.74 538.61 927.61 546.28
00011938 00000049 635.36 157.15 409.82 523.99 778.66 333.36 958.07 344.45 883.07 447.21 788.73 534.43 926.78 543.18
00011939 00000050 631.59 151.21 413.97 524.26 777.17 324.61 959.75 339.16 881.67 444.05 784.91 526.70 926.57 538.03
00011940 00000051 630.61 142.82 413.54 526.84 774.77 319.68 958.99 336.04 879.20 438.13 781.13 519.08 926.79 531.71
00011941 00000052 629.82 139.00 412.96 527.78 774.44 314.90 958.16 331.53 878.10 434.46 779.87 515.09 925.37 527.98
00011942 00000053 629.46 135.76 412.38 529.20 774.90 310.74 958.60 329.14 877.88 432.18 778.00 512.85 923.05 527.25
00011943 00000054 630.96 135.57 410.57 528.83 776.21 309.25 959.00 328.34 878.17 430.92 778.75 512.71 921.74 527.68
00011944 00000055 630.59 135.26 409.95 531.19 775.19 310.82 958.34 329.54 877.31 431.52 778.57 515.32 920.33 529.89
00011945 00000056 631.52 137.41 409.00 531.52 774.21 315.81 956.50 331.96 875.79 434.87 780.88 522.28 918.09 534.64
00011946 00000057 631.14 142.88 408.95 528.16 773.48 320.25 956.19 336.23 876.75 439.07 781.61 525.82 919.37 538.03
00011947 00000058 631.02 146.91 408.58 530.52 773.57 323.31 956.29 340.56 877.65 446.73 781.72 528.99 922.37 542.21
00011948 00000059 631.51 153.34 407.65 530.61 774.96 328.59 956.13 343.84 879.32 450.46 783.38 534.08 923.18 545.73
00011949 00000060 630.93 156.67 406.54 529.32 776.49 332.54 955.23 346.39 880.67 452.85 784.97 537.09 920.67 547.52
00011950 00000061 631.34 157.00 405.74 530.63 777.77 333.59 955.42 347.18 881.60 454.20 785.50 538.72 919.62 549.03
00011951 00000062 633.71 153.09 401.88 526.09 777.31 334.58 956.25 347.77 882.64 455.17 785.69 538.90 920.59 548.99
00011952 00000063 632.15 154.85 404.18 532.47 780.15 333.82 957.41 345.01 885.03 453.07 787.89 544.04 917.35 552.56
00011953 00000064 633.39 155.83 405.09 541.71 780.09 331.44 957.66 344.22 884.60 453.24 787.06 549.35 914.77 559.28
00011954 00000065 633.65 155.05 404.79 545.28 781.78 331.16 957.96 342.95 886.22 450.89 789.94 553.63 912.78 562.45
00011955 00000066 632.63 154.41 406.11 543.70 782.62 331.30 958.88 342.81 888.59 451.63 791.25 552.13 915.94 560.71
00011956 00000067 632.43 152.09 405.92 536.29 780.78 333.24 958.28 341.24 888.19 449.65 793.10 547.21 921.91 552.94
00011957 00000068 633.63 150.48 402.82 529.67 780.62 336.39 958.41 343.54 889.09 447.89 795.66 545.23 924.98 550.32
00011958 00000069 636.21 150.99 398.41 530.78 780.95 339.88 955.58 345.64 887.98 446.88 797.94 547.06 924.25 551.00
00011959 00000070 634.56 152.71 400.71 530.56 781.28 339.88 955.50 345.78 888.79 451.08 797.70 547.10 923.67 551.12
00011960 00000071 634.40 154.59 400.53 528.17 780.98 342.99 956.45 350.13 889.65 454.43 795.49 545.19 928.76 550.52
00011961 00000072 635.30 154.38 399.66 525.94 780.93 343.73 956.22 350.50 889.91 454.91 796.55 544.41 929.74 549.33
00011962 00000073 638.80 153.64 396.70 524.89 782.65 343.41 957.12 349.59 891.81 455.88 799.10 546.06 930.04 550.68
00011963 00000074 639.07 154.06 396.75 526.83 784.19 342.25 957.55 348.29 893.08 453.99 803.09 549.18 927.08 553.27
00011964 00000075 638.67 153.85 398.61 528.91 784.19 341.63 957.56 346.50 894.22 452.39 805.55 551.51 926.19 554.34
00011965 00000076 638.45 153.91 398.92 527.95 783.83 341.01 958.42 344.22 895.69 451.19 806.74 552.59 926.87 554.00
00011966 00000077 636.79 153.51 399.12 528.95 784.28 337.95 958.63 341.63 897.03 448.35 806.89 551.10 926.72 552.92
00011967 00000078 634.27 152.55 398.53 524.53 782.44 333.86 956.72 337.83 893.38 444.39 802.94 543.91 925.28 545.95
00011968 00000079 631.16 148.36 399.54 522.54 776.62 330.28 954.88 336.59 888.60 439.63 798.07 535.07 928.88 538.59
00011969 00000080 627.14 131.20 400.53 535.64 774.69 328.78 958.30 340.26 887.34 432.25 795.85 527.98 936.54 538.17
00011970 00000081 624.84 127.77 402.35 531.83 771.18 325.06 955.74 336.92 882.39 427.99 792.91 522.00 933.78 532.18
00011971 00000082 623.95 127.69 402.34 527.80 769.47 323.96 952.93 333.04 879.87 426.22 793.81 522.30 931.15 529.98
00011972 00000083 621.22 126.47 402.01 527.07 763.42 321.91 949.43 330.97 873.86 422.78 789.29 521.06 927.22 528.47
00011973 00000084 618.81 126.33 401.33 526.61 760.81 321.15 944.36 328.23 870.49 421.21 788.87 520.86 923.76 526.45
00011974 00000085 616.69 128.98 400.74 518.99 757.65 320.91 942.08 325.10 869.20 418.96 788.12 519.79 923.73 523.02
00011975 00000086 616.42 128.51 398.63 516.44 754.93 319.70 938.31 322.07 866.22 417.29 787.05 518.63 920.67 520.42
00011976 00000087 613.30 129.86 400.53 514.30 752.00 318.03 936.14 321.86 862.83 414.55 783.77 515.43 919.19 518.28
00011977 00000088 611.80 127.90 399.73 515.86 750.30 316.63 933.37 320.60 860.71 412.45 780.91 512.31 917.09 515.29
00011978 00000089 608.59 126.16 401.76 519.35 748.15 316.55 930.82 321.93 858.07 410.39 775.64 507.77 915.76 512.16
00011979 00000090 604.76 128.55 403.93 521.24 745.04 316.84 926.32 322.61 854.94 410.83 770.62 506.38 912.01 511.33
00011980 00000091 602.97 128.56 405.05 525.84 743.18 316.55 926.08 323.83 853.17 412.74 768.75 509.24 910.99 515.44
00011981 00000092 601.02 129.59 405.94 532.85 742.15 315.95 923.42 326.08 850.72 415.14 764.56 512.44 905.55 521.13
00011982 00000093 599.76 130.33 404.88 538.81 742.25 316.90 924.35 327.74 851.35 420.49 764.00 522.10 900.59 531.82
00011983 00000094 599.61 132.94 405.95 533.95 743.08 320.57 924.59 331.50 852.01 423.76 764.56 522.48 901.68 532.34
00011984 00000095 601.77 134.37 404.64 526.13 745.38 325.40 927.67 336.09 853.40 422.67 768.12 521.43 905.27 530.55
00011985 00000096 604.25 132.13 403.87 523.58 746.19 327.61 928.82 335.35 854.53 421.92 772.93 520.91 908.98 527.51
00011986 00000097 607.86 129.93 401.58 524.66 747.41 329.06 929.65 336.39 855.70 423.72 776.87 523.11 911.63 529.29
00011987 00000098 610.57 129.22 401.21 525.63 749.26 329.75 931.19 336.55 857.10 426.80 779.02 525.70 912.60 531.54
00011988 00000099 612.94 130.46 400.55 523.88 751.86 329.41 934.04 335.90 859.91 429.19 782.64 528.12 913.81 533.67
00011989 00000100 613.48 131.93 402.40 525.92 754.58 330.16 937.31 338.57 862.37 431.94 782.90 529.39 915.57 536.46
00011990 00000101 615.03 132.15 402.46 527.42 756.68 330.90 940.80 339.81 865.01 433.80 783.55 531.75 916.63 539.13
00011991 00000102 615.37 135.08 402.67 525.83 758.47 332.54 942.04 341.36 866.88 437.52 785.64 533.96 916.81 541.12
00011992 00000103 620.90 149.97 398.70 512.92 759.05 335.32 939.08 334.48 869.91 439.41 787.63 541.76 910.15 538.60
00011993 00000104 622.19 151.82 396.76 514.35 760.83 337.97 938.40 336.51 871.75 443.75 788.89 547.20 907.69 543.68
00011994 00000105 623.14 154.01 394.87 516.09 762.29 340.34 937.28 338.51 871.63 447.68 788.85 550.68 904.65 547.23
00011995 00000106 623.88 157.53 393.21 515.94 763.83 343.65 937.67 342.28 872.62 448.85 790.48 553.13 903.89 550.28
00011996 00000107 624.97 160.30 391.30 517.38 764.76 347.27 939.85 347.49 873.26 453.39 788.76 556.77 905.68 555.28
00011997 00000108 625.56 162.57 391.63 517.08 765.11 349.16 940.61 350.35 872.47 456.45 787.87 558.48 905.16 557.94
00011998 00000109 625.18 165.14 392.39 517.08 766.29 351.03 941.43 353.96 871.80 459.99 786.28 560.98 902.63 561.95
00011999 00000110 624.58 164.95 394.08 520.15 766.44 352.51 942.97 356.20 872.19 461.80 785.90 562.12 904.93 563.70
00012000 00000111 623.68 166.57 395.31 519.22 765.86 350.10 942.87 356.05 871.30 461.47 783.21 558.07 904.75 561.43
00012001 00000112 621.92 165.84 397.59 525.54 764.83 348.30 943.08 355.27 871.18 461.08 780.34 557.92 905.25 562.23
00012002 00000113 620.60 166.06 399.19 529.81 763.48 347.14 942.17 355.40 869.77 460.67 777.19 557.84 903.81 563.34
00012003 00000114 618.94 164.88 400.89 537.33 762.53 344.58 940.78 354.25 868.04 458.85 775.33 560.86 898.43 567.42
00012004 00000115 618.11 163.22 400.90 538.92 759.79 343.65 938.65 352.44 865.84 456.85 772.90 561.50 895.77 567.41
00012005 00000116 617.12 163.46 400.49 535.37 758.74 344.08 938.29 352.08 865.51 458.17 771.30 561.38 895.99 566.77
00012006 00000117 618.09 162.83 396.87 530.79 758.59 345.44 937.25 352.68 865.43 459.44 771.91 559.69 896.11 564.56
00012007 00000118 618.32 163.61 394.13 524.62 758.49 346.88 936.57 352.71 865.60 460.23 773.26 559.76 896.43 563.41
00012008 00000119 618.94 163.00 391.82 520.94 758.20 347.47 935.25 351.87 865.60 460.03 776.25 559.07 897.94 561.41
00012009 00000120 618.14 164.69 392.38 518.83 757.95 348.48 934.02 353.03 864.71 459.79 775.78 558.19 897.03 560.56
00012010 00000121 615.78 165.87 395.30 522.96 755.59 349.48 932.94 355.64 861.99 460.42 772.51 560.05 894.11 563.82
00012011 00000122 613.43 166.76 398.57 525.77 753.85 349.46 930.63 357.09 858.93 459.91 768.67 560.43 890.00 565.55
00012012 00000123 612.62 167.01 397.63 524.24 752.32 349.90 930.02 358.82 856.90 460.94 765.55 559.57 890.01 565.83
00012013 00000124 611.80 167.60 397.24 521.28 751.90 350.89 927.98 360.48 854.94 463.16 763.33 557.95 889.65 564.71
00012014 00000125 610.52 168.61 398.40 520.02 749.51 352.54 926.54 362.18 852.27 464.07 761.07 558.20 888.31 564.99
00012015 00000126 609.79 168.70 399.82 522.46 748.13 351.88 925.35 362.83 849.14 465.05 757.66 559.32 883.94 567.31
00012016 00000127 609.59 168.33 400.79 525.64 746.45 351.36 924.09 363.40 846.72 465.21 755.18 561.00 881.54 569.93
00012017 00000128 608.52 167.45 402.07 528.51 744.98 351.79 923.11 363.93 845.04 466.54 753.30 562.16 880.11 571.24
00012018 00000129 608.37 167.31 401.54 529.39 745.14 352.30 923.42 364.93 845.19 468.27 752.01 563.68 880.16 573.25
00012019 00000130 608.07 167.49 401.77 530.52 745.35 352.49 923.98 365.22 845.63 469.98 751.28 564.67 880.37 574.32
00012020 00000131 606.94 167.22 401.82 531.56 745.76 353.57 924.14 366.03 846.24 471.19 751.89 566.34 880.50 575.76
00012021 00000132 606.73 167.76 401.38 531.65 745.13 354.40 923.86 366.55 846.06 472.09 751.94 567.74 880.16 576.92
00012022 00000133 606.56 168.60 401.35 531.30 745.40 354.79 924.65 367.10 846.25 473.31 751.50 568.48 880.34 577.77
00012023 00000134 605.84 167.65 401.58 533.15 744.13 355.75 924.08 367.80 846.08 473.59 750.95 569.31 880.43 578.51
00012024 00000135 605.10 167.69 402.49 533.52 743.66 356.38 924.14 368.73 845.16 474.10 750.49 569.83 879.87 579.31
00012025 00000136 604.72 167.91 402.41 533.71 743.40 356.86 924.37 368.94 845.52 474.72 750.34 571.09 879.97 580.37
00012026 00000137 603.59 168.83 403.38 533.01 743.43 357.27 924.47 369.13 845.30 476.24 750.67 572.12 879.09 581.21
00012027 00000138 602.95 168.35 403.46 533.33 742.88 357.95 923.70 370.00 845.03 476.04 750.12 572.17 878.18 581.46
00012028 00000139 603.01 168.82 403.30 532.79 742.56 358.13 923.58 369.94 844.78 476.27 749.95 572.18 878.12 581.26
00012029 00000140 602.18 169.70 403.48 531.49 742.54 357.98 923.64 370.09 844.72 476.53 749.94 572.27 878.09 581.54
00012030 00000141 601.36 168.29 404.03 533.77 741.95 357.88 923.00 370.27 844.28 476.71 749.35 572.31 877.89 581.87
00012031 00000142 601.24 167.91 403.56 534.67 741.67 357.42 922.35 369.91 844.22 476.50 749.24 571.48 877.65 581.16
00012032 00000143 601.46 166.99 402.51 529.04 740.78 355.67 920.26 372.25 844.76 472.99 751.92 570.23 882.04 583.91
00012033 00000144 600.70 166.53 402.07 529.40 740.26 356.25 919.76 372.55 844.57 473.11 751.56 570.33 882.12 583.79
00012034 00000145 600.43 166.68 402.10 528.79 740.07 355.90 919.73 372.43 844.60 473.12 751.43 570.11 882.10 583.77
00012035 00000146 599.83 165.29 402.49 530.43 738.95 355.27 918.62 371.15 844.19 472.13 750.63 569.68 881.81 582.72
00012036 00000147 599.07 165.18 402.34 530.78 738.56 355.14 918.18 371.23 843.97 472.55 749.72 569.75 880.55 583.04
00012037 00000148 598.96 166.13 402.73 530.02 738.97 355.18 918.03 371.43 844.05 472.15 749.94 569.51 880.08 582.89
00012038 00000149 598.37 165.69 404.36 530.66 738.24 354.42 917.21 370.61 843.10 470.76 748.90 568.72 878.97 582.00
00012039 00000150 598.27 165.95 404.04 530.32 738.06 354.16 916.97 370.45 842.99 470.74 748.93 568.73 878.59 582.03
00012040 00000151 598.06 165.31 403.73 531.20 737.94 354.33 916.37 370.75 842.93 470.18 748.67 568.46 878.60 581.89
00012041 00000152 598.01 166.62 403.71 530.24 738.39 354.18 916.05 370.57 843.21 470.29 749.02 568.04 878.45 581.47
00012042 00000153 598.24 166.27 402.85 529.85 737.73 353.98 915.85 370.02 842.87 469.59 748.96 568.16 878.41 581.22
00012043 00000154 597.50 165.50 403.65 530.83 737.50 353.46 915.74 369.56 842.85 469.16 748.80 568.16 878.14 581.19
00012044 00000155 597.32 165.00 404.61 531.53 738.06 352.96 915.60 369.28 843.24 468.93 748.95 567.62 877.60 580.83
00012045 00000156 597.00 164.50 405.69 532.84 737.67 352.77 915.04 369.14 842.48 466.71 748.39 567.33 877.01 580.51
00012046 00000157 597.28 165.60 405.26 531.22 738.06 352.53 914.93 368.38 842.34 465.76 748.92 567.32 876.39 580.05
00012047 00000158 597.36 165.67 405.71 530.77 737.75 352.65 914.78 368.34 841.97 465.63 748.82 567.34 876.14 579.91
00012048 00000159 596.09 166.54 407.14 531.35 737.97 352.13 914.95 368.19 842.34 465.45 748.49 567.49 875.67 580.35
00012049 00000160 596.82 166.65 407.54 532.41 738.62 351.46 915.68 367.25 842.98 465.78 749.13 568.04 876.78 580.63
00012050 00000161 597.06 166.68 407.54 533.79 738.71 351.33 915.75 366.44 843.15 465.48 749.21 568.44 877.26 580.49
00012051 00000162 597.57 166.12 408.69 536.12 739.16 350.33 916.50 365.73 843.42 464.97 749.11 568.53 878.01 580.80
00012052 00000163 597.15 165.91 409.15 536.74 739.08 349.83 916.28 365.26 843.48 463.91 749.41 568.45 877.82 580.70
00012053 00000164 597.33 167.43 409.27 535.50 738.72 349.68 916.06 364.58 843.22 462.58 749.70 568.30 878.20 580.07
00012054 00000165 597.89 167.59 409.16 536.40 739.92 349.04 916.17 363.38 844.78 461.74 750.97 567.42 880.12 578.73
00012055 00000166 598.07 164.32 407.13 543.38 738.53 348.98 918.33 361.71 843.13 464.38 747.22 563.52 878.95 573.59
00012056 00000167 598.44 164.24 410.04 541.99 741.26 350.30 916.29 363.82 847.41 456.72 751.57 563.10 883.99 573.95
00012057 00000168 600.46 163.28 408.76 540.35 741.04 351.62 917.76 364.52 847.97 455.53 750.85 560.38 888.28 570.86
00012058 00000169 599.56 162.88 407.31 538.72 737.90 352.45 916.69 363.05 848.29 455.55 750.41 559.08 892.39 567.51
00012059 00000170 599.15 162.38 405.71 537.56 739.98 350.03 915.21 361.77 849.82 453.54 751.78 555.14 892.26 564.49
