Video ID: 	ddYFKBPz0Cs
H: 	1080
W: 	1920
FPS: 	25.0

FRAME INDEX X0 Y0 W H [Landmarks (5 Points)]

00003319 00000000 613.03 113.84 558.64 804.20 766.52 449.28 1013.71 409.16 921.59 569.65 824.50 710.25 1052.02 673.84
00003320 00000001 622.70 110.37 543.30 803.49 776.19 440.67 1020.32 399.38 926.30 574.48 829.92 709.15 1050.97 671.58
00003321 00000002 612.84 114.66 561.33 802.63 763.97 439.80 1014.66 401.51 918.84 576.56 832.53 716.36 1047.71 681.82
00003322 00000003 603.97 120.55 560.45 797.04 749.56 438.43 1002.82 404.95 901.41 580.82 820.46 723.66 1028.79 694.01
00003323 00000004 600.16 125.16 556.34 792.24 734.51 439.35 988.78 412.25 875.43 594.15 801.07 727.67 1003.89 704.40
00003324 00000005 597.64 123.33 549.61 792.76 717.67 443.29 974.27 424.94 844.94 607.48 770.62 725.53 978.31 709.47
00003325 00000006 590.28 137.74 547.55 778.18 699.28 447.38 956.39 434.85 814.84 620.13 748.32 723.97 958.73 712.88
00003326 00000007 580.47 143.29 550.18 782.62 683.16 453.24 933.20 445.22 782.35 628.73 728.94 733.69 931.96 725.79
00003327 DELETE   574.98 159.24 548.62 768.64 664.58 456.64 911.16 453.43 753.15 636.92 707.33 739.59 901.79 736.88
00003328 00000009 560.04 169.30 556.52 763.77 650.37 462.86 888.92 458.16 729.24 637.39 697.03 753.79 872.86 750.68
00003329 00000010 542.66 166.60 565.79 767.36 632.63 467.47 866.14 464.28 703.37 638.22 678.52 757.68 843.38 756.33
00003330 00000011 534.71 175.45 569.24 768.78 619.16 468.22 847.80 469.13 675.81 641.00 663.51 761.67 825.55 763.92
00003331 00000012 531.82 169.00 563.23 788.01 611.46 464.72 837.83 476.86 657.65 643.78 647.58 755.67 821.76 766.79
00003332 00000013 530.66 172.88 558.67 787.55 607.79 467.30 833.18 483.49 651.12 650.18 642.38 750.92 827.62 764.77
00003333 00000014 531.54 174.54 554.92 785.01 609.95 473.03 838.51 487.57 661.41 654.83 643.55 751.65 831.60 764.25
00003334 00000015 539.81 175.15 555.74 781.81 620.04 479.54 850.81 491.27 676.01 658.33 654.02 755.28 842.10 765.42
00003335 00000016 544.89 183.74 553.14 776.24 634.07 482.36 869.47 488.66 705.62 664.35 672.55 760.17 862.84 765.54
00003336 00000017 553.91 190.10 553.78 776.95 649.09 484.51 888.65 488.37 731.66 669.35 690.64 764.22 886.33 766.48
00003337 00000018 567.96 190.16 550.22 772.16 663.68 490.35 915.54 488.75 759.66 675.81 706.14 762.22 915.02 760.47
00003338 00000019 575.47 183.55 550.43 778.08 682.92 492.63 931.84 483.92 787.82 671.22 730.51 763.12 941.99 754.96
00003339 00000020 588.73 189.87 546.66 773.29 706.07 496.42 955.25 482.59 818.64 669.07 755.34 762.27 963.73 747.48
00003340 00000021 595.86 193.38 545.20 767.04 724.19 498.14 972.83 481.14 845.29 664.23 774.95 760.70 983.45 742.91
00003341 00000022 601.21 187.64 546.32 774.52 733.59 499.30 982.29 475.65 862.77 659.59 788.81 763.32 997.73 740.01
00003342 00000023 599.29 169.38 554.23 790.57 737.75 496.46 985.64 472.10 877.91 658.89 797.11 764.20 1008.23 743.50
00003343 00000024 599.05 167.71 558.25 792.23 743.40 493.74 991.14 468.58 886.45 654.76 804.32 764.95 1011.50 743.81
00003344 00000025 602.33 170.21 557.50 787.99 748.36 490.74 996.76 466.34 892.32 653.28 811.85 766.68 1010.70 746.30
00003345 00000026 605.26 170.06 555.71 785.42 748.42 487.42 997.74 463.60 891.57 653.48 813.73 768.72 1007.66 748.98
00003346 00000027 606.81 169.85 552.79 787.31 746.72 484.52 997.07 463.73 887.09 651.96 808.81 767.31 1003.39 750.26
00003347 00000028 609.37 173.33 549.32 786.53 742.65 484.38 994.56 467.21 877.22 651.91 795.98 763.56 1001.17 749.66
00003348 00000029 610.26 172.63 547.78 784.52 736.56 484.89 990.44 470.66 865.73 650.98 783.84 759.79 996.25 748.23
00003349 00000030 607.45 175.54 543.29 773.18 729.30 478.79 988.24 468.81 850.66 647.39 767.89 751.92 986.85 742.59
00003350 00000031 610.85 189.45 532.04 761.52 725.86 474.83 973.99 469.97 837.92 644.24 762.39 745.32 973.55 740.81
00003351 00000032 610.00 188.53 531.27 760.62 719.70 473.40 966.24 471.85 824.72 644.25 753.38 745.57 958.61 744.58
00003352 00000033 606.17 190.52 529.03 748.54 711.46 471.57 954.45 474.74 809.32 645.14 743.73 743.49 940.27 746.96
00003353 00000034 604.03 194.13 527.49 747.49 702.11 474.11 942.25 480.86 790.83 647.73 730.95 744.97 926.74 751.52
00003354 00000035 601.54 201.29 527.22 744.24 696.76 476.67 936.81 486.22 780.32 650.86 722.10 749.14 914.55 758.13
00003355 00000036 600.07 194.57 526.45 752.84 694.85 477.98 931.80 490.76 770.15 653.12 716.90 748.70 907.24 760.26
00003356 00000037 599.85 192.10 525.14 743.01 690.23 475.19 933.36 491.69 769.65 658.06 715.12 748.40 908.29 763.28
00003357 00000038 599.26 189.85 525.97 746.24 690.77 476.43 936.19 491.21 774.26 660.38 717.32 746.46 916.41 759.50
00003358 00000039 603.73 191.86 526.07 750.85 696.08 479.14 943.08 487.43 785.40 660.65 723.26 746.07 930.99 753.44
00003359 00000040 607.84 195.27 529.31 759.91 709.87 485.98 954.54 492.97 803.30 664.03 735.92 746.24 946.22 751.92
00003360 00000041 612.78 210.42 523.96 756.63 724.14 492.64 967.14 494.87 826.69 662.98 751.04 748.37 974.07 748.66
00003361 00000042 621.55 203.18 527.69 771.79 740.37 495.66 982.69 494.17 846.68 665.27 772.17 755.60 982.60 752.01
00003362 00000043 625.63 201.77 529.89 770.89 747.95 501.65 990.07 490.96 864.73 667.80 788.14 761.64 997.43 750.44
00003363 00000044 622.98 196.52 535.24 772.41 756.25 498.41 998.26 487.73 884.51 667.24 799.03 761.01 1009.74 749.71
00003364 00000045 618.73 200.53 541.87 767.10 767.36 505.18 1011.76 493.80 902.46 679.88 810.17 771.41 1017.77 760.17
00003365 00000046 628.71 207.71 541.99 760.36 776.59 515.29 1022.02 500.35 914.41 688.43 827.79 783.35 1027.92 769.18
00003366 00000047 633.13 194.32 543.38 774.05 777.36 519.64 1034.74 496.18 927.13 694.13 836.00 794.03 1040.07 773.02
00003367 00000048 633.53 202.93 542.39 765.20 778.31 520.00 1037.00 497.29 928.62 694.57 833.50 791.25 1042.78 770.96
00003368 00000049 631.84 204.15 542.25 764.61 775.56 520.57 1034.14 500.20 923.05 695.61 825.16 787.94 1038.85 769.49
00003369 00000050 624.75 220.79 540.75 751.42 771.50 518.26 1020.36 504.81 909.81 692.19 814.45 782.57 1022.30 769.71
00003370 00000051 617.69 213.83 537.75 767.25 758.55 512.89 1007.56 505.06 888.53 687.97 793.86 777.34 1010.41 769.12
00003371 00000052 613.13 213.02 531.78 768.02 744.97 509.74 990.98 502.60 866.43 681.83 776.42 772.33 997.04 764.62
00003372 00000053 610.31 213.41 524.98 763.54 728.96 504.58 973.56 503.72 838.93 681.94 756.60 767.00 972.94 765.39
00003373 00000054 605.38 206.04 523.73 761.59 716.16 498.77 958.87 504.84 815.24 675.71 740.34 763.48 944.02 768.79
00003374 00000055 603.22 214.44 520.60 749.45 704.24 498.39 944.10 504.40 795.66 673.12 730.09 765.63 922.93 771.47
00003375 00000056 600.39 216.85 521.10 735.24 688.34 494.66 936.12 506.08 777.27 676.01 720.62 766.14 910.79 776.67
00003376 00000057 596.89 210.47 522.71 738.19 686.89 489.97 925.28 501.68 766.57 670.61 713.26 758.60 900.25 769.43
00003377 00000058 594.81 208.36 525.97 741.06 686.11 486.53 922.35 499.30 762.16 666.69 711.27 756.09 898.23 767.74
00003378 00000059 595.49 209.96 527.20 743.29 689.21 487.23 924.30 497.16 765.53 662.15 716.25 755.68 905.68 764.42
00003379 00000060 602.00 210.37 525.25 743.26 698.49 488.62 932.80 494.01 780.20 655.18 727.56 751.29 923.03 755.89
00003380 00000061 607.53 210.05 523.69 748.94 711.72 484.01 946.74 487.17 803.15 651.70 737.81 746.03 941.93 748.60
00003381 00000062 612.22 203.40 524.70 760.47 725.17 482.56 964.36 482.48 825.77 649.22 753.91 750.17 959.19 749.96
00003382 00000063 615.52 202.79 527.32 757.36 736.49 480.85 978.00 479.50 844.84 650.54 767.97 753.22 969.32 751.93
00003383 00000064 619.89 197.79 526.45 750.97 743.26 479.99 986.73 477.38 857.42 653.38 781.00 752.65 976.61 750.08
00003384 00000065 622.16 188.45 530.25 749.57 746.61 483.64 996.28 478.02 865.17 649.72 784.72 751.95 987.94 746.72
00003385 00000066 628.20 182.98 534.05 762.24 759.29 485.18 1008.35 473.04 884.59 647.66 799.30 754.63 1010.53 743.56
00003386 00000067 633.74 195.89 532.60 750.99 772.02 485.96 1014.12 466.93 907.86 645.44 823.20 751.83 1022.70 732.60
00003387 00000068 638.10 175.32 538.14 769.74 781.61 486.99 1031.53 465.07 927.25 646.92 831.68 755.06 1046.11 735.73
00003388 00000069 639.58 179.36 535.10 765.04 789.26 488.56 1040.73 460.29 942.98 645.83 843.50 757.45 1054.71 732.39
00003389 00000070 638.78 179.09 533.74 767.63 789.13 488.27 1041.99 459.04 946.51 646.39 847.77 763.18 1055.38 737.41
00003390 00000071 643.52 190.98 527.65 760.38 782.96 487.88 1026.96 458.29 930.00 644.11 849.74 769.59 1038.56 741.75
00003391 00000072 627.55 182.78 534.43 779.93 773.61 491.17 1015.57 472.03 908.40 651.09 830.62 775.56 1018.70 757.48
00003392 00000073 615.41 191.66 536.32 771.36 749.81 494.36 995.59 483.59 873.07 657.40 796.54 774.35 987.80 764.62
00003393 00000074 610.03 209.73 529.17 748.99 726.42 492.47 970.44 489.98 832.63 660.71 764.20 769.31 950.92 768.08
00003394 00000075 604.40 208.83 526.04 747.02 706.38 489.68 946.75 494.91 796.93 661.01 735.77 762.85 921.79 768.39
00003395 00000076 598.49 206.46 527.14 751.21 693.32 486.42 929.02 499.46 766.42 659.83 714.17 755.59 904.65 767.07
00003396 00000077 601.31 196.25 523.97 768.23 688.40 482.92 920.04 496.60 754.17 656.49 709.33 752.34 901.02 764.70
00003397 00000078 600.65 192.43 523.69 770.71 687.85 482.59 918.90 497.09 752.25 656.23 708.39 749.76 901.85 762.59
00003398 00000079 601.73 195.57 522.56 764.89 690.07 482.17 920.89 497.48 756.05 656.43 710.49 745.84 905.61 759.09
00003399 00000080 602.36 200.41 524.46 757.69 694.84 482.88 926.74 498.02 765.08 657.77 715.53 744.63 911.44 757.39
00003400 00000081 604.31 200.60 523.51 760.17 699.10 481.95 931.48 497.43 771.70 658.50 722.74 745.27 919.81 757.81
00003401 00000082 606.18 202.04 522.14 762.71 702.45 481.19 934.69 497.10 775.80 658.34 725.69 746.00 925.57 758.39
00003402 00000083 606.62 204.06 521.33 760.05 704.27 479.37 937.19 497.38 778.57 658.57 724.52 744.02 927.71 758.07
00003403 00000084 607.07 209.11 517.62 748.23 709.39 473.83 943.06 495.90 784.91 653.68 722.86 735.70 929.07 753.31
00003404 00000085 611.63 204.44 521.09 746.38 720.75 465.83 956.91 489.03 801.50 647.81 731.28 729.78 936.73 748.19
00003405 00000086 617.36 195.17 523.30 746.99 734.51 460.31 980.81 481.54 832.45 644.37 744.54 723.55 952.32 740.74
00003406 00000087 625.77 177.85 526.19 748.54 747.93 459.80 1000.73 479.19 852.89 630.59 753.86 721.95 975.40 737.93
00003407 00000088 632.02 179.27 535.21 741.67 768.46 456.03 1021.41 467.55 884.80 622.00 779.93 716.13 1001.90 724.68
00003408 00000089 648.43 192.10 535.32 726.24 792.06 454.64 1044.85 462.15 922.30 618.61 810.82 714.35 1022.83 718.20
00003409 00000090 657.44 173.24 532.87 746.12 809.17 451.54 1056.45 458.29 941.87 616.13 820.57 711.44 1042.97 715.46
00003410 00000091 668.93 174.60 523.24 739.95 829.17 450.05 1068.96 453.93 967.15 612.57 844.24 710.11 1059.00 712.28
00003411 00000092 685.62 191.81 509.23 723.90 847.79 454.97 1081.96 453.88 987.63 613.38 866.10 710.62 1069.07 707.19
00003412 00000093 690.19 188.76 510.00 727.80 858.82 455.30 1094.45 452.23 1004.32 611.07 877.13 711.79 1080.47 706.59
00003413 00000094 694.02 193.04 507.89 723.45 865.90 453.97 1101.65 452.44 1013.72 610.33 883.58 712.47 1084.65 708.74
00003414 00000095 694.80 195.20 508.81 722.51 868.89 452.87 1104.91 453.21 1016.98 612.10 883.69 711.87 1085.73 709.85
00003415 00000096 692.45 194.56 511.72 723.11 868.65 452.54 1105.32 455.91 1015.38 612.73 879.76 711.58 1081.70 712.18
00003416 00000097 690.89 196.67 512.12 721.50 865.86 452.98 1102.02 459.99 1009.19 615.54 874.08 711.73 1075.98 715.45
00003417 00000098 690.40 196.45 513.59 724.05 862.46 452.31 1098.53 463.62 1001.03 618.48 866.98 712.41 1066.97 719.90
00003418 00000099 686.94 194.41 518.79 727.04 857.01 451.00 1091.33 467.29 988.38 623.87 860.12 712.52 1056.62 724.18
00003419 00000100 675.77 192.43 527.51 729.27 845.27 452.73 1081.13 476.93 969.63 628.28 838.28 710.81 1048.64 730.55
00003420 00000101 671.84 200.82 530.23 724.83 836.18 453.79 1074.80 482.74 955.95 632.99 824.49 711.30 1036.83 734.79
00003421 00000102 666.25 204.55 533.71 721.56 827.94 455.02 1065.50 487.83 941.88 633.12 813.28 712.01 1023.82 738.63
00003422 00000103 658.57 205.93 537.02 720.22 813.49 453.08 1055.11 491.01 923.14 635.72 797.52 709.60 1010.28 740.46
00003423 00000104 651.52 207.89 540.26 717.02 800.92 452.29 1047.35 491.67 907.97 635.63 785.31 708.54 1001.56 741.00
00003424 00000105 649.42 206.87 536.36 718.61 791.95 450.97 1038.14 491.71 894.13 635.96 777.78 709.78 991.99 743.62
00003425 00000106 643.88 211.94 534.31 712.79 784.01 451.29 1030.49 493.52 883.10 638.27 769.68 708.80 983.98 744.07
00003426 00000107 642.35 210.11 531.62 714.60 778.97 453.74 1026.62 495.21 877.82 640.08 766.09 712.10 978.41 747.01
00003427 00000108 648.77 221.92 522.91 709.73 785.46 456.91 1025.91 495.91 877.88 643.34 772.19 716.10 972.34 746.96
00003428 00000109 647.80 223.92 522.77 712.33 786.85 461.82 1026.98 499.41 880.72 646.22 774.21 719.23 972.99 748.95
00003429 00000110 640.95 216.37 535.06 717.61 782.05 466.14 1031.19 506.28 883.85 649.99 771.03 721.39 982.91 754.75
00003430 00000111 641.18 217.89 536.08 719.10 783.82 469.14 1032.83 507.80 887.35 652.93 772.26 723.60 985.71 755.67
00003431 00000112 642.40 217.69 535.62 720.01 784.24 471.01 1034.20 507.94 889.41 653.86 773.80 724.85 989.11 755.36
00003432 00000113 645.25 214.56 535.21 721.93 786.04 470.26 1037.00 506.01 892.17 653.08 776.61 724.62 992.61 754.17
00003433 00000114 647.37 214.18 534.37 721.99 787.04 467.02 1037.42 502.92 893.15 650.61 777.95 723.02 993.92 752.66
00003434 00000115 648.56 209.48 534.43 727.01 786.72 463.64 1036.48 498.07 892.82 647.57 778.28 722.04 995.02 750.48
00003435 00000116 656.81 198.27 528.67 740.27 792.81 459.54 1040.29 488.63 895.98 647.55 786.46 723.34 991.44 748.78
00003436 00000117 655.59 206.70 531.64 731.29 791.08 461.53 1042.48 493.66 901.62 646.52 788.40 731.68 994.24 758.87
00003437 00000118 662.11 205.58 529.03 741.24 798.03 461.43 1047.51 488.64 904.30 648.17 799.30 742.14 989.49 766.76
00003438 00000119 663.11 206.28 530.22 746.68 799.86 464.33 1047.78 489.57 905.01 648.24 804.94 750.38 987.35 773.47
00003439 00000120 657.38 219.66 533.22 736.00 799.13 467.36 1043.06 490.94 905.92 650.32 808.86 756.39 986.21 776.62
00003440 00000121 654.87 220.68 534.48 732.35 798.52 470.29 1043.07 493.67 905.96 655.15 809.64 758.96 983.79 779.08
00003441 00000122 650.63 228.17 533.62 725.64 792.55 474.12 1038.70 496.89 900.61 659.14 804.94 761.21 980.89 780.97
00003442 00000123 646.45 228.52 534.77 730.24 789.22 478.46 1035.13 506.20 894.04 661.98 795.46 757.19 982.34 781.00
00003443 00000124 651.50 218.09 533.21 742.18 789.12 481.54 1042.48 505.22 896.59 663.53 792.17 759.70 986.59 780.64
00003444 00000125 650.18 222.99 532.88 736.76 788.75 479.94 1043.28 501.74 899.45 664.49 795.93 760.84 988.85 780.13
00003445 00000126 642.31 226.53 537.29 733.45 787.79 482.04 1037.75 501.36 902.65 665.95 799.72 761.07 994.49 777.24
00003446 00000127 643.63 211.43 536.99 750.74 785.87 487.24 1043.41 507.05 907.43 670.45 794.45 763.22 1000.52 780.19
00003447 00000128 635.74 220.57 534.53 738.34 776.97 484.67 1028.41 502.36 890.77 667.08 791.42 762.15 985.96 776.97
00003448 00000129 629.92 221.36 531.09 739.85 763.23 487.60 1014.26 506.24 873.40 668.74 778.80 764.46 972.94 780.63
00003449 00000130 626.00 224.76 533.77 736.72 762.62 487.74 1014.79 505.79 875.20 670.18 778.02 765.38 972.72 781.12
CROP_BBOX: 223 0 1494 1080
