Video ID: 	CHR4wwfIW5Q
H: 	1080
W: 	1920
FPS: 	25.0

FRAME INDEX X0 Y0 W H [Landmarks (5 Points)]

00048400 00000000 686.39 106.90 400.47 592.46 810.15 377.49 983.41 388.74 896.43 504.20 804.27 542.86 966.88 553.57
00048401 00000001 687.20 111.45 398.34 586.10 810.79 380.24 983.17 390.16 897.32 507.08 805.19 544.11 967.10 553.86
00048402 00000002 688.56 115.91 399.00 583.69 812.13 383.62 984.67 394.09 897.98 510.14 805.89 546.52 966.72 556.80
00048403 00000003 690.76 120.78 399.21 582.59 813.08 387.71 986.49 398.17 899.48 515.45 807.94 549.98 970.17 560.19
00048404 00000004 692.62 120.26 400.91 585.84 815.80 386.23 990.05 397.68 902.26 517.13 810.06 549.95 973.82 561.01
00048405 00000005 694.20 116.79 400.93 589.61 819.16 383.39 992.16 395.68 905.90 515.28 812.99 548.14 975.58 559.89
00048406 00000006 698.77 114.60 399.79 589.03 822.78 379.68 994.69 391.79 908.23 512.36 815.64 544.11 979.74 555.78
00048407 00000007 701.44 111.63 399.90 592.05 825.11 376.55 996.99 387.62 911.06 509.65 819.24 542.18 983.72 552.93
00048408 00000008 703.07 113.90 402.16 583.13 827.52 377.10 1001.30 387.20 913.58 509.11 823.16 545.56 983.94 555.55
00048409 00000009 706.33 116.04 402.57 581.02 830.01 382.40 1004.22 392.20 914.92 513.57 826.60 552.42 982.96 562.02
00048410 DELETE   709.02 124.14 402.78 575.87 832.79 390.82 1009.72 400.77 916.98 522.14 829.30 559.96 984.47 569.90
00048411 DELETE   710.78 132.79 404.74 573.91 835.58 400.07 1012.65 412.09 918.47 529.64 830.04 566.24 985.10 577.65
00048412 00000012 713.31 138.60 405.05 570.21 837.62 402.52 1014.22 413.48 920.62 531.95 831.63 567.84 987.62 578.49
00048413 DELETE   715.11 137.07 403.11 572.26 837.29 401.87 1013.72 411.93 920.95 530.34 831.22 568.19 988.88 578.08
00048414 00000014 717.80 133.56 400.29 573.27 838.87 399.39 1013.07 409.62 922.32 528.85 834.11 566.26 989.84 576.03
00048415 00000015 720.21 134.66 400.70 573.80 841.44 396.99 1015.84 408.26 924.46 528.16 835.86 565.58 991.46 576.29
00048416 00000016 723.98 136.34 399.72 576.46 844.27 399.30 1017.58 411.00 927.21 529.96 838.82 567.88 994.99 578.87
00048417 00000017 728.55 139.30 396.94 583.19 848.18 403.79 1020.20 419.13 930.27 533.59 838.39 568.73 1001.49 582.26
00048418 00000018 738.49 145.04 393.63 582.88 857.91 411.33 1033.59 427.41 940.85 538.99 849.40 576.55 1005.05 592.61
00048419 00000019 741.26 151.32 397.44 589.98 860.00 418.47 1035.07 432.99 942.57 548.82 855.26 585.31 1008.44 599.94
00048420 00000020 743.08 148.49 397.56 593.08 862.66 415.25 1037.78 430.00 945.03 548.00 856.87 583.11 1011.91 598.02
00048421 00000021 743.58 145.16 396.77 586.71 862.87 408.19 1040.13 425.34 944.64 540.77 854.52 576.41 1012.54 593.12
00048422 00000022 745.09 141.99 396.00 585.31 863.09 405.22 1041.49 422.17 944.71 534.38 853.47 573.42 1012.78 589.96
00048423 DELETE   746.95 145.48 398.70 581.01 865.39 404.00 1043.36 422.82 945.45 534.74 854.98 571.88 1014.22 590.01
00048424 00000024 750.55 149.17 402.22 582.64 868.41 406.90 1046.99 427.21 948.29 542.55 856.99 574.60 1020.63 593.81
00048425 00000025 754.44 147.48 404.53 591.54 874.89 408.63 1051.71 430.20 954.47 543.23 862.85 575.53 1027.13 595.22
00048426 00000026 758.80 146.57 405.64 593.75 881.56 408.50 1056.85 431.01 962.33 543.50 868.33 572.87 1034.84 593.07
00048427 00000027 766.43 145.67 405.00 592.09 889.63 406.02 1064.70 430.23 969.57 542.39 874.74 570.49 1043.01 591.71
00048428 00000028 775.04 144.65 405.33 591.83 899.30 404.30 1071.99 428.28 978.43 542.92 881.66 567.86 1050.88 589.24
00048429 DELETE   785.15 150.75 404.75 586.96 909.12 406.61 1074.68 422.85 988.68 545.74 898.59 571.79 1062.27 585.89
00048430 00000030 792.49 149.68 404.50 588.73 920.55 409.77 1083.64 425.88 999.81 547.57 906.91 572.59 1070.50 586.97
00048431 DELETE   800.87 155.03 404.44 583.87 930.62 416.29 1096.68 429.72 1010.72 554.74 914.94 576.83 1083.57 589.40
00048432 00000032 807.96 157.14 404.65 582.27 938.34 415.18 1105.76 430.63 1017.42 556.63 918.50 575.30 1092.31 589.60
00048433 DELETE   816.01 151.00 400.56 590.50 938.13 405.07 1119.91 429.16 1020.54 545.26 921.58 568.40 1097.14 591.16
00048434 DELETE   818.87 148.45 404.22 591.54 940.68 401.15 1121.31 422.19 1023.66 538.72 923.57 563.84 1102.46 583.92
00048435 DELETE   823.65 146.64 404.85 590.26 944.97 399.91 1123.40 420.50 1027.41 536.47 929.30 563.02 1105.87 582.26
00048436 00000036 826.94 145.23 405.38 588.01 949.98 399.23 1127.09 420.49 1032.36 534.51 932.74 560.59 1108.99 580.14
00048437 00000037 830.41 145.66 406.00 591.51 955.28 400.79 1132.72 425.19 1037.66 538.68 935.09 561.42 1113.27 583.25
00048438 00000038 834.13 145.53 405.26 591.71 959.98 400.42 1137.38 425.56 1043.85 540.51 939.09 561.47 1118.54 583.95
00048439 00000039 837.36 144.96 404.27 591.23 962.75 398.17 1139.47 422.95 1045.67 537.91 942.13 559.34 1121.64 581.38
00048440 00000040 838.38 140.03 405.52 592.15 963.51 396.18 1141.65 419.27 1046.89 534.73 943.32 558.18 1122.75 578.97
00048441 00000041 839.19 136.30 405.51 594.51 964.40 394.95 1141.74 416.71 1047.23 530.97 945.61 557.44 1123.30 577.02
00048442 00000042 839.68 137.96 406.30 593.51 965.86 394.60 1143.57 417.50 1048.48 532.53 945.20 557.07 1123.86 577.85
00048443 00000043 840.53 138.70 405.51 595.64 966.21 394.79 1143.52 418.50 1048.48 534.73 943.44 556.27 1124.96 577.87
00048444 00000044 839.07 136.86 406.27 599.22 965.23 392.60 1141.87 416.96 1047.50 532.88 942.44 554.99 1123.67 577.01
00048445 00000045 837.61 132.47 407.29 605.65 962.58 388.03 1138.93 413.00 1043.77 529.49 941.24 552.36 1123.26 574.59
00048446 00000046 834.77 128.06 408.65 607.36 959.72 385.61 1136.75 407.84 1043.23 525.22 939.94 549.49 1122.20 569.46
00048447 00000047 832.43 125.53 408.03 607.44 956.80 384.09 1133.72 405.90 1039.70 524.19 935.60 546.18 1118.97 566.04
00048448 00000048 829.44 131.64 408.50 602.22 954.39 385.03 1134.04 410.58 1036.25 528.22 930.45 546.46 1116.52 569.79
00048449 00000049 826.42 137.05 411.12 598.59 954.48 387.02 1132.63 417.19 1032.67 532.05 929.84 547.47 1112.72 574.45
00048450 00000050 823.03 140.47 411.31 592.64 948.27 392.41 1127.24 419.40 1027.47 533.23 926.98 552.71 1107.88 577.24
00048451 00000051 819.59 140.47 407.79 586.76 943.64 391.95 1123.62 416.45 1023.03 530.97 923.74 554.14 1100.30 576.80
00048452 00000052 815.03 139.05 406.40 586.22 938.93 389.72 1121.79 413.47 1019.47 527.91 919.44 554.06 1095.70 576.22
00048453 00000053 811.08 131.01 403.77 595.56 932.94 385.48 1116.90 408.90 1016.27 522.32 915.57 552.24 1093.89 573.92
00048454 00000054 806.93 127.26 403.36 599.89 927.70 382.14 1110.69 405.19 1011.47 522.31 910.18 548.69 1091.36 570.18
00048455 00000055 804.63 126.17 401.25 603.15 923.63 382.32 1105.99 404.31 1007.75 523.30 905.80 548.58 1088.85 569.20
00048456 00000056 800.31 131.72 402.12 597.02 919.92 384.13 1099.55 409.69 1000.03 529.37 903.59 550.64 1080.17 574.27
00048457 00000057 795.42 133.63 402.15 600.64 917.99 388.03 1088.31 418.89 992.04 528.75 893.07 549.77 1069.57 576.45
00048458 00000058 791.35 137.88 402.98 597.79 913.13 393.90 1087.09 425.53 988.49 536.72 886.18 552.97 1067.74 580.78
00048459 00000059 786.46 140.15 403.78 597.60 911.53 395.16 1084.27 427.48 986.57 540.62 882.49 551.87 1064.64 580.52
00048460 00000060 777.84 137.77 406.71 594.40 905.19 392.06 1080.63 423.07 982.11 533.53 877.04 548.85 1059.64 576.66
00048461 00000061 775.43 138.00 403.78 597.60 900.54 387.54 1076.81 418.65 978.55 531.75 871.14 546.18 1058.58 574.25
00048462 00000062 770.97 135.67 406.53 596.78 896.22 389.22 1076.16 420.63 974.13 529.30 865.37 544.74 1057.13 572.94
00048463 DELETE   766.01 136.10 406.67 595.33 891.19 387.64 1072.52 421.34 968.29 532.12 860.56 544.13 1051.85 574.12
00048464 00000064 759.89 140.24 410.67 590.82 887.43 389.54 1069.84 426.90 963.53 536.01 857.14 547.61 1044.38 580.66
00048465 00000065 756.56 146.36 411.02 591.46 882.15 394.66 1064.47 432.06 958.76 544.90 852.45 554.16 1041.14 587.32
00048466 00000066 754.63 150.45 411.06 593.15 879.06 398.29 1059.23 433.11 956.32 545.48 852.52 558.14 1039.24 588.94
00048467 00000067 754.06 146.62 410.45 596.88 877.96 396.02 1057.41 429.02 955.55 541.75 852.36 556.92 1038.12 586.23
00048468 00000068 751.27 144.33 411.72 594.25 875.10 393.48 1054.28 425.34 951.79 537.78 850.85 553.39 1035.03 581.91
00048469 00000069 749.23 142.43 412.51 592.65 873.32 391.94 1052.40 423.09 949.63 534.83 850.11 551.59 1033.31 579.48
00048470 00000070 748.27 141.57 412.47 592.13 872.00 391.94 1051.99 422.59 948.08 535.16 848.30 552.13 1031.35 579.83
00048471 00000071 747.08 144.86 410.95 593.17 871.20 393.72 1050.32 426.30 947.01 540.87 845.32 553.24 1029.79 582.83
00048472 00000072 747.00 149.59 409.46 592.50 869.19 396.59 1048.58 431.52 944.53 547.30 843.49 557.24 1027.74 588.97
00048473 00000073 744.67 154.96 409.30 592.39 867.54 401.75 1045.91 435.76 943.36 552.25 843.57 562.36 1025.27 593.35
00048474 00000074 744.07 156.93 408.26 592.36 867.74 404.13 1043.68 436.78 943.47 552.66 845.17 565.77 1023.45 595.48
00048475 00000075 742.70 158.63 408.52 589.21 864.95 402.23 1043.75 434.39 941.48 551.17 843.04 565.00 1023.41 594.39
00048476 00000076 741.48 154.45 408.39 590.74 864.15 399.51 1043.34 430.59 941.29 544.78 841.44 563.77 1021.02 592.55
00048477 00000077 741.50 153.13 406.17 591.57 863.85 398.82 1042.48 429.75 941.13 542.88 841.04 563.81 1018.71 592.56
00048478 00000078 740.89 155.47 405.76 592.18 862.85 401.32 1039.74 433.86 938.85 547.72 840.76 566.35 1017.09 596.13
00048479 00000079 739.61 163.18 406.21 588.85 863.50 407.22 1037.04 441.05 938.24 553.78 842.17 569.36 1016.73 599.73
00048480 00000080 739.07 167.70 407.16 587.52 865.98 413.08 1038.18 446.78 940.92 559.09 840.93 572.61 1015.23 603.04
00048481 00000081 739.39 169.82 407.49 583.29 865.35 415.11 1038.39 448.69 940.24 560.16 840.72 573.81 1015.67 604.11
00048482 00000082 738.91 167.23 407.20 585.08 865.65 413.30 1037.31 446.27 940.15 559.16 841.66 572.63 1015.11 602.42
00048483 00000083 738.60 168.28 407.11 583.65 864.68 411.64 1037.83 442.94 940.68 557.03 842.88 572.29 1016.99 600.72
00048484 00000084 740.22 168.14 407.43 582.92 865.51 411.38 1038.45 443.19 940.60 555.73 843.94 572.82 1017.03 601.60
00048485 00000085 741.57 169.82 409.38 578.62 867.18 414.60 1041.52 447.36 942.33 556.85 843.94 574.15 1017.28 603.70
00048486 00000086 745.98 179.99 404.69 564.70 873.05 421.43 1047.27 451.35 943.45 559.92 847.44 578.17 1017.63 604.50
00048487 00000087 749.94 179.74 403.31 569.64 876.50 423.46 1049.65 453.64 947.47 562.51 850.41 581.18 1020.57 607.80
00048488 00000088 752.94 176.48 405.34 579.86 879.29 421.73 1051.65 452.46 950.61 562.62 854.58 584.19 1023.71 611.27
00048489 00000089 755.68 175.07 404.15 582.70 880.61 421.28 1052.93 452.84 952.29 563.41 856.41 585.00 1025.50 612.76
00048490 00000090 756.50 174.55 407.55 583.83 882.15 421.52 1056.33 454.12 953.64 564.10 858.85 587.19 1027.56 615.76
00048491 00000091 757.11 175.09 410.93 582.28 884.25 423.48 1058.68 456.17 955.86 564.28 862.10 590.76 1026.97 619.43
00048492 00000092 758.37 176.47 411.89 585.10 885.48 426.79 1060.31 458.76 956.91 567.55 863.09 592.73 1030.27 620.78
00048493 00000093 759.32 177.54 411.35 589.64 884.39 430.06 1062.27 460.95 958.17 572.27 861.95 596.05 1036.33 623.25
00048494 00000094 760.44 179.45 410.08 592.62 884.88 432.11 1062.63 464.25 958.22 574.69 859.22 594.96 1039.08 623.06
00048495 DELETE   761.89 183.73 408.76 588.55 885.39 435.64 1064.85 466.84 959.20 575.40 859.32 595.33 1042.74 622.68
00048496 00000096 761.50 184.06 409.26 588.60 884.20 437.01 1063.78 466.58 958.47 576.16 859.47 595.53 1044.35 621.48
00048497 00000097 760.15 186.73 411.95 583.86 883.06 437.00 1063.88 466.39 958.13 578.04 859.03 596.21 1044.10 622.12
00048498 00000098 760.65 188.69 413.53 581.85 883.02 439.09 1062.84 469.39 957.39 581.26 859.65 599.47 1040.87 626.40
00048499 00000099 760.97 186.77 416.74 587.75 884.43 444.14 1065.58 473.97 959.20 583.73 861.77 605.98 1039.78 632.57
00048500 DELETE   764.70 187.93 416.99 588.84 891.91 452.60 1072.30 480.02 967.21 590.38 870.73 616.43 1041.18 641.23
00048501 00000101 770.29 192.57 413.83 593.70 895.86 457.30 1074.06 484.66 971.08 596.95 875.40 621.26 1045.54 646.19
00048502 00000102 773.63 190.06 412.75 594.80 899.18 458.92 1077.43 484.67 974.77 597.58 880.11 624.84 1046.50 648.38
00048503 00000103 772.56 183.22 414.92 591.42 899.30 451.89 1078.70 476.63 975.97 589.68 882.51 620.17 1047.07 642.53
00048504 00000104 772.48 183.09 415.49 578.60 897.89 441.13 1075.97 465.62 973.03 582.39 883.48 609.71 1045.79 631.86
00048505 00000105 771.81 172.38 417.99 586.36 896.96 431.43 1076.91 457.73 973.89 572.79 883.73 606.01 1048.55 629.15
00048506 00000106 772.81 168.68 418.45 599.20 898.41 426.42 1074.43 457.72 971.20 569.38 879.20 598.94 1047.06 626.36
00048507 00000107 775.20 168.80 416.52 602.44 900.81 424.46 1076.64 455.70 974.39 569.18 879.92 596.00 1052.88 623.51
00048508 00000108 775.70 168.43 416.93 604.62 902.36 424.97 1078.72 455.73 977.62 571.03 882.16 595.37 1057.74 622.43
00048509 00000109 775.61 172.18 416.19 597.56 900.92 427.63 1077.85 455.83 976.39 575.11 881.86 593.86 1060.14 619.09
00048510 00000110 774.25 174.49 415.55 589.07 897.44 429.21 1076.04 455.82 973.11 576.84 879.49 592.40 1059.16 616.42
00048511 00000111 770.06 175.96 416.90 582.57 892.63 429.02 1074.09 456.59 968.27 578.85 875.33 592.04 1055.70 616.74
00048512 00000112 764.86 169.24 420.52 586.21 886.41 426.28 1069.51 455.70 961.76 574.45 867.48 588.15 1051.06 613.76
00048513 00000113 763.99 167.42 423.22 587.39 884.54 424.01 1067.37 454.77 957.60 571.69 865.00 587.28 1046.71 613.97
00048514 00000114 763.37 166.43 421.76 590.53 885.20 423.99 1067.38 454.49 958.53 571.89 865.80 587.11 1047.70 613.58
00048515 00000115 766.08 167.55 421.03 589.05 888.60 425.77 1070.82 456.35 961.52 570.13 868.15 586.54 1049.89 612.89
00048516 00000116 767.42 165.32 421.36 590.68 890.83 423.96 1072.10 453.98 964.10 567.45 870.49 585.70 1051.25 611.58
00048517 00000117 767.72 165.56 423.15 588.37 892.47 420.95 1072.60 449.97 966.74 562.68 873.62 583.19 1052.05 608.17
00048518 00000118 771.97 162.66 420.45 589.85 897.83 416.10 1072.65 447.65 969.24 559.62 877.09 576.26 1053.36 603.54
00048519 00000119 771.64 160.39 421.14 590.63 898.95 411.84 1073.60 442.20 971.34 554.72 878.01 573.97 1054.19 600.23
00048520 00000120 773.99 159.38 419.82 592.69 900.21 408.76 1073.03 439.17 971.70 552.89 879.47 572.82 1053.86 599.14
00048521 00000121 773.35 155.80 419.54 590.77 898.85 406.26 1073.92 435.19 972.89 550.53 880.36 574.36 1051.74 599.14
00048522 00000122 775.92 143.55 420.00 604.76 901.60 401.72 1081.72 438.13 972.68 551.79 873.17 573.46 1049.58 605.61
00048523 00000123 771.60 148.94 421.02 599.92 898.62 403.45 1073.64 432.96 972.82 549.18 882.15 576.89 1049.92 601.79
00048524 00000124 770.82 148.84 421.12 599.11 896.75 403.04 1072.40 432.94 971.13 550.22 879.86 575.99 1049.62 601.23
00048525 00000125 773.16 141.68 421.66 607.84 898.80 398.80 1077.74 437.60 968.51 551.15 868.64 568.26 1049.27 602.59
00048526 00000126 773.81 139.57 422.22 608.27 899.78 396.91 1079.47 437.68 969.60 552.05 868.54 565.43 1051.37 601.53
00048527 00000127 774.94 139.93 421.92 606.61 900.65 394.91 1080.65 436.04 970.94 549.85 869.32 562.99 1053.23 599.24
00048528 00000128 776.31 140.53 421.42 608.28 902.74 394.53 1083.12 435.00 973.89 549.76 870.24 562.56 1056.54 598.38
00048529 00000129 777.15 142.15 421.38 608.34 904.55 397.26 1084.31 436.22 976.00 550.07 871.68 563.73 1058.32 598.45
00048530 00000130 779.68 143.12 419.60 609.19 905.11 400.34 1085.37 438.50 976.41 551.84 872.83 564.52 1061.24 598.45
00048531 00000131 777.17 151.97 420.56 594.67 904.69 404.88 1078.82 430.43 979.44 548.60 884.91 568.37 1061.31 590.46
00048532 00000132 779.71 154.71 415.90 591.81 906.13 406.03 1077.61 428.85 980.81 550.42 887.28 567.11 1063.91 587.14
00048533 00000133 779.54 153.02 416.41 593.61 907.59 406.17 1078.99 428.00 983.54 551.32 889.05 566.85 1066.48 586.12
00048534 00000134 780.16 153.81 416.37 590.91 907.71 404.55 1079.06 427.14 983.31 551.10 888.97 565.87 1066.40 585.80
00048535 00000135 782.92 141.35 415.60 606.83 907.54 398.55 1086.19 431.24 982.07 549.69 878.13 562.74 1065.14 591.86
00048536 00000136 782.58 137.46 415.09 605.35 906.64 396.00 1086.43 428.59 981.49 544.26 878.81 561.22 1063.92 590.18
00048537 00000137 782.75 135.86 416.17 603.97 907.44 393.04 1086.61 425.86 981.24 537.23 881.15 560.18 1062.35 589.19
00048538 00000138 782.79 133.73 417.58 605.03 907.57 390.07 1087.48 421.13 982.31 531.02 882.76 559.38 1062.90 586.80
00048539 00000139 785.62 130.95 415.92 606.35 910.00 388.95 1091.33 416.44 988.15 530.05 888.28 559.58 1068.96 583.72
00048540 00000140 786.47 127.16 416.01 606.37 916.36 392.08 1096.78 410.55 1002.34 527.34 900.25 565.67 1071.98 582.20
00048541 00000141 790.22 127.54 411.17 603.81 919.68 394.85 1096.39 405.77 1009.42 525.03 909.84 569.20 1077.04 579.26
00048542 00000142 790.07 126.67 412.69 617.26 920.58 396.68 1098.19 404.90 1013.23 527.85 912.32 575.77 1083.12 583.17
00048543 00000143 790.66 125.44 414.13 624.22 920.46 401.56 1099.40 409.65 1013.88 532.49 912.64 581.96 1085.55 588.81
00048544 00000144 790.22 132.83 416.35 622.16 918.32 405.43 1099.29 416.87 1008.57 538.25 906.58 583.03 1084.93 592.65
00048545 00000145 789.20 134.52 417.18 619.13 918.22 408.34 1099.39 424.64 1003.94 544.41 901.83 580.97 1081.62 594.82
00048546 00000146 788.51 136.29 417.39 612.84 916.12 402.42 1096.93 421.87 999.13 537.36 899.65 575.63 1077.84 592.17
00048547 00000147 786.89 133.14 418.23 613.80 913.43 397.90 1094.69 417.25 996.04 531.37 897.80 572.64 1075.32 589.22
00048548 00000148 787.18 132.76 418.06 605.48 912.68 397.48 1094.53 417.37 994.33 531.76 898.92 574.68 1070.53 591.89
00048549 00000149 787.97 135.60 417.20 596.81 913.68 401.39 1094.99 419.97 994.73 536.16 903.57 581.89 1065.83 598.16
00048550 00000150 790.79 138.00 416.47 600.24 917.66 405.93 1094.65 422.39 998.14 539.79 908.92 588.78 1064.81 603.16
00048551 00000151 788.68 142.80 424.49 603.27 920.41 408.63 1095.79 424.13 1007.78 546.81 917.72 596.95 1074.37 609.69
00048552 00000152 790.04 141.15 422.83 612.60 924.45 408.77 1096.83 424.53 1010.48 548.33 917.89 595.49 1077.33 608.50
00048553 00000153 795.51 132.62 416.47 616.83 922.01 405.92 1099.35 423.89 1003.62 540.59 911.54 588.86 1074.47 603.84
00048554 00000154 794.51 131.88 419.52 603.55 920.03 399.78 1099.41 418.13 1001.19 532.00 911.57 581.51 1072.58 597.00
00048555 00000155 800.77 120.47 414.14 611.94 921.94 391.29 1106.72 409.55 1004.64 521.12 912.49 576.71 1071.00 593.81
00048556 00000156 800.36 117.15 416.84 614.67 922.31 389.05 1106.54 408.63 1003.58 517.51 912.85 574.39 1070.96 592.34
00048557 00000157 804.60 123.53 416.99 608.89 925.40 393.20 1111.46 416.39 1003.96 519.16 913.36 573.32 1072.29 594.07
00048558 00000158 806.29 127.25 416.70 613.31 927.55 397.64 1112.21 422.07 1005.42 524.02 914.00 575.16 1077.04 597.13
00048559 00000159 806.92 130.03 417.83 612.87 927.57 396.61 1114.12 420.91 1006.58 528.15 915.22 576.51 1080.91 598.41
00048560 00000160 807.14 132.82 419.01 610.63 927.64 396.45 1115.24 420.02 1007.63 530.49 915.62 575.72 1085.60 597.25
00048561 00000161 808.08 132.59 419.17 608.72 928.18 397.03 1116.81 420.03 1009.25 530.75 916.80 574.87 1089.06 596.04
00048562 00000162 810.32 133.45 419.19 608.91 931.78 397.20 1118.60 419.74 1012.65 531.35 919.82 574.16 1091.80 595.03
00048563 00000163 811.12 136.34 419.83 605.61 934.31 396.42 1120.04 419.44 1015.04 532.33 921.24 572.51 1093.38 593.84
00048564 00000164 812.56 135.44 420.82 600.64 936.56 395.81 1121.49 417.52 1017.03 528.77 924.20 571.54 1091.50 591.76
00048565 00000165 813.69 132.73 420.56 597.40 937.60 394.39 1121.91 414.63 1017.77 523.45 927.83 572.49 1089.34 591.33
00048566 00000166 814.71 130.37 420.16 600.10 937.05 393.21 1122.81 416.20 1015.73 522.95 925.30 572.09 1088.48 592.99
00048567 00000167 815.83 130.21 420.39 596.63 937.99 395.75 1124.09 421.92 1012.26 523.39 923.43 569.81 1084.91 593.35
