Video ID: 	L5295hiMcgw
H: 	1080
W: 	1920
FPS: 	29.97002997002997

FRAME INDEX X0 Y0 W H [Landmarks (5 Points)]

00004370 00000000 766.26 282.09 462.08 625.81 1004.88 486.98 1190.67 475.85 1171.14 631.00 1045.35 750.19 1173.15 739.66
00004371 00000001 779.03 275.57 460.30 631.93 1008.87 484.58 1198.78 471.25 1173.27 630.81 1053.12 751.05 1183.97 737.67
00004372 00000002 786.33 272.39 458.92 635.86 1010.10 484.47 1203.77 469.77 1175.27 630.37 1055.17 750.89 1191.50 736.05
00004373 00000003 786.47 279.79 459.88 627.36 1005.95 483.38 1199.87 467.59 1170.93 630.70 1054.65 751.15 1190.52 735.37
00004374 00000004 781.92 277.73 457.55 629.98 1000.12 482.47 1194.11 469.60 1162.15 632.72 1047.82 750.31 1183.52 736.81
00004375 00000005 772.08 281.19 458.53 627.08 992.49 482.93 1186.76 473.37 1153.11 634.03 1037.83 750.85 1173.46 740.63
00004376 00000006 762.64 276.52 459.59 634.09 982.08 479.81 1175.83 470.58 1139.43 629.76 1026.03 750.26 1163.55 740.66
00004377 00000007 757.05 279.77 454.26 624.49 962.66 483.80 1160.93 462.53 1128.85 628.16 1007.19 751.36 1155.53 730.68
00004378 00000008 744.09 272.42 459.95 633.53 946.52 478.13 1145.68 459.82 1106.96 623.26 993.76 750.63 1137.71 732.28
00004379 00000009 723.80 254.92 465.02 654.29 932.55 476.98 1128.05 463.45 1090.75 621.81 982.94 747.08 1121.27 732.55
00004380 00000010 711.49 236.82 452.71 669.08 914.97 467.83 1109.44 462.67 1068.36 616.02 967.33 742.97 1099.11 735.02
00004381 00000011 695.63 225.94 457.44 682.53 891.13 473.94 1083.84 457.51 1043.99 619.21 947.52 746.04 1089.61 731.88
00004382 00000012 683.93 218.36 453.04 682.38 867.96 467.25 1066.63 459.07 1018.55 612.88 917.49 740.31 1062.12 733.55
00004383 DELETE   659.63 226.03 464.10 673.15 842.61 467.95 1053.10 456.18 996.60 616.00 897.58 745.40 1043.03 732.10
00004384 00000014 639.74 211.78 466.45 688.24 832.50 466.66 1028.56 454.25 979.67 617.93 884.72 743.83 1026.21 732.38
00004385 00000015 628.16 214.92 467.05 685.21 813.12 463.21 1014.99 452.20 962.42 616.30 867.60 742.11 1012.77 732.11
00004386 00000016 620.02 203.64 466.21 695.78 806.04 460.95 1009.49 451.40 956.68 614.83 858.37 742.60 1004.33 733.88
00004387 00000017 607.11 197.52 466.72 701.38 798.45 461.08 1001.85 451.18 953.08 612.90 852.05 743.52 995.87 734.57
00004388 00000018 592.78 196.47 470.16 698.95 792.87 461.89 994.62 451.45 951.53 611.26 847.92 743.38 990.33 734.02
00004389 00000019 576.88 212.11 473.92 677.73 782.91 461.13 986.05 443.51 946.73 611.90 846.38 747.48 988.31 731.61
00004390 00000020 559.75 211.46 480.67 674.08 777.00 462.74 975.37 442.68 943.81 609.77 840.43 745.33 977.93 727.90
00004391 00000021 548.81 211.35 479.55 671.90 765.58 461.86 963.08 438.61 933.54 610.00 829.47 743.95 966.12 723.95
00004392 00000022 524.87 216.61 489.88 664.70 748.48 456.20 953.46 431.56 927.96 608.85 817.66 746.65 957.31 725.58
00004393 00000023 518.85 214.53 490.44 666.15 744.13 453.45 950.47 427.56 928.29 606.26 816.06 746.30 955.70 724.21
00004394 00000024 514.63 209.91 495.39 670.70 744.99 448.62 952.00 421.25 932.29 602.17 815.12 744.23 957.78 720.86
00004395 00000025 505.76 203.02 506.44 679.57 744.12 442.58 955.51 417.53 935.70 600.09 811.18 741.07 959.31 719.51
00004396 00000026 498.81 197.64 514.23 683.26 741.07 437.22 957.60 412.48 935.87 597.29 808.40 738.48 960.05 717.05
00004397 00000027 490.59 186.08 524.98 696.30 737.09 430.73 959.16 411.80 933.03 597.15 806.19 735.68 959.64 718.32
00004398 00000028 483.92 180.67 534.72 699.37 735.52 424.94 962.20 405.60 936.53 595.17 806.62 735.43 960.26 717.73
00004399 00000029 486.03 183.55 537.79 695.59 740.57 418.66 967.65 399.54 943.18 591.99 809.59 732.12 965.48 714.69
00004400 00000030 493.15 180.62 538.03 692.76 748.77 415.56 977.66 395.62 953.37 590.89 818.45 730.45 974.65 712.06
00004401 00000031 495.11 168.55 549.05 707.81 757.29 412.28 990.93 393.36 963.59 586.42 822.67 730.84 987.04 712.46
00004402 00000032 506.48 172.99 543.49 701.24 764.81 412.88 998.06 391.38 973.19 582.36 834.24 729.17 994.43 708.85
00004403 00000033 518.15 180.30 538.79 683.35 773.37 412.59 1005.90 387.70 979.96 584.20 841.65 728.27 1000.82 705.09
00004404 00000034 524.40 188.37 539.38 674.21 779.23 412.94 1011.68 384.23 987.02 583.32 844.80 724.45 1005.77 698.48
00004405 00000035 532.13 182.63 535.80 677.58 786.29 411.13 1015.88 385.63 989.66 579.72 847.24 720.22 1006.61 696.95
00004406 00000036 535.85 176.50 537.66 688.21 789.46 407.96 1020.59 385.80 990.37 576.13 849.52 717.34 1009.74 696.90
00004407 00000037 538.85 170.61 537.51 701.42 795.60 408.10 1023.03 387.94 993.94 574.96 852.99 714.82 1012.05 696.27
00004408 00000038 548.18 170.78 531.12 701.59 803.83 406.06 1026.88 387.48 998.43 569.69 859.38 711.96 1017.22 695.01
00004409 00000039 557.14 174.07 526.26 703.36 810.37 403.80 1034.13 386.61 1004.39 567.42 865.23 710.86 1026.07 694.70
00004410 00000040 561.85 161.92 540.32 724.87 828.24 398.69 1048.66 381.99 1024.99 567.53 876.95 707.82 1038.39 691.60
00004411 00000041 571.64 164.39 538.85 719.01 838.08 399.92 1061.44 383.55 1036.79 563.91 889.40 704.09 1052.17 688.27
00004412 00000042 578.98 160.53 534.43 723.29 843.09 397.97 1065.33 383.61 1039.76 561.99 895.38 702.42 1056.32 687.92
00004413 00000043 584.84 168.91 532.93 717.28 849.03 398.82 1066.75 384.52 1045.76 560.60 901.08 703.70 1059.36 689.51
00004414 00000044 591.69 175.88 532.33 708.05 854.82 398.54 1069.05 383.03 1050.37 560.91 907.87 703.16 1062.29 688.30
00004415 00000045 601.15 181.25 528.36 700.83 862.54 399.79 1075.10 381.16 1057.70 561.29 914.23 701.61 1068.93 684.60
00004416 00000046 612.12 167.18 522.97 712.51 869.83 399.07 1082.93 379.56 1060.96 557.88 920.62 698.63 1075.95 680.72
00004417 00000047 624.21 176.11 515.58 698.48 874.57 397.78 1089.99 379.22 1064.72 557.68 924.69 697.44 1082.01 680.43
00004418 00000048 628.97 188.25 513.23 683.36 877.14 397.64 1091.86 378.92 1066.24 558.43 924.68 694.43 1084.93 677.50
00004419 00000049 630.45 158.38 517.49 710.17 885.64 402.96 1097.21 384.71 1073.42 553.41 928.89 694.35 1086.57 677.80
00004420 00000050 634.22 165.96 516.04 701.84 888.37 403.74 1099.94 385.84 1076.46 555.00 930.61 694.49 1089.46 678.51
00004421 00000051 629.73 159.61 524.90 718.22 890.81 399.13 1106.79 383.65 1082.49 556.49 931.89 697.19 1095.44 683.53
00004422 00000052 627.36 145.77 535.19 743.07 898.11 395.22 1117.72 385.43 1092.15 553.98 938.14 693.79 1106.34 682.96
00004423 00000053 630.34 144.00 537.54 746.86 903.01 390.88 1120.63 381.63 1095.92 551.47 944.17 690.98 1111.71 680.77
00004424 00000054 635.16 155.83 536.71 735.17 904.80 390.52 1120.95 380.17 1096.81 551.39 948.98 689.65 1114.46 678.30
00004425 00000055 635.86 155.44 534.30 732.00 904.64 388.25 1121.30 378.39 1097.60 549.19 949.94 688.21 1114.33 677.14
00004426 00000056 637.50 154.47 528.80 729.84 905.43 384.40 1120.01 378.17 1096.01 546.92 952.55 685.83 1113.02 677.42
00004427 00000057 641.60 148.03 527.84 733.90 908.76 382.50 1124.11 379.44 1098.05 544.28 956.33 684.23 1116.48 678.39
00004428 00000058 646.01 147.53 523.73 732.59 911.30 381.95 1126.51 380.50 1098.77 544.64 957.94 683.14 1117.23 678.55
00004429 00000059 646.19 147.98 523.73 732.67 911.50 381.27 1126.11 380.92 1098.05 544.51 956.63 682.10 1116.91 678.37
00004430 00000060 640.96 144.65 520.12 737.49 905.70 382.42 1118.05 381.69 1092.40 543.27 950.76 681.38 1112.27 676.98
00004431 00000061 635.41 156.57 515.08 720.23 892.49 383.96 1105.65 379.16 1077.65 542.25 937.39 684.33 1100.75 678.29
00004432 00000062 628.61 149.60 516.38 730.77 883.81 386.03 1098.91 380.64 1067.68 542.25 929.51 687.55 1091.98 680.73
00004433 00000063 624.44 158.47 516.15 720.68 878.67 387.16 1094.09 381.64 1061.44 544.90 925.56 687.25 1087.67 680.14
00004434 00000064 628.37 158.33 516.07 723.23 883.07 387.50 1098.47 382.67 1066.88 545.62 928.27 688.03 1091.51 681.64
00004435 00000065 632.10 167.49 515.33 716.86 887.83 387.19 1101.84 382.63 1072.31 547.43 929.78 686.85 1096.29 681.04
00004436 00000066 634.64 168.57 516.49 718.57 891.95 387.44 1103.85 382.20 1077.45 549.58 930.54 687.13 1097.81 681.43
00004437 00000067 632.30 164.68 521.79 725.40 897.04 383.54 1103.57 382.89 1081.57 548.26 934.00 683.18 1097.73 679.29
00004438 00000068 629.57 176.03 520.04 716.35 887.61 388.85 1100.94 382.99 1073.47 553.30 924.22 689.81 1093.25 683.66
00004439 00000069 624.05 174.76 522.35 717.55 882.52 390.10 1097.68 383.45 1068.37 554.55 919.23 691.78 1088.67 685.22
00004440 00000070 618.24 175.18 523.30 719.07 878.58 391.58 1093.23 384.82 1064.39 556.75 914.69 693.87 1082.61 687.24
00004441 00000071 611.91 169.18 525.72 727.43 874.85 393.57 1088.43 387.16 1060.43 557.25 911.19 696.33 1075.51 689.85
00004442 00000072 610.40 171.91 527.21 725.65 872.82 393.10 1086.97 384.73 1059.24 558.91 909.52 697.89 1074.47 689.83
00004443 00000073 608.67 167.40 527.99 729.50 871.88 392.30 1086.58 384.75 1058.29 558.72 908.12 697.33 1072.60 689.94
00004444 00000074 605.75 161.27 528.22 736.20 870.69 390.98 1084.00 383.90 1056.88 556.38 905.86 695.49 1070.32 688.38
00004445 00000075 602.18 160.26 529.95 737.00 868.14 390.46 1081.83 383.54 1054.33 555.24 902.96 694.67 1068.37 687.65
00004446 00000076 599.81 161.78 529.88 734.24 864.58 390.21 1078.57 382.97 1051.28 555.10 900.59 693.80 1065.97 686.28
00004447 00000077 597.80 161.49 530.61 734.69 863.32 389.78 1077.47 382.44 1050.38 554.71 899.13 693.87 1064.96 686.19
00004448 00000078 594.60 172.58 531.70 724.25 861.56 390.64 1073.88 382.46 1050.65 555.43 898.47 694.78 1062.35 686.55
00004449 00000079 594.24 171.57 531.09 726.56 861.40 392.63 1072.51 384.13 1051.08 556.51 898.30 697.57 1061.20 689.14
00004450 00000080 591.57 170.20 532.22 729.14 861.17 395.12 1071.72 386.65 1052.66 558.54 897.43 699.69 1060.02 691.31
00004451 00000081 588.95 178.43 533.43 724.91 857.33 394.77 1068.82 387.09 1051.12 559.48 892.67 701.02 1057.92 693.30
00004452 00000082 584.95 188.50 535.81 715.88 851.93 394.09 1064.77 386.98 1048.74 560.61 888.65 701.93 1054.79 694.86
00004453 00000083 582.52 186.60 536.09 718.01 849.49 394.38 1062.61 388.13 1045.65 560.58 886.25 701.97 1052.22 695.66
00004454 00000084 580.90 183.38 535.85 721.69 848.89 394.66 1060.97 388.62 1044.23 560.54 885.82 702.39 1050.68 696.15
00004455 00000085 580.44 182.33 534.62 723.06 849.07 395.82 1060.07 389.49 1043.14 561.77 885.70 702.59 1049.87 696.07
00004456 00000086 580.56 181.32 533.64 723.59 848.75 397.36 1059.52 390.04 1043.40 562.63 886.16 703.62 1049.45 696.29
00004457 00000087 578.14 184.24 533.22 723.02 846.25 395.29 1056.73 388.96 1041.23 561.73 883.33 703.64 1047.05 697.32
00004458 00000088 578.50 183.69 532.28 723.60 846.84 396.73 1056.23 389.51 1041.55 563.20 883.48 704.31 1046.31 697.29
00004459 00000089 579.07 183.22 531.65 724.27 846.74 397.13 1056.18 390.21 1041.17 562.59 884.22 704.71 1047.03 697.93
00004460 00000090 580.02 180.47 531.10 726.11 848.24 398.31 1057.71 391.84 1042.08 563.44 885.33 704.81 1048.03 698.35
00004461 00000091 582.57 187.25 530.99 718.55 849.83 399.28 1059.27 391.96 1044.34 564.69 886.35 705.10 1048.58 698.14
00004462 00000092 583.44 185.57 530.73 720.41 850.44 399.74 1059.63 392.43 1044.42 564.90 886.68 705.28 1048.86 698.30
00004463 00000093 586.75 205.31 531.32 699.38 856.20 405.81 1067.55 392.64 1043.74 569.42 888.90 708.93 1043.84 697.02
00004464 00000094 589.32 207.58 531.64 697.96 858.46 407.09 1070.18 393.53 1045.56 570.53 890.27 708.64 1046.59 696.41
00004465 00000095 590.01 210.51 533.26 696.78 859.57 406.79 1070.70 393.67 1046.32 569.84 893.32 709.25 1049.14 697.26
00004466 00000096 592.42 195.22 531.58 714.32 858.57 401.41 1067.38 390.93 1053.27 567.88 896.71 708.48 1057.80 698.91
00004467 00000097 596.01 190.21 529.16 719.57 861.78 403.25 1070.40 392.33 1055.73 567.60 899.98 708.62 1062.40 698.59
00004468 00000098 599.85 189.33 528.77 719.76 865.24 403.84 1075.01 390.90 1059.99 567.86 904.07 709.14 1067.18 697.38
00004469 00000099 602.84 187.51 530.60 721.24 867.17 405.17 1078.78 391.18 1061.30 570.05 906.32 709.76 1070.01 697.04
00004470 00000100 604.86 202.30 534.49 708.05 874.43 408.26 1084.15 394.45 1060.76 570.55 908.09 707.04 1066.00 694.59
00004471 00000101 607.63 198.48 534.28 709.98 876.79 405.98 1087.74 393.42 1063.63 569.47 910.11 705.94 1069.12 694.60
00004472 00000102 611.37 194.22 532.06 712.76 880.33 405.83 1090.04 394.24 1066.37 569.08 912.66 704.97 1071.56 694.54
00004473 00000103 613.22 197.31 532.52 709.38 882.14 406.65 1092.83 394.30 1069.14 569.27 913.60 704.51 1074.65 693.49
00004474 00000104 616.24 200.16 533.49 705.47 884.25 404.94 1095.16 392.69 1071.47 568.10 916.97 704.55 1077.53 693.45
00004475 00000105 617.70 200.91 535.08 704.86 886.01 405.51 1098.26 392.87 1073.99 569.78 917.36 703.86 1080.54 692.61
00004476 00000106 622.63 203.35 534.78 701.79 888.40 404.76 1100.28 391.56 1076.40 570.35 920.01 703.24 1082.71 691.50
00004477 00000107 626.01 206.39 534.68 699.03 891.75 403.43 1103.80 390.64 1080.17 571.46 923.53 703.87 1085.38 692.48
00004478 00000108 624.55 185.66 538.01 722.11 900.73 395.88 1104.98 392.44 1088.58 568.29 928.29 700.32 1091.95 695.82
00004479 00000109 626.18 187.55 537.78 721.60 902.42 395.27 1106.37 391.55 1091.48 568.33 928.74 701.15 1093.00 696.62
00004480 00000110 626.70 184.44 539.81 724.16 905.16 393.78 1110.06 391.64 1093.20 568.18 931.35 699.82 1096.30 696.41
00004481 00000111 631.46 187.45 538.97 721.97 909.14 393.77 1113.89 390.91 1099.11 569.30 934.38 700.40 1098.51 696.73
00004482 00000112 635.08 186.82 540.25 720.92 912.06 394.76 1119.38 390.65 1103.61 570.48 937.64 701.33 1102.35 696.65
00004483 00000113 638.99 187.82 539.86 720.81 915.51 395.53 1122.31 390.25 1108.61 568.92 941.19 701.95 1105.68 696.61
00004484 00000114 643.48 189.66 540.32 718.87 919.29 395.67 1126.94 389.15 1112.73 567.35 945.98 702.84 1111.10 696.52
00004485 00000115 646.71 187.84 539.35 720.10 920.48 395.68 1130.58 389.31 1113.85 566.77 947.92 703.19 1114.42 696.86
00004486 00000116 649.34 189.55 539.86 716.87 924.27 396.91 1134.10 390.53 1117.81 567.40 951.52 702.35 1116.52 696.18
00004487 00000117 652.47 195.33 541.41 709.37 927.14 396.84 1138.02 389.29 1120.95 568.26 954.08 702.02 1119.65 695.01
00004488 00000118 655.89 193.98 540.54 710.55 930.42 396.72 1141.16 389.21 1123.68 568.64 956.81 701.77 1122.68 694.78
00004489 00000119 657.99 193.39 538.94 710.03 932.59 397.28 1142.13 388.68 1125.23 568.96 958.16 701.82 1123.41 694.01
00004490 00000120 658.58 189.29 538.60 712.85 933.84 397.57 1143.36 388.14 1126.25 568.09 959.67 700.76 1125.27 692.09
00004491 00000121 657.97 194.12 540.71 705.81 934.21 396.44 1144.89 387.31 1127.87 567.73 960.05 698.97 1126.45 690.71
00004492 00000122 660.29 192.60 539.70 704.66 934.16 395.88 1146.85 387.93 1127.06 567.86 959.12 697.10 1128.25 689.74
00004493 00000123 663.27 191.21 538.28 708.72 935.36 395.39 1148.95 387.45 1127.85 568.62 958.74 695.89 1131.40 688.47
00004494 00000124 668.64 182.11 535.28 721.13 939.59 392.55 1152.57 384.29 1130.63 565.25 962.09 696.29 1135.01 688.86
00004495 00000125 673.20 188.73 533.30 715.29 944.60 394.97 1153.19 383.17 1135.64 565.83 965.84 697.72 1135.86 687.75
00004496 00000126 671.72 160.02 534.30 738.04 949.49 394.48 1161.22 387.42 1138.10 560.82 972.32 696.40 1139.11 690.03
00004497 00000127 673.26 160.71 532.93 733.03 955.93 394.68 1163.15 385.32 1146.71 557.01 979.14 692.05 1143.75 684.07
00004498 00000128 673.69 162.63 533.44 726.82 961.63 392.70 1164.29 384.02 1152.83 552.55 986.78 689.39 1144.44 681.73
00004499 00000129 679.78 171.62 529.26 710.23 965.04 387.91 1168.05 380.59 1154.98 548.37 990.95 683.91 1148.19 677.30
00004500 00000130 684.82 174.21 526.41 700.04 967.94 381.25 1168.51 375.56 1155.16 539.98 997.41 677.39 1149.62 671.95
00004501 00000131 687.94 174.40 526.51 691.59 974.08 378.00 1170.01 373.10 1160.45 533.88 1002.68 670.65 1151.32 666.06
00004502 00000132 695.58 169.30 521.38 691.68 981.49 374.41 1170.86 369.85 1166.41 528.08 1015.25 669.05 1157.10 664.49
00004503 00000133 699.64 165.02 519.99 692.26 987.23 369.01 1169.35 363.15 1173.05 517.54 1027.32 666.28 1161.17 660.51
00004504 00000134 703.56 171.64 517.35 684.02 991.86 365.89 1165.11 353.98 1181.79 511.38 1038.20 664.44 1166.20 653.31
00004505 00000135 703.78 173.14 518.00 682.45 994.86 366.50 1163.17 352.04 1185.42 509.07 1041.89 663.72 1166.20 650.39
00004506 00000136 702.24 168.84 517.97 683.64 996.19 364.80 1163.21 350.53 1185.59 507.96 1041.58 661.47 1164.74 648.43
00004507 00000137 703.48 156.82 513.05 696.10 996.92 362.68 1162.71 350.55 1183.36 505.03 1039.21 657.92 1163.82 646.93
00004508 00000138 700.84 149.47 513.35 706.32 996.03 359.80 1160.92 355.10 1179.93 502.43 1037.23 657.83 1159.92 653.19
00004509 00000139 699.17 144.57 514.21 716.21 995.68 353.67 1156.31 346.91 1175.89 499.74 1032.92 657.36 1154.81 652.13
00004510 00000140 697.14 159.09 518.01 700.39 992.64 350.34 1153.77 340.23 1175.54 497.20 1031.28 655.46 1155.44 647.40
00004511 00000141 698.49 151.04 518.33 703.33 994.32 347.70 1155.55 338.30 1175.15 494.40 1030.73 650.03 1155.05 642.54
00004512 00000142 700.75 161.84 516.44 688.10 994.05 344.61 1155.48 336.88 1175.51 492.81 1029.47 646.00 1154.42 639.78
00004513 00000143 701.51 164.63 518.52 685.53 998.69 341.88 1156.63 335.57 1180.60 493.40 1029.41 643.35 1152.27 638.66
00004514 00000144 704.51 162.75 520.12 688.19 1003.75 341.85 1158.58 335.60 1185.53 492.27 1032.51 641.87 1153.28 637.53
00004515 00000145 707.94 158.01 519.70 693.74 1011.54 341.42 1157.95 335.07 1193.36 491.33 1040.02 642.00 1154.05 638.20
00004516 00000146 711.45 168.26 521.38 682.72 1014.14 339.42 1160.63 334.23 1196.61 489.22 1042.70 639.23 1156.64 636.26
00004517 00000147 714.75 172.04 520.83 678.29 1016.41 337.11 1164.08 331.50 1198.82 487.33 1046.12 638.62 1160.99 635.17
00004518 00000148 718.97 171.89 517.00 674.60 1017.90 335.48 1165.60 330.01 1200.26 485.94 1047.38 635.40 1162.24 631.76
00004519 00000149 721.98 172.50 515.07 672.85 1017.16 333.01 1167.71 326.88 1200.66 484.05 1047.83 633.56 1164.94 629.22
00004520 00000150 725.15 171.22 511.00 671.69 1018.07 332.21 1167.94 324.79 1200.13 481.84 1048.06 631.15 1164.65 625.65
00004521 00000151 724.92 171.56 513.27 671.54 1019.05 328.14 1169.25 322.48 1200.61 481.24 1048.07 629.78 1162.91 625.75
00004522 00000152 722.28 158.69 514.88 685.95 1021.29 323.34 1167.55 318.40 1202.73 474.41 1046.12 625.51 1160.69 622.38
00004523 00000153 718.32 145.68 511.63 686.48 1019.01 316.85 1168.81 313.89 1212.76 470.16 1048.39 622.87 1163.89 621.23
00004524 00000154 717.03 138.91 513.30 689.26 1019.54 314.55 1171.01 312.18 1214.33 464.14 1049.97 618.23 1168.48 616.86
00004525 00000155 718.80 131.08 508.64 691.91 1021.40 313.81 1171.35 312.06 1214.20 461.94 1053.16 615.19 1170.11 614.19
00004526 00000156 719.29 133.85 507.23 687.22 1020.06 314.01 1170.41 311.52 1213.71 463.48 1052.96 615.36 1169.25 613.76
00004527 00000157 720.31 132.90 510.73 697.26 1021.81 314.38 1166.38 310.20 1207.70 458.34 1055.30 616.18 1166.51 613.89
00004528 00000158 718.90 141.58 507.78 691.02 1019.07 317.50 1163.99 313.30 1204.21 465.20 1052.06 619.86 1162.06 617.79
00004529 00000159 716.97 154.78 509.41 678.93 1016.89 319.62 1163.17 313.40 1203.24 469.57 1048.68 621.86 1160.77 617.97
00004530 00000160 713.56 155.15 512.81 681.64 1014.96 321.54 1161.21 314.33 1202.49 471.10 1046.83 623.61 1159.62 618.95
00004531 00000161 712.60 162.68 513.00 678.39 1013.11 323.52 1160.63 317.55 1199.69 474.80 1044.92 625.85 1158.97 621.92
00004532 00000162 710.52 164.54 512.35 678.00 1011.16 325.38 1159.04 320.99 1195.98 476.87 1041.86 626.52 1156.69 623.91
00004533 00000163 707.89 165.78 511.82 677.21 1010.65 327.30 1154.77 322.51 1193.51 478.17 1040.07 626.42 1153.12 623.85
00004534 00000164 704.81 172.21 514.57 672.49 1008.22 329.57 1153.55 325.76 1190.22 482.49 1037.13 629.54 1149.82 627.82
00004535 00000165 701.52 178.88 515.13 667.87 1003.70 332.76 1148.60 327.06 1185.26 484.52 1032.65 630.48 1145.70 627.07
00004536 00000166 696.26 184.92 513.94 662.73 997.91 334.90 1144.44 329.36 1179.18 488.27 1027.28 633.70 1140.01 630.42
