Video ID: 	egMGRNGoUaY
H: 	1080
W: 	1920
FPS: 	25.0

FRAME INDEX X0 Y0 W H [Landmarks (5 Points)]

00001729 00000000 1244.94 85.48 345.38 510.26 1340.35 292.72 1503.34 318.16 1407.31 377.12 1335.34 455.17 1475.27 478.05
00001730 00000001 1246.18 84.57 345.66 510.12 1341.87 292.95 1505.80 318.47 1409.86 378.91 1337.55 455.97 1478.51 478.77
00001731 00000002 1247.99 84.46 349.45 510.71 1341.45 290.60 1505.31 314.53 1413.93 381.32 1335.13 460.11 1480.35 481.26
00001732 00000003 1250.40 86.14 348.57 512.47 1343.65 292.73 1505.41 314.28 1416.79 381.80 1340.70 462.84 1477.71 481.81
00001733 00000004 1251.80 88.40 346.72 513.61 1346.57 290.94 1508.39 313.49 1419.39 380.32 1342.45 463.78 1477.33 483.80
00001734 00000005 1251.66 87.68 348.42 516.68 1347.01 292.41 1510.66 315.20 1419.93 380.01 1341.46 466.12 1480.87 486.18
00001735 00000006 1251.57 90.51 347.81 515.01 1347.87 294.65 1511.58 319.69 1419.72 383.04 1339.47 467.71 1481.89 489.68
00001736 DELETE   1251.44 92.03 346.22 514.08 1348.45 298.43 1512.57 327.55 1420.50 393.32 1337.34 471.00 1483.44 496.38
00001737 00000008 1250.89 95.05 345.23 513.69 1347.29 303.69 1510.49 331.15 1421.11 400.01 1336.85 476.13 1483.93 499.95
00001738 00000009 1252.25 98.99 344.03 517.51 1348.47 309.91 1508.82 336.28 1422.47 405.94 1340.14 483.40 1484.33 506.28
00001739 00000010 1250.73 105.04 346.61 524.44 1349.07 318.68 1508.09 342.92 1422.75 414.02 1342.07 490.82 1485.32 511.81
00001740 00000011 1250.70 109.21 346.26 525.16 1347.12 326.03 1508.46 347.47 1420.58 420.70 1344.03 498.90 1485.28 517.70
00001741 00000012 1252.40 109.99 342.92 524.04 1345.73 331.05 1508.70 351.41 1421.23 424.98 1345.43 502.00 1488.19 519.74
00001742 00000013 1252.49 111.67 343.23 520.30 1346.05 332.55 1511.83 354.81 1422.01 426.76 1344.62 502.30 1489.69 521.59
00001743 00000014 1251.53 113.45 344.33 518.90 1345.91 334.64 1513.31 357.18 1422.28 428.98 1342.83 503.25 1489.63 522.94
00001744 00000015 1251.75 114.27 344.03 518.59 1345.64 335.94 1514.65 359.37 1422.07 430.41 1341.61 504.12 1490.09 524.59
00001745 00000016 1251.02 114.19 344.79 522.85 1345.27 337.27 1515.37 359.80 1422.43 433.39 1340.85 506.11 1491.85 525.92
00001746 00000017 1250.14 114.83 346.91 528.92 1346.68 337.12 1516.74 359.61 1423.81 433.82 1341.36 508.25 1493.10 528.11
00001747 00000018 1249.88 114.79 347.13 531.54 1347.47 337.30 1516.15 360.10 1424.24 435.09 1341.47 508.75 1491.67 528.86
00001748 00000019 1249.14 114.19 347.50 532.07 1347.06 337.44 1514.83 359.97 1423.64 435.58 1341.26 508.54 1490.46 528.41
00001749 00000020 1248.37 114.39 347.63 531.64 1346.25 337.84 1513.33 360.56 1422.34 436.20 1341.02 509.13 1488.49 529.21
00001750 00000021 1247.21 114.67 347.60 531.41 1344.80 338.54 1511.13 361.11 1420.63 437.56 1340.01 509.86 1485.69 529.74
00001751 00000022 1246.02 114.27 346.24 530.43 1343.17 338.28 1508.79 360.73 1418.41 438.62 1338.22 509.33 1483.61 529.13
00001752 00000023 1245.49 113.04 344.60 528.03 1341.83 336.56 1506.24 359.40 1415.65 436.81 1336.44 507.82 1480.11 528.12
00001753 00000024 1245.70 111.75 342.14 526.70 1340.51 333.79 1503.55 356.88 1412.73 434.04 1334.08 504.81 1477.84 525.29
00001754 00000025 1245.69 109.33 341.87 527.93 1340.28 330.29 1501.69 354.81 1411.68 429.05 1332.65 501.19 1476.48 522.58
00001755 00000026 1246.20 109.22 342.61 526.99 1341.22 329.62 1502.08 355.54 1411.83 427.10 1333.37 498.96 1477.06 521.38
00001756 00000027 1246.27 109.78 345.55 526.59 1343.81 326.94 1507.33 354.95 1415.09 424.13 1334.45 496.57 1481.19 520.56
00001757 00000028 1248.64 109.29 348.15 518.90 1345.84 324.92 1508.77 353.53 1415.66 422.02 1334.57 492.98 1480.22 517.59
00001758 00000029 1251.63 107.44 348.01 518.16 1348.98 321.49 1511.98 352.22 1419.29 419.66 1335.96 491.35 1480.33 517.79
00001759 00000030 1254.15 105.31 348.80 524.93 1354.47 318.26 1513.67 349.82 1424.13 417.81 1338.89 490.93 1478.97 518.21
00001760 00000031 1256.18 106.68 349.38 524.09 1361.51 317.51 1513.34 349.29 1430.19 417.94 1344.65 488.15 1477.40 515.86
00001761 00000032 1256.08 108.28 352.55 525.07 1363.96 321.31 1517.84 349.38 1436.79 417.51 1350.59 490.84 1485.87 515.49
00001762 00000033 1258.10 108.98 351.14 523.09 1364.23 325.72 1523.22 353.11 1440.38 420.66 1354.38 494.62 1492.33 518.73
00001763 00000034 1259.67 111.37 351.90 524.27 1365.12 329.35 1526.47 356.54 1441.80 424.97 1355.20 498.07 1495.57 522.30
00001764 00000035 1261.09 112.06 352.35 523.83 1366.63 330.65 1527.23 359.18 1441.81 428.42 1355.66 500.64 1492.79 526.14
00001765 00000036 1260.66 111.56 352.75 524.27 1366.63 330.90 1525.84 358.93 1441.21 429.19 1355.14 500.00 1491.48 524.98
00001766 00000037 1260.71 111.31 351.95 521.83 1365.74 330.71 1524.91 358.94 1440.38 427.67 1354.51 498.56 1490.63 523.59
00001767 00000038 1260.42 111.58 351.64 520.26 1365.69 330.89 1525.13 358.63 1441.23 426.80 1355.31 498.38 1491.60 523.05
00001768 00000039 1259.84 111.91 350.79 518.85 1364.48 330.97 1523.13 357.24 1439.77 426.02 1355.23 498.53 1490.34 521.98
00001769 00000040 1260.17 113.25 348.77 512.26 1362.51 331.47 1520.52 357.48 1436.87 427.72 1354.74 499.19 1487.38 522.46
00001770 00000041 1260.55 114.92 345.74 509.34 1361.36 332.63 1518.51 358.69 1434.65 430.01 1354.95 500.48 1484.71 523.79
00001771 00000042 1260.24 115.27 345.58 509.17 1360.24 334.59 1517.27 360.07 1433.29 430.90 1354.59 501.68 1483.64 524.42
00001772 00000043 1259.44 116.18 346.80 511.65 1359.38 335.93 1516.95 360.58 1432.48 431.32 1354.63 503.53 1484.30 525.61
00001773 00000044 1259.02 116.43 346.64 512.36 1359.22 337.11 1516.66 361.33 1432.55 432.23 1355.33 504.56 1484.83 526.22
00001774 00000045 1259.52 118.31 346.28 511.21 1359.22 338.56 1516.33 362.74 1432.05 433.38 1355.23 506.01 1484.11 527.83
00001775 00000046 1259.20 119.35 346.76 511.90 1358.58 339.83 1515.08 362.83 1431.04 434.79 1355.68 507.68 1483.15 528.55
00001776 00000047 1259.52 120.23 345.31 506.96 1356.60 342.41 1513.13 364.25 1429.60 437.46 1357.62 510.71 1481.20 530.70
00001777 00000048 1259.08 120.65 344.11 503.77 1354.50 344.61 1511.36 365.30 1427.48 440.61 1358.07 512.42 1480.14 531.27
00001778 00000049 1256.45 121.17 346.05 502.54 1354.17 346.88 1509.30 368.60 1425.00 440.50 1357.06 512.95 1476.56 532.57
00001779 DELETE   1256.01 120.39 346.36 503.16 1354.99 344.54 1510.94 367.74 1425.95 439.65 1353.26 510.66 1474.80 531.52
00001780 DELETE   1255.44 118.59 345.52 504.80 1353.14 339.44 1508.23 361.49 1422.57 431.59 1350.22 506.44 1472.65 526.48
00001781 DELETE   1256.52 116.19 344.05 509.84 1353.38 331.80 1507.97 353.78 1421.66 422.31 1350.60 502.20 1475.56 522.00
00001782 00000053 1257.82 109.99 341.94 511.98 1353.58 322.73 1508.96 347.95 1422.52 415.99 1346.77 494.52 1477.80 516.67
00001783 DELETE   1257.84 104.12 342.85 517.37 1352.20 316.22 1509.68 342.63 1422.46 409.34 1343.22 489.34 1480.28 512.40
00001784 00000055 1255.36 103.40 344.21 515.78 1350.77 312.46 1510.63 339.83 1423.13 406.47 1340.17 486.62 1481.32 510.57
00001785 00000056 1254.57 102.48 344.36 520.50 1350.19 315.37 1508.73 340.88 1423.96 408.82 1341.65 489.37 1482.45 511.76
00001786 00000057 1251.89 105.43 346.99 525.36 1349.77 318.12 1506.03 341.00 1422.35 412.50 1342.96 492.82 1479.97 513.33
00001787 00000058 1250.78 107.65 345.81 529.63 1348.79 320.78 1505.01 342.47 1420.16 415.79 1341.94 496.77 1478.27 516.50
00001788 00000059 1251.54 108.01 340.93 526.46 1344.30 324.06 1503.98 347.12 1414.50 418.26 1338.02 498.06 1478.13 518.41
00001789 00000060 1250.04 107.78 341.28 527.83 1342.38 327.53 1503.39 350.53 1413.17 421.94 1335.97 501.07 1477.29 521.20
00001790 00000061 1248.73 108.40 342.24 529.63 1341.90 330.83 1503.07 353.85 1413.53 424.99 1335.34 503.94 1476.77 524.14
00001791 00000062 1248.42 110.59 341.88 528.27 1342.17 332.81 1503.76 355.38 1414.40 428.11 1335.93 506.00 1476.84 525.94
00001792 00000063 1248.52 110.72 341.69 528.52 1341.41 334.02 1503.88 356.33 1414.29 428.34 1335.48 505.39 1478.76 525.08
00001793 00000064 1248.23 110.25 342.41 528.88 1340.51 334.30 1502.02 356.63 1412.58 428.02 1334.98 504.81 1477.28 524.37
00001794 00000065 1247.31 109.16 342.16 530.46 1339.48 333.47 1498.82 356.34 1410.04 427.92 1334.25 505.85 1472.91 525.82
00001795 00000066 1247.02 109.51 342.03 531.89 1338.75 334.43 1496.32 356.95 1408.49 428.84 1335.54 508.20 1469.87 527.98
00001796 00000067 1247.01 110.45 341.71 530.73 1337.49 334.52 1495.26 357.53 1405.83 428.85 1334.84 507.97 1469.45 528.22
00001797 00000068 1245.67 111.18 341.70 531.55 1336.37 334.62 1495.89 358.89 1403.83 429.88 1331.54 507.26 1470.04 528.57
00001798 00000069 1244.48 112.04 341.89 534.40 1334.44 336.95 1495.07 361.98 1401.45 434.22 1328.86 509.86 1468.11 531.78
00001799 00000070 1243.55 119.42 340.37 527.79 1333.47 341.82 1494.41 366.02 1400.60 441.34 1328.51 513.86 1466.82 535.57
00001800 00000071 1241.71 123.99 340.52 524.80 1331.34 348.37 1493.72 372.85 1399.64 449.95 1328.71 518.18 1465.83 539.76
00001801 00000072 1240.88 127.50 339.93 520.87 1330.59 350.76 1492.45 375.16 1398.85 453.52 1327.29 520.39 1462.78 541.84
00001802 00000073 1240.29 128.21 340.33 518.23 1330.66 350.79 1492.00 374.72 1399.17 453.89 1328.07 520.78 1461.80 541.94
00001803 00000074 1240.76 126.44 338.86 516.61 1331.07 348.21 1491.95 372.98 1399.16 451.06 1327.24 517.57 1461.55 539.55
00001804 00000075 1240.70 121.23 338.26 519.88 1331.22 343.12 1490.84 368.98 1397.86 443.45 1325.00 512.53 1460.59 535.47
00001805 00000076 1240.30 115.86 339.27 524.73 1331.56 338.93 1489.94 366.03 1397.29 436.08 1324.38 509.02 1459.37 532.87
00001806 00000077 1239.65 114.70 340.11 525.27 1330.56 336.75 1488.49 364.34 1395.42 433.12 1323.01 507.23 1457.80 531.58
00001807 00000078 1239.24 115.26 340.54 524.94 1330.35 336.60 1488.37 363.68 1394.94 433.45 1322.65 507.58 1457.53 531.58
00001808 00000079 1239.25 117.46 339.84 522.18 1329.88 339.69 1488.62 365.89 1395.21 436.73 1323.97 510.03 1458.02 533.35
00001809 00000080 1241.39 122.25 337.80 518.92 1329.53 345.46 1489.51 370.26 1395.84 444.42 1325.94 514.63 1460.42 536.55
00001810 00000081 1243.41 125.85 337.85 518.10 1330.27 349.23 1492.06 373.20 1397.65 450.15 1327.68 517.75 1463.02 538.87
00001811 00000082 1244.15 127.05 340.88 519.73 1331.43 350.72 1494.39 374.77 1399.13 452.29 1328.36 520.19 1464.25 541.47
00001812 00000083 1245.62 128.27 342.17 520.56 1332.46 351.29 1497.27 374.43 1400.86 453.53 1329.98 521.69 1467.50 542.30
00001813 00000084 1245.22 126.75 343.91 522.94 1333.42 350.62 1498.71 374.19 1402.58 452.57 1330.82 521.56 1469.51 542.49
00001814 00000085 1245.60 126.09 344.23 524.02 1333.68 348.98 1499.01 372.86 1402.45 450.37 1329.71 519.45 1470.14 540.70
00001815 00000086 1245.31 122.81 343.84 529.43 1333.49 346.41 1496.92 371.45 1400.48 448.36 1326.96 516.89 1467.80 538.95
00001816 00000087 1244.55 121.64 343.21 531.18 1331.98 346.38 1495.11 371.43 1398.75 448.82 1325.69 516.65 1467.23 538.65
00001817 00000088 1244.30 122.98 342.38 528.54 1330.66 347.51 1494.87 372.18 1397.71 450.28 1325.51 517.97 1467.48 539.66
00001818 00000089 1244.49 124.64 342.80 527.78 1330.77 350.35 1494.67 373.38 1398.70 453.58 1327.79 520.84 1467.89 541.19
00001819 00000090 1244.04 126.74 343.64 526.04 1330.80 351.38 1495.86 373.85 1399.12 454.97 1327.29 522.03 1468.42 541.88
00001820 00000091 1244.80 127.73 342.96 524.57 1331.09 351.81 1496.48 374.77 1399.52 455.65 1327.33 522.17 1468.76 542.43
00001821 00000092 1245.42 127.95 342.32 521.51 1331.38 351.75 1496.61 374.74 1400.09 455.22 1328.13 521.35 1468.65 541.63
00001822 00000093 1245.49 126.46 342.33 521.34 1331.57 350.83 1497.58 373.89 1400.58 453.86 1328.40 521.01 1469.40 541.42
00001823 00000094 1246.05 126.32 342.01 518.55 1332.14 349.97 1498.60 373.32 1401.29 452.76 1328.34 519.50 1470.38 540.09
00001824 00000095 1246.39 125.81 342.01 515.84 1333.27 349.06 1499.63 372.54 1402.71 450.29 1328.62 517.15 1471.01 537.82
00001825 00000096 1247.57 125.21 342.21 520.22 1333.88 348.84 1501.35 371.34 1404.36 450.24 1329.35 517.53 1474.77 537.34
00001826 00000097 1247.99 123.96 342.87 523.98 1334.68 349.07 1501.56 371.25 1404.62 451.86 1329.94 518.48 1475.12 537.90
00001827 00000098 1248.96 125.65 341.02 517.81 1336.82 350.64 1502.79 373.02 1407.45 454.01 1332.01 519.08 1474.34 538.68
00001828 00000099 1249.85 126.21 340.62 515.98 1337.44 350.28 1504.18 372.92 1407.67 453.58 1331.59 517.98 1475.78 537.70
00001829 00000100 1250.32 125.75 341.62 519.27 1338.04 350.13 1504.15 372.73 1408.01 454.55 1333.06 519.54 1475.47 539.34
00001830 00000101 1249.75 125.51 344.36 525.53 1338.39 350.66 1504.67 371.71 1409.10 454.16 1334.91 521.18 1477.30 539.61
00001831 00000102 1249.03 125.47 344.08 525.73 1337.42 350.41 1504.82 372.01 1408.31 454.64 1332.65 520.58 1477.83 539.47
00001832 00000103 1248.32 125.19 344.89 526.45 1336.94 350.13 1504.31 371.84 1407.76 454.14 1331.78 520.08 1477.58 539.08
00001833 00000104 1247.69 125.15 345.61 527.76 1336.54 350.02 1504.51 371.65 1407.14 453.75 1330.45 519.65 1477.95 538.63
00001834 00000105 1247.59 126.00 345.69 530.55 1337.02 350.52 1504.38 372.69 1407.14 454.27 1329.62 519.65 1477.98 539.03
00001835 00000106 1247.09 126.84 346.63 531.54 1338.22 352.28 1504.06 375.95 1407.38 455.36 1329.82 520.29 1476.54 540.82
00001836 00000107 1246.72 126.96 345.34 532.27 1337.12 352.98 1502.35 377.08 1406.08 456.75 1328.42 520.28 1475.85 541.02
00001837 00000108 1246.04 126.73 344.08 530.34 1334.91 352.30 1501.57 376.66 1403.78 456.44 1326.62 519.64 1475.61 540.60
00001838 00000109 1244.69 126.69 343.60 526.44 1333.35 352.94 1500.41 377.37 1402.41 457.53 1325.33 520.03 1473.99 541.08
00001839 00000110 1244.22 127.67 341.68 520.98 1332.99 352.73 1497.94 376.97 1402.24 457.56 1327.12 520.38 1469.87 541.54
00001840 00000111 1243.92 126.19 339.74 518.77 1333.33 350.98 1495.86 375.87 1401.98 454.80 1329.17 518.68 1467.17 540.53
00001841 00000112 1242.57 122.06 339.83 521.27 1332.84 347.46 1493.50 372.21 1401.05 449.70 1329.01 515.55 1465.62 537.35
00001842 00000113 1240.97 119.73 340.58 521.29 1332.14 343.95 1491.38 369.29 1399.16 444.72 1326.96 513.19 1461.75 535.71
00001843 00000114 1237.64 116.95 342.29 522.92 1330.91 341.10 1489.62 368.42 1397.11 440.30 1324.02 510.74 1457.65 535.02
00001844 00000115 1235.26 116.20 342.48 523.75 1329.67 339.32 1487.63 367.43 1394.63 438.74 1321.02 509.62 1453.57 534.76
00001845 00000116 1233.35 118.54 343.41 520.07 1327.47 340.30 1485.84 368.52 1390.57 439.84 1317.49 509.05 1450.11 534.43
00001846 00000117 1231.79 120.15 343.26 518.98 1323.61 342.71 1483.66 371.33 1386.09 444.48 1311.54 510.35 1446.72 535.75
00001847 00000118 1227.75 120.18 344.52 519.37 1318.02 343.06 1482.15 371.07 1382.33 447.17 1307.00 513.12 1445.45 537.82
00001848 00000119 1224.86 120.43 347.18 521.98 1312.99 344.24 1478.24 370.82 1377.27 446.76 1304.09 515.16 1444.18 538.37
00001849 00000120 1223.54 119.62 348.05 524.95 1309.52 345.09 1474.65 370.55 1373.98 447.61 1302.54 517.09 1442.89 539.25
00001850 00000121 1222.56 119.85 347.12 522.87 1307.69 344.61 1472.95 369.95 1371.92 446.87 1301.24 516.13 1442.16 538.11
00001851 00000122 1222.42 121.24 347.03 522.64 1306.91 345.25 1473.21 370.80 1370.84 447.56 1299.92 516.68 1442.39 538.72
00001852 00000123 1222.23 123.41 347.39 523.04 1306.31 347.20 1473.04 373.16 1369.22 449.97 1298.86 517.63 1442.63 539.85
00001853 00000124 1220.94 125.65 349.25 523.13 1305.46 349.67 1472.51 376.18 1368.13 452.98 1297.46 518.09 1442.61 540.54
00001854 00000125 1219.56 127.13 348.88 520.44 1303.54 350.03 1470.70 377.47 1366.65 455.83 1294.78 516.58 1442.12 539.69
00001855 00000126 1216.94 127.58 348.45 519.98 1301.01 349.38 1467.63 377.62 1365.12 455.76 1292.55 515.15 1440.95 538.68
00001856 00000127 1214.64 126.53 348.36 520.33 1298.95 348.17 1464.97 376.87 1363.57 455.50 1290.55 513.82 1439.57 537.53
00001857 00000128 1212.89 126.00 349.40 523.07 1297.39 349.17 1462.94 377.11 1362.88 455.59 1290.80 515.01 1439.84 537.96
00001858 00000129 1212.85 126.75 347.78 524.42 1295.80 351.37 1460.16 377.35 1361.73 457.39 1292.10 519.97 1437.14 541.25
00001859 00000130 1212.19 127.93 347.80 524.77 1294.68 352.54 1459.45 377.62 1361.27 459.50 1291.59 523.96 1435.24 544.41
00001860 00000131 1212.50 129.68 347.72 525.39 1295.56 353.62 1458.92 379.02 1362.08 460.83 1292.69 526.08 1433.34 546.90
00001861 00000132 1212.40 131.62 348.85 525.87 1296.63 355.75 1460.69 381.30 1364.08 462.72 1293.03 527.05 1433.89 548.03
00001862 00000133 1212.68 133.38 348.98 526.46 1297.57 358.12 1462.04 384.15 1365.80 465.11 1292.73 528.09 1434.28 549.52
00001863 00000134 1213.07 135.73 348.59 523.63 1298.17 359.73 1462.99 385.45 1367.68 467.18 1293.09 529.11 1434.14 550.38
00001864 00000135 1212.89 138.42 348.60 521.66 1298.47 361.33 1462.44 387.29 1368.57 468.73 1293.03 529.25 1433.59 550.73
00001865 00000136 1212.99 139.48 348.74 519.22 1299.27 364.55 1463.43 390.29 1369.24 469.22 1293.35 529.51 1433.84 550.72
00001866 00000137 1213.41 139.83 349.04 517.55 1299.19 366.58 1463.73 392.16 1368.77 469.29 1293.96 529.65 1434.22 550.67
00001867 00000138 1213.12 141.95 349.29 516.17 1298.80 367.84 1462.86 393.76 1367.51 470.68 1293.07 530.26 1432.44 551.57
00001868 00000139 1212.95 142.90 349.84 515.33 1298.89 369.40 1462.37 395.20 1367.40 471.95 1293.82 531.59 1432.20 552.79
00001869 00000140 1213.34 144.44 350.16 514.20 1299.09 371.43 1463.09 395.84 1368.66 472.89 1295.80 533.49 1434.19 553.54
00001870 00000141 1214.52 145.06 349.52 515.29 1300.02 372.59 1463.39 396.99 1369.12 473.57 1297.36 533.96 1434.94 554.06
00001871 00000142 1215.48 144.76 350.16 514.15 1300.00 370.54 1463.96 394.36 1368.93 473.39 1297.75 534.07 1435.20 553.67
00001872 00000143 1216.76 143.53 349.75 510.94 1299.13 366.22 1463.34 389.79 1367.28 471.21 1297.45 530.93 1435.58 550.29
00001873 00000144 1218.07 140.25 348.71 511.25 1298.18 362.91 1463.59 387.06 1364.61 468.99 1295.24 527.65 1436.01 547.51
00001874 00000145 1220.03 137.76 347.58 512.62 1299.04 359.86 1465.17 384.63 1363.89 466.01 1295.03 525.71 1436.56 546.33
00001875 00000146 1220.12 136.79 349.43 516.43 1300.64 359.53 1466.64 384.39 1365.08 465.44 1296.54 525.45 1437.71 546.20
00001876 00000147 1219.62 136.53 350.51 520.20 1301.15 360.68 1467.14 384.78 1367.66 466.88 1298.13 528.87 1439.50 548.76
00001877 00000148 1218.44 138.19 350.44 521.43 1299.43 362.59 1466.35 385.38 1367.78 468.69 1297.37 531.54 1440.10 550.29
00001878 00000149 1217.07 138.30 350.21 520.22 1298.93 363.19 1465.12 386.02 1367.12 469.27 1296.02 529.45 1440.46 548.13
00001879 00000150 1215.37 137.88 350.91 521.80 1298.20 362.48 1464.07 386.40 1366.07 469.02 1294.57 527.18 1440.97 546.64
00001880 00000151 1214.80 138.40 350.90 521.23 1297.10 362.73 1463.83 386.41 1364.80 468.61 1292.57 525.62 1442.47 544.66
00001881 00000152 1214.16 139.23 350.86 520.85 1297.03 363.58 1463.79 387.25 1365.55 469.57 1292.15 526.45 1442.64 545.47
00001882 00000153 1213.70 140.24 350.83 519.75 1296.53 364.71 1463.82 388.22 1365.10 470.61 1290.90 526.39 1443.17 545.24
00001883 00000154 1213.04 140.76 350.67 519.58 1296.35 364.96 1463.49 388.36 1365.26 470.67 1290.68 525.94 1443.60 544.62
00001884 00000155 1212.42 139.88 350.48 520.03 1295.29 364.68 1462.98 387.64 1364.63 469.78 1290.51 525.56 1444.25 543.82
00001885 00000156 1211.01 139.27 351.65 519.82 1294.65 364.92 1462.16 387.44 1364.71 469.88 1290.23 525.15 1444.36 542.99
00001886 00000157 1210.08 139.56 351.02 518.18 1293.21 365.64 1461.04 387.74 1363.66 469.63 1289.66 524.01 1445.15 541.42
00001887 00000158 1210.04 139.75 351.30 518.46 1293.43 366.33 1460.86 387.94 1363.82 470.25 1290.02 524.56 1445.00 541.58
00001888 00000159 1210.87 141.03 350.59 520.26 1294.30 367.68 1461.36 389.15 1364.51 471.88 1290.77 526.05 1445.69 543.03
00001889 00000160 1211.97 141.49 350.33 519.62 1294.88 367.03 1461.54 389.12 1364.84 472.22 1290.92 526.39 1444.71 543.86
00001890 00000161 1213.14 140.70 349.94 519.64 1295.54 366.15 1462.26 388.66 1365.01 470.95 1290.94 525.40 1444.39 543.32
00001891 00000162 1214.50 138.03 349.85 522.45 1297.02 365.56 1467.06 391.67 1364.27 468.97 1289.64 523.52 1445.78 544.51
