Video ID: 	oUWL1Wtn440
H: 	1080
W: 	1920
FPS: 	25.0

FRAME INDEX X0 Y0 W H [Landmarks (5 Points)]

00000914 00000000 828.76 300.93 472.04 635.53 953.05 567.20 1152.36 545.60 1065.93 683.04 1008.85 788.18 1162.01 768.70
00000915 DELETE   834.64 301.76 471.56 639.83 962.98 569.62 1166.47 545.92 1082.86 688.98 1013.61 790.69 1175.37 769.93
00000916 DELETE   841.33 296.02 467.57 645.85 970.03 564.09 1180.75 545.28 1089.37 688.39 1012.32 785.64 1185.87 770.62
00000917 00000003 848.66 295.42 464.53 648.06 980.44 568.91 1185.60 548.12 1100.26 688.41 1021.44 784.84 1195.90 768.47
00000918 00000004 852.58 304.34 463.60 639.65 987.42 570.62 1191.06 548.52 1109.60 691.08 1030.30 785.10 1202.08 768.20
00000919 00000005 857.82 302.52 461.76 641.23 995.31 570.07 1197.54 547.80 1120.10 692.07 1038.38 786.18 1208.30 769.13
00000920 00000006 863.86 304.22 459.41 635.63 1001.13 572.69 1204.82 549.66 1127.36 694.34 1045.87 788.67 1213.74 770.79
00000921 00000007 866.23 310.32 458.95 623.03 1005.57 572.28 1210.97 549.30 1132.64 696.09 1046.29 786.00 1216.73 768.17
00000922 00000008 870.66 313.29 457.15 618.28 1008.98 570.44 1215.09 549.32 1134.79 696.90 1050.51 787.21 1216.92 770.95
00000923 00000009 874.24 309.77 456.52 624.61 1012.43 573.25 1215.13 552.85 1137.12 698.25 1053.07 788.11 1217.98 772.36
00000924 00000010 877.04 310.08 458.40 630.83 1013.82 573.27 1216.06 553.46 1138.62 696.98 1050.80 786.29 1221.68 770.82
00000925 00000011 877.12 311.99 463.08 630.46 1015.02 570.55 1218.31 552.11 1139.07 696.55 1050.25 783.74 1223.69 769.14
00000926 00000012 880.71 311.18 461.76 626.14 1014.53 568.77 1218.29 549.44 1136.94 697.23 1051.43 782.25 1223.67 766.78
00000927 00000013 878.27 305.12 465.87 631.28 1012.13 568.05 1216.30 549.19 1132.10 698.27 1049.34 781.34 1219.28 766.23
00000928 00000014 879.21 308.40 466.44 628.39 1006.57 564.62 1209.99 549.61 1121.21 694.14 1043.42 779.23 1212.14 766.99
00000929 00000015 879.30 294.83 464.24 638.20 1000.20 560.15 1202.48 547.55 1111.36 690.32 1035.16 775.91 1200.86 765.54
00000930 DELETE   884.86 293.05 456.04 629.53 991.82 549.06 1196.87 542.32 1097.07 681.21 1022.27 768.98 1184.25 763.53
00000931 DELETE   886.41 287.96 451.01 624.96 979.81 530.47 1186.44 528.57 1076.01 666.61 1007.90 759.32 1166.77 757.49
00000932 DELETE   884.37 273.37 449.81 631.29 967.01 517.88 1164.76 523.30 1044.34 666.07 997.32 743.58 1147.75 749.45
00000933 00000019 877.94 269.27 448.91 625.71 951.67 507.87 1150.83 515.93 1023.88 658.59 980.46 736.38 1127.53 744.69
00000934 00000020 874.08 263.33 447.32 627.62 942.54 501.92 1137.00 510.69 1005.74 645.60 968.32 732.28 1111.69 740.91
00000935 00000021 870.12 258.12 447.77 630.85 936.82 494.22 1128.52 505.50 993.75 636.44 961.92 728.89 1098.47 739.39
00000936 00000022 866.02 254.80 452.12 629.61 932.74 489.05 1126.67 499.89 989.23 631.29 957.14 726.06 1095.11 736.44
00000937 00000023 864.49 242.51 456.32 634.29 932.82 481.78 1125.40 490.16 987.99 623.83 954.39 717.01 1095.02 725.61
00000938 00000024 866.41 238.41 454.18 633.77 936.64 477.68 1127.82 484.17 990.53 617.26 957.50 710.73 1097.03 717.80
00000939 00000025 867.85 237.00 453.24 638.94 938.96 474.78 1130.70 481.57 992.95 616.22 957.46 708.15 1102.89 715.49
00000940 00000026 868.19 237.73 453.61 639.38 938.96 476.82 1131.74 482.47 996.51 619.32 959.25 708.93 1109.90 715.13
00000941 00000027 867.58 237.32 454.50 640.66 938.37 478.94 1131.55 483.52 996.40 621.02 959.38 710.48 1111.38 715.72
00000942 00000028 866.57 236.13 454.40 637.99 937.06 476.78 1130.89 480.47 996.14 618.73 958.46 707.70 1111.71 712.18
00000943 00000029 863.93 236.83 455.87 633.67 936.49 472.09 1131.91 475.46 995.64 613.01 957.34 702.48 1110.03 706.72
00000944 00000030 861.05 232.77 456.80 632.99 934.79 467.14 1131.23 471.44 994.00 608.01 955.09 697.07 1108.70 701.89
00000945 00000031 861.31 230.69 456.63 634.88 934.57 466.92 1131.21 470.62 994.15 607.86 955.35 697.02 1109.02 701.39
00000946 00000032 864.04 233.05 454.81 626.87 934.56 470.84 1131.25 472.66 997.11 610.72 959.44 701.18 1109.01 703.97
00000947 00000033 864.36 232.00 454.78 625.34 934.67 471.55 1131.50 474.31 997.52 614.25 958.54 700.45 1109.99 704.03
00000948 00000034 866.01 233.02 454.15 626.05 935.40 471.29 1131.42 472.52 998.85 613.77 962.20 702.26 1110.48 704.66
00000949 00000035 866.83 230.11 454.33 631.25 936.68 468.18 1130.91 469.44 997.09 609.44 963.61 701.49 1106.69 703.95
00000950 00000036 866.85 222.74 456.91 637.80 935.86 464.90 1129.37 464.40 995.47 606.44 963.27 699.71 1108.85 700.67
00000951 00000037 866.91 217.83 458.56 641.32 934.76 461.32 1128.68 460.07 994.63 602.86 963.50 698.40 1109.34 698.67
00000952 00000038 868.30 211.59 459.35 642.04 935.12 461.18 1128.48 458.24 997.37 601.21 967.06 696.18 1113.44 694.83
00000953 00000039 868.92 208.61 460.99 640.62 935.04 457.80 1128.96 452.59 999.52 598.76 970.78 692.71 1117.50 689.50
00000954 00000040 872.86 206.58 458.75 644.38 938.86 457.89 1131.09 450.30 1003.38 596.57 977.00 693.10 1122.78 687.69
00000955 00000041 876.18 207.08 457.50 646.60 941.47 457.86 1133.60 449.95 1006.24 597.63 980.62 694.62 1126.66 688.89
00000956 00000042 878.73 210.20 458.90 643.53 944.37 458.14 1137.90 449.34 1010.27 598.00 984.84 694.94 1131.67 688.47
00000957 00000043 881.60 212.74 458.79 642.21 948.51 458.14 1141.79 450.77 1014.05 598.58 988.30 695.57 1134.52 690.28
00000958 00000044 884.52 214.40 458.81 640.12 952.78 458.36 1147.67 449.64 1020.85 596.45 992.70 695.27 1140.70 688.99
00000959 00000045 888.42 214.04 456.04 638.85 958.08 457.74 1153.19 449.12 1027.85 595.54 997.80 693.91 1146.58 687.56
00000960 00000046 892.84 209.75 454.88 643.07 962.98 457.78 1158.86 449.91 1033.79 595.53 1002.67 692.40 1150.95 686.56
00000961 00000047 898.31 215.64 445.78 636.04 967.17 465.66 1162.20 458.78 1037.50 595.43 997.95 694.35 1158.94 687.42
00000962 00000048 900.14 214.44 449.13 636.49 967.85 465.61 1167.56 455.64 1043.36 593.55 1001.37 696.03 1165.69 686.38
00000963 00000049 903.41 216.67 449.04 633.59 972.52 460.41 1175.33 451.66 1051.28 593.16 1003.25 695.39 1169.12 687.14
00000964 00000050 905.78 218.09 448.66 630.52 976.45 461.56 1179.35 451.62 1056.85 591.62 1007.15 694.61 1173.99 685.32
00000965 00000051 906.90 223.03 448.25 626.41 978.00 461.95 1181.62 450.88 1058.58 590.08 1008.06 695.75 1175.54 685.67
00000966 00000052 906.62 221.68 450.38 632.98 978.76 461.92 1182.33 451.22 1059.29 590.12 1010.13 699.08 1175.88 689.39
00000967 00000053 905.81 219.89 452.42 639.35 978.64 462.48 1183.50 450.98 1061.01 589.77 1012.49 703.11 1176.94 692.68
00000968 00000054 906.94 218.58 450.53 644.80 979.73 461.74 1182.34 449.89 1061.36 588.54 1014.75 706.28 1174.30 695.93
00000969 00000055 905.95 218.62 451.66 644.48 978.42 462.69 1182.61 450.58 1060.46 588.94 1013.25 706.74 1174.67 696.20
00000970 00000056 906.01 218.50 451.74 644.09 978.85 463.36 1182.78 451.51 1060.33 589.46 1012.91 706.14 1174.72 695.85
00000971 00000057 906.52 218.45 450.68 643.34 980.21 463.10 1182.72 452.19 1060.70 589.83 1014.80 706.13 1173.55 696.78
00000972 00000058 907.70 219.78 450.35 641.59 984.57 462.78 1185.11 453.80 1064.33 590.32 1016.79 703.17 1174.35 695.50
00000973 00000059 908.50 220.93 450.29 640.33 985.74 461.69 1186.76 452.92 1066.00 590.45 1017.67 702.97 1174.86 695.42
00000974 00000060 909.27 224.95 449.97 635.02 985.72 463.72 1186.98 452.73 1067.81 592.26 1020.20 702.61 1179.83 692.87
00000975 00000061 910.36 225.52 452.45 637.52 987.16 464.52 1189.07 453.86 1068.83 593.26 1021.59 703.13 1182.49 693.62
00000976 00000062 912.18 223.46 453.32 640.58 990.62 464.75 1190.70 454.97 1070.93 595.88 1025.23 702.84 1185.11 693.86
00000977 00000063 913.90 225.80 452.96 638.30 992.62 464.98 1192.59 454.58 1072.94 596.06 1027.91 702.21 1189.56 692.41
00000978 00000064 913.74 224.47 454.08 634.12 994.02 466.79 1193.99 456.65 1074.77 597.74 1029.57 699.36 1193.01 689.63
00000979 00000065 915.62 224.75 453.16 627.77 994.21 467.49 1194.64 457.83 1075.08 598.34 1030.26 697.14 1195.60 687.62
00000980 00000066 916.68 223.76 454.84 632.24 996.05 466.98 1196.10 457.31 1076.77 596.95 1031.86 697.69 1196.59 688.14
00000981 00000067 919.60 224.22 453.28 632.91 996.96 465.80 1197.72 455.21 1076.70 595.45 1034.51 700.09 1199.21 689.42
00000982 00000068 920.50 224.11 452.63 632.85 997.10 465.61 1198.79 454.04 1078.49 595.32 1036.02 702.02 1199.60 690.43
00000983 00000069 921.33 225.27 451.89 632.47 999.83 465.01 1200.04 453.25 1080.97 594.87 1040.48 702.13 1201.15 690.33
00000984 00000070 920.68 217.77 461.38 642.78 1001.84 463.57 1208.59 451.57 1087.01 597.76 1042.60 701.49 1197.05 692.41
00000985 00000071 921.36 219.40 460.95 642.27 1004.77 461.69 1209.45 448.75 1088.64 592.60 1046.43 699.82 1197.41 689.94
00000986 00000072 923.13 218.75 453.13 633.44 1002.20 460.03 1202.90 447.13 1085.96 587.62 1048.94 700.81 1199.60 687.92
00000987 00000073 924.20 206.92 452.38 643.37 1000.66 461.67 1207.44 450.31 1087.80 591.92 1043.10 695.63 1197.29 687.85
00000988 00000074 923.54 203.75 451.06 646.78 999.75 465.69 1203.04 454.21 1084.72 588.70 1040.29 695.09 1192.76 687.21
00000989 00000075 918.40 205.26 455.05 645.10 996.47 465.48 1200.14 452.99 1081.29 589.60 1039.36 694.52 1191.11 685.56
00000990 00000076 914.89 212.05 454.59 634.83 989.63 463.62 1189.32 448.56 1071.95 588.26 1035.21 699.87 1189.38 685.94
00000991 00000077 912.93 213.88 453.21 637.43 986.71 465.38 1186.31 449.17 1070.01 589.62 1031.02 701.59 1187.29 686.96
00000992 00000078 910.62 217.11 452.96 639.86 985.73 465.89 1185.76 447.75 1070.57 588.22 1029.07 703.27 1185.70 687.49
00000993 00000079 908.43 216.70 451.86 639.17 984.94 465.69 1184.16 450.57 1067.59 588.27 1022.52 698.91 1184.27 685.56
00000994 00000080 907.01 216.11 451.50 638.22 983.81 465.21 1182.49 451.19 1065.80 588.07 1019.60 698.53 1180.68 686.10
00000995 00000081 906.07 216.70 452.07 638.69 980.38 465.75 1180.57 451.04 1063.69 589.14 1018.34 701.14 1178.72 688.13
00000996 00000082 903.68 218.77 454.23 635.93 976.56 466.40 1178.82 450.53 1060.31 589.92 1017.01 703.95 1176.83 690.03
00000997 00000083 902.22 223.10 454.00 631.30 973.77 467.70 1176.29 451.84 1056.00 592.66 1015.45 706.14 1173.17 692.47
00000998 00000084 900.76 224.75 453.93 630.10 972.32 468.44 1174.75 453.46 1054.24 595.48 1013.23 706.69 1170.58 693.85
00000999 00000085 899.09 227.59 453.48 628.44 971.05 467.96 1173.77 454.71 1052.42 597.77 1009.75 706.16 1168.36 694.77
00001000 00000086 897.70 225.78 451.91 631.72 969.14 467.94 1171.07 454.21 1049.09 596.90 1007.31 706.80 1165.75 694.97
00001001 00000087 895.32 214.36 452.85 638.96 961.48 467.47 1166.21 453.34 1040.64 598.74 1005.57 703.34 1160.26 692.45
00001002 00000088 888.37 209.30 459.00 643.10 956.73 463.34 1160.35 447.51 1034.68 594.40 1000.89 698.50 1159.94 685.88
00001003 00000089 880.22 205.01 459.71 644.08 953.12 460.68 1148.69 443.13 1027.65 585.75 1002.24 696.92 1145.03 683.00
00001004 00000090 875.32 203.99 458.95 641.62 947.68 459.95 1141.60 444.15 1020.13 582.06 992.88 693.85 1132.93 681.67
00001005 00000091 870.62 203.90 459.76 638.72 944.14 458.66 1137.83 444.73 1016.60 582.21 988.33 690.92 1127.61 680.23
00001006 00000092 869.67 204.78 459.56 638.87 940.23 460.63 1133.45 446.01 1011.04 583.71 984.30 692.89 1124.21 681.55
00001007 00000093 869.34 206.67 460.00 634.91 937.70 461.90 1131.51 447.20 1007.48 590.52 984.45 695.68 1124.58 684.85
00001008 00000094 869.41 204.96 460.48 636.14 935.00 463.29 1130.07 448.29 1005.18 594.06 981.69 697.24 1124.02 686.14
00001009 00000095 867.46 208.11 462.51 637.13 933.02 464.57 1126.89 450.06 1001.10 590.25 976.38 696.20 1121.20 684.92
00001010 00000096 866.28 207.59 463.54 639.72 932.84 465.78 1124.74 449.24 1000.34 588.98 978.47 698.77 1118.97 685.81
00001011 00000097 865.23 209.49 462.01 637.46 930.89 465.58 1123.84 449.42 999.55 590.07 976.73 700.34 1116.46 687.75
00001012 00000098 864.28 206.15 461.39 637.02 929.86 464.28 1125.89 449.84 999.34 595.95 975.85 701.88 1117.08 691.24
00001013 00000099 863.46 204.78 461.90 637.55 928.59 463.15 1126.14 448.65 999.46 594.91 974.87 701.43 1116.89 690.77
00001014 00000100 865.74 205.54 460.38 633.47 930.23 461.52 1127.25 446.73 1001.53 594.23 977.61 700.95 1116.34 690.17
00001015 00000101 867.85 204.31 460.87 635.24 934.98 462.90 1130.29 450.33 1005.82 596.53 980.09 695.38 1124.56 686.32
00001016 00000102 872.36 208.51 462.08 636.82 940.70 461.44 1133.63 448.91 1008.56 590.33 984.74 691.92 1130.48 682.15
00001017 00000103 877.53 210.71 460.12 640.77 946.66 460.31 1138.43 448.32 1014.17 590.34 987.76 694.41 1132.35 685.36
00001018 00000104 885.60 215.44 455.96 640.18 953.59 460.17 1144.22 448.96 1019.42 593.15 990.63 698.42 1135.79 690.26
00001019 00000105 890.11 219.43 454.46 635.95 955.99 462.49 1151.78 452.26 1027.45 602.29 995.95 699.22 1147.97 691.70
00001020 00000106 894.79 225.65 453.63 631.24 962.46 465.51 1160.70 458.55 1035.34 608.18 999.12 695.40 1157.64 690.53
00001021 00000107 898.48 223.95 453.19 637.43 967.33 467.77 1168.21 460.38 1043.08 608.82 1003.96 699.42 1161.95 694.38
00001022 00000108 901.96 223.40 451.91 640.54 971.40 466.84 1170.88 460.03 1047.31 605.94 1007.92 701.82 1160.62 697.38
00001023 00000109 903.65 231.22 447.44 628.21 974.99 466.52 1173.22 460.40 1048.19 603.08 1004.22 704.64 1164.87 699.02
00001024 00000110 900.70 229.27 447.54 628.25 974.20 470.88 1173.45 464.09 1050.08 603.94 1004.19 703.21 1167.48 696.86
00001025 00000111 900.58 227.10 447.72 627.30 973.34 468.45 1173.98 461.66 1050.08 601.41 1002.57 702.04 1164.71 695.79
00001026 00000112 901.04 228.20 447.27 622.13 972.97 465.97 1173.56 458.73 1049.41 600.10 1001.20 699.87 1164.63 693.14
00001027 00000113 900.47 229.73 447.68 620.79 971.53 465.30 1173.27 458.10 1048.21 601.19 1000.71 699.87 1164.80 693.22
00001028 00000114 899.78 230.66 449.06 620.13 972.04 466.56 1174.68 459.33 1050.22 601.89 1000.46 698.76 1167.38 691.88
00001029 00000115 898.04 229.58 451.00 622.16 971.69 469.23 1175.23 461.67 1050.91 603.54 1001.04 699.35 1169.30 692.13
00001030 00000116 898.14 230.23 449.85 626.49 971.49 477.62 1173.90 469.62 1052.32 606.27 1002.47 703.07 1171.31 695.58
00001031 00000117 899.69 234.49 446.85 624.40 975.41 483.30 1172.39 478.54 1053.34 607.71 1002.81 705.44 1165.71 701.11
00001032 00000118 901.38 236.70 443.17 624.68 976.17 487.71 1172.74 484.58 1053.70 609.48 1002.42 709.28 1161.72 706.80
00001033 00000119 902.09 238.44 440.23 625.50 977.45 492.02 1173.56 489.93 1054.37 611.65 1001.61 711.53 1161.85 709.93
00001034 00000120 900.23 241.93 440.58 627.45 979.27 497.66 1175.34 496.24 1057.88 615.86 1002.29 715.85 1161.82 714.97
00001035 00000121 901.00 237.83 439.93 635.47 980.52 500.96 1176.54 501.40 1059.78 621.73 1002.77 721.09 1162.23 721.82
00001036 00000122 898.57 250.73 442.29 626.79 981.54 506.39 1179.29 505.99 1062.80 629.96 1005.20 727.12 1166.98 727.45
00001037 00000123 894.33 257.54 446.61 627.74 981.24 512.70 1179.80 510.76 1065.73 637.73 1006.27 731.56 1169.92 730.66
00001038 00000124 892.36 255.72 452.96 638.60 983.55 517.87 1182.00 514.46 1065.43 645.85 1009.80 734.52 1167.29 732.66
00001039 00000125 893.07 268.73 449.19 632.64 980.17 516.02 1188.47 510.36 1077.52 641.54 1009.41 741.64 1176.65 735.99
00001040 00000126 886.86 261.23 454.95 628.61 980.40 517.27 1186.35 508.47 1075.43 642.35 1007.62 734.10 1182.17 726.98
00001041 00000127 884.52 261.08 453.54 628.02 978.41 516.38 1184.92 507.33 1074.96 642.75 1005.29 731.17 1183.72 723.80
00001042 00000128 883.22 260.69 451.51 631.62 977.18 518.14 1182.98 507.51 1074.76 644.92 1006.05 736.37 1181.48 727.98
00001043 00000129 879.64 272.22 451.68 623.89 974.67 519.35 1178.23 509.68 1070.68 648.40 1006.43 740.41 1174.12 733.39
00001044 00000130 877.17 269.17 453.25 630.17 969.56 524.43 1172.34 511.42 1062.91 649.71 1004.50 744.20 1171.35 734.45
00001045 00000131 876.10 262.10 451.85 640.88 965.08 527.63 1165.88 515.22 1055.78 652.40 999.91 745.76 1168.18 736.51
00001046 00000132 875.47 265.82 451.29 636.60 962.25 527.97 1163.74 515.90 1052.95 655.49 998.67 747.30 1166.46 738.30
00001047 00000133 875.85 263.72 451.30 638.21 962.76 526.50 1164.49 514.38 1054.05 654.95 1000.44 747.24 1167.71 738.26
00001048 00000134 878.06 269.69 455.23 629.11 968.14 526.59 1171.37 514.47 1060.59 653.64 1004.67 746.51 1172.77 737.48
00001049 00000135 878.83 272.22 460.91 630.18 973.14 530.04 1178.38 515.99 1068.48 655.95 1011.06 749.10 1180.10 738.21
00001050 00000136 887.00 278.56 455.94 630.28 979.93 535.22 1184.17 523.91 1079.57 659.35 1014.74 755.50 1182.58 744.91
00001051 00000137 885.78 273.75 460.87 635.32 981.60 536.69 1188.78 529.88 1072.09 670.94 1015.82 756.69 1177.69 752.52
00001052 00000138 888.51 281.43 453.67 631.49 985.82 539.44 1195.59 537.28 1084.93 676.10 1013.09 765.38 1174.51 763.44
00001053 00000139 887.30 291.76 454.97 618.98 983.86 542.68 1195.74 540.47 1083.19 679.65 1008.45 768.28 1172.98 766.41
00001054 00000140 885.15 300.54 453.66 610.19 980.43 543.81 1192.91 543.34 1079.13 685.75 1006.52 771.05 1167.75 771.01
00001055 00000141 883.19 297.84 451.89 617.38 976.94 543.46 1188.40 544.12 1073.81 684.51 1003.02 770.76 1162.55 771.75
00001056 00000142 880.33 300.34 447.66 610.27 970.98 544.33 1182.52 546.59 1065.88 683.84 996.00 766.17 1161.08 768.18
CROP_BBOX: 521 0 1666 1080
