Video ID: 	KCr8s57hdzY
H: 	1080
W: 	1920
FPS: 	24.0

FRAME INDEX X0 Y0 W H [Landmarks (5 Points)]

00011943 00000000 754.08 96.87 362.22 505.97 849.35 315.12 1012.38 280.06 954.76 363.75 900.83 491.50 1034.21 462.96
00011944 00000001 751.97 96.45 365.35 507.39 845.22 320.97 1007.60 277.04 951.53 363.70 903.35 494.68 1036.04 458.16
00011945 00000002 749.35 101.55 363.94 506.50 839.69 328.97 1002.78 280.08 946.16 368.77 899.04 499.29 1034.71 458.59
00011946 DELETE   740.31 105.72 368.19 505.63 837.26 337.84 997.53 286.73 949.42 373.66 900.10 502.52 1035.10 460.30
00011947 DELETE   748.11 107.28 370.23 507.35 843.83 346.18 1007.23 294.11 954.35 379.09 906.38 509.57 1046.18 466.48
00011948 DELETE   756.03 112.70 371.37 503.89 853.03 357.63 1018.13 300.61 965.28 386.63 919.30 516.12 1058.84 470.02
00011949 00000006 755.83 116.61 374.42 507.47 858.58 359.42 1024.61 305.71 977.34 391.10 923.66 519.62 1068.15 475.79
00011950 00000007 763.90 117.60 367.16 508.13 866.32 358.36 1032.98 306.00 985.17 395.53 931.35 522.53 1073.51 479.95
00011951 00000008 771.50 120.20 360.07 508.02 874.99 354.27 1038.36 308.79 991.77 398.01 945.75 521.16 1078.18 485.34
00011952 00000009 774.07 120.54 362.63 509.93 878.88 355.49 1042.59 311.01 997.98 404.88 951.78 525.00 1084.01 489.22
00011953 DELETE   774.45 120.67 364.62 514.66 885.54 363.42 1045.94 316.38 1005.40 407.22 957.14 528.47 1087.85 490.42
00011954 DELETE   780.78 116.27 360.99 520.61 893.95 365.20 1049.26 316.61 1014.26 407.99 965.34 528.88 1094.18 488.92
00011955 00000012 780.08 117.70 368.59 523.50 895.88 370.20 1053.38 317.17 1018.24 413.55 971.82 535.11 1101.69 491.02
00011956 00000013 781.33 117.64 372.15 526.96 899.97 369.13 1057.27 315.72 1025.47 415.45 977.27 539.77 1104.93 495.48
00011957 00000014 788.18 117.82 371.14 526.76 904.59 371.18 1063.87 316.97 1030.35 418.71 982.84 543.74 1110.57 498.56
00011958 00000015 792.66 119.49 369.87 526.61 907.98 373.21 1067.96 317.64 1033.95 420.70 987.30 548.10 1114.48 501.72
00011959 00000016 794.36 117.27 367.83 529.95 911.40 374.20 1070.70 317.03 1039.52 421.12 990.78 549.48 1116.86 501.95
00011960 00000017 794.38 117.95 370.23 528.50 915.27 372.74 1073.42 315.88 1044.24 421.73 992.06 547.47 1117.60 500.27
00011961 00000018 796.23 120.88 369.16 525.83 918.35 374.47 1074.82 316.10 1047.99 421.79 993.88 547.68 1119.22 499.37
00011962 00000019 795.65 120.56 371.90 526.56 920.16 374.49 1076.83 316.18 1051.00 421.35 996.36 547.47 1121.62 498.99
00011963 00000020 797.79 117.27 372.25 526.54 922.76 372.57 1080.45 313.67 1054.72 419.46 1000.26 547.01 1124.56 498.17
00011964 00000021 800.25 117.13 372.39 526.00 924.12 370.91 1083.00 312.63 1055.57 418.14 1000.14 546.63 1124.64 498.42
00011965 00000022 802.78 115.34 370.90 525.65 925.06 369.03 1083.58 308.64 1056.78 417.50 1001.68 545.52 1125.88 495.82
00011966 00000023 806.00 113.75 368.61 527.36 926.47 368.69 1083.36 306.44 1058.89 415.26 1002.75 544.97 1126.72 493.95
00011967 00000024 806.51 113.65 369.29 527.69 928.09 367.72 1084.85 307.02 1061.14 413.91 1002.59 543.35 1127.65 493.59
00011968 00000025 811.70 111.14 367.23 521.88 932.50 364.66 1091.20 306.41 1066.34 412.80 1008.28 540.72 1133.42 492.83
00011969 00000026 815.76 107.17 367.46 516.27 937.23 361.79 1098.72 305.22 1073.26 406.86 1010.91 533.66 1140.37 487.35
00011970 00000027 826.94 100.95 360.54 512.07 947.55 362.94 1104.09 298.73 1082.83 403.51 1021.96 528.72 1148.57 476.75
00011971 00000028 824.28 101.00 366.43 515.13 952.80 362.83 1107.24 292.83 1093.63 401.25 1029.38 527.01 1156.48 470.28
00011972 00000029 834.14 105.53 361.80 512.76 962.48 352.26 1105.84 296.28 1094.04 392.51 1047.95 518.08 1159.61 472.94
00011973 00000030 835.90 105.42 364.61 508.97 966.74 350.34 1106.60 293.80 1099.11 389.06 1055.21 515.98 1164.30 469.68
00011974 00000031 835.84 99.76 357.82 508.28 967.07 344.51 1114.97 295.75 1101.09 386.59 1051.69 508.41 1170.04 469.76
00011975 00000032 836.97 99.09 351.38 509.65 967.10 341.55 1112.78 294.46 1099.23 387.09 1050.35 508.37 1165.45 471.25
00011976 00000033 837.33 97.86 348.95 510.62 964.68 343.94 1111.13 297.37 1095.81 386.29 1047.93 509.37 1162.86 472.80
00011977 00000034 828.28 94.96 354.71 520.28 955.78 345.43 1104.49 294.69 1090.69 381.38 1040.31 509.59 1160.54 470.06
00011978 00000035 828.93 92.10 355.61 522.84 950.68 346.57 1100.30 292.45 1085.05 377.61 1033.56 508.07 1158.50 465.52
00011979 00000036 820.46 91.66 367.49 519.10 948.32 341.34 1096.27 288.93 1081.59 374.01 1033.50 501.95 1156.47 460.48
00011980 00000037 815.84 87.24 372.29 521.03 944.65 339.48 1093.68 287.47 1077.35 371.43 1031.96 498.83 1154.70 457.49
00011981 00000038 811.83 91.22 374.66 520.46 941.68 337.16 1091.93 286.42 1075.23 370.65 1028.89 498.54 1153.73 458.48
00011982 00000039 815.38 97.92 373.42 510.72 939.63 351.75 1087.79 279.99 1080.58 375.33 1027.27 512.46 1152.47 453.76
00011983 00000040 817.14 103.54 365.10 513.07 940.50 353.08 1089.64 283.89 1083.01 384.11 1024.39 519.68 1150.02 463.15
00011984 00000041 814.27 107.79 366.83 517.84 938.14 360.97 1089.68 292.89 1079.20 397.55 1020.21 531.40 1142.69 475.53
00011985 00000042 808.63 110.69 371.85 518.71 934.14 369.57 1088.29 296.91 1074.39 407.85 1018.42 539.12 1140.36 479.16
00011986 00000043 808.71 113.41 371.97 516.82 933.53 375.23 1087.49 300.66 1071.25 412.55 1017.63 542.40 1139.43 481.03
00011987 00000044 807.79 114.46 371.30 518.58 932.04 374.80 1087.74 300.33 1071.53 414.93 1016.16 544.59 1139.05 482.92
00011988 00000045 807.10 114.94 371.61 517.83 932.16 374.86 1088.03 301.88 1071.31 415.62 1016.00 544.81 1138.49 484.42
00011989 00000046 806.48 116.34 373.25 519.74 931.49 374.70 1087.83 303.13 1070.22 417.00 1015.21 546.69 1138.00 487.46
00011990 00000047 807.12 113.15 370.92 526.19 931.15 374.60 1089.16 306.13 1069.28 420.19 1014.69 551.24 1136.15 494.58
00011991 00000048 804.70 114.81 373.87 526.98 927.81 373.30 1086.91 305.77 1064.67 420.45 1010.87 551.67 1133.23 495.81
00011992 00000049 802.66 116.06 375.99 525.16 927.21 371.78 1088.24 306.62 1063.61 419.84 1010.18 551.29 1132.67 497.26
00011993 00000050 800.89 113.02 379.77 528.06 925.85 370.01 1087.87 306.42 1061.30 418.87 1008.85 550.16 1132.26 497.43
00011994 00000051 801.29 112.44 377.77 526.45 923.44 368.62 1084.59 304.97 1055.88 419.18 1006.32 548.33 1128.62 495.64
00011995 00000052 801.84 113.26 375.95 523.66 920.00 368.65 1080.34 304.04 1050.30 420.80 1003.15 546.43 1125.54 492.82
00011996 00000053 803.63 113.93 376.27 521.19 915.70 371.08 1078.28 302.73 1046.52 420.71 998.90 543.68 1128.07 486.71
00011997 00000054 803.08 111.78 375.37 525.14 911.82 371.11 1076.22 302.98 1041.48 421.47 994.64 542.93 1126.19 485.97
00011998 00000055 802.18 113.53 370.49 525.20 909.96 370.78 1073.34 305.39 1039.28 422.34 991.20 543.78 1121.37 489.09
00011999 00000056 801.94 112.82 364.06 529.49 908.13 367.69 1069.07 306.86 1033.71 426.47 990.78 546.33 1115.03 495.42
00012000 00000057 797.34 115.69 364.49 530.76 905.15 367.07 1064.63 308.96 1029.09 428.47 987.85 549.12 1110.18 500.45
00012001 00000058 795.00 117.71 366.06 529.83 902.08 370.23 1061.69 311.05 1025.42 429.55 986.00 551.01 1109.52 501.19
00012002 00000059 791.91 123.46 366.88 521.83 900.04 373.25 1059.42 312.11 1024.00 429.38 986.41 552.33 1109.73 501.08
00012003 00000060 790.26 122.75 368.19 522.56 897.57 372.37 1058.72 312.21 1022.14 429.74 984.33 552.07 1109.62 501.83
00012004 00000061 788.35 122.21 370.38 523.84 896.39 371.69 1058.73 311.34 1021.71 429.24 983.99 552.31 1110.56 501.93
00012005 00000062 787.59 125.19 369.97 521.87 895.55 372.34 1057.44 312.12 1021.25 428.81 984.33 552.69 1110.67 502.37
00012006 00000063 785.04 124.59 370.99 523.93 893.60 372.36 1054.76 311.75 1019.05 428.91 982.83 552.79 1108.90 502.26
00012007 00000064 787.05 125.96 369.95 523.05 893.47 375.77 1054.15 313.83 1017.97 429.53 982.69 553.79 1110.10 501.98
00012008 00000065 787.94 128.46 368.81 519.12 892.24 377.01 1053.20 316.05 1015.20 431.11 981.07 553.46 1108.70 502.41
00012009 00000066 783.50 126.74 371.44 522.11 889.49 374.54 1050.61 314.47 1012.57 430.44 978.23 552.04 1105.83 502.25
00012010 00000067 783.59 123.37 373.23 523.16 886.18 371.80 1049.80 310.38 1010.06 426.50 977.30 550.44 1107.51 500.05
00012011 00000068 783.72 122.17 369.62 519.38 883.79 365.78 1047.41 304.20 1007.30 418.86 973.48 544.85 1103.96 494.84
00012012 00000069 783.81 116.52 368.72 518.93 879.91 356.58 1042.10 297.03 1002.13 405.71 967.13 535.44 1097.09 487.27
00012013 00000070 773.38 114.02 372.73 517.55 878.66 348.25 1038.98 291.92 1003.66 389.92 964.82 525.24 1092.91 480.61
00012014 00000071 770.75 111.76 371.17 513.94 877.00 343.41 1034.29 283.98 1001.51 375.80 960.92 515.90 1089.10 469.56
00012015 00000072 758.59 100.00 375.53 516.82 865.40 332.01 1033.46 281.20 990.99 362.82 950.28 502.42 1088.98 461.87
00012016 00000073 749.13 97.72 385.25 516.17 859.86 326.08 1032.27 280.23 987.55 357.98 941.09 495.05 1085.03 458.08
00012017 00000074 743.67 95.85 390.37 515.24 853.92 324.76 1029.52 278.74 983.59 354.47 935.52 492.51 1085.07 455.08
00012018 00000075 740.89 93.67 386.60 515.25 849.34 323.26 1025.93 274.58 981.55 353.42 935.13 492.75 1082.97 453.39
00012019 00000076 744.13 95.60 380.95 507.24 847.81 329.12 1011.88 267.43 978.36 352.46 924.83 494.52 1067.73 442.72
00012020 00000077 740.12 94.26 380.22 508.21 843.79 329.97 1007.63 266.58 972.01 353.82 921.39 495.30 1063.69 441.93
00012021 00000078 734.47 94.88 380.81 512.48 838.99 332.12 1001.26 268.32 965.19 353.31 914.56 496.00 1056.47 442.67
00012022 00000079 719.74 100.25 387.57 514.96 829.56 340.69 992.41 271.42 957.78 364.56 907.93 504.32 1050.13 446.47
00012023 DELETE   714.17 105.06 391.07 517.47 822.86 352.59 985.35 279.46 949.88 378.79 908.74 514.31 1050.64 452.94
00012024 DELETE   708.58 121.39 391.31 518.96 817.93 371.57 976.94 293.77 944.08 409.33 913.27 536.28 1046.79 470.88
00012025 00000082 708.41 140.87 375.54 517.55 821.12 394.05 977.55 321.68 946.53 444.41 915.64 563.90 1040.05 503.51
00012026 DELETE   706.87 148.55 372.24 523.06 814.67 405.72 976.49 336.47 942.58 467.48 912.62 582.88 1034.84 524.91
00012027 00000084 709.06 155.72 367.38 519.08 809.05 407.18 973.18 345.53 932.63 475.36 903.77 585.67 1026.72 534.01
00012028 00000085 704.19 151.94 369.07 523.05 803.47 404.08 972.38 344.39 928.11 475.79 897.80 584.36 1023.84 534.32
00012029 DELETE   700.99 148.81 372.94 528.17 800.01 398.91 970.66 339.75 924.91 470.00 889.37 580.19 1018.44 530.64
00012030 00000087 699.96 143.79 378.30 531.66 797.62 393.01 967.70 332.53 921.76 457.92 885.74 572.66 1019.92 521.50
00012031 00000088 702.80 138.93 376.91 533.01 797.01 386.47 966.90 329.94 917.67 452.29 880.49 566.18 1017.36 518.29
00012032 00000089 708.66 141.44 373.01 522.31 798.04 382.69 967.36 327.04 914.65 451.01 882.44 560.93 1018.90 513.40
00012033 00000090 709.22 141.40 371.56 523.69 798.69 381.88 967.72 327.17 915.31 449.40 883.51 560.71 1019.23 513.95
00012034 00000091 709.68 143.00 373.71 526.72 799.62 387.52 969.59 333.55 916.08 451.78 883.49 566.51 1018.67 520.72
00012035 00000092 703.23 143.52 381.93 531.55 801.21 401.98 970.14 346.05 917.79 455.60 883.63 572.31 1019.37 525.00
00012036 00000093 710.45 150.50 372.55 530.04 802.98 406.98 969.30 349.64 917.66 467.27 885.67 579.06 1018.72 530.29
00012037 00000094 715.41 158.66 369.13 526.30 805.92 406.99 972.89 350.15 922.78 472.44 889.76 583.61 1021.92 535.35
00012038 00000095 720.16 161.65 368.51 528.35 809.37 409.06 975.33 351.40 925.97 479.67 893.11 584.65 1026.19 535.41
00012039 00000096 726.51 162.61 373.13 532.90 816.18 405.84 976.02 344.11 931.30 477.45 892.22 588.45 1022.68 537.22
00012040 00000097 728.45 163.50 374.08 534.77 818.20 405.91 979.57 343.60 933.81 476.68 893.55 590.98 1024.83 538.44
00012041 00000098 731.17 162.29 373.49 537.07 820.04 406.73 984.02 343.90 938.00 480.10 895.92 593.51 1029.67 540.45
00012042 00000099 733.74 163.62 374.93 534.87 821.88 408.76 990.03 345.16 941.94 481.64 898.74 595.51 1035.53 541.46
00012043 00000100 736.70 164.02 373.77 533.23 822.92 410.41 992.33 345.63 942.74 484.40 901.67 597.59 1039.70 542.23
00012044 00000101 739.31 164.51 374.95 531.71 825.53 412.24 995.25 346.02 945.19 486.46 905.59 599.80 1041.98 543.52
00012045 00000102 740.97 164.31 377.78 531.74 827.25 411.87 997.20 346.07 945.71 487.80 910.22 600.36 1044.53 544.31
00012046 00000103 740.73 162.21 379.77 533.29 827.05 410.36 998.55 344.28 946.44 485.92 909.41 599.85 1045.59 543.49
00012047 00000104 744.07 159.15 379.59 532.39 827.61 409.50 1000.04 343.25 946.45 485.58 910.80 600.02 1046.84 543.54
00012048 00000105 746.39 158.71 380.44 531.67 829.02 410.18 1000.91 344.54 946.67 486.11 913.75 600.56 1048.28 544.55
00012049 00000106 746.46 160.85 382.99 530.97 830.57 412.18 1002.02 346.06 947.64 487.28 915.57 601.48 1049.50 545.29
00012050 00000107 749.75 160.77 378.36 532.77 833.18 411.43 1003.39 346.19 948.49 487.74 916.50 601.27 1050.56 546.05
00012051 00000108 752.33 158.98 372.18 531.43 834.71 410.81 1004.42 347.39 949.58 488.53 918.57 602.51 1049.39 549.09
00012052 00000109 755.59 158.83 369.15 531.46 839.37 409.08 1007.85 349.47 952.46 487.91 920.40 601.40 1048.64 551.45
00012053 00000110 757.37 156.78 371.38 536.55 842.79 408.18 1012.89 351.55 956.24 484.64 921.14 601.01 1049.55 553.51
00012054 00000111 758.96 155.95 369.76 539.43 844.75 408.33 1015.02 351.93 958.89 483.75 922.95 600.44 1052.30 553.20
00012055 00000112 760.12 157.85 369.76 536.06 847.94 414.21 1016.92 358.18 961.74 483.15 923.51 599.83 1053.88 553.57
00012056 00000113 756.29 156.89 374.72 538.05 847.65 419.69 1015.61 362.47 962.30 480.25 923.00 598.75 1054.90 551.51
00012057 00000114 757.40 154.46 375.67 538.97 849.04 415.65 1018.18 359.11 964.79 474.85 922.50 595.55 1055.71 548.88
00012058 00000115 761.52 147.01 370.88 554.02 854.82 408.88 1031.09 361.67 971.45 470.27 930.79 587.26 1071.07 548.31
00012059 00000116 766.34 147.54 369.42 551.25 860.88 401.28 1038.55 356.96 977.40 470.95 936.73 585.04 1077.20 547.82
00012060 00000117 768.25 153.33 373.12 543.51 864.76 400.79 1040.87 356.56 981.14 472.61 939.52 585.17 1078.44 548.10
00012061 00000118 778.07 158.02 367.44 534.28 870.74 404.23 1043.45 358.56 986.51 476.48 946.98 585.12 1083.74 546.61
CROP_BBOX: 500 0 1449 900
