Video ID: 	M9SAzpwNuxY
H: 	1080
W: 	1920
FPS: 	25.0

FRAME INDEX X0 Y0 W H [Landmarks (5 Points)]

00008710 00000000 710.74 128.88 372.63 533.94 861.45 331.00 1032.68 364.72 968.75 420.13 855.37 518.18 988.56 547.01
00008711 00000001 706.28 128.93 371.08 531.38 857.40 330.67 1029.38 364.89 965.11 419.42 852.95 516.58 986.69 545.34
00008712 00000002 703.70 125.63 370.72 531.92 853.29 330.78 1026.95 364.71 960.96 418.86 851.81 516.44 985.73 544.70
00008713 00000003 702.65 126.78 369.17 527.78 852.08 332.58 1026.62 365.96 960.29 419.06 850.61 515.64 985.67 543.47
00008714 00000004 703.03 125.67 373.60 528.72 851.41 335.16 1029.69 367.67 959.82 417.32 849.85 514.93 988.70 542.20
00008715 00000005 703.83 129.16 371.96 525.35 854.48 332.53 1030.73 365.28 964.90 418.57 852.20 515.29 989.59 542.73
00008716 00000006 707.32 129.33 369.60 524.60 857.06 333.09 1031.76 364.61 968.71 419.59 856.47 516.69 992.12 543.30
00008717 00000007 709.07 131.91 370.44 522.33 858.51 333.84 1033.52 362.86 972.32 420.95 860.68 518.36 996.20 543.11
00008718 00000008 708.93 130.63 370.15 525.43 859.00 335.17 1034.83 361.70 976.17 421.40 865.81 520.54 1001.43 543.28
00008719 00000009 708.65 131.98 370.56 526.49 857.94 335.35 1033.89 358.91 977.59 421.43 867.56 521.76 1004.14 542.17
00008720 00000010 709.76 132.71 369.31 526.57 856.41 338.25 1032.75 359.13 977.90 421.13 869.03 523.67 1006.49 541.98
00008721 00000011 709.34 132.64 369.01 528.78 856.83 340.20 1032.96 359.33 980.69 423.52 871.04 526.42 1008.99 543.13
00008722 00000012 708.61 131.76 369.03 531.58 855.12 341.74 1031.06 357.61 979.32 426.29 871.41 529.17 1009.64 543.09
00008723 00000013 705.84 134.67 369.62 529.88 853.17 343.36 1029.13 357.61 978.19 427.58 870.94 531.68 1008.21 544.06
00008724 00000014 703.31 135.89 369.41 529.15 850.63 344.57 1026.22 357.40 976.32 430.57 870.20 534.14 1005.64 545.23
00008725 00000015 700.09 135.17 370.74 527.75 848.68 345.99 1026.12 357.30 975.15 432.84 870.66 533.76 1006.31 543.41
00008726 DELETE   696.84 142.48 368.62 518.57 848.79 355.01 1028.05 365.16 976.41 433.48 869.15 533.50 1008.86 542.10
00008727 DELETE   696.40 142.36 367.33 519.00 846.57 356.44 1026.06 366.77 973.02 435.31 866.86 534.35 1006.96 543.07
00008728 00000018 691.75 148.06 367.58 521.54 842.68 352.99 1020.03 364.99 967.31 437.50 857.52 536.03 999.18 546.32
00008729 00000019 684.37 156.10 365.20 520.73 845.12 351.28 1005.55 366.47 958.08 441.87 850.33 541.99 984.24 555.84
00008730 00000020 694.34 162.60 358.12 522.93 835.08 354.08 1000.84 369.91 960.10 441.95 849.96 551.50 981.80 566.03
00008731 00000021 690.89 165.41 359.32 522.15 831.55 358.84 995.54 370.82 954.04 445.30 854.05 557.41 979.13 568.73
00008732 00000022 686.01 167.01 361.64 522.73 827.55 365.19 992.05 373.76 951.33 449.12 851.74 560.01 978.43 568.20
00008733 00000023 682.66 166.64 359.79 527.27 823.27 371.32 988.93 375.33 949.55 453.45 848.68 564.61 978.18 568.84
00008734 00000024 676.67 168.40 357.98 532.44 818.34 378.86 981.06 377.27 947.34 457.68 847.57 569.98 976.20 569.44
00008735 00000025 668.66 167.76 360.47 537.03 809.47 381.41 975.40 377.25 941.57 460.52 843.30 573.71 974.09 570.35
00008736 00000026 660.21 168.33 363.73 538.15 802.32 384.45 968.73 375.92 935.06 463.84 840.53 577.20 969.33 569.70
00008737 00000027 653.89 169.80 365.13 535.53 798.11 387.00 963.76 377.12 930.18 465.62 837.30 577.64 964.45 568.97
00008738 00000028 651.03 172.43 360.19 529.95 796.04 398.85 956.11 384.28 926.04 467.07 834.50 576.87 959.84 564.94
00008739 DELETE   647.60 175.46 360.83 523.45 792.52 403.40 952.64 385.73 923.32 467.54 833.52 577.09 959.57 562.69
00008740 DELETE   644.31 177.36 365.40 520.05 790.77 400.37 953.96 381.87 922.71 468.22 833.20 577.16 959.66 561.78
00008741 00000031 642.09 175.01 367.64 521.24 788.19 394.99 953.42 378.34 920.74 469.19 833.04 577.20 958.98 563.13
00008742 00000032 641.07 176.76 368.11 519.20 787.81 395.12 951.03 378.98 920.63 470.96 833.99 577.73 957.83 564.09
00008743 00000033 642.03 176.90 367.78 519.05 789.32 394.62 952.98 378.50 922.70 471.81 835.89 578.64 959.47 564.94
00008744 00000034 642.77 177.76 366.29 519.13 790.68 393.93 953.65 377.78 925.14 471.23 838.17 579.58 960.45 565.92
00008745 00000035 643.72 174.37 366.13 525.36 793.46 390.54 954.75 375.24 927.61 469.37 842.04 581.28 960.30 568.23
00008746 00000036 644.55 169.32 367.42 533.38 796.82 386.15 954.31 372.60 929.20 463.71 845.51 580.61 960.12 568.89
00008747 00000037 647.57 166.73 366.16 533.79 798.05 383.27 955.69 368.81 930.12 459.90 844.88 577.34 962.07 564.85
00008748 00000038 651.45 161.83 363.88 532.01 797.74 380.44 962.24 365.76 934.04 456.34 839.80 571.84 966.52 559.69
00008749 00000039 656.09 161.35 363.18 524.50 798.05 378.49 965.82 362.02 934.82 453.12 841.61 567.27 971.27 553.64
00008750 00000040 658.26 162.28 363.25 520.84 800.06 377.00 969.02 360.32 937.80 451.75 843.57 565.07 974.47 551.25
00008751 00000041 660.37 160.16 363.76 522.17 803.50 376.28 972.88 358.57 942.34 453.03 844.97 563.97 977.29 549.42
00008752 00000042 662.83 160.47 361.85 521.10 806.27 376.44 975.40 359.53 946.43 450.30 846.21 561.27 981.40 547.32
00008753 00000043 665.53 155.51 362.96 523.90 809.97 374.04 978.37 359.21 949.33 448.46 848.30 560.30 982.45 548.01
00008754 00000044 667.92 155.24 363.19 520.28 812.15 369.46 980.73 355.72 951.43 445.91 847.86 555.81 983.13 544.69
00008755 00000045 669.11 150.68 363.75 521.31 814.02 364.75 982.52 351.21 954.54 443.54 849.31 553.93 984.49 543.30
00008756 00000046 670.71 149.17 366.23 521.65 817.61 361.30 984.76 347.98 958.80 440.89 851.62 551.42 986.92 541.03
00008757 00000047 673.04 147.47 366.03 521.32 819.83 358.56 986.94 345.36 960.83 438.82 854.74 549.81 989.34 539.46
00008758 00000048 675.40 145.65 365.39 522.71 823.45 357.60 987.62 345.20 963.07 436.25 859.27 549.61 990.49 539.90
00008759 00000049 679.21 144.83 364.11 523.94 832.42 363.25 987.82 351.65 965.98 437.68 863.51 549.42 988.49 540.79
00008760 DELETE   681.46 146.09 360.54 523.32 839.05 368.84 991.63 354.22 972.23 441.58 868.77 551.58 992.35 540.68
00008761 00000051 674.53 147.27 361.91 519.61 843.49 363.90 990.99 346.89 973.35 437.09 878.18 548.43 999.69 535.80
00008762 00000052 682.04 148.57 363.44 522.23 840.63 368.28 996.33 354.66 975.08 443.31 870.63 551.85 996.21 541.63
00008763 00000053 672.64 153.40 373.94 522.80 839.41 369.06 1000.59 355.65 973.53 443.23 877.55 546.86 1005.10 536.20
00008764 00000054 673.67 155.41 375.90 520.37 840.71 369.19 1003.80 356.05 976.78 445.35 878.86 547.24 1007.52 536.74
00008765 00000055 675.21 155.57 377.40 519.89 842.03 368.61 1006.98 356.80 978.76 446.23 880.03 547.13 1009.53 537.53
00008766 00000056 677.23 154.15 378.00 520.17 844.06 368.77 1009.17 357.55 980.53 446.80 882.41 546.65 1010.99 537.40
00008767 00000057 679.58 155.19 376.59 519.57 845.66 368.04 1010.21 357.94 982.45 446.39 885.69 546.82 1013.81 538.28
00008768 00000058 680.97 155.23 376.65 520.17 847.12 368.47 1011.64 359.79 983.63 446.10 886.50 547.26 1014.57 539.86
00008769 00000059 682.49 157.18 375.43 518.97 849.08 370.98 1012.73 362.25 984.45 446.41 888.58 547.39 1016.11 540.02
00008770 00000060 688.77 159.23 368.76 519.20 849.75 365.64 1003.51 357.51 982.56 447.02 891.66 549.40 1011.27 542.69
00008771 00000061 690.16 158.76 367.71 520.32 851.73 367.13 1003.60 358.49 984.33 447.51 894.66 550.44 1012.50 543.36
00008772 00000062 689.94 159.38 367.91 520.37 853.48 367.18 1004.84 359.67 986.64 447.74 895.59 550.23 1013.30 544.08
00008773 00000063 691.88 160.57 367.10 519.23 854.15 367.03 1007.11 358.95 988.09 447.96 895.89 550.77 1014.30 544.10
00008774 00000064 694.30 161.58 367.01 518.14 855.55 367.67 1009.26 359.42 989.95 448.34 896.10 551.26 1015.39 544.56
00008775 00000065 695.44 160.79 365.01 520.17 856.84 367.95 1010.74 361.12 992.77 448.54 895.88 551.22 1016.01 545.88
00008776 00000066 697.97 161.80 363.95 520.29 858.87 368.90 1012.16 362.34 994.79 448.95 899.06 552.78 1017.57 547.61
00008777 00000067 700.21 161.96 362.16 521.16 861.00 369.50 1013.39 363.44 997.08 449.40 901.35 553.79 1018.54 549.13
00008778 00000068 701.29 162.44 361.56 521.47 862.12 369.29 1013.59 363.02 997.82 449.61 902.58 554.70 1018.50 549.95
00008779 00000069 701.29 161.57 360.72 523.96 861.79 369.63 1013.04 363.90 997.42 450.39 901.96 555.42 1018.07 551.15
00008780 00000070 701.49 160.91 360.47 525.98 862.35 369.63 1014.01 364.37 998.17 451.31 901.80 556.44 1018.05 552.66
00008781 00000071 701.84 163.06 360.64 525.78 862.31 370.84 1015.88 366.22 998.58 453.63 900.85 558.30 1018.66 555.07
00008782 00000072 702.86 162.83 360.31 528.71 862.96 371.59 1016.30 366.15 998.89 454.56 901.20 559.97 1018.61 556.08
00008783 00000073 703.79 163.98 359.80 527.46 863.80 371.55 1016.14 366.34 998.86 454.64 902.14 559.98 1018.02 556.20
00008784 00000074 704.41 163.27 359.30 527.43 864.80 371.55 1015.37 366.00 998.67 453.54 903.98 559.27 1017.43 555.04
00008785 00000075 704.26 162.17 360.82 528.54 864.92 372.27 1015.09 366.02 998.95 452.81 903.54 558.88 1017.72 554.21
00008786 00000076 704.66 162.15 360.00 528.11 864.95 371.95 1014.97 366.14 998.81 452.45 903.99 558.70 1017.55 554.30
00008787 00000077 704.89 162.48 360.48 527.08 865.24 371.12 1016.23 365.55 999.71 452.44 903.79 558.49 1018.21 554.33
00008788 00000078 704.92 163.38 361.54 524.83 865.51 371.44 1018.13 366.20 1000.67 452.82 903.08 558.00 1019.47 554.12
00008789 00000079 705.57 164.77 361.78 523.28 865.38 372.21 1019.12 367.58 1000.76 453.39 902.44 558.20 1020.70 555.00
00008790 00000080 707.11 165.71 361.60 519.72 867.12 372.23 1021.82 367.49 1002.17 454.48 903.00 557.79 1021.87 554.55
00008791 00000081 707.82 167.00 362.54 517.50 868.01 372.29 1023.35 367.82 1003.50 454.36 903.11 556.63 1023.62 553.68
00008792 00000082 707.86 166.35 362.79 517.48 867.90 372.13 1023.98 367.11 1003.84 454.33 902.71 556.37 1023.89 553.00
00008793 00000083 708.88 167.63 362.63 516.41 869.03 374.81 1025.01 370.49 1004.49 455.07 901.97 556.59 1024.88 554.07
00008794 00000084 368.76 66.59 256.48 343.00
00008795 00000085 704.08 165.94 361.36 521.64 872.17 385.06 1020.36 378.60 1006.63 458.52 902.96 560.40 1021.32 556.86
00008796 00000086 704.27 164.77 359.87 526.25 869.22 383.78 1019.28 376.38 1002.79 460.00 904.54 564.58 1020.05 559.53
00008797 00000087 705.13 167.00 361.76 523.02 868.20 383.06 1022.10 376.12 1001.02 461.16 903.31 565.19 1020.79 560.13
00008798 00000088 704.05 168.38 362.57 523.66 867.76 381.94 1022.34 374.17 1000.22 463.64 902.50 566.64 1019.45 560.73
00008799 00000089 700.71 169.89 366.05 530.32 868.52 382.59 1021.14 376.03 999.85 466.41 901.83 569.75 1016.11 564.68
00008800 00000090 698.20 172.54 368.57 535.96 869.76 383.49 1018.72 377.91 997.81 469.62 903.09 573.64 1013.10 569.21
00008801 00000091 698.77 173.11 364.76 536.08 869.01 385.51 1018.22 380.17 997.22 472.79 901.58 576.40 1011.55 572.37
00008802 00000092 699.29 172.50 364.39 535.03 867.97 386.19 1018.53 380.06 997.14 472.31 901.77 576.23 1012.54 571.46
00008803 00000093 698.52 171.17 364.42 532.76 865.72 384.60 1018.88 378.99 996.76 471.78 901.30 575.41 1012.73 571.06
00008804 00000094 698.07 171.17 364.09 532.90 865.14 384.73 1018.16 379.35 996.63 470.95 902.25 575.44 1013.50 571.19
00008805 00000095 697.45 170.44 365.23 535.77 865.71 384.64 1017.53 379.62 996.54 470.20 903.87 575.65 1013.54 571.50
00008806 00000096 698.73 170.95 364.03 536.09 866.48 384.24 1017.03 379.40 995.83 470.84 905.95 576.93 1012.99 572.78
00008807 00000097 698.53 171.45 364.54 535.78 866.02 384.41 1017.15 379.84 995.17 471.17 905.50 576.96 1013.20 572.91
00008808 00000098 699.03 172.04 363.46 535.66 866.57 384.47 1017.06 379.98 995.41 471.07 906.02 576.86 1013.66 572.91
00008809 00000099 699.37 173.17 362.61 535.28 867.31 384.60 1016.41 379.57 994.99 472.36 906.55 578.35 1012.41 573.99
00008810 00000100 698.26 173.26 363.87 537.05 867.76 384.67 1015.92 379.74 995.28 472.26 905.27 577.72 1011.60 573.61
00008811 00000101 698.55 173.36 363.93 536.91 867.96 384.52 1016.23 379.96 995.73 471.78 904.75 577.17 1011.93 573.46
00008812 00000102 700.04 174.21 364.21 536.64 868.58 384.49 1017.40 379.68 996.93 472.13 904.87 577.62 1012.83 573.76
00008813 00000103 700.70 173.56 364.29 536.43 868.97 384.28 1018.25 379.11 998.20 471.49 905.49 577.13 1013.74 572.99
00008814 00000104 700.30 174.59 364.71 535.37 869.39 385.60 1017.78 380.05 998.42 471.99 906.58 577.67 1014.11 573.14
00008815 00000105 700.95 173.97 363.86 535.03 869.56 386.53 1018.24 380.34 998.90 472.91 906.99 578.17 1014.74 573.15
00008816 00000106 702.41 174.19 363.94 531.54 868.87 386.34 1019.98 380.53 999.13 471.59 908.58 577.74 1017.22 572.77
00008817 00000107 704.10 172.36 362.17 530.81 869.13 386.73 1021.17 379.72 1000.26 472.21 909.85 578.27 1018.82 572.35
00008818 00000108 704.78 172.30 360.96 527.98 867.98 386.57 1021.85 379.24 1000.20 472.54 909.15 578.45 1019.26 572.23
00008819 00000109 705.38 172.45 360.28 526.40 867.83 386.05 1021.30 377.96 1000.52 472.19 910.02 577.86 1019.99 571.11
00008820 00000110 705.77 172.30 360.85 525.46 868.15 385.79 1021.32 377.40 1000.88 471.22 911.09 577.22 1020.65 570.13
00008821 00000111 706.35 171.85 360.79 525.08 868.59 384.90 1022.04 376.47 1001.58 470.86 912.08 576.88 1021.75 569.72
00008822 00000112 706.35 171.60 361.00 524.68 868.51 384.80 1022.13 376.07 1001.40 470.52 912.30 576.45 1021.93 568.99
00008823 00000113 706.58 171.71 361.51 523.20 868.19 384.74 1022.47 375.69 1000.93 469.62 912.90 575.18 1023.43 567.33
00008824 00000114 706.03 170.75 362.07 523.13 868.48 384.86 1022.29 375.44 1000.93 469.40 913.47 574.52 1023.57 566.33
00008825 00000115 706.16 171.11 362.00 523.13 868.81 385.65 1022.34 376.38 1001.66 468.86 912.21 574.28 1023.47 566.41
00008826 00000116 705.47 172.06 363.88 524.30 868.48 386.82 1023.35 378.37 1002.06 469.25 910.89 575.23 1023.57 568.10
00008827 00000117 703.45 173.20 364.83 523.24 867.67 387.65 1023.14 378.99 1002.62 469.53 908.33 574.84 1022.95 567.72
00008828 00000118 703.77 173.69 363.07 522.27 867.17 387.39 1021.90 379.08 1001.37 469.99 908.13 574.89 1021.89 568.05
00008829 00000119 703.18 173.90 363.43 519.82 866.82 387.19 1022.59 378.93 1001.53 469.91 906.46 573.88 1021.77 567.21
00008830 00000120 702.71 173.68 364.09 518.48 866.44 387.64 1022.52 379.25 1001.42 468.66 905.09 571.18 1022.30 564.52
00008831 00000121 701.56 174.36 365.53 517.48 866.02 388.24 1022.19 379.09 1001.66 468.60 904.90 570.45 1022.74 563.15
00008832 00000122 701.01 174.16 366.01 517.87 864.81 388.66 1021.62 380.46 1000.34 468.33 902.43 570.30 1021.45 563.85
00008833 00000123 700.04 175.17 366.98 518.36 863.86 388.41 1020.49 380.58 998.47 469.50 900.03 571.03 1019.15 565.00
00008834 00000124 699.10 174.20 368.39 520.40 862.80 387.10 1020.29 379.40 998.38 469.21 899.39 571.97 1018.87 566.12
00008835 00000125 697.24 173.96 369.52 523.50 860.56 386.09 1018.77 378.99 996.16 469.65 896.81 572.38 1017.56 567.12
CROP_BBOX: 400 0 1416 916
