Video ID: 	yoSasoYPdWo
H: 	1080
W: 	1920
FPS: 	29.97002997002997

FRAME INDEX X0 Y0 W H [Landmarks (5 Points)]

00112945 00000000 444.62 20.09 262.96 474.62
00112946 00000001 442.75 20.40 263.98 473.72
00112947 00000002 440.87 20.72 265.00 472.82
00112948 00000003 438.99 21.04 266.03 471.91
00112949 00000004 437.11 21.35 267.05 471.01
00112950 00000005 435.25 21.67 268.07 470.12
00112951 00000006 434.85 21.48 268.83 470.36
00112952 00000007 434.46 21.29 269.58 470.60
00112953 00000008 769.07 147.35 457.49 663.38 1102.93 363.26 1114.41 364.33 1232.63 497.14 1146.01 626.27 1158.44 634.68
00112954 00000009 433.67 20.92 271.09 471.08
00112955 DELETE   771.65 140.30 460.20 678.34 1104.50 364.67 1112.92 366.71 1235.82 494.01 1154.54 627.22 1164.09 636.33
00112956 00000011 777.02 117.61 458.16 709.90 1111.10 365.68 1123.91 366.99 1240.30 498.37 1156.77 634.69 1166.40 642.43
00112957 00000012 762.61 128.73 478.50 703.12 1113.05 368.70 1126.51 371.01 1245.57 501.05 1156.65 635.38 1166.00 643.88
00112958 DELETE   771.64 137.44 469.13 690.92 1120.89 376.15 1134.13 377.77 1249.53 505.57 1160.71 634.27 1167.93 643.06
00112959 DELETE   755.51 140.71 486.72 684.29 1119.58 389.22 1142.60 384.04 1261.57 510.59 1164.13 635.44 1175.23 637.99
00112960 DELETE   792.15 148.84 448.77 665.97 1134.13 407.04 1164.92 406.50 1269.07 522.62 1172.85 644.60 1185.37 650.31
00112961 00000016 792.00 135.29 458.43 683.25 1137.45 416.54 1169.60 408.25 1273.90 525.55 1173.74 653.18 1187.07 653.09
00112962 00000017 810.75 147.44 436.66 672.59 1144.46 424.17 1175.66 414.48 1273.43 533.42 1169.92 657.54 1184.34 656.76
00112963 00000018 784.87 137.96 469.07 694.50 1137.98 427.61 1173.14 413.84 1276.24 541.12 1164.93 666.98 1182.12 662.64
00112964 00000019 794.96 147.72 457.07 685.36 1139.33 423.48 1182.26 416.74 1274.90 537.99 1164.23 665.81 1185.92 665.62
00112965 00000020 809.47 157.38 441.07 681.16 1145.98 421.79 1180.55 417.29 1270.37 538.22 1164.68 666.74 1181.55 667.93
00112966 00000021 806.09 147.18 439.71 698.14 1142.73 422.40 1169.97 419.45 1261.02 535.31 1161.10 668.26 1173.19 669.95
00112967 00000022 805.72 157.33 443.46 696.27 1138.68 426.33 1172.24 424.59 1260.67 547.20 1156.28 676.73 1172.33 679.32
00112968 00000023 817.98 163.61 435.47 696.74 1139.88 434.66 1182.59 440.61 1257.45 559.53 1147.67 682.03 1170.50 690.85
00112969 00000024 826.93 170.71 421.87 683.52 1134.82 438.43 1183.82 444.87 1249.61 569.41 1141.73 687.31 1170.23 696.09
00112970 00000025 846.53 167.53 404.40 679.25 1144.29 454.02 1184.68 458.11 1251.57 584.01 1147.81 693.55 1172.42 698.04
00112971 00000026 852.13 169.92 406.02 692.79 1147.88 460.71 1185.52 466.52 1250.00 595.07 1140.73 703.66 1164.18 708.99
00112972 00000027 857.52 181.84 405.13 715.99 1152.63 464.08 1187.46 467.96 1252.59 607.31 1134.05 724.16 1154.95 728.18
00112973 00000028 843.32 185.09 420.52 746.93 1150.01 460.09 1189.12 467.06 1256.12 607.33 1131.73 738.02 1155.30 745.13
00112974 00000029 853.56 182.54 405.15 724.99 1147.52 461.32 1189.05 472.28 1250.92 608.78 1134.01 727.11 1159.72 736.55
00112975 00000030 857.53 176.57 396.05 731.28 1147.02 464.69 1186.87 479.94 1244.48 609.10 1137.00 729.46 1158.98 741.54
00112976 00000031 854.53 166.45 398.37 740.11 1151.83 467.32 1191.75 476.17 1250.60 615.44 1143.35 734.32 1166.29 741.56
00112977 00000032 855.26 165.49 392.98 727.59 1152.71 466.33 1192.05 476.39 1247.46 614.65 1141.40 729.22 1163.70 737.51
00112978 00000033 857.15 172.05 386.36 722.73 1151.15 474.42 1189.13 492.70 1240.86 622.14 1134.34 728.53 1157.55 743.09
00112979 00000034 857.51 167.16 389.38 753.92 1150.56 479.57 1185.70 496.33 1241.55 627.94 1128.86 740.10 1151.39 754.08
00112980 00000035 850.87 167.81 392.75 775.82 1149.37 479.14 1182.59 497.42 1240.32 629.62 1125.86 749.43 1149.58 764.99
00112981 00000036 849.48 166.26 397.75 783.89 1154.55 476.59 1187.62 493.90 1246.22 629.73 1130.07 753.16 1154.31 767.90
00112982 00000037 844.11 159.81 411.33 790.44 1156.05 479.10 1192.19 497.12 1251.58 629.72 1131.39 751.93 1158.40 767.91
00112983 00000038 842.78 162.23 414.25 783.89 1158.29 479.71 1189.74 495.99 1251.21 633.38 1127.39 751.18 1150.33 766.53
00112984 00000039 840.11 161.26 418.65 790.04 1159.41 484.32 1188.60 498.43 1254.24 636.63 1123.52 748.81 1150.09 761.87
00112985 00000040 853.55 171.29 407.47 767.00 1163.95 486.41 1190.90 502.95 1253.67 639.41 1133.73 750.59 1155.32 764.75
00112986 00000041 859.48 176.17 391.74 760.29 1160.95 491.82 1181.65 503.58 1247.29 637.97 1140.08 752.78 1157.25 761.88
00112987 00000042 886.90 179.71 370.59 767.46 1176.85 486.15 1175.64 510.07 1258.01 631.81 1138.52 741.12 1146.19 763.94
00112988 00000043 453.51 41.60 270.81 508.36
00112989 00000044 886.49 177.74 372.84 768.04 1175.97 482.29 1175.50 504.61 1259.84 631.42 1135.52 738.82 1142.68 760.57
00112990 00000045 885.56 181.45 375.57 766.50 1174.94 479.67 1177.87 502.06 1259.90 629.87 1137.33 740.40 1146.77 762.16
00112991 00000046 458.94 42.26 268.20 509.83
00112992 00000047 880.68 173.10 381.77 773.77 1174.18 479.93 1176.17 503.15 1259.27 626.77 1138.94 736.14 1147.74 758.59
00112993 00000048 461.58 42.60 266.54 510.06
00112994 00000049 881.83 180.06 379.53 758.06 1173.77 481.12 1178.18 503.68 1259.67 627.33 1139.44 736.28 1149.77 758.26
00112995 00000050 881.64 182.27 379.95 756.63 1174.66 481.22 1180.20 503.47 1260.03 629.62 1136.65 736.77 1148.03 758.66
00112996 00000051 881.02 181.18 379.97 752.07 1174.54 479.96 1179.73 502.40 1260.28 629.14 1137.54 735.40 1148.38 757.37
00112997 00000052 883.66 178.85 375.47 748.34 1172.83 479.61 1174.85 502.92 1259.42 626.57 1139.08 732.68 1148.05 755.17
00112998 00000053 885.21 174.70 372.62 747.74 1173.08 480.19 1174.94 503.99 1260.26 627.21 1138.69 731.06 1147.09 753.87
00112999 00000054 885.97 178.29 370.99 740.94 1169.80 483.26 1171.61 504.73 1259.42 627.30 1138.98 732.53 1147.06 753.65
00113000 00000055 884.62 169.86 370.16 749.90 1168.09 481.47 1170.32 503.34 1256.98 626.67 1139.70 732.42 1146.46 753.78
00113001 00000056 883.87 169.66 369.07 750.25 1168.88 481.85 1169.21 505.82 1257.77 627.91 1138.28 731.79 1144.60 754.80
00113002 00000057 880.29 165.14 373.08 755.62 1169.16 481.33 1167.15 504.79 1259.98 626.85 1139.41 732.43 1141.75 755.22
00113003 00000058 881.69 165.14 374.41 759.49 1169.45 478.94 1168.72 503.05 1259.82 625.56 1137.98 730.04 1141.84 753.42
00113004 00000059 878.20 160.40 377.07 772.20 1169.59 473.87 1167.17 498.77 1259.74 622.64 1137.76 729.91 1139.20 753.97
00113005 00000060 879.07 161.09 376.12 774.80 1169.36 474.42 1167.46 499.77 1259.92 623.00 1138.51 731.47 1140.71 755.59
00113006 00000061 878.97 164.47 376.20 772.61 1168.53 476.55 1168.00 501.38 1259.99 624.53 1138.11 733.24 1141.45 756.91
00113007 00000062 882.17 166.03 374.04 767.87 1171.68 480.38 1169.63 504.82 1260.29 628.17 1138.29 733.07 1142.10 756.47
00113008 00000063 882.39 165.99 374.31 768.59 1171.12 480.29 1167.87 504.42 1259.67 628.98 1136.60 732.08 1140.64 755.23
00113009 00000064 880.48 164.17 376.08 769.50 1172.72 480.32 1168.19 503.63 1261.53 629.29 1137.94 733.07 1140.61 755.60
00113010 00000065 881.47 167.53 374.52 764.60 1174.84 483.63 1170.77 507.13 1264.06 631.83 1137.83 732.43 1142.89 755.12
00113011 00000066 882.80 170.71 374.51 761.60 1173.84 481.29 1170.26 504.39 1264.39 629.81 1137.56 732.18 1143.23 754.38
00113012 00000067 881.43 169.97 374.77 760.46 1173.81 480.71 1169.12 502.31 1265.30 628.23 1140.20 731.91 1144.58 752.80
00113013 00000068 879.56 168.22 375.78 764.81 1174.05 478.14 1168.41 500.45 1266.54 626.28 1141.46 731.67 1144.23 753.14
00113014 00000069 879.07 169.97 378.26 769.05 1174.29 476.30 1168.10 498.82 1265.65 625.10 1140.69 732.21 1143.09 753.81
00113015 00000070 880.21 172.34 377.66 762.98 1173.22 476.68 1167.84 498.84 1267.04 623.37 1142.19 732.97 1145.46 754.20
00113016 00000071 878.41 172.57 381.76 764.60 1172.34 476.83 1169.08 499.46 1267.44 622.68 1141.47 732.77 1146.16 754.31
00113017 00000072 879.34 171.79 380.03 766.74 1173.26 478.96 1169.93 502.24 1268.26 623.03 1142.87 733.79 1148.02 755.83
00113018 00000073 878.43 170.74 380.98 768.32 1174.28 477.61 1170.22 500.50 1268.99 622.47 1145.33 734.12 1149.13 755.78
00113019 00000074 879.13 167.28 380.80 772.57 1175.77 475.96 1169.93 498.55 1269.80 622.09 1144.93 733.79 1146.24 755.56
00113020 00000075 877.43 167.49 382.10 772.42 1175.19 475.38 1168.83 498.12 1270.03 621.90 1145.68 733.56 1146.86 755.39
00113021 00000076 876.63 166.54 380.85 768.54 1175.96 475.81 1168.89 499.60 1270.26 621.97 1146.19 732.54 1147.63 755.13
00113022 00000077 874.57 164.42 382.03 768.37 1176.76 474.37 1169.12 498.80 1271.35 622.00 1146.72 731.61 1146.75 754.59
00113023 00000078 875.83 167.19 382.90 771.47 1175.10 476.03 1169.23 499.09 1270.41 623.20 1145.89 734.85 1146.47 756.68
00113024 00000079 874.67 168.08 382.96 769.33 1172.79 475.75 1167.92 498.52 1270.50 623.05 1143.70 734.55 1144.84 756.31
00113025 00000080 873.83 164.00 382.99 774.24 1172.57 473.27 1167.33 496.07 1270.74 621.11 1145.99 734.89 1145.81 756.42
00113026 00000081 871.92 165.70 386.38 774.57 1169.97 470.42 1167.20 492.58 1269.92 619.39 1142.46 733.23 1143.60 754.72
00113027 00000082 872.85 162.20 386.95 774.62 1170.52 469.06 1169.41 489.37 1270.30 617.75 1142.85 732.94 1144.67 752.98
00113028 00000083 871.18 164.39 388.04 775.76 1170.40 468.72 1169.90 488.42 1271.03 617.99 1139.62 733.43 1142.55 753.22
00113029 00000084 869.56 165.48 394.61 762.61 1173.57 466.64 1178.57 485.38 1273.48 618.93 1145.44 732.79 1149.04 751.75
00113030 00000085 869.89 164.79 396.41 755.53 1168.42 466.29 1175.38 486.19 1269.50 618.23 1133.92 726.13 1141.48 746.49
00113031 00000086 869.03 166.99 396.36 771.17 1171.53 465.74 1174.87 484.95 1268.64 618.33 1139.23 732.41 1144.31 751.99
00113032 00000087 872.63 171.18 400.49 770.45 1175.69 464.50 1178.02 478.05 1273.80 621.78 1140.92 737.30 1144.35 752.04
00113033 00000088 857.68 168.88 410.53 784.97 1171.47 467.58 1192.01 471.17 1266.50 622.65 1147.35 749.94 1158.62 752.77
00113034 00000089 862.39 151.90 404.73 784.43 1182.70 450.18 1185.13 472.55 1280.76 607.04 1146.35 722.73 1149.12 743.82
00113035 00000090 853.47 137.40 414.90 803.86 1175.69 453.32 1202.25 465.74 1279.53 606.92 1160.59 739.31 1174.45 749.31
00113036 00000091 466.00 23.51 259.05 522.80
00113037 00000092 852.16 149.31 418.70 760.76 1171.75 445.49 1209.46 453.71 1280.02 600.50 1162.72 728.25 1179.56 736.34
00113038 00000093 861.58 152.81 413.83 733.84 1172.55 451.78 1211.61 455.60 1281.05 607.29 1166.54 725.32 1185.12 729.53
00113039 00000094 867.25 160.12 405.36 716.34 1169.68 460.12 1208.79 462.15 1276.27 610.88 1169.04 726.98 1189.77 729.48
00113040 00000095 865.80 157.36 408.62 712.98 1176.90 456.79 1195.78 468.24 1278.78 604.00 1170.35 716.75 1183.50 729.42
00113041 00000096 863.69 157.03 414.75 716.86 1170.33 463.13 1206.23 458.23 1277.63 606.43 1177.24 725.06 1195.53 722.37
00113042 00000097 846.36 157.96 426.20 697.22 1166.78 449.59 1207.09 446.45 1279.36 594.00 1174.75 714.02 1190.23 714.58
00113043 00000098 853.74 159.80 411.96 695.96 1168.26 446.76 1209.93 453.75 1274.92 585.96 1169.50 704.55 1193.67 712.11
00113044 00000099 850.06 158.64 409.24 687.75 1160.73 444.23 1198.93 449.17 1266.59 580.95 1166.80 698.08 1187.73 703.75
00113045 00000100 857.89 169.96 401.01 678.07 1163.94 441.27 1192.48 443.57 1259.91 585.61 1166.04 699.87 1177.54 703.04
00113046 00000101 857.78 165.22 415.07 710.62 1163.45 448.44 1202.19 450.38 1272.10 594.01 1173.30 716.31 1193.63 718.95
00113047 00000102 863.80 164.94 421.23 759.90 1173.55 452.83 1191.58 460.84 1288.06 605.02 1167.42 735.80 1174.07 745.13
00113048 00000103 872.08 166.18 421.22 805.62 1181.06 458.87 1195.02 467.95 1293.86 618.48 1154.73 748.26 1162.97 759.00
00113049 00000104 874.53 160.36 414.07 808.65 1189.50 464.57 1202.73 474.03 1285.63 621.76 1145.69 750.79 1153.37 762.93
00113050 00000105 873.27 168.65 417.43 807.70 1186.16 467.44 1206.00 479.44 1282.64 626.08 1145.38 755.50 1157.34 768.98
00113051 00000106 883.43 169.63 407.06 805.76 1193.74 464.44 1214.73 477.92 1284.47 624.20 1160.05 757.78 1174.31 772.00
00113052 00000107 891.40 184.20 393.64 785.91 1191.00 470.76 1216.04 473.03 1298.64 623.41 1192.40 764.87 1205.04 767.76
00113053 00000108 892.64 186.38 388.92 743.34 1188.46 469.49 1210.70 472.48 1293.70 617.51 1198.67 750.62 1207.94 753.68
00113054 00000109 900.26 182.09 384.86 743.92 1191.30 462.12 1209.73 466.87 1298.30 610.74 1186.28 748.53 1189.54 754.16
00113055 00000110 889.54 186.92 386.18 724.79 1186.20 459.38 1200.69 461.10 1294.76 600.41 1195.88 739.86 1201.21 742.10
00113056 DELETE   869.91 163.49 410.54 722.88 1169.27 453.20 1180.08 444.66 1289.94 581.02 1191.88 722.38 1195.17 718.15
00113057 00000112 872.37 162.48 409.46 701.48 1163.69 440.90 1179.97 438.88 1283.43 568.82 1182.15 705.12 1190.83 706.10
00113058 00000113 871.51 171.38 401.75 674.30 1153.41 435.21 1176.13 431.20 1275.68 562.34 1173.79 697.94 1185.69 696.76
00113059 00000114 858.33 162.61 402.69 691.93 1153.72 426.75 1183.44 427.12 1268.47 558.07 1177.30 691.74 1191.28 692.37
00113060 00000115 854.78 153.66 396.15 688.77 1146.27 418.68 1168.41 417.00 1256.33 544.58 1167.63 682.34 1178.36 681.93
00113061 DELETE   850.74 150.26 392.71 705.70 1135.68 414.60 1158.32 415.08 1247.49 544.28 1150.42 684.91 1163.79 686.54
00113062 00000117 838.94 171.47 402.48 695.35 1132.37 422.33 1157.14 426.38 1242.93 549.90 1136.07 690.07 1150.85 695.52
00113063 00000118 833.99 162.49 417.13 715.71 1137.49 430.01 1158.35 430.04 1246.61 563.87 1135.26 701.83 1145.95 704.56
00113064 00000119 839.34 162.33 414.06 727.97 1137.84 432.92 1163.62 437.19 1247.83 575.38 1134.21 710.65 1146.65 716.94
00113065 00000120 842.58 169.96 402.55 717.06 1145.06 449.60 1167.43 456.48 1250.79 592.34 1139.92 716.41 1149.46 723.44
00113066 00000121 878.19 164.63 378.17 750.74 1162.70 456.17 1173.66 468.63 1267.00 607.85 1137.77 728.76 1140.01 742.02
00113067 00000122 879.28 164.52 381.73 754.18 1170.22 457.71 1180.00 473.82 1271.37 608.76 1144.94 729.78 1147.58 745.71
00113068 00000123 875.70 173.78 387.28 752.29 1173.16 458.84 1181.07 474.01 1275.94 608.07 1149.08 730.00 1153.07 745.22
00113069 00000124 871.05 163.87 398.56 751.48 1178.00 459.03 1184.87 473.60 1279.14 606.97 1155.98 725.10 1158.67 739.49
00113070 00000125 883.76 168.46 385.67 743.10 1178.96 461.16 1183.99 474.26 1277.13 606.10 1158.14 724.24 1160.78 737.04
00113071 00000126 884.58 173.47 384.79 735.26 1176.14 460.10 1184.46 471.62 1276.85 604.81 1157.97 723.92 1163.29 735.28
00113072 00000127 889.31 175.28 379.61 732.65 1177.39 463.20 1183.21 470.94 1278.10 606.13 1161.29 726.23 1165.01 734.91
00113073 00000128 892.46 185.51 376.89 724.41 1177.31 463.13 1186.38 469.47 1279.31 606.37 1164.83 728.38 1168.87 735.61
00113074 00000129 891.05 183.17 378.43 737.72 1182.08 467.66 1191.20 473.97 1282.63 609.54 1168.64 733.17 1170.80 740.32
00113075 00000130 473.38 42.74 255.82 487.06
00113076 00000131 904.30 185.14 369.71 731.94 1189.69 471.58 1202.11 478.52 1284.12 614.74 1172.07 731.45 1182.49 738.82
00113077 00000132 907.83 189.57 370.00 736.69 1191.64 470.69 1205.64 479.48 1287.62 616.96 1172.24 736.28 1183.04 745.07
00113078 00000133 477.39 46.54 254.69 485.97
00113079 00000134 910.89 188.91 367.39 746.78 1193.88 474.14 1205.40 481.31 1286.15 620.98 1174.82 742.03 1184.97 749.48
00113080 00000135 909.31 186.76 369.03 752.97 1195.68 472.04 1205.81 479.96 1287.69 621.39 1175.41 743.68 1183.91 751.86
00113081 00000136 910.56 183.84 365.64 754.63 1194.33 472.27 1205.28 479.03 1285.64 620.13 1175.62 742.70 1183.90 749.40
00113082 00000137 912.69 168.39 366.70 757.73 1200.34 467.92 1205.88 469.25 1277.99 613.10 1170.10 740.72 1170.95 746.34
00113083 00000138 911.56 184.40 364.82 752.03 1195.20 471.94 1204.89 478.02 1285.32 620.54 1174.70 742.24 1181.22 748.65
00113084 00000139 913.24 186.44 363.32 749.79 1194.50 472.34 1205.53 477.77 1285.06 621.32 1174.26 742.94 1182.29 748.92
00113085 00000140 910.59 171.66 369.27 754.18 1203.03 469.86 1205.77 471.74 1278.65 616.70 1170.21 741.96 1169.96 748.20
00113086 00000141 911.81 178.51 367.95 747.44 1205.04 470.70 1205.87 472.91 1281.02 618.11 1172.04 741.85 1171.16 748.28
00113087 00000142 914.33 173.92 365.23 755.24 1206.31 471.29 1204.54 473.03 1281.32 618.57 1173.12 743.60 1170.73 749.44
00113088 00000143 915.85 179.58 364.83 743.63 1206.78 470.54 1205.76 473.28 1281.52 617.80 1173.34 739.92 1172.06 746.75
00113089 00000144 909.64 182.63 370.20 755.45 1196.08 472.11 1206.65 478.08 1287.95 621.44 1177.01 742.97 1184.57 749.78
00113090 00000145 910.85 184.04 368.13 749.74 1195.09 468.87 1209.06 476.33 1288.64 620.19 1178.33 743.29 1186.56 751.31
00113091 00000146 917.21 166.66 363.38 753.85 1200.83 461.81 1209.21 465.50 1283.11 608.71 1173.19 739.17 1174.29 746.81
00113092 00000147 902.61 178.83 373.78 755.43 1188.61 464.64 1206.17 471.07 1286.60 613.02 1180.34 744.68 1188.47 751.25
00113093 00000148 899.54 173.94 379.33 768.01 1187.51 466.08 1202.96 472.56 1285.75 612.65 1180.67 745.44 1186.03 751.68
00113094 00000149 898.10 177.88 377.19 743.29 1180.85 463.73 1194.37 468.24 1280.42 606.09 1180.40 740.24 1183.81 745.51
00113095 00000150 892.50 175.05 375.96 724.99 1178.68 456.72 1191.35 462.92 1282.37 598.93 1178.82 729.51 1183.23 736.13
00113096 00000151 889.57 168.30 375.01 722.53 1173.41 452.39 1189.15 460.34 1279.03 592.58 1179.45 725.35 1185.10 733.25
00113097 00000152 886.32 161.79 381.04 738.37 1175.81 452.18 1183.86 455.61 1283.46 589.01 1185.78 729.39 1182.78 733.41
00113098 00000153 885.42 158.29 387.06 741.50 1175.07 450.62 1183.67 451.52 1284.38 588.56 1185.26 729.40 1180.48 731.58
00113099 00000154 890.99 171.44 372.54 692.77 1170.09 450.60 1187.32 453.66 1277.56 586.33 1190.01 721.98 1194.93 725.00
00113100 00000155 896.94 182.37 372.65 700.56 1174.49 456.93 1195.38 461.36 1279.85 600.96 1188.68 733.73 1196.94 738.20
00113101 00000156 895.91 178.62 383.09 751.75 1182.78 464.51 1201.39 473.29 1286.47 614.31 1179.62 745.91 1188.22 754.44
00113102 00000157 898.41 178.43 383.90 788.82 1183.86 474.47 1201.50 483.64 1284.58 626.58 1170.10 756.15 1185.88 765.78
00113103 00000158 482.15 46.91 252.94 496.23
00113104 00000159 481.97 48.81 253.55 498.78
00113105 00000160 481.78 50.70 254.16 501.32
00113106 00000161 909.14 178.79 374.71 768.33 1190.26 471.62 1206.28 478.91 1286.03 626.16 1179.62 753.58 1190.27 760.72
00113107 00000162 900.22 189.90 378.50 743.82 1186.53 464.03 1206.07 471.92 1287.68 613.79 1172.85 739.65 1184.17 747.83
00113108 00000163 893.52 182.12 377.99 723.81 1182.98 461.43 1196.47 469.51 1280.59 607.35 1177.50 731.76 1181.37 739.67
00113109 00000164 885.74 166.12 385.94 750.37 1182.01 451.88 1189.32 457.18 1282.47 598.85 1177.06 732.69 1174.30 738.28
00113110 00000165 886.76 162.44 384.80 748.79 1181.64 450.08 1186.63 455.90 1279.95 594.98 1174.35 727.43 1168.55 733.42
00113111 00000166 884.82 158.55 389.80 757.08 1182.69 449.10 1187.38 456.84 1281.49 596.42 1167.11 724.66 1162.54 732.71
00113112 00000167 886.72 164.53 387.41 746.81 1184.37 451.94 1190.83 461.66 1280.99 599.57 1164.20 722.18 1162.24 732.18
00113113 00000168 892.69 170.89 381.32 733.87 1185.38 457.29 1193.98 467.27 1280.12 604.85 1165.94 722.84 1165.95 732.88
00113114 00000169 892.07 180.78 380.27 727.06 1184.42 466.47 1197.78 475.22 1281.34 610.92 1166.05 726.09 1173.10 734.88
00113115 00000170 898.87 192.06 374.51 724.29 1188.15 472.16 1200.28 479.05 1281.97 619.15 1166.60 730.94 1175.74 738.26
00113116 00000171 902.10 181.40 372.44 746.93 1192.21 480.64 1198.28 486.95 1279.65 627.79 1167.73 739.73 1175.66 746.64
00113117 00000172 905.09 190.32 367.49 742.64 1194.20 486.10 1199.13 491.17 1276.10 632.05 1169.93 745.41 1178.10 751.22
00113118 00000173 908.66 188.66 366.09 748.27 1193.40 486.52 1200.48 490.76 1277.35 633.14 1172.47 748.67 1182.14 753.42
00113119 00000174 487.39 48.39 251.89 492.89
00113120 00000175 905.54 185.15 372.59 751.38 1193.06 484.50 1200.01 487.47 1280.78 629.71 1174.44 746.75 1183.20 750.67
