Video ID: 	vMz9pGD-9kg
H: 	2160
W: 	3840
FPS: 	30.0

FRAME INDEX X0 Y0 W H [Landmarks (5 Points)]

00000593 00000000 2245.28 343.79 394.49 590.46 2299.42 601.85 2456.70 574.62 2328.49 683.52 2331.68 791.00 2464.92 767.34
00000594 00000001 2246.72 341.52 395.46 593.52 2300.24 602.73 2456.70 573.56 2326.68 681.28 2331.42 789.39 2468.29 763.63
00000595 00000002 2249.97 333.23 390.85 602.59 2303.22 606.38 2457.86 577.97 2327.24 682.17 2330.79 787.79 2470.80 762.19
00000596 00000003 2250.21 330.14 388.83 602.60 2302.06 608.29 2454.42 577.65 2326.82 681.89 2331.73 785.14 2472.43 757.35
00000597 00000004 2248.81 325.40 392.63 606.62 2300.63 602.98 2454.36 573.77 2326.74 679.83 2333.01 780.52 2475.03 753.50
00000598 00000005 2247.94 322.82 394.87 608.01 2300.06 596.99 2452.80 566.21 2323.49 676.15 2334.41 778.05 2474.91 749.65
00000599 00000006 2248.54 319.30 391.53 607.52 2297.53 592.69 2448.25 564.17 2320.11 676.94 2336.34 773.75 2476.11 746.20
00000600 00000007 2250.94 315.13 392.83 607.59 2299.46 590.04 2448.34 560.50 2320.74 671.22 2338.52 768.16 2477.26 739.57
00000601 00000008 2250.69 313.07 398.70 598.92 2299.34 585.13 2451.49 557.29 2322.21 665.64 2338.20 762.02 2478.00 735.70
00000602 00000009 2253.06 315.89 404.69 591.67 2301.25 582.14 2457.61 552.69 2326.60 661.11 2340.43 759.38 2481.60 732.49
00000603 00000010 2260.27 315.79 410.54 586.07 2308.86 587.30 2470.43 546.61 2340.23 654.40 2350.72 758.89 2495.51 723.55
00000604 DELETE   2271.91 310.02 409.85 583.53 2322.70 579.27 2484.80 536.77 2358.82 649.09 2368.96 751.97 2512.56 715.54
00000605 00000012 2282.95 306.13 402.06 583.67 2329.74 577.16 2490.06 527.63 2372.46 644.14 2375.22 750.95 2529.03 709.41
00000606 00000013 2287.46 304.21 402.54 578.36 2336.43 576.09 2494.59 524.78 2384.02 639.71 2385.47 747.92 2533.32 704.96
00000607 00000014 2295.82 307.95 405.35 574.39 2344.77 572.75 2499.27 514.41 2392.32 630.69 2397.43 745.48 2528.25 697.54
00000608 00000015 2302.83 307.11 404.05 577.30 2348.25 567.61 2503.06 510.48 2395.37 626.43 2400.41 743.89 2529.29 697.48
00000609 00000016 2306.47 307.93 402.82 582.84 2351.82 562.58 2503.85 508.01 2394.10 624.64 2400.72 743.31 2528.90 698.79
00000610 00000017 2310.01 304.69 401.40 591.65 2356.44 561.31 2504.97 507.05 2395.38 623.23 2405.10 746.82 2526.26 702.81
00000611 00000018 2314.46 300.81 400.16 597.02 2362.51 556.83 2509.38 509.76 2396.90 626.49 2406.30 745.80 2525.73 707.98
00000612 00000019 2312.61 298.53 401.55 598.80 2360.57 557.52 2508.88 509.03 2395.33 625.68 2405.69 746.32 2524.42 707.42
00000613 00000020 2308.44 297.52 400.88 601.38 2357.03 556.22 2505.36 506.76 2394.72 623.60 2403.29 745.92 2520.18 706.42
00000614 00000021 2308.80 294.55 400.53 601.63 2356.65 554.83 2504.86 505.31 2394.35 622.93 2402.81 743.56 2521.23 703.98
00000615 00000022 2307.97 293.66 400.17 600.52 2354.58 554.18 2503.32 504.49 2392.20 623.44 2401.85 743.05 2521.59 703.12
00000616 00000023 2304.21 298.39 401.32 597.07 2352.07 557.87 2501.01 506.58 2390.28 623.69 2399.93 743.88 2519.06 702.48
00000617 00000024 2302.75 300.09 401.10 593.01 2349.56 557.74 2500.21 505.99 2388.70 624.29 2397.94 743.21 2518.93 701.25
00000618 00000025 2299.19 300.29 402.78 592.10 2347.00 558.91 2499.57 505.64 2388.22 622.94 2396.13 742.90 2516.94 699.81
00000619 00000026 2297.84 301.22 402.41 591.83 2346.54 557.75 2498.20 507.13 2387.40 623.29 2393.01 742.58 2515.25 702.02
00000620 00000027 2295.33 299.06 405.03 591.72 2344.69 562.28 2499.79 513.67 2386.89 622.82 2388.19 743.22 2527.50 703.09
00000621 00000028 2297.72 299.26 402.96 590.91 2346.47 558.60 2500.57 510.97 2388.08 627.06 2390.31 741.29 2519.50 703.14
00000622 00000029 2297.55 303.37 400.78 585.88 2346.56 558.27 2500.75 513.10 2387.00 627.72 2387.98 740.47 2518.16 704.20
00000623 00000030 2291.90 306.16 406.27 582.25 2342.67 561.20 2501.75 515.68 2386.99 631.04 2384.68 743.26 2520.00 706.58
00000624 00000031 2296.99 309.14 402.68 577.95 2345.73 560.96 2505.68 519.39 2392.07 634.93 2387.87 743.94 2525.16 710.91
00000625 00000032 2295.76 309.75 405.09 577.68 2345.72 561.10 2509.16 521.75 2394.35 637.59 2386.85 745.12 2529.26 714.30
00000626 00000033 2294.57 309.21 405.92 580.46 2346.01 562.80 2510.96 525.19 2395.27 640.79 2385.23 747.41 2532.22 718.09
00000627 00000034 2295.19 314.48 408.27 579.03 2347.22 562.92 2516.29 528.69 2400.77 645.75 2385.07 749.79 2538.91 723.49
00000628 00000035 2295.44 315.28 407.88 585.51 2348.43 566.14 2518.00 532.74 2400.87 648.08 2383.86 753.80 2541.56 728.39
00000629 00000036 2294.17 316.84 407.99 589.74 2348.27 565.57 2517.11 533.56 2398.81 651.51 2382.97 756.87 2540.24 732.18
00000630 00000037 2296.34 317.41 405.78 594.54 2349.53 566.59 2518.21 535.32 2397.55 651.95 2383.42 762.31 2537.09 738.34
00000631 00000038 2291.85 319.14 412.19 596.07 2346.95 571.08 2518.57 540.22 2395.95 650.44 2377.98 761.96 2537.99 737.53
00000632 00000039 2288.30 318.89 412.03 601.04 2343.02 578.81 2513.55 546.94 2390.86 652.11 2375.33 768.18 2530.19 743.45
00000633 00000040 2286.38 319.59 411.61 600.85 2339.87 582.91 2509.53 550.55 2386.60 655.02 2373.70 772.96 2522.91 748.20
00000634 00000041 2283.73 317.39 408.67 606.23 2337.70 586.36 2508.03 551.17 2376.53 648.42 2372.02 773.63 2505.27 745.41
00000635 00000042 2274.70 318.04 410.51 598.96 2327.87 576.63 2500.98 548.79 2367.53 643.79 2361.34 762.08 2499.57 740.03
00000636 00000043 2265.18 317.12 413.46 591.31 2319.45 563.47 2496.27 542.70 2358.10 634.90 2347.59 753.27 2486.89 737.29
00000637 00000044 2255.65 308.47 411.02 585.50 2308.51 550.30 2488.24 537.91 2344.63 631.12 2331.40 742.26 2473.91 732.82
00000638 00000045 2246.90 301.05 403.92 582.76 2301.91 545.36 2475.18 537.75 2332.78 627.04 2317.76 736.66 2459.97 731.15
00000639 00000046 2239.70 297.93 400.23 579.86 2291.79 544.36 2461.06 536.01 2321.82 623.38 2304.22 729.69 2449.18 723.14
00000640 00000047 2243.17 286.94 393.14 592.28 2290.08 541.92 2446.40 530.26 2313.45 620.93 2302.55 725.55 2447.96 716.10
00000641 00000048 2239.76 286.38 394.44 591.27 2287.84 543.16 2438.69 530.33 2305.15 621.67 2296.82 727.66 2441.31 717.25
00000642 00000049 2242.71 291.38 392.44 588.32 2290.02 545.32 2437.18 532.29 2304.50 624.29 2296.80 729.75 2440.95 718.75
00000643 00000050 2246.57 295.35 392.75 586.49 2293.89 552.61 2438.64 535.75 2302.91 628.16 2300.66 734.95 2443.66 719.69
00000644 00000051 2254.52 303.63 385.46 581.94 2298.23 559.07 2437.61 540.65 2302.59 635.68 2306.31 742.03 2443.27 724.71
00000645 00000052 2262.80 317.59 383.14 576.88 2298.62 568.55 2440.47 557.91 2302.39 652.09 2312.48 756.62 2435.11 745.76
00000646 00000053 2271.75 319.15 390.65 599.06 2309.71 579.94 2449.99 569.82 2307.09 673.79 2327.41 773.95 2449.15 763.34
00000647 DELETE   2277.27 329.17 394.80 601.29 2318.34 604.77 2462.03 587.61 2325.70 696.89 2341.80 792.53 2470.13 776.44
00000648 DELETE   2284.30 332.65 400.23 613.73 2329.88 620.36 2480.66 596.68 2348.16 721.51 2370.23 808.69 2501.98 787.53
00000649 00000056 2283.56 340.41 411.47 618.83 2334.50 638.20 2492.58 610.10 2365.69 738.79 2381.66 820.58 2516.64 795.98
00000650 00000057 2282.58 346.34 418.71 622.98 2334.41 649.24 2491.97 615.84 2370.37 748.14 2388.74 833.06 2519.95 804.45
00000651 00000058 2290.39 357.54 412.54 618.65 2338.31 645.68 2488.11 614.10 2370.68 753.50 2388.72 835.00 2521.39 809.24
00000652 00000059 2290.11 364.98 413.25 615.19 2336.58 647.00 2485.39 619.78 2365.81 758.26 2384.37 836.12 2518.87 813.61
00000653 00000060 2294.20 368.77 411.16 612.70 2339.00 648.17 2485.59 626.93 2362.58 761.87 2381.80 837.60 2516.97 820.04
00000654 00000061 2294.37 373.13 408.62 610.42 2338.85 647.75 2488.01 630.99 2362.08 765.40 2379.26 836.57 2521.21 822.24
00000655 00000062 2297.39 371.81 402.99 618.42 2342.61 648.78 2491.86 633.52 2365.61 768.90 2382.98 837.05 2526.51 823.35
00000656 00000063 2305.64 371.62 398.82 613.76 2350.70 645.82 2501.21 632.07 2377.63 768.60 2390.91 831.39 2536.84 818.70
00000657 00000064 2306.44 364.99 399.03 616.22 2352.37 644.27 2504.06 630.33 2381.43 765.88 2392.17 827.23 2539.07 814.55
00000658 00000065 2299.82 360.66 399.32 620.64 2347.33 643.37 2502.72 630.29 2378.95 765.04 2394.17 826.70 2539.85 812.18
00000659 00000066 2300.53 359.53 401.01 620.39 2348.00 640.02 2506.23 627.39 2380.29 761.82 2393.25 823.30 2541.02 809.13
00000660 00000067 2301.86 349.19 401.64 626.72 2350.32 634.91 2507.12 622.07 2381.58 758.08 2394.40 820.81 2540.00 806.82
00000661 00000068 2300.39 346.67 405.19 628.42 2347.05 630.96 2507.52 617.01 2379.30 754.43 2390.84 817.58 2540.13 802.64
00000662 00000069 2298.52 347.45 411.89 626.71 2345.28 625.41 2508.39 610.85 2378.80 749.97 2388.51 811.54 2542.81 796.19
00000663 00000070 2298.96 345.73 412.82 626.28 2346.25 624.02 2511.63 606.32 2380.37 746.78 2388.57 806.45 2548.63 788.66
00000664 00000071 2298.16 340.94 413.92 626.59 2343.59 622.09 2510.49 601.85 2378.96 740.23 2388.51 803.07 2547.60 783.46
00000665 00000072 2298.33 335.73 411.85 629.40 2342.58 618.84 2507.38 597.35 2374.69 736.30 2390.26 799.74 2547.47 778.88
00000666 00000073 2300.43 329.34 406.96 630.84 2345.93 615.64 2506.97 594.02 2375.46 732.61 2394.02 798.43 2546.55 777.56
00000667 00000074 2307.11 334.24 393.24 616.95 2350.23 619.61 2508.05 597.19 2382.18 728.97 2389.41 798.50 2548.93 776.77
00000668 00000075 2307.22 328.84 393.47 619.13 2350.24 615.78 2506.44 592.85 2381.46 724.05 2388.46 796.76 2546.10 774.87
00000669 00000076 2306.69 324.61 393.29 619.65 2349.78 610.69 2506.41 587.66 2382.34 719.50 2390.11 793.43 2544.55 771.33
00000670 00000077 2308.57 322.14 392.43 619.17 2351.69 603.52 2509.35 581.71 2386.56 713.15 2390.12 784.95 2546.55 763.71
00000671 00000078 2305.80 316.51 397.80 624.54 2349.27 598.13 2510.07 570.38 2387.61 704.50 2391.86 783.50 2546.72 758.26
00000672 00000079 2305.51 311.38 402.32 631.45 2350.21 588.42 2508.70 561.71 2386.37 696.63 2395.49 780.73 2545.69 756.42
00000673 00000080 2303.78 309.14 407.81 634.47 2348.98 581.98 2506.62 556.08 2383.71 692.20 2396.30 777.36 2544.56 753.86
00000674 00000081 2306.13 306.16 402.33 635.02 2347.12 581.63 2500.52 552.40 2378.68 689.35 2392.81 776.73 2545.59 752.11
00000675 00000082 2302.00 301.68 407.84 634.45 2345.16 576.87 2498.38 548.23 2376.09 684.93 2390.70 772.34 2541.22 748.43
00000676 00000083 2300.01 298.58 414.93 632.50 2345.25 572.54 2500.05 543.01 2377.10 677.04 2389.16 767.64 2539.09 743.83
00000677 00000084 2293.04 291.84 424.20 638.48 2340.94 569.90 2497.55 538.53 2370.51 672.86 2390.99 761.63 2534.93 734.35
00000678 00000085 2296.25 290.98 415.65 632.36 2342.82 563.49 2495.62 531.11 2373.57 665.35 2386.30 756.78 2534.02 730.71
00000679 00000086 2290.85 280.30 420.95 634.96 2337.98 559.80 2496.54 527.14 2365.60 661.16 2386.36 748.33 2534.88 720.22
00000680 00000087 2290.71 275.21 418.33 633.00 2336.39 557.99 2493.72 522.61 2361.57 656.60 2384.87 746.12 2533.15 716.07
00000681 00000088 2286.96 270.07 415.62 634.79 2332.28 555.19 2489.23 520.28 2356.43 653.53 2378.04 740.02 2531.63 709.57
00000682 00000089 2289.80 270.36 407.91 632.49 2331.28 552.84 2485.76 518.93 2357.09 647.06 2373.95 738.57 2536.31 709.58
00000683 00000090 2290.48 264.66 407.28 631.15 2332.56 550.54 2486.01 517.01 2359.39 643.18 2375.90 734.09 2535.72 705.68
00000684 00000091 2288.87 265.21 408.42 631.11 2330.52 551.72 2485.89 515.04 2357.73 640.53 2373.24 735.77 2535.02 704.72
00000685 00000092 2288.81 263.57 407.74 634.16 2330.16 551.83 2484.15 514.15 2355.02 639.16 2372.16 735.37 2534.11 703.34
00000686 00000093 2290.49 261.50 408.23 631.61 2332.64 549.47 2484.85 515.36 2356.55 638.40 2374.22 731.67 2533.00 703.22
00000687 00000094 2292.68 258.16 408.45 635.52 2335.28 555.27 2485.95 519.35 2357.56 635.82 2373.23 729.55 2532.59 699.42
00000688 00000095 2290.36 255.67 410.60 636.32 2333.81 555.18 2485.49 520.52 2357.07 633.22 2370.13 728.35 2529.86 699.57
00000689 00000096 2291.80 253.54 410.45 635.62 2335.36 553.59 2487.07 519.38 2358.96 630.49 2370.37 725.70 2529.95 697.54
00000690 00000097 2291.71 253.01 408.96 635.95 2335.64 553.01 2487.17 518.83 2360.18 629.41 2369.97 724.63 2530.63 696.38
00000691 00000098 2290.58 250.25 407.40 637.46 2333.68 549.66 2486.69 516.20 2357.09 623.76 2366.31 722.10 2526.65 694.65
00000692 00000099 2286.22 247.40 406.23 635.21 2328.97 544.20 2483.47 512.91 2351.56 619.64 2358.55 716.35 2521.81 690.77
00000693 00000100 2279.59 247.00 410.59 630.41 2325.60 541.68 2482.53 508.85 2348.98 612.45 2351.82 712.95 2516.37 686.06
00000694 00000101 2275.77 244.61 409.83 630.64 2322.20 539.75 2477.84 505.58 2342.91 610.89 2349.73 714.91 2509.63 686.67
00000695 00000102 2274.73 242.35 409.29 630.53 2322.13 535.11 2478.09 503.77 2341.66 609.58 2349.17 716.51 2503.76 690.91
00000696 00000103 2275.54 240.62 410.09 626.33 2323.32 532.76 2478.02 501.09 2342.56 607.48 2351.19 716.71 2499.32 691.38
00000697 00000104 2270.80 239.63 412.62 625.22 2321.71 530.86 2473.89 497.35 2338.05 603.68 2349.70 716.35 2490.53 689.89
00000698 00000105 2264.66 239.00 418.16 623.29 2319.58 527.94 2470.62 494.96 2335.39 601.75 2346.71 715.31 2483.58 689.28
00000699 00000106 2264.44 239.56 417.84 626.49 2319.64 524.37 2472.43 490.75 2336.71 598.82 2347.00 715.45 2484.91 688.92
00000700 00000107 2266.57 241.63 418.09 625.41 2321.40 517.63 2476.10 486.62 2340.53 596.19 2347.77 714.22 2486.05 689.89
00000701 00000108 2263.81 244.88 418.98 617.51 2321.66 515.19 2477.12 483.18 2343.02 592.44 2347.42 713.78 2482.56 688.74
00000702 00000109 2260.84 239.36 427.39 628.01 2313.48 513.97 2485.04 485.04 2348.01 588.73 2343.14 715.92 2482.06 692.57
00000703 00000110 2258.59 244.83 424.30 631.88 2312.23 510.61 2482.64 479.85 2347.17 587.91 2343.97 720.66 2480.28 695.88
00000704 00000111 2257.32 242.25 417.67 642.32 2318.18 509.83 2477.62 476.79 2349.72 590.11 2351.82 720.10 2480.89 693.81
00000705 00000112 2254.89 241.42 419.75 639.61 2315.65 517.81 2477.99 476.19 2352.18 592.45 2355.97 722.45 2489.30 689.56
00000706 00000113 2251.80 246.49 422.65 625.45 2312.83 524.28 2471.72 478.55 2352.64 593.59 2358.67 718.57 2489.26 682.36
00000707 00000114 2245.55 248.78 420.84 614.71 2305.73 523.66 2463.46 478.11 2346.69 593.06 2353.37 714.59 2480.53 678.19
00000708 00000115 2240.90 249.50 420.21 610.23 2300.38 523.21 2459.36 476.49 2341.12 591.88 2349.51 715.79 2473.80 678.25
00000709 00000116 2238.36 249.15 421.33 608.44 2297.70 521.69 2457.17 476.06 2339.71 592.14 2347.53 715.33 2470.20 678.75
00000710 00000117 2236.33 246.91 423.74 612.48 2298.08 522.41 2459.20 478.20 2339.16 593.40 2344.45 717.11 2469.18 681.60
00000711 00000118 2236.16 247.15 422.44 612.14 2298.73 522.08 2460.91 480.45 2340.50 595.98 2343.08 716.47 2471.31 682.75
00000712 00000119 2235.58 248.15 424.61 613.87 2299.15 523.10 2462.95 482.39 2341.35 598.30 2343.50 718.22 2472.37 685.03
00000713 00000120 2236.32 246.25 427.24 616.19 2300.66 524.52 2465.01 483.37 2342.38 601.46 2343.58 719.21 2476.33 685.75
00000714 00000121 2236.77 248.47 426.78 618.02 2301.75 523.31 2466.65 484.24 2344.72 602.37 2345.53 722.11 2476.41 690.31
00000715 00000122 2238.06 247.11 426.23 625.04 2304.62 524.40 2469.35 488.69 2346.12 606.31 2349.21 726.28 2476.01 696.82
00000716 00000123 2239.88 247.28 425.25 632.90 2307.45 522.17 2473.95 492.32 2348.29 610.04 2347.77 729.43 2476.80 704.29
00000717 00000124 2247.42 241.58 424.36 638.60 2315.18 515.65 2491.71 493.28 2360.23 605.07 2346.10 725.23 2483.68 706.61
00000718 00000125 2254.48 230.94 422.56 645.52 2321.60 513.56 2503.31 493.00 2370.57 605.99 2350.28 724.57 2493.20 707.90
00000719 00000126 2258.74 226.08 421.43 650.95 2324.82 508.72 2509.09 493.21 2373.97 605.86 2353.54 722.32 2496.86 709.91
00000720 00000127 2266.85 222.78 415.85 657.11 2328.24 505.12 2514.83 492.63 2378.44 606.50 2355.65 721.99 2500.89 712.19
00000721 00000128 2267.42 222.86 416.64 662.19 2330.07 506.41 2519.69 494.94 2384.71 609.70 2357.72 725.60 2504.52 716.73
00000722 00000129 2264.09 229.97 422.97 655.06 2331.31 505.39 2523.92 495.19 2390.20 606.32 2365.53 726.85 2502.47 720.07
00000723 00000130 2263.94 234.37 424.80 652.30 2332.85 511.39 2526.43 499.43 2395.91 608.83 2368.59 728.38 2503.96 720.55
00000724 00000131 2265.39 241.36 422.56 647.00 2333.92 512.60 2529.05 502.92 2398.31 613.94 2368.93 730.26 2504.55 724.12
00000725 00000132 2264.32 245.27 422.68 642.79 2333.61 512.90 2530.05 505.77 2400.17 616.45 2366.98 729.44 2504.11 725.31
00000726 00000133 2263.59 251.98 423.63 634.59 2333.02 515.12 2530.78 508.31 2399.64 619.61 2366.64 730.86 2506.35 726.73
00000727 00000134 2265.08 256.90 424.01 630.19 2333.70 516.72 2532.03 510.19 2399.90 622.26 2367.21 731.10 2511.97 726.58
00000728 00000135 2263.29 257.77 425.48 629.79 2333.05 517.32 2532.39 510.09 2401.86 623.96 2366.10 732.24 2515.01 726.88
00000729 00000136 2262.79 260.68 425.96 625.25 2333.00 518.47 2532.14 510.67 2402.93 623.56 2365.94 729.49 2516.40 723.65
00000730 00000137 2264.40 256.05 423.86 626.81 2333.97 516.64 2531.68 511.21 2400.95 623.26 2364.36 726.54 2516.27 722.66
00000731 00000138 2266.63 256.49 422.82 622.94 2336.04 516.43 2531.75 513.39 2401.18 621.72 2362.56 723.12 2516.48 721.34
00000732 00000139 2270.29 258.04 420.42 620.00 2339.51 514.06 2532.83 513.17 2402.33 621.83 2363.68 720.98 2517.26 720.84
00000733 00000140 2271.78 260.17 421.92 616.64 2339.57 521.99 2537.37 519.66 2407.65 625.32 2363.88 720.76 2521.81 719.67
00000734 00000141 2277.43 259.02 420.97 620.09 2343.68 525.62 2543.21 523.05 2411.56 625.70 2367.84 719.47 2527.47 718.27
00000735 00000142 2280.28 262.67 421.39 618.61 2349.38 526.61 2546.41 522.41 2416.78 625.58 2375.14 720.70 2531.96 718.20
00000736 00000143 2284.55 262.86 421.57 622.90 2354.27 526.60 2548.59 521.27 2419.83 626.37 2379.06 723.49 2534.89 720.07
00000737 00000144 2291.80 265.32 411.60 624.38 2356.69 530.64 2545.64 522.83 2419.24 632.08 2377.17 729.86 2540.35 724.61
00000738 00000145 2291.14 267.35 412.61 623.56 2355.31 534.58 2544.51 525.51 2416.39 634.63 2376.55 732.97 2539.28 726.72
00000739 00000146 2292.13 269.25 413.56 620.12 2355.53 533.47 2546.05 524.92 2417.19 635.83 2377.47 732.63 2540.67 726.61
00000740 00000147 2294.56 267.60 411.79 618.89 2356.94 530.64 2546.32 523.13 2418.18 635.19 2378.63 731.45 2540.74 726.28
00000741 00000148 2292.97 268.37 413.10 613.86 2354.84 530.72 2545.47 522.94 2417.59 633.87 2376.46 729.32 2540.26 723.94
00000742 00000149 2292.41 268.53 411.09 610.32 2352.99 528.88 2542.03 519.55 2415.53 630.34 2376.02 726.75 2538.61 720.19
00000743 00000150 2287.60 264.76 412.91 610.24 2347.69 526.86 2535.67 516.13 2410.01 626.63 2371.54 724.04 2535.60 716.35
00000744 00000151 2282.02 261.86 413.09 608.29 2341.58 524.36 2529.59 511.70 2404.45 623.67 2367.16 721.95 2532.67 712.41
00000745 00000152 2281.08 258.95 412.48 608.27 2339.64 523.38 2527.47 508.99 2403.26 621.03 2366.54 720.34 2532.05 709.28
00000746 00000153 2277.86 257.43 414.91 612.85 2337.54 524.78 2525.85 508.68 2400.87 622.14 2366.69 722.58 2530.56 710.05
00000747 00000154 2272.22 267.40 416.91 603.68 2332.93 528.87 2522.53 511.44 2397.47 626.40 2365.21 728.37 2525.65 714.42
00000748 00000155 2267.47 268.95 417.95 598.85 2329.64 527.80 2526.23 513.01 2399.53 626.32 2365.76 727.38 2522.27 715.74
00000749 00000156 2265.37 268.94 419.02 604.02 2329.09 528.96 2525.35 514.01 2397.86 627.41 2368.09 732.78 2516.65 721.22
00000750 00000157 2263.24 270.29 419.26 607.36 2327.30 534.76 2522.55 516.08 2394.56 629.25 2370.17 741.28 2508.97 726.96
00000751 00000158 2262.25 274.67 421.42 610.51 2327.19 538.12 2522.53 518.15 2393.50 629.45 2370.21 748.19 2504.27 733.18
00000752 00000159 2261.04 278.03 421.54 614.07 2325.81 541.11 2519.17 518.67 2389.67 630.53 2369.91 754.18 2501.89 737.06
00000753 00000160 2260.96 279.14 420.93 617.51 2325.02 540.97 2518.31 520.40 2385.04 632.05 2368.48 755.61 2502.15 739.60
00000754 00000161 2261.90 281.79 420.93 611.44 2326.04 543.65 2516.69 522.56 2385.51 636.76 2369.23 755.81 2501.25 739.17
00000755 00000162 2261.82 287.82 423.62 604.63 2325.88 545.19 2513.22 526.75 2381.25 642.61 2367.33 754.58 2500.27 739.44
