Video ID: 	PdVwbZPthhE
H: 	1080
W: 	1920
FPS: 	25.0

FRAME INDEX X0 Y0 W H [Landmarks (5 Points)]

00027867 00000000 585.76 206.76 405.97 626.40 792.58 464.91 947.51 464.53 924.15 607.82 779.08 680.82 910.99 682.22
00027868 00000001 587.45 206.08 406.88 623.80 795.09 461.99 949.08 463.07 926.43 604.25 783.10 677.83 912.91 680.09
00027869 00000002 589.85 201.77 406.89 626.63 798.38 458.25 953.30 462.02 931.75 598.69 785.72 675.12 915.45 679.41
00027870 00000003 591.38 200.53 406.03 625.91 799.65 455.73 955.03 460.10 934.12 594.15 787.67 671.77 918.13 676.35
00027871 00000004 588.29 201.83 406.97 620.91 794.49 451.46 953.95 457.95 930.17 587.06 786.55 666.46 920.14 672.53
00027872 00000005 585.84 197.07 404.96 614.29 790.36 448.94 950.18 453.21 929.04 576.55 782.80 662.49 920.51 667.91
00027873 DELETE   579.62 196.37 407.84 617.96 778.19 436.97 936.91 441.79 908.97 563.46 772.86 650.11 906.06 657.08
00027874 DELETE   574.19 198.90 410.49 598.94 768.17 419.25 936.67 431.38 904.30 555.82 763.47 640.19 907.42 651.26
00027875 00000008 565.71 183.13 413.47 600.69 756.41 407.68 931.36 426.79 890.52 545.12 758.41 631.90 900.19 648.37
00027876 00000009 562.49 176.54 415.77 609.27 753.00 402.11 928.75 423.50 882.54 535.33 747.74 623.05 894.67 642.74
00027877 00000010 565.88 172.58 407.39 599.61 748.71 398.26 921.99 420.59 874.18 522.93 751.12 615.52 894.50 633.32
00027878 00000011 564.45 166.68 408.14 602.25 746.87 390.04 918.43 413.37 871.86 512.91 749.36 608.29 891.29 626.89
00027879 00000012 562.58 163.54 408.54 599.87 745.50 385.67 915.32 409.55 870.13 505.38 748.73 602.50 887.20 621.70
00027880 00000013 562.19 159.03 408.27 600.22 741.97 380.57 915.07 403.73 870.03 497.03 748.78 599.28 888.96 617.75
00027881 00000014 563.36 150.59 407.08 604.82 734.86 376.69 918.67 398.77 870.91 493.37 744.31 599.05 894.32 616.81
00027882 00000015 565.45 150.34 404.96 601.16 736.02 376.69 920.29 398.65 872.11 493.96 745.78 598.31 894.79 616.03
00027883 00000016 568.20 150.69 405.92 603.06 740.29 378.52 923.08 399.73 876.36 494.97 750.72 600.46 899.00 617.58
00027884 00000017 569.92 153.15 405.50 599.62 744.71 379.65 924.69 401.45 879.19 495.18 753.54 599.95 899.37 617.80
00027885 00000018 571.45 153.87 404.12 595.06 749.60 377.23 925.15 399.87 880.55 492.56 757.74 597.18 896.57 615.79
00027886 00000019 571.82 154.53 404.86 592.03 751.94 375.91 928.33 399.68 882.47 492.88 759.38 596.16 898.92 615.53
00027887 00000020 573.96 155.11 405.28 587.99 754.68 374.98 931.85 399.79 884.73 493.44 763.91 596.62 901.40 616.81
00027888 00000021 575.74 155.30 405.38 589.10 756.82 375.33 933.12 399.97 885.92 494.33 767.41 597.86 903.08 617.92
00027889 00000022 577.11 155.44 404.54 588.85 757.49 375.94 932.80 401.17 885.99 494.58 767.00 597.56 902.32 618.22
00027890 00000023 575.21 155.15 404.84 587.21 755.53 374.12 931.61 399.87 884.32 493.41 765.46 595.93 900.64 616.86
00027891 00000024 573.76 152.14 403.19 590.02 754.64 373.78 929.88 398.59 884.07 490.96 763.57 593.12 900.58 613.23
00027892 00000025 573.60 150.96 402.81 591.74 754.26 374.10 929.45 398.85 883.14 492.08 762.38 592.90 900.39 612.84
00027893 00000026 574.56 152.92 404.05 591.45 756.04 375.81 929.39 400.11 883.93 493.63 765.06 595.62 900.11 615.33
00027894 00000027 575.83 156.24 405.02 591.14 756.82 376.16 931.09 400.53 884.97 494.25 764.82 596.57 901.67 616.43
00027895 00000028 579.21 156.73 403.10 590.95 758.01 377.24 932.31 402.13 885.59 496.36 763.64 596.88 902.17 617.41
00027896 00000029 580.53 158.17 402.04 590.40 760.06 378.14 933.23 401.93 887.44 497.94 765.50 597.85 904.04 617.50
00027897 00000030 582.86 160.81 399.58 590.49 761.22 379.00 932.39 402.41 887.72 498.55 763.24 597.12 903.94 616.74
00027898 00000031 584.47 161.33 399.90 592.43 761.32 379.19 934.02 401.25 888.42 500.74 761.49 597.61 907.07 616.29
00027899 00000032 585.79 163.87 399.56 591.75 760.80 378.69 933.77 401.70 887.11 500.39 757.55 595.04 907.49 614.82
00027900 00000033 586.92 164.28 399.20 593.26 759.97 379.43 934.07 402.56 885.93 501.26 754.70 594.99 907.98 615.03
00027901 00000034 586.92 166.13 399.20 592.20 759.28 380.02 934.25 404.14 884.86 502.85 751.94 594.50 907.14 615.49
00027902 00000035 585.84 168.42 400.06 591.31 758.22 381.65 933.76 405.86 884.07 504.87 750.45 595.16 907.17 616.24
00027903 00000036 587.17 170.50 398.49 589.96 759.51 384.32 935.20 407.37 885.77 507.88 751.67 597.80 908.72 617.90
00027904 00000037 587.90 171.11 399.19 590.66 761.02 387.89 938.39 410.55 887.40 513.59 752.01 600.41 910.69 620.29
00027905 00000038 588.63 170.08 400.99 592.93 761.15 389.72 938.56 411.96 886.97 517.38 751.15 601.68 910.17 621.30
00027906 00000039 586.38 171.94 402.36 595.58 761.58 388.16 938.03 412.16 887.11 515.97 749.84 602.62 908.23 623.56
00027907 00000040 587.60 169.06 402.42 600.92 759.69 388.03 939.72 411.80 884.93 515.94 753.50 607.29 910.27 627.39
00027908 00000041 589.64 166.79 402.33 605.21 760.33 389.04 941.25 412.26 882.86 520.06 755.86 611.49 909.97 630.83
00027909 00000042 588.14 167.61 402.39 605.97 761.64 393.16 939.88 416.22 882.65 522.24 756.39 614.04 908.69 633.29
00027910 00000043 577.70 171.27 413.05 605.74 765.79 396.47 935.50 418.93 884.49 524.97 750.78 612.01 895.71 632.26
00027911 00000044 579.77 173.88 409.52 595.22 763.11 396.09 938.21 418.04 884.88 524.03 745.62 607.22 899.09 627.34
00027912 00000045 588.07 173.01 398.56 586.07 764.14 395.85 938.91 417.93 887.72 521.30 753.09 602.60 909.16 622.37
00027913 00000046 587.84 169.75 400.47 589.48 763.73 391.78 938.49 414.03 888.36 519.81 749.87 599.73 908.82 620.01
00027914 00000047 586.96 170.11 401.35 589.18 764.56 391.49 937.78 413.69 889.18 520.49 748.78 598.67 907.81 619.05
00027915 00000048 586.54 170.53 402.93 587.68 764.53 391.27 938.08 414.47 887.90 520.92 749.61 598.00 907.98 619.00
00027916 00000049 588.48 170.74 401.85 589.18 765.40 392.86 939.17 415.67 888.56 522.27 751.50 600.12 909.47 620.71
00027917 00000050 589.76 172.42 401.68 586.91 765.61 394.94 940.98 416.90 887.72 525.08 754.99 603.19 911.64 622.58
00027918 00000051 588.09 177.74 406.51 590.33 766.33 394.92 941.73 415.16 888.00 530.54 752.50 607.01 907.98 625.40
00027919 00000052 585.70 179.36 410.31 594.79 766.23 395.53 941.68 414.47 889.34 532.85 753.33 611.18 908.23 628.54
00027920 00000053 586.58 174.75 410.20 601.77 766.50 393.05 941.51 415.17 888.55 531.77 750.37 610.31 904.54 630.18
00027921 00000054 589.78 176.96 400.86 583.63 765.15 392.32 940.59 415.61 888.66 524.01 752.54 602.31 909.36 623.04
00027922 00000055 587.07 170.46 400.02 583.40 760.19 387.09 938.47 410.64 888.09 512.94 749.98 596.01 910.69 617.17
00027923 00000056 581.91 166.75 402.23 585.74 758.12 381.79 934.35 407.79 885.87 506.04 748.49 591.68 906.19 614.67
00027924 00000057 576.91 163.38 405.85 588.89 753.20 378.75 931.51 406.49 883.01 501.48 744.79 589.55 902.56 613.83
00027925 00000058 575.13 162.87 406.40 590.03 751.65 377.75 930.62 405.56 882.44 499.52 743.46 588.90 901.38 613.21
00027926 00000059 573.97 161.90 407.93 595.21 751.86 377.32 929.00 405.91 881.04 500.07 741.30 588.83 899.63 613.72
00027927 00000060 575.45 164.01 406.29 600.31 753.21 377.19 926.47 408.22 878.54 500.97 737.26 589.99 894.59 616.79
00027928 00000061 576.65 166.34 405.98 604.10 756.29 380.43 927.57 411.26 879.66 506.12 738.35 596.23 893.62 622.95
00027929 00000062 578.70 172.16 405.29 604.41 757.97 386.04 931.58 413.53 883.03 512.62 740.40 603.19 897.21 627.26
00027930 00000063 582.47 172.14 404.26 604.84 759.93 391.78 934.88 416.77 882.55 521.18 745.65 607.65 902.88 629.09
00027931 00000064 585.01 170.23 402.44 597.28 761.15 392.41 936.93 414.63 885.59 520.90 753.34 607.94 907.22 627.20
00027932 00000065 586.93 167.09 401.27 590.89 763.90 388.72 940.25 408.39 891.92 516.30 764.16 607.62 912.42 624.43
00027933 00000066 586.93 166.10 401.47 586.70 764.88 386.04 941.62 406.67 892.73 509.40 769.07 606.35 911.66 623.56
00027934 00000067 586.38 165.24 400.93 585.18 763.68 385.65 941.26 405.16 891.64 509.13 770.20 606.60 911.62 622.72
00027935 00000068 584.66 166.32 402.37 584.84 762.24 387.44 940.04 407.38 890.15 511.99 768.02 607.55 910.73 624.14
00027936 00000069 582.85 167.61 404.75 591.25 764.01 388.59 937.95 411.00 888.69 516.05 768.53 611.05 906.48 629.18
00027937 00000070 580.17 167.74 407.78 596.86 765.25 389.04 936.33 413.48 887.18 515.85 771.00 614.33 903.18 633.54
00027938 00000071 581.37 167.38 407.07 596.42 765.96 388.03 938.23 412.65 889.25 513.77 773.13 614.90 904.20 634.36
00027939 00000072 583.20 166.12 405.96 595.39 765.38 386.26 938.13 411.04 889.50 510.69 773.31 613.05 904.95 632.99
00027940 00000073 583.21 165.27 406.96 592.11 765.11 384.33 937.75 409.04 888.42 506.11 772.18 609.80 903.42 629.90
00027941 00000074 582.79 164.48 406.96 590.19 767.60 385.97 939.41 410.05 890.12 506.50 773.81 609.90 904.23 629.60
00027942 00000075 582.62 170.39 404.40 585.04 771.22 389.88 939.44 412.77 893.92 507.53 777.08 612.88 904.12 631.49
00027943 00000076 582.54 168.59 407.13 586.17 772.06 391.10 940.70 411.83 894.97 512.08 779.41 615.10 905.12 631.83
00027944 DELETE   587.94 167.81 404.92 582.30 769.59 389.55 945.05 412.19 892.07 511.54 776.20 612.77 907.11 631.04
00027945 00000078 592.53 163.64 403.34 580.34 768.82 383.72 948.56 406.96 892.52 506.77 771.57 604.62 911.41 624.02
00027946 00000079 591.78 160.48 403.29 583.65 770.80 380.59 946.93 405.13 893.45 501.59 769.63 598.40 911.08 619.30
00027947 00000080 587.91 159.11 406.28 586.72 771.11 379.70 944.34 404.55 894.71 500.14 768.83 596.41 909.33 617.70
00027948 00000081 588.06 159.51 405.98 586.77 768.22 380.22 943.71 405.73 891.05 499.71 766.81 596.83 908.37 618.56
00027949 00000082 588.11 162.94 405.35 584.06 768.44 381.70 943.57 407.85 890.16 503.12 765.62 597.60 907.67 619.88
00027950 00000083 587.96 162.64 405.14 585.34 767.22 383.94 943.99 409.17 890.52 505.50 765.26 599.21 909.32 620.66
00027951 00000084 588.87 163.74 404.05 582.05 766.40 383.62 944.23 409.80 889.34 505.57 763.04 597.65 908.98 620.01
00027952 00000085 589.68 163.99 403.93 581.53 766.57 383.29 944.58 408.81 889.18 507.11 762.08 596.89 909.67 618.82
00027953 00000086 591.88 164.71 402.97 579.89 768.74 384.63 944.81 408.89 890.35 507.51 763.62 595.31 912.60 616.32
00027954 00000087 592.55 165.74 402.92 585.65 768.90 385.32 943.88 409.55 890.72 510.17 760.12 596.55 911.94 617.85
00027955 00000088 593.29 164.34 403.48 587.26 766.97 385.07 945.28 409.64 889.68 510.09 760.48 599.33 912.56 620.88
00027956 00000089 592.94 162.62 404.66 586.89 765.58 382.87 946.05 407.18 888.84 507.52 761.78 601.27 911.70 622.36
00027957 00000090 594.12 161.96 402.29 583.34 763.67 379.40 945.19 404.20 886.36 503.00 760.61 599.34 908.68 620.84
00027958 00000091 590.76 156.94 406.42 585.37 758.86 377.84 943.32 402.66 884.52 500.61 756.60 593.59 910.23 615.02
00027959 00000092 590.85 158.31 406.97 583.41 759.86 377.35 942.56 403.93 883.21 498.21 755.87 589.32 910.39 612.08
00027960 00000093 594.76 160.23 405.53 585.08 763.89 377.95 945.07 402.41 887.13 501.10 760.96 593.67 912.55 614.97
00027961 00000094 597.74 164.81 404.31 579.88 770.70 380.36 950.60 402.62 893.26 500.74 771.59 597.52 917.82 616.49
00027962 00000095 599.79 162.04 403.30 578.99 770.72 377.71 954.70 400.56 895.36 496.78 777.06 602.01 918.50 620.87
00027963 00000096 599.13 160.68 403.33 576.36 768.49 376.68 951.82 398.90 892.43 494.99 776.20 599.91 916.22 618.12
00027964 00000097 599.35 158.69 403.43 578.00 768.20 375.94 951.59 397.90 892.76 494.40 775.00 599.02 916.12 617.15
00027965 00000098 600.01 158.51 402.99 578.88 769.67 375.70 952.88 397.14 895.16 492.76 776.73 598.58 918.19 616.30
00027966 00000099 600.03 158.58 402.83 578.43 770.84 375.70 952.28 397.47 896.35 493.29 774.02 595.56 918.02 614.00
00027967 00000100 598.56 162.17 403.99 581.70 772.46 377.14 950.14 400.56 894.14 496.90 769.92 594.81 914.95 614.98
00027968 00000101 594.64 160.28 413.00 591.35 772.99 375.00 952.11 408.90 893.10 500.20 762.71 591.21 910.54 619.66
00027969 00000102 595.65 160.56 413.06 591.61 773.36 375.10 953.81 409.27 894.68 498.72 763.32 590.58 913.04 619.23
00027970 00000103 595.52 158.95 412.99 588.64 774.86 371.53 956.24 407.09 897.23 493.14 764.88 587.00 914.31 616.65
00027971 00000104 600.73 161.29 405.26 576.78 772.51 373.64 955.24 399.29 897.34 490.63 769.74 590.30 919.42 612.33
00027972 00000105 600.83 160.35 405.80 574.90 771.12 373.73 955.76 399.36 896.57 489.99 771.03 591.18 919.35 612.84
00027973 00000106 600.46 161.57 405.82 576.73 770.25 375.77 955.26 400.14 894.51 490.84 773.38 595.31 919.66 615.48
00027974 00000107 596.90 160.46 412.17 587.48 774.28 373.79 955.18 407.97 894.16 494.41 773.74 591.13 914.04 619.05
00027975 00000108 596.91 160.29 412.22 588.50 775.89 374.01 954.65 408.78 894.14 494.27 774.38 591.39 912.15 619.81
00027976 00000109 597.88 160.01 411.09 587.53 774.28 373.67 954.69 407.91 893.48 494.67 774.40 592.09 912.75 620.00
00027977 00000110 597.99 159.71 410.56 587.51 774.12 373.86 954.72 408.14 893.40 494.50 774.33 592.23 912.80 620.22
00027978 00000111 597.86 159.11 410.81 587.84 773.74 373.75 955.09 407.60 893.56 494.10 774.16 591.73 913.65 619.33
00027979 00000112 601.33 162.61 404.76 581.68 772.62 377.41 954.78 400.83 895.17 491.78 777.01 599.00 919.07 618.39
00027980 00000113 597.71 157.60 410.98 589.47 775.04 372.62 954.20 406.46 893.78 493.13 772.49 589.66 911.95 617.26
00027981 00000114 596.86 158.70 412.65 588.21 775.42 373.44 955.43 409.08 894.07 494.71 771.70 589.33 911.87 618.55
00027982 00000115 598.35 158.82 412.19 590.40 775.35 376.66 954.34 411.04 893.15 496.50 771.40 591.14 911.07 619.39
00027983 00000116 597.06 163.01 413.89 584.14 780.01 384.81 954.28 419.39 894.44 497.60 772.69 590.72 910.58 619.58
00027984 00000117 595.17 164.36 415.11 584.13 782.24 388.83 951.27 421.12 894.53 501.53 773.46 591.42 908.02 618.63
00027985 00000118 594.29 165.85 415.13 586.82 780.98 386.42 951.88 419.02 895.35 503.11 771.60 592.89 910.15 620.29
00027986 00000119 594.85 165.19 415.09 594.72 775.42 386.61 951.82 419.43 892.10 508.47 763.24 596.65 910.79 624.36
00027987 00000120 594.02 165.86 415.32 599.18 774.37 387.42 949.42 418.18 890.81 518.03 759.20 600.76 909.03 627.07
00027988 00000121 592.27 168.85 415.23 600.49 774.00 390.34 946.85 420.12 888.88 524.37 756.41 603.27 904.91 629.09
00027989 00000122 591.30 174.52 414.89 600.22 774.19 396.01 945.43 422.65 887.78 533.20 756.48 609.94 902.96 633.49
00027990 00000123 589.77 179.23 415.58 599.08 772.60 398.37 943.90 424.11 885.68 535.90 754.39 612.46 900.46 635.59
00027991 00000124 590.00 181.48 412.78 597.07 770.65 400.11 942.38 425.21 883.23 538.43 752.62 613.41 898.98 636.20
00027992 00000125 588.72 181.63 413.81 597.68 768.63 401.35 941.63 425.37 881.86 539.59 752.04 614.97 898.99 636.83
00027993 00000126 587.62 179.55 414.12 599.48 768.12 401.69 940.62 425.29 881.18 539.71 751.12 614.65 898.14 636.21
00027994 00000127 588.35 180.36 412.42 596.64 767.28 401.36 939.82 423.63 880.65 538.97 751.41 614.15 898.56 634.62
00027995 00000128 587.27 181.54 412.06 594.53 766.25 400.37 939.54 422.74 880.24 537.44 750.87 613.83 898.15 634.40
00027996 00000129 586.02 181.87 412.33 595.88 764.95 401.23 939.24 423.22 880.10 538.28 750.63 615.67 897.91 635.92
00027997 00000130 587.29 181.26 412.72 600.36 765.22 402.26 940.59 425.93 880.79 540.31 750.91 618.34 898.35 639.92
00027998 00000131 588.28 181.77 413.04 601.56 766.05 402.99 941.95 427.27 881.98 541.53 752.42 620.03 899.75 642.13
00027999 00000132 587.16 186.15 413.38 596.49 766.36 403.09 942.34 426.68 882.79 541.25 753.14 619.64 900.24 641.24
00028000 00000133 586.48 183.73 414.06 598.80 765.90 402.90 941.25 426.88 881.54 540.72 752.16 618.42 899.48 640.31
00028001 00000134 586.02 183.95 412.95 599.98 764.78 402.95 939.84 426.81 880.91 541.24 750.92 619.07 898.12 640.86
00028002 00000135 586.06 183.93 412.83 601.10 764.28 403.65 939.28 428.01 880.37 541.48 749.76 619.16 897.31 641.39
00028003 00000136 585.48 185.48 412.74 599.88 763.98 403.47 939.14 428.35 880.16 541.67 748.64 618.43 897.16 641.08
00028004 00000137 585.00 185.76 413.87 600.04 764.32 403.64 939.37 428.14 880.36 542.39 747.29 618.26 896.26 640.68
00028005 00000138 586.49 184.86 414.11 600.22 764.10 403.92 939.99 427.75 880.34 541.97 747.01 617.67 897.88 639.47
00028006 00000139 586.24 183.70 415.38 600.71 765.53 403.39 941.12 426.62 882.20 541.83 747.87 616.96 899.26 638.33
00028007 00000140 587.92 182.62 415.98 600.99 767.91 403.02 942.29 427.02 883.40 542.56 749.92 616.07 900.80 637.96
00028008 00000141 588.57 184.06 415.00 598.91 769.29 402.66 943.24 426.66 885.04 541.80 751.36 615.27 902.60 637.10
00028009 00000142 589.24 184.27 414.64 598.51 769.49 402.99 943.58 426.96 885.85 541.10 752.49 615.36 904.00 637.09
00028010 00000143 589.38 183.88 415.09 599.27 769.00 402.96 943.53 427.19 885.43 541.19 751.67 615.65 903.49 637.63
00028011 00000144 589.90 183.77 414.85 599.86 769.02 402.28 943.31 426.50 885.90 540.65 752.29 615.85 903.68 637.83
00028012 00000145 590.68 182.32 413.93 600.61 768.60 401.82 944.77 426.88 886.99 538.75 752.26 616.10 904.80 638.78
00028013 00000146 591.25 182.70 411.22 595.01 767.71 402.17 945.38 424.63 887.66 537.97 758.98 619.42 908.03 639.81
00028014 00000147 593.01 178.38 409.90 598.49 767.71 401.65 945.74 424.91 886.35 537.81 764.30 623.38 906.84 644.12
00028015 00000148 591.64 179.52 410.18 595.28 767.02 400.63 944.52 424.52 883.37 535.09 765.68 627.20 900.46 648.96
00028016 00000149 591.43 179.10 405.77 593.58 763.58 401.61 939.30 426.01 878.96 533.65 762.73 628.68 893.54 650.98
00028017 00000150 589.34 183.95 406.05 592.29 759.22 402.22 931.27 428.58 866.87 539.77 751.02 626.99 878.16 651.61
00028018 00000151 581.69 180.71 411.86 596.37 754.23 401.40 924.37 433.26 855.16 540.85 741.50 625.73 863.76 654.79
00028019 00000152 578.15 190.20 409.91 583.72 742.00 402.81 921.50 432.71 850.12 544.56 737.38 634.57 861.51 659.38
00028020 00000153 581.78 191.16 408.30 586.60 748.89 406.79 927.38 434.59 860.82 549.07 748.74 640.41 871.22 663.69
00028021 00000154 591.56 184.71 405.90 606.61 764.55 413.88 932.00 441.36 870.68 556.46 757.37 638.78 880.37 664.61
00028022 00000155 594.20 181.62 407.53 618.61 765.77 413.44 937.06 443.01 875.47 556.36 757.92 642.36 885.13 669.78
00028023 00000156 587.06 192.11 412.50 601.07 748.82 413.98 937.83 440.35 865.07 557.25 742.12 647.95 884.71 670.76
00028024 00000157 584.74 193.29 410.27 595.77 741.54 411.43 930.18 441.92 853.34 552.61 728.32 638.43 876.22 665.17
00028025 00000158 584.16 194.35 413.99 595.35 745.97 415.04 934.94 440.46 863.81 557.02 739.99 642.35 887.19 664.53
00028026 00000159 597.81 184.62 413.80 616.43 762.25 423.01 944.16 449.71 875.95 566.08 754.53 644.56 895.92 669.22
00028027 00000160 606.71 190.03 411.60 612.47 778.79 427.95 952.87 451.79 890.68 571.20 777.88 653.10 905.28 675.22
00028028 DELETE   611.40 194.46 407.64 602.10 784.48 427.79 952.68 457.76 885.57 571.23 777.63 648.55 897.94 674.49
00028029 DELETE   603.21 192.14 414.85 603.37 778.91 431.11 946.51 457.39 880.41 570.68 771.02 651.31 888.38 675.82
00028030 DELETE   604.80 188.99 414.30 609.29 778.18 429.56 947.79 458.31 880.47 570.32 768.59 652.03 888.37 678.51
00028031 00000164 607.16 196.37 413.55 605.46 786.06 425.80 953.63 458.40 886.30 569.96 776.55 650.30 894.37 678.42
00028032 00000165 607.17 192.22 414.56 621.08 785.21 428.95 956.74 454.51 899.54 570.18 778.39 652.72 911.03 675.88
00028033 00000166 605.47 196.73 416.25 612.92 781.97 427.24 955.66 452.26 895.90 570.17 771.00 645.26 910.87 668.11
00028034 00000167 604.34 197.95 415.13 611.49 781.90 424.94 952.84 451.14 894.30 565.91 770.70 642.77 909.45 666.57
00028035 00000168 605.93 207.85 414.69 603.41 788.25 424.27 961.34 451.53 903.44 569.64 773.52 646.25 914.10 668.04
00028036 00000169 613.14 204.14 410.52 605.62 793.86 426.81 964.99 459.35 905.25 570.49 775.38 639.78 917.73 669.88
00028037 00000170 613.09 204.28 410.42 604.13 793.64 426.54 965.70 459.72 905.71 570.17 773.89 639.00 917.78 669.53
