Video ID: 	s_uuCUVDTUA
H: 	1080
W: 	1920
FPS: 	29.97002997002997

FRAME INDEX X0 Y0 W H [Landmarks (5 Points)]

00018365 00000000 989.90 283.09 363.53 503.15 1064.74 515.84 1210.57 509.67 1137.68 644.58 1127.40 671.80 1253.90 663.93
00018366 00000001 991.29 274.21 363.59 502.92 1067.87 506.60 1213.19 498.59 1140.01 631.47 1128.27 666.07 1254.99 656.54
00018367 DELETE   998.43 261.76 363.75 512.12 1075.09 497.63 1216.76 485.19 1147.21 621.69 1136.17 665.90 1258.90 652.74
00018368 00000003 1005.39 250.80 361.80 512.82 1079.06 486.90 1225.49 482.29 1153.14 606.76 1146.98 655.46 1258.42 649.75
00018369 00000004 1006.44 234.39 363.98 520.50 1085.36 476.38 1227.70 469.87 1159.62 591.83 1150.16 648.38 1253.92 641.50
00018370 00000005 1008.20 220.33 364.26 526.38 1089.03 463.78 1228.53 456.32 1162.00 576.45 1151.19 639.90 1253.81 632.41
00018371 00000006 1013.80 209.53 360.71 527.80 1093.12 451.45 1232.44 443.98 1164.95 564.04 1155.68 633.27 1255.40 626.33
00018372 00000007 1019.29 205.10 355.93 527.58 1100.33 441.66 1236.73 435.68 1171.42 553.72 1159.00 626.84 1255.48 622.04
00018373 00000008 1026.92 201.35 355.34 526.61 1103.13 434.88 1243.54 428.02 1173.41 550.45 1156.99 616.18 1264.47 610.40
00018374 00000009 1031.17 199.54 355.65 510.21 1104.53 428.23 1248.30 417.68 1175.22 541.75 1154.76 603.33 1270.46 594.21
00018375 00000010 1033.93 193.82 357.50 506.37 1104.57 422.12 1249.70 411.01 1174.42 536.46 1153.70 596.95 1271.34 587.24
00018376 00000011 1036.37 185.84 356.53 511.27 1105.18 415.63 1250.02 406.02 1173.27 529.95 1149.81 590.53 1269.97 582.01
00018377 00000012 1036.82 180.20 357.94 512.34 1105.53 409.84 1250.98 401.43 1172.39 522.94 1145.60 585.21 1268.23 577.72
00018378 00000013 1040.20 175.55 352.75 516.03 1106.54 405.46 1248.85 398.45 1170.43 517.65 1144.55 580.37 1266.60 574.11
00018379 00000014 1040.95 173.96 351.91 515.23 1106.16 401.79 1248.62 395.29 1168.72 512.19 1143.30 576.42 1266.02 570.54
00018380 00000015 1041.85 173.29 350.90 515.57 1106.13 400.73 1247.98 394.59 1167.24 510.96 1141.80 574.59 1264.88 568.95
00018381 00000016 1035.31 177.09 350.80 513.27 1104.58 399.99 1249.20 397.02 1166.46 506.05 1142.92 565.28 1265.73 562.51
00018382 00000017 1034.38 176.25 351.75 514.02 1104.36 399.17 1248.86 396.37 1165.79 504.13 1142.43 564.61 1265.23 562.03
00018383 00000018 1040.19 173.06 353.43 516.52 1105.34 397.78 1244.97 391.61 1163.83 504.29 1141.93 572.70 1261.56 567.10
00018384 00000019 1033.77 174.07 354.30 516.89 1104.60 397.60 1248.92 395.10 1165.32 503.44 1142.76 566.50 1262.61 564.54
00018385 00000020 1034.05 175.06 353.78 514.66 1104.06 397.95 1249.89 395.45 1165.11 504.14 1141.63 566.51 1262.39 564.62
00018386 00000021 1036.27 173.09 352.18 516.76 1105.98 397.55 1251.46 394.61 1167.37 503.47 1144.58 567.43 1264.05 565.14
00018387 00000022 1043.22 166.98 353.23 519.46 1106.15 396.33 1249.12 390.16 1166.95 504.53 1145.35 574.83 1264.90 569.01
00018388 00000023 1046.04 165.47 350.96 520.59 1108.43 395.55 1249.83 389.86 1170.23 505.76 1148.55 574.99 1265.43 569.56
00018389 00000024 1046.11 167.00 342.37 526.56 1110.02 392.43 1259.15 393.78 1174.91 506.66 1151.53 567.56 1270.95 568.29
00018390 00000025 1047.31 168.01 343.39 526.08 1113.30 393.25 1264.85 394.36 1182.05 506.77 1154.94 570.03 1274.30 570.48
00018391 00000026 1049.03 162.43 343.90 532.95 1119.85 394.07 1269.63 394.27 1194.36 507.07 1162.36 571.21 1279.44 570.82
00018392 00000027 1051.94 157.75 346.17 540.43 1125.65 394.78 1276.16 392.55 1204.71 505.13 1168.68 572.30 1286.40 570.07
00018393 00000028 1052.24 156.17 349.82 541.15 1130.35 394.11 1282.07 389.77 1213.02 504.37 1176.22 572.44 1292.94 568.73
00018394 00000029 1052.21 161.37 352.05 530.48 1135.41 395.39 1287.72 387.39 1221.67 504.57 1186.30 573.26 1300.03 566.65
00018395 00000030 1053.86 161.99 354.44 528.69 1140.53 397.11 1292.59 386.99 1230.76 505.59 1195.85 573.47 1308.05 565.08
00018396 00000031 1055.78 157.87 355.25 543.22 1146.32 397.62 1293.11 387.00 1238.72 505.97 1206.38 579.99 1312.33 571.22
00018397 00000032 1058.13 155.95 355.29 550.92 1150.09 400.29 1297.80 388.09 1245.42 507.75 1208.89 581.94 1319.32 571.80
00018398 00000033 1062.04 153.53 353.71 544.85 1156.36 402.75 1301.25 390.76 1250.41 508.26 1214.09 579.09 1321.16 568.89
00018399 00000034 1062.68 156.29 355.40 533.18 1159.42 402.99 1306.43 389.68 1255.29 508.79 1219.32 578.79 1325.14 567.28
00018400 00000035 1063.57 156.64 354.33 535.58 1159.42 402.51 1305.83 389.91 1254.69 509.67 1218.97 579.42 1324.81 568.46
00018401 00000036 1064.21 155.25 353.33 545.89 1157.93 401.71 1301.18 391.36 1250.19 509.76 1217.99 583.42 1320.37 574.54
00018402 00000037 1065.25 156.06 353.59 547.70 1155.22 403.56 1300.76 394.06 1246.88 512.42 1213.11 583.23 1321.17 574.80
00018403 00000038 1065.56 160.07 355.12 534.87 1153.45 406.14 1302.51 396.21 1243.82 513.76 1208.52 576.57 1322.94 567.50
00018404 00000039 1064.09 160.26 356.79 525.39 1150.23 405.87 1304.07 396.53 1239.94 512.98 1203.33 572.36 1323.19 563.69
00018405 00000040 1064.42 161.96 355.02 523.58 1147.60 404.54 1301.07 397.16 1233.96 513.64 1196.94 570.16 1317.80 563.28
00018406 00000041 1066.13 162.99 352.84 524.21 1144.25 401.49 1296.10 397.89 1226.66 511.74 1191.15 568.85 1310.68 565.26
00018407 00000042 1064.04 161.98 351.78 527.56 1139.20 398.67 1291.82 398.37 1218.11 511.44 1181.17 568.80 1301.04 568.19
00018408 00000043 1060.87 161.05 350.28 529.54 1133.38 395.83 1287.33 396.92 1209.48 508.96 1171.03 567.13 1294.34 567.61
00018409 00000044 1058.37 162.50 347.72 531.64 1126.95 394.10 1279.55 396.44 1197.48 509.70 1161.84 566.22 1285.63 567.67
00018410 00000045 1055.92 163.10 346.51 534.90 1118.63 395.56 1266.65 399.49 1180.79 510.59 1154.86 567.17 1275.43 569.81
00018411 00000046 1050.67 173.63 346.35 526.69 1108.91 395.86 1255.53 400.19 1165.12 510.69 1146.40 569.79 1264.05 572.80
00018412 00000047 1047.19 174.86 353.75 513.05 1102.86 400.92 1242.19 395.56 1153.83 514.48 1140.55 578.92 1257.22 573.83
00018413 00000048 1043.51 175.72 352.64 510.44 1096.45 400.20 1235.02 395.82 1143.78 516.39 1133.99 580.34 1249.53 576.28
00018414 00000049 1041.95 174.36 350.96 511.47 1092.31 398.27 1227.19 395.07 1135.09 515.53 1127.74 580.13 1241.02 577.11
00018415 00000050 1036.48 182.19 348.88 506.05 1086.35 396.37 1224.45 397.69 1131.31 513.04 1126.92 571.63 1236.64 573.27
00018416 00000051 1034.57 180.04 349.09 508.28 1082.53 395.60 1221.09 398.70 1125.39 512.54 1121.18 571.08 1231.66 574.12
00018417 00000052 1035.20 177.47 347.62 515.10 1081.16 395.15 1217.54 397.96 1122.24 511.79 1119.34 573.78 1228.04 576.74
00018418 00000053 1034.23 176.64 348.01 521.02 1081.09 394.04 1214.37 396.98 1121.58 511.13 1120.88 575.08 1226.73 577.93
00018419 00000054 1033.38 175.80 348.21 525.58 1080.27 394.58 1213.46 396.44 1121.22 512.32 1120.69 577.52 1226.90 579.44
00018420 00000055 1032.93 174.60 348.17 526.42 1079.72 394.27 1214.09 396.52 1120.99 513.34 1120.47 579.52 1225.80 581.83
00018421 00000056 1031.68 175.43 349.04 522.51 1078.75 393.36 1215.04 396.02 1119.87 513.22 1118.90 578.94 1224.32 581.73
00018422 00000057 1031.57 172.93 348.55 523.92 1078.54 392.07 1215.22 395.58 1118.60 513.04 1117.19 577.45 1222.95 581.07
00018423 00000058 1031.57 173.33 348.78 524.16 1078.41 391.03 1214.33 394.96 1117.45 511.36 1115.16 575.01 1221.95 579.13
00018424 00000059 1031.60 173.46 348.79 525.02 1078.48 390.64 1212.84 393.41 1117.03 509.35 1114.87 574.18 1221.55 577.31
00018425 00000060 1031.74 174.18 349.13 523.45 1079.22 390.64 1212.83 393.02 1116.47 506.69 1114.03 571.50 1222.04 574.24
00018426 00000061 1032.47 173.51 348.86 523.42 1079.43 389.55 1212.78 392.14 1115.19 504.98 1112.70 569.66 1221.67 572.47
00018427 00000062 1033.28 171.98 347.22 523.90 1079.57 388.34 1212.27 391.63 1114.25 503.57 1111.66 567.43 1221.35 570.78
00018428 00000063 1032.82 170.45 348.82 524.01 1079.18 388.38 1212.04 390.61 1112.86 501.79 1110.05 567.08 1220.03 569.60
00018429 00000064 1033.66 169.01 348.02 523.63 1079.87 386.83 1211.88 389.66 1112.02 499.77 1109.99 565.00 1218.60 568.04
00018430 00000065 1034.69 168.63 348.86 522.87 1078.65 384.13 1210.03 386.29 1108.87 497.66 1108.98 564.68 1216.64 567.19
00018431 00000066 1034.70 164.69 348.69 525.78 1077.40 382.55 1209.08 385.10 1106.34 496.93 1107.59 563.00 1216.52 565.72
00018432 00000067 1034.12 162.96 348.33 526.57 1075.95 381.47 1208.24 384.83 1103.15 494.92 1105.23 561.84 1214.77 565.17
00018433 00000068 1035.05 163.31 346.78 528.35 1075.32 381.98 1206.51 384.69 1101.19 494.96 1104.34 562.52 1213.58 565.42
00018434 00000069 1034.24 163.57 347.17 527.92 1073.73 380.62 1205.02 384.61 1098.77 496.42 1103.33 562.11 1213.36 565.80
00018435 00000070 1033.07 162.58 350.51 527.79 1075.30 383.13 1207.73 380.78 1103.60 496.89 1105.41 567.88 1218.61 563.18
00018436 00000071 1030.93 164.54 350.23 525.83 1072.14 383.75 1205.55 380.70 1098.87 496.01 1101.93 569.47 1215.23 564.26
00018437 00000072 1026.06 166.25 350.25 524.05 1068.69 384.36 1202.91 382.52 1092.68 493.18 1095.02 568.31 1209.71 564.36
00018438 00000073 1025.28 165.99 347.67 529.24 1061.65 380.49 1192.90 384.33 1081.67 492.11 1090.82 564.22 1201.13 567.15
00018439 00000074 1024.23 168.32 347.68 531.10 1060.78 383.00 1191.73 383.56 1080.18 492.45 1093.23 563.17 1210.27 563.16
00018440 00000075 1025.68 168.13 345.47 534.30 1060.77 385.46 1192.26 382.13 1081.61 493.64 1098.36 566.40 1218.01 563.05
00018441 00000076 1027.82 170.60 345.77 536.28 1062.40 387.08 1195.12 383.37 1084.60 495.84 1101.26 568.74 1222.93 565.20
00018442 00000077 1030.71 171.46 344.70 537.60 1065.94 387.87 1199.45 385.67 1089.87 498.75 1104.69 569.51 1227.67 567.22
00018443 00000078 1031.35 172.99 344.70 531.09 1067.36 386.60 1204.53 387.18 1094.28 502.13 1105.15 567.23 1229.34 567.36
00018444 00000079 1030.19 175.96 346.84 522.43 1067.93 388.03 1205.45 391.24 1096.09 503.75 1102.23 563.54 1226.25 565.77
00018445 00000080 1028.74 177.55 348.83 514.14 1067.11 387.58 1204.68 393.85 1094.52 504.24 1098.09 562.09 1217.59 566.86
00018446 00000081 1029.47 172.01 348.24 519.83 1070.23 390.36 1205.49 389.41 1100.31 508.02 1098.47 571.34 1220.41 567.00
00018447 00000082 1027.82 172.48 347.03 519.54 1069.25 390.65 1204.45 390.49 1099.00 508.98 1097.80 573.35 1216.14 569.91
00018448 00000083 1028.56 172.10 346.72 520.43 1070.43 390.68 1206.19 390.61 1100.68 509.24 1098.52 574.20 1216.71 571.02
00018449 00000084 1028.91 171.49 346.48 521.60 1070.84 391.94 1207.30 391.03 1102.76 511.37 1099.74 576.49 1218.13 572.57
00018450 00000085 1030.02 172.13 347.33 519.82 1071.74 392.34 1207.59 390.13 1104.45 510.35 1102.91 576.59 1221.19 571.53
00018451 00000086 1031.82 175.25 347.19 517.45 1072.70 388.55 1209.28 397.06 1103.45 508.26 1101.16 567.70 1213.48 574.90
00018452 00000087 1032.33 175.76 347.23 516.64 1073.60 389.19 1210.82 396.83 1105.30 507.77 1101.48 567.84 1214.47 574.46
00018453 00000088 1033.20 173.29 348.56 518.28 1074.92 393.52 1211.73 389.93 1109.57 511.06 1105.26 577.50 1222.98 571.50
00018454 00000089 1032.42 176.59 347.45 517.35 1072.50 388.82 1209.59 397.65 1102.88 509.01 1098.88 568.20 1212.56 575.80
00018455 00000090 1031.57 172.72 346.85 520.40 1073.34 391.70 1209.79 390.27 1105.95 511.27 1102.37 577.19 1220.60 572.90
00018456 00000091 1031.57 173.43 346.12 522.04 1074.24 391.92 1208.54 390.01 1106.11 509.55 1104.51 577.86 1219.39 573.23
00018457 00000092 1034.47 176.50 346.48 517.17 1076.39 389.03 1207.53 395.34 1102.53 509.42 1099.84 576.27 1211.56 581.85
00018458 00000093 1036.06 175.96 345.14 519.16 1077.85 389.96 1208.63 395.92 1104.00 509.41 1100.81 575.90 1213.94 581.16
00018459 00000094 1038.90 176.86 344.82 518.46 1080.64 389.46 1210.70 394.51 1107.73 507.45 1104.15 575.74 1216.60 580.31
00018460 00000095 1040.49 176.94 344.98 517.52 1082.03 389.42 1213.02 392.73 1110.27 505.50 1106.90 574.89 1220.87 578.01
00018461 00000096 1042.86 174.02 344.92 518.26 1083.91 388.75 1215.56 391.88 1112.14 502.58 1108.48 573.37 1224.20 576.15
00018462 00000097 1037.61 171.90 353.10 522.64 1078.99 389.40 1222.37 390.22 1118.44 505.11 1114.39 573.31 1227.50 575.11
00018463 00000098 1044.05 175.51 349.58 513.90 1088.67 390.23 1220.47 390.23 1118.95 499.84 1114.14 572.29 1231.22 572.32
00018464 00000099 1044.16 173.17 350.89 515.25 1090.38 389.74 1223.62 388.16 1122.43 497.32 1116.80 570.61 1235.19 569.47
00018465 00000100 1039.97 166.93 354.11 528.36 1085.52 387.31 1226.40 383.48 1126.95 497.58 1121.81 571.04 1236.10 569.00
00018466 00000101 1040.19 166.53 352.71 531.25 1087.51 386.86 1227.73 382.10 1128.98 497.22 1124.95 571.94 1238.89 568.78
00018467 00000102 1041.10 165.49 353.32 532.65 1088.26 387.52 1229.97 380.09 1131.00 496.53 1129.29 573.40 1245.93 567.76
00018468 00000103 1041.78 165.01 353.63 531.90 1090.29 385.62 1231.15 377.45 1132.37 493.04 1131.96 572.17 1246.01 565.76
00018469 00000104 1042.30 160.24 353.21 532.69 1090.61 384.63 1231.01 371.83 1132.20 487.24 1135.26 574.44 1242.49 564.36
00018470 00000105 1048.60 154.01 352.49 535.70 1098.02 381.84 1229.90 372.94 1132.29 483.83 1142.97 570.12 1238.75 560.78
00018471 00000106 1048.51 150.97 351.85 532.84 1097.28 381.88 1230.57 373.77 1133.04 486.42 1138.38 566.34 1243.51 557.33
00018472 00000107 1049.62 149.98 349.55 526.43 1097.41 379.14 1233.05 371.61 1136.26 486.98 1136.00 561.64 1251.06 553.02
00018473 00000108 1050.78 147.90 347.52 524.26 1099.55 377.10 1236.24 369.60 1138.76 481.87 1134.16 555.65 1253.37 547.03
00018474 00000109 1049.20 144.78 347.84 527.20 1099.38 374.26 1237.88 366.17 1140.55 478.08 1133.61 553.46 1253.52 544.42
00018475 00000110 1049.93 144.94 345.87 523.29 1101.64 374.26 1236.48 364.70 1140.74 472.96 1139.06 553.76 1248.64 543.46
00018476 00000111 1050.22 143.89 345.44 523.58 1103.02 373.45 1238.42 363.53 1143.51 471.92 1139.24 551.71 1251.30 541.10
00018477 00000112 1049.09 143.30 345.69 523.95 1103.28 374.00 1238.42 363.55 1145.33 471.21 1141.02 550.78 1251.97 539.65
00018478 00000113 1048.88 145.37 344.71 521.16 1103.97 374.71 1237.80 363.13 1147.14 471.01 1144.87 550.92 1253.44 538.65
00018479 00000114 1049.48 146.02 345.04 520.68 1105.05 373.52 1239.80 362.37 1149.35 470.87 1145.57 549.44 1255.42 537.56
00018480 00000115 1048.02 146.47 346.74 520.17 1103.80 373.79 1239.42 360.46 1150.70 469.06 1147.08 549.49 1256.45 535.74
00018481 00000116 1047.85 148.26 346.67 517.13 1104.19 373.02 1238.87 358.96 1151.15 467.47 1149.59 549.40 1256.23 535.05
00018482 00000117 1046.69 149.62 346.30 514.14 1104.05 371.48 1237.14 355.83 1151.56 464.79 1152.45 548.33 1255.33 532.67
00018483 00000118 1043.15 156.13 347.17 501.32 1101.14 374.52 1236.12 360.32 1151.91 471.87 1145.63 547.22 1250.75 537.08
00018484 00000119 1041.25 151.65 347.61 505.85 1099.66 375.85 1234.45 359.51 1151.01 470.47 1146.10 548.67 1251.18 536.67
00018485 00000120 1037.68 151.23 349.86 506.49 1097.54 376.30 1232.18 359.33 1149.41 469.83 1144.89 548.97 1249.95 536.26
00018486 00000121 1035.00 152.13 350.98 504.66 1095.46 376.18 1229.42 358.09 1148.13 469.38 1144.61 548.59 1248.93 534.74
00018487 00000122 1031.51 150.24 354.58 505.46 1093.96 375.83 1228.53 356.69 1148.56 468.61 1144.68 548.06 1249.84 533.19
00018488 00000123 1028.86 148.33 356.69 507.42 1091.70 375.70 1227.44 356.12 1147.40 468.49 1142.46 548.19 1248.23 532.86
00018489 00000124 1026.87 151.75 359.04 505.23 1089.59 376.76 1225.51 356.18 1144.93 468.81 1140.78 548.83 1247.27 532.43
00018490 00000125 1022.83 154.25 361.82 502.11 1086.98 377.28 1223.03 355.50 1143.25 469.37 1140.61 550.82 1245.40 533.21
00018491 00000126 1019.94 152.87 363.33 503.56 1084.64 376.17 1220.75 356.03 1139.76 469.10 1137.70 552.30 1240.63 536.08
00018492 00000127 1017.91 153.17 364.62 504.30 1082.27 374.79 1218.32 357.67 1135.51 471.07 1133.70 552.84 1235.37 539.04
00018493 00000128 1019.21 156.27 364.04 499.19 1079.69 374.54 1215.38 361.86 1128.70 474.69 1127.28 551.76 1227.35 541.51
00018494 00000129 1019.10 155.09 362.45 502.99 1077.38 375.30 1212.39 361.57 1124.49 475.46 1126.54 553.59 1226.28 542.32
00018495 00000130 1016.12 153.14 363.04 507.59 1076.05 375.72 1211.16 360.25 1123.07 475.13 1128.54 555.90 1226.57 543.21
00018496 00000131 1014.14 153.40 363.27 511.29 1071.97 379.10 1208.79 362.10 1118.65 476.29 1124.90 557.91 1226.32 543.80
00018497 00000132 1012.40 150.77 363.58 515.73 1069.97 380.46 1206.90 364.70 1115.00 478.68 1122.44 558.78 1225.98 545.40
00018498 00000133 1012.01 149.77 360.97 519.86 1068.29 381.46 1204.92 366.48 1113.47 481.86 1121.87 560.77 1225.67 547.90
00018499 00000134 1010.21 151.52 361.77 521.57 1067.20 383.64 1204.68 367.44 1113.44 484.00 1122.11 563.51 1227.68 549.62
00018500 00000135 1009.30 151.85 360.57 523.81 1065.53 385.17 1203.09 369.67 1111.68 487.16 1121.04 565.10 1227.26 551.75
00018501 00000136 1008.46 154.30 361.60 522.73 1065.47 387.09 1203.42 371.99 1112.58 489.35 1120.24 565.54 1228.17 552.34
00018502 00000137 1008.76 156.13 361.56 522.80 1065.58 389.27 1203.65 375.05 1112.05 491.77 1119.37 565.90 1228.69 553.48
00018503 00000138 1008.87 155.17 362.09 525.68 1064.95 390.80 1204.49 377.12 1113.09 493.79 1118.65 566.85 1230.54 554.78
00018504 00000139 1008.82 158.93 363.40 522.54 1064.82 391.98 1204.84 379.40 1112.86 495.87 1117.55 566.39 1230.92 555.09
00018505 00000140 1009.45 158.80 362.89 522.97 1065.99 391.12 1205.19 380.47 1113.49 496.99 1117.74 566.36 1229.87 556.70
00018506 00000141 1010.82 159.18 362.40 523.58 1066.77 390.72 1205.92 381.18 1113.33 497.64 1117.34 566.10 1230.14 557.29
00018507 00000142 1011.36 161.58 363.48 521.43 1067.20 391.55 1207.78 383.19 1114.63 499.50 1116.48 565.97 1230.94 558.06
00018508 00000143 1011.67 161.39 362.65 519.81 1067.96 391.78 1209.48 383.50 1116.18 498.87 1116.71 564.68 1232.10 556.95
00018509 00000144 1012.62 161.74 364.18 519.17 1068.25 392.05 1211.24 383.29 1116.98 499.49 1117.60 565.25 1234.40 557.11
00018510 00000145 1014.89 161.20 362.18 521.70 1069.57 393.89 1214.02 385.71 1118.03 502.19 1117.87 567.76 1236.02 560.31
00018511 00000146 1017.20 164.27 361.37 521.18 1071.26 391.49 1213.64 383.95 1118.41 501.97 1118.86 570.19 1232.60 563.70
00018512 00000147 1020.33 160.93 358.73 524.75 1072.13 391.66 1214.94 384.62 1119.48 502.29 1119.60 572.06 1232.62 566.16
00018513 00000148 1021.95 162.93 357.86 521.53 1073.90 391.59 1216.93 386.45 1121.26 503.42 1120.04 572.21 1231.55 568.06
00018514 00000149 1024.21 162.06 356.10 522.41 1075.40 390.13 1218.39 387.68 1122.53 504.69 1120.20 571.02 1231.77 569.10
00018515 00000150 1026.17 166.03 356.04 520.20 1077.31 390.52 1218.91 389.31 1124.20 506.32 1122.53 571.96 1232.04 571.23
00018516 00000151 1029.90 169.15 353.39 520.82 1079.48 391.22 1218.24 390.10 1124.63 508.48 1124.60 572.92 1232.25 572.52
00018517 00000152 1031.99 168.05 353.06 522.43 1082.03 390.36 1219.61 390.20 1126.06 508.20 1125.65 571.87 1233.11 572.35
00018518 00000153 1034.77 169.86 352.10 520.25 1084.49 390.16 1221.18 389.91 1126.96 506.50 1126.17 569.99 1233.69 570.49
00018519 00000154 1037.25 169.45 350.82 521.33 1085.78 390.06 1222.10 391.96 1126.51 507.34 1126.30 567.38 1236.04 569.42
00018520 00000155 1038.98 171.24 349.12 518.67 1085.87 392.21 1222.45 394.94 1126.62 509.44 1125.60 567.29 1236.35 569.84
00018521 00000156 1040.96 170.71 353.12 516.24 1087.14 393.81 1223.69 394.05 1125.94 512.18 1119.28 573.70 1240.04 573.05
00018522 00000157 1041.17 175.83 350.88 515.77 1086.68 396.63 1221.79 397.61 1123.70 517.32 1118.56 574.85 1239.56 574.53
00018523 00000158 1040.95 180.64 350.54 517.06 1086.16 398.50 1219.58 400.77 1121.30 522.04 1118.56 578.54 1238.54 578.95
00018524 00000159 1040.15 188.93 348.90 514.59 1086.53 401.96 1217.41 406.07 1119.58 526.38 1119.05 582.14 1235.42 584.46
00018525 00000160 1039.46 190.88 349.49 518.82 1084.91 404.80 1215.83 408.85 1116.82 528.95 1120.92 587.14 1236.82 589.54
00018526 00000161 1041.49 191.62 346.75 519.71 1085.99 407.21 1215.80 411.79 1117.14 531.88 1121.58 589.68 1235.41 592.75
00018527 00000162 1040.58 189.29 348.02 523.32 1084.96 408.33 1215.56 413.86 1116.10 535.21 1120.69 594.76 1232.29 598.72
