Video ID: 	bnHRhYr4ziw
H: 	2160
W: 	3840
FPS: 	23.976023976023978

FRAME INDEX X0 Y0 W H [Landmarks (5 Points)]

00004613 00000000 2017.38 253.04 595.54 816.83 2107.13 526.16 2381.12 503.77 2209.10 637.83 2132.23 826.96 2370.27 809.84
00004614 DELETE   2008.49 259.75 598.55 794.47 2095.33 527.39 2368.94 502.38 2198.02 641.61 2119.84 825.21 2366.12 805.67
00004615 00000002 1994.06 258.53 604.36 791.12 2086.01 528.28 2357.96 503.83 2188.80 640.13 2109.51 823.52 2354.45 804.16
00004616 DELETE   1984.36 253.87 607.83 795.76 2078.67 525.42 2346.73 502.72 2176.43 637.44 2102.63 820.86 2339.79 802.79
00004617 00000004 1977.81 255.50 605.54 802.25 2067.92 525.67 2335.10 498.09 2165.30 633.15 2100.82 826.31 2332.35 803.48
00004618 00000005 1971.27 262.26 606.89 805.94 2057.42 529.25 2325.23 493.97 2155.00 634.56 2096.50 833.32 2328.06 802.92
00004619 00000006 1965.17 259.68 608.33 813.41 2050.81 529.75 2316.92 493.03 2146.09 632.35 2091.83 838.77 2315.72 807.48
00004620 00000007 1963.79 260.84 607.65 815.35 2049.53 525.58 2314.99 490.90 2144.58 629.99 2090.00 837.64 2314.67 808.05
00004621 00000008 1961.39 261.73 608.85 814.80 2047.88 524.24 2312.99 489.30 2142.34 630.39 2088.54 836.67 2315.74 806.45
00004622 00000009 1960.39 264.00 609.87 813.45 2046.62 523.06 2312.59 488.50 2140.31 631.35 2087.65 836.14 2317.15 806.12
00004623 00000010 1961.03 259.02 609.99 817.34 2047.45 523.08 2311.66 487.97 2140.33 629.47 2087.09 834.76 2315.62 804.37
00004624 00000011 1961.23 261.42 610.55 811.05 2048.26 520.76 2312.20 485.72 2141.18 626.83 2088.06 833.97 2314.20 803.82
00004625 00000012 1962.24 258.66 610.67 822.50 2047.26 518.51 2315.08 481.27 2141.56 623.18 2089.29 835.66 2322.98 802.79
00004626 00000013 1965.20 258.93 609.69 828.63 2047.80 516.28 2317.19 477.91 2142.27 619.17 2093.20 838.56 2322.80 804.78
00004627 00000014 1964.73 256.53 611.57 829.72 2047.85 516.39 2315.67 477.41 2140.18 617.77 2090.97 838.01 2321.73 803.78
00004628 00000015 1964.13 249.57 612.83 839.14 2047.23 516.53 2315.66 476.92 2139.79 616.41 2092.19 837.99 2321.34 803.27
00004629 00000016 1965.94 236.92 612.47 846.72 2048.47 514.02 2317.89 474.34 2142.86 615.24 2092.66 834.55 2323.23 799.80
00004630 00000017 1967.91 228.84 612.01 829.43 2051.82 514.83 2319.11 470.92 2145.89 605.18 2088.71 824.44 2319.62 786.78
00004631 00000018 1970.66 223.42 611.47 807.80 2055.62 505.35 2320.59 465.47 2146.95 596.93 2090.95 805.81 2310.64 772.60
00004632 00000019 1972.19 222.62 606.70 798.08 2055.76 497.73 2321.70 453.92 2147.89 581.20 2090.19 795.46 2316.15 758.14
00004633 00000020 1973.96 224.42 605.02 786.29 2057.19 481.99 2324.29 438.61 2153.52 574.56 2094.78 783.28 2318.61 745.85
00004634 00000021 1977.95 224.39 598.80 771.79 2053.87 483.27 2326.13 437.49 2154.89 562.59 2098.06 774.92 2320.52 737.24
00004635 00000022 1979.97 226.50 594.90 767.90 2052.38 475.64 2326.24 430.25 2155.72 559.37 2096.30 770.18 2321.33 732.74
00004636 00000023 1972.75 226.46 601.19 787.62 2057.83 468.90 2323.06 421.94 2155.38 555.80 2098.58 773.22 2320.79 731.69
00004637 00000024 1971.59 228.28 603.20 784.27 2059.18 468.33 2322.84 421.66 2156.54 556.21 2098.55 770.34 2323.68 728.71
00004638 00000025 1972.73 226.83 603.78 781.34 2060.14 464.74 2323.07 419.65 2157.17 551.90 2099.08 766.74 2323.01 726.69
00004639 00000026 1980.31 233.54 593.85 756.54 2058.83 470.53 2326.33 422.79 2157.72 545.65 2098.57 761.55 2326.56 721.58
00004640 00000027 1980.76 228.39 595.52 755.92 2060.25 469.47 2327.45 422.13 2159.57 546.40 2099.20 758.45 2327.46 718.99
00004641 00000028 1979.85 227.40 595.56 751.57 2059.63 470.12 2326.63 423.36 2160.60 548.32 2098.60 755.58 2326.18 716.83
00004642 00000029 1979.92 228.67 594.45 758.23 2059.09 471.46 2326.46 424.56 2160.83 550.04 2099.63 758.40 2326.88 719.41
00004643 00000030 1981.38 227.87 595.08 764.10 2058.21 474.04 2329.56 426.06 2161.95 551.76 2098.35 762.37 2327.50 722.78
00004644 00000031 1982.76 229.31 591.33 762.05 2058.69 473.27 2331.31 427.65 2164.52 554.95 2101.01 767.01 2326.95 729.43
00004645 00000032 1977.65 225.82 602.21 781.98 2063.24 469.53 2332.98 425.56 2168.43 564.38 2104.88 771.46 2327.21 733.51
00004646 00000033 1979.65 224.26 602.25 785.74 2065.73 474.01 2336.79 428.89 2170.03 566.50 2104.07 773.16 2333.46 734.08
00004647 00000034 1984.10 225.32 603.18 780.79 2069.92 476.38 2342.03 431.74 2172.86 569.71 2105.60 774.64 2337.23 736.39
00004648 00000035 1992.79 227.39 596.30 767.87 2074.57 478.30 2353.64 438.20 2180.76 566.33 2112.28 768.05 2347.59 735.79
00004649 00000036 1993.63 236.90 599.50 765.12 2083.69 471.75 2354.98 433.39 2187.77 569.59 2118.78 768.94 2345.23 736.19
00004650 00000037 2002.95 232.57 588.79 763.69 2085.04 478.10 2364.87 441.80 2195.32 567.67 2125.38 766.63 2352.79 738.41
00004651 00000038 2005.12 230.69 588.47 770.32 2088.59 475.94 2371.97 440.71 2205.22 569.17 2131.49 766.69 2357.32 739.60
00004652 00000039 2002.17 224.20 594.72 789.75 2095.08 470.59 2368.81 430.19 2206.76 567.53 2135.02 772.29 2359.20 737.97
00004653 00000040 2005.00 224.62 594.42 789.80 2098.74 468.79 2370.59 428.03 2210.60 566.45 2138.74 771.87 2363.23 737.19
00004654 00000041 2012.63 223.71 587.34 779.67 2096.62 471.17 2382.92 433.63 2213.32 561.66 2141.38 767.18 2371.69 737.56
00004655 00000042 2014.55 223.06 586.23 774.88 2099.88 466.56 2384.18 431.07 2216.91 558.24 2143.06 762.34 2366.17 735.09
00004656 00000043 2017.33 224.38 597.63 774.15 2106.90 459.77 2382.71 428.55 2218.07 549.79 2148.05 754.71 2372.31 728.59
00004657 00000044 2018.39 218.57 595.82 772.53 2108.15 462.09 2384.27 428.08 2219.76 543.96 2144.94 749.34 2378.50 720.88
00004658 00000045 2018.37 213.59 592.70 754.50 2107.93 463.52 2380.86 426.64 2216.32 542.07 2141.73 747.05 2377.36 716.29
00004659 00000046 2019.16 214.62 592.73 754.97 2110.04 460.08 2381.90 425.54 2217.13 542.35 2140.70 745.01 2378.37 716.27
00004660 00000047 2019.26 218.30 593.66 756.64 2109.95 456.48 2384.66 423.59 2217.64 538.77 2140.67 742.97 2376.26 715.74
00004661 00000048 2019.07 225.10 594.94 760.91 2111.92 454.23 2385.34 424.33 2221.05 540.75 2149.48 740.71 2373.13 716.32
00004662 00000049 2019.56 227.34 593.92 763.68 2111.86 452.25 2384.04 423.45 2220.69 541.77 2150.61 741.90 2370.42 718.42
00004663 00000050 1945.78 314.28 896.62 1138.48 2058.15 646.09 2386.61 592.52 2082.20 767.56 2044.68 1057.49 2340.05 1008.53
00004664 00000051 1946.83 316.73 894.44 1133.92 2058.29 642.26 2389.31 591.25 2086.01 764.28 2043.28 1055.47 2342.01 1009.20
00004665 00000052 1943.05 319.34 895.14 1135.22 2055.04 644.08 2386.76 590.32 2086.48 766.14 2044.55 1057.73 2339.69 1009.09
00004666 00000053 1945.83 323.75 891.67 1129.14 2054.67 641.15 2383.53 589.89 2085.66 767.55 2045.22 1054.24 2340.90 1007.89
00004667 00000054 1947.02 323.95 890.40 1128.14 2052.17 644.34 2388.38 591.26 2086.77 767.82 2041.19 1055.27 2345.78 1007.09
00004668 00000055 1949.94 306.60 883.13 1118.54 2039.72 653.41 2387.99 602.77 2077.68 757.52 2046.73 1066.83 2345.78 1024.67
00004669 00000056 1950.75 305.92 887.17 1125.53 2039.30 655.25 2391.73 601.60 2075.98 752.91 2041.51 1067.29 2347.69 1022.37
00004670 00000057 1949.56 297.31 886.31 1121.56 2033.73 659.31 2390.63 603.20 2074.32 757.71 2041.00 1070.92 2342.35 1024.29
00004671 00000058 1949.98 295.30 883.78 1102.54 2037.04 663.45 2386.12 606.16 2072.22 752.87 2040.16 1060.29 2333.53 1012.67
00004672 00000059 1951.44 293.90 882.70 1084.86 2037.52 668.91 2380.41 611.41 2070.26 746.17 2041.24 1045.83 2336.77 998.04
00004673 00000060 1945.03 291.63 886.09 1077.13 2036.72 670.45 2378.62 617.17 2067.19 740.36 2035.48 1028.36 2338.90 984.07
00004674 00000061 1938.08 295.24 889.78 1070.39 2036.62 678.44 2384.67 627.59 2075.85 737.99 2033.58 1023.22 2340.71 980.63
00004675 00000062 1935.95 287.38 899.02 1080.61 2035.31 678.96 2383.39 626.58 2072.65 741.48 2029.83 1029.21 2331.86 985.68
00004676 00000063 1941.95 295.73 892.92 1097.44 2042.61 669.75 2389.06 621.95 2074.29 740.71 2036.75 1034.43 2339.28 994.39
00004677 00000064 1952.45 298.36 887.01 1119.46 2040.49 659.51 2386.81 612.00 2077.15 748.38 2046.03 1042.29 2360.02 1001.54
00004678 00000065 1950.98 289.88 898.42 1141.51 2039.16 650.75 2392.15 601.21 2079.09 752.80 2043.66 1055.12 2355.96 1013.24
00004679 00000066 1943.32 305.39 903.84 1143.12 2053.88 642.75 2392.96 581.92 2084.25 762.74 2042.32 1050.69 2347.02 997.24
00004680 00000067 1945.57 314.08 898.11 1125.98 2056.15 636.42 2390.84 579.74 2091.44 753.06 2044.86 1039.55 2344.44 990.35
00004681 00000068 1938.67 316.91 899.54 1115.93 2061.47 653.26 2393.16 592.79 2095.30 748.31 2041.81 1038.94 2342.95 987.91
00004682 00000069 1935.51 305.99 902.28 1124.16 2058.95 655.97 2397.89 595.33 2096.27 749.66 2038.43 1037.81 2345.72 986.60
00004683 00000070 1933.61 306.70 901.94 1124.99 2059.07 652.00 2398.35 593.98 2099.34 748.18 2039.17 1034.20 2348.83 985.20
00004684 00000071 1939.27 309.76 896.59 1119.15 2057.92 649.99 2395.82 590.99 2094.40 748.65 2039.12 1036.79 2346.53 985.81
00004685 00000072 1942.81 296.97 891.09 1117.94 2059.61 643.49 2393.08 581.04 2090.58 743.52 2043.37 1031.74 2345.39 978.01
00004686 00000073 1949.40 286.43 892.18 1107.21 2059.44 644.63 2395.79 577.74 2083.98 740.92 2044.61 1026.05 2346.10 968.12
00004687 00000074 1949.51 283.51 893.68 1109.67 2061.47 638.27 2403.83 574.55 2089.11 738.42 2044.83 1020.40 2352.94 965.56
00004688 00000075 1944.74 279.78 898.18 1121.08 2061.71 635.48 2403.63 569.76 2088.02 730.38 2048.43 1018.84 2357.05 963.02
00004689 00000076 1947.82 277.19 895.73 1111.49 2065.29 633.65 2405.77 573.65 2093.77 731.88 2046.88 1011.15 2353.01 959.99
00004690 00000077 1949.82 275.59 893.75 1113.98 2062.89 637.52 2402.90 570.34 2089.96 734.53 2050.31 1020.13 2353.00 963.52
00004691 00000078 1952.03 294.20 891.39 1098.25 2066.11 642.33 2400.03 572.26 2090.72 736.29 2051.81 1022.64 2349.31 963.28
00004692 00000079 1949.34 296.11 901.25 1115.58 2070.06 638.87 2401.59 568.76 2092.34 735.70 2054.88 1031.43 2347.76 971.97
00004693 00000080 1949.86 289.29 903.87 1117.85 2068.83 639.28 2403.81 566.66 2090.60 734.47 2053.63 1027.62 2352.35 966.58
00004694 00000081 1951.90 279.81 903.36 1122.75 2060.92 640.52 2405.04 569.11 2087.35 732.80 2047.80 1029.42 2350.38 970.05
00004695 00000082 1953.50 281.32 902.94 1126.44 2061.31 637.95 2409.54 569.76 2089.99 733.90 2045.49 1026.55 2356.64 969.02
00004696 00000083 1955.62 270.33 898.64 1127.36 2057.20 637.33 2408.18 572.52 2087.41 736.45 2044.24 1024.11 2358.18 968.97
00004697 00000084 1954.21 271.40 901.84 1120.47 2052.92 640.58 2409.17 570.93 2083.48 737.43 2037.63 1021.78 2361.55 962.50
00004698 00000085 1952.15 275.30 893.43 1108.51 2040.55 636.77 2403.00 585.99 2075.53 715.60 2042.68 1012.94 2355.37 969.48
00004699 00000086 1951.19 281.52 889.56 1099.77 2043.48 651.40 2392.63 599.02 2077.76 723.27 2045.69 1021.30 2353.06 977.42
00004700 00000087 1944.67 303.46 887.79 1091.44 2044.29 674.13 2382.85 618.61 2078.35 731.88 2042.83 1025.88 2350.69 979.13
00004701 00000088 1948.10 304.88 888.34 1114.84 2046.47 679.46 2379.58 623.29 2075.92 739.82 2046.33 1036.25 2361.92 989.12
00004702 00000089 1942.84 303.08 882.67 1120.58 2041.51 685.89 2377.34 634.29 2071.50 752.63 2035.96 1053.44 2342.83 1010.38
00004703 00000090 1931.20 289.73 894.21 1164.21 2042.19 681.85 2386.27 617.49 2081.16 779.96 2033.31 1073.95 2346.11 1020.27
00004704 00000091 1930.44 293.37 886.19 1140.19 2016.04 700.21 2356.66 634.60 2053.08 777.16 2026.22 1092.44 2326.38 1037.82
00004705 00000092 1910.33 308.83 894.84 1169.38 2005.49 697.15 2352.63 633.96 2054.02 807.31 2017.29 1107.08 2323.75 1054.15
00004706 00000093 1896.98 325.87 899.74 1165.88 1984.00 720.94 2340.00 671.51 2023.07 849.42 1997.05 1130.66 2317.96 1092.04
00004707 00000094 1875.21 332.21 906.78 1178.48 1966.88 741.98 2330.23 696.69 2008.43 875.70 1988.88 1158.81 2301.93 1123.50
00004708 00000095 1880.12 353.65 904.35 1184.33 1954.69 784.72 2289.61 725.59 2010.15 912.34 1995.43 1205.84 2293.03 1154.88
00004709 00000096 1858.36 380.81 911.11 1185.29 1929.56 809.70 2270.41 742.00 1986.02 949.22 1986.39 1243.75 2289.11 1184.12
00004710 00000097 1847.80 413.88 909.83 1181.42 1912.21 826.87 2257.45 755.87 1967.76 977.54 1984.35 1272.43 2284.67 1211.13
00004711 00000098 1829.95 429.67 911.07 1188.42 1900.79 837.77 2248.83 765.11 1958.93 994.05 1972.24 1292.90 2267.38 1232.02
00004712 00000099 1813.44 441.35 914.78 1189.64 1885.52 845.52 2238.82 781.43 1946.57 1011.06 1955.23 1297.63 2252.34 1244.63
00004713 00000100 1805.81 436.82 918.57 1183.95 1876.96 861.60 2221.80 791.10 1931.76 1016.97 1949.14 1305.45 2234.72 1247.22
00004714 00000101 1779.47 441.19 926.90 1175.88 1866.33 867.33 2228.64 816.65 1939.18 1031.66 1926.49 1297.94 2236.86 1260.08
00004715 00000102 1792.41 445.27 915.27 1157.44 1865.52 868.32 2209.89 804.83 1932.63 1041.00 1942.45 1304.39 2220.93 1252.61
00004716 00000103 1796.19 449.66 910.60 1156.65 1865.16 869.24 2211.52 802.65 1934.51 1043.20 1950.31 1313.87 2227.71 1259.13
00004717 00000104 1801.23 448.39 916.22 1177.15 1869.64 870.95 2217.36 791.79 1938.49 1040.23 1967.89 1333.73 2241.93 1267.74
00004718 00000105 1802.42 446.48 922.04 1170.16 1878.95 868.32 2227.32 793.78 1946.11 1032.93 1968.14 1317.28 2246.92 1255.54
00004719 00000106 1807.80 434.01 925.06 1161.87 1881.85 863.84 2228.35 791.54 1943.40 1021.42 1958.98 1295.41 2238.35 1235.96
00004720 00000107 1816.75 432.26 917.54 1164.33 1890.14 856.41 2234.34 787.58 1949.75 1015.58 1962.01 1295.29 2239.42 1238.27
00004721 00000108 1824.56 424.61 913.58 1171.97 1898.83 848.86 2240.06 783.55 1952.67 1008.76 1968.66 1289.30 2244.54 1235.00
00004722 00000109 1830.23 425.53 918.94 1162.95 1901.30 843.64 2247.28 777.65 1956.45 1003.26 1968.09 1284.44 2250.43 1229.75
00004723 00000110 1834.20 420.66 916.38 1167.27 1903.20 841.95 2250.32 770.68 1958.83 993.05 1971.93 1279.58 2260.36 1220.36
00004724 00000111 1835.14 430.10 918.81 1154.78 1906.57 831.10 2257.13 767.09 1964.20 987.19 1971.15 1270.75 2263.52 1216.88
00004725 00000112 1833.88 431.99 922.26 1153.53 1906.58 830.96 2262.49 765.52 1968.13 985.66 1973.63 1271.93 2263.93 1216.78
00004726 00000113 1840.01 440.39 916.01 1147.21 1910.92 829.74 2261.27 762.72 1969.43 983.68 1979.51 1273.83 2266.97 1216.67
00004727 00000114 1842.74 432.03 918.48 1151.88 1911.96 825.39 2265.90 762.11 1971.23 985.00 1978.47 1272.39 2266.99 1218.43
00004728 00000115 1842.87 435.41 919.90 1146.85 1914.01 827.25 2269.07 761.36 1971.91 980.65 1973.02 1272.36 2258.16 1216.56
00004729 00000116 1841.89 425.39 919.18 1154.94 1920.99 821.66 2273.09 762.51 1973.12 975.92 1971.28 1262.83 2258.85 1212.83
00004730 00000117 1844.74 422.86 912.20 1155.56 1923.80 816.67 2279.11 761.63 1978.37 974.84 1970.69 1262.85 2255.84 1216.44
00004731 00000118 1848.42 416.52 903.30 1165.82 1924.95 813.05 2275.53 756.28 1978.00 967.47 1974.43 1266.26 2255.32 1217.67
00004732 00000119 1852.56 414.86 903.27 1174.59 1929.18 811.82 2275.31 757.09 1980.14 969.58 1983.84 1266.34 2266.18 1218.59
00004733 00000120 1848.96 408.48 913.11 1172.32 1929.40 810.70 2276.94 757.99 1981.33 969.53 1980.88 1258.61 2261.91 1212.86
00004734 00000121 1847.48 403.50 910.60 1167.83 1934.45 810.92 2280.98 758.59 1988.87 962.36 1982.57 1249.76 2268.65 1204.15
00004735 00000122 1846.72 405.86 906.16 1163.83 1933.04 809.53 2274.29 752.40 1987.98 955.08 1979.92 1247.51 2261.52 1198.23
00004736 00000123 1846.97 377.93 901.65 1192.64 1935.41 809.51 2271.65 747.66 1987.44 944.57 1981.88 1239.75 2268.08 1186.87
00004737 00000124 1846.79 357.43 908.76 1208.21 1939.93 801.20 2274.21 740.65 1988.07 933.68 1984.70 1231.84 2270.48 1180.24
00004738 00000125 1857.36 363.07 906.81 1211.24 1944.02 791.66 2276.25 735.18 1991.43 931.71 1985.31 1233.32 2267.78 1184.24
00004739 00000126 1863.17 376.54 903.46 1192.81 1948.94 786.56 2288.66 733.15 2001.36 929.24 1981.83 1232.15 2265.92 1186.09
00004740 00000127 1865.33 365.07 904.26 1209.10 1956.86 788.66 2296.67 735.52 2012.02 929.56 1989.69 1231.62 2279.78 1186.17
00004741 00000128 1856.61 362.24 907.83 1205.09 1964.16 788.92 2311.15 733.07 2018.24 937.60 2012.31 1242.85 2274.19 1197.42
00004742 00000129 1859.07 367.68 904.24 1202.16 1970.20 795.78 2315.66 741.56 2022.21 941.17 2013.12 1247.12 2270.66 1202.96
00004743 00000130 1860.16 364.14 908.81 1214.53 1970.38 793.52 2322.37 738.99 2019.09 940.61 2009.35 1250.58 2271.55 1206.16
00004744 00000131 1864.08 343.58 909.56 1220.37 1974.78 772.65 2323.80 720.23 2023.01 919.98 2014.56 1232.85 2273.66 1189.68
00004745 00000132 1858.65 329.35 917.80 1216.04 1968.69 749.53 2319.05 704.54 2013.52 904.03 2004.06 1211.82 2261.79 1174.93
00004746 00000133 1856.76 326.00 916.55 1226.82 1963.38 749.29 2311.39 699.76 2007.25 898.17 2001.40 1205.13 2272.97 1163.94
00004747 00000134 1850.52 308.91 924.73 1239.12 1957.41 752.71 2313.54 706.39 2010.17 902.45 1998.58 1206.82 2276.61 1168.34
00004748 00000135 1850.22 321.43 921.26 1240.72 1958.80 767.54 2317.74 717.84 2012.21 915.87 1998.49 1221.72 2282.45 1180.08
00004749 00000136 1861.27 330.05 914.78 1238.21 1958.45 772.58 2313.14 722.30 2027.55 915.33 1991.39 1225.81 2284.24 1183.41
00004750 00000137 1859.57 334.44 915.50 1240.55 1966.84 769.47 2325.42 718.95 2022.91 922.06 2015.58 1224.07 2306.43 1180.85
00004751 00000138 1859.64 326.46 919.67 1240.43 1963.42 757.70 2330.06 711.24 2023.40 920.58 2006.11 1213.47 2310.65 1173.98
00004752 00000139 1856.73 330.70 923.89 1219.75 1966.37 752.66 2335.73 704.71 2031.64 906.36 2006.43 1201.14 2306.65 1160.98
00004753 00000140 1856.27 329.50 924.15 1206.59 1964.99 743.63 2336.81 699.52 2029.84 895.30 1997.84 1189.52 2301.16 1153.02
00004754 00000141 1856.76 326.11 920.40 1196.36 1962.61 741.87 2331.48 699.35 2028.69 890.84 1997.11 1177.40 2299.04 1142.46
00004755 00000142 1857.13 333.95 918.49 1168.58 1964.96 742.06 2324.30 699.05 2027.94 882.08 1998.84 1166.05 2289.88 1131.38
00004756 00000143 1858.08 335.00 920.22 1165.50 1964.12 744.36 2322.08 699.35 2018.09 878.24 1991.09 1163.01 2283.92 1126.67
00004757 00000144 1859.38 331.28 919.58 1162.90 1965.98 743.22 2321.57 697.12 2022.53 866.94 1996.61 1151.51 2288.72 1114.31
00004758 00000145 1865.41 321.48 908.40 1169.54 1956.60 746.51 2314.47 694.39 2027.66 862.54 1988.07 1153.06 2289.24 1111.29
00004759 00000146 1867.05 314.71 904.28 1186.10 1953.30 735.89 2307.51 681.95 2022.12 853.25 1991.71 1155.80 2287.88 1112.07
00004760 00000147 1863.25 312.10 913.35 1187.73 1967.14 732.28 2311.61 677.42 2025.43 851.47 1987.42 1158.65 2269.63 1113.47
00004761 00000148 1866.41 322.01 903.27 1163.82 1958.50 721.25 2310.29 673.62 2024.93 835.56 1990.11 1138.51 2278.08 1100.11
00004762 00000149 1867.37 319.03 908.53 1167.18 1969.82 719.51 2310.19 667.35 2024.96 841.66 1986.88 1144.09 2269.97 1100.47
00004763 00000150 1869.66 316.05 906.66 1176.51 1973.89 724.10 2312.20 666.25 2026.94 837.98 1991.66 1148.14 2279.41 1099.28
00004764 00000151 1881.39 329.27 892.31 1161.83 1965.51 714.37 2307.00 667.81 2025.07 830.42 1999.05 1133.60 2297.17 1093.86
00004765 00000152 1881.09 323.21 895.68 1169.72 1970.12 715.29 2312.40 670.31 2030.76 834.95 2000.99 1133.47 2298.02 1095.63
00004766 00000153 1876.39 314.08 896.45 1177.94 1965.11 716.75 2315.73 670.40 2033.09 837.93 1995.78 1138.31 2299.46 1099.94
00004767 00000154 1874.64 319.55 896.59 1164.71 1963.91 720.97 2313.31 672.58 2032.91 840.40 1994.74 1135.31 2296.96 1095.24
00004768 00000155 1877.00 310.19 898.54 1175.27 1963.73 720.65 2310.10 672.92 2027.12 845.24 1993.83 1136.99 2294.19 1097.54
00004769 00000156 1875.96 320.29 896.44 1162.81 1964.30 718.28 2311.31 670.82 2031.24 837.57 1994.78 1132.92 2298.15 1093.30
00004770 00000157 1875.17 322.53 898.59 1159.27 1966.62 716.63 2312.67 668.56 2036.90 833.47 1994.90 1127.73 2298.36 1087.95
00004771 00000158 1875.61 327.22 901.23 1151.63 1973.16 714.03 2315.63 664.23 2042.90 828.89 2003.20 1125.14 2303.49 1083.49
00004772 00000159 1880.12 319.44 900.68 1168.13 1974.55 713.64 2318.73 664.88 2042.21 832.06 2003.77 1130.83 2303.60 1090.06
