Video ID: 	amgelc5qA0Q
H: 	1080
W: 	1920
FPS: 	25.0

FRAME INDEX X0 Y0 W H [Landmarks (5 Points)]

00003991 00000000 908.02 141.19 384.34 575.13 962.19 372.29 1120.48 373.67 999.30 476.03 973.88 555.47 1121.72 556.43
00003992 DELETE   895.48 151.69 393.08 566.11 951.88 370.78 1113.58 375.81 995.70 486.97 971.79 562.13 1114.83 565.85
00003993 DELETE   885.70 174.11 394.06 557.16 941.69 385.78 1105.02 394.63 984.34 505.47 966.56 583.01 1101.60 589.45
00003994 DELETE   882.33 179.36 395.62 575.02 941.61 409.73 1098.22 410.37 977.31 514.75 964.98 600.28 1100.53 599.54
00003995 00000004 877.44 184.61 388.67 566.01 937.95 415.65 1081.49 412.63 973.03 522.70 965.09 603.72 1095.39 599.80
00003996 00000005 874.59 183.37 388.75 564.76 935.78 409.36 1079.19 409.10 968.79 517.24 960.02 600.71 1089.99 599.41
00003997 00000006 870.95 173.19 391.03 572.99 933.96 399.64 1079.42 404.40 965.15 509.69 953.77 597.14 1086.05 599.96
00003998 00000007 870.33 167.49 386.19 564.71 933.21 394.68 1080.38 404.28 964.47 504.77 943.41 589.71 1076.32 597.28
00003999 00000008 867.74 165.00 385.90 565.28 930.79 392.41 1078.90 403.71 963.22 503.56 939.78 589.74 1070.38 598.99
00004000 00000009 863.91 169.06 388.61 565.48 927.45 394.86 1075.72 408.58 957.74 506.38 934.48 591.69 1064.19 602.60
00004001 00000010 859.24 169.71 393.57 570.66 914.62 398.86 1078.71 410.93 955.60 517.56 932.88 595.97 1067.41 605.88
00004002 00000011 856.82 179.22 391.54 560.56 910.50 405.26 1074.66 415.33 950.66 519.89 927.16 599.82 1061.91 607.95
00004003 00000012 855.97 179.37 390.84 558.94 909.93 403.59 1074.38 415.18 950.01 519.47 924.50 597.87 1061.54 607.23
00004004 00000013 856.65 179.83 392.18 558.59 913.32 398.32 1078.43 414.72 952.22 518.05 925.31 592.68 1064.63 606.08
00004005 00000014 859.70 176.69 392.78 563.44 918.02 396.21 1083.98 415.47 958.52 519.25 928.91 590.87 1069.88 606.59
00004006 00000015 866.16 182.76 391.51 563.95 933.86 398.97 1082.64 417.74 962.73 516.81 939.42 594.41 1074.84 608.89
00004007 00000016 868.99 188.00 393.79 559.13 938.29 400.12 1086.67 418.01 966.64 515.14 943.53 593.99 1077.82 608.04
00004008 00000017 871.86 189.33 391.99 554.70 942.64 405.99 1093.72 424.28 974.06 518.54 946.10 592.80 1082.21 607.55
00004009 00000018 874.60 194.69 393.38 552.35 943.75 419.08 1102.90 439.56 977.37 528.39 944.23 598.27 1086.00 614.81
00004010 00000019 879.37 197.72 396.14 567.24 946.66 420.48 1112.37 443.37 983.30 528.21 943.56 601.04 1089.53 619.27
00004011 00000020 881.88 202.80 392.47 559.09 947.90 424.37 1109.58 440.61 987.92 531.07 949.20 598.77 1097.80 612.15
00004012 00000021 886.70 195.08 395.34 564.05 954.31 411.19 1118.51 436.80 986.62 525.90 950.20 596.28 1092.25 616.48
00004013 00000022 887.98 195.36 396.48 565.10 956.30 407.73 1121.92 434.37 987.27 525.53 951.13 596.24 1094.13 617.49
00004014 00000023 889.06 198.93 394.66 561.46 957.40 407.97 1123.87 434.61 988.88 525.47 951.09 597.16 1094.68 618.43
00004015 00000024 890.17 201.99 393.91 558.25 956.92 408.49 1124.32 435.47 988.57 527.26 951.01 597.57 1095.81 619.06
00004016 00000025 890.55 203.11 396.16 562.51 957.49 410.05 1125.22 437.49 989.99 530.62 950.90 600.97 1096.70 623.18
00004017 00000026 893.03 203.72 396.41 569.25 959.48 411.91 1125.89 440.38 990.47 532.57 952.92 605.92 1096.83 629.37
00004018 00000027 893.26 204.71 395.73 564.17 959.83 413.95 1126.33 444.16 991.04 535.13 950.45 605.32 1095.11 630.08
00004019 00000028 892.07 207.89 399.24 559.76 960.74 419.26 1128.78 449.72 993.23 534.33 952.13 603.54 1098.56 628.18
00004020 00000029 898.29 200.80 394.18 562.83 970.08 421.65 1129.08 452.29 1006.33 534.58 966.07 603.35 1105.91 627.38
00004021 00000030 898.98 204.03 394.43 561.20 971.49 420.59 1130.77 453.53 1006.86 535.96 965.67 604.96 1103.36 631.16
00004022 00000031 899.95 213.95 393.54 558.49 971.18 420.26 1133.58 453.58 1004.28 535.61 964.41 610.54 1101.73 637.48
00004023 00000032 899.02 214.43 394.20 558.77 971.35 422.20 1138.26 456.47 1005.56 539.69 959.10 612.23 1099.59 640.27
00004024 00000033 904.07 221.28 392.73 551.30 975.78 421.95 1141.94 454.40 1012.24 538.22 968.95 616.45 1107.04 642.74
00004025 00000034 906.58 219.19 390.59 550.84 977.30 417.61 1149.22 454.80 1014.50 543.86 965.48 614.48 1107.26 644.70
00004026 00000035 911.77 215.41 388.49 552.42 981.54 413.71 1152.95 452.35 1018.51 544.06 967.92 611.87 1111.41 643.47
00004027 00000036 920.20 214.96 384.35 548.61 988.47 410.72 1158.67 451.05 1026.65 544.81 974.03 608.16 1118.58 641.25
00004028 00000037 925.68 214.91 382.17 545.47 994.55 407.88 1163.60 450.99 1032.01 545.58 978.89 604.48 1122.67 639.89
00004029 00000038 931.75 218.67 384.50 541.50 1007.58 411.12 1169.88 450.88 1038.49 534.68 989.46 603.60 1122.21 635.80
00004030 00000039 939.87 217.21 375.76 537.23 1007.34 413.81 1165.79 449.43 1040.18 536.40 990.15 602.24 1120.84 631.33
00004031 00000040 939.43 219.26 378.43 536.80 1009.30 415.56 1168.65 452.74 1040.91 537.88 990.63 602.91 1124.26 633.32
00004032 00000041 939.12 221.61 378.78 536.18 1010.12 416.81 1169.82 456.13 1040.65 540.26 991.10 603.51 1126.08 635.68
00004033 00000042 937.96 224.69 379.22 534.12 1009.31 419.42 1168.92 458.47 1040.21 541.72 989.87 605.47 1125.97 637.46
00004034 00000043 936.02 227.67 380.33 531.24 1007.93 421.50 1167.85 459.23 1040.28 544.49 989.17 608.30 1124.30 639.17
00004035 00000044 931.08 235.99 386.68 529.68 1006.69 419.76 1171.60 464.26 1040.36 546.74 986.02 609.16 1122.36 644.62
00004036 00000045 932.13 231.82 382.67 533.38 1004.20 425.48 1164.28 462.40 1035.32 549.51 984.63 615.27 1118.28 645.60
00004037 00000046 923.47 232.37 386.60 540.24 994.59 419.42 1165.77 467.80 1032.33 562.55 972.79 613.96 1118.51 654.20
00004038 00000047 928.41 236.23 381.94 537.27 1002.43 430.05 1162.79 467.22 1033.54 553.08 981.68 621.16 1116.71 651.92
00004039 00000048 922.05 242.58 387.06 534.13 996.83 427.31 1160.88 474.37 1026.59 556.13 974.97 617.84 1112.47 655.03
00004040 00000049 918.91 242.08 388.48 538.72 993.76 427.67 1159.34 475.17 1024.12 558.49 971.42 620.13 1111.39 657.73
00004041 00000050 915.81 241.96 390.08 542.34 990.36 428.38 1156.32 476.02 1020.29 560.12 968.73 622.18 1110.01 659.72
00004042 00000051 913.26 245.03 390.22 540.36 986.99 430.42 1152.21 477.52 1016.23 561.88 965.90 623.36 1106.83 660.46
00004043 00000052 910.22 242.67 391.96 539.64 982.66 433.95 1147.73 476.33 1006.66 561.14 964.29 626.80 1102.58 662.61
00004044 00000053 908.27 239.20 391.83 543.04 980.12 435.11 1145.06 476.54 1004.42 560.93 962.76 628.12 1100.85 663.04
00004045 00000054 907.18 240.68 391.52 542.56 978.86 436.56 1142.51 477.18 1003.62 561.14 962.58 628.32 1100.26 662.53
00004046 00000055 905.89 238.03 392.82 546.82 978.33 436.31 1142.07 476.19 1004.49 560.92 962.82 629.18 1099.59 662.76
00004047 00000056 906.26 237.85 392.21 547.97 978.63 436.05 1142.23 476.35 1004.69 561.48 962.94 628.62 1099.89 662.55
00004048 00000057 907.63 239.75 392.30 546.14 979.73 435.60 1143.82 476.74 1005.13 562.28 963.18 628.58 1101.47 663.21
00004049 00000058 908.01 239.15 392.02 548.63 981.35 435.37 1145.52 476.98 1006.83 562.61 964.42 628.64 1102.32 663.67
00004050 00000059 907.88 241.71 393.38 548.05 983.01 435.17 1146.84 478.31 1008.08 563.57 964.58 628.19 1102.86 664.44
00004051 00000060 907.35 242.54 394.86 551.79 982.93 436.82 1146.80 479.90 1007.82 564.99 965.26 630.83 1102.91 666.91
00004052 00000061 906.83 243.27 395.36 554.44 983.56 436.62 1146.55 480.57 1008.49 565.91 964.80 629.90 1103.97 666.40
00004053 00000062 906.44 242.78 395.73 557.23 983.13 437.34 1145.91 480.60 1007.67 566.05 965.04 630.96 1104.42 666.80
00004054 00000063 906.75 242.67 394.60 555.90 982.94 437.32 1145.42 479.94 1007.24 565.16 965.41 629.43 1105.36 664.67
00004055 00000064 906.99 244.55 394.25 553.61 982.89 437.15 1145.23 480.45 1005.97 564.94 964.89 628.99 1105.76 664.68
00004056 00000065 906.22 244.10 394.02 553.69 981.32 437.14 1144.34 480.18 1005.61 565.89 963.89 628.20 1106.73 663.63
00004057 00000066 906.50 247.20 394.24 549.64 980.45 437.99 1143.62 480.64 1005.31 566.91 963.90 628.67 1106.77 663.81
00004058 00000067 906.60 247.86 393.61 548.91 979.80 438.24 1142.83 481.39 1004.05 567.64 963.71 628.74 1106.66 664.27
00004059 00000068 906.35 246.69 394.18 548.38 979.43 438.23 1142.98 481.20 1004.39 568.10 964.90 628.38 1108.20 663.73
00004060 00000069 906.80 247.73 395.66 547.22 979.79 439.57 1143.54 481.12 1004.83 569.27 967.31 629.39 1110.17 663.54
00004061 00000070 906.75 249.60 395.62 543.17 979.90 439.07 1143.64 480.48 1005.74 569.09 968.87 628.90 1111.93 662.92
00004062 00000071 907.21 248.70 395.38 543.44 980.96 438.98 1144.55 480.54 1006.74 569.83 970.48 627.29 1114.74 661.26
00004063 00000072 906.31 249.79 395.80 542.86 980.61 439.09 1144.14 480.44 1007.90 571.09 970.94 626.50 1116.76 660.20
00004064 00000073 905.78 252.27 394.93 541.74 979.54 440.44 1142.92 482.63 1006.77 572.65 969.88 626.28 1117.43 660.42
00004065 00000074 903.76 255.17 396.30 543.00 978.11 441.26 1140.96 483.93 1005.15 575.87 968.87 626.85 1118.76 661.15
00004066 00000075 903.10 259.58 395.79 541.46 976.12 443.53 1137.77 486.25 1003.26 580.09 967.89 627.80 1119.34 661.90
00004067 00000076 901.63 263.84 395.65 539.51 975.54 444.97 1136.23 489.09 1003.75 583.44 965.69 627.45 1118.04 662.52
00004068 00000077 900.93 263.98 396.16 542.06 974.94 447.85 1135.50 491.46 1004.28 585.60 964.38 627.95 1119.27 662.23
00004069 00000078 900.24 264.85 394.30 541.91 973.96 448.70 1134.84 492.24 1004.29 587.59 964.53 628.86 1119.87 662.89
00004070 00000079 900.55 270.24 393.06 536.32 973.47 449.67 1135.74 494.12 1005.01 589.50 964.54 630.60 1118.98 665.54
00004071 00000080 900.19 271.10 393.71 536.42 972.44 450.52 1135.67 495.21 1004.23 591.10 964.64 632.73 1118.32 667.76
00004072 00000081 900.02 268.15 394.26 540.21 973.91 451.56 1136.32 496.04 1004.43 591.78 966.48 634.08 1118.64 668.69
00004073 00000082 899.61 268.44 395.60 541.98 973.71 451.11 1136.57 495.30 1005.23 592.39 966.51 634.95 1119.17 669.23
00004074 00000083 899.95 270.04 396.23 540.66 974.82 450.26 1137.46 496.25 1005.88 592.68 966.43 634.28 1118.53 669.93
00004075 00000084 899.43 270.51 396.58 541.73 976.81 452.34 1137.03 500.00 1005.08 592.46 967.29 633.56 1118.92 669.97
00004076 00000085 899.32 271.02 397.55 541.54 978.61 457.74 1137.39 504.09 1007.13 592.64 967.47 633.60 1120.07 668.95
00004077 00000086 900.99 269.84 398.70 543.50 979.50 455.80 1138.75 501.70 1008.26 592.35 968.26 634.40 1121.36 669.52
00004078 00000087 901.89 268.58 398.96 543.31 979.11 452.34 1139.77 497.24 1009.56 592.73 970.52 635.52 1122.45 669.99
00004079 00000088 904.67 270.47 397.11 538.46 980.60 451.12 1142.28 495.82 1011.13 591.41 971.93 634.17 1123.92 668.76
00004080 00000089 904.10 270.54 398.41 536.70 980.66 449.48 1143.88 494.10 1012.39 589.24 971.50 632.09 1125.09 666.81
00004081 00000090 904.99 271.52 397.64 535.11 981.22 448.40 1145.16 493.68 1012.67 588.09 971.60 630.36 1126.82 665.59
00004082 00000091 905.72 271.84 397.66 534.00 981.83 447.94 1145.21 492.97 1012.43 586.87 971.76 630.34 1125.88 665.44
00004083 00000092 905.73 270.83 397.46 534.13 981.95 447.62 1145.51 492.74 1012.63 586.51 971.73 629.60 1126.37 664.79
00004084 00000093 906.01 270.95 396.96 533.71 982.02 447.41 1145.76 492.85 1012.85 586.64 971.85 630.03 1125.83 665.56
00004085 00000094 906.39 270.11 396.67 533.68 982.57 447.68 1145.47 492.68 1012.46 585.53 972.02 630.23 1124.96 665.52
00004086 00000095 906.80 269.58 396.57 534.61 982.65 447.74 1145.95 492.06 1012.74 585.77 972.59 631.54 1124.44 666.34
00004087 00000096 907.41 269.22 396.08 534.58 983.61 447.89 1146.53 492.59 1012.64 585.49 972.50 632.43 1123.05 667.82
00004088 00000097 908.29 268.77 395.04 534.58 983.64 448.26 1146.31 493.29 1011.98 586.06 972.38 633.35 1121.14 669.21
00004089 00000098 908.78 269.17 393.98 534.00 983.20 447.65 1145.67 493.76 1010.63 587.15 972.09 635.04 1118.48 672.00
00004090 00000099 909.35 268.66 392.85 533.49 982.73 447.59 1145.07 493.82 1009.55 587.04 971.41 636.57 1115.99 673.85
00004091 00000100 910.07 267.14 390.98 535.36 982.53 447.87 1143.78 494.02 1008.04 587.02 970.54 637.63 1113.29 674.96
00004092 00000101 910.23 267.67 390.84 533.58 982.35 448.30 1143.44 494.54 1007.65 587.02 970.15 638.36 1111.92 675.87
00004093 00000102 910.79 268.13 390.06 531.78 981.95 448.58 1143.03 495.09 1007.13 587.82 970.27 639.59 1111.21 677.48
00004094 00000103 910.81 266.91 390.31 532.62 981.27 449.20 1142.52 495.82 1006.03 588.86 970.05 640.81 1111.18 678.84
CROP_BBOX: 567 0 1522 958
