Video ID: 	hErkUTdYv6Y
H: 	1080
W: 	1920
FPS: 	25.0

FRAME INDEX X0 Y0 W H [Landmarks (5 Points)]

00000556 00000000 836.74 222.51 444.20 634.98 930.29 463.91 1130.99 494.61 992.09 599.02 913.78 687.19 1088.91 711.07
00000557 00000001 846.10 221.75 449.00 639.99 944.17 465.84 1148.88 500.27 1007.55 605.30 927.33 692.26 1102.23 719.52
00000558 00000002 857.30 213.98 449.81 651.20 956.02 466.57 1159.44 503.52 1023.17 610.48 937.91 695.04 1107.97 726.55
00000559 00000003 865.29 217.24 449.32 644.06 966.92 467.92 1170.76 508.44 1035.35 616.42 945.87 694.03 1115.16 729.01
00000560 00000004 871.22 225.82 453.75 633.74 972.80 467.02 1171.43 511.45 1039.08 617.50 961.15 694.04 1116.75 732.52
00000561 00000005 871.93 222.67 454.93 636.77 973.88 465.30 1172.71 509.95 1038.51 613.46 961.24 692.84 1115.02 731.59
00000562 00000006 870.64 222.42 449.86 637.13 963.19 463.90 1163.22 506.72 1023.79 610.11 952.84 694.25 1106.12 731.48
00000563 00000007 859.49 216.83 449.30 646.61 949.98 468.72 1149.89 504.16 1007.71 610.83 935.43 699.71 1093.46 729.88
00000564 DELETE   850.98 220.60 450.81 645.56 935.65 466.79 1130.68 504.75 982.46 603.20 922.00 699.26 1078.76 730.57
00000565 00000009 847.79 229.00 431.89 628.11 916.32 467.89 1109.16 497.64 962.52 605.68 908.05 701.14 1057.43 724.69
00000566 00000010 836.52 224.35 436.13 630.08 905.98 462.05 1098.37 491.53 949.13 599.14 896.58 696.78 1043.35 720.64
00000567 00000011 825.91 226.30 441.66 629.00 891.22 458.90 1079.28 491.22 925.47 599.91 883.80 694.70 1025.46 720.80
00000568 DELETE   820.03 216.24 437.07 647.02 873.25 461.76 1058.46 500.07 906.47 610.17 868.23 701.83 1015.13 734.78
00000569 DELETE   805.21 217.89 445.25 646.72 863.87 466.47 1051.41 503.61 894.83 610.90 857.29 702.34 1010.73 734.03
00000570 DELETE   797.34 219.02 448.64 645.90 857.88 464.31 1045.33 502.24 883.96 607.00 851.41 699.02 1004.59 731.00
00000571 00000015 794.28 215.19 450.18 643.64 851.83 460.42 1039.19 495.19 875.90 602.66 848.43 696.83 1002.74 725.83
00000572 00000016 795.23 214.52 448.30 647.73 850.21 459.57 1034.59 493.68 872.16 602.80 849.15 698.38 999.53 726.64
00000573 00000017 796.98 215.37 446.09 649.49 850.69 460.51 1032.98 494.56 870.54 604.34 850.91 701.88 996.37 730.14
00000574 00000018 798.83 215.53 446.06 646.55 851.46 459.50 1033.54 493.61 871.11 603.59 851.12 701.95 995.33 730.36
00000575 00000019 799.42 213.40 446.98 642.68 850.79 455.37 1035.45 491.94 869.82 603.61 848.86 698.94 997.46 729.34
00000576 00000020 798.46 212.10 448.69 642.16 850.66 452.35 1034.58 490.46 865.73 600.94 846.93 697.04 988.74 729.10
00000577 00000021 800.95 220.24 450.07 638.30 848.01 447.63 1035.31 487.82 862.52 593.44 846.61 701.11 976.50 734.08
00000578 00000022 800.62 216.38 450.41 641.75 847.81 445.70 1034.79 483.99 861.25 589.76 845.22 701.12 972.85 732.71
00000579 00000023 800.67 208.77 448.72 642.93 847.70 442.36 1031.68 482.89 858.42 583.41 845.27 692.42 972.30 725.70
00000580 00000024 801.58 204.05 446.60 640.28 848.16 439.86 1030.29 478.30 855.33 574.67 845.00 684.14 975.59 715.49
00000581 00000025 800.23 198.11 446.65 643.52 847.50 436.54 1030.18 474.53 855.41 571.69 845.59 679.54 979.30 710.56
00000582 00000026 797.80 195.57 447.44 645.36 845.62 435.74 1027.11 473.60 852.75 572.78 846.87 672.57 990.05 702.66
00000583 00000027 795.09 198.87 448.81 642.72 842.93 436.35 1026.05 471.53 850.83 575.05 846.00 671.33 995.56 698.73
00000584 00000028 793.69 197.14 450.01 645.03 842.41 437.13 1025.13 470.00 850.16 572.34 844.46 674.01 990.29 699.82
00000585 00000029 793.54 197.66 446.76 640.61 840.56 436.46 1022.29 469.06 845.70 570.19 841.92 674.98 982.49 700.76
00000586 00000030 793.07 197.46 444.49 635.79 839.45 434.98 1021.37 467.93 844.73 568.71 839.51 673.20 979.52 699.30
00000587 00000031 792.33 195.33 442.54 635.76 838.91 435.26 1021.48 468.61 845.61 567.24 838.31 671.21 979.79 697.56
00000588 00000032 791.73 197.80 442.27 631.05 838.13 435.26 1020.71 469.76 844.99 570.24 838.61 670.03 980.97 697.08
00000589 00000033 791.94 198.32 444.04 632.53 838.10 438.23 1019.70 472.09 844.49 574.54 840.42 672.21 982.89 698.74
00000590 00000034 790.93 200.18 444.19 635.60 837.25 440.79 1020.64 472.94 846.54 578.22 840.62 675.38 985.61 700.52
00000591 00000035 792.51 198.25 442.92 639.78 838.89 440.69 1020.41 472.24 846.58 575.68 842.76 674.67 988.29 699.35
00000592 00000036 792.15 196.75 441.57 642.26 839.16 440.26 1021.07 470.91 848.21 572.68 842.02 673.78 987.91 697.87
00000593 00000037 792.42 196.55 443.92 653.27 839.91 440.84 1020.50 470.24 847.81 574.30 847.14 677.47 996.58 700.19
00000594 00000038 793.22 198.24 446.63 652.65 842.65 441.08 1021.62 473.30 849.75 576.28 849.28 675.89 999.41 700.60
00000595 00000039 794.60 198.47 448.11 649.51 844.94 442.24 1024.39 474.34 854.12 577.70 851.09 674.91 1001.05 699.59
00000596 00000040 796.28 199.84 447.40 640.80 845.09 441.21 1025.33 474.51 854.16 576.76 850.08 672.10 998.53 697.79
00000597 00000041 796.87 200.03 446.27 636.35 844.85 440.37 1024.37 473.86 853.03 574.60 848.03 670.85 994.41 696.73
00000598 00000042 797.01 200.43 444.79 637.91 844.74 441.01 1024.46 474.27 852.43 574.38 846.45 673.79 988.95 699.91
00000599 00000043 797.98 198.58 443.92 640.23 844.33 440.90 1025.42 474.97 853.16 576.04 844.93 678.07 982.76 705.40
00000600 00000044 799.48 201.20 443.25 638.59 843.96 440.70 1025.68 475.61 853.25 575.84 841.89 683.04 972.36 711.72
00000601 00000045 800.22 200.59 444.35 643.57 845.95 439.79 1030.35 473.07 856.61 570.64 840.42 685.96 968.74 713.76
00000602 00000046 801.67 195.33 446.84 647.48 849.67 437.48 1033.52 473.06 860.50 567.50 846.13 678.32 981.16 707.82
00000603 00000047 806.19 193.51 446.98 645.06 852.46 436.36 1039.58 471.01 866.42 566.19 849.56 673.02 993.31 701.72
00000604 00000048 815.60 192.30 446.22 646.42 863.55 436.47 1044.76 468.37 872.79 559.50 859.20 667.89 1003.19 694.87
00000605 00000049 825.09 190.88 444.01 658.27 877.65 436.51 1052.52 467.09 886.09 562.11 868.76 671.05 1014.24 697.00
00000606 00000050 831.89 196.82 444.01 654.67 883.94 435.17 1057.17 469.87 888.98 563.64 871.58 672.01 1016.05 701.45
00000607 00000051 836.30 198.23 448.57 654.81 889.97 436.59 1059.61 475.63 891.15 570.17 876.50 671.53 1019.02 704.35
00000608 00000052 838.63 208.07 448.21 647.28 886.95 434.90 1067.85 474.66 890.49 582.72 877.87 677.47 1027.70 708.53
00000609 00000053 839.92 215.90 451.90 649.91 890.58 437.72 1068.75 483.15 889.90 590.42 882.19 680.45 1032.03 715.47
00000610 00000054 840.76 227.16 450.22 642.19 890.80 448.15 1070.50 493.65 892.57 599.86 884.99 688.15 1038.33 723.01
00000611 00000055 842.50 236.17 443.75 635.38 891.44 457.09 1070.19 501.00 894.29 606.78 884.40 695.01 1037.37 728.75
00000612 00000056 842.19 238.83 442.78 629.04 891.45 455.53 1068.49 502.56 892.31 606.91 882.90 692.89 1033.46 729.12
00000613 00000057 842.92 228.59 444.35 630.40 889.74 446.12 1067.66 490.26 889.66 592.91 877.90 687.91 1023.57 722.05
00000614 00000058 842.44 216.88 445.34 627.71 890.01 428.62 1064.42 475.89 882.75 577.14 876.26 670.14 1018.29 707.36
00000615 00000059 837.49 199.08 449.97 638.43 885.75 426.36 1061.04 467.57 878.98 564.73 871.34 663.44 1015.01 696.17
00000616 00000060 833.22 188.97 452.12 650.84 884.70 424.69 1057.80 465.18 875.35 558.73 868.65 660.81 1011.90 693.28
00000617 00000061 830.42 179.82 445.41 652.55 886.08 419.49 1043.18 452.04 872.40 544.60 870.94 657.82 999.04 683.91
00000618 00000062 826.66 176.20 443.70 648.69 875.55 416.43 1039.27 452.02 867.05 538.12 860.14 654.61 984.44 685.06
00000619 00000063 822.18 177.92 442.79 640.48 868.51 409.14 1034.27 448.77 861.04 531.93 854.60 644.19 986.41 677.75
00000620 00000064 819.89 168.19 438.55 637.30 865.44 404.73 1033.25 444.69 859.41 528.26 851.37 634.86 988.00 668.71
00000621 00000065 817.11 162.65 439.66 637.87 864.02 401.11 1033.11 440.43 857.94 524.51 849.91 630.18 989.46 663.51
00000622 00000066 820.15 162.05 437.97 640.56 865.67 399.49 1032.24 436.67 859.08 521.82 852.31 630.05 988.72 661.91
00000623 00000067 821.82 159.54 437.12 639.15 866.52 400.16 1032.23 435.55 862.14 521.56 853.45 630.17 987.99 660.70
00000624 00000068 819.63 155.72 439.27 636.92 866.49 399.99 1033.39 434.80 863.47 521.33 853.30 627.87 987.76 657.99
00000625 00000069 819.41 157.15 438.53 633.98 866.65 398.25 1033.48 435.62 861.72 521.21 852.02 626.98 985.97 659.07
00000626 00000070 818.34 157.46 437.23 634.31 865.67 398.79 1033.42 436.96 862.77 521.59 849.93 629.08 982.30 661.95
00000627 00000071 817.30 159.15 438.71 635.15 863.77 399.28 1031.97 438.04 859.66 525.02 848.82 629.95 982.68 663.21
00000628 00000072 815.65 162.24 439.70 634.17 863.08 398.64 1032.37 438.77 859.04 525.43 847.26 629.54 980.68 663.98
00000629 00000073 817.87 164.56 437.66 640.51 865.41 399.37 1031.33 438.32 857.94 523.00 852.12 630.29 986.78 663.63
00000630 00000074 818.06 166.33 438.29 651.92 864.33 402.86 1030.96 441.04 857.65 526.20 854.41 639.70 990.22 672.09
00000631 00000075 817.27 170.01 437.47 646.98 861.71 404.90 1027.97 443.67 854.50 528.59 853.42 641.30 988.98 673.99
00000632 00000076 813.98 170.20 441.11 645.44 858.07 409.73 1024.37 444.81 850.05 530.23 851.26 642.48 985.65 672.02
00000633 00000077 809.33 174.36 442.45 637.95 855.84 412.25 1022.15 444.71 847.85 531.11 849.79 643.54 983.17 670.50
00000634 00000078 804.92 174.86 441.91 633.02 855.46 412.80 1021.46 445.47 848.24 530.27 847.45 640.93 979.50 667.71
00000635 00000079 803.23 175.30 443.52 629.01 853.69 412.77 1018.92 443.53 845.93 528.89 844.25 641.75 973.95 666.94
00000636 00000080 801.20 175.44 442.51 625.82 851.63 411.74 1018.61 443.33 845.77 529.14 841.90 641.16 972.51 666.89
00000637 00000081 799.38 176.88 440.78 624.58 851.43 412.14 1017.18 443.04 845.30 528.83 840.21 640.89 970.61 665.95
00000638 00000082 797.18 175.66 442.35 626.36 849.17 412.81 1017.31 442.09 845.22 529.57 838.70 641.62 970.73 665.39
00000639 00000083 795.27 176.73 442.16 624.23 848.28 415.53 1016.54 442.83 844.33 529.65 837.73 642.82 970.88 664.99
00000640 00000084 793.12 174.96 441.40 624.68 845.05 416.56 1014.37 442.73 842.58 532.09 835.47 644.21 967.76 665.48
00000641 00000085 793.31 176.34 440.71 625.47 844.12 416.78 1013.89 443.40 842.65 534.26 835.90 645.91 967.79 667.35
00000642 00000086 795.90 177.74 438.87 624.96 845.08 418.23 1017.16 446.49 846.04 537.83 838.46 645.89 972.81 668.81
00000643 00000087 798.57 181.20 441.31 623.91 846.25 420.04 1021.04 444.38 853.78 539.20 844.40 651.41 978.32 671.20
00000644 00000088 800.69 181.37 441.82 631.76 848.95 423.02 1024.54 446.73 859.47 541.98 850.23 655.74 985.01 675.21
00000645 00000089 803.34 181.99 440.10 631.71 850.50 425.43 1028.71 449.18 865.10 546.62 852.65 658.94 989.30 678.66
00000646 00000090 805.37 183.24 442.40 637.80 852.25 427.93 1034.15 451.02 870.14 550.74 855.95 663.03 997.20 682.36
00000647 00000091 807.56 185.78 443.60 639.43 854.71 430.82 1038.25 453.90 875.53 557.17 859.44 666.54 1004.98 685.96
00000648 00000092 807.98 189.50 445.70 637.36 859.06 434.96 1046.04 457.30 885.32 560.37 862.28 668.86 1010.41 687.89
00000649 00000093 810.91 196.37 445.45 633.65 868.22 439.76 1056.47 463.26 898.61 563.72 869.31 670.78 1015.63 690.82
00000650 00000094 815.89 198.11 442.91 637.33 875.14 443.03 1065.68 469.76 909.25 572.11 873.17 672.46 1023.95 695.42
00000651 00000095 822.66 201.62 437.98 639.87 881.51 448.11 1072.81 473.46 919.55 578.63 882.72 677.08 1034.94 699.16
00000652 00000096 823.53 204.76 436.87 645.09 888.08 452.17 1079.98 476.79 932.16 584.89 890.77 680.89 1047.55 702.18
00000653 00000097 824.47 209.45 435.32 644.39 890.73 453.41 1086.52 479.02 939.38 585.97 893.38 684.40 1051.65 706.75
00000654 00000098 822.91 210.53 435.99 645.06 889.64 456.69 1086.43 481.31 941.26 587.83 894.20 690.79 1048.66 712.41
00000655 00000099 820.26 213.05 435.00 639.00 886.47 461.06 1083.74 482.63 940.84 590.47 893.74 693.86 1044.62 713.09
00000656 00000100 817.46 213.79 436.17 635.46 884.92 460.93 1080.49 482.98 939.59 595.39 892.63 693.48 1042.15 712.90
00000657 00000101 808.80 203.53 441.38 643.10 881.14 464.67 1071.86 481.41 935.98 598.98 884.79 691.94 1046.30 706.26
00000658 00000102 798.59 205.74 449.79 645.31 872.74 465.23 1064.27 482.15 924.31 602.14 875.01 690.58 1043.34 704.90
00000659 00000103 793.28 213.34 450.08 640.64 860.95 463.17 1059.01 484.52 910.93 600.48 870.55 688.16 1034.03 706.12
00000660 00000104 788.37 214.43 446.44 639.18 853.09 460.68 1049.05 480.77 897.76 595.99 862.88 688.06 1023.96 704.22
00000661 00000105 781.18 219.72 440.23 625.20 842.65 453.61 1031.73 469.83 883.89 590.87 846.99 685.60 1007.78 696.95
00000662 00000106 774.48 215.64 440.35 636.11 831.32 449.48 1017.33 463.85 865.48 586.92 837.51 686.44 992.85 696.33
00000663 DELETE   772.67 200.45 439.66 657.11 824.80 449.14 996.13 464.83 847.43 575.64 832.14 685.79 970.34 699.56
00000664 DELETE   764.80 195.06 441.04 659.52 811.89 450.70 980.75 466.86 825.17 574.69 817.97 688.13 949.72 702.34
00000665 00000109 758.64 193.36 436.35 646.48 801.53 450.36 970.61 469.43 812.83 575.68 805.80 682.39 938.78 699.13
00000666 00000110 752.57 200.87 434.23 636.51 790.68 444.69 962.72 465.27 793.60 576.16 794.69 677.68 934.53 694.23
00000667 00000111 750.48 200.46 434.28 635.18 786.19 443.37 954.46 464.14 785.74 575.40 791.68 675.33 930.40 691.84
00000668 00000112 752.40 197.80 431.28 633.93 785.19 441.30 954.48 457.01 783.75 566.38 789.14 673.35 927.76 685.79
00000669 00000113 752.26 192.62 429.47 631.54 787.20 433.90 953.98 451.15 781.67 558.56 790.27 666.26 926.52 679.46
00000670 00000114 751.64 188.11 428.24 633.17 786.72 430.30 952.50 448.13 777.61 554.17 788.23 663.31 922.48 677.06
00000671 00000115 752.34 189.81 426.29 635.54 784.27 434.17 951.22 450.69 774.71 558.62 786.23 669.18 920.82 681.93
00000672 00000116 750.89 195.05 427.02 635.38 779.80 436.19 946.41 456.90 771.39 569.68 783.70 670.65 920.88 686.97
00000673 00000117 749.06 202.96 425.91 628.99 778.64 436.34 942.80 457.38 769.86 571.57 782.91 671.15 918.85 687.63
00000674 00000118 749.47 199.20 427.38 630.33 781.82 429.83 938.23 448.52 766.18 555.81 789.32 659.77 926.22 672.75
00000675 00000119 750.97 184.09 425.50 640.18 785.51 422.35 941.55 442.56 772.45 540.79 797.48 650.01 932.07 666.12
00000676 00000120 750.68 174.08 426.60 642.60 786.67 416.43 939.11 434.41 772.90 531.46 796.98 643.88 927.76 658.57
00000677 00000121 754.59 169.83 424.10 634.38 788.00 413.06 940.95 434.48 776.37 531.50 793.11 640.29 918.80 658.46
00000678 00000122 756.16 174.67 423.01 621.67 787.31 411.66 942.11 436.76 779.21 535.43 788.37 639.51 911.70 660.86
00000679 00000123 762.02 162.77 422.42 628.32 791.75 408.55 946.56 432.92 785.11 529.86 790.23 635.63 913.79 656.95
00000680 00000124 768.85 158.70 419.13 630.10 799.01 405.53 951.97 427.76 795.47 523.77 794.01 632.88 913.94 653.12
00000681 00000125 772.21 160.78 418.25 627.17 801.48 404.14 954.39 424.95 798.60 524.44 798.96 633.19 919.90 652.03
00000682 00000126 774.24 166.21 420.72 629.04 807.63 406.17 956.09 418.11 798.15 522.63 809.49 637.71 931.65 645.95
00000683 00000127 773.67 168.64 423.70 639.36 810.61 408.39 959.03 418.10 798.54 524.33 813.40 642.36 940.11 648.86
00000684 00000128 773.93 168.12 425.63 639.46 809.80 405.95 962.01 415.85 800.76 524.48 813.98 642.31 942.03 649.05
00000685 00000129 775.73 169.13 427.36 635.71 809.75 405.42 963.37 414.78 802.28 523.49 814.09 641.89 941.06 648.09
00000686 00000130 776.87 170.11 426.00 629.58 809.70 407.29 963.34 415.67 804.55 525.23 815.06 642.42 940.32 647.75
00000687 00000131 776.43 168.58 427.03 630.79 810.05 409.63 962.51 419.24 803.36 525.52 814.53 642.15 938.82 648.43
00000688 00000132 776.89 169.38 425.43 625.33 809.66 409.42 962.48 420.28 804.07 525.73 813.42 640.33 937.28 647.76
00000689 00000133 776.26 168.99 426.15 623.53 807.73 408.34 964.01 420.65 804.53 527.80 812.48 639.12 940.35 647.72
00000690 00000134 774.83 170.52 428.04 624.37 807.02 408.87 963.27 420.96 803.25 528.23 811.96 639.21 940.40 647.58
00000691 00000135 775.32 171.08 427.00 625.23 808.72 410.48 960.97 422.66 802.36 527.08 812.00 641.02 935.03 649.62
00000692 00000136 774.61 176.09 427.31 621.09 808.31 411.93 962.69 425.65 804.85 533.55 814.15 640.55 942.87 650.42
00000693 00000137 775.63 177.59 429.20 622.26 809.35 415.84 972.46 429.27 812.28 537.01 816.75 644.02 954.66 653.90
00000694 00000138 776.92 178.00 430.36 625.69 811.08 417.46 977.70 430.01 817.47 538.35 818.60 646.52 958.20 655.74
00000695 00000139 776.28 179.13 431.16 626.92 811.57 416.64 975.85 427.08 815.75 537.00 819.65 645.99 960.24 653.33
00000696 00000140 774.28 177.57 431.25 627.91 807.27 413.91 972.66 422.46 810.66 532.24 816.10 644.58 958.13 650.45
00000697 00000141 771.94 177.92 429.98 623.57 805.34 414.57 966.67 426.09 808.32 536.20 814.86 642.30 953.53 650.47
00000698 00000142 771.88 179.37 429.61 619.17 806.45 417.27 964.93 428.92 809.05 536.45 815.32 641.33 951.73 649.47
00000699 00000143 772.49 179.80 429.31 618.24 807.85 416.43 969.26 428.17 811.91 534.23 815.48 640.62 955.03 648.99
00000700 00000144 773.41 178.11 427.79 626.89 808.35 415.15 963.39 424.55 807.43 531.66 815.78 642.86 948.03 649.20
00000701 00000145 772.01 172.80 428.43 635.71 808.07 412.31 958.33 421.61 801.67 526.61 812.24 642.92 937.22 649.26
00000702 00000146 772.12 167.95 424.95 631.11 805.33 412.40 952.42 422.50 798.49 525.78 811.01 640.08 931.14 646.98
00000703 00000147 771.36 168.26 426.20 628.46 803.24 411.03 957.91 422.09 802.16 529.40 811.53 638.12 942.29 645.75
00000704 00000148 772.06 169.03 428.97 627.50 803.53 409.18 964.80 419.47 807.30 529.41 812.69 637.99 948.17 645.25
00000705 00000149 773.34 169.56 430.36 626.36 805.22 407.63 967.24 418.48 807.28 529.43 815.19 637.74 951.60 645.42
00000706 00000150 774.61 170.57 429.40 624.63 806.84 407.19 968.29 419.42 808.69 531.88 817.01 638.09 953.07 646.84
00000707 00000151 775.18 170.85 428.46 626.56 808.13 406.62 969.10 418.31 809.94 530.36 817.52 638.10 952.32 646.49
00000708 00000152 775.78 168.88 427.19 633.11 810.94 404.36 965.24 415.91 806.89 526.59 816.34 640.46 941.93 648.64
00000709 00000153 776.49 167.64 426.73 637.19 811.52 404.22 963.55 414.31 804.99 523.81 814.48 642.81 937.25 649.74
00000710 00000154 776.35 166.32 422.62 636.66 809.64 408.48 958.15 418.84 800.86 525.13 811.86 645.35 929.55 652.54
00000711 00000155 775.34 164.53 421.14 634.09 808.79 411.60 953.25 422.78 797.54 525.34 812.92 643.47 928.14 651.12
00000712 00000156 774.29 167.60 423.84 617.53 804.83 400.02 950.41 412.46 791.35 519.25 809.97 632.46 924.97 640.94
00000713 00000157 777.36 161.73 421.24 612.47 808.43 398.42 952.09 405.51 794.24 511.49 813.79 625.19 927.03 629.28
00000714 00000158 784.37 161.99 423.52 620.43 817.78 399.95 958.79 403.53 797.66 513.16 826.29 632.59 938.06 633.57
00000715 00000159 789.68 163.93 423.59 630.32 824.73 400.64 966.66 404.58 801.94 515.78 832.52 637.82 946.20 639.42
00000716 00000160 792.39 166.94 424.74 630.01 827.92 400.72 971.61 404.88 803.97 515.93 834.89 639.12 951.20 640.81
00000717 00000161 791.08 164.67 422.88 623.77 827.00 398.11 970.95 405.33 804.23 514.50 830.72 635.16 945.33 639.65
00000718 00000162 796.31 162.07 417.42 613.54 833.54 401.62 979.29 408.68 814.68 511.29 836.69 626.27 953.64 631.27
00000719 00000163 798.19 153.63 419.17 617.46 831.64 400.16 983.68 408.19 816.28 509.75 836.49 625.10 957.00 631.61
00000720 00000164 805.82 157.07 420.97 614.78 840.22 398.96 995.80 407.00 828.95 509.29 844.68 625.99 966.67 633.17
00000721 00000165 811.41 157.17 423.14 624.45 847.95 399.79 1001.71 405.75 834.81 510.24 852.11 631.91 973.38 636.69
00000722 00000166 816.63 152.30 422.18 636.98 849.45 403.53 998.66 405.72 847.76 511.15 856.73 631.25 977.65 631.63
CROP_BBOX: 455 0 1569 1050
