Video ID: 	CxwrJgPFeUk
H: 	1080
W: 	1920
FPS: 	29.97002997002997

FRAME INDEX X0 Y0 W H [Landmarks (5 Points)]

00009555 00000000 901.55 182.95 384.92 517.84 957.30 376.55 1119.27 379.93 994.95 472.76 970.49 570.93 1100.23 575.14
00009556 DELETE   894.98 184.28 383.58 517.03 946.89 379.58 1109.77 378.60 989.99 476.32 964.41 573.24 1096.86 574.28
00009557 00000002 888.51 179.37 383.19 521.62 942.48 388.44 1094.07 383.39 980.87 476.75 957.81 572.00 1091.29 568.51
00009558 00000003 879.17 183.82 385.55 517.79 936.66 387.60 1087.40 383.11 978.38 475.09 952.53 569.16 1086.91 566.00
00009559 00000004 874.50 182.82 386.49 516.85 931.91 384.26 1082.28 382.10 971.98 472.21 946.43 566.39 1080.56 565.06
00009560 00000005 872.30 182.82 383.70 515.11 928.53 381.70 1079.03 380.71 966.92 468.93 943.34 565.37 1076.50 565.14
00009561 00000006 868.89 184.43 383.35 511.84 926.14 380.07 1076.24 381.11 963.38 467.57 939.71 564.48 1071.32 565.99
00009562 00000007 866.16 185.97 381.06 507.86 920.71 380.00 1072.06 380.28 957.66 467.77 933.79 565.50 1066.75 566.04
00009563 00000008 861.96 185.29 381.00 511.57 917.51 381.92 1068.70 382.78 954.54 471.83 931.37 568.50 1063.89 569.24
00009564 00000009 856.94 185.93 381.25 516.31 913.34 384.94 1063.16 384.14 950.96 475.34 929.25 572.26 1060.90 571.37
00009565 00000010 849.76 186.55 384.40 519.69 908.76 387.64 1056.77 385.17 946.46 477.06 927.23 573.42 1056.78 570.92
00009566 00000011 842.11 187.61 388.08 522.21 896.19 387.00 1052.33 382.59 928.72 479.75 917.94 577.72 1051.92 573.76
00009567 00000012 837.53 188.06 389.50 520.59 891.44 389.24 1048.56 384.41 925.44 481.05 914.72 579.43 1048.47 575.30
00009568 00000013 833.38 187.11 389.39 520.22 885.60 389.69 1045.46 385.62 921.95 481.57 909.15 578.69 1044.90 575.43
00009569 00000014 830.00 187.55 388.90 519.76 880.51 390.41 1041.80 385.63 918.79 483.14 905.50 579.30 1043.78 575.66
00009570 00000015 827.51 187.04 388.43 521.25 877.07 391.80 1039.12 386.28 917.13 485.55 902.56 581.03 1042.23 576.96
00009571 00000016 825.71 189.62 386.10 520.09 873.83 393.41 1036.14 388.29 914.85 488.22 898.63 582.17 1039.71 578.63
00009572 00000017 822.59 190.37 385.62 520.18 869.42 394.02 1033.32 388.77 912.57 490.65 895.65 583.23 1037.94 579.70
00009573 00000018 821.24 191.15 385.19 519.65 867.76 394.80 1031.40 389.86 911.06 491.63 893.49 583.41 1035.44 580.20
00009574 00000019 817.24 192.64 386.11 523.53 865.05 394.10 1028.30 389.41 909.24 492.87 893.13 584.41 1034.68 581.10
00009575 00000020 815.22 186.65 388.23 530.05 872.60 400.20 1024.21 391.50 913.86 490.46 897.31 582.58 1033.48 575.28
00009576 00000021 813.46 189.30 389.33 529.20 872.75 401.05 1024.00 391.39 915.87 490.89 900.13 584.54 1034.40 576.54
00009577 00000022 812.68 192.15 388.95 526.42 872.77 402.19 1024.11 391.84 917.61 491.50 901.13 585.22 1034.72 576.68
00009578 00000023 811.63 193.70 389.61 524.70 872.42 402.76 1023.67 392.12 918.21 492.48 901.52 587.23 1032.77 578.52
00009579 00000024 809.72 195.91 390.20 522.52 872.04 403.14 1022.39 393.54 917.75 493.42 898.89 588.69 1026.95 581.12
00009580 00000025 808.36 197.24 388.88 520.60 871.60 403.04 1019.94 394.83 916.03 494.81 896.17 589.52 1021.01 583.49
00009581 00000026 806.53 196.80 388.62 521.40 870.34 404.62 1018.15 396.74 914.10 496.76 894.02 591.78 1017.87 586.03
00009582 00000027 803.86 199.60 388.95 519.71 867.62 405.90 1016.18 398.75 910.59 498.00 889.93 593.37 1014.47 588.35
00009583 00000028 800.77 201.16 389.80 518.75 864.44 408.16 1012.78 402.51 905.64 501.34 885.55 595.36 1009.68 591.47
00009584 00000029 798.21 202.35 388.21 518.65 860.51 409.08 1007.97 405.14 899.46 503.43 881.02 596.58 1004.40 593.93
00009585 00000030 794.38 201.01 390.69 520.61 847.88 409.09 1011.24 401.47 897.45 506.57 875.05 600.60 999.62 594.30
00009586 00000031 791.73 199.72 389.51 523.18 844.81 409.47 1005.62 402.98 892.53 508.41 871.59 602.08 992.88 596.80
00009587 00000032 787.33 200.83 390.38 523.67 840.18 409.87 999.24 405.44 886.09 514.08 866.67 602.36 989.97 598.75
00009588 00000033 784.79 199.33 390.30 523.93 835.77 410.47 994.70 406.63 880.37 517.44 862.36 603.63 988.14 600.38
00009589 00000034 781.93 200.97 391.69 520.24 832.31 410.88 991.79 407.62 876.72 519.64 859.25 602.71 987.32 599.88
00009590 00000035 780.62 201.53 392.28 518.99 830.46 412.07 990.49 408.65 875.63 520.51 858.45 602.43 986.99 599.46
00009591 00000036 779.53 201.62 391.50 519.06 829.64 412.54 989.09 409.21 874.20 520.10 857.99 601.74 986.50 598.78
00009592 00000037 778.75 202.24 389.85 520.68 829.47 412.66 988.48 408.91 873.27 518.60 858.30 601.61 985.49 598.30
00009593 00000038 778.09 202.25 387.58 528.75 831.17 412.92 988.21 408.85 872.39 514.37 860.81 602.08 985.21 598.38
00009594 00000039 777.17 203.79 386.00 530.29 837.28 413.82 983.15 411.18 875.73 514.06 867.24 602.07 994.30 598.35
00009595 00000040 777.50 203.58 390.09 531.76 832.57 412.09 987.16 406.31 873.38 513.01 863.08 598.39 997.00 592.90
00009596 00000041 776.17 201.80 391.87 529.21 830.66 412.75 986.93 406.36 872.70 513.38 862.10 599.83 994.59 593.86
00009597 00000042 776.86 201.94 390.42 525.65 831.11 412.92 989.12 406.90 875.67 514.13 863.11 600.59 987.68 595.21
00009598 00000043 777.45 201.78 390.24 523.62 832.57 412.17 990.29 406.76 879.18 513.05 864.87 601.95 980.72 597.41
00009599 00000044 780.46 201.72 389.55 522.09 835.22 411.38 994.53 403.84 883.34 507.89 867.62 603.66 979.86 597.50
00009600 00000045 782.24 200.87 390.04 524.46 838.72 410.21 999.19 401.38 888.97 502.49 870.68 603.37 981.40 596.19
00009601 00000046 782.72 199.72 390.54 525.58 839.81 408.92 1001.01 399.45 890.49 498.85 871.53 602.00 983.50 594.24
00009602 00000047 781.43 197.31 384.17 527.17 843.86 406.61 993.02 398.98 889.90 499.67 875.19 601.81 989.72 596.24
00009603 00000048 782.94 196.95 384.24 525.20 844.67 404.03 992.73 398.19 887.89 497.95 874.43 596.57 992.18 592.47
00009604 00000049 782.67 195.07 391.88 525.04 837.29 405.78 996.70 392.52 880.95 491.20 867.13 592.27 991.71 581.19
00009605 00000050 784.33 193.96 390.89 519.54 838.26 402.29 994.50 387.78 879.55 488.34 866.28 587.80 992.75 575.60
00009606 00000051 792.35 190.80 381.21 515.85 848.08 394.67 992.18 388.42 884.30 484.78 872.77 582.73 995.20 578.13
00009607 00000052 796.64 187.51 383.15 514.48 852.04 395.45 997.19 389.38 887.98 480.93 873.99 578.49 998.99 574.09
00009608 DELETE   800.22 185.32 382.39 510.10 854.93 396.70 999.80 391.93 887.87 477.50 873.05 573.00 1000.05 569.62
00009609 00000054 802.61 185.98 382.34 505.77 858.96 396.44 1003.75 392.90 893.03 475.13 875.33 569.06 1001.84 566.77
00009610 DELETE   806.28 184.62 381.44 511.14 861.93 392.61 1006.49 388.63 896.51 474.17 877.13 568.47 1003.41 566.12
00009611 DELETE   807.51 182.92 383.12 521.77 862.82 390.74 1006.42 384.24 898.09 471.90 880.21 570.66 1006.18 566.23
00009612 00000057 807.78 180.42 382.82 526.20 861.74 388.92 1005.18 379.45 898.06 468.80 883.52 570.72 1010.12 563.60
00009613 00000058 808.33 177.80 383.13 527.74 861.55 388.43 1004.78 378.94 898.39 469.34 884.47 570.64 1010.87 563.34
00009614 00000059 809.09 176.94 383.52 522.39 861.83 388.21 1008.08 379.95 900.46 472.50 883.51 571.88 1010.24 565.52
00009615 00000060 809.70 175.91 383.81 517.09 861.41 387.19 1009.77 378.74 901.10 472.01 882.75 570.23 1011.65 563.59
00009616 00000061 810.37 171.79 384.70 517.10 860.57 386.50 1012.22 375.94 900.49 469.12 882.57 569.24 1015.38 560.70
00009617 00000062 810.66 168.29 385.16 519.09 860.75 384.55 1013.43 373.34 901.27 466.98 883.38 567.84 1016.07 558.85
00009618 00000063 811.95 164.66 383.82 518.27 860.35 382.61 1013.49 371.02 901.21 464.51 883.76 566.56 1014.49 557.57
00009619 00000064 813.00 163.68 382.53 512.25 859.21 380.81 1013.71 367.76 900.50 461.09 883.02 563.25 1014.69 553.14
00009620 00000065 813.09 163.27 382.64 511.57 859.17 380.41 1014.17 366.72 901.60 460.35 883.31 562.26 1014.83 551.97
00009621 00000066 814.17 163.17 382.08 511.74 859.86 381.05 1014.71 368.04 901.67 461.64 883.38 562.50 1015.76 552.57
00009622 00000067 814.84 164.40 380.98 513.04 861.30 383.22 1015.43 371.92 903.00 466.82 884.50 564.99 1018.27 555.97
00009623 00000068 814.57 170.19 382.67 514.15 864.12 387.56 1015.60 377.46 905.41 472.10 888.16 568.02 1020.50 559.58
00009624 00000069 814.49 178.72 383.30 512.83 865.80 391.21 1016.06 382.04 907.35 478.80 889.98 571.84 1023.00 564.10
00009625 00000070 813.32 182.94 385.14 515.52 867.61 394.06 1018.77 384.75 909.98 481.63 891.33 574.84 1024.89 567.15
00009626 00000071 812.45 184.90 386.29 516.29 867.93 395.38 1019.37 385.65 911.41 482.65 892.72 576.01 1027.32 567.88
00009627 00000072 812.05 186.41 387.14 515.24 868.06 396.42 1020.46 385.84 912.46 483.47 893.68 577.45 1028.80 568.65
00009628 00000073 811.86 186.13 387.91 515.49 867.48 397.42 1020.94 385.62 912.46 483.65 893.71 578.41 1030.61 568.48
00009629 00000074 811.64 185.02 387.81 515.92 867.14 397.79 1021.16 384.88 913.11 483.85 894.82 578.85 1032.48 567.91
00009630 00000075 811.58 185.49 387.83 516.11 867.53 398.82 1021.34 385.01 914.54 484.77 896.85 579.50 1034.02 567.90
00009631 00000076 811.31 185.18 387.84 516.73 867.35 400.17 1022.02 385.40 915.90 485.51 898.67 580.85 1036.29 568.47
00009632 00000077 810.57 188.20 388.65 515.26 868.90 400.75 1022.37 385.88 917.93 486.55 901.13 580.54 1037.89 567.98
00009633 00000078 810.12 188.63 388.66 515.71 868.62 401.13 1021.83 386.03 917.84 487.08 901.42 580.95 1038.21 568.17
00009634 00000079 809.83 190.60 388.86 514.12 868.28 401.66 1022.12 386.61 917.86 487.78 901.35 581.97 1037.80 569.40
00009635 00000080 808.75 191.20 389.55 515.09 868.01 401.92 1021.43 387.26 917.62 489.07 901.12 582.82 1036.96 570.59
00009636 00000081 807.73 193.46 389.66 514.85 868.36 402.86 1019.93 389.08 918.30 490.69 902.21 583.59 1035.85 572.12
00009637 00000082 807.52 198.15 388.17 513.57 868.77 404.77 1017.94 390.89 918.04 493.19 902.85 585.99 1034.06 574.60
00009638 00000083 806.64 201.25 387.98 513.52 868.81 406.19 1016.54 392.44 916.92 494.90 902.00 586.90 1031.72 575.76
00009639 00000084 806.35 202.94 387.86 513.05 868.81 408.73 1016.68 394.94 916.78 498.24 902.00 589.00 1031.27 577.84
00009640 00000085 805.46 203.83 388.17 513.80 867.98 410.95 1014.42 396.66 915.30 500.86 902.99 591.17 1030.71 579.42
00009641 00000086 803.86 204.38 390.22 515.07 866.19 412.02 1013.30 397.43 913.79 501.89 901.62 591.96 1030.40 579.81
00009642 00000087 802.40 204.95 391.10 514.81 864.81 412.46 1011.95 398.09 912.34 503.26 900.03 591.52 1029.88 579.48
00009643 00000088 800.54 206.38 391.67 514.27 861.91 414.17 1009.51 399.63 909.01 504.62 897.95 591.31 1030.48 578.82
00009644 00000089 797.95 207.76 392.04 513.65 859.80 416.16 1006.87 402.24 907.12 507.68 897.30 591.60 1031.15 579.20
00009645 00000090 795.54 209.85 392.95 513.57 857.05 419.38 1003.86 405.88 904.49 510.81 896.53 592.81 1031.67 580.42
00009646 00000091 793.30 213.46 392.82 512.12 853.80 422.70 1000.48 408.70 900.46 514.93 894.48 594.84 1031.11 581.82
00009647 00000092 791.45 213.99 393.61 513.71 850.62 424.42 996.28 410.29 895.33 518.67 892.17 596.01 1029.73 582.70
00009648 00000093 790.44 216.46 393.37 512.80 849.34 426.48 994.11 412.14 893.07 520.47 891.62 596.87 1029.13 583.28
00009649 00000094 789.38 216.25 393.99 513.83 848.45 426.79 993.11 411.92 892.49 520.89 891.64 596.90 1030.12 582.74
00009650 00000095 789.12 215.25 394.12 515.18 848.29 425.34 993.79 410.46 892.97 518.39 890.69 596.20 1030.22 582.09
00009651 00000096 788.72 212.67 394.85 518.15 849.11 423.70 994.83 409.21 894.69 516.86 890.69 595.36 1030.95 581.58
00009652 00000097 789.10 211.84 394.21 520.23 849.32 423.28 994.80 408.49 894.82 516.74 890.75 595.93 1031.10 581.92
00009653 00000098 789.28 213.04 393.00 521.08 849.27 423.88 993.83 409.16 894.05 516.96 890.92 596.94 1030.45 582.95
00009654 00000099 789.22 213.82 392.07 522.69 848.68 424.45 993.10 409.64 893.16 517.72 890.80 597.84 1030.84 583.69
00009655 00000100 789.32 213.13 392.19 525.80 847.77 424.85 991.95 409.19 891.82 517.64 891.24 599.09 1031.00 584.17
00009656 00000101 788.08 212.10 393.09 528.20 846.45 425.07 990.59 407.98 890.77 518.08 891.46 600.55 1031.46 584.37
00009657 00000102 788.07 211.87 393.38 529.56 846.31 424.79 989.96 407.39 890.28 517.90 891.91 600.88 1031.90 584.37
00009658 00000103 787.79 211.88 393.14 528.78 846.29 424.48 989.53 407.50 890.23 517.78 891.50 600.57 1030.82 584.49
00009659 00000104 787.53 211.35 393.22 528.38 845.88 424.50 989.03 407.79 889.53 517.75 890.98 600.24 1029.96 584.40
00009660 00000105 787.68 211.06 393.00 528.31 845.97 424.19 988.71 407.96 888.90 517.85 890.68 599.88 1029.41 584.39
00009661 00000106 788.36 213.48 393.57 525.86 846.38 424.69 989.46 408.29 889.07 518.41 890.99 600.27 1029.67 584.63
00009662 00000107 789.70 217.57 392.20 521.26 846.77 425.74 989.41 408.95 888.55 519.68 891.15 600.62 1029.43 584.72
00009663 00000108 789.62 217.18 392.34 521.00 846.73 426.00 989.20 408.42 889.05 519.92 891.84 600.85 1029.51 584.33
00009664 00000109 789.08 215.45 393.53 521.38 847.43 425.01 990.44 407.95 890.59 518.43 891.83 599.18 1030.14 583.15
00009665 00000110 788.97 214.89 392.77 519.80 847.49 423.72 991.98 408.09 891.23 517.54 890.02 597.59 1029.40 582.84
00009666 00000111 789.24 215.14 392.82 515.54 849.53 421.87 995.45 408.19 894.39 514.97 889.25 594.05 1029.23 581.13
00009667 00000112 789.75 213.27 392.61 512.63 850.81 420.22 997.32 407.76 896.13 512.25 889.34 592.01 1027.56 580.36
00009668 00000113 790.52 213.83 392.77 508.36 852.72 419.90 1000.31 406.44 901.55 511.28 891.59 590.14 1031.29 577.66
00009669 00000114 792.98 213.76 392.43 506.28 855.13 419.29 1003.01 404.31 906.89 511.81 896.77 589.40 1036.39 575.79
CROP_BBOX: 567 0 1542 990
