Video ID: 	eVyTBki1ulc
H: 	1080
W: 	1920
FPS: 	25.0

FRAME INDEX X0 Y0 W H [Landmarks (5 Points)]

00003805 00000000 727.73 243.84 379.23 521.60 775.10 455.99 919.55 430.52 817.82 544.09 822.10 636.28 948.15 615.01
00003806 00000001 728.32 242.70 379.60 522.14 775.23 456.12 920.86 430.53 818.68 544.16 822.15 637.05 947.96 615.77
00003807 00000002 728.57 240.21 379.73 520.50 775.14 455.47 923.01 429.51 820.75 543.02 821.46 636.94 948.52 615.51
00003808 00000003 729.72 239.13 380.40 520.24 776.32 454.45 924.72 427.60 822.57 541.31 822.65 636.48 949.73 614.35
00003809 00000004 730.21 237.79 382.22 526.84 778.40 452.61 924.18 426.26 823.80 540.29 826.52 636.53 949.18 614.86
00003810 00000005 732.40 235.75 382.01 533.94 781.15 452.35 924.04 425.11 825.47 540.57 831.66 637.57 951.25 615.19
00003811 00000006 734.17 233.17 382.93 534.84 782.83 451.98 925.87 424.56 827.07 540.24 833.24 637.65 951.94 615.30
00003812 00000007 736.16 230.62 382.52 528.77 784.51 451.47 931.64 424.86 831.19 540.46 832.29 635.53 954.75 613.47
00003813 00000008 738.07 227.96 382.88 527.62 787.18 450.62 936.39 424.94 834.54 538.77 830.92 631.79 958.37 610.08
00003814 00000009 739.05 228.21 384.19 527.47 789.49 448.98 939.98 423.93 838.46 538.51 832.05 630.84 961.93 609.63
00003815 00000010 743.81 225.26 381.68 529.44 792.76 447.80 941.33 423.08 839.74 537.89 835.35 630.03 963.60 609.08
00003816 00000011 746.69 224.75 382.40 534.00 796.71 447.74 943.89 422.96 843.17 536.24 838.75 630.20 966.14 609.45
00003817 00000012 753.81 234.21 376.99 528.62 805.64 455.36 945.30 428.84 846.98 532.77 844.71 629.33 968.06 607.62
00003818 DELETE   756.44 230.40 376.71 540.16 808.53 458.71 949.55 428.41 851.54 533.33 849.64 630.91 981.84 605.33
00003819 00000014 756.47 230.92 379.67 538.43 807.28 453.82 950.74 420.91 853.45 533.61 851.31 632.03 984.18 604.53
00003820 00000015 755.82 224.11 387.01 537.56 804.29 439.82 955.11 419.17 847.49 531.08 851.47 624.75 972.65 605.92
00003821 00000016 757.25 220.05 388.24 537.68 803.74 435.79 956.17 417.03 845.30 531.11 848.87 622.45 975.29 605.30
00003822 00000017 762.80 220.14 385.90 538.16 807.72 434.27 957.94 416.74 843.88 526.74 849.86 621.08 973.15 605.18
00003823 00000018 768.94 220.57 382.15 534.70 812.68 432.59 958.50 415.31 843.25 524.03 852.13 619.49 969.83 603.98
00003824 00000019 772.46 217.57 380.47 538.05 816.01 431.46 961.73 414.22 845.16 524.18 854.35 617.99 975.91 602.38
00003825 00000020 776.16 218.61 379.83 536.73 818.59 430.93 964.97 413.88 847.16 524.91 854.65 616.28 980.30 600.97
00003826 00000021 779.27 216.13 379.53 536.51 819.93 429.40 969.12 413.44 848.39 525.00 855.17 615.83 985.72 601.39
00003827 00000022 782.37 215.23 381.38 533.62 822.28 427.42 973.85 413.69 851.54 525.33 856.11 614.32 991.04 601.76
00003828 00000023 785.43 215.01 380.94 531.58 825.06 425.88 979.43 412.08 854.46 524.97 858.38 615.11 994.71 602.57
00003829 00000024 790.36 213.88 380.42 531.92 830.72 423.47 984.39 412.79 858.85 524.26 863.45 613.82 996.38 603.89
00003830 00000025 795.60 213.46 379.29 535.10 837.01 423.89 988.94 414.60 864.59 523.02 870.57 615.10 994.18 606.34
00003831 00000026 801.03 215.03 377.66 533.07 842.25 423.43 993.62 417.00 869.35 525.41 874.12 615.51 993.19 608.84
00003832 00000027 807.85 220.98 371.48 525.92 850.11 426.34 996.22 419.16 882.99 522.73 879.63 612.74 995.87 607.92
00003833 00000028 812.36 224.92 369.82 524.99 855.24 426.97 999.91 420.54 887.84 523.36 883.91 613.81 997.08 609.84
00003834 00000029 814.12 224.14 373.26 526.87 856.61 430.15 1002.75 421.66 888.22 524.90 884.95 613.76 1005.01 607.44
00003835 00000030 815.21 223.22 375.75 528.11 856.87 431.99 1003.96 420.48 887.58 525.20 885.89 613.96 1010.24 604.68
00003836 00000031 816.66 222.76 376.51 530.76 859.07 433.00 1005.83 420.88 889.48 525.11 887.28 613.74 1013.92 603.77
00003837 00000032 819.17 224.30 374.64 532.01 862.26 432.10 1007.32 421.70 892.36 525.84 889.84 612.34 1017.07 603.88
00003838 00000033 820.25 224.40 374.06 531.34 863.09 432.19 1008.02 421.78 892.84 525.46 890.10 612.28 1017.67 603.86
00003839 00000034 819.87 223.96 375.16 528.20 862.87 432.41 1007.92 421.68 892.93 525.29 889.67 612.02 1016.38 603.26
00003840 00000035 820.06 219.58 375.55 530.82 862.15 429.91 1008.66 421.20 892.02 524.84 888.17 610.53 1013.73 603.54
00003841 00000036 820.05 218.59 374.10 531.77 862.65 427.69 1007.93 421.97 891.55 525.01 887.66 609.96 1009.06 605.92
00003842 00000037 819.22 220.03 372.26 529.63 861.50 427.37 1006.70 422.64 889.97 524.01 885.43 609.85 1004.89 606.97
00003843 00000038 819.30 221.64 370.32 526.33 860.38 425.60 1004.80 422.77 887.76 523.98 882.42 609.66 999.33 608.63
00003844 00000039 818.77 222.66 367.31 523.79 858.49 425.04 1003.81 424.30 886.16 525.41 879.21 609.56 995.74 610.38
00003845 00000040 817.86 223.77 366.62 523.56 857.22 425.43 1002.08 425.12 884.22 526.36 878.20 612.69 992.26 614.10
00003846 00000041 816.83 222.74 367.04 524.91 855.61 426.62 1001.07 426.37 882.62 527.04 876.48 614.49 990.38 616.00
00003847 00000042 815.75 221.20 368.78 525.67 855.09 427.88 1001.46 427.17 882.59 527.72 875.63 615.63 991.15 616.66
00003848 00000043 815.82 222.46 368.05 524.18 855.00 427.43 1002.05 428.22 882.78 528.37 874.19 615.39 990.50 617.74
00003849 00000044 815.99 222.90 367.44 522.68 854.49 428.26 1002.31 428.66 882.96 529.19 873.28 616.21 990.42 618.29
00003850 00000045 815.68 225.13 366.82 520.13 853.29 428.47 1001.45 428.91 881.41 529.49 871.98 617.06 989.04 619.15
00003851 00000046 815.44 226.72 365.21 518.79 852.00 428.45 999.88 429.28 879.59 530.48 870.56 618.59 987.04 620.96
00003852 00000047 815.28 228.77 364.34 516.62 851.63 427.43 999.84 429.59 879.03 530.96 869.39 617.41 987.65 620.76
00003853 00000048 813.53 231.09 364.63 515.33 850.44 426.54 999.33 430.31 877.73 531.89 867.81 617.71 987.69 622.17
00003854 00000049 812.96 231.55 365.52 515.28 849.42 426.71 999.10 430.33 876.52 533.19 867.56 620.34 987.77 624.61
00003855 00000050 812.79 233.01 365.61 516.00 849.61 428.44 999.02 430.92 876.33 533.81 869.38 622.93 988.47 626.28
00003856 00000051 813.37 234.60 364.05 514.83 851.34 441.29 998.63 438.68 876.04 534.31 871.87 626.76 990.91 625.93
00003857 00000052 812.05 234.76 365.06 513.78 851.27 445.38 998.25 441.69 877.26 535.09 873.07 627.17 991.89 625.35
00003858 00000053 810.69 231.67 365.89 517.44 848.10 437.27 996.27 435.36 875.22 536.27 870.53 625.44 989.66 625.01
00003859 00000054 811.27 232.00 366.38 516.51 848.77 432.88 997.20 433.38 875.98 535.71 869.69 623.73 989.19 625.27
00003860 00000055 811.56 231.82 366.18 516.76 849.13 431.78 997.38 432.86 875.98 535.59 869.92 622.25 990.05 624.21
00003861 00000056 812.05 233.30 366.64 515.52 850.05 431.55 998.15 433.45 876.57 535.77 870.12 621.14 990.67 623.72
00003862 00000057 812.14 232.96 367.50 515.27 850.51 431.31 999.10 433.43 877.35 535.11 870.40 619.47 992.52 622.12
00003863 00000058 812.55 233.93 368.50 513.68 850.54 431.77 998.98 433.58 876.61 535.55 870.71 619.38 993.79 621.60
00003864 00000059 812.79 235.77 368.56 511.85 851.07 431.65 999.12 433.60 877.08 535.41 871.25 618.67 994.28 620.96
00003865 00000060 812.92 235.31 368.66 512.36 851.54 431.51 999.47 433.50 877.72 535.28 871.68 617.79 994.99 620.06
00003866 00000061 813.33 235.00 368.93 512.69 852.19 431.83 1000.08 433.92 878.21 535.33 871.83 617.68 995.33 620.04
00003867 00000062 813.78 235.16 369.06 512.76 852.41 431.61 1000.00 433.81 878.22 535.58 872.38 617.31 995.87 619.72
00003868 00000063 814.12 234.29 368.88 515.41 853.24 432.19 1000.30 433.60 879.18 535.43 873.88 617.33 997.40 619.09
00003869 00000064 814.54 234.39 369.34 518.84 854.80 431.96 1000.30 433.68 879.98 535.10 875.77 617.24 997.40 619.38
00003870 00000065 814.71 235.56 370.39 520.93 856.01 431.77 1000.46 433.22 880.69 534.59 877.77 617.54 998.57 619.49
00003871 00000066 815.35 236.55 370.61 519.55 856.86 432.39 1000.92 432.71 881.52 534.05 878.98 616.55 1000.82 617.45
00003872 00000067 815.24 234.74 372.07 520.66 856.40 432.73 1002.16 431.48 881.74 533.12 878.73 615.90 1004.04 615.28
00003873 00000068 815.83 232.34 373.66 523.64 857.76 432.40 1003.53 429.50 883.86 531.79 880.74 613.70 1008.28 611.54
00003874 00000069 818.37 227.56 374.03 529.52 861.29 433.31 1007.77 427.20 888.80 527.99 884.07 610.73 1017.65 605.47
00003875 00000070 823.65 221.26 372.00 534.47 866.01 430.65 1012.71 423.25 893.51 522.68 889.57 608.90 1024.51 602.81
00003876 00000071 831.46 220.40 375.11 532.23 883.17 415.41 1024.35 421.26 893.83 513.19 899.89 605.24 1016.44 608.07
00003877 DELETE   841.35 209.78 376.59 537.01 891.55 411.68 1036.21 417.12 901.69 509.34 901.21 601.32 1024.14 604.60
00003878 00000073 849.34 206.58 377.17 532.54 899.34 407.26 1049.95 412.18 913.02 502.05 905.16 597.25 1028.84 600.68
00003879 00000074 861.97 201.31 376.20 528.40 912.39 397.16 1065.77 408.00 925.61 495.21 912.40 587.31 1040.13 595.84
00003880 00000075 874.81 202.49 373.59 517.45 929.50 389.88 1082.77 404.86 944.16 488.63 927.63 578.24 1055.66 589.93
00003881 00000076 885.31 203.61 373.37 511.18 941.84 385.98 1097.28 402.34 960.90 485.50 939.16 571.72 1066.73 584.90
00003882 00000077 897.62 204.63 361.34 508.94 946.52 383.56 1096.64 408.32 962.81 482.32 939.53 565.47 1068.06 587.97
00003883 00000078 903.67 205.79 360.07 507.14 952.19 384.51 1101.78 408.29 967.07 479.60 941.85 565.37 1072.04 586.98
00003884 00000079 907.51 203.77 361.69 508.19 955.55 383.42 1105.72 408.48 970.09 482.60 946.87 565.61 1076.29 588.07
00003885 00000080 909.31 202.81 363.78 514.97 958.85 382.51 1107.87 406.22 970.95 483.46 952.75 570.87 1076.42 592.31
00003886 00000081 907.49 202.41 365.67 523.33 959.95 382.92 1108.19 407.27 970.90 481.59 951.64 572.53 1074.18 594.38
00003887 00000082 905.95 199.56 367.50 528.13 957.29 383.46 1105.05 405.82 968.33 480.61 951.67 572.05 1076.42 591.73
00003888 00000083 901.96 194.92 371.09 529.08 952.22 384.45 1101.59 404.44 967.36 481.24 950.71 568.93 1079.92 586.64
00003889 00000084 900.47 196.75 369.31 522.47 948.40 385.36 1098.52 402.20 967.75 481.52 950.75 566.77 1082.53 582.45
00003890 00000085 898.17 191.49 372.85 523.37 944.64 384.37 1098.51 397.57 966.79 480.39 949.45 565.64 1085.98 578.62
00003891 00000086 897.71 189.79 373.17 521.23 941.84 382.81 1097.84 394.25 966.15 479.02 949.02 563.35 1088.88 574.78
00003892 00000087 896.10 186.66 374.33 514.44 946.38 385.39 1092.78 385.97 967.00 468.86 952.65 558.11 1089.56 560.04
00003893 00000088 897.11 184.22 372.08 512.57 944.75 383.73 1090.95 382.50 965.83 464.43 951.44 555.09 1088.80 555.56
00003894 00000089 896.98 182.74 371.52 513.02 942.70 381.92 1087.90 379.87 962.37 462.98 951.02 553.97 1087.07 553.72
00003895 00000090 895.07 178.72 371.10 516.83 939.60 380.87 1085.96 376.65 959.38 461.02 949.00 553.52 1086.84 551.28
00003896 DELETE   893.64 174.68 367.32 520.45 936.95 379.16 1079.01 375.50 954.15 460.55 948.11 551.10 1084.54 548.90
00003897 00000092 893.21 173.44 362.35 522.17 931.72 376.28 1069.60 373.49 943.28 462.57 944.93 553.64 1074.25 551.97
00003898 00000093 889.11 174.12 356.33 527.61 925.35 378.19 1051.34 374.36 924.59 464.73 942.51 556.36 1058.92 553.31
00003899 00000094 888.24 175.56 357.73 538.02 926.43 378.33 1039.76 371.24 909.29 464.63 944.86 565.96 1053.86 559.23
00003900 00000095 888.43 173.55 356.49 548.92 928.71 376.54 1041.39 371.05 910.11 463.81 944.94 569.90 1053.00 564.74
00003901 00000096 890.07 177.10 360.21 538.58 926.93 374.48 1048.81 374.26 918.24 467.08 941.07 569.39 1049.39 569.92
00003902 00000097 885.35 165.69 365.95 551.87 926.69 390.36 1060.75 381.79 928.19 470.04 934.87 579.17 1044.18 573.23
00003903 DELETE   890.30 186.22 360.28 533.60 931.24 404.79 1067.74 397.61 937.88 472.23 940.95 585.00 1051.77 579.11
00003904 00000099 886.92 186.48 367.30 536.30 927.96 403.37 1070.01 393.29 943.08 483.02 940.25 593.84 1052.45 585.71
00003905 DELETE   887.22 193.40 365.65 535.15 929.47 403.20 1070.57 394.96 941.48 482.87 941.80 597.21 1047.48 590.60
00003906 00000101 884.03 197.73 361.97 538.83 926.73 405.65 1068.98 398.66 937.22 484.53 938.00 601.55 1041.63 595.75
00003907 00000102 882.43 201.17 359.65 539.73 923.65 407.43 1066.58 402.10 932.08 487.41 931.94 603.55 1036.24 599.23
00003908 00000103 879.90 202.26 360.64 540.11 919.10 410.90 1061.62 405.33 926.57 491.90 926.82 605.33 1032.06 600.95
00003909 00000104 874.65 206.24 365.64 537.29 913.23 416.09 1055.53 408.41 921.32 497.58 922.74 609.33 1030.08 603.28
00003910 00000105 868.04 203.27 371.42 541.58 906.07 416.23 1050.43 411.95 914.13 505.83 919.84 610.28 1031.29 606.66
00003911 00000106 862.57 202.77 371.69 542.74 902.48 416.10 1046.21 414.85 909.28 509.45 915.11 608.77 1029.25 607.53
00003912 00000107 858.02 205.50 370.05 540.99 899.94 416.18 1044.09 418.07 906.07 512.67 909.25 609.12 1026.25 610.23
00003913 00000108 853.90 208.30 369.32 540.30 897.58 417.91 1040.78 421.44 903.63 515.66 907.45 608.04 1024.75 610.05
00003914 00000109 850.96 215.35 368.32 536.15 895.86 418.73 1038.60 423.35 900.83 515.55 905.06 609.39 1019.56 612.12
CROP_BBOX: 577 0 1423 891
