Video ID: 	0gFuWZrK0xA
H: 	1080
W: 	1920
FPS: 	25.0

FRAME INDEX X0 Y0 W H [Landmarks (5 Points)]

00009335 00000000 1090.07 180.27 441.34 647.15 1175.45 409.08 1360.22 441.53 1195.47 513.40 1144.35 637.01 1280.01 666.43
00009336 00000001 1091.57 179.67 445.24 650.07 1179.63 406.87 1359.21 435.90 1202.53 516.67 1150.65 639.66 1284.25 664.79
00009337 00000002 1091.90 179.70 443.75 646.82 1178.48 406.56 1358.32 436.39 1201.83 518.26 1150.01 639.03 1282.42 664.73
00009338 00000003 1093.07 188.25 442.71 628.17 1173.08 404.54 1369.51 441.95 1193.12 523.42 1139.78 635.08 1290.72 666.19
00009339 00000004 1093.43 188.62 441.47 628.23 1173.92 403.72 1369.15 441.34 1193.53 521.97 1140.27 634.42 1290.31 665.66
00009340 00000005 1092.70 189.13 441.58 628.88 1172.31 404.79 1368.81 441.52 1193.66 521.32 1139.97 637.62 1291.22 668.21
00009341 00000006 1092.54 179.28 439.84 648.79 1177.66 407.72 1357.01 434.44 1202.19 515.28 1150.19 641.90 1279.20 665.23
00009342 00000007 1094.05 189.28 438.46 630.78 1173.21 406.36 1366.45 440.25 1193.84 522.06 1142.39 642.70 1287.55 671.02
00009343 00000008 1094.15 179.02 436.41 648.48 1176.49 408.65 1355.28 434.99 1202.68 517.66 1151.25 642.36 1279.80 665.37
00009344 00000009 1092.15 185.06 438.20 627.56 1166.25 410.50 1365.20 443.72 1193.35 526.99 1139.80 641.23 1292.18 669.28
00009345 00000010 1090.78 185.92 437.24 625.04 1164.99 411.17 1364.02 444.75 1193.25 528.20 1138.45 640.33 1290.43 668.84
00009346 00000011 1090.20 187.86 436.07 620.80 1164.05 411.14 1360.69 444.51 1192.48 527.38 1137.23 639.60 1287.83 668.21
00009347 00000012 1092.00 186.34 431.55 616.05 1161.60 412.74 1357.00 440.09 1193.58 524.37 1140.49 639.12 1289.29 662.89
00009348 00000013 1090.64 184.66 426.77 616.83 1157.06 417.98 1350.82 435.54 1196.91 524.14 1146.80 642.58 1296.16 658.01
00009349 00000014 1085.80 188.74 427.00 616.93 1151.59 426.06 1342.36 434.53 1196.79 525.80 1149.83 648.41 1299.06 656.19
00009350 00000015 1080.04 200.92 428.45 617.94 1146.17 444.66 1335.11 437.90 1191.91 523.95 1151.62 658.65 1305.99 652.96
00009351 DELETE   1069.06 207.22 430.87 626.74 1137.09 448.80 1320.18 432.09 1182.02 524.08 1152.01 669.76 1298.89 655.90
00009352 00000017 1057.08 207.09 427.60 631.01 1121.83 448.94 1302.31 424.28 1166.08 522.46 1146.43 678.62 1285.90 658.83
00009353 00000018 1046.12 204.11 432.89 635.00 1107.67 447.41 1279.68 415.68 1143.70 521.23 1137.24 678.20 1266.02 653.25
00009354 DELETE   1027.28 199.13 441.18 625.69 1089.56 454.53 1261.44 416.16 1125.88 519.12 1119.15 671.98 1245.12 642.04
00009355 00000020 1014.33 195.58 442.17 622.70 1076.44 458.27 1246.67 416.78 1114.17 518.41 1106.29 670.62 1230.28 638.16
00009356 00000021 1012.99 190.12 432.61 630.53 1065.42 453.30 1234.51 421.73 1097.80 524.48 1088.03 664.60 1213.80 639.84
00009357 00000022 1011.42 194.39 427.44 625.38 1058.57 454.14 1224.61 426.40 1083.92 529.55 1075.91 665.44 1201.59 644.12
00009358 00000023 1012.51 190.36 424.57 630.03 1050.61 453.55 1214.12 428.34 1073.53 532.71 1065.36 668.97 1187.97 650.01
00009359 00000024 1009.93 193.39 417.07 627.19 1045.76 454.94 1206.74 434.74 1065.79 536.70 1055.71 673.01 1173.23 658.36
00009360 DELETE   1004.74 199.31 421.30 631.42 1038.31 474.86 1201.29 438.72 1062.13 542.51 1057.98 693.00 1177.80 666.29
00009361 DELETE   1000.61 202.92 417.15 651.25 1041.94 471.75 1196.69 449.79 1043.81 549.21 1054.63 702.54 1176.21 684.02
00009362 00000027 1000.80 203.70 415.34 649.43 1040.22 460.66 1194.46 447.36 1037.99 549.69 1045.80 695.03 1171.74 683.78
00009363 00000028 1001.47 201.48 412.71 649.67 1039.22 448.91 1198.47 443.47 1039.95 547.55 1039.64 688.24 1172.72 683.53
00009364 DELETE   1007.10 209.14 416.06 635.36 1045.76 446.35 1208.51 443.47 1051.64 545.38 1043.70 683.40 1174.72 681.46
00009365 00000030 1011.98 208.52 421.28 626.24 1057.22 446.48 1229.01 442.32 1076.55 542.89 1060.15 675.33 1200.93 672.03
00009366 00000031 1012.74 207.74 424.36 625.56 1068.28 444.96 1248.09 441.70 1100.19 545.59 1075.30 673.13 1221.54 670.39
00009367 00000032 1011.22 209.13 442.13 637.05 1081.55 452.25 1259.62 445.29 1118.93 548.24 1096.08 681.00 1232.81 675.44
00009368 00000033 1012.65 211.78 438.82 630.43 1078.40 452.80 1261.33 443.77 1118.05 550.42 1092.87 681.86 1232.67 675.43
00009369 00000034 1011.01 207.34 441.77 643.36 1079.43 454.96 1259.50 448.12 1116.27 557.82 1093.05 688.97 1233.03 683.72
00009370 00000035 1011.80 208.40 437.33 642.61 1077.36 455.98 1256.82 450.27 1110.16 557.95 1088.80 690.53 1224.77 686.45
00009371 00000036 1013.80 209.77 434.33 640.21 1077.55 454.56 1254.85 451.63 1105.68 557.99 1087.15 688.61 1221.61 686.79
00009372 00000037 1016.90 207.57 434.62 644.85 1080.32 455.63 1256.64 453.54 1106.73 558.72 1087.98 689.53 1222.89 688.47
00009373 00000038 1019.97 204.80 434.57 645.75 1082.40 457.34 1259.98 454.31 1111.48 562.64 1092.86 691.88 1228.44 690.12
00009374 00000039 1023.69 203.23 433.17 645.90 1083.29 456.40 1262.74 453.94 1114.46 565.01 1094.27 692.11 1233.37 690.80
00009375 00000040 1026.16 202.09 433.23 648.60 1085.81 457.03 1264.88 454.94 1116.21 566.31 1096.19 692.60 1235.26 691.74
00009376 00000041 1027.62 202.02 431.82 646.61 1087.21 457.71 1266.13 456.02 1117.64 566.81 1097.40 691.16 1234.46 690.71
00009377 00000042 1029.70 203.26 430.72 643.43 1088.14 458.48 1268.78 457.01 1120.13 567.19 1097.79 691.16 1234.41 691.06
00009378 00000043 1030.71 203.94 431.89 644.97 1088.81 459.73 1269.42 458.40 1120.04 567.42 1097.68 691.92 1234.10 692.09
00009379 00000044 1031.27 203.85 433.08 645.12 1088.93 460.28 1269.57 458.77 1119.90 567.52 1097.60 692.19 1234.08 692.33
00009380 00000045 1032.09 204.31 432.60 645.44 1089.66 460.13 1269.76 458.61 1120.37 566.98 1098.35 691.80 1234.68 691.95
00009381 00000046 1032.36 205.01 432.82 645.56 1090.16 459.57 1269.93 458.39 1120.39 566.50 1098.81 691.52 1235.10 691.92
00009382 00000047 1032.68 204.64 432.98 645.91 1090.57 459.62 1270.23 458.10 1120.70 565.98 1099.53 691.45 1235.67 691.59
00009383 00000048 1032.99 204.82 433.71 648.51 1091.04 459.23 1270.02 457.85 1119.76 565.57 1099.87 692.68 1234.71 692.98
00009384 00000049 1034.30 205.41 433.42 649.36 1091.84 460.06 1270.64 458.60 1119.95 566.07 1100.68 693.64 1235.10 693.99
00009385 00000050 1035.50 206.15 433.05 649.01 1092.07 460.40 1270.86 459.01 1120.07 566.89 1100.52 694.05 1234.52 694.56
00009386 00000051 1036.80 205.73 431.60 649.16 1092.69 459.86 1271.36 458.82 1120.78 566.35 1100.82 693.32 1235.10 694.11
00009387 00000052 1037.13 206.40 431.58 648.18 1092.84 459.65 1271.26 457.89 1121.26 565.43 1101.51 693.52 1235.01 693.72
00009388 00000053 1037.47 206.37 431.11 647.79 1092.91 459.41 1271.45 456.99 1121.31 564.59 1102.05 693.24 1235.49 692.86
00009389 00000054 1037.67 206.34 430.67 646.95 1093.06 459.52 1271.88 456.84 1121.86 564.60 1102.21 693.39 1235.82 692.79
00009390 00000055 1038.88 205.95 430.19 647.20 1094.08 459.75 1272.23 456.72 1122.85 563.88 1103.03 692.67 1236.15 691.80
00009391 00000056 1040.12 205.45 429.75 647.21 1094.82 459.57 1272.64 456.54 1123.79 562.52 1103.01 691.79 1236.13 691.01
00009392 00000057 1041.96 204.56 428.51 647.91 1095.83 459.16 1274.01 456.22 1125.90 561.76 1103.39 691.55 1237.47 690.89
00009393 00000058 1044.01 204.35 427.18 647.96 1097.12 459.10 1275.32 456.40 1127.52 562.14 1104.53 691.31 1238.64 691.04
00009394 00000059 1046.06 204.35 427.76 648.64 1098.44 458.76 1276.08 455.87 1129.34 561.99 1106.49 691.15 1240.61 690.80
00009395 00000060 1047.29 204.05 427.86 649.37 1099.50 458.86 1277.02 455.81 1130.62 561.25 1107.80 691.24 1242.17 690.71
00009396 00000061 1048.27 203.23 427.02 648.99 1100.53 458.93 1278.19 455.62 1132.43 560.86 1108.73 690.91 1243.61 690.19
00009397 00000062 1049.25 203.18 426.25 648.03 1101.60 458.36 1279.65 455.37 1134.02 560.27 1109.91 690.15 1244.93 689.70
00009398 00000063 1050.38 203.10 425.44 646.12 1101.99 458.23 1280.27 455.62 1134.67 560.22 1110.01 689.54 1245.23 689.46
00009399 00000064 1050.19 203.69 426.52 650.09 1102.48 457.22 1279.50 454.82 1132.59 558.72 1110.01 689.69 1244.00 689.79
00009400 00000065 1047.60 204.76 430.99 654.62 1099.27 456.53 1276.06 454.57 1124.90 559.02 1105.80 691.30 1240.15 691.77
00009401 00000066 1047.53 203.32 426.33 660.50 1097.64 460.97 1271.34 460.24 1115.65 559.47 1100.39 695.31 1229.20 696.82
00009402 00000067 1047.36 200.66 426.03 657.88 1097.30 455.61 1269.55 460.36 1111.28 555.58 1091.27 688.31 1221.20 693.41
00009403 00000068 1057.65 200.10 417.62 652.45 1106.64 441.66 1272.89 457.15 1108.72 549.40 1087.85 678.36 1214.96 693.09
00009404 00000069 1068.71 206.76 413.20 641.69 1121.64 429.58 1282.62 456.62 1117.32 545.89 1090.27 668.56 1215.47 692.69
00009405 DELETE   1075.87 207.46 419.32 640.82 1138.07 426.08 1298.35 463.80 1129.48 548.39 1096.97 663.39 1222.40 695.83
00009406 00000071 1079.47 206.29 432.96 641.94 1157.53 428.05 1322.44 475.08 1147.96 548.78 1104.72 660.74 1234.47 699.75
00009407 DELETE   1092.81 213.41 425.61 646.80 1166.56 428.19 1328.69 478.95 1160.98 550.51 1124.90 663.56 1243.26 708.01
00009408 00000073 1097.45 216.60 430.04 648.12 1172.62 431.28 1337.20 480.07 1171.03 553.94 1131.70 669.44 1251.55 712.07
00009409 DELETE   1103.50 217.30 434.51 649.65 1177.29 435.94 1345.02 480.78 1178.16 557.55 1140.34 675.94 1260.35 714.93
00009410 00000075 1108.79 216.67 433.51 648.21 1184.63 435.95 1352.30 481.83 1188.11 558.94 1147.43 672.60 1263.66 712.56
00009411 00000076 1113.17 220.24 430.98 644.85 1190.45 434.62 1359.69 479.12 1196.20 556.94 1152.62 671.43 1270.08 710.31
00009412 00000077 1112.37 214.01 442.26 655.88 1198.56 436.26 1372.72 479.65 1210.40 555.22 1154.86 671.21 1284.28 708.48
00009413 00000078 1116.97 210.64 440.46 657.97 1199.53 440.73 1374.33 479.70 1212.67 555.20 1159.73 671.10 1291.38 704.48
00009414 00000079 1117.98 213.38 439.74 658.31 1197.12 448.35 1373.40 482.03 1212.96 552.49 1162.62 675.85 1302.28 705.17
00009415 00000080 1116.84 213.27 438.82 657.12 1195.52 448.83 1373.53 479.81 1214.21 552.38 1162.92 675.78 1305.58 702.90
00009416 00000081 1116.40 209.41 435.52 658.51 1195.73 446.46 1371.89 474.52 1218.21 557.20 1168.23 673.05 1307.41 697.96
00009417 00000082 1115.42 205.99 428.97 659.27 1188.93 439.58 1369.18 463.93 1218.01 557.59 1170.71 673.91 1313.17 695.26
00009418 00000083 1109.50 206.45 431.70 661.26 1183.29 441.04 1365.45 460.75 1215.89 556.13 1170.49 676.36 1314.39 693.64
00009419 00000084 1105.02 202.76 427.26 661.45 1174.02 445.34 1358.14 462.90 1203.53 556.30 1165.35 683.22 1303.56 699.32
00009420 00000085 1094.28 201.63 431.31 665.12 1167.72 443.10 1348.45 452.77 1206.24 557.76 1169.26 684.93 1301.44 694.49
00009421 00000086 1080.49 203.19 432.63 651.46 1153.84 443.40 1340.51 450.97 1196.51 559.91 1157.46 682.49 1305.39 687.96
00009422 00000087 1075.66 200.02 430.86 648.67 1140.57 447.72 1324.37 451.42 1180.91 556.81 1142.48 678.46 1296.22 680.72
00009423 00000088 1065.30 204.50 424.52 639.14 1127.85 447.27 1310.04 447.61 1168.94 555.94 1131.55 679.52 1282.07 680.35
00009424 00000089 1054.36 202.07 427.91 641.62 1112.67 448.25 1298.07 443.14 1153.63 556.30 1120.91 682.71 1269.94 679.47
00009425 00000090 1049.64 198.24 422.84 647.78 1102.18 454.79 1284.25 447.01 1137.71 551.83 1113.97 685.04 1255.17 679.96
00009426 00000091 1041.23 197.61 426.55 649.14 1096.98 456.27 1276.23 447.54 1129.71 552.23 1109.26 685.65 1245.06 679.68
00009427 00000092 1034.63 201.91 424.48 637.13 1088.97 453.59 1270.23 446.65 1118.76 548.12 1100.74 682.77 1234.60 678.73
00009428 00000093 1028.78 203.61 425.04 629.30 1086.04 453.14 1266.68 449.40 1115.57 545.42 1092.70 675.75 1229.44 674.14
00009429 00000094 1025.10 204.42 425.82 628.03 1083.89 451.94 1263.40 448.53 1113.67 542.78 1087.88 674.41 1220.45 673.42
00009430 00000095 1022.58 204.71 426.12 626.10 1082.92 451.93 1257.98 447.15 1110.05 539.03 1085.43 672.08 1213.53 669.98
00009431 00000096 1019.45 205.55 425.53 626.81 1080.69 451.71 1257.31 448.67 1107.50 538.49 1081.43 673.62 1209.48 672.81
00009432 00000097 1018.06 203.91 427.14 637.18 1079.80 452.13 1255.74 448.97 1105.10 538.58 1080.94 677.97 1209.27 677.11
00009433 00000098 1017.40 205.39 426.67 636.19 1079.37 452.42 1255.22 449.78 1104.08 539.15 1079.86 678.31 1208.88 677.84
00009434 00000099 1017.90 206.72 426.58 634.92 1080.01 452.29 1256.55 450.71 1105.25 539.74 1079.38 676.82 1211.24 677.16
00009435 00000100 1019.41 205.68 427.89 636.99 1081.04 453.36 1257.93 450.22 1105.89 540.05 1081.09 678.95 1212.80 678.11
00009436 00000101 1020.93 205.70 428.84 638.22 1082.02 451.95 1260.57 449.49 1108.01 540.86 1083.01 680.61 1213.97 680.55
00009437 00000102 1024.46 206.11 426.98 639.81 1086.04 449.22 1264.11 447.88 1110.65 539.60 1087.20 678.90 1217.39 679.66
00009438 00000103 1028.86 207.44 424.60 637.25 1088.20 448.47 1268.20 446.93 1113.58 538.49 1090.92 677.33 1222.57 677.92
00009439 00000104 1033.24 209.96 425.65 632.17 1094.45 448.90 1270.98 448.41 1120.10 539.40 1099.15 675.70 1232.18 676.08
00009440 00000105 1040.94 214.45 426.99 621.84 1102.02 447.43 1279.86 445.54 1130.37 535.88 1105.30 669.83 1241.25 669.67
00009441 DELETE   1052.84 214.74 425.12 613.82 1114.28 434.47 1299.35 435.03 1153.56 535.08 1114.32 657.21 1269.41 658.54
00009442 00000107 1060.37 225.03 427.21 594.71 1127.16 433.16 1314.77 434.91 1176.06 527.90 1127.26 649.77 1282.15 651.89
00009443 00000108 1069.14 223.05 425.02 588.76 1136.65 429.84 1322.44 433.33 1184.98 521.22 1133.42 643.95 1284.80 648.10
00009444 00000109 1074.04 222.66 424.47 585.76 1140.18 427.03 1325.87 432.21 1185.17 518.74 1135.27 639.67 1285.11 645.46
00009445 00000110 1076.21 219.12 423.54 593.15 1143.18 426.76 1327.38 431.32 1186.92 518.27 1139.06 642.34 1283.96 647.94
00009446 00000111 1076.27 216.75 424.23 600.32 1141.73 426.82 1328.90 430.53 1184.76 519.78 1138.77 643.28 1293.09 647.61
00009447 00000112 1076.29 216.83 425.55 604.93 1140.58 427.97 1327.35 429.77 1181.11 520.10 1139.90 648.18 1293.83 650.73
00009448 00000113 1076.82 215.04 423.72 609.74 1139.71 427.53 1323.15 428.74 1175.99 518.71 1139.98 650.42 1290.20 652.52
00009449 00000114 1078.03 211.08 422.68 606.31 1138.89 426.64 1322.53 425.66 1173.01 510.95 1138.93 647.66 1287.45 648.44
00009450 00000115 1078.93 199.09 425.19 595.66 1140.80 425.31 1329.42 420.53 1178.86 498.28 1138.25 639.26 1286.62 636.96
00009451 00000116 1075.67 190.68 428.13 586.13 1144.15 418.22 1340.60 413.22 1195.62 489.13 1144.87 623.40 1303.00 619.82
00009452 00000117 1077.00 178.46 430.60 586.39 1154.36 406.90 1352.24 405.75 1208.95 479.91 1153.82 612.42 1317.95 611.74
00009453 00000118 1077.75 177.49 432.21 582.66 1159.72 402.95 1359.05 400.13 1220.20 474.20 1164.88 608.54 1329.11 606.07
00009454 00000119 1078.50 177.93 433.38 584.19 1161.56 402.58 1363.48 398.94 1223.32 473.23 1166.70 609.61 1333.22 606.61
00009455 00000120 1077.83 177.55 434.84 590.53 1162.10 403.27 1362.97 400.78 1223.60 476.57 1166.35 612.78 1331.66 610.75
00009456 00000121 1077.11 175.44 434.98 601.91 1159.93 403.90 1360.07 403.37 1219.31 480.74 1161.95 616.95 1328.19 616.64
00009457 00000122 1074.30 186.66 436.82 594.18 1153.45 417.23 1357.21 412.03 1216.71 484.45 1159.03 623.18 1325.47 618.66
00009458 00000123 1075.71 190.48 432.70 591.99 1154.21 418.22 1352.33 415.13 1211.86 490.00 1157.77 625.93 1316.23 623.47
00009459 00000124 1077.59 190.15 430.00 594.47 1152.05 419.34 1350.51 417.92 1206.65 495.10 1152.44 627.12 1314.82 625.73
00009460 00000125 1078.78 190.24 428.78 593.07 1152.54 419.64 1350.80 419.66 1206.46 497.16 1152.11 627.39 1312.65 627.46
00009461 00000126 1080.54 191.22 428.67 591.63 1155.89 419.09 1353.80 420.96 1209.34 498.15 1154.55 626.79 1313.45 628.33
00009462 00000127 1082.10 189.54 431.23 594.76 1160.95 418.18 1361.28 420.58 1217.20 496.52 1160.27 626.38 1321.24 628.02
00009463 00000128 1089.92 176.55 427.04 609.03 1174.46 411.59 1367.20 418.97 1225.79 492.38 1168.20 622.33 1324.17 629.50
00009464 00000129 1097.10 180.25 429.31 606.11 1186.03 417.83 1369.63 422.23 1226.27 486.95 1173.36 621.74 1311.85 626.87
00009465 00000130 1098.97 184.90 427.73 599.94 1188.00 416.87 1371.95 422.37 1228.21 488.65 1174.17 622.25 1312.61 628.41
00009466 00000131 1093.05 187.42 431.77 598.83 1176.86 422.66 1378.39 422.79 1233.69 497.79 1174.74 630.59 1338.19 630.23
00009467 00000132 1093.12 190.22 429.33 599.03 1172.38 424.36 1373.90 424.80 1226.11 502.93 1168.75 632.82 1333.53 633.10
00009468 00000133 1093.33 191.74 428.41 598.63 1168.70 423.98 1370.00 427.10 1218.68 507.29 1162.48 633.07 1328.70 635.64
00009469 00000134 1095.56 191.26 425.41 601.94 1168.61 424.07 1368.70 427.19 1216.83 510.57 1163.44 636.70 1327.15 639.40
CROP_BBOX: 791 0 1766 1010
