Video ID: 	jlVEYnYQMws
H: 	1080
W: 	1920
FPS: 	25.0

FRAME INDEX X0 Y0 W H [Landmarks (5 Points)]

00041316 00000000 860.17 146.01 414.72 632.09 899.37 400.08 1077.30 399.64 935.33 512.54 913.40 641.30 1042.12 641.22
00041317 00000001 860.99 144.35 413.81 634.93 900.43 399.00 1077.33 398.88 934.76 512.12 913.80 638.65 1044.40 638.72
00041318 00000002 861.76 140.49 415.37 637.16 901.02 398.50 1079.32 399.50 935.05 513.21 913.83 637.39 1047.11 638.03
00041319 00000003 862.58 143.29 415.28 634.58 901.83 399.19 1080.22 400.67 936.56 514.11 914.92 638.29 1048.19 639.27
00041320 00000004 863.46 147.16 416.00 632.56 903.68 400.59 1082.54 401.53 938.89 514.75 917.34 639.59 1050.20 640.26
00041321 00000005 866.28 146.46 415.05 635.34 906.34 401.40 1084.20 402.39 940.30 516.38 920.18 640.73 1053.07 641.51
00041322 00000006 867.36 148.63 414.27 632.83 909.18 402.50 1087.45 403.62 943.97 517.11 923.06 641.25 1056.32 642.24
00041323 00000007 869.47 149.90 412.78 631.34 913.17 401.71 1091.47 404.05 947.59 516.48 924.89 638.67 1058.67 640.84
00041324 00000008 873.18 145.03 412.51 634.73 916.16 401.77 1093.80 403.74 948.20 514.56 926.54 639.58 1059.37 641.57
00041325 00000009 873.72 137.34 420.18 651.19 926.55 401.20 1108.16 402.99 958.64 510.51 940.04 643.07 1058.91 645.14
00041326 00000010 879.62 129.08 416.22 649.42 927.04 395.14 1109.47 400.38 970.36 511.41 941.20 631.11 1059.59 636.93
00041327 00000011 884.14 123.79 412.13 655.70 931.08 394.92 1112.52 399.47 974.93 510.61 945.14 631.88 1061.61 637.26
00041328 00000012 884.90 129.63 413.95 648.79 935.47 394.91 1115.06 399.82 977.83 510.09 949.16 631.09 1066.90 636.27
00041329 00000013 885.42 127.48 416.65 649.74 936.65 395.10 1118.11 397.32 981.55 507.55 949.56 631.00 1070.93 633.95
00041330 00000014 885.67 122.24 419.48 652.01 937.11 393.09 1120.04 395.96 982.36 504.11 947.33 628.70 1070.97 632.31
00041331 00000015 887.83 117.72 417.84 656.15 941.94 394.00 1127.45 394.88 978.65 497.04 951.57 630.13 1075.42 632.24
00041332 DELETE   889.33 113.24 419.87 657.38 944.23 388.21 1129.83 388.02 982.20 490.86 954.69 625.02 1078.18 626.33
00041333 00000017 892.68 109.29 415.42 660.37 939.95 374.98 1128.70 378.43 980.78 482.26 954.49 619.07 1075.18 624.07
00041334 00000018 888.44 108.06 418.46 657.45 938.79 366.35 1127.12 365.39 980.68 460.76 950.74 609.26 1073.85 610.61
00041335 00000019 887.39 97.38 414.81 652.72 940.75 349.54 1123.13 347.16 987.80 444.95 953.22 588.80 1072.61 588.10
00041336 00000020 885.17 87.15 419.75 658.53 940.92 344.27 1126.60 337.56 986.20 433.82 951.88 582.73 1074.30 578.39
00041337 00000021 885.55 81.92 419.59 666.00 941.61 338.50 1127.71 331.63 985.57 426.73 948.53 578.47 1073.28 574.18
00041338 00000022 879.67 87.92 426.55 657.97 940.88 337.24 1131.33 331.55 973.48 416.23 946.37 583.78 1079.65 582.58
00041339 00000023 880.87 88.99 426.11 656.98 939.22 333.71 1132.76 324.12 976.09 405.97 949.43 580.89 1089.18 576.42
00041340 00000024 886.19 73.24 431.70 685.18 941.36 339.49 1129.04 316.82 976.56 408.37 962.69 585.34 1090.11 568.19
00041341 DELETE   893.88 74.00 432.15 686.11 942.96 337.74 1130.69 310.40 978.96 404.24 967.19 587.01 1095.35 566.07
00041342 DELETE   905.30 76.63 421.33 685.02 947.63 336.04 1135.28 308.99 983.58 403.63 973.53 586.79 1102.00 566.17
00041343 00000027 911.91 80.29 414.62 689.71 952.90 335.82 1139.15 309.28 991.26 405.98 983.39 590.82 1112.92 570.50
00041344 DELETE   918.86 83.53 417.93 692.68 966.33 339.75 1148.35 313.84 1003.83 412.73 995.86 594.88 1125.03 575.20
00041345 DELETE   918.35 89.57 428.88 687.11 973.22 346.44 1155.72 319.88 1011.23 420.15 1003.37 596.99 1134.39 576.77
00041346 00000030 920.51 91.90 431.82 682.90 973.12 351.50 1161.04 326.28 1019.64 431.75 1004.25 601.33 1132.10 582.55
00041347 DELETE   924.22 95.43 432.82 669.62 977.19 355.54 1165.33 334.82 1029.82 442.32 1007.70 598.60 1135.34 583.44
00041348 DELETE   929.20 101.29 431.62 652.31 980.63 361.51 1169.43 343.09 1036.48 450.23 1010.15 597.25 1137.29 583.83
00041349 00000033 929.91 117.53 429.07 629.19 983.92 369.70 1177.87 356.13 1038.29 465.14 1004.13 605.62 1152.73 594.51
00041350 00000034 930.61 121.20 431.16 626.83 988.08 375.29 1181.62 366.80 1042.29 476.50 1004.96 606.38 1157.49 598.75
00041351 00000035 930.88 126.98 432.04 623.67 989.51 380.24 1181.92 372.77 1043.99 482.45 1007.17 608.82 1158.77 601.92
00041352 00000036 930.59 126.49 433.26 627.26 990.84 383.72 1184.12 377.69 1045.06 486.41 1007.06 613.08 1157.46 607.38
00041353 00000037 932.25 129.07 430.34 629.05 990.56 386.85 1183.32 381.88 1044.44 492.82 1005.68 618.40 1156.41 613.66
00041354 00000038 934.56 134.14 430.10 630.98 991.83 389.39 1184.30 385.67 1043.59 498.74 1007.28 624.28 1156.73 620.61
00041355 00000039 935.71 137.21 431.70 631.23 993.08 391.41 1187.42 388.26 1045.54 501.35 1008.03 627.61 1157.42 624.57
00041356 00000040 937.20 138.41 432.44 629.50 994.69 391.86 1190.00 390.81 1046.22 502.74 1008.32 628.31 1156.59 627.09
00041357 00000041 934.48 135.25 443.19 634.28 999.29 394.33 1197.99 394.48 1052.03 501.46 1016.92 629.66 1151.33 630.98
00041358 00000042 936.17 133.82 442.09 638.50 1001.56 396.08 1199.42 398.25 1052.87 504.33 1017.80 631.78 1151.24 634.79
00041359 00000043 937.36 137.92 441.84 634.43 1002.24 395.80 1200.46 399.25 1053.88 508.31 1019.54 632.97 1153.63 636.84
00041360 00000044 937.99 142.04 442.61 629.82 1003.75 397.16 1201.31 399.71 1056.86 508.97 1022.23 632.78 1156.72 635.78
00041361 00000045 938.82 142.94 442.59 629.04 1003.08 397.07 1201.97 398.14 1058.36 510.35 1024.13 633.90 1160.25 635.59
00041362 00000046 939.44 142.62 444.21 629.40 1002.53 396.24 1202.29 397.86 1058.63 512.43 1024.55 634.72 1161.29 636.91
00041363 00000047 939.56 142.72 445.15 629.63 1002.90 397.57 1203.37 398.99 1059.70 513.65 1025.33 635.14 1163.27 637.18
00041364 00000048 938.98 140.89 447.92 641.16 1006.25 406.28 1204.84 403.32 1064.40 516.72 1025.20 638.88 1171.97 636.98
00041365 00000049 938.11 147.02 448.33 638.36 1007.46 409.70 1205.15 406.78 1065.79 518.57 1026.91 638.96 1176.37 636.84
00041366 00000050 941.77 153.76 432.72 632.48 1002.85 406.16 1195.87 405.02 1057.59 521.49 1021.80 640.26 1176.67 638.03
00041367 00000051 941.42 155.56 432.63 630.38 1001.16 405.99 1194.09 405.54 1056.27 524.02 1020.64 639.12 1177.40 637.29
00041368 00000052 939.75 157.92 435.06 629.92 999.21 407.19 1192.54 406.58 1054.49 526.54 1019.62 641.55 1174.41 639.83
00041369 00000053 937.10 160.97 433.97 625.99 995.58 408.06 1189.65 409.26 1051.26 529.42 1014.54 641.47 1170.97 641.48
00041370 00000054 935.32 164.46 433.88 620.89 992.91 407.08 1185.37 409.74 1047.51 529.50 1011.82 640.20 1166.40 641.54
00041371 00000055 932.47 170.73 433.05 612.94 990.08 407.16 1182.89 409.68 1046.45 528.99 1008.93 638.51 1164.34 639.82
00041372 00000056 930.48 170.32 432.93 611.18 988.69 404.68 1181.98 408.07 1045.03 527.50 1006.52 635.87 1163.28 637.83
00041373 00000057 929.40 165.93 432.65 614.52 988.09 403.92 1181.45 407.95 1043.67 525.31 1004.85 634.04 1162.13 636.47
00041374 00000058 927.43 166.51 431.99 614.34 986.77 402.69 1180.51 407.39 1043.12 525.38 1003.32 633.52 1161.20 636.47
00041375 00000059 923.93 167.73 433.87 615.34 984.70 403.97 1180.03 408.13 1042.98 526.11 1001.99 633.82 1162.06 636.24
00041376 00000060 922.38 168.94 435.46 617.01 984.15 404.18 1179.75 406.54 1043.82 525.54 1002.60 633.49 1166.24 634.15
00041377 00000061 922.64 165.50 436.25 624.33 985.51 404.41 1177.94 404.44 1043.48 522.86 1006.77 634.28 1166.59 633.17
00041378 00000062 923.37 165.43 434.45 628.41 987.33 404.48 1177.47 402.79 1044.59 521.89 1010.31 634.99 1170.08 632.52
00041379 00000063 923.67 163.51 436.36 634.50 988.16 406.18 1178.18 401.54 1046.88 523.50 1014.88 638.75 1175.51 633.55
00041380 00000064 924.04 165.25 442.29 634.52 987.36 411.03 1182.74 399.87 1052.16 524.42 1023.83 642.38 1182.19 631.32
00041381 00000065 925.90 162.72 444.39 637.77 990.03 410.87 1187.00 397.80 1057.70 524.19 1028.50 643.73 1186.28 631.29
00041382 00000066 926.41 159.42 446.85 638.82 989.91 410.04 1189.51 396.44 1057.42 522.00 1026.70 643.08 1186.78 630.38
00041383 00000067 927.08 157.99 445.80 639.83 989.28 408.00 1188.59 395.35 1055.04 521.60 1025.04 643.19 1183.99 631.33
00041384 00000068 926.61 158.74 446.04 639.20 988.97 406.81 1189.01 395.65 1054.45 521.55 1023.59 642.43 1182.62 631.77
00041385 00000069 926.99 158.08 444.80 639.56 987.89 407.49 1188.57 397.40 1051.99 522.85 1020.46 643.10 1181.95 633.10
00041386 00000070 927.91 158.57 444.87 642.56 989.01 409.33 1187.80 399.06 1051.72 524.44 1022.32 644.03 1181.96 633.75
00041387 00000071 928.29 160.86 443.73 641.08 990.72 410.61 1187.45 400.25 1054.07 525.35 1025.59 644.10 1183.21 633.78
00041388 00000072 929.50 166.39 442.60 634.29 991.92 412.71 1187.45 403.31 1054.58 526.50 1025.04 641.74 1185.85 632.06
00041389 00000073 930.72 167.59 441.76 633.42 993.87 416.73 1189.67 406.15 1058.67 528.23 1026.44 645.42 1186.84 634.92
00041390 00000074 933.04 160.40 447.84 636.34 999.53 414.04 1200.85 407.01 1066.98 530.27 1024.46 643.65 1174.18 638.17
00041391 00000075 933.75 168.62 436.99 629.99 996.47 419.48 1195.85 415.12 1062.83 535.34 1021.05 651.81 1179.54 647.65
00041392 00000076 933.62 166.05 435.41 634.41 997.20 419.48 1195.50 416.68 1063.56 537.60 1021.81 653.57 1178.50 650.97
00041393 00000077 933.42 166.06 434.02 638.50 997.91 419.62 1194.49 414.53 1065.31 537.79 1025.56 653.98 1181.47 649.41
00041394 00000078 933.16 162.60 440.86 648.27 1002.90 414.52 1199.26 406.22 1070.15 532.15 1031.68 649.46 1179.31 643.08
00041395 00000079 930.33 168.13 437.61 642.68 997.18 420.65 1193.19 409.56 1066.76 535.37 1033.44 654.85 1191.57 644.58
00041396 00000080 931.77 160.40 446.51 641.34 1002.06 411.98 1201.30 402.65 1072.03 529.70 1031.63 642.75 1185.84 634.95
00041397 00000081 931.62 163.99 439.81 635.74 997.85 417.85 1196.61 409.45 1069.21 532.92 1029.71 649.02 1187.01 641.23
00041398 00000082 932.70 161.74 435.99 639.67 999.06 414.55 1194.18 411.83 1064.23 534.41 1024.60 651.58 1179.87 648.17
00041399 00000083 932.78 165.23 433.72 634.97 999.11 415.73 1194.21 416.58 1063.82 536.53 1020.84 649.79 1177.57 649.42
00041400 00000084 932.77 170.74 433.92 629.34 998.49 419.72 1192.41 419.16 1062.72 540.06 1021.34 650.36 1178.97 648.64
00041401 00000085 932.66 172.63 435.35 629.44 998.54 421.52 1192.77 420.31 1062.93 541.53 1022.53 651.63 1181.19 649.18
00041402 00000086 931.23 173.67 438.49 625.33 998.48 427.53 1196.82 422.82 1069.19 542.78 1024.96 654.44 1185.36 650.38
00041403 00000087 931.52 171.66 437.48 625.62 999.18 429.57 1196.89 423.24 1071.06 543.84 1028.34 655.08 1188.87 649.65
00041404 00000088 936.23 172.31 444.62 619.82 1002.92 423.32 1205.36 417.13 1075.71 540.42 1029.08 643.69 1188.26 638.20
00041405 00000089 938.60 171.58 443.02 619.11 1005.66 423.03 1209.44 416.17 1079.58 539.11 1032.24 642.87 1195.66 636.68
00041406 00000090 941.04 170.99 442.65 618.35 1007.40 423.06 1213.61 415.52 1083.57 539.80 1035.75 642.85 1204.95 635.84
00041407 00000091 943.97 170.08 445.04 618.78 1010.63 421.51 1218.34 414.50 1088.50 541.64 1040.95 643.17 1210.47 636.59
00041408 00000092 944.66 170.45 448.66 618.16 1014.63 422.50 1218.88 417.28 1093.37 542.08 1043.15 641.83 1210.62 637.61
00041409 00000093 949.46 170.07 442.13 615.66 1018.95 420.61 1228.99 416.16 1101.92 543.03 1049.66 642.56 1222.26 638.17
00041410 00000094 952.49 167.10 441.35 617.24 1023.62 419.57 1232.88 415.52 1107.41 540.88 1054.44 641.92 1225.93 638.02
00041411 00000095 954.87 166.53 439.75 624.37 1028.13 420.35 1236.29 415.09 1112.71 538.85 1058.25 643.26 1230.54 638.71
00041412 00000096 955.89 169.32 444.23 633.64 1031.40 422.88 1238.76 414.17 1113.14 537.72 1062.66 645.57 1232.14 638.97
00041413 00000097 959.85 170.29 439.73 637.37 1036.22 423.39 1241.96 414.77 1115.64 537.54 1064.67 645.51 1236.20 638.93
00041414 00000098 959.21 170.65 441.40 635.18 1039.90 418.67 1243.74 412.68 1122.61 536.97 1066.43 642.83 1245.16 637.51
00041415 00000099 961.33 170.27 443.61 634.04 1042.69 418.14 1248.38 412.71 1126.42 538.75 1068.78 643.02 1248.11 638.20
00041416 00000100 962.27 168.02 445.90 635.45 1045.50 418.11 1251.50 413.38 1130.04 538.15 1070.56 643.48 1248.24 639.25
00041417 00000101 962.58 163.02 450.67 639.71 1048.09 416.53 1254.95 413.20 1134.77 538.69 1073.70 643.61 1248.35 640.61
00041418 00000102 963.88 159.31 448.23 642.77 1049.47 416.80 1256.97 413.62 1138.11 539.86 1076.29 646.74 1246.52 644.06
00041419 00000103 964.55 158.96 450.11 644.18 1049.98 417.20 1257.29 413.32 1139.23 540.68 1079.32 650.35 1244.76 647.29
00041420 00000104 965.59 158.14 449.26 644.26 1051.05 416.95 1258.23 413.61 1139.76 540.71 1080.43 651.01 1243.84 648.45
00041421 00000105 966.53 159.30 448.76 642.90 1051.85 417.44 1259.03 414.29 1140.16 540.59 1080.78 651.22 1244.20 648.78
00041422 00000106 967.45 159.70 448.23 642.10 1052.36 417.28 1259.20 413.91 1139.90 539.82 1081.14 651.02 1244.22 648.34
00041423 00000107 967.67 160.45 447.96 641.35 1052.17 417.26 1258.94 414.41 1139.21 540.51 1080.77 650.78 1244.09 648.48
00041424 00000108 967.20 160.11 447.42 641.52 1051.01 418.65 1257.30 415.14 1138.28 540.95 1080.65 651.35 1244.13 648.57
00041425 00000109 966.66 159.61 446.52 642.39 1050.51 418.32 1255.75 415.49 1137.38 540.38 1078.01 649.48 1241.87 647.35
00041426 00000110 966.16 160.91 446.95 643.94 1049.91 419.22 1253.59 416.81 1134.55 540.23 1076.19 649.47 1241.29 647.58
00041427 00000111 965.42 163.91 445.08 643.51 1048.65 419.15 1251.05 417.35 1130.79 538.94 1072.67 648.01 1240.57 646.60
00041428 00000112 964.35 162.46 441.63 645.76 1046.31 418.66 1248.89 417.64 1126.81 539.80 1069.02 647.83 1238.52 647.09
00041429 00000113 962.97 168.18 438.76 639.07 1042.06 417.89 1244.96 418.38 1121.33 540.59 1066.19 647.22 1233.59 647.76
00041430 00000114 961.30 170.47 436.41 632.75 1038.65 420.42 1241.16 421.06 1116.87 541.71 1064.30 649.00 1227.27 649.72
00041431 00000115 960.93 168.78 431.61 629.29 1033.53 421.93 1236.96 424.12 1111.77 545.16 1060.25 648.67 1222.29 650.66
00041432 00000116 957.39 171.04 435.86 627.11 1028.76 421.03 1235.05 423.01 1108.54 548.05 1057.71 649.70 1219.12 651.74
00041433 00000117 955.96 169.57 434.75 627.96 1025.43 422.56 1231.68 424.24 1105.05 549.76 1054.42 650.55 1215.83 652.34
00041434 00000118 955.50 161.43 429.52 634.06 1022.62 427.37 1226.03 428.62 1102.25 551.02 1051.86 650.30 1214.24 651.24
00041435 DELETE   951.35 162.40 432.51 634.63 1019.45 436.08 1224.17 432.85 1099.55 551.94 1049.13 653.10 1215.09 650.20
00041436 00000120 949.42 165.74 435.21 631.45 1015.78 435.33 1224.07 431.91 1095.89 554.54 1045.93 652.44 1215.02 649.29
00041437 00000121 948.24 166.65 434.83 629.41 1013.53 432.96 1221.50 431.94 1093.03 556.77 1043.43 651.00 1211.62 649.77
00041438 00000122 945.68 169.92 438.06 627.96 1011.62 433.30 1218.77 432.50 1091.09 558.02 1041.72 650.94 1209.27 649.78
00041439 00000123 945.05 172.06 437.84 624.14 1010.25 432.28 1216.61 432.50 1087.77 556.05 1038.57 649.88 1204.41 649.78
00041440 00000124 944.74 171.58 439.22 624.69 1009.43 431.88 1215.91 433.04 1085.36 556.84 1037.63 649.29 1204.50 649.83
00041441 00000125 944.59 170.43 438.93 623.99 1009.37 431.40 1216.35 433.31 1085.60 557.19 1037.65 648.35 1205.11 649.42
00041442 00000126 945.53 173.49 440.75 621.12 1009.70 431.48 1216.32 434.45 1084.31 557.33 1036.72 647.94 1204.85 649.80
00041443 00000127 947.16 172.65 439.51 622.09 1010.97 431.87 1217.01 435.02 1084.85 556.86 1037.10 647.65 1204.91 649.67
00041444 00000128 948.34 173.43 438.75 621.01 1011.83 431.05 1217.57 434.78 1085.16 556.24 1037.82 647.20 1205.18 649.77
00041445 00000129 949.49 174.31 437.13 620.23 1012.61 429.72 1218.38 433.74 1085.47 555.86 1038.75 646.91 1205.76 649.73
00041446 00000130 950.95 172.82 436.94 621.20 1013.66 428.94 1219.77 433.64 1086.09 555.41 1038.66 646.64 1205.84 650.07
00041447 00000131 951.67 171.13 435.69 623.75 1014.50 428.67 1220.88 433.53 1087.13 555.28 1039.07 646.91 1206.75 650.56
00041448 00000132 952.41 171.11 434.89 624.66 1015.47 428.54 1221.44 433.55 1088.08 555.46 1039.96 647.71 1206.45 651.56
00041449 00000133 952.86 170.99 435.01 625.21 1017.15 429.19 1221.60 432.94 1089.85 554.73 1042.79 648.95 1205.74 651.91
00041450 00000134 953.39 171.96 433.69 624.21 1017.22 428.58 1221.09 432.41 1089.06 553.87 1042.46 648.77 1205.40 651.76
00041451 00000135 953.70 172.14 434.95 622.52 1017.63 427.95 1221.06 432.15 1088.68 552.79 1042.04 647.70 1204.30 650.98
00041452 00000136 953.64 172.16 432.96 622.52 1017.40 427.06 1220.03 431.28 1087.79 551.68 1041.52 647.02 1203.78 650.34
00041453 00000137 953.46 171.80 433.89 622.82 1017.07 427.25 1219.33 431.17 1086.76 551.22 1041.08 647.24 1203.35 650.26
00041454 00000138 953.91 170.71 432.86 623.38 1016.94 426.85 1218.87 431.01 1086.47 550.81 1041.14 646.78 1203.34 649.96
00041455 00000139 953.13 171.71 433.19 622.99 1017.08 427.26 1218.54 431.33 1086.33 550.52 1040.84 646.75 1202.74 649.87
00041456 00000140 953.44 171.98 432.73 623.63 1017.22 427.70 1219.11 431.77 1086.97 551.01 1040.96 647.64 1203.52 650.76
00041457 00000141 954.17 170.57 432.33 626.04 1017.90 428.16 1219.38 432.11 1086.88 551.34 1041.78 647.93 1204.70 650.92
00041458 00000142 954.56 169.62 430.88 628.08 1018.55 428.26 1220.24 432.66 1087.71 551.40 1042.25 648.12 1205.66 651.47
00041459 00000143 954.73 168.18 429.90 630.81 1019.30 427.83 1220.87 432.78 1088.35 551.80 1042.64 647.24 1208.01 651.01
00041460 00000144 955.02 167.16 428.42 633.69 1019.24 427.20 1221.67 431.37 1088.54 550.20 1042.41 646.79 1211.94 649.80
00041461 00000145 955.16 168.67 426.48 635.20 1019.64 426.04 1221.75 430.21 1088.04 550.39 1042.68 646.72 1214.80 649.70
00041462 00000146 954.95 166.58 422.98 644.62 1021.88 424.70 1220.82 428.68 1089.10 548.64 1043.43 648.44 1214.77 651.53
00041463 00000147 947.82 170.91 424.49 646.53 1018.93 433.09 1220.38 430.50 1087.81 547.68 1042.00 658.08 1215.20 654.67
00041464 00000148 950.14 164.25 425.12 661.95 1020.57 426.26 1224.00 430.88 1080.75 542.82 1038.34 656.67 1203.82 660.79
00041465 00000149 951.09 153.29 428.16 662.58 1021.29 418.54 1219.63 423.61 1088.25 541.65 1040.58 649.13 1203.68 653.53
00041466 00000150 950.48 152.20 432.10 652.82 1019.69 415.55 1222.37 425.04 1086.76 539.60 1033.11 639.90 1202.04 647.43
00041467 00000151 949.45 152.33 434.65 642.77 1018.47 412.15 1222.48 422.60 1086.01 533.83 1029.34 631.19 1200.71 639.33
00041468 00000152 950.64 156.70 434.71 630.16 1019.39 410.19 1220.95 423.42 1083.86 531.11 1026.99 625.41 1196.67 635.79
00041469 00000153 949.72 155.76 434.48 628.70 1019.89 410.37 1222.62 425.45 1085.16 531.16 1025.16 622.29 1199.24 633.97
00041470 00000154 948.09 153.87 432.89 634.59 1018.78 411.50 1220.55 428.38 1084.17 534.74 1024.27 626.07 1196.58 639.31
00041471 00000155 948.35 162.63 432.81 628.47 1019.06 415.85 1220.22 434.24 1083.16 539.66 1025.09 630.58 1194.36 645.23
00041472 00000156 948.56 168.75 430.27 624.78 1018.80 418.66 1218.28 438.46 1083.02 544.67 1025.85 632.70 1191.28 648.88
00041473 00000157 947.72 166.82 433.20 633.29 1018.70 419.89 1218.20 439.99 1080.94 546.60 1026.16 634.92 1193.51 651.18
00041474 00000158 947.93 165.19 433.52 649.08 1021.75 419.67 1217.83 438.79 1079.46 547.00 1029.34 638.56 1197.95 654.00
CROP_BBOX: 606 0 1666 981
