Video ID: 	C4bjUm27Nws
H: 	1080
W: 	1920
FPS: 	29.97002997002997

FRAME INDEX X0 Y0 W H [Landmarks (5 Points)]

00012043 00000000 1271.92 105.33 346.04 560.44 1338.11 335.41 1380.72 347.66 1261.69 441.87 1344.26 529.33 1384.16 537.74
00012044 DELETE   1279.41 101.08 341.65 574.43 1343.52 340.23 1379.15 354.40 1258.63 438.94 1353.43 526.22 1394.38 533.56
00012045 00000002 1280.12 106.66 339.37 572.82 1338.76 345.62 1376.67 359.39 1261.92 450.51 1358.09 534.87 1396.55 541.82
00012046 00000003 1275.08 128.68 343.09 557.49 1337.13 353.74 1379.91 368.51 1266.62 458.98 1361.14 542.63 1399.79 549.58
00012047 00000004 1269.62 138.29 345.70 559.57 1337.58 358.70 1373.84 375.01 1263.94 470.07 1366.95 549.58 1399.89 557.19
00012048 00000005 1265.94 126.38 351.85 587.80 1338.63 370.06 1363.99 380.81 1262.27 473.82 1373.16 559.05 1398.86 561.52
00012049 00000006 1268.44 136.72 350.54 584.03 1340.47 375.73 1363.55 383.65 1264.99 476.24 1371.05 569.87 1390.69 570.62
00012050 00000007 1266.66 127.67 349.31 597.85 1330.70 381.22 1360.66 382.59 1257.56 478.98 1364.93 572.87 1394.48 568.45
00012051 00000008 1263.36 133.94 351.42 578.89 1323.73 378.36 1363.35 385.52 1254.85 478.74 1352.37 568.55 1390.63 568.45
00012052 00000009 1259.53 137.39 356.85 558.68 1319.60 362.22 1361.60 371.40 1248.09 479.91 1332.28 566.14 1363.84 571.91
00012053 00000010 1258.72 132.51 353.90 565.34 1320.70 361.18 1358.72 369.90 1248.09 479.56 1332.25 568.36 1360.52 573.97
00012054 00000011 1257.28 134.60 357.70 574.03 1319.61 362.98 1356.67 369.19 1244.99 480.06 1329.80 571.78 1358.54 575.28
00012055 00000012 1255.08 133.39 356.20 579.78 1318.14 365.52 1352.94 373.06 1244.39 483.86 1330.11 575.06 1357.07 579.67
00012056 00000013 1251.03 142.63 358.85 574.61 1312.89 369.51 1348.08 375.62 1243.72 488.33 1330.28 580.33 1356.81 583.25
00012057 00000014 1245.88 152.19 359.72 567.32 1308.09 378.19 1342.62 383.84 1243.57 495.57 1332.32 584.80 1356.59 586.99
00012058 00000015 1244.84 155.39 357.46 560.15 1304.76 383.58 1340.80 388.83 1244.60 499.15 1330.92 584.22 1356.32 586.21
00012059 00000016 1242.62 151.69 357.74 561.56 1300.63 388.17 1337.82 395.05 1242.01 501.44 1327.42 581.61 1354.72 584.66
00012060 00000017 1242.07 151.72 355.19 560.42 1299.41 387.52 1335.40 394.48 1241.29 499.30 1326.71 579.05 1354.59 582.17
00012061 00000018 1240.64 150.97 357.47 560.05 1299.26 386.09 1334.34 394.75 1239.72 498.36 1326.63 576.47 1354.14 580.99
00012062 00000019 1242.50 150.87 350.44 556.48 1296.62 388.75 1331.34 398.19 1239.23 501.01 1328.93 573.61 1357.65 578.48
00012063 00000020 1242.41 151.30 351.57 561.86 1294.66 393.06 1329.76 399.61 1237.92 507.41 1333.96 578.93 1365.41 580.85
00012064 00000021 1235.17 161.92 355.84 560.23 1293.25 385.69 1328.63 397.60 1229.19 509.22 1331.65 585.42 1373.00 591.65
00012065 00000022 1233.23 162.12 358.39 562.20 1291.17 388.68 1327.36 401.21 1229.27 511.19 1330.63 586.09 1373.65 592.90
00012066 00000023 1232.75 163.23 358.28 559.59 1289.09 390.60 1327.14 403.27 1230.20 514.52 1330.04 587.43 1373.83 594.43
00012067 00000024 1233.76 161.08 359.23 564.01 1288.32 391.05 1326.42 402.69 1230.65 517.32 1332.39 589.38 1377.58 595.53
00012068 00000025 1234.34 161.99 359.87 566.73 1288.78 391.15 1326.61 401.90 1232.17 518.07 1334.79 591.04 1380.26 596.63
00012069 00000026 1235.91 161.14 361.60 569.89 1290.76 392.37 1327.11 401.15 1234.63 518.12 1337.15 593.06 1381.77 597.19
00012070 00000027 1237.15 161.49 358.52 569.03 1292.55 394.15 1327.52 401.49 1235.54 518.87 1339.22 592.98 1383.47 595.82
00012071 00000028 1240.25 161.88 357.86 569.62 1293.74 396.52 1328.36 403.18 1238.41 520.65 1339.93 594.20 1384.60 596.61
00012072 00000029 1240.99 162.17 360.31 572.21 1294.95 396.79 1330.07 402.59 1239.69 522.42 1339.66 596.76 1385.40 598.33
00012073 00000030 1242.18 167.37 365.40 567.83 1298.12 400.91 1333.41 402.75 1242.35 525.41 1340.97 603.11 1383.83 601.72
00012074 00000031 1241.74 173.27 366.48 561.83 1296.95 404.32 1335.40 404.47 1246.15 528.91 1341.80 607.58 1383.50 605.15
00012075 00000032 1243.02 174.68 361.35 562.46 1297.64 407.61 1336.68 406.88 1248.84 533.77 1345.07 612.52 1385.38 609.46
00012076 00000033 1245.20 176.47 360.61 566.15 1300.50 408.37 1339.92 403.92 1253.50 532.32 1352.03 614.09 1393.34 607.77
00012077 00000034 1247.91 170.73 362.71 573.04 1304.06 405.03 1345.72 400.62 1255.48 527.81 1353.32 611.94 1396.83 605.47
00012078 00000035 1250.70 171.61 362.68 559.94 1305.60 401.47 1349.76 400.63 1257.11 523.17 1350.74 603.22 1395.84 600.35
00012079 00000036 1254.92 168.19 356.68 554.78 1305.21 399.71 1355.03 400.82 1254.63 518.99 1343.24 595.51 1393.99 594.81
00012080 00000037 1258.29 172.46 358.63 545.14 1309.37 396.89 1357.08 399.96 1256.46 516.98 1345.15 589.68 1395.58 590.16
00012081 00000038 1262.01 176.33 358.13 540.24 1314.72 394.88 1360.87 398.07 1260.21 514.20 1347.05 589.31 1395.10 589.77
00012082 00000039 1263.76 173.56 358.14 542.79 1319.43 394.42 1364.40 398.47 1261.87 515.91 1351.94 590.25 1399.07 590.56
00012083 00000040 1266.77 158.12 357.91 569.75 1326.67 405.20 1365.13 404.50 1259.10 513.16 1359.25 594.63 1397.25 590.50
00012084 00000041 1268.00 158.78 361.16 570.29 1327.05 403.54 1369.76 401.43 1261.03 512.05 1361.74 596.94 1401.39 591.58
00012085 00000042 1270.09 153.40 365.08 570.99 1327.07 400.67 1374.85 400.57 1266.02 511.18 1361.55 594.28 1404.06 591.23
00012086 00000043 1274.39 154.94 362.89 565.58 1333.84 398.34 1379.04 401.79 1272.97 509.99 1365.81 590.44 1407.86 590.41
00012087 DELETE   1279.34 150.65 359.22 568.92 1339.59 396.36 1381.01 401.77 1277.50 507.68 1374.61 584.46 1416.16 585.34
00012088 00000045 1289.93 143.56 348.49 576.03 1341.58 393.98 1380.02 398.66 1289.15 504.62 1387.23 573.49 1426.69 572.40
00012089 00000046 1294.22 139.88 349.95 576.97 1343.86 391.85 1383.72 394.71 1291.03 502.85 1391.30 573.55 1430.33 571.09
00012090 00000047 1295.81 138.37 354.92 579.62 1344.91 392.53 1387.31 393.12 1291.08 504.15 1395.43 574.75 1437.51 570.48
00012091 00000048 1297.52 132.98 360.69 578.74 1348.60 391.11 1388.93 390.43 1292.74 500.20 1393.73 575.87 1430.32 570.83
00012092 00000049 1294.61 133.04 363.41 580.20 1350.39 387.46 1389.69 388.23 1290.40 493.03 1385.49 572.94 1419.66 568.93
00012093 00000050 1291.28 132.65 365.75 571.19 1347.78 385.21 1392.72 389.88 1291.71 488.92 1376.09 569.17 1411.20 568.41
00012094 00000051 1289.48 129.79 366.02 578.78 1349.90 386.12 1388.55 390.53 1291.29 487.02 1375.75 571.76 1403.81 570.51
00012095 00000052 1288.94 130.05 365.12 584.37 1349.37 387.10 1387.93 391.63 1290.55 491.22 1378.98 575.63 1407.11 574.60
00012096 00000053 1291.90 123.00 357.15 596.88 1350.57 386.96 1388.18 389.84 1288.96 493.10 1384.72 574.08 1419.65 572.03
00012097 00000054 1294.31 127.26 356.81 588.41 1349.56 391.52 1389.94 393.82 1292.64 499.67 1389.96 575.96 1427.39 573.60
00012098 00000055 1299.57 124.34 353.09 590.22 1351.11 396.42 1393.49 396.77 1298.55 502.48 1389.37 575.79 1432.03 572.51
00012099 DELETE   1303.00 120.54 351.54 595.34 1354.44 400.11 1393.20 399.91 1299.87 503.25 1389.65 578.83 1428.89 575.34
00012100 00000057 1302.59 126.19 350.80 590.45 1355.53 401.93 1390.80 402.11 1300.96 505.33 1391.22 580.67 1424.79 577.20
00012101 00000058 1302.04 122.98 352.25 598.33 1353.99 405.91 1390.15 404.15 1299.64 507.28 1389.90 583.53 1425.98 578.56
00012102 00000059 1301.14 130.02 354.47 591.38 1353.22 407.84 1392.20 406.04 1301.79 509.50 1389.11 586.38 1425.48 581.15
00012103 00000060 1300.71 136.41 350.60 582.93 1351.87 406.91 1389.61 407.99 1300.99 511.94 1390.44 584.91 1424.54 582.13
00012104 DELETE   1299.59 136.64 353.09 583.67 1350.60 407.06 1390.03 408.66 1298.55 512.67 1388.28 585.22 1424.68 582.84
00012105 00000062 1297.16 139.73 354.08 584.07 1351.03 407.25 1389.21 410.62 1298.20 515.19 1387.16 588.97 1420.29 587.68
00012106 00000063 1284.26 141.94 364.93 591.16 1352.22 405.59 1388.21 406.62 1282.61 517.88 1380.41 605.57 1414.90 601.77
00012107 DELETE   1283.23 144.89 366.72 589.99 1349.39 404.88 1386.19 406.46 1280.84 520.08 1379.10 609.44 1411.42 605.93
00012108 00000065 1279.45 142.75 368.79 594.20 1344.62 407.61 1386.47 407.51 1280.34 520.49 1373.49 612.87 1408.29 608.23
00012109 DELETE   1277.21 143.50 368.21 591.88 1341.75 406.95 1384.99 408.87 1275.63 517.60 1365.56 609.11 1402.55 606.40
00012110 00000067 1269.81 140.44 373.97 591.93 1332.21 398.81 1383.10 396.90 1268.97 505.21 1354.42 601.49 1399.07 596.77
00012111 00000068 1270.43 131.37 367.07 591.32 1335.87 390.24 1380.54 393.41 1268.54 496.61 1353.00 587.61 1392.03 587.83
00012112 00000069 1276.51 115.75 356.48 606.97 1338.07 390.30 1373.04 390.32 1276.63 485.27 1366.67 573.70 1396.93 568.54
00012113 00000070 1279.86 119.60 352.81 599.46 1344.00 383.10 1372.09 385.40 1279.60 482.59 1376.35 569.51 1401.85 566.51
00012114 00000071 1279.27 114.24 361.55 605.97 1339.80 381.79 1374.78 383.79 1279.94 488.79 1384.62 566.38 1419.93 562.57
00012115 00000072 1278.77 116.73 361.26 603.03 1334.14 380.96 1376.21 384.45 1281.37 497.62 1388.37 567.24 1430.78 564.65
00012116 00000073 1278.32 118.49 351.91 597.39 1330.79 382.40 1374.52 386.45 1285.90 507.13 1394.29 565.72 1440.03 563.64
00012117 00000074 1276.72 132.70 348.30 579.92 1323.42 390.04 1371.96 389.79 1283.54 511.35 1389.14 563.40 1445.20 557.30
00012118 00000075 1273.80 129.19 344.39 585.71 1322.78 399.45 1367.40 395.44 1286.27 512.16 1385.53 565.39 1437.87 557.15
00012119 DELETE   1267.47 135.57 348.82 586.35 1316.83 409.93 1357.69 400.24 1276.80 518.33 1383.96 575.70 1433.39 562.57
00012120 00000077 1259.48 160.31 350.86 564.71 1299.15 411.48 1348.90 402.84 1262.02 535.26 1365.91 589.87 1428.77 577.76
00012121 DELETE   1249.04 154.86 355.01 584.11 1295.82 408.03 1334.17 403.87 1251.56 537.46 1360.28 600.02 1412.82 591.99
00012122 DELETE   1246.75 151.00 353.08 596.79 1286.64 421.66 1321.71 415.39 1239.52 548.83 1355.99 612.01 1404.41 601.85
00012123 00000080 1239.64 165.39 349.87 582.49 1274.55 431.46 1317.89 420.56 1236.32 562.26 1351.22 620.71 1402.63 607.38
00012124 00000081 1236.19 169.59 337.68 578.41 1265.26 442.42 1311.30 430.01 1234.46 570.90 1344.79 624.83 1396.52 610.38
00012125 00000082 1231.01 172.61 340.19 582.23 1260.25 450.03 1307.30 439.10 1233.40 573.45 1339.83 625.68 1393.13 612.21
00012126 00000083 1227.65 175.29 339.36 580.72 1258.51 446.10 1304.04 438.59 1228.91 573.46 1336.41 624.31 1387.76 613.07
00012127 00000084 1221.80 172.00 342.37 579.82 1255.80 439.95 1302.10 438.28 1221.55 573.86 1333.60 620.36 1384.47 613.82
00012128 00000085 1217.86 167.48 346.12 583.95 1256.56 433.47 1299.83 432.19 1214.02 567.27 1331.98 618.04 1380.37 612.01
00012129 00000086 1213.73 170.21 351.76 578.27 1254.36 430.53 1298.71 429.92 1209.72 562.12 1327.61 617.52 1375.29 612.16
00012130 00000087 1211.77 167.68 350.12 584.63 1253.90 430.02 1296.29 431.66 1207.69 562.20 1325.13 617.13 1372.48 613.46
00012131 00000088 1212.12 162.53 345.53 590.35 1251.17 434.45 1293.24 434.92 1206.17 564.15 1324.20 617.02 1370.83 612.59
00012132 00000089 1209.32 170.32 347.31 583.86 1249.35 438.45 1294.55 434.80 1206.87 567.51 1321.43 623.04 1369.17 615.13
00012133 00000090 1205.36 177.28 346.76 579.17 1247.91 442.74 1295.24 437.95 1208.08 572.49 1321.73 624.50 1371.85 615.54
00012134 00000091 1202.82 178.53 346.80 579.87 1247.54 446.27 1291.69 445.06 1210.05 574.89 1320.51 624.66 1367.43 618.59
00012135 00000092 1192.46 186.81 351.04 575.66 1239.73 453.08 1287.81 449.03 1207.04 578.43 1314.38 628.23 1364.36 619.72
00012136 00000093 1190.95 194.88 351.57 568.56 1224.50 459.75 1275.26 443.09 1198.60 572.74 1302.40 633.19 1358.34 614.43
00012137 00000094 1183.27 192.35 352.81 574.59 1218.21 462.43 1262.71 445.12 1191.60 576.78 1297.09 638.34 1348.81 619.64
00012138 00000095 1178.94 191.18 347.55 573.04 1213.42 463.86 1256.59 448.34 1187.36 581.44 1295.51 639.98 1345.51 622.87
00012139 00000096 1176.80 190.01 343.66 577.19 1211.51 464.51 1254.01 449.91 1187.08 580.94 1293.73 639.80 1341.90 623.60
00012140 00000097 1175.09 191.93 346.50 576.59 1212.41 462.39 1250.78 449.30 1183.98 578.98 1291.85 638.79 1335.86 624.02
00012141 00000098 1172.10 189.26 348.17 579.41 1211.83 461.48 1246.52 449.29 1181.58 578.86 1290.32 637.40 1332.31 623.30
00012142 00000099 1171.69 188.43 347.22 579.52 1211.68 460.42 1247.49 448.27 1180.84 577.41 1287.50 637.22 1329.98 623.30
00012143 00000100 1171.79 187.94 346.22 578.12 1212.16 459.42 1247.85 447.97 1180.91 575.92 1285.96 636.45 1328.17 623.20
00012144 00000101 1171.62 189.45 346.90 574.46 1212.44 457.75 1248.54 447.39 1180.47 574.22 1285.02 635.30 1325.90 623.05
00012145 00000102 1171.87 185.38 351.25 579.71 1212.82 456.69 1248.89 446.59 1179.00 571.30 1283.38 633.92 1323.70 622.09
00012146 00000103 1173.20 182.71 351.53 578.72 1212.49 454.74 1250.63 445.35 1178.80 571.27 1283.73 632.71 1325.00 621.47
00012147 00000104 1173.28 185.16 351.36 577.97 1213.10 454.38 1252.59 443.65 1178.95 571.01 1283.45 634.01 1325.66 621.73
00012148 00000105 1174.84 184.94 352.21 578.20 1213.02 455.56 1252.41 445.99 1179.31 571.64 1283.69 634.50 1325.94 623.39
00012149 00000106 1174.04 191.67 350.68 570.02 1211.85 456.55 1253.17 447.48 1178.66 572.93 1283.52 634.58 1326.17 623.69
00012150 00000107 1173.79 196.56 351.19 563.65 1211.71 453.62 1254.22 446.34 1176.49 571.78 1280.31 635.32 1322.73 626.00
00012151 00000108 1175.72 197.76 353.06 563.48 1211.95 452.70 1257.39 443.94 1177.26 567.65 1277.07 633.60 1322.48 623.51
00012152 00000109 1176.24 196.63 353.15 561.27 1213.54 449.27 1257.30 440.90 1177.17 564.08 1276.39 631.10 1319.86 621.20
00012153 00000110 1175.11 196.78 356.17 557.46 1214.05 442.95 1261.21 434.36 1177.03 560.08 1274.90 627.04 1323.56 616.58
00012154 00000111 1174.80 197.17 359.48 551.86 1215.83 436.24 1264.38 426.48 1177.42 557.29 1277.16 621.11 1329.96 609.18
00012155 00000112 1176.41 189.16 360.70 558.87 1219.51 435.38 1267.23 424.57 1181.06 554.62 1281.33 621.75 1333.67 609.19
00012156 00000113 1180.76 191.30 356.60 553.40 1222.22 436.48 1271.43 425.20 1186.83 555.37 1285.65 621.41 1338.60 608.62
00012157 00000114 1182.68 191.86 355.10 550.81 1223.32 438.66 1274.00 427.62 1188.95 555.57 1284.90 621.46 1337.33 609.24
00012158 00000115 1186.56 185.33 352.97 554.35 1223.68 438.96 1279.11 427.70 1189.27 553.48 1283.30 620.96 1338.39 608.79
00012159 00000116 1188.08 194.80 357.16 543.58 1230.93 435.56 1285.13 425.98 1192.95 549.32 1280.57 619.76 1330.57 609.40
00012160 00000117 1189.79 200.12 356.52 542.06 1239.46 429.11 1289.14 422.44 1197.04 545.40 1285.82 619.47 1329.59 610.99
00012161 00000118 1193.94 188.71 357.53 569.97 1244.38 434.33 1288.80 426.38 1192.57 546.60 1293.70 629.13 1334.32 617.80
00012162 00000119 1196.13 186.48 356.76 573.67 1248.31 432.08 1290.22 425.43 1194.87 545.90 1298.16 630.51 1333.97 620.11
00012163 00000120 1198.56 190.66 354.29 570.66 1250.29 434.84 1291.44 427.30 1198.63 544.37 1299.84 632.19 1333.14 621.09
00012164 00000121 1201.63 186.15 353.99 572.16 1252.09 432.86 1294.82 427.79 1200.05 543.73 1299.51 628.81 1335.83 619.85
00012165 00000122 1203.81 181.01 355.02 575.25 1253.45 428.10 1297.94 427.85 1203.04 544.19 1300.31 626.08 1337.49 621.26
00012166 00000123 1204.41 186.47 359.05 567.52 1253.35 428.41 1300.83 429.43 1202.92 544.98 1299.91 625.36 1338.18 621.31
00012167 00000124 1204.77 184.69 362.55 569.26 1254.01 427.24 1301.45 428.29 1202.81 546.61 1301.88 624.91 1342.25 620.81
00012168 00000125 1206.08 184.62 362.28 567.28 1254.37 426.25 1301.22 426.82 1202.69 548.06 1304.99 623.32 1347.06 618.69
00012169 00000126 1207.30 186.29 362.46 565.68 1255.75 426.65 1302.76 425.80 1203.25 549.01 1307.62 623.26 1351.94 617.36
00012170 00000127 1207.86 191.51 361.51 560.91 1253.77 429.30 1306.14 428.13 1203.56 551.54 1309.27 623.61 1358.87 617.26
00012171 00000128 1208.77 185.47 360.11 567.73 1255.33 432.52 1304.61 429.75 1207.74 554.45 1313.37 624.19 1362.58 616.75
00012172 00000129 1209.80 183.00 358.37 567.59 1256.39 433.83 1304.30 431.85 1210.67 559.68 1317.96 624.22 1366.14 617.66
00012173 DELETE   1212.88 179.62 353.27 571.25 1256.16 437.51 1303.73 434.68 1214.81 561.94 1320.47 623.55 1370.06 616.37
00012174 00000131 1216.00 177.00 349.57 573.39 1258.12 440.28 1304.81 435.83 1219.45 564.78 1324.04 623.77 1373.38 615.49
00012175 00000132 1220.81 178.48 341.80 571.96 1258.99 441.90 1305.83 435.98 1222.63 567.60 1328.16 625.30 1377.57 615.78
00012176 00000133 1221.99 182.18 349.97 567.82 1260.54 440.51 1307.49 433.90 1224.23 566.60 1330.04 625.56 1379.58 615.60
00012177 00000134 1224.81 179.72 349.06 568.36 1262.01 440.43 1310.65 433.75 1226.28 565.86 1331.39 623.54 1383.34 613.87
00012178 00000135 1226.01 183.58 350.67 563.21 1266.64 437.71 1313.77 429.59 1229.32 564.75 1335.19 623.54 1385.56 612.72
00012179 00000136 1226.94 182.78 354.57 564.45 1268.57 435.65 1315.58 425.77 1230.43 562.79 1336.86 624.25 1387.21 612.10
00012180 00000137 1229.43 180.20 353.15 568.12 1269.29 434.86 1316.52 425.44 1229.16 561.04 1336.28 623.70 1386.82 612.11
00012181 00000138 1229.88 179.36 354.10 569.33 1269.52 435.36 1317.25 424.20 1229.96 561.26 1336.82 624.85 1387.29 611.93
00012182 00000139 1230.59 179.47 351.28 569.66 1268.42 435.43 1316.89 426.40 1230.01 563.23 1336.52 624.59 1388.32 613.33
00012183 00000140 1231.06 182.22 349.20 568.50 1267.84 438.17 1314.78 428.09 1229.56 564.18 1336.62 626.49 1386.76 614.23
00012184 00000141 1226.58 185.25 347.14 567.25 1264.99 439.91 1311.01 433.44 1228.51 566.78 1333.47 626.29 1382.28 616.78
00012185 00000142 1223.12 183.01 343.07 571.42 1260.09 444.24 1310.83 443.25 1229.52 571.81 1331.36 624.85 1383.55 619.52
00012186 00000143 1218.11 184.53 336.48 577.49 1262.30 452.62 1300.12 458.16 1230.54 581.41 1334.80 628.44 1374.51 628.04
00012187 00000144 1216.16 193.09 331.55 567.70 1269.89 459.19 1295.24 465.87 1238.03 581.91 1336.76 634.20 1364.09 634.62
00012188 00000145 1209.79 209.21 320.88 566.28 1275.02 479.82 1280.06 486.81 1230.99 605.33 1331.72 661.38 1341.56 663.22
00012189 DELETE   1207.00 229.03 315.01 565.12 1258.98 490.59 1262.83 504.79 1225.52 626.75 1336.65 664.33 1344.36 673.70
00012190 00000147 1207.18 243.56 301.91 551.65 1260.98 499.23 1263.39 503.41 1232.76 635.02 1326.13 684.36 1347.42 682.92
00012191 00000148 1211.26 253.92 292.86 539.26 1249.68 514.64 1276.72 511.79 1231.82 635.44 1328.77 701.21 1344.46 693.92
00012192 00000149 1203.85 255.99 295.91 557.78 1251.49 519.89 1248.62 526.69 1226.98 646.76 1333.49 702.22 1336.96 702.08
00012193 00000150 1199.36 258.36 278.56 548.29 1254.63 523.58 1256.74 526.86 1227.17 650.74 1336.21 701.26 1333.29 701.89
00012194 00000151 1199.65 261.01 293.12 548.53 1249.82 522.59 1245.19 527.71 1228.17 649.16 1331.19 704.68 1332.32 706.47
00012195 00000152 1198.09 267.74 277.43 540.09 1252.08 528.10 1250.26 529.13 1227.57 654.44 1332.17 704.06 1328.23 703.43
00012196 00000153 1200.62 269.51 299.73 534.93 1252.45 529.60 1247.97 534.37 1232.73 655.04 1331.58 705.65 1332.44 708.44
00012197 00000154 647.44 117.01 227.92 365.79
00012198 00000155 646.87 119.25 227.13 364.76
00012199 00000156 646.31 121.49 226.33 363.74
00012200 00000157 1201.79 267.25 267.90 541.91 1250.79 527.43 1246.04 531.55 1231.82 652.95 1329.05 706.28 1328.81 707.03
00012201 00000158 1195.33 274.29 274.53 528.98 1240.76 530.51 1248.49 534.72 1229.62 651.27 1322.32 705.41 1330.45 704.98
00012202 00000159 1193.99 277.98 276.80 525.56 1240.67 527.81 1246.23 533.36 1228.68 651.54 1325.08 704.48 1332.13 705.15
00012203 00000160 1191.80 272.61 278.14 531.14 1238.47 526.69 1244.18 531.50 1226.15 650.23 1323.79 704.48 1331.11 704.61
00012204 00000161 1186.42 279.13 307.87 526.48 1245.43 528.71 1241.40 532.67 1223.70 650.92 1326.68 706.17 1332.74 705.69
00012205 00000162 1186.57 277.91 307.64 530.01 1246.35 529.64 1241.17 535.26 1222.46 653.28 1328.44 705.90 1334.17 706.08
00012206 00000163 1183.35 278.94 310.39 528.23 1243.29 528.06 1237.55 533.54 1220.30 650.92 1327.41 705.28 1332.79 705.14
