Video ID: 	_WRK5-sqoSg
H: 	1080
W: 	1920
FPS: 	25.0

FRAME INDEX X0 Y0 W H [Landmarks (5 Points)]

00000440 00000000 875.79 166.22 404.41 561.69 988.44 427.45 1170.53 390.57 1108.04 492.58 1045.96 609.41 1200.32 578.45
00000441 00000001 873.18 164.21 406.00 565.32 985.55 425.79 1168.19 389.55 1104.65 493.24 1043.73 610.37 1197.94 579.69
00000442 DELETE   868.35 163.35 409.89 568.72 979.29 425.24 1164.18 390.27 1097.93 491.63 1036.97 609.81 1195.26 579.64
00000443 00000003 863.50 163.62 412.49 567.13 971.04 427.02 1159.83 392.46 1090.45 494.54 1029.68 610.61 1192.97 580.00
00000444 00000004 858.53 166.37 415.01 565.43 965.16 430.25 1156.03 395.70 1084.87 497.53 1023.97 613.25 1189.04 582.33
00000445 00000005 854.56 171.25 416.37 566.37 964.12 434.29 1152.06 401.15 1081.37 499.98 1020.34 615.35 1182.44 585.69
00000446 00000006 852.96 175.68 416.14 564.19 963.19 439.13 1149.70 406.00 1080.55 507.34 1020.58 619.36 1179.58 589.69
00000447 00000007 851.72 180.80 415.21 561.43 962.20 443.30 1150.50 410.16 1080.83 513.57 1019.82 624.48 1179.83 595.29
00000448 DELETE   855.43 186.53 411.56 556.28 966.51 446.17 1153.26 414.99 1083.25 519.28 1026.83 629.99 1180.82 602.92
00000449 DELETE   858.14 190.73 409.31 555.83 970.02 451.11 1156.82 418.34 1087.73 528.31 1029.13 635.84 1182.46 607.67
00000450 00000010 859.54 192.47 408.69 558.17 971.57 454.36 1158.18 419.60 1090.59 535.35 1029.17 639.94 1183.31 610.13
00000451 00000011 862.38 189.93 408.47 559.68 974.47 453.66 1160.44 419.80 1092.97 535.90 1031.46 639.39 1184.89 610.32
00000452 00000012 864.90 187.39 406.73 559.84 975.67 451.34 1161.62 418.54 1093.69 531.87 1032.45 635.99 1187.22 607.81
00000453 00000013 865.57 185.31 408.79 559.39 976.26 448.63 1163.57 416.11 1094.84 524.07 1031.07 628.89 1191.17 600.79
00000454 DELETE   865.86 182.82 411.99 559.76 975.60 444.64 1164.48 410.31 1095.21 520.14 1029.06 620.37 1196.75 590.96
00000455 00000015 866.49 175.61 413.08 566.04 974.52 440.62 1163.81 405.16 1093.72 515.69 1027.87 615.93 1198.54 585.42
00000456 00000016 868.09 164.51 410.77 579.86 975.36 432.16 1163.87 399.61 1092.53 502.79 1030.07 615.82 1194.80 587.46
00000457 00000017 868.04 161.06 411.34 587.20 976.16 423.21 1163.41 390.59 1092.52 494.86 1029.38 611.84 1195.31 583.68
00000458 00000018 870.24 159.45 409.41 583.58 975.57 417.36 1160.15 383.98 1088.45 483.64 1030.14 607.21 1191.74 578.75
00000459 00000019 870.60 157.45 408.80 581.95 974.88 411.81 1157.98 375.15 1088.95 476.98 1031.48 603.32 1191.82 572.00
00000460 00000020 873.62 155.68 407.22 579.50 974.88 408.66 1157.99 370.27 1086.89 469.01 1031.90 599.35 1191.93 566.52
00000461 00000021 877.72 150.24 404.28 581.92 977.80 403.46 1161.20 365.15 1091.02 464.23 1034.13 596.26 1193.84 563.95
00000462 00000022 882.34 147.64 402.55 576.92 978.94 400.40 1164.53 362.19 1091.42 458.73 1034.20 592.20 1195.56 559.87
00000463 00000023 884.80 145.93 399.42 561.35 983.24 397.71 1167.74 360.86 1095.42 455.15 1034.95 582.45 1195.56 550.71
00000464 00000024 888.01 144.24 395.56 548.68 985.10 395.63 1172.06 360.74 1097.78 454.07 1034.90 577.55 1197.88 546.88
00000465 00000025 887.75 143.77 403.29 544.48 990.71 396.20 1184.43 364.68 1099.10 452.92 1038.29 568.66 1205.88 542.79
00000466 00000026 889.67 144.48 408.34 547.69 997.01 397.47 1191.14 367.25 1107.07 457.18 1041.89 569.62 1213.14 544.54
00000467 00000027 892.39 142.10 406.47 559.64 1002.00 397.58 1195.69 372.13 1113.00 460.72 1041.04 571.03 1214.06 549.96
00000468 00000028 894.79 142.63 406.43 560.71 1007.68 396.77 1201.61 375.09 1119.66 462.20 1044.88 570.43 1216.63 552.41
00000469 00000029 895.87 143.60 407.75 552.51 1012.68 392.71 1209.62 374.26 1126.92 461.37 1046.91 566.52 1222.38 550.80
00000470 00000030 898.46 142.47 408.84 548.96 1015.76 389.21 1216.30 371.27 1132.14 458.08 1050.01 564.61 1229.17 548.97
00000471 00000031 901.19 141.23 407.63 548.84 1019.64 389.08 1220.35 372.44 1137.15 457.70 1053.47 563.24 1232.80 548.41
00000472 00000032 902.57 140.91 407.53 549.99 1023.37 390.06 1221.69 373.92 1141.07 458.89 1056.69 563.22 1233.78 548.80
00000473 00000033 903.50 142.97 407.42 550.55 1025.51 391.57 1224.85 377.12 1143.08 460.94 1055.47 564.95 1233.42 552.01
00000474 00000034 904.80 143.28 406.41 552.41 1027.36 393.68 1226.04 379.19 1144.12 466.07 1054.63 567.66 1232.16 554.96
00000475 00000035 907.12 143.61 406.59 563.48 1030.54 394.95 1228.49 384.91 1144.58 472.84 1051.40 572.00 1228.90 563.21
00000476 00000036 914.26 147.97 404.57 570.88 1030.57 394.08 1227.07 388.90 1149.58 469.81 1061.32 578.68 1235.40 573.68
00000477 00000037 919.13 149.78 402.71 573.31 1033.70 394.51 1231.05 390.27 1154.12 471.38 1064.34 582.00 1239.40 577.79
00000478 00000038 922.37 150.06 402.40 572.38 1037.37 394.64 1233.85 392.40 1156.24 473.80 1065.80 581.63 1240.84 579.24
00000479 00000039 925.70 151.21 401.26 570.54 1041.76 394.50 1237.80 393.12 1159.82 475.87 1068.83 581.97 1243.18 580.10
00000480 00000040 927.83 153.17 400.72 570.14 1043.18 396.36 1238.97 396.41 1159.95 478.10 1069.94 584.71 1243.13 583.95
00000481 00000041 928.27 154.57 401.65 573.28 1043.41 400.06 1240.18 400.74 1160.23 481.41 1070.91 589.01 1244.57 588.56
00000482 00000042 928.69 156.70 402.41 572.97 1044.76 401.87 1242.08 403.74 1160.43 483.40 1072.06 590.39 1245.30 590.71
00000483 00000043 928.51 157.19 403.20 571.91 1043.65 403.74 1240.73 403.72 1159.20 485.60 1073.18 592.39 1245.23 591.08
00000484 00000044 929.04 157.01 404.62 569.56 1042.74 404.99 1239.40 403.87 1157.58 485.52 1074.47 592.29 1245.88 589.94
00000485 00000045 929.61 158.81 404.21 564.44 1044.26 403.94 1236.85 402.62 1156.65 483.86 1079.38 594.77 1238.22 591.95
00000486 00000046 931.57 156.13 402.58 566.11 1043.69 402.49 1239.02 400.94 1157.68 484.92 1079.91 596.43 1239.98 593.41
00000487 00000047 932.65 155.33 401.64 568.72 1044.79 400.37 1240.59 398.76 1159.40 484.26 1080.84 596.70 1241.44 593.75
00000488 00000048 931.65 154.75 402.59 575.76 1046.02 399.44 1241.35 398.35 1160.94 484.56 1081.09 599.07 1241.97 596.67
00000489 00000049 931.70 156.08 400.13 583.15 1048.76 400.61 1241.68 399.60 1163.21 485.95 1080.84 602.18 1239.80 600.50
00000490 00000050 930.22 157.49 401.00 590.29 1048.68 403.43 1242.02 403.57 1162.31 490.19 1078.36 605.41 1239.99 604.86
00000491 00000051 930.29 159.92 400.13 591.77 1047.97 409.47 1240.32 408.03 1160.05 496.45 1076.86 609.13 1239.42 607.13
00000492 00000052 928.83 166.81 401.62 583.46 1047.97 414.31 1241.44 414.01 1160.72 502.47 1077.52 611.55 1240.08 610.39
00000493 00000053 930.46 171.14 403.11 569.44 1048.03 420.47 1244.41 418.33 1162.13 509.39 1080.50 612.97 1244.58 609.88
00000494 00000054 931.47 174.18 402.36 562.22 1047.43 424.62 1243.67 420.05 1161.44 514.63 1082.04 615.01 1245.09 610.00
00000495 00000055 930.85 176.18 402.78 562.41 1048.61 426.05 1241.71 420.19 1161.63 518.31 1085.59 619.22 1241.89 613.51
00000496 00000056 932.33 177.99 402.13 562.60 1049.62 429.05 1241.46 420.88 1162.47 523.18 1090.12 625.58 1241.31 618.03
00000497 00000057 931.48 180.58 401.88 562.63 1049.68 432.94 1240.49 421.99 1163.49 528.58 1093.57 631.31 1241.63 621.46
00000498 00000058 929.37 182.33 403.57 562.64 1049.05 437.09 1239.23 424.78 1162.66 531.23 1093.87 633.50 1241.30 622.38
00000499 00000059 926.84 183.67 404.40 561.88 1046.50 440.08 1237.76 426.27 1161.28 534.48 1091.09 635.24 1240.34 622.77
00000500 00000060 924.48 184.70 404.84 560.89 1045.31 440.18 1237.09 427.03 1160.41 535.28 1090.58 635.81 1239.18 623.82
00000501 00000061 922.05 186.00 405.03 557.88 1041.80 440.01 1234.24 427.91 1156.46 533.09 1086.94 633.57 1236.83 622.42
00000502 00000062 920.61 187.43 404.97 554.00 1038.23 438.63 1233.87 425.86 1155.22 530.86 1084.80 632.80 1238.00 621.01
00000503 00000063 919.40 185.70 404.36 556.49 1035.35 435.62 1231.26 423.88 1152.03 527.51 1081.28 631.20 1235.25 620.30
00000504 00000064 916.83 182.23 404.89 557.92 1033.96 427.80 1222.78 419.47 1145.60 517.14 1080.01 621.96 1226.94 613.87
00000505 00000065 915.96 177.81 408.02 559.67 1028.63 423.38 1218.51 411.62 1140.49 511.29 1075.27 615.40 1227.81 604.47
00000506 00000066 915.07 171.46 408.84 560.16 1026.42 418.83 1215.44 404.33 1138.50 496.72 1072.72 605.35 1229.05 592.23
00000507 00000067 913.77 166.89 407.30 556.87 1022.20 413.03 1215.29 396.64 1136.84 487.38 1068.03 599.83 1228.36 585.64
00000508 00000068 912.36 158.15 407.06 558.75 1021.32 407.72 1214.71 387.61 1138.67 478.61 1068.99 593.11 1231.20 575.81
00000509 00000069 911.28 153.24 405.96 557.91 1020.63 404.53 1214.02 381.41 1140.57 475.51 1067.65 587.02 1234.43 567.38
00000510 DELETE   907.03 146.47 407.55 548.50 1026.39 405.22 1218.83 381.01 1139.77 468.71 1063.53 573.57 1231.11 552.65
00000511 DELETE   905.19 145.72 407.06 541.87 1024.93 398.82 1215.87 374.12 1139.59 456.88 1065.29 565.07 1233.36 543.74
00000512 DELETE   905.58 139.48 409.41 545.76 1020.53 390.74 1215.28 364.67 1135.17 448.06 1063.47 561.85 1234.66 540.04
00000513 00000073 905.45 138.14 409.18 541.33 1017.61 384.33 1213.26 358.35 1132.36 442.34 1063.06 557.41 1233.42 535.89
00000514 DELETE   904.80 135.39 409.62 543.23 1016.66 381.42 1209.67 357.05 1130.54 436.97 1063.11 553.75 1231.55 533.56
00000515 00000075 905.61 129.08 408.36 550.70 1016.28 377.74 1207.21 354.59 1128.99 430.46 1062.31 550.93 1228.65 531.79
00000516 00000076 905.24 128.57 409.28 543.17 1016.20 375.10 1204.82 351.80 1127.91 426.70 1064.87 546.96 1226.49 527.52
00000517 00000077 905.16 128.89 409.87 538.92 1015.28 375.59 1202.60 349.30 1126.81 425.97 1065.09 544.32 1225.70 522.54
00000518 00000078 906.54 128.23 408.61 538.19 1016.07 376.53 1201.63 349.06 1125.81 426.88 1064.61 541.81 1225.44 519.01
00000519 00000079 907.39 127.17 406.98 541.46 1016.18 377.80 1201.83 351.66 1125.29 428.27 1062.78 542.28 1225.13 520.58
00000520 00000080 907.88 127.57 405.45 544.13 1015.14 378.35 1202.29 353.12 1123.90 431.70 1062.96 546.89 1223.93 526.07
00000521 00000081 905.90 131.81 407.28 548.93 1014.35 380.72 1203.43 356.26 1123.46 439.88 1061.92 555.07 1222.98 534.72
00000522 00000082 902.77 137.51 408.24 551.60 1014.34 384.90 1201.72 360.80 1122.67 445.03 1060.90 561.67 1219.69 541.36
00000523 00000083 900.68 140.70 408.21 557.52 1012.79 391.37 1199.22 365.29 1120.39 452.78 1056.86 567.69 1217.32 546.19
00000524 00000084 904.81 150.22 406.26 566.05 1010.10 399.26 1196.67 371.02 1123.66 456.97 1058.37 586.07 1216.11 562.71
00000525 00000085 903.28 153.65 406.28 578.78 1006.50 402.61 1195.02 371.47 1123.47 460.22 1058.82 594.54 1223.00 568.44
00000526 00000086 902.12 157.32 409.99 580.33 1005.42 406.55 1195.34 375.31 1123.82 468.11 1057.83 596.95 1227.66 570.35
00000527 00000087 904.08 158.47 407.08 573.37 1008.50 412.19 1200.68 383.10 1128.58 477.46 1059.12 598.54 1228.52 574.03
00000528 00000088 905.24 159.82 408.97 568.46 1015.69 415.21 1207.67 386.08 1139.43 483.51 1070.76 601.63 1237.11 576.96
00000529 00000089 909.16 165.35 407.78 560.60 1023.83 417.22 1214.35 391.08 1148.02 485.25 1080.24 603.00 1240.34 580.64
00000530 00000090 912.79 165.31 406.21 556.67 1030.62 417.97 1219.62 393.87 1153.34 485.57 1085.33 602.78 1239.74 581.64
00000531 00000091 913.92 164.68 407.51 554.38 1031.72 417.11 1221.93 393.50 1154.32 485.26 1084.38 600.62 1240.72 579.68
00000532 00000092 913.36 163.32 409.13 552.95 1028.54 414.16 1221.12 391.67 1150.80 482.28 1080.34 597.54 1240.43 577.54
00000533 00000093 913.36 161.47 409.57 556.38 1027.30 411.53 1222.35 390.23 1150.71 480.99 1075.76 593.67 1243.38 574.89
00000534 00000094 913.61 158.74 410.30 559.80 1028.03 409.06 1224.59 388.28 1152.66 480.44 1074.83 590.92 1247.06 572.65
00000535 00000095 914.88 157.70 411.90 562.83 1028.49 408.19 1224.67 387.12 1153.39 479.76 1074.95 589.58 1249.24 570.90
00000536 00000096 916.92 157.73 410.85 561.94 1029.19 408.21 1225.90 386.91 1153.75 480.07 1075.19 589.69 1250.76 570.89
00000537 00000097 916.97 158.16 410.40 562.33 1029.70 408.72 1226.24 388.39 1153.54 480.45 1074.50 589.52 1250.36 571.57
00000538 00000098 916.25 158.45 409.77 561.04 1028.86 409.02 1224.91 388.83 1152.31 480.65 1073.64 589.17 1248.69 571.33
00000539 00000099 913.86 159.07 410.30 559.43 1027.03 408.20 1221.88 386.55 1150.92 479.81 1073.17 587.44 1247.58 568.26
00000540 00000100 912.55 159.44 409.66 558.03 1026.43 407.78 1219.44 384.49 1150.32 477.91 1072.05 584.89 1246.12 564.52
00000541 00000101 911.52 159.04 409.02 557.69 1024.44 407.12 1217.24 382.97 1147.98 476.98 1070.35 583.84 1244.84 563.02
00000542 00000102 910.90 157.92 409.39 562.87 1022.41 406.48 1216.45 382.48 1145.63 474.43 1067.54 584.85 1243.56 564.35
00000543 00000103 910.17 158.29 408.84 570.97 1021.66 405.91 1213.38 381.95 1144.09 473.05 1066.15 587.01 1241.41 566.68
00000544 00000104 910.12 157.67 409.29 573.59 1021.86 405.49 1212.09 381.41 1143.50 472.11 1066.41 587.51 1240.05 567.02
00000545 00000105 910.57 157.22 409.29 574.48 1022.27 405.43 1211.55 381.04 1143.60 472.39 1066.84 587.08 1240.46 566.35
00000546 00000106 910.73 157.30 409.25 573.10 1021.87 406.03 1211.66 380.85 1143.59 472.87 1067.59 587.48 1241.15 566.00
00000547 00000107 910.79 157.49 408.70 574.16 1022.32 406.15 1212.01 380.97 1144.42 473.16 1067.99 588.10 1241.10 566.58
00000548 00000108 911.21 157.28 408.74 573.63 1022.83 407.40 1212.78 381.49 1145.49 473.62 1069.61 588.97 1242.37 566.79
00000549 00000109 911.13 156.40 408.78 572.46 1023.13 407.36 1213.19 381.34 1145.72 473.33 1070.07 588.44 1242.38 566.09
00000550 00000110 910.62 156.34 408.77 569.44 1023.24 406.87 1214.44 380.69 1146.92 472.93 1069.66 586.95 1243.13 564.73
00000551 00000111 910.72 155.43 408.69 567.05 1023.35 405.40 1215.31 380.45 1146.77 472.35 1069.58 586.13 1241.96 564.87
00000552 00000112 911.00 154.07 408.36 566.24 1024.04 403.74 1216.31 379.12 1147.44 471.32 1069.07 583.57 1242.33 562.68
00000553 00000113 910.04 150.90 410.35 568.96 1023.46 402.80 1215.68 377.34 1146.90 470.13 1069.21 582.80 1242.90 561.01
00000554 00000114 909.98 152.06 410.63 568.08 1023.61 401.48 1214.15 375.87 1145.81 468.10 1070.26 582.32 1241.03 560.21
00000555 00000115 909.31 153.12 411.26 567.26 1023.95 399.74 1211.46 374.68 1143.77 462.84 1071.80 581.43 1237.52 559.52
00000556 00000116 908.82 151.56 411.96 568.72 1023.15 397.90 1210.26 372.53 1142.63 460.22 1070.92 580.09 1236.55 558.03
00000557 00000117 909.07 149.53 411.47 570.18 1022.15 396.16 1208.93 370.24 1140.78 457.63 1071.42 580.57 1234.95 558.02
00000558 00000118 908.45 148.34 412.27 571.45 1022.07 395.01 1209.27 369.99 1140.20 457.05 1070.50 580.15 1234.08 558.35
00000559 00000119 908.42 148.16 411.66 569.76 1022.13 394.83 1210.18 370.57 1139.75 457.35 1069.11 579.31 1233.00 558.38
00000560 00000120 907.49 146.66 411.69 564.88 1021.28 395.01 1210.45 370.89 1138.18 457.42 1067.51 577.19 1231.85 556.16
00000561 00000121 903.43 143.54 411.43 550.82 1021.33 393.87 1213.90 370.58 1133.79 460.95 1060.90 567.57 1229.54 547.47
00000562 00000122 904.09 143.09 410.22 545.83 1020.11 392.46 1215.00 369.32 1133.92 457.71 1060.87 565.75 1231.02 545.64
00000563 00000123 905.16 141.65 408.45 541.02 1019.81 390.67 1213.48 367.83 1132.05 456.00 1062.39 563.31 1229.14 543.41
00000564 00000124 904.91 140.95 408.99 539.84 1018.15 390.21 1213.26 367.01 1130.87 453.86 1061.95 563.14 1228.94 542.92
00000565 00000125 904.73 142.16 408.66 537.43 1016.35 389.98 1212.65 367.21 1128.54 451.95 1059.21 561.85 1228.08 541.92
00000566 00000126 904.32 140.27 408.61 537.89 1016.01 388.79 1210.84 366.92 1127.11 450.50 1059.03 560.04 1226.46 540.89
00000567 DELETE   906.35 139.67 403.24 537.94 1018.82 389.88 1209.64 371.27 1126.29 447.66 1058.52 557.27 1222.99 541.27
00000568 DELETE   906.57 138.74 403.27 538.74 1022.16 388.13 1211.90 372.38 1129.32 443.55 1057.78 554.50 1222.51 541.21
00000569 00000129 908.20 138.49 403.69 539.92 1021.15 382.06 1215.26 365.29 1130.69 441.38 1058.75 554.34 1226.40 540.32
00000570 00000130 908.00 135.02 406.01 551.10 1018.87 378.30 1217.40 362.93 1131.34 439.88 1055.62 555.19 1229.98 542.19
00000571 00000131 910.34 135.29 407.96 571.66 1023.04 374.91 1212.01 361.56 1136.87 430.30 1061.70 562.96 1223.45 550.84
00000572 00000132 910.19 126.31 405.81 569.70 1022.08 366.07 1219.87 362.33 1130.72 432.36 1049.54 550.35 1223.13 545.98
00000573 00000133 913.66 128.95 401.72 552.74 1023.74 363.13 1223.30 362.41 1134.01 429.08 1052.49 542.82 1226.44 541.21
00000574 00000134 918.37 130.80 400.07 539.84 1027.25 362.53 1226.84 361.69 1136.81 425.93 1057.28 538.73 1229.65 536.86
00000575 00000135 924.13 128.65 397.49 542.34 1033.46 361.03 1232.73 364.47 1140.57 424.34 1058.44 537.04 1232.42 538.76
00000576 00000136 930.07 128.33 395.94 543.07 1041.23 360.63 1239.54 368.66 1146.71 426.99 1062.84 537.76 1235.73 543.25
00000577 00000137 937.32 129.17 393.13 544.13 1049.16 359.72 1249.90 371.63 1153.70 426.81 1066.74 538.45 1241.83 547.48
00000578 DELETE   944.03 132.09 393.79 539.25 1058.16 356.16 1259.78 370.22 1162.50 427.30 1074.51 537.28 1247.51 548.67
00000579 00000139 952.68 133.08 391.35 536.99 1069.92 354.19 1268.77 369.84 1174.59 426.57 1085.26 536.23 1253.58 548.94
00000580 00000140 959.55 133.59 391.55 539.35 1079.48 354.37 1277.69 371.26 1187.44 425.15 1097.46 540.37 1262.43 553.84
00000581 00000141 963.67 136.85 392.67 537.15 1088.55 356.06 1283.33 372.96 1199.25 426.27 1106.46 539.99 1269.18 553.16
00000582 DELETE   963.05 139.98 401.45 533.81 1096.06 353.96 1296.57 373.47 1206.53 427.79 1110.98 536.60 1277.51 552.12
00000583 00000143 967.11 142.51 401.74 536.29 1102.46 357.24 1301.55 378.87 1211.83 435.00 1114.12 538.59 1281.39 555.80
00000584 00000144 968.56 144.64 401.37 536.41 1108.39 360.27 1306.69 383.64 1219.40 440.19 1116.88 542.05 1283.73 560.79
00000585 00000145 970.12 145.18 400.99 537.61 1110.29 362.56 1309.80 385.92 1222.58 443.52 1118.37 544.69 1286.44 563.39
00000586 00000146 969.43 146.18 403.68 540.13 1110.61 365.84 1307.55 388.05 1221.72 446.58 1117.73 545.92 1284.60 563.61
00000587 00000147 967.82 147.19 404.08 540.95 1111.01 369.76 1304.41 390.21 1221.66 450.01 1118.45 547.79 1282.10 564.03
00000588 00000148 966.28 145.82 403.81 547.36 1109.01 371.89 1299.28 389.22 1218.39 450.66 1116.65 552.51 1276.05 566.48
00000589 00000149 970.09 156.10 399.13 541.21 1103.71 377.02 1288.16 389.21 1215.37 452.44 1117.56 560.24 1271.15 569.90
00000590 00000150 970.51 152.60 391.47 541.53 1096.70 375.10 1288.07 385.45 1211.49 451.54 1110.88 564.19 1270.94 572.46
00000591 00000151 968.09 151.22 393.51 546.13 1094.64 375.43 1286.14 384.79 1209.57 453.56 1107.98 565.07 1269.65 572.41
00000592 00000152 965.43 148.78 395.09 550.00 1092.43 375.73 1285.30 384.13 1208.71 456.57 1108.14 567.51 1269.23 573.76
00000593 00000153 964.22 147.69 394.92 551.20 1090.64 375.48 1284.16 385.01 1206.60 457.09 1105.81 567.80 1267.48 574.96
00000594 00000154 961.02 146.77 397.06 551.68 1088.93 376.61 1282.02 386.97 1204.34 459.09 1104.03 568.33 1264.29 575.99
00000595 00000155 960.05 148.37 396.67 550.18 1086.88 377.55 1281.31 388.66 1200.67 459.11 1100.44 569.26 1261.92 577.53
00000596 00000156 957.76 148.58 399.45 549.78 1085.36 378.80 1281.60 392.41 1199.21 458.82 1095.98 566.70 1262.68 576.98
00000597 00000157 957.25 150.24 397.70 548.18 1083.33 379.68 1282.13 393.86 1197.12 462.31 1090.61 565.52 1264.15 576.68
00000598 00000158 955.38 151.62 397.50 548.41 1081.71 378.67 1279.21 395.40 1193.25 462.65 1085.58 563.42 1259.72 576.85
00000599 00000159 952.38 154.60 394.97 551.64 1075.79 373.71 1268.55 395.51 1179.30 458.37 1075.85 560.67 1246.12 578.19
00000600 00000160 944.73 159.05 396.33 548.56 1064.13 370.11 1257.68 401.98 1156.20 455.19 1059.17 557.35 1228.38 582.84
00000601 00000161 940.26 157.91 396.41 552.02 1052.05 366.12 1247.47 403.54 1134.88 454.91 1041.17 554.61 1213.56 584.93
00000602 00000162 943.52 153.38 393.57 557.45 1051.14 363.44 1245.71 399.18 1130.06 454.56 1038.60 555.50 1209.21 584.53
00000603 00000163 948.66 149.03 396.00 555.66 1056.57 360.60 1249.79 392.14 1136.35 450.20 1049.33 555.38 1209.96 580.50
