Video ID: 	L5W_MGGS3k8
H: 	1080
W: 	1920
FPS: 	25.0

FRAME INDEX X0 Y0 W H [Landmarks (5 Points)]

00062797 00000000 954.46 112.02 385.38 534.22 990.97 302.18 1154.11 302.06 1013.07 399.74 995.95 518.10 1115.77 518.20
00062798 00000001 957.39 108.87 381.92 533.97 993.39 291.81 1158.18 302.24 1007.60 392.22 997.99 511.73 1114.04 523.83
00062799 DELETE   956.31 111.56 382.71 525.47 999.63 299.71 1162.08 311.59 1015.35 385.29 997.86 503.62 1115.94 511.81
00062800 DELETE   962.22 105.72 372.68 527.12 999.92 291.78 1152.12 293.26 1020.24 376.09 1001.18 503.47 1117.91 507.70
00062801 00000004 961.31 98.77 372.65 530.78 997.46 284.19 1149.18 284.50 1019.97 373.75 1000.05 501.23 1112.30 504.74
00062802 00000005 957.26 96.59 375.83 532.22 994.64 280.27 1149.95 279.98 1019.32 371.97 998.12 500.27 1113.28 503.17
00062803 00000006 953.18 95.09 378.85 533.75 992.16 280.72 1150.48 280.53 1017.45 372.37 994.67 499.75 1114.18 502.32
00062804 00000007 951.64 95.88 377.60 531.09 988.85 281.03 1146.22 278.83 1013.31 370.73 991.84 500.47 1110.88 501.07
00062805 00000008 947.67 96.73 378.42 531.48 985.29 279.76 1144.72 277.02 1010.77 371.05 990.00 500.96 1110.96 500.84
00062806 00000009 945.20 97.37 378.89 531.97 982.75 279.44 1142.78 276.01 1008.58 370.66 987.37 501.21 1109.07 500.34
00062807 00000010 943.00 97.89 379.23 535.43 981.96 280.89 1141.39 276.90 1008.84 371.91 986.97 503.23 1106.15 502.11
00062808 00000011 939.71 98.68 376.31 536.40 980.58 281.86 1137.94 277.48 1007.89 371.80 985.23 504.23 1101.67 502.71
00062809 00000012 936.02 98.95 377.77 538.66 977.71 282.68 1136.06 278.47 1006.05 374.10 983.56 505.64 1099.80 503.92
00062810 00000013 928.94 100.17 381.22 547.45 969.24 284.68 1135.12 283.31 998.53 381.65 976.31 510.84 1093.98 509.66
00062811 00000014 924.62 102.63 381.51 548.33 966.22 286.92 1132.71 285.37 995.94 384.40 974.18 513.25 1093.71 511.89
00062812 00000015 922.36 107.29 381.63 544.41 964.33 287.20 1129.62 287.23 991.11 386.36 972.08 512.68 1092.78 512.41
00062813 00000016 922.41 108.66 383.47 539.56 969.80 285.78 1132.41 288.27 984.66 382.07 974.91 510.31 1092.19 514.14
00062814 00000017 919.99 103.41 380.10 549.42 968.98 292.57 1131.24 291.18 992.03 378.94 971.75 508.67 1089.69 508.54
00062815 00000018 920.18 104.45 380.13 548.20 968.47 294.49 1130.79 292.66 991.30 381.51 971.50 510.28 1090.61 509.72
00062816 00000019 919.40 104.32 382.13 547.93 967.70 296.12 1131.79 293.14 991.40 383.05 972.06 512.96 1093.19 511.35
00062817 00000020 918.90 106.66 382.47 544.92 967.54 297.51 1131.51 295.33 990.73 385.56 971.01 513.51 1091.79 512.56
00062818 00000021 918.52 107.08 382.60 544.18 966.74 298.87 1131.70 297.15 989.53 387.93 969.49 513.77 1093.21 513.16
00062819 00000022 919.60 107.59 382.31 544.12 967.96 301.21 1132.06 300.43 990.70 391.05 969.56 514.48 1092.85 514.60
00062820 00000023 920.74 112.42 381.68 541.06 969.11 303.42 1134.65 302.80 995.19 395.85 971.78 517.78 1093.85 518.02
00062821 00000024 923.69 112.33 379.23 543.88 973.43 303.88 1138.39 304.17 1001.97 399.26 977.06 522.12 1095.08 523.14
00062822 00000025 926.80 114.85 377.93 541.74 975.61 304.24 1143.11 304.95 1007.49 403.69 980.27 524.77 1101.86 526.01
00062823 00000026 929.46 118.15 376.63 538.67 977.68 304.69 1147.70 305.87 1012.06 405.47 983.27 528.11 1105.66 529.63
00062824 00000027 930.00 119.47 375.47 535.33 977.49 305.02 1147.66 306.85 1013.33 406.20 983.89 528.74 1103.77 530.78
00062825 00000028 929.39 119.83 376.34 536.29 977.36 305.79 1148.91 307.58 1013.64 406.15 983.47 529.57 1104.21 531.58
00062826 00000029 927.24 119.48 377.48 538.14 976.28 306.73 1147.73 307.96 1012.60 406.87 983.67 530.87 1104.66 532.33
00062827 00000030 925.92 124.87 378.00 534.82 972.92 307.02 1145.18 308.15 1008.50 409.25 981.80 532.03 1105.12 533.18
00062828 00000031 922.83 120.74 377.69 539.13 970.14 308.68 1142.14 308.64 1004.81 410.47 980.39 533.25 1103.23 533.52
00062829 00000032 920.42 122.02 379.84 537.65 967.07 310.66 1138.48 309.59 1000.95 412.82 978.02 533.88 1100.98 533.36
00062830 00000033 918.04 123.11 380.45 537.02 964.89 310.19 1136.16 309.03 998.36 412.47 976.91 533.77 1099.56 532.94
00062831 00000034 917.02 125.19 380.95 534.67 963.56 310.08 1134.96 309.27 995.93 412.51 974.89 533.40 1098.58 532.82
00062832 00000035 915.12 126.84 382.80 532.45 961.84 311.64 1132.78 309.96 994.06 411.76 973.39 533.46 1096.42 532.19
00062833 00000036 912.80 126.04 383.85 532.79 960.71 312.19 1131.97 311.55 991.27 413.24 971.51 533.53 1094.25 533.18
00062834 00000037 911.83 128.85 384.19 529.64 959.86 312.37 1130.00 312.40 990.08 413.35 970.66 532.92 1093.27 533.00
00062835 00000038 910.61 130.45 383.32 531.30 960.97 313.05 1128.87 312.17 991.96 410.48 973.57 533.54 1090.66 532.80
00062836 00000039 908.27 132.96 383.58 531.07 960.59 314.23 1126.86 313.13 994.01 408.82 974.00 533.71 1084.13 532.74
00062837 00000040 907.82 134.16 382.22 529.27 960.21 315.04 1126.88 313.72 995.16 411.32 973.01 533.70 1085.71 532.47
00062838 00000041 907.50 133.81 382.23 528.51 959.33 316.38 1126.70 315.25 994.35 414.48 971.84 535.10 1084.79 534.10
00062839 00000042 906.51 134.65 382.64 528.04 958.78 316.05 1127.22 314.97 994.91 415.28 972.00 535.22 1085.82 534.16
00062840 00000043 903.82 135.96 383.54 527.17 955.45 316.51 1125.88 315.17 995.21 415.79 970.94 536.58 1083.64 535.24
00062841 00000044 903.08 137.77 382.78 526.16 953.02 318.56 1123.63 315.37 992.97 417.69 971.21 538.79 1083.32 535.89
00062842 00000045 900.57 140.43 382.85 524.94 948.79 318.83 1119.30 315.09 989.29 419.40 968.65 540.20 1081.12 536.78
00062843 00000046 898.08 141.02 382.08 524.79 944.58 321.85 1116.85 316.11 987.25 421.14 968.31 543.67 1080.32 538.58
00062844 00000047 895.60 140.25 381.60 528.29 941.99 324.40 1115.11 316.48 984.24 422.58 966.85 546.57 1082.89 539.69
00062845 00000048 894.12 142.91 381.46 526.53 940.42 326.77 1113.80 317.57 985.03 426.79 967.08 548.87 1084.79 540.86
00062846 00000049 892.02 144.97 381.40 524.25 938.52 328.88 1113.25 318.20 985.43 426.98 967.22 550.33 1085.71 541.01
00062847 00000050 891.01 146.40 381.80 523.20 937.68 329.97 1112.69 319.08 985.10 427.36 966.40 551.89 1085.42 542.32
00062848 00000051 889.39 146.13 381.47 524.14 936.33 329.75 1112.07 319.08 984.97 428.52 965.62 552.10 1085.28 542.69
00062849 00000052 883.39 138.71 384.99 528.11 930.44 332.96 1106.58 318.02 979.40 432.60 956.40 550.59 1086.32 539.40
00062850 00000053 880.35 139.52 385.72 529.38 926.73 335.24 1102.87 321.21 974.75 433.16 952.27 552.03 1083.01 541.60
00062851 00000054 878.80 141.13 383.90 530.87 923.41 337.71 1098.48 324.19 969.91 434.29 948.24 554.34 1079.18 544.50
00062852 00000055 876.87 145.14 380.93 532.59 920.84 342.06 1094.94 328.30 966.14 434.89 944.17 557.44 1078.57 547.40
00062853 00000056 872.32 149.23 382.04 530.83 916.77 343.05 1089.70 331.19 963.16 437.85 941.12 558.61 1075.77 549.82
00062854 00000057 869.39 151.39 381.82 528.31 912.80 343.00 1082.63 332.50 956.85 439.53 937.83 558.20 1071.91 550.38
00062855 00000058 865.28 151.42 382.75 526.16 906.93 343.14 1076.38 332.85 950.27 440.72 933.32 558.82 1066.31 551.01
00062856 00000059 861.34 150.99 381.00 532.24 901.30 339.37 1079.62 330.15 951.12 446.06 933.03 564.84 1061.61 556.98
00062857 00000060 856.19 153.29 384.41 533.29 898.63 342.59 1076.87 331.15 948.74 446.55 934.00 566.70 1060.83 556.95
00062858 00000061 852.80 159.12 389.54 537.56 900.90 347.82 1071.43 331.53 948.51 446.28 938.38 572.21 1065.45 559.15
00062859 00000062 853.00 163.37 386.31 534.42 901.18 351.86 1073.01 333.40 949.63 450.60 938.05 578.16 1068.61 563.22
00062860 00000063 852.26 164.67 387.37 533.67 901.85 356.41 1073.85 336.92 951.66 453.65 938.24 580.83 1069.79 564.97
00062861 00000064 851.11 166.80 387.60 536.18 902.19 357.00 1074.81 337.40 954.64 455.39 938.50 583.16 1070.00 567.42
00062862 00000065 852.19 167.83 384.84 535.79 904.20 356.90 1074.96 341.23 955.87 457.14 936.92 579.47 1073.43 566.89
00062863 00000066 853.45 169.67 383.41 531.52 904.93 357.40 1075.60 343.77 956.19 458.79 934.42 577.44 1074.33 566.45
00062864 00000067 854.79 169.57 384.31 528.56 906.26 356.82 1079.08 344.06 959.42 457.43 932.55 574.89 1071.37 564.80
00062865 00000068 857.61 167.61 384.09 526.53 906.83 357.40 1080.09 345.87 958.37 457.53 932.65 574.79 1070.24 565.77
00062866 00000069 858.98 167.89 383.14 525.88 907.98 357.59 1082.06 345.19 961.72 457.11 935.85 576.39 1070.96 566.78
00062867 00000070 862.30 166.53 382.33 527.33 911.19 358.01 1084.47 346.54 965.99 458.66 938.87 577.03 1072.43 568.29
00062868 00000071 863.73 165.36 380.65 529.42 913.31 358.69 1085.59 347.34 968.61 458.49 940.08 577.29 1073.42 568.79
00062869 00000072 864.19 168.12 381.52 526.35 913.55 356.99 1085.73 344.23 970.43 457.27 942.70 578.60 1072.90 568.90
00062870 00000073 864.36 169.27 382.02 524.34 915.29 356.20 1086.34 342.18 972.92 455.92 947.15 577.78 1074.59 566.90
00062871 00000074 865.01 166.69 382.95 527.86 915.34 354.63 1087.18 342.41 971.25 453.59 946.40 574.33 1077.43 564.93
00062872 00000075 865.59 165.89 382.35 528.75 916.20 354.19 1088.85 341.91 972.14 452.26 947.50 573.87 1080.57 564.49
00062873 00000076 867.06 165.86 381.72 528.19 916.77 354.26 1088.55 341.06 971.49 451.41 948.68 573.13 1082.93 563.08
00062874 00000077 866.54 162.76 382.76 531.34 917.04 353.42 1090.03 340.23 972.59 449.74 948.99 572.20 1084.18 562.14
00062875 00000078 866.08 162.29 384.12 530.55 917.09 353.23 1090.04 339.57 973.29 448.88 949.43 570.92 1084.60 560.34
00062876 00000079 864.93 159.93 386.70 530.27 916.83 353.29 1091.21 339.01 973.56 448.29 949.43 569.47 1084.94 558.23
00062877 00000080 864.84 158.70 386.91 528.75 916.51 353.85 1091.28 339.26 973.31 448.04 948.94 568.57 1084.17 557.04
00062878 00000081 863.35 155.83 386.65 530.10 914.94 351.54 1089.94 337.85 972.12 447.88 948.09 568.30 1080.51 557.32
00062879 00000082 863.41 159.49 387.20 531.26 915.34 350.96 1087.97 337.33 972.94 446.83 951.10 570.11 1076.61 559.50
00062880 00000083 863.26 159.00 386.81 532.70 915.78 350.86 1088.32 337.27 973.82 446.82 950.99 570.10 1076.29 559.63
00062881 00000084 863.01 157.65 387.44 530.57 915.24 350.92 1089.95 337.46 973.55 446.89 949.47 568.00 1079.42 557.34
00062882 00000085 863.71 154.92 385.78 530.88 915.83 350.00 1090.99 336.92 973.06 445.97 947.83 565.33 1079.49 555.03
00062883 00000086 864.06 155.83 385.36 531.53 916.95 349.41 1092.50 336.40 974.46 444.81 949.23 565.44 1081.34 555.30
00062884 00000087 864.54 155.17 385.00 533.03 919.07 349.04 1093.13 336.51 977.50 445.26 951.95 565.09 1081.98 555.48
00062885 00000088 865.15 153.72 385.00 532.95 920.11 349.18 1094.05 336.60 977.58 443.63 951.95 562.13 1085.71 552.33
00062886 00000089 866.54 152.33 383.45 530.68 920.66 347.75 1095.67 335.61 978.00 442.67 950.95 560.16 1087.59 550.64
00062887 00000090 866.40 150.05 384.29 533.53 920.86 347.64 1097.18 334.82 978.48 442.57 950.89 560.33 1088.13 550.43
00062888 00000091 866.34 148.95 384.93 530.91 921.31 346.71 1097.58 333.28 981.22 443.52 953.05 558.83 1087.04 548.89
00062889 00000092 866.80 148.98 384.47 531.12 921.53 345.67 1097.72 332.72 981.87 444.38 952.82 559.05 1085.47 549.61
00062890 00000093 867.53 148.91 383.95 535.64 921.88 346.33 1098.44 333.93 980.90 444.41 952.32 562.64 1085.03 553.65
00062891 00000094 869.23 148.55 381.14 536.53 922.26 347.80 1095.39 336.23 979.34 444.72 952.93 562.75 1085.64 554.28
00062892 00000095 870.02 149.24 380.21 533.53 925.67 361.32 1094.39 345.90 980.29 444.74 954.48 563.59 1089.51 551.83
00062893 DELETE   870.39 143.83 382.46 539.45 926.91 359.79 1098.16 343.84 983.36 442.59 954.28 563.40 1089.54 551.62
00062894 00000097 871.29 140.25 382.30 540.05 927.63 346.92 1100.37 335.77 985.92 442.26 956.06 559.82 1085.89 551.47
00062895 00000098 871.02 138.86 382.50 539.92 927.79 340.09 1102.18 330.98 988.20 442.84 956.25 556.59 1085.32 550.11
00062896 00000099 870.72 137.50 383.18 538.49 927.39 335.90 1101.69 327.29 987.96 440.13 956.18 553.06 1084.07 547.19
00062897 00000100 869.71 136.30 383.80 538.58 927.99 334.23 1102.27 325.05 988.85 438.11 956.46 552.63 1083.73 546.07
00062898 00000101 863.37 137.51 382.96 535.61 929.34 334.85 1101.56 324.25 988.88 432.70 955.65 551.13 1083.15 544.03
00062899 00000102 860.49 135.20 383.24 533.30 930.67 335.07 1101.46 323.75 992.78 428.82 958.66 550.58 1080.73 543.32
00062900 00000103 858.57 129.40 380.67 535.53 929.27 332.35 1099.28 321.84 992.91 427.84 957.94 547.64 1078.95 541.01
00062901 00000104 855.47 126.08 385.55 539.81 928.15 329.23 1100.45 319.48 993.88 422.54 954.96 543.91 1079.72 537.79
00062902 00000105 853.83 127.04 388.17 539.83 929.65 325.72 1106.01 316.99 999.97 422.39 957.26 542.91 1082.59 537.66
00062903 00000106 855.15 127.94 387.36 541.48 933.06 326.92 1108.85 318.46 1005.51 425.68 959.82 544.09 1084.92 539.16
00062904 00000107 854.32 130.72 386.22 536.62 933.66 325.11 1111.44 317.67 1009.91 426.81 962.14 542.97 1086.60 538.53
00062905 00000108 853.33 131.47 386.49 535.48 933.77 323.16 1114.35 316.27 1012.85 427.03 962.97 542.57 1090.02 538.19
00062906 00000109 854.47 126.72 385.22 540.02 935.69 322.55 1117.81 314.66 1015.61 425.97 965.24 541.68 1095.79 536.50
00062907 00000110 854.72 123.59 384.80 545.04 938.32 319.22 1121.97 310.60 1021.20 423.26 971.28 541.35 1101.67 535.54
00062908 DELETE   858.53 121.28 383.24 551.20 944.20 320.54 1125.14 310.49 1029.98 422.06 980.76 546.23 1103.78 539.10
00062909 00000112 861.49 123.31 376.95 551.55 953.08 321.22 1133.87 313.38 1040.32 420.77 987.40 547.08 1108.14 541.99
00062910 DELETE   865.75 120.83 381.21 556.72 958.18 317.14 1137.63 308.60 1045.86 417.61 988.94 546.88 1107.96 541.17
00062911 DELETE   867.86 111.96 380.37 561.53 959.71 314.87 1139.09 303.06 1048.23 413.26 992.17 545.59 1109.82 537.13
00062912 00000115 869.85 108.31 382.88 559.82 959.23 312.02 1140.64 296.61 1045.87 410.81 995.59 535.53 1123.31 523.26
00062913 00000116 870.65 108.62 383.07 552.53 960.11 310.94 1137.95 296.00 1047.21 407.95 998.78 529.24 1126.91 517.28
00062914 00000117 871.52 109.09 379.38 545.34 960.78 305.73 1136.81 290.95 1046.31 400.63 997.89 522.73 1124.45 511.10
00062915 00000118 869.94 106.83 380.75 539.42 960.65 300.45 1134.56 289.61 1046.51 394.96 992.29 516.46 1112.76 508.63
00062916 DELETE   867.00 107.75 383.75 527.20 955.48 294.83 1133.35 286.10 1041.63 388.53 987.80 509.26 1108.47 503.07
00062917 00000120 860.70 105.51 385.34 530.41 948.67 291.08 1127.28 282.27 1036.66 384.21 980.52 507.29 1106.95 500.92
CROP_BBOX: 590 0 1546 914
