Video ID: 	GUKVh9OpxJc
H: 	1080
W: 	1920
FPS: 	23.976023976023978

FRAME INDEX X0 Y0 W H [Landmarks (5 Points)]

00003168 00000000 791.16 152.90 411.49 573.72 944.93 329.76 1124.85 370.46 1049.42 423.47 930.35 547.95 1076.49 581.65
00003169 00000001 782.88 152.89 413.61 576.86 938.00 327.89 1119.70 370.22 1044.45 426.32 922.73 549.76 1068.19 584.55
00003170 DELETE   776.13 153.50 416.78 582.48 930.33 331.49 1113.45 371.35 1038.82 429.35 918.48 557.53 1062.83 590.23
00003171 DELETE   770.11 154.30 418.30 581.81 925.75 333.57 1109.86 372.12 1033.87 431.88 915.57 559.50 1059.40 591.17
00003172 00000004 765.72 146.28 414.28 569.77 917.02 321.57 1108.75 366.42 1026.60 422.94 904.23 546.17 1053.87 583.11
00003173 00000005 762.22 133.71 411.78 572.11 913.46 316.72 1108.86 361.19 1028.13 417.32 901.80 539.72 1056.15 576.60
00003174 00000006 755.79 121.53 416.85 579.44 908.68 315.64 1108.84 355.59 1023.30 420.31 897.62 534.77 1061.00 569.04
00003175 00000007 752.62 120.74 420.96 580.75 907.04 317.04 1108.25 355.21 1021.45 422.38 897.80 534.45 1063.05 566.87
00003176 00000008 747.85 130.17 426.05 577.60 905.68 322.60 1110.12 358.42 1023.75 433.13 900.17 545.25 1065.10 576.04
00003177 00000009 754.20 144.01 421.96 568.99 910.39 327.19 1108.65 364.32 1026.62 445.17 904.18 555.47 1059.13 585.46
00003178 00000010 755.01 145.74 422.97 570.24 914.09 332.64 1110.03 368.69 1030.95 447.10 908.99 559.18 1061.49 588.37
00003179 00000011 756.64 147.89 423.24 574.28 915.98 337.69 1110.46 370.23 1034.17 449.34 915.52 564.33 1065.55 590.42
00003180 00000012 761.89 158.82 421.39 577.27 927.46 352.87 1116.79 380.22 1048.40 468.16 930.00 580.26 1078.22 602.20
00003181 00000013 765.72 163.02 419.14 580.08 928.83 361.33 1119.08 384.73 1052.19 476.89 934.55 589.87 1084.79 608.98
00003182 DELETE   767.41 164.00 423.01 591.89 931.53 371.35 1124.72 394.26 1058.90 482.05 939.03 596.95 1096.18 615.73
00003183 DELETE   769.56 165.51 425.32 603.29 936.46 380.89 1126.89 402.83 1063.10 491.19 942.52 604.81 1101.52 622.69
00003184 00000016 774.10 196.27 422.63 603.44 943.61 391.13 1129.75 412.58 1072.05 514.96 955.03 639.03 1092.45 656.33
00003185 00000017 774.38 202.14 425.63 615.59 945.12 398.96 1129.47 419.08 1070.97 525.99 957.65 650.16 1091.62 666.25
00003186 00000018 776.52 207.53 421.78 622.98 949.76 407.64 1129.49 426.62 1073.79 538.20 960.44 660.38 1092.57 675.22
00003187 00000019 779.19 212.40 419.38 620.89 951.79 416.34 1130.28 432.68 1074.16 544.15 964.52 666.45 1097.43 679.11
00003188 00000020 783.03 216.66 416.48 616.20 953.54 425.99 1131.18 441.90 1076.31 554.73 967.52 670.94 1101.81 683.13
00003189 00000021 783.17 216.48 417.31 613.71 953.15 427.36 1132.04 442.46 1076.02 555.21 967.78 669.87 1103.22 681.38
00003190 00000022 784.48 214.18 417.04 612.38 954.52 427.49 1132.33 441.98 1076.08 554.08 968.66 666.87 1103.16 677.94
00003191 00000023 785.55 215.06 416.92 609.76 955.87 427.21 1132.43 441.71 1076.67 553.82 969.89 665.50 1102.43 676.69
00003192 00000024 785.69 214.08 417.27 611.89 955.64 427.00 1131.52 440.37 1075.64 554.63 970.60 665.18 1102.01 675.07
00003193 00000025 786.93 214.77 416.84 614.23 956.56 427.61 1133.54 441.60 1075.77 556.44 970.31 667.25 1102.91 677.57
00003194 00000026 788.09 213.37 417.11 620.15 958.30 429.57 1135.81 445.60 1077.31 558.35 970.08 673.07 1102.89 685.17
00003195 00000027 790.32 217.24 415.29 619.63 960.97 433.17 1136.71 450.15 1080.02 561.29 971.35 676.40 1102.96 689.41
00003196 00000028 794.30 223.19 412.34 609.49 963.56 442.63 1138.92 459.37 1082.89 562.07 974.16 672.63 1109.91 685.80
00003197 DELETE   794.15 222.60 412.64 607.87 962.95 442.83 1136.32 460.75 1079.93 560.54 970.89 668.56 1106.74 682.97
00003198 DELETE   789.76 227.15 412.91 593.72 958.18 432.32 1131.13 452.79 1074.62 551.86 963.78 656.77 1100.60 673.43
00003199 00000031 784.36 217.79 417.00 595.15 951.49 421.87 1124.58 440.86 1069.14 541.63 960.38 646.88 1094.44 662.05
00003200 00000032 777.13 210.87 419.75 589.77 938.35 399.80 1116.44 426.23 1050.30 520.55 942.22 630.48 1075.48 651.27
00003201 00000033 775.04 200.39 417.20 592.06 931.40 392.83 1116.50 424.96 1045.70 509.98 931.08 623.03 1071.15 649.11
00003202 00000034 773.47 196.93 414.19 587.56 924.69 390.72 1115.08 424.59 1040.94 504.67 923.95 616.88 1071.72 644.51
00003203 00000035 772.14 197.14 411.53 586.51 921.94 391.01 1112.16 425.72 1037.64 503.87 920.28 615.76 1068.31 644.08
00003204 00000036 763.50 180.14 414.22 606.43 921.07 382.82 1106.65 421.67 1032.20 491.14 905.00 605.70 1061.41 638.62
00003205 00000037 759.42 173.91 414.12 605.46 915.05 380.68 1105.12 416.60 1030.87 486.97 905.41 602.04 1064.61 632.48
00003206 00000038 756.28 173.27 412.02 601.21 909.75 379.99 1101.34 416.49 1024.99 484.26 900.60 599.21 1060.05 630.09
00003207 00000039 753.36 173.64 411.91 599.63 906.09 380.37 1097.26 416.89 1019.31 484.90 898.12 599.33 1055.95 630.14
00003208 00000040 751.17 190.94 415.69 591.98 902.93 378.64 1089.37 414.35 1011.52 488.82 902.34 605.00 1037.25 633.91
00003209 00000041 751.07 197.44 414.26 587.01 900.40 381.31 1085.14 414.88 1004.47 492.91 898.05 608.50 1031.77 635.70
00003210 00000042 750.48 200.89 411.94 585.31 898.28 380.85 1082.97 414.91 1002.27 494.80 892.32 610.40 1027.57 638.38
00003211 00000043 747.03 204.91 413.99 584.22 895.30 380.59 1079.47 414.91 999.49 494.99 888.08 610.71 1026.43 638.97
00003212 00000044 746.16 210.30 413.44 580.53 894.80 384.76 1078.67 420.62 999.49 496.25 885.75 610.99 1028.44 640.29
00003213 00000045 745.82 212.65 415.01 577.76 895.48 386.13 1079.80 423.08 999.85 497.82 886.33 611.16 1029.28 641.20
00003214 00000046 746.95 213.59 413.54 575.76 896.59 387.61 1081.14 425.49 1000.81 497.26 886.88 610.49 1031.19 641.18
00003215 00000047 747.64 215.98 414.45 572.71 897.41 388.62 1082.74 426.69 1000.83 498.64 887.60 610.56 1031.83 641.21
00003216 00000048 751.96 212.32 410.38 573.59 900.19 392.15 1087.18 433.88 1005.12 500.55 889.12 611.62 1034.90 645.61
00003217 00000049 754.75 213.81 408.72 571.05 901.95 392.58 1090.92 436.44 1006.98 503.70 889.90 611.88 1037.73 647.53
00003218 00000050 755.92 212.77 408.23 578.54 903.42 394.12 1092.50 439.80 1007.65 506.19 889.01 614.86 1037.88 652.05
00003219 00000051 756.78 215.00 408.62 583.58 905.32 397.79 1092.15 443.42 1007.14 510.88 887.18 620.16 1033.52 657.52
00003220 00000052 757.88 216.79 409.73 585.55 907.09 398.86 1092.40 444.35 1004.83 514.13 886.68 621.37 1031.53 658.70
00003221 00000053 758.79 215.36 408.94 580.51 906.86 397.00 1093.56 443.95 1005.81 510.73 887.36 617.22 1034.57 655.65
00003222 00000054 759.14 218.13 407.42 572.14 905.54 394.36 1093.51 442.45 1004.81 506.22 886.31 613.07 1035.90 652.31
00003223 00000055 758.60 217.45 407.40 568.19 904.62 391.52 1091.84 438.52 1003.82 500.85 886.66 608.72 1034.52 647.06
00003224 00000056 755.10 217.09 411.58 563.62 902.64 383.99 1090.31 429.96 1002.55 492.83 885.44 599.97 1035.15 637.57
00003225 00000057 754.03 212.98 412.48 566.04 902.85 379.93 1090.17 427.04 1002.87 488.67 885.01 595.55 1035.08 634.39
00003226 00000058 752.42 209.62 413.32 566.72 903.47 376.73 1090.33 424.21 1004.38 486.32 885.81 592.75 1035.28 632.11
00003227 00000059 751.89 208.36 414.40 565.95 904.25 374.60 1090.14 423.29 1004.48 484.08 886.25 590.12 1034.86 630.57
00003228 00000060 750.31 209.15 414.75 565.98 904.38 374.10 1089.08 422.99 1004.26 484.53 885.52 589.59 1034.16 630.25
00003229 00000061 748.09 210.01 416.26 566.40 903.00 374.71 1087.30 422.91 1002.63 485.37 884.56 590.47 1032.82 630.40
00003230 00000062 745.92 209.17 417.72 569.41 901.39 374.26 1086.87 421.91 1002.49 486.33 883.14 592.30 1032.83 631.86
00003231 00000063 744.76 211.08 417.10 568.17 900.57 375.73 1084.89 422.41 1001.38 488.25 882.01 593.38 1031.31 632.19
00003232 00000064 741.61 211.15 418.56 569.25 898.65 375.73 1082.53 421.04 999.32 488.93 880.07 593.69 1028.86 631.37
00003233 00000065 741.22 208.08 420.10 572.91 898.64 374.05 1081.66 418.66 997.60 487.34 881.72 592.44 1025.94 629.41
00003234 00000066 739.04 207.75 423.56 578.68 897.30 370.56 1082.87 417.73 996.10 483.32 875.11 593.77 1021.78 632.87
00003235 00000067 740.36 207.02 419.66 581.95 896.75 368.38 1083.22 416.61 996.52 481.63 872.21 595.33 1021.93 635.36
00003236 00000068 739.04 204.39 420.50 584.66 894.95 369.45 1084.55 417.40 998.09 483.26 872.74 597.22 1023.21 637.09
00003237 00000069 737.79 204.26 422.00 580.79 894.23 371.31 1082.81 417.47 998.91 484.78 873.83 595.75 1024.69 634.25
00003238 00000070 736.15 201.50 421.52 581.05 894.11 372.90 1082.11 418.49 1001.23 485.36 875.22 596.10 1026.83 634.21
00003239 00000071 735.21 199.69 422.13 581.63 892.73 371.76 1082.27 416.59 1001.14 485.46 875.55 595.83 1028.06 633.29
00003240 00000072 735.34 192.62 417.12 580.37 891.43 375.95 1076.86 417.23 993.35 487.89 870.33 595.14 1024.53 630.29
00003241 00000073 734.67 191.32 417.44 580.57 891.00 374.16 1076.23 414.44 992.99 486.92 869.30 594.11 1023.93 628.47
00003242 00000074 734.01 188.58 416.34 582.64 890.73 372.86 1075.50 412.68 992.40 487.21 868.28 592.97 1023.08 626.99
00003243 00000075 733.97 187.95 416.43 583.60 890.99 371.80 1076.07 412.10 992.78 487.63 868.80 592.83 1024.16 627.18
00003244 00000076 734.47 182.68 417.31 590.66 892.49 371.79 1076.74 412.01 994.64 488.16 871.02 595.08 1023.97 629.34
00003245 00000077 735.08 181.93 417.92 592.69 893.09 372.17 1077.49 412.42 995.61 489.33 871.52 595.95 1024.89 630.21
00003246 00000078 734.99 183.25 424.44 595.96 895.98 362.90 1085.83 405.46 1003.68 489.80 882.69 594.27 1028.38 629.85
00003247 00000079 736.09 178.47 421.79 594.92 901.45 364.66 1081.96 407.46 999.77 490.37 878.97 593.53 1023.42 629.39
00003248 00000080 737.63 182.99 429.57 586.09 905.91 357.04 1093.09 401.08 1006.48 487.83 891.41 587.16 1027.33 623.74
00003249 00000081 737.71 183.21 430.32 580.82 907.69 354.60 1096.17 400.18 1009.91 483.68 893.88 582.33 1030.93 620.06
00003250 00000082 737.11 178.91 424.90 582.26 911.20 354.40 1089.79 395.00 1008.06 477.44 890.21 580.12 1030.58 613.35
00003251 00000083 737.10 174.31 426.43 581.25 910.91 350.24 1089.86 389.12 1008.10 469.54 892.38 574.60 1032.37 606.12
00003252 00000084 735.47 170.08 426.99 582.54 909.46 345.55 1086.79 382.97 1004.99 462.87 894.52 571.13 1029.09 601.38
00003253 00000085 734.76 170.05 426.70 583.63 907.49 344.23 1085.52 380.82 1004.73 460.57 893.37 571.42 1027.68 601.06
00003254 00000086 733.61 167.07 427.59 583.64 906.16 344.09 1086.70 382.25 1005.36 457.69 893.26 568.84 1030.10 599.76
00003255 00000087 731.59 162.59 427.06 584.82 901.33 343.12 1088.31 382.71 1008.20 454.17 891.57 565.95 1037.29 598.19
00003256 00000088 727.12 155.58 424.87 588.58 894.67 355.08 1077.24 395.15 1004.53 447.57 884.02 563.99 1035.01 597.08
00003257 DELETE   724.01 152.23 425.63 595.16 888.98 357.08 1068.48 393.41 997.17 447.13 878.67 565.65 1025.87 596.07
00003258 DELETE   724.03 148.14 421.01 604.19 880.33 351.19 1063.42 382.07 991.39 437.96 869.90 568.28 1022.42 595.02
00003259 DELETE   718.16 143.20 422.69 609.92 873.33 347.42 1058.27 378.97 981.77 436.59 861.52 566.73 1015.77 593.57
00003260 00000092 708.90 144.84 421.77 607.31 859.98 340.31 1046.45 370.88 968.58 437.55 851.78 568.86 1001.60 593.86
00003261 00000093 705.97 141.69 421.48 609.24 853.82 339.36 1042.94 370.49 960.99 436.56 844.61 569.27 995.19 594.58
00003262 00000094 703.94 141.98 423.32 611.10 853.63 337.11 1039.60 370.07 956.73 438.08 842.22 568.78 989.61 595.43
00003263 00000095 703.45 140.75 423.06 617.12 853.46 334.58 1040.69 370.34 954.86 437.73 838.29 570.37 987.45 599.20
00003264 00000096 698.74 143.15 427.18 624.74 851.72 332.60 1041.93 372.44 951.01 439.86 829.83 573.19 984.55 605.25
00003265 00000097 698.13 141.89 426.69 628.06 849.95 332.56 1041.49 374.42 949.07 439.74 825.11 573.70 984.17 607.52
00003266 00000098 695.70 142.93 428.60 620.69 848.23 335.63 1039.44 377.86 946.78 440.77 823.47 572.53 980.59 607.08
00003267 00000099 692.38 142.86 431.33 612.38 842.43 339.51 1034.73 379.17 943.51 440.25 824.28 568.75 978.91 601.10
00003268 00000100 690.59 146.46 432.85 606.33 838.88 343.23 1030.51 379.83 939.08 445.81 825.35 570.30 975.40 600.19
00003269 00000101 690.87 146.48 431.40 607.51 839.24 344.14 1031.32 382.21 939.84 451.59 824.10 572.13 975.19 603.31
00003270 00000102 692.58 144.55 430.35 608.83 839.01 345.79 1034.60 382.79 941.35 455.75 826.86 572.38 983.11 602.30
00003271 00000103 692.24 146.20 430.67 608.00 839.40 345.85 1035.25 383.36 941.32 458.62 825.88 574.10 982.13 604.63
00003272 00000104 688.44 150.36 434.60 613.66 840.94 347.52 1034.59 387.21 936.94 467.94 818.53 584.24 973.17 617.40
00003273 00000105 687.40 153.14 433.35 610.66 838.17 347.48 1029.96 388.56 929.58 470.98 812.95 584.59 964.63 619.12
00003274 00000106 684.01 154.52 432.51 606.93 833.29 348.06 1028.12 388.83 926.99 469.76 809.83 583.13 965.15 617.42
00003275 00000107 682.35 154.10 432.46 601.66 829.51 346.00 1024.74 386.90 922.47 468.14 807.10 578.20 961.93 612.40
00003276 00000108 677.67 155.39 432.28 597.54 823.65 346.24 1019.77 385.58 916.78 469.77 803.26 576.68 958.21 609.37
00003277 00000109 677.78 152.32 430.99 601.16 822.32 346.25 1019.14 384.81 916.75 470.30 802.29 577.12 957.96 609.09
00003278 00000110 677.26 152.26 430.89 602.44 822.40 346.05 1018.90 384.41 916.81 471.07 802.33 577.93 957.77 609.73
00003279 00000111 676.96 152.98 431.49 601.68 822.30 344.63 1018.82 382.86 916.40 470.62 802.59 577.84 956.31 609.62
00003280 00000112 677.01 153.40 433.14 599.68 823.97 342.77 1019.76 380.53 916.85 466.36 804.08 575.07 956.03 606.45
00003281 00000113 676.16 151.18 433.82 601.66 824.32 340.88 1019.26 378.57 916.71 465.05 804.03 573.43 955.10 604.77
00003282 00000114 675.60 150.87 433.62 602.37 824.32 340.29 1018.77 377.19 916.56 464.54 804.29 573.73 954.41 604.35
00003283 00000115 675.77 148.40 433.25 604.78 824.41 338.81 1017.92 376.16 916.66 464.51 803.87 572.53 953.17 603.51
00003284 00000116 675.70 144.92 431.62 606.81 822.21 337.82 1016.98 375.37 915.32 461.82 801.58 568.94 954.20 600.15
00003285 00000117 675.28 145.31 431.84 606.21 821.73 336.87 1015.80 374.33 914.66 460.98 800.74 566.31 954.90 597.36
00003286 00000118 675.76 145.08 430.26 604.32 820.57 336.18 1014.40 372.93 913.83 459.29 801.41 564.21 955.36 594.48
00003287 00000119 677.15 144.07 429.07 602.33 820.06 335.31 1014.02 371.76 912.99 457.44 801.98 562.16 955.80 592.08
00003288 00000120 678.97 135.59 427.16 598.67 820.68 328.55 1016.42 369.26 914.80 452.35 804.09 553.20 960.07 586.30
00003289 00000121 683.03 136.33 423.70 594.11 821.52 325.62 1018.73 366.79 916.48 448.78 806.52 550.62 964.02 583.85
00003290 00000122 683.59 136.32 423.25 592.23 821.49 323.55 1019.78 365.04 916.78 444.55 807.52 548.80 964.80 582.25
00003291 00000123 683.67 135.52 422.66 595.09 821.41 322.37 1021.22 363.61 917.70 443.93 807.85 550.15 965.74 583.38
00003292 00000124 682.03 132.38 424.56 602.77 820.01 322.95 1019.52 361.01 918.47 445.12 809.92 552.19 966.83 582.69
00003293 00000125 680.79 132.35 425.30 602.68 819.05 322.04 1019.62 360.95 917.54 444.49 806.82 551.15 967.62 582.39
00003294 00000126 680.32 131.98 424.68 604.26 818.57 322.43 1018.91 360.77 917.90 443.81 806.24 551.77 967.35 582.63
00003295 00000127 679.23 127.08 426.20 614.91 818.19 322.78 1018.83 361.07 916.85 442.52 803.16 553.71 966.58 584.73
00003296 00000128 678.24 131.73 425.03 602.30 818.55 321.27 1017.97 362.82 914.59 443.14 799.28 552.42 958.42 586.71
00003297 00000129 678.97 131.90 422.54 593.55 819.45 319.82 1018.10 361.56 915.79 440.50 800.62 549.85 957.96 584.30
00003298 00000130 680.39 129.21 421.59 593.97 820.55 318.87 1017.12 358.49 916.21 438.42 804.41 548.76 957.73 581.25
00003299 00000131 681.95 133.42 421.33 590.96 821.81 318.24 1017.33 357.29 916.59 437.49 806.36 548.81 956.62 580.76
00003300 00000132 684.90 132.15 421.64 602.44 826.87 320.20 1020.19 356.72 919.79 438.16 812.19 555.38 955.37 585.07
00003301 00000133 686.35 127.75 421.51 604.47 830.34 319.16 1021.66 356.46 921.79 437.38 815.57 552.16 956.53 582.44
00003302 00000134 685.33 125.76 423.08 598.58 829.71 315.75 1024.96 357.27 924.93 434.36 814.96 545.85 961.48 579.56
00003303 00000135 678.27 107.12 430.09 609.43 833.20 315.03 1023.21 357.62 926.97 435.13 811.65 539.33 964.76 575.64
00003304 00000136 679.53 104.80 428.83 606.29 831.25 312.95 1025.27 354.06 930.15 432.10 812.34 533.76 974.96 568.43
00003305 00000137 679.17 104.71 430.27 606.92 833.05 313.70 1026.41 354.52 932.48 432.75 814.69 532.98 977.63 567.27
00003306 00000138 680.68 102.39 429.42 611.33 833.61 315.08 1028.14 356.17 934.22 433.17 814.97 534.84 978.44 569.31
00003307 00000139 682.16 104.88 427.64 609.24 833.20 316.52 1029.43 356.35 934.84 433.84 815.78 539.47 977.14 573.30
00003308 00000140 692.10 120.69 419.23 609.59 838.76 315.25 1033.86 355.05 941.75 430.96 822.69 551.89 973.46 584.26
00003309 00000141 693.11 123.01 418.37 613.52 838.76 316.38 1033.91 351.01 945.18 426.37 826.39 555.54 980.75 583.54
00003310 00000142 691.98 119.64 416.43 623.02 834.98 315.61 1030.66 348.76 944.84 424.85 826.84 557.76 983.49 584.32
00003311 00000143 686.63 121.62 413.09 626.40 825.34 317.01 1019.62 346.91 936.12 423.56 819.56 558.40 978.50 582.00
00003312 00000144 666.60 142.74 413.35 603.64 795.53 320.84 988.13 342.82 897.86 430.34 789.75 560.99 947.65 579.25
00003313 00000145 655.27 142.93 413.52 598.16 782.59 326.21 973.66 347.91 879.47 423.76 775.72 560.51 929.37 578.38
00003314 00000146 645.57 140.24 414.13 593.26 767.20 329.09 958.76 348.12 860.08 427.74 761.83 556.12 916.75 571.51
00003315 00000147 641.31 142.04 409.73 584.83 755.78 333.01 948.32 350.29 846.33 430.40 754.62 555.55 909.81 569.06
00003316 00000148 635.83 142.34 407.67 580.24 749.19 335.03 941.24 353.20 839.87 433.44 750.20 556.85 903.87 571.02
00003317 00000149 638.12 148.88 407.46 576.87 750.01 336.84 940.75 350.99 841.10 434.54 755.57 560.52 904.55 571.21
00003318 00000150 642.76 150.58 407.34 580.60 753.59 342.32 943.28 350.75 845.32 444.24 764.27 568.09 909.30 574.08
00003319 00000151 648.09 157.49 410.05 579.76 763.62 350.77 949.04 358.13 858.01 454.69 779.39 574.22 920.53 579.00
00003320 DELETE   675.23 166.84 411.16 582.79 793.02 357.53 984.53 369.74 889.95 473.80 808.65 589.46 946.84 599.93
00003321 DELETE   687.24 168.25 413.75 586.80 817.36 358.56 1008.14 373.74 914.18 480.51 831.28 596.39 967.00 607.70
00003322 DELETE   709.43 186.49 412.63 565.67 842.72 367.82 1033.44 385.22 938.23 487.60 849.37 596.03 978.55 610.11
00003323 00000155 725.53 196.74 411.39 563.21 866.98 371.61 1048.46 394.83 958.90 488.03 863.11 596.01 995.58 614.86
00003324 00000156 740.82 199.85 424.15 583.35 898.49 369.82 1082.67 407.72 993.89 495.86 881.16 601.27 1014.43 633.21
00003325 00000157 745.90 202.00 422.68 587.17 905.68 369.12 1088.51 413.29 997.09 494.23 879.76 601.48 1014.61 638.47
00003326 00000158 746.48 198.76 421.34 591.58 909.48 367.77 1092.81 416.30 1001.51 494.56 879.25 601.37 1015.63 642.19
00003327 00000159 745.22 197.65 421.71 592.16 909.83 366.46 1092.63 416.57 1002.43 493.64 879.88 599.69 1016.35 641.82
00003328 00000160 740.96 187.18 424.39 599.76 906.30 360.67 1090.70 410.31 1002.17 489.11 880.28 595.41 1017.91 637.41
00003329 00000161 739.87 183.43 427.05 600.26 905.39 358.95 1092.58 408.07 1002.36 490.43 880.99 595.10 1018.81 636.65
00003330 00000162 740.70 179.69 428.03 600.86 907.41 361.49 1093.50 409.45 1005.08 493.34 885.80 594.83 1020.42 635.26
00003331 00000163 743.13 182.70 426.86 599.44 909.70 364.95 1095.04 413.14 1007.54 496.16 887.35 596.50 1023.40 637.11
00003332 00000164 743.72 172.58 436.15 619.27 921.73 377.31 1099.73 427.78 1018.16 505.92 889.49 605.26 1035.62 648.08
00003333 00000165 753.83 184.00 431.42 614.36 923.63 374.89 1110.87 426.08 1027.95 508.00 899.56 612.21 1044.75 654.72
00003334 00000166 757.85 188.87 432.25 609.03 928.68 377.95 1116.56 427.57 1033.35 509.55 904.55 613.99 1051.57 655.16
00003335 00000167 758.33 189.92 434.27 607.89 931.59 378.96 1117.68 426.52 1037.29 507.49 909.79 613.70 1054.04 653.25
