Video ID: 	CxdpN50XiVE
H: 	1080
W: 	1920
FPS: 	29.97002997002997

FRAME INDEX X0 Y0 W H [Landmarks (5 Points)]

00001333 00000000 999.61 216.62 461.14 663.44 1168.30 494.22 1369.97 517.42 1273.83 643.94 1154.56 726.25 1305.05 747.74
00001334 DELETE   998.24 212.02 464.20 674.00 1171.77 474.74 1365.72 509.21 1270.72 632.90 1152.04 713.23 1301.27 743.26
00001335 DELETE   997.66 212.69 464.12 673.86 1171.29 474.71 1364.99 509.50 1269.76 633.73 1150.39 712.42 1300.30 742.72
00001336 DELETE   998.02 205.32 463.20 674.81 1174.19 464.37 1368.58 504.80 1273.10 625.67 1148.76 703.12 1300.57 737.80
00001337 00000004 999.79 206.99 466.21 669.85 1179.92 455.85 1373.42 497.96 1277.30 619.74 1152.58 698.85 1300.03 734.93
00001338 DELETE   1002.61 197.35 470.05 675.19 1185.19 452.39 1378.30 496.43 1280.60 615.45 1159.22 694.51 1302.11 731.80
00001339 00000006 1005.93 197.79 476.92 670.29 1183.57 455.08 1390.16 488.20 1287.48 606.57 1163.07 698.63 1313.91 728.14
00001340 00000007 1005.88 197.92 477.10 670.23 1184.11 454.92 1390.16 488.30 1287.79 606.86 1163.37 698.54 1313.87 728.25
00001341 00000008 1009.29 200.07 474.46 663.28 1186.81 452.04 1393.13 485.73 1291.68 605.37 1168.70 696.04 1318.45 726.11
00001342 00000009 1007.47 200.13 472.71 659.68 1187.48 453.77 1392.63 483.33 1294.79 605.01 1172.82 695.94 1321.28 722.45
00001343 00000010 1009.85 202.12 465.68 651.85 1185.02 454.22 1393.38 478.68 1295.93 603.26 1175.68 697.20 1323.94 719.71
00001344 00000011 1007.99 198.43 467.98 661.29 1184.23 449.73 1391.54 473.34 1295.14 602.99 1175.86 697.86 1324.15 719.57
00001345 00000012 1007.99 197.17 468.44 662.60 1184.74 449.93 1391.44 473.72 1295.09 603.10 1175.81 697.86 1324.03 719.71
00001346 00000013 1005.74 198.19 470.45 663.96 1186.41 453.10 1389.54 473.90 1297.20 605.81 1178.93 699.26 1325.62 718.49
00001347 00000014 1003.85 195.84 475.55 666.16 1185.47 450.95 1390.42 470.80 1299.06 607.10 1181.07 698.34 1331.45 716.68
00001348 00000015 1005.42 197.00 471.29 665.61 1185.15 446.95 1390.06 466.66 1301.25 605.06 1182.80 698.07 1333.99 716.24
00001349 00000016 1004.97 194.04 469.52 670.66 1185.51 441.09 1390.94 463.87 1302.90 601.98 1182.41 695.84 1333.89 716.46
00001350 00000017 1006.11 190.87 468.63 673.99 1185.54 440.41 1391.50 463.70 1303.24 601.92 1180.66 695.98 1333.46 717.03
00001351 00000018 1004.27 191.84 470.22 675.17 1186.72 436.53 1389.91 461.36 1302.16 599.13 1180.52 693.14 1330.67 715.34
00001352 00000019 1003.36 191.30 472.45 671.18 1187.19 436.20 1391.39 462.47 1302.39 598.80 1179.43 690.78 1330.38 714.19
00001353 00000020 1003.82 191.99 472.27 670.12 1186.78 434.98 1392.71 461.63 1302.98 599.25 1180.13 691.80 1331.60 715.63
00001354 00000021 1003.13 190.80 472.95 673.08 1186.95 432.98 1391.57 459.65 1302.58 596.44 1179.35 689.22 1330.06 712.95
00001355 00000022 1004.09 192.13 471.89 672.13 1186.87 433.07 1390.96 459.55 1301.96 597.09 1179.76 690.23 1329.98 713.84
00001356 00000023 1002.09 192.51 466.80 668.74 1192.70 422.75 1387.92 455.14 1302.01 596.89 1185.66 686.50 1323.44 712.85
00001357 00000024 1001.18 191.52 466.99 669.59 1191.75 421.53 1386.94 453.28 1301.88 594.31 1184.48 684.78 1322.71 710.52
00001358 00000025 1002.82 190.34 468.20 670.29 1194.03 419.68 1389.95 451.49 1305.62 593.21 1187.42 684.66 1326.17 710.42
00001359 00000026 1003.23 190.86 469.47 669.69 1199.74 419.71 1393.04 452.03 1310.91 591.43 1192.43 683.03 1329.38 709.06
00001360 00000027 1002.72 190.62 469.87 668.92 1199.51 419.70 1393.23 451.67 1311.14 590.90 1192.94 682.93 1330.01 708.60
00001361 00000028 1003.44 189.45 472.55 671.63 1204.47 420.05 1396.09 451.45 1315.76 592.41 1196.23 683.45 1333.50 708.57
00001362 00000029 1005.17 188.87 470.61 669.95 1206.25 421.64 1399.04 452.13 1318.65 592.12 1201.03 685.61 1337.77 709.81
00001363 00000030 1006.82 189.45 469.70 669.89 1206.01 422.73 1399.80 450.64 1319.88 593.77 1204.53 687.25 1342.27 709.11
00001364 00000031 1004.47 191.89 469.31 669.09 1203.56 424.03 1397.91 451.77 1317.62 596.73 1203.33 689.92 1340.83 711.57
00001365 00000032 1004.76 191.81 468.84 668.98 1203.51 424.13 1397.91 451.81 1317.58 596.76 1203.36 689.90 1340.87 711.49
00001366 00000033 1003.86 192.05 468.67 673.26 1202.30 426.26 1396.25 454.18 1316.87 600.88 1201.45 694.23 1337.37 716.23
00001367 00000034 1002.14 191.49 468.81 674.44 1202.79 428.65 1395.44 457.21 1318.03 604.70 1200.80 696.07 1336.69 718.61
00001368 00000035 1003.73 193.60 467.89 669.42 1205.62 434.01 1396.79 458.98 1321.87 609.95 1205.52 699.21 1339.72 718.73
00001369 00000036 1002.12 193.75 469.76 678.62 1207.92 437.01 1396.16 461.34 1324.19 613.13 1204.98 701.94 1341.77 721.12
00001370 00000037 1001.67 196.25 470.31 676.00 1207.10 436.66 1396.40 460.54 1324.00 613.96 1204.42 702.52 1342.03 721.32
00001371 00000038 1000.83 194.12 472.04 680.83 1208.35 435.99 1395.44 462.27 1323.05 614.55 1203.06 702.22 1338.80 723.08
00001372 00000039 1001.36 198.32 470.67 675.71 1206.81 436.63 1394.13 462.64 1320.72 614.50 1200.81 701.53 1337.85 722.28
00001373 00000040 1000.31 199.35 469.50 672.21 1204.83 438.59 1393.62 461.84 1320.60 615.90 1202.07 703.61 1337.78 722.05
00001374 00000041 1000.48 199.76 468.27 670.51 1202.57 438.04 1393.23 460.32 1319.57 616.41 1202.38 705.17 1338.22 722.79
00001375 00000042 999.41 199.74 469.45 669.15 1202.76 438.24 1393.03 460.98 1319.35 616.04 1202.24 704.36 1337.48 722.36
00001376 00000043 999.27 199.24 467.98 665.78 1200.05 439.34 1392.68 460.74 1317.02 616.01 1201.05 705.04 1336.60 721.92
00001377 00000044 998.89 199.57 466.16 666.63 1197.47 439.34 1390.69 461.01 1314.91 615.10 1198.40 704.97 1334.90 722.20
00001378 00000045 1001.17 200.07 463.61 666.64 1196.46 438.22 1389.62 460.89 1312.92 614.07 1196.98 704.36 1334.04 722.50
00001379 00000046 1001.65 200.11 462.26 665.95 1196.39 438.13 1388.37 459.97 1312.64 613.83 1197.91 702.50 1335.57 719.91
00001380 00000047 1001.82 199.46 461.78 666.82 1196.47 438.00 1388.46 459.64 1312.66 614.22 1197.96 702.84 1335.94 720.03
00001381 00000048 1000.21 196.40 464.36 669.46 1197.95 438.05 1390.20 460.30 1314.79 615.07 1199.22 703.45 1334.36 721.11
00001382 00000049 999.79 199.63 464.40 665.61 1198.48 438.65 1390.79 459.44 1315.85 615.44 1199.46 704.20 1334.77 720.71
00001383 00000050 999.66 198.28 463.77 668.47 1198.07 437.50 1390.06 458.91 1315.50 615.06 1199.54 704.76 1333.09 721.86
00001384 00000051 999.40 198.20 463.87 670.01 1198.45 436.53 1390.61 457.65 1316.12 614.30 1199.80 705.15 1333.37 721.97
00001385 00000052 999.44 198.67 463.82 669.34 1198.65 436.45 1390.59 457.58 1316.00 614.77 1199.94 705.31 1333.29 722.17
00001386 00000053 998.93 196.41 464.86 674.64 1198.89 435.02 1390.77 458.02 1315.68 613.45 1197.60 703.86 1331.94 722.30
00001387 00000054 1003.43 206.73 461.37 669.35 1190.91 433.88 1393.41 459.35 1310.92 610.43 1196.11 701.90 1329.03 721.97
00001388 00000055 999.00 196.86 466.12 676.85 1198.40 434.24 1390.41 458.13 1314.77 612.09 1194.65 703.82 1331.41 723.05
00001389 00000056 1000.67 196.07 468.04 678.15 1201.41 436.77 1392.12 461.25 1317.10 613.92 1196.56 703.59 1333.97 723.21
00001390 00000057 1000.67 198.79 467.72 675.62 1201.06 436.97 1391.71 461.27 1316.81 614.97 1196.28 703.95 1333.39 723.55
00001391 00000058 1001.18 204.97 469.81 670.29 1203.49 440.13 1393.73 462.59 1318.81 618.15 1198.69 706.87 1336.51 725.11
00001392 00000059 1004.45 203.23 471.63 673.43 1206.25 441.36 1395.83 463.80 1322.39 616.81 1202.37 706.74 1340.32 724.77
00001393 00000060 1009.15 202.68 469.94 673.08 1208.86 440.51 1400.02 462.58 1325.77 616.40 1206.65 707.49 1344.84 724.99
00001394 00000061 1013.31 202.44 467.99 668.46 1210.14 440.92 1403.36 462.00 1327.70 614.40 1209.63 708.03 1348.37 724.74
00001395 00000062 1011.52 201.68 469.77 669.48 1209.40 441.08 1403.13 461.59 1327.84 613.76 1209.82 708.14 1348.85 724.32
00001396 00000063 1015.11 202.90 469.46 671.23 1212.16 442.34 1406.16 463.69 1329.73 614.09 1210.96 709.60 1351.53 726.43
00001397 00000064 1016.66 204.23 468.68 668.54 1214.24 443.40 1407.89 464.22 1331.97 613.93 1214.75 710.58 1355.06 726.89
00001398 00000065 1020.16 201.73 467.84 669.58 1216.31 444.16 1410.58 464.26 1334.58 614.65 1216.96 710.90 1358.32 726.67
00001399 00000066 1020.57 201.43 467.96 672.73 1217.76 445.86 1410.69 467.81 1334.31 615.84 1216.73 711.27 1358.27 728.55
00001400 00000067 1020.25 201.73 468.31 672.06 1217.82 446.13 1410.69 467.92 1334.57 615.58 1216.79 711.27 1358.18 728.41
00001401 00000068 1018.82 201.30 469.47 675.29 1217.65 446.41 1410.46 468.94 1334.19 616.92 1215.50 712.77 1356.67 730.49
00001402 00000069 1018.52 202.55 469.70 674.13 1217.55 447.64 1410.10 469.99 1334.04 618.41 1214.51 713.16 1355.75 730.85
00001403 00000070 1018.60 202.13 469.19 673.76 1216.81 447.55 1410.76 469.30 1334.27 618.09 1214.28 713.39 1356.59 730.57
00001404 00000071 1017.37 201.34 470.10 674.32 1216.38 447.42 1409.92 469.66 1332.87 618.87 1213.17 712.78 1354.84 730.38
00001405 00000072 1017.17 201.62 470.15 674.23 1216.10 447.47 1409.72 469.48 1332.79 619.02 1213.07 713.04 1354.76 730.47
00001406 00000073 1015.87 207.66 470.85 670.40 1214.56 449.15 1408.09 470.54 1330.82 621.29 1210.94 714.14 1353.13 731.12
00001407 00000074 1015.41 209.65 470.70 668.94 1211.97 450.38 1406.32 472.86 1326.88 622.83 1207.17 714.89 1350.02 732.98
00001408 00000075 1014.44 208.88 469.38 668.23 1210.89 452.83 1404.29 475.85 1325.73 624.23 1207.27 715.58 1349.26 734.10
00001409 00000076 1016.01 211.57 466.68 665.27 1209.72 453.50 1404.18 476.83 1324.32 627.32 1204.96 716.65 1347.72 735.56
00001410 00000077 1015.48 212.28 466.90 664.13 1208.89 453.34 1404.38 476.37 1324.28 627.20 1205.06 716.92 1347.56 735.62
00001411 00000078 1012.03 210.28 469.59 666.63 1207.61 453.23 1402.73 476.48 1323.31 627.65 1203.69 716.43 1346.42 735.26
00001412 00000079 1011.63 212.53 468.59 664.92 1206.43 454.08 1401.70 477.83 1321.81 628.02 1202.01 716.60 1344.26 735.98
00001413 00000080 1012.12 218.30 466.71 658.16 1204.38 455.14 1400.99 479.05 1320.22 629.00 1201.22 716.89 1344.47 736.65
00001414 00000081 1010.26 218.66 467.44 659.56 1203.82 456.51 1399.89 480.16 1319.95 630.08 1200.42 717.28 1344.18 736.72
00001415 00000082 1010.77 217.19 466.90 661.33 1203.04 455.97 1399.94 480.01 1319.55 630.42 1200.01 717.59 1344.28 737.37
00001416 00000083 1010.52 221.03 465.71 656.98 1202.17 457.82 1398.15 480.70 1318.97 630.96 1200.13 718.73 1344.04 737.81
00001417 00000084 1011.55 219.19 465.37 659.67 1203.20 456.63 1399.11 480.70 1319.30 630.51 1199.32 718.40 1343.04 738.38
00001418 00000085 1010.61 220.90 465.47 657.30 1203.16 457.50 1398.94 480.99 1318.83 631.71 1200.21 719.00 1343.22 738.64
00001419 00000086 1009.61 221.92 466.11 656.41 1201.76 458.08 1398.33 480.95 1318.48 631.12 1199.53 719.09 1343.32 738.26
00001420 00000087 1009.83 221.75 465.95 656.65 1202.11 457.95 1398.27 481.12 1318.39 631.09 1199.76 719.01 1343.12 738.38
00001421 00000088 1010.29 216.34 466.97 666.02 1203.10 457.41 1396.90 482.37 1318.01 631.38 1198.98 718.70 1341.54 739.29
00001422 00000089 1009.47 219.96 466.12 661.77 1200.95 459.18 1396.49 483.15 1317.32 631.96 1197.65 720.24 1340.62 740.29
00001423 00000090 1008.89 220.14 466.89 661.73 1201.58 459.10 1396.42 483.95 1316.40 631.65 1197.30 719.49 1340.13 740.27
00001424 00000091 1008.95 217.28 466.78 664.66 1200.67 459.34 1395.94 484.90 1315.27 632.29 1195.80 720.20 1338.40 741.57
00001425 00000092 1008.89 219.07 466.02 661.78 1200.39 459.73 1395.99 484.73 1315.24 632.61 1196.24 720.49 1338.65 741.48
00001426 00000093 1007.71 222.34 465.04 657.93 1197.07 460.20 1394.04 484.93 1312.28 633.16 1193.61 720.03 1337.12 740.90
00001427 00000094 1005.87 224.21 466.20 655.92 1195.66 459.45 1392.10 484.71 1309.96 632.61 1191.53 719.22 1334.93 740.52
00001428 00000095 1004.33 223.47 465.57 655.82 1193.91 459.68 1390.97 484.83 1308.44 631.92 1189.86 718.51 1333.78 739.67
00001429 00000096 1001.41 220.00 466.99 657.57 1192.79 459.39 1390.05 485.30 1306.50 631.60 1189.45 717.46 1332.39 738.99
00001430 00000097 1002.86 219.26 465.70 658.35 1193.17 459.53 1390.11 484.86 1307.02 631.78 1190.49 718.04 1333.15 739.09
00001431 00000098 1002.36 219.57 463.39 659.59 1191.88 458.98 1389.31 484.40 1306.19 631.49 1188.27 717.98 1332.44 739.17
00001432 00000099 1002.56 214.71 462.61 664.16 1191.20 459.16 1389.24 483.07 1306.86 630.33 1189.12 718.65 1333.29 738.43
00001433 00000100 1001.75 217.49 463.53 659.82 1189.95 457.96 1388.93 480.43 1305.37 629.95 1189.42 717.97 1333.89 736.59
00001434 00000101 1001.33 215.53 462.41 660.99 1189.00 455.40 1388.14 478.01 1304.27 627.39 1189.05 716.49 1333.69 735.11
00001435 00000102 1001.17 214.85 462.52 662.13 1189.51 455.43 1388.36 478.67 1304.54 626.96 1188.43 716.01 1333.13 735.14
00001436 00000103 1000.12 213.52 463.53 664.30 1188.95 453.87 1387.15 477.94 1303.26 626.46 1186.38 714.32 1331.12 734.13
00001437 00000104 1000.12 212.40 463.50 665.59 1187.65 453.65 1386.59 477.54 1302.70 624.90 1186.96 714.79 1331.14 734.37
00001438 00000105 999.55 212.11 464.14 664.14 1187.29 453.12 1385.99 476.02 1303.09 624.97 1188.35 714.33 1332.09 733.11
00001439 00000106 999.64 209.19 463.61 667.48 1186.58 451.95 1385.64 474.83 1303.17 622.71 1187.07 714.29 1331.61 732.94
00001440 00000107 998.39 211.21 464.14 664.99 1185.29 451.85 1385.64 475.01 1301.64 620.05 1184.46 713.28 1330.13 732.27
00001441 00000108 998.50 208.06 464.51 666.86 1185.95 450.48 1386.22 474.18 1302.48 620.36 1185.72 712.93 1329.91 732.18
00001442 00000109 998.17 208.18 465.40 664.72 1185.57 448.81 1385.19 471.24 1301.99 617.26 1186.52 711.39 1329.39 729.61
00001443 00000110 996.71 207.26 467.63 664.91 1184.89 447.66 1385.75 470.05 1301.70 617.53 1186.07 710.08 1330.17 728.15
00001444 00000111 996.74 207.59 467.65 665.03 1184.77 447.44 1385.49 470.54 1301.13 617.51 1185.24 709.73 1329.55 728.44
00001445 00000112 996.18 208.72 468.39 664.37 1184.90 447.42 1385.42 470.81 1301.16 617.39 1185.01 709.30 1329.69 728.25
00001446 00000113 997.53 205.95 465.94 666.55 1184.79 448.96 1384.71 472.46 1300.48 617.50 1185.72 710.49 1328.90 729.47
00001447 00000114 996.75 209.09 465.49 663.38 1183.67 449.75 1384.58 473.20 1299.82 618.64 1183.94 711.62 1328.51 730.67
00001448 00000115 997.15 209.15 464.84 662.81 1183.09 450.16 1384.14 473.23 1299.21 619.01 1183.45 711.76 1328.07 730.53
00001449 00000116 996.93 209.13 465.51 664.43 1183.96 450.41 1384.00 474.04 1299.32 619.23 1183.84 711.60 1327.74 730.83
00001450 00000117 997.14 208.66 465.83 664.43 1183.55 450.33 1384.73 474.05 1299.44 618.90 1183.76 712.06 1328.73 731.33
00001451 00000118 997.40 207.71 464.95 666.02 1184.17 450.70 1384.39 474.41 1300.02 618.75 1185.26 712.28 1329.46 731.46
00001452 00000119 998.08 211.36 464.18 662.11 1184.01 451.39 1384.59 473.82 1300.74 620.21 1186.77 713.31 1331.02 731.46
00001453 00000120 998.26 211.31 463.23 663.25 1184.89 452.71 1383.99 474.10 1301.78 620.57 1187.28 713.30 1331.76 730.69
00001454 00000121 999.32 213.09 461.02 662.33 1185.35 454.74 1383.79 476.35 1302.36 622.38 1187.45 714.33 1332.49 732.06
00001455 00000122 999.11 212.84 461.50 662.82 1184.86 454.26 1383.86 475.55 1302.26 621.62 1187.50 714.54 1332.42 732.03
00001456 00000123 999.38 214.81 460.80 661.33 1185.81 455.83 1383.50 476.58 1301.99 623.13 1187.87 714.73 1333.01 731.83
00001457 00000124 999.70 214.54 460.18 661.50 1185.48 456.31 1383.70 476.73 1302.33 623.80 1187.96 714.79 1333.51 731.60
00001458 00000125 999.52 214.07 460.89 663.13 1185.50 456.23 1383.67 476.86 1302.44 623.88 1187.86 715.18 1333.56 732.13
00001459 00000126 999.78 213.89 460.98 662.82 1185.96 456.53 1383.57 477.27 1302.24 624.73 1187.71 715.21 1333.07 732.35
00001460 00000127 999.25 212.38 461.31 664.35 1185.81 456.56 1384.12 477.80 1302.32 624.88 1187.48 715.17 1333.09 732.63
00001461 00000128 1000.00 212.96 460.67 663.19 1185.39 457.40 1383.92 478.54 1302.01 625.71 1187.28 715.94 1332.57 733.34
00001462 00000129 1000.52 213.08 459.35 662.65 1185.91 456.73 1382.70 478.01 1301.47 624.94 1187.31 714.98 1331.78 732.53
00001463 00000130 998.53 214.52 461.62 660.94 1184.86 455.88 1382.33 477.37 1300.47 624.04 1186.68 714.24 1330.87 731.88
00001464 00000131 998.40 211.40 458.95 662.78 1184.20 455.37 1381.32 475.98 1300.71 621.77 1186.78 713.44 1330.96 730.21
00001465 00000132 998.39 211.33 458.79 663.14 1184.01 455.25 1381.25 476.26 1301.01 622.16 1186.66 713.00 1331.39 730.06
00001466 00000133 998.38 213.35 458.76 660.84 1185.97 456.42 1381.61 476.77 1302.43 624.72 1188.47 713.82 1332.55 730.39
00001467 00000134 1001.07 215.51 457.74 658.68 1186.77 457.93 1383.45 474.95 1304.83 625.76 1192.82 715.96 1338.03 729.77
00001468 00000135 1000.77 216.32 456.40 659.21 1187.61 460.56 1381.84 477.01 1305.10 627.92 1194.38 716.75 1338.57 730.26
00001469 00000136 998.01 219.50 454.55 657.76 1182.08 460.98 1377.54 478.54 1298.18 626.90 1186.32 715.58 1330.31 730.24
00001470 00000137 998.30 221.21 454.32 655.58 1182.23 460.98 1377.47 478.07 1298.03 627.28 1186.77 715.81 1330.37 730.12
00001471 00000138 993.27 224.86 459.30 651.88 1172.15 459.94 1372.07 478.57 1286.98 624.35 1175.47 713.74 1322.00 729.55
00001472 00000139 992.46 221.03 459.99 654.54 1169.68 458.51 1370.21 477.10 1284.17 623.12 1175.61 713.05 1321.19 728.63
00001473 00000140 993.94 219.89 458.07 656.34 1176.00 459.13 1374.88 476.11 1292.98 623.93 1181.40 714.12 1326.19 728.27
00001474 00000141 996.25 219.29 455.03 655.41 1177.57 460.57 1374.99 475.71 1294.88 625.63 1185.36 715.72 1328.51 728.28
00001475 00000142 995.92 221.89 455.09 652.43 1176.94 460.74 1374.91 475.21 1294.99 624.56 1185.79 715.69 1329.07 727.76
00001476 00000143 991.67 210.89 460.70 668.75 1172.13 462.39 1370.30 481.69 1286.79 626.73 1174.74 715.61 1321.73 731.96
00001477 00000144 989.72 209.26 459.82 666.72 1158.89 464.37 1360.81 483.03 1271.44 623.45 1161.18 715.24 1310.21 731.55
00001478 00000145 985.04 203.62 462.53 670.41 1144.85 462.37 1350.77 480.39 1257.41 621.00 1149.41 715.69 1300.67 731.53
00001479 00000146 983.79 202.15 464.64 671.84 1136.49 456.61 1339.90 469.09 1247.30 616.98 1147.79 719.19 1296.35 727.92
00001480 00000147 984.21 205.48 463.90 667.30 1135.78 455.85 1339.99 467.59 1247.40 617.03 1148.30 719.90 1296.89 727.92
00001481 00000148 983.22 197.45 465.48 677.98 1131.82 453.94 1337.02 467.01 1242.05 615.93 1141.80 717.57 1292.62 726.77
00001482 00000149 983.66 200.70 463.14 676.04 1129.80 452.54 1336.54 467.94 1238.01 617.08 1138.55 717.41 1290.26 728.61
00001483 00000150 983.38 203.68 461.28 673.81 1129.34 453.71 1335.57 470.80 1236.12 619.17 1136.19 717.71 1287.88 730.38
00001484 00000151 981.78 206.95 466.83 670.31 1129.45 455.08 1339.58 478.66 1236.38 622.40 1131.70 709.99 1285.46 730.81
00001485 00000152 981.86 207.16 466.63 669.79 1129.35 455.20 1339.60 478.67 1236.41 622.37 1131.74 710.02 1285.51 730.75
00001486 00000153 982.35 204.91 467.73 672.55 1130.68 455.34 1341.78 479.78 1237.57 621.85 1132.06 709.67 1287.20 731.13
00001487 00000154 984.65 204.11 466.55 673.65 1129.65 454.57 1342.08 478.97 1236.78 622.10 1131.20 710.32 1287.21 731.80
00001488 00000155 985.53 203.99 466.24 672.76 1129.41 454.62 1341.95 479.63 1236.36 621.70 1131.24 709.53 1287.02 731.61
00001489 00000156 985.65 203.58 466.13 672.54 1128.95 454.35 1342.18 479.87 1235.76 621.70 1130.15 709.35 1287.14 731.77
00001490 00000157 985.92 203.46 465.76 673.19 1128.90 454.30 1342.07 479.90 1235.72 621.93 1130.07 709.47 1286.93 731.97
00001491 00000158 985.70 206.95 466.36 670.81 1129.21 454.44 1341.06 480.43 1234.86 620.82 1129.33 709.80 1284.88 732.69
00001492 00000159 985.77 207.50 465.73 670.96 1127.85 455.40 1339.93 481.34 1233.75 621.52 1128.89 711.21 1284.53 734.01
00001493 00000160 985.08 210.62 465.95 670.06 1128.17 454.93 1340.10 482.99 1233.62 621.40 1126.07 710.55 1282.97 735.15
00001494 00000161 985.11 211.27 465.50 670.41 1128.49 456.17 1340.30 483.59 1233.57 622.10 1126.97 711.65 1282.41 735.73
00001495 00000162 985.73 213.40 465.02 667.20 1126.92 457.04 1339.89 483.81 1232.71 622.47 1126.54 712.36 1282.40 735.95
