Video ID: 	ywzPpfIgaBs
H: 	1080
W: 	1920
FPS: 	29.97002997002997

FRAME INDEX X0 Y0 W H [Landmarks (5 Points)]

00010789 00000000 956.17 117.15 376.15 570.79 1039.88 354.49 1200.31 362.33 1101.16 472.57 1063.48 558.91 1178.72 567.68
00010790 00000001 959.09 115.25 376.42 571.83 1043.00 353.67 1204.24 362.34 1104.50 473.94 1067.35 558.50 1183.88 567.45
00010791 00000002 960.40 114.84 379.14 572.05 1045.64 353.67 1208.39 361.50 1107.68 475.77 1071.07 558.09 1189.44 566.23
00010792 00000003 970.47 99.20 375.24 592.87 1049.89 346.24 1216.27 360.89 1119.05 471.54 1071.55 557.07 1187.95 570.91
00010793 00000004 970.85 104.94 380.58 588.82 1057.52 347.99 1225.59 363.03 1129.69 470.15 1076.22 558.04 1192.03 572.48
00010794 00000005 975.76 108.13 376.19 593.12 1065.88 350.38 1229.90 368.23 1136.82 470.64 1083.08 559.42 1198.23 576.44
00010795 00000006 978.78 109.98 383.70 594.25 1074.69 351.35 1237.70 369.27 1145.94 471.66 1090.86 560.41 1207.90 577.73
00010796 00000007 986.18 112.86 381.42 598.57 1082.92 352.82 1243.79 371.53 1152.21 475.37 1096.98 564.45 1216.17 582.28
00010797 00000008 988.99 108.56 383.86 604.75 1087.39 353.24 1251.53 371.48 1158.13 479.98 1101.80 567.44 1224.80 584.56
00010798 00000009 996.88 109.28 381.16 605.56 1093.69 354.60 1260.63 373.94 1163.82 482.50 1104.95 567.91 1230.14 586.32
00010799 00000010 1002.17 108.12 378.32 606.47 1097.88 357.10 1265.30 374.61 1171.47 483.36 1110.09 569.55 1236.15 586.15
00010800 00000011 1007.51 106.26 378.83 605.99 1102.54 358.90 1268.33 374.65 1176.10 485.57 1118.42 570.34 1243.72 585.10
00010801 00000012 1009.62 99.34 382.91 613.40 1110.05 358.94 1275.07 375.49 1184.63 485.76 1124.04 570.01 1250.36 585.03
00010802 00000013 1013.70 101.22 381.31 612.33 1114.46 358.26 1279.33 374.91 1187.83 485.75 1127.23 569.96 1255.46 584.94
00010803 00000014 1013.81 103.75 383.86 608.87 1116.88 358.34 1282.17 374.23 1190.16 486.30 1129.84 570.70 1257.39 585.03
00010804 DELETE   1013.61 101.16 383.48 613.82 1116.14 362.94 1282.77 377.97 1194.16 486.06 1129.94 571.00 1260.28 584.51
00010805 00000016 1013.97 99.02 384.00 616.57 1118.57 363.00 1284.58 378.16 1196.48 484.79 1132.02 570.85 1262.88 584.31
00010806 DELETE   1014.98 97.80 381.88 618.82 1119.15 359.82 1284.70 375.52 1196.74 483.94 1131.62 569.44 1262.64 583.25
00010807 00000018 1014.79 99.46 382.27 616.96 1119.32 358.63 1285.02 374.28 1195.35 484.07 1131.59 569.47 1261.73 583.36
00010808 00000019 1015.55 98.74 381.29 616.52 1119.55 355.78 1284.80 371.61 1194.11 482.57 1131.45 568.67 1260.46 582.75
00010809 00000020 1014.57 98.30 381.37 618.03 1119.81 354.30 1284.62 370.51 1193.75 481.14 1130.14 567.84 1260.15 582.15
00010810 00000021 1015.18 98.37 378.69 619.10 1118.90 352.76 1284.22 369.02 1193.24 480.14 1128.97 567.52 1260.23 581.88
00010811 00000022 1014.39 97.79 379.55 621.26 1117.80 352.03 1283.23 368.55 1191.56 479.92 1126.70 566.92 1259.13 581.53
00010812 00000023 1014.90 97.12 378.34 622.02 1117.44 351.77 1282.41 367.83 1190.41 480.42 1126.18 567.05 1258.08 581.35
00010813 00000024 1013.81 99.77 378.90 620.56 1117.18 352.07 1282.32 368.17 1191.08 480.55 1125.56 567.42 1257.94 581.76
00010814 00000025 1012.94 100.30 379.96 619.10 1116.21 353.08 1282.11 368.61 1191.44 481.51 1125.42 567.63 1258.45 581.52
00010815 00000026 1012.63 98.64 381.30 617.24 1114.81 353.74 1282.41 369.38 1190.43 481.78 1125.52 566.10 1259.62 579.95
00010816 00000027 1011.90 98.09 381.43 616.74 1114.59 353.86 1281.31 369.60 1189.87 482.59 1125.77 565.19 1258.87 579.09
00010817 00000028 1011.84 97.45 381.92 617.50 1112.99 354.22 1281.82 369.89 1189.38 483.44 1125.66 565.83 1260.63 579.50
00010818 00000029 1011.43 97.87 382.52 616.89 1112.33 354.33 1281.10 370.01 1188.83 482.84 1125.51 566.06 1259.64 579.84
00010819 00000030 1010.30 97.31 383.14 618.41 1112.71 354.43 1281.15 370.19 1189.86 482.95 1125.59 566.64 1259.46 580.49
00010820 00000031 1009.51 101.02 384.10 616.78 1113.47 354.95 1281.64 371.52 1190.38 483.65 1124.90 567.92 1257.47 582.74
00010821 00000032 1009.94 100.49 384.62 617.89 1113.93 356.05 1281.54 372.53 1190.61 485.34 1125.80 569.10 1258.41 583.76
00010822 00000033 1009.44 99.58 384.52 621.44 1114.05 356.73 1281.52 373.35 1190.84 485.52 1124.65 569.86 1257.57 584.70
00010823 00000034 1008.80 98.13 384.84 621.94 1112.80 356.52 1281.01 373.09 1189.96 485.19 1124.38 570.05 1257.26 584.80
00010824 00000035 1008.82 98.12 384.36 622.91 1112.73 356.60 1281.06 373.29 1190.25 484.94 1123.55 569.86 1257.76 584.65
00010825 00000036 1008.13 96.00 384.93 626.67 1112.69 357.11 1281.41 373.76 1190.05 485.06 1123.40 569.85 1258.39 584.56
00010826 00000037 1006.40 98.33 386.30 623.12 1112.77 356.64 1280.22 373.86 1189.89 485.02 1122.55 567.45 1257.02 582.72
00010827 00000038 1006.44 99.32 386.28 620.58 1111.74 356.24 1279.52 373.74 1188.06 485.09 1121.00 566.60 1255.82 582.20
00010828 00000039 1006.90 99.75 384.92 617.80 1110.28 357.07 1277.63 375.08 1185.70 485.13 1120.12 566.55 1253.42 582.75
00010829 00000040 1006.01 99.00 385.79 615.47 1109.03 356.85 1277.71 375.22 1185.01 485.33 1119.61 565.76 1252.54 582.21
00010830 00000041 1004.58 103.09 386.61 610.15 1108.51 357.16 1277.21 375.31 1184.99 485.56 1119.33 565.14 1251.79 581.50
00010831 00000042 1005.14 104.29 384.99 607.70 1107.51 356.82 1276.57 375.19 1184.33 485.19 1118.91 564.79 1251.22 581.35
00010832 00000043 1003.94 105.77 386.33 605.88 1106.92 356.77 1276.59 375.33 1184.24 485.67 1118.20 564.42 1250.69 581.27
00010833 00000044 1003.39 106.99 386.48 604.34 1105.64 357.59 1275.92 375.90 1183.08 485.76 1117.19 564.10 1250.85 580.71
00010834 00000045 1003.42 105.85 387.01 606.04 1105.75 357.69 1276.45 375.71 1183.14 485.74 1117.61 564.41 1251.65 580.71
00010835 00000046 1002.95 105.84 386.95 605.37 1105.01 357.79 1275.63 375.74 1182.05 485.30 1116.98 564.16 1250.93 580.40
00010836 00000047 1003.89 106.20 385.51 605.45 1105.46 357.51 1275.17 375.81 1181.73 485.37 1116.72 563.81 1250.10 580.45
00010837 00000048 1004.14 104.13 385.68 607.63 1104.99 357.40 1275.40 375.31 1181.25 485.37 1116.60 563.81 1251.18 580.02
00010838 00000049 1003.88 105.55 385.69 606.26 1104.65 358.04 1274.87 375.67 1181.13 485.88 1116.14 563.38 1251.17 579.41
00010839 00000050 1004.53 106.20 385.64 605.65 1104.58 358.19 1274.99 375.48 1180.77 486.14 1115.94 562.92 1251.98 578.63
00010840 00000051 1004.27 107.15 385.94 604.91 1104.53 358.70 1275.11 375.51 1181.30 486.21 1115.90 562.04 1253.51 577.31
00010841 00000052 1002.82 111.11 386.96 603.94 1103.76 362.59 1272.39 372.86 1186.72 487.25 1115.96 567.85 1248.56 576.04
00010842 00000053 1002.27 114.28 386.88 604.35 1103.54 364.71 1270.83 375.85 1184.61 489.90 1113.73 568.04 1248.02 577.07
00010843 00000054 1000.31 113.82 382.92 609.54 1100.34 369.60 1266.69 381.39 1181.47 491.76 1110.26 570.69 1246.02 580.06
00010844 00000055 999.62 117.31 379.13 613.17 1094.09 373.14 1260.07 386.76 1169.28 496.93 1102.39 577.18 1236.47 588.30
00010845 DELETE   992.35 121.11 382.40 615.21 1087.86 376.78 1251.13 391.52 1159.09 497.62 1092.64 579.54 1229.38 592.29
00010846 DELETE   991.79 126.00 378.60 598.59 1077.09 370.34 1242.68 393.18 1138.03 492.02 1079.05 568.99 1213.90 590.05
00010847 DELETE   989.47 127.21 372.75 591.99 1066.12 367.19 1229.39 393.64 1118.86 493.37 1068.37 564.26 1203.22 587.35
00010848 00000059 983.28 131.83 375.43 577.33 1059.92 362.67 1222.09 387.55 1108.86 483.82 1060.26 556.75 1196.10 578.08
00010849 00000060 979.22 130.26 378.29 578.69 1047.38 354.88 1214.96 377.54 1093.12 485.47 1047.90 557.04 1189.30 575.95
00010850 00000061 977.85 135.43 376.09 570.64 1044.03 352.83 1209.84 374.85 1089.05 480.57 1046.00 555.90 1184.05 573.89
00010851 00000062 976.89 132.23 373.55 568.96 1040.81 352.11 1204.88 373.74 1085.07 479.19 1043.57 557.01 1176.95 574.55
00010852 00000063 975.35 138.33 373.17 561.46 1036.34 352.89 1199.85 372.89 1081.37 479.11 1040.08 558.91 1171.58 574.91
00010853 00000064 973.55 130.06 372.85 570.49 1032.05 350.67 1193.29 373.14 1074.52 480.37 1034.14 558.27 1163.77 576.64
00010854 00000065 972.77 136.51 368.72 561.25 1028.65 348.76 1189.19 372.71 1067.75 477.75 1030.22 558.57 1154.01 578.09
00010855 00000066 969.43 124.97 370.33 569.96 1025.63 347.14 1185.07 370.65 1065.57 475.68 1027.64 556.99 1148.35 576.35
00010856 00000067 968.58 121.40 370.94 570.97 1024.05 346.11 1182.50 369.04 1064.01 471.41 1025.20 556.43 1142.78 575.39
00010857 00000068 967.47 121.51 370.68 570.06 1022.71 343.70 1180.10 366.68 1061.92 468.07 1023.52 555.45 1137.94 574.57
00010858 00000069 966.33 118.77 371.10 574.81 1021.73 343.93 1178.27 366.63 1059.38 467.66 1021.84 555.35 1135.33 574.41
00010859 00000070 964.34 123.65 372.51 569.37 1021.36 345.86 1176.63 367.31 1058.60 467.86 1023.58 556.91 1134.62 574.63
00010860 00000071 963.19 124.26 372.64 571.96 1020.46 348.14 1174.97 369.14 1056.74 470.92 1022.47 559.35 1134.18 576.55
00010861 00000072 962.15 128.89 372.12 571.46 1019.85 349.91 1174.35 371.72 1056.42 471.99 1020.96 560.76 1133.84 578.56
00010862 00000073 962.41 136.17 372.45 566.42 1019.76 350.66 1174.06 373.56 1056.37 473.23 1020.62 561.76 1134.00 580.35
00010863 00000074 961.71 134.09 373.41 569.28 1019.37 350.73 1173.46 373.97 1055.69 472.98 1020.33 561.54 1133.56 580.38
00010864 00000075 961.21 135.80 373.93 568.02 1019.48 350.61 1173.79 373.85 1056.06 472.86 1021.01 561.61 1134.32 580.41
00010865 00000076 961.41 136.94 374.38 567.83 1019.87 350.07 1174.78 374.18 1056.72 473.44 1020.39 560.89 1135.97 580.49
00010866 00000077 962.20 136.90 373.68 569.84 1019.44 351.36 1175.09 375.61 1056.39 475.09 1020.14 561.98 1137.08 581.74
00010867 00000078 963.31 144.70 372.94 562.02 1019.70 352.31 1175.32 375.76 1056.78 475.97 1021.43 562.74 1138.94 581.60
00010868 00000079 963.22 146.07 372.92 561.97 1019.60 353.18 1176.16 375.97 1057.62 476.21 1021.31 563.58 1140.40 581.89
00010869 00000080 962.95 146.92 374.17 561.04 1019.65 353.54 1176.61 376.55 1057.62 476.73 1021.63 562.91 1141.71 581.36
00010870 00000081 967.17 146.40 368.58 552.32 1024.18 360.17 1177.69 373.12 1056.96 474.63 1026.10 561.67 1154.05 574.39
00010871 00000082 966.89 145.85 369.15 553.14 1023.78 360.34 1176.97 373.71 1055.55 474.48 1025.39 560.89 1153.69 573.92
00010872 00000083 967.16 145.64 368.64 553.30 1023.41 360.38 1176.26 373.69 1054.71 474.49 1024.75 560.12 1153.60 573.07
00010873 00000084 965.96 143.41 369.88 557.03 1022.57 360.23 1175.70 374.31 1053.49 474.26 1023.76 560.40 1152.61 573.92
00010874 00000085 965.80 142.38 369.24 557.45 1022.16 360.15 1175.33 374.70 1053.36 474.00 1023.17 560.71 1151.43 574.68
00010875 00000086 966.01 141.16 368.67 558.27 1022.08 359.87 1174.81 374.31 1053.07 474.16 1023.30 561.48 1150.37 575.41
00010876 00000087 961.09 141.91 376.38 565.98 1017.37 355.69 1174.15 378.10 1053.88 475.79 1019.34 563.00 1139.22 580.82
00010877 00000088 962.49 143.77 374.68 563.04 1016.82 355.47 1173.97 377.94 1054.00 475.88 1018.91 564.11 1138.22 581.94
00010878 00000089 962.90 141.02 374.32 563.20 1016.15 354.70 1173.44 377.96 1053.33 476.18 1017.53 563.52 1136.35 582.05
00010879 00000090 962.94 144.55 373.94 556.08 1015.45 355.59 1173.47 379.60 1052.67 476.90 1016.37 563.04 1135.10 582.08
00010880 00000091 963.23 144.00 373.13 557.58 1015.76 362.03 1171.86 385.11 1053.58 473.85 1016.19 562.80 1134.38 581.06
00010881 00000092 964.09 143.00 371.90 561.82 1016.73 362.17 1172.41 385.69 1053.60 473.09 1016.45 564.55 1132.31 583.28
00010882 00000093 963.69 144.68 371.67 564.96 1017.98 361.35 1173.12 385.68 1053.61 471.54 1017.13 564.61 1133.32 583.95
00010883 00000094 965.10 151.07 369.59 555.25 1016.22 356.98 1173.76 380.20 1053.12 472.77 1017.35 565.31 1132.87 583.90
00010884 00000095 965.60 138.01 368.61 560.87 1018.34 352.79 1171.92 378.56 1054.13 470.62 1016.95 559.86 1129.50 580.71
00010885 00000096 964.59 129.48 369.94 562.78 1020.06 347.99 1172.67 370.63 1054.85 466.18 1020.33 556.21 1129.55 574.66
00010886 00000097 965.99 132.39 370.75 553.58 1020.09 342.97 1175.06 363.91 1054.94 461.89 1021.84 553.42 1129.32 570.71
00010887 00000098 967.49 132.63 369.60 548.90 1020.89 340.13 1176.16 360.77 1055.21 459.02 1022.39 551.49 1128.58 568.54
00010888 00000099 968.31 131.78 368.53 548.08 1020.07 339.87 1173.28 361.24 1051.90 458.40 1020.88 550.95 1125.00 568.50
00010889 00000100 967.67 132.45 366.36 548.28 1018.09 343.91 1166.16 365.78 1044.82 458.32 1018.90 553.52 1118.09 571.16
00010890 00000101 965.18 132.74 364.57 550.06 1014.58 342.36 1157.38 367.81 1033.47 454.83 1012.87 552.92 1106.18 573.36
00010891 00000102 960.17 132.28 363.34 549.56 1008.13 340.98 1146.41 375.18 1013.78 455.88 998.56 549.21 1091.78 576.86
00010892 00000103 957.68 126.46 360.01 557.01 990.08 344.96 1131.00 379.63 996.55 460.63 977.71 551.64 1075.55 580.20
00010893 00000104 952.10 130.77 358.33 555.80 980.30 345.69 1122.61 382.77 986.25 464.51 967.94 555.93 1064.00 586.47
00010894 00000105 944.71 131.75 366.00 557.32 986.37 349.06 1126.40 382.94 984.06 462.93 976.21 559.02 1072.05 587.13
00010895 00000106 949.37 130.71 359.69 569.36 979.19 349.24 1120.86 385.48 984.71 468.73 970.81 562.48 1067.23 592.06
00010896 00000107 948.35 130.48 357.57 581.42 975.93 350.60 1120.10 384.86 982.77 468.47 969.34 569.80 1066.54 597.82
00010897 00000108 942.36 126.92 362.94 585.64 989.73 350.00 1117.59 376.51 982.85 463.34 980.41 567.66 1072.54 589.34
00010898 00000109 942.77 129.99 364.06 586.83 991.50 350.15 1119.80 375.92 984.71 463.63 981.68 568.01 1076.55 589.20
00010899 00000110 950.05 126.56 361.02 592.54 980.37 350.08 1125.97 381.62 987.70 468.12 976.78 569.16 1079.90 595.23
00010900 00000111 951.52 126.87 364.92 587.10 983.77 347.65 1129.32 380.56 990.76 470.35 981.53 564.04 1086.81 591.12
00010901 00000112 950.73 124.58 366.51 575.34 982.46 346.38 1127.08 379.99 989.41 471.25 978.74 561.05 1083.30 588.49
00010902 00000113 950.48 122.15 365.59 568.96 980.75 344.39 1124.78 377.08 989.12 471.53 978.40 558.85 1084.25 585.35
00010903 00000114 950.69 124.96 363.78 565.14 979.81 343.78 1124.50 376.07 988.65 471.07 976.66 558.47 1083.95 584.70
00010904 00000115 950.61 124.87 364.75 563.36 980.23 343.01 1124.20 375.82 988.95 470.65 976.65 558.12 1082.05 584.72
00010905 00000116 950.77 126.20 365.13 564.22 981.13 344.90 1125.10 376.33 989.74 470.44 978.61 560.49 1082.11 585.92
00010906 00000117 952.09 122.84 363.84 569.92 982.85 343.35 1126.68 375.61 989.79 469.59 979.63 559.07 1084.21 585.24
00010907 00000118 953.52 127.98 364.28 564.12 984.76 343.46 1127.57 373.60 993.19 467.88 980.88 557.87 1083.37 582.46
00010908 00000119 955.56 132.87 362.34 561.46 987.52 344.12 1129.32 374.38 994.87 468.18 983.22 556.60 1086.67 581.19
00010909 00000120 954.46 132.32 364.26 565.16 987.13 344.34 1129.89 373.37 996.64 468.32 984.12 558.30 1087.87 581.95
00010910 00000121 953.97 133.25 364.68 564.66 987.60 344.00 1130.79 372.76 997.30 467.65 984.32 557.71 1087.99 581.28
00010911 00000122 953.26 130.01 365.52 568.51 987.14 344.20 1129.92 371.34 996.52 465.95 985.19 558.09 1087.12 580.33
00010912 00000123 952.78 128.01 365.63 571.05 987.04 343.46 1131.63 370.47 997.24 466.71 985.50 557.97 1089.88 580.15
00010913 00000124 953.73 128.30 366.01 572.03 987.78 345.43 1133.87 370.30 1000.43 466.56 987.39 558.75 1095.30 579.26
00010914 00000125 953.90 128.94 366.61 571.24 989.07 346.99 1135.57 372.48 1003.55 468.08 989.95 558.03 1099.58 578.92
00010915 00000126 953.73 125.11 366.94 574.05 989.78 347.35 1137.67 374.47 1004.46 469.62 990.58 556.65 1103.49 578.84
00010916 00000127 953.29 121.98 367.71 574.61 988.68 347.45 1136.36 374.47 1003.24 469.80 989.43 555.81 1103.39 577.91
00010917 00000128 953.29 125.82 366.38 565.81 988.36 346.48 1135.86 375.26 1002.98 469.94 987.68 552.92 1102.53 576.26
00010918 00000129 952.35 127.36 367.50 560.63 996.07 346.16 1140.79 373.94 1004.80 463.38 993.13 552.12 1100.94 574.01
00010919 00000130 952.96 129.68 366.38 559.77 995.85 348.75 1140.52 376.36 1004.07 463.86 992.69 554.85 1098.13 576.66
00010920 00000131 952.70 135.08 367.16 556.51 995.95 350.51 1139.84 378.39 1004.34 465.73 993.48 557.52 1096.08 579.61
00010921 00000132 952.72 136.55 366.97 554.65 994.97 351.98 1139.61 379.21 1003.96 465.78 992.28 559.53 1094.39 581.23
00010922 00000133 953.33 140.28 366.55 552.91 995.14 352.15 1138.86 379.91 1003.33 466.12 992.37 561.26 1093.80 583.26
00010923 00000134 954.04 138.87 365.45 554.40 994.93 352.87 1138.00 379.86 1002.97 466.43 992.86 562.41 1092.67 583.87
00010924 00000135 954.65 138.63 364.94 556.21 995.40 353.03 1138.18 380.01 1003.23 466.37 993.63 562.55 1092.73 584.04
00010925 00000136 954.55 137.68 365.08 557.36 995.37 353.14 1138.00 379.63 1003.22 466.02 994.02 562.84 1092.65 583.91
00010926 00000137 954.53 138.61 365.11 555.80 995.11 352.83 1138.38 379.86 1002.99 466.47 993.72 562.77 1092.57 584.23
00010927 00000138 954.50 140.57 365.20 553.62 994.99 352.76 1137.86 379.80 1002.02 466.29 993.47 562.34 1092.82 583.69
00010928 00000139 954.86 142.30 364.94 551.32 995.09 353.30 1138.50 379.88 1002.33 466.31 993.91 562.47 1093.56 583.45
00010929 00000140 954.65 138.28 364.43 555.25 994.86 354.13 1137.97 380.18 1002.49 466.25 993.95 562.48 1093.79 583.12
00010930 00000141 956.35 143.44 361.36 548.63 995.40 361.85 1136.73 386.72 1001.55 467.21 992.64 563.16 1094.73 582.69
00010931 00000142 957.80 143.80 359.27 547.30 995.26 365.76 1134.48 387.92 1000.32 466.44 993.40 564.66 1094.47 582.19
00010932 00000143 958.16 142.33 358.95 550.64 996.02 363.84 1134.19 387.35 999.86 466.62 994.22 564.76 1093.82 583.22
00010933 00000144 956.36 144.57 362.84 553.39 996.24 361.92 1137.89 386.52 1002.37 468.88 993.10 565.77 1094.60 585.14
00010934 00000145 956.23 144.29 363.27 557.73 997.32 357.12 1140.00 383.04 1004.90 468.99 994.92 564.95 1096.55 585.31
00010935 00000146 961.85 131.88 357.92 575.22 994.46 353.53 1136.20 381.20 1006.21 473.83 994.03 565.33 1097.36 587.67
00010936 00000147 957.68 136.33 363.05 568.27 999.07 355.53 1142.07 379.48 1009.74 467.45 996.77 565.86 1097.43 584.96
00010937 00000148 957.75 138.10 363.50 567.37 999.62 354.87 1143.47 378.65 1011.25 467.10 998.07 565.75 1100.23 584.58
00010938 00000149 956.92 133.74 364.79 573.87 998.64 354.20 1142.90 378.54 1009.89 467.50 997.24 565.95 1100.59 585.23
00010939 00000150 956.62 136.06 364.48 571.85 998.34 353.46 1143.29 378.15 1010.76 468.39 997.33 566.27 1101.47 585.75
00010940 00000151 960.31 131.05 359.43 577.23 995.55 351.48 1139.37 378.88 1008.35 472.16 993.22 563.80 1100.55 586.15
00010941 00000152 958.87 131.34 360.80 577.06 994.30 351.53 1139.38 377.89 1007.68 471.10 992.52 563.55 1103.17 585.10
00010942 00000153 960.14 132.19 359.86 577.05 994.20 351.66 1138.44 377.74 1007.22 471.25 994.16 564.05 1102.65 585.28
00010943 00000154 958.13 132.96 359.68 571.30 999.66 352.03 1140.86 374.52 1010.71 471.02 996.00 560.64 1108.76 581.13
00010944 00000155 957.68 132.32 359.79 572.41 999.44 352.16 1140.21 375.16 1009.44 471.82 995.46 560.59 1108.02 581.53
00010945 00000156 955.33 135.56 362.22 569.02 997.11 353.19 1139.02 375.34 1007.29 472.29 994.00 560.00 1108.14 579.97
00010946 00000157 952.12 135.81 364.56 569.85 992.72 355.08 1136.38 375.53 1004.91 475.54 992.46 562.26 1107.24 580.59
00010947 00000158 950.52 141.64 365.66 565.43 991.83 356.72 1135.31 377.15 1003.24 477.53 992.08 563.99 1107.27 582.16
00010948 00000159 948.92 138.68 366.05 567.89 990.32 358.78 1133.83 377.64 1002.58 478.12 991.77 564.56 1107.07 581.31
00010949 00000160 945.60 138.86 370.44 570.62 986.68 360.98 1130.19 378.69 994.88 472.59 993.33 569.29 1103.93 582.29
00010950 00000161 944.33 131.73 370.65 578.61 984.87 360.18 1128.15 380.02 990.09 474.42 990.69 568.38 1101.75 583.21
00010951 00000162 941.56 127.29 372.52 584.29 981.88 360.14 1126.50 380.55 987.43 477.40 987.69 569.46 1100.12 584.84
00010952 00000163 940.31 126.64 371.80 579.57 983.48 356.87 1121.41 378.27 988.05 474.24 989.33 562.78 1099.33 579.37
00010953 00000164 937.39 130.32 373.38 574.83 981.53 358.39 1117.85 379.28 984.57 473.17 986.62 563.43 1094.21 579.65
