Video ID: 	T67dU9E-ppg
H: 	1080
W: 	1920
FPS: 	25.0

FRAME INDEX X0 Y0 W H [Landmarks (5 Points)]

00000270 00000000 525.83 199.53 456.22 652.87 698.50 463.21 893.41 464.06 821.11 614.37 703.66 693.65 855.83 695.39
00000271 00000001 544.19 205.96 449.25 653.80 705.54 462.69 907.03 469.08 826.34 616.14 705.92 692.04 863.88 699.08
00000272 00000002 554.54 200.32 445.42 652.25 712.85 460.60 913.26 463.79 835.54 610.55 720.57 686.48 877.15 691.03
00000273 00000003 567.90 200.34 440.48 645.06 723.89 455.73 922.82 457.85 844.97 603.13 734.28 681.24 888.08 685.50
00000274 00000004 583.56 202.67 437.79 644.57 735.45 454.79 931.57 454.87 854.45 601.46 747.88 681.10 903.39 683.45
00000275 00000005 598.42 201.53 434.02 640.67 749.54 453.37 943.10 456.20 867.40 598.74 759.00 676.84 915.77 680.61
00000276 DELETE   608.84 199.08 441.77 636.80 768.86 449.22 960.72 450.16 886.19 595.32 779.26 675.73 931.82 676.78
00000277 DELETE   623.84 201.92 433.65 633.44 788.57 438.97 973.02 438.10 914.46 581.54 804.11 673.32 950.81 670.83
00000278 00000008 641.04 197.91 428.59 630.50 808.32 425.65 995.37 431.81 929.53 575.92 813.19 656.96 964.94 664.80
00000279 00000009 650.13 193.95 430.36 627.43 823.36 419.95 1006.03 421.06 949.78 567.46 829.96 655.01 980.70 658.64
00000280 00000010 661.83 188.20 427.69 627.60 834.18 414.28 1013.59 415.65 960.98 562.19 841.97 651.11 988.85 654.13
00000281 00000011 674.11 193.32 420.34 620.55 840.89 407.01 1025.37 412.14 968.98 556.83 849.11 653.16 988.63 656.67
00000282 00000012 677.84 191.94 418.75 623.32 842.92 405.68 1026.17 411.40 970.14 554.60 853.32 652.40 989.70 656.18
00000283 00000013 678.16 193.72 417.58 622.77 844.35 408.03 1026.87 414.57 970.61 558.14 855.31 654.86 990.50 659.10
00000284 00000014 678.05 199.34 416.06 620.40 844.59 413.14 1027.10 420.82 971.37 562.60 853.20 658.77 990.66 663.95
00000285 00000015 679.62 201.82 412.67 619.29 847.90 417.29 1028.59 427.34 974.35 568.12 852.51 661.99 990.54 669.47
00000286 00000016 679.26 204.89 414.74 618.81 848.94 421.35 1029.44 432.72 975.13 573.40 851.31 663.04 990.59 671.76
00000287 00000017 679.98 208.86 415.85 617.39 850.87 424.02 1029.23 435.28 976.60 575.76 851.07 662.93 992.91 671.65
00000288 00000018 682.79 209.81 412.40 615.42 853.88 425.47 1030.00 436.81 978.64 575.69 852.48 663.74 992.77 672.80
00000289 00000019 683.74 210.31 413.21 614.31 855.40 424.42 1031.64 435.23 980.03 575.54 853.43 663.86 992.55 672.55
00000290 00000020 683.88 211.34 413.61 611.94 855.53 424.08 1033.12 435.14 980.46 575.30 853.11 663.33 992.41 672.29
00000291 00000021 684.61 212.50 411.37 609.45 856.03 425.27 1031.82 436.25 979.73 575.44 853.14 662.71 990.81 671.71
00000292 00000022 683.40 215.39 409.23 606.56 856.38 431.59 1027.04 443.36 978.06 576.71 850.46 660.09 989.78 670.15
00000293 00000023 681.74 215.89 410.63 604.54 852.40 436.75 1023.44 447.75 970.99 579.56 846.35 659.52 987.03 669.16
00000294 00000024 679.47 218.95 413.86 601.28 850.52 437.41 1020.01 448.66 966.09 581.39 843.16 659.10 983.57 669.03
00000295 00000025 678.94 215.47 416.85 607.91 847.01 439.33 1018.49 451.01 962.03 583.92 839.75 659.80 982.31 669.99
00000296 00000026 680.39 215.39 416.42 607.54 846.25 440.76 1018.58 453.27 960.59 584.85 838.17 660.20 982.11 671.10
00000297 00000027 686.64 214.16 418.42 609.77 848.37 447.09 1028.04 464.88 955.22 591.95 835.06 655.94 985.33 673.91
00000298 00000028 690.31 217.94 416.51 606.42 849.28 447.90 1028.72 466.62 954.05 593.99 835.17 654.80 986.64 673.67
00000299 00000029 686.92 223.87 416.67 600.14 849.25 445.28 1022.57 458.34 959.49 587.52 839.79 659.95 987.18 671.25
00000300 00000030 690.80 223.46 418.30 602.70 852.91 446.78 1026.11 460.49 964.11 588.03 843.82 659.54 993.53 671.18
00000301 00000031 698.32 222.73 417.84 603.13 858.93 448.11 1031.06 460.73 970.29 590.00 853.45 662.34 1000.22 672.76
00000302 00000032 704.04 225.62 416.54 600.85 866.00 453.62 1035.44 463.63 976.27 592.54 862.54 665.95 1004.84 674.33
00000303 00000033 708.79 223.98 417.37 604.33 870.68 463.40 1037.28 470.23 978.79 596.35 869.46 671.47 1008.59 677.19
00000304 00000034 710.61 226.30 417.54 602.13 872.56 464.20 1038.26 470.00 978.75 599.61 875.97 677.43 1007.37 681.75
00000305 00000035 712.54 226.39 416.11 604.15 873.53 462.54 1038.60 468.71 978.34 602.84 876.27 678.66 1007.90 683.22
00000306 00000036 714.40 228.65 414.73 600.23 874.08 460.35 1040.21 467.81 977.52 606.14 875.84 678.98 1007.36 684.76
00000307 00000037 718.31 230.62 417.98 595.27 872.16 460.32 1044.38 474.97 972.05 608.98 866.30 673.16 996.83 687.71
00000308 00000038 714.68 232.95 416.16 592.61 870.52 461.50 1040.45 469.68 972.49 610.31 872.16 679.42 1005.51 686.20
00000309 00000039 713.65 233.07 417.35 590.06 868.44 462.14 1039.28 471.23 969.63 610.68 870.11 679.00 1003.44 686.61
00000310 00000040 712.42 232.08 418.17 587.38 866.61 461.91 1039.25 471.99 968.79 608.95 868.72 677.35 1003.82 685.86
00000311 00000041 709.42 232.49 419.51 584.33 865.39 457.73 1039.54 468.35 969.33 604.78 867.28 672.58 1004.02 681.51
00000312 00000042 708.76 232.62 418.33 583.09 867.04 451.53 1039.82 462.31 972.60 597.46 867.82 666.35 1003.28 675.44
00000313 00000043 707.03 230.13 418.32 580.63 869.06 439.67 1045.60 451.41 980.61 586.26 868.70 657.72 1006.37 667.71
00000314 00000044 712.07 226.41 411.97 577.90 873.65 431.97 1047.61 443.61 985.79 580.01 876.76 654.45 1007.74 664.09
00000315 00000045 714.48 227.51 408.45 572.27 878.26 427.91 1048.31 439.24 990.65 576.02 881.30 651.32 1009.13 660.73
00000316 00000046 716.44 218.66 408.18 579.25 879.30 422.99 1050.38 432.99 995.87 571.44 882.94 650.03 1012.22 658.70
00000317 00000047 717.70 215.64 405.79 577.03 881.64 420.82 1051.97 430.58 998.67 568.11 885.27 648.01 1012.38 656.55
00000318 00000048 717.57 216.43 404.16 576.91 880.75 419.51 1051.18 428.17 998.51 565.60 885.68 647.91 1011.89 655.34
00000319 00000049 717.14 215.28 401.85 574.28 879.34 417.85 1049.34 426.32 996.39 562.54 885.32 645.89 1009.45 653.23
00000320 00000050 716.31 212.97 402.41 576.72 877.93 416.28 1049.81 425.59 995.77 560.09 882.12 643.41 1010.13 651.56
00000321 00000051 715.93 212.55 403.70 575.61 876.50 413.77 1051.26 423.01 997.51 557.38 880.20 640.01 1014.59 648.32
00000322 00000052 716.51 209.26 404.47 576.71 877.15 411.74 1052.63 421.61 999.59 555.61 878.80 634.91 1016.83 643.96
00000323 00000053 714.84 207.85 406.15 573.23 878.09 409.80 1053.15 420.80 1000.97 552.35 878.80 630.07 1018.93 640.16
00000324 00000054 716.35 206.87 404.38 568.51 878.18 407.36 1053.64 418.93 1000.95 548.87 879.38 625.47 1020.30 636.03
00000325 00000055 718.32 204.03 401.65 564.98 879.11 405.97 1053.99 417.52 1002.50 546.04 881.41 622.41 1021.91 633.28
00000326 00000056 718.70 201.64 400.51 566.11 880.57 403.75 1054.38 414.65 1004.60 543.34 882.48 619.86 1022.90 630.31
00000327 00000057 716.94 200.76 401.24 568.14 880.51 401.78 1053.73 411.73 1004.35 540.42 883.28 619.03 1022.37 628.39
00000328 00000058 716.11 199.08 400.16 568.01 879.26 400.41 1052.07 410.03 1002.97 538.74 883.19 618.21 1019.99 627.15
00000329 00000059 713.46 198.18 399.89 566.35 877.52 400.51 1049.69 410.85 1000.24 538.30 881.56 617.53 1017.01 627.05
00000330 00000060 711.84 196.27 399.82 569.97 874.46 399.65 1047.89 411.09 997.23 538.70 877.41 617.37 1013.95 627.74
00000331 00000061 708.52 193.58 400.04 573.49 870.56 405.24 1041.22 417.13 990.79 539.21 873.57 617.25 1009.05 627.75
00000332 00000062 702.69 184.51 399.44 587.69 868.66 412.94 1036.01 421.06 983.90 537.10 871.82 620.47 1010.00 627.33
00000333 00000063 698.40 181.89 401.34 588.13 863.28 409.02 1030.81 417.12 976.77 537.43 866.01 619.64 1003.43 626.61
00000334 00000064 692.32 178.01 406.69 591.20 855.38 406.32 1024.20 414.21 967.21 536.62 860.78 619.97 997.47 626.69
00000335 00000065 689.17 175.90 407.75 595.22 848.93 404.25 1017.99 412.75 959.04 537.62 853.60 620.60 990.73 628.13
00000336 00000066 685.76 174.50 410.25 597.44 841.22 403.32 1012.75 412.96 950.61 537.07 845.75 620.57 985.88 629.20
00000337 00000067 683.11 176.33 411.84 596.82 833.68 404.15 1007.19 413.82 941.62 536.80 837.63 620.41 980.90 629.30
00000338 00000068 682.94 175.55 411.92 599.70 830.54 409.74 1008.58 420.24 937.67 537.39 831.89 620.88 980.37 630.42
00000339 00000069 679.92 181.94 410.08 592.70 820.99 413.70 997.31 423.84 925.96 536.90 826.16 620.39 974.52 629.74
00000340 00000070 674.41 179.73 409.23 599.47 807.59 415.46 982.39 422.00 912.17 536.92 817.57 621.91 966.92 628.68
00000341 00000071 667.43 177.95 407.99 611.60 797.86 411.94 973.88 418.83 901.71 538.35 811.03 626.91 953.21 634.93
00000342 00000072 658.86 185.48 407.57 606.17 784.42 416.83 960.53 415.67 894.01 541.12 806.52 636.01 944.80 633.51
00000343 00000073 654.90 185.88 405.64 606.91 774.40 421.33 950.98 416.96 881.42 548.88 799.33 640.93 936.25 635.73
00000344 00000074 652.77 182.76 404.33 613.10 768.30 425.42 945.42 420.31 873.55 552.21 794.20 644.94 931.65 638.93
00000345 00000075 653.15 188.48 403.17 614.00 768.73 428.95 942.32 426.12 868.26 558.78 790.95 649.71 926.86 645.49
00000346 00000076 653.16 197.44 402.04 610.61 771.00 435.77 941.63 435.92 866.75 566.91 789.83 654.13 926.06 652.64
00000347 00000077 653.23 203.52 403.46 610.84 773.15 439.84 941.68 442.34 865.75 573.61 789.84 657.74 925.38 658.04
00000348 00000078 652.12 211.09 405.11 606.34 774.81 442.33 942.97 445.83 866.44 577.36 791.60 661.35 924.96 662.45
00000349 00000079 652.49 209.73 406.85 608.76 777.02 444.09 944.92 450.14 866.92 579.90 793.00 662.86 925.03 666.09
00000350 00000080 653.56 212.45 407.94 605.81 780.20 445.64 947.97 453.32 869.15 581.01 793.45 662.83 925.93 667.59
00000351 00000081 653.79 214.22 408.68 605.41 782.57 445.46 949.92 455.23 870.23 583.66 794.30 663.41 926.39 669.95
00000352 00000082 653.64 214.82 408.61 604.60 782.39 446.34 949.26 456.82 869.04 584.02 793.27 663.54 925.90 670.65
00000353 00000083 653.62 215.44 408.30 603.54 782.57 446.52 949.44 457.42 868.32 584.74 792.35 663.44 924.76 670.97
00000354 00000084 653.78 216.21 408.97 602.90 782.17 445.51 948.98 457.40 866.10 585.24 790.02 662.78 922.47 671.15
00000355 00000085 653.13 215.04 407.87 602.27 780.25 445.33 947.24 456.88 864.52 585.63 789.04 663.02 920.24 671.24
00000356 00000086 653.01 214.92 407.41 602.04 778.67 443.78 945.78 455.89 861.38 586.34 785.98 662.93 916.96 671.67
00000357 00000087 652.88 213.59 407.81 602.80 777.41 441.62 944.67 454.48 858.33 586.77 782.63 662.19 914.02 671.56
00000358 00000088 652.62 213.69 406.28 603.18 775.89 441.68 942.75 454.78 855.99 585.53 779.68 661.63 911.61 671.25
00000359 00000089 651.58 213.44 406.76 603.58 775.15 441.60 940.45 454.13 855.05 584.90 777.36 660.94 908.96 670.21
00000360 00000090 650.48 211.19 405.29 605.27 773.15 442.82 937.40 454.23 853.39 584.11 775.99 660.89 907.30 669.27
00000361 00000091 649.20 211.49 403.28 604.96 771.43 441.88 935.92 453.03 852.71 583.55 774.11 660.31 906.62 668.63
00000362 00000092 648.03 211.86 402.12 604.64 769.87 440.80 935.59 451.57 851.63 583.67 771.72 660.80 904.41 668.84
00000363 00000093 646.14 210.63 402.47 604.73 768.57 439.01 934.78 450.83 851.07 582.69 771.03 660.08 901.83 669.00
00000364 00000094 644.59 209.85 402.51 604.04 765.96 440.45 932.93 452.02 847.63 583.51 768.32 660.23 899.58 668.86
00000365 00000095 644.30 209.07 402.31 606.21 766.61 444.97 931.33 456.91 848.20 584.99 767.78 662.28 898.86 671.30
00000366 00000096 640.95 209.17 403.20 605.28 764.82 445.43 930.78 457.04 848.51 587.66 766.48 663.36 898.43 672.25
00000367 00000097 636.76 211.34 405.06 604.00 764.09 443.02 931.14 454.89 850.29 589.71 765.55 663.95 896.11 673.22
00000368 00000098 631.97 211.94 407.92 605.08 759.38 441.18 928.83 454.32 846.76 591.03 760.16 664.22 892.76 674.42
00000369 00000099 626.32 209.16 408.97 607.79 751.00 440.04 924.61 452.13 843.03 590.63 754.83 664.97 888.35 674.46
00000370 00000100 620.99 207.01 409.15 609.45 742.22 440.86 919.75 450.00 838.74 588.64 749.04 664.59 888.51 672.03
00000371 00000101 614.46 203.40 408.50 611.31 735.14 440.56 912.48 448.51 833.61 585.04 744.43 663.09 882.63 669.78
00000372 00000102 603.26 200.68 414.09 609.13 724.85 438.01 909.09 445.77 825.45 581.80 735.81 651.55 885.14 660.73
00000373 00000103 598.31 202.35 412.22 608.02 719.05 439.30 903.67 447.22 820.32 584.08 731.82 652.70 879.87 662.07
00000374 00000104 591.78 202.33 410.61 606.96 712.62 440.50 899.01 448.24 813.77 586.11 723.27 651.88 873.00 661.33
00000375 00000105 582.98 200.16 412.84 610.63 705.34 441.89 895.02 450.51 806.98 587.23 713.97 652.53 868.00 662.49
00000376 00000106 575.27 197.73 416.51 610.88 696.73 442.28 890.96 448.90 799.62 587.99 708.05 654.16 865.31 662.44
00000377 00000107 562.30 201.68 420.38 604.83 689.91 440.78 871.55 442.48 788.24 587.99 707.18 656.91 853.89 658.07
00000378 00000108 558.74 200.46 417.74 601.10 686.73 435.65 867.40 438.71 784.04 583.18 701.83 651.86 847.67 654.59
00000379 00000109 557.51 191.68 416.55 608.75 686.42 429.91 862.78 436.02 779.63 576.35 698.61 647.49 840.24 653.18
00000380 00000110 556.02 181.78 418.05 612.45 686.04 425.01 863.27 431.39 779.26 569.82 696.22 642.09 840.48 647.83
00000381 00000111 554.37 175.47 420.95 616.92 686.38 418.48 863.98 423.61 780.29 561.02 697.27 637.75 843.73 642.04
00000382 00000112 554.20 168.20 423.21 622.91 687.44 408.94 864.90 413.64 782.70 554.96 699.32 634.92 844.94 638.33
00000383 00000113 555.07 159.31 424.27 629.57 690.47 404.61 866.77 408.56 786.90 547.89 702.57 630.72 848.25 632.97
00000384 00000114 556.66 151.81 425.11 633.97 694.06 401.02 869.85 404.63 791.86 542.60 707.03 626.41 852.52 627.97
00000385 00000115 561.50 151.03 425.58 636.05 701.76 399.07 875.21 403.84 799.55 542.10 711.73 625.60 857.04 628.02
00000386 00000116 568.94 146.11 424.18 641.94 710.94 396.70 886.17 401.52 811.45 543.57 721.13 631.02 863.48 633.28
00000387 00000117 572.34 151.23 423.12 632.71 718.31 406.31 896.06 407.32 824.15 546.05 733.85 637.49 874.57 636.46
00000388 00000118 582.81 150.94 427.47 631.28 720.43 405.98 912.12 412.05 833.84 547.15 729.86 630.36 884.51 637.20
00000389 00000119 588.35 152.61 425.67 635.44 733.01 407.83 913.02 412.63 843.38 549.52 738.32 630.23 888.45 635.80
00000390 00000120 593.99 159.16 424.71 629.16 738.60 409.40 916.15 414.56 846.68 550.01 744.76 631.57 894.01 637.37
00000391 00000121 595.02 166.56 425.33 623.28 740.61 412.43 919.83 416.67 849.97 551.20 747.23 631.73 899.42 636.99
00000392 00000122 596.17 167.00 423.59 624.35 743.54 414.84 921.54 420.26 852.87 555.43 748.12 633.48 899.66 639.95
00000393 00000123 595.27 173.47 423.17 619.88 742.14 417.50 921.89 424.22 851.35 558.85 746.40 636.25 897.18 644.16
00000394 00000124 592.21 176.70 424.70 620.40 738.99 422.50 921.43 428.47 847.09 564.62 743.13 640.09 893.95 647.76
00000395 00000125 588.29 182.84 423.46 618.05 734.41 428.95 917.33 432.17 843.75 570.26 739.64 644.63 889.46 650.45
00000396 00000126 585.36 190.00 422.12 613.49 730.61 433.18 915.08 435.02 841.34 575.39 737.17 647.23 888.20 652.08
00000397 00000127 582.82 192.89 418.81 613.11 728.94 435.94 912.85 438.85 839.93 578.79 734.90 649.08 884.54 654.88
00000398 00000128 578.08 198.39 418.69 609.31 725.24 436.81 910.45 440.49 837.93 578.20 733.44 649.51 883.30 655.91
00000399 00000129 577.39 197.60 417.16 610.98 723.41 437.50 909.53 441.59 836.06 577.93 732.10 650.21 882.78 656.83
00000400 00000130 576.40 202.59 415.48 606.10 722.75 436.81 907.84 442.25 834.86 577.91 731.62 649.96 880.58 657.81
00000401 00000131 574.81 203.09 416.24 605.14 721.50 436.65 906.23 443.01 832.80 578.27 729.39 649.32 877.82 657.99
00000402 00000132 574.73 202.94 414.88 602.71 719.01 436.70 904.68 442.77 830.34 577.76 727.04 648.94 876.15 657.43
00000403 00000133 574.32 203.23 413.75 601.00 718.22 436.15 903.12 442.85 829.00 576.18 726.85 647.69 875.26 656.73
00000404 00000134 574.68 202.02 412.81 601.41 716.50 435.86 901.16 442.79 825.97 575.44 725.60 647.35 873.70 656.51
00000405 00000135 577.08 199.91 410.56 602.32 716.00 436.00 900.48 442.94 824.10 575.28 724.79 646.57 873.24 655.75
00000406 00000136 577.84 201.27 409.64 601.76 714.92 435.63 898.94 443.06 821.53 574.93 723.42 646.32 871.96 655.86
00000407 00000137 579.88 200.33 408.45 601.35 715.32 436.41 898.88 444.36 820.43 574.88 723.51 645.73 871.73 655.59
00000408 00000138 577.55 202.83 409.86 589.88 714.66 437.20 887.67 439.32 821.56 579.05 731.48 652.58 864.85 653.55
00000409 00000139 579.77 202.63 407.65 590.18 716.45 436.18 887.83 438.74 822.56 578.60 732.47 651.60 864.49 652.96
00000410 00000140 582.15 203.63 405.90 588.72 718.08 435.53 889.08 436.85 824.85 578.90 733.95 651.02 868.22 651.29
00000411 00000141 587.80 202.40 402.72 599.65 718.99 432.94 900.93 439.89 827.28 571.71 728.94 642.62 879.91 651.55
00000412 00000142 591.86 199.04 401.42 604.57 721.78 433.52 901.79 438.85 831.16 570.24 731.34 641.54 884.29 648.87
00000413 00000143 594.89 198.50 400.59 605.57 723.95 432.32 903.67 436.80 834.34 567.97 733.37 640.77 887.85 647.20
00000414 00000144 597.46 195.44 401.51 605.40 727.47 431.78 905.84 434.99 837.36 565.45 737.28 638.27 891.95 643.39
00000415 00000145 599.99 192.04 401.55 605.78 730.75 430.89 907.20 433.60 839.82 562.44 740.32 635.70 894.08 640.30
00000416 00000146 600.63 189.88 404.65 606.02 733.56 427.77 909.86 431.42 841.59 559.64 742.95 633.22 896.53 638.39
00000417 00000147 602.72 188.99 405.19 604.42 735.77 425.10 911.00 428.91 843.14 556.73 745.73 631.10 897.75 636.41
00000418 00000148 602.87 186.45 407.42 604.71 737.62 423.16 912.36 427.51 844.23 554.75 747.36 629.52 898.92 635.16
00000419 00000149 603.64 185.04 408.16 601.78 739.19 421.74 914.10 426.32 845.12 553.75 749.65 629.67 899.12 635.63
00000420 00000150 603.84 184.61 408.31 599.55 739.61 420.10 915.49 424.39 846.32 553.59 752.00 630.91 899.46 636.75
00000421 00000151 603.07 184.01 409.11 597.11 740.13 419.47 917.20 423.52 847.67 554.36 752.31 630.73 900.35 636.25
00000422 00000152 602.01 182.14 409.52 598.90 740.86 416.44 916.57 420.79 847.89 553.34 751.14 628.46 899.56 634.13
00000423 00000153 600.05 178.55 409.39 597.95 738.80 415.67 915.38 419.35 846.95 551.24 748.46 625.57 899.81 630.54
00000424 00000154 596.80 176.20 408.79 599.49 736.46 414.01 910.87 417.07 844.90 546.90 745.50 622.41 897.44 626.73
00000425 00000155 593.02 169.89 408.72 604.34 732.94 410.95 906.98 413.79 842.18 544.27 743.11 619.88 893.52 623.97
00000426 00000156 586.58 161.99 412.27 616.33 729.02 405.36 905.66 411.52 837.92 540.80 737.98 619.86 886.23 626.38
00000427 00000157 578.37 155.21 416.29 625.43 731.42 398.89 903.38 409.84 835.86 541.19 735.11 621.35 871.11 632.48
00000428 00000158 574.03 149.11 419.43 629.88 731.81 394.00 901.97 407.19 834.43 537.69 731.57 618.48 865.87 631.32
00000429 00000159 574.81 148.67 411.23 628.67 735.48 391.25 900.99 394.86 841.57 526.73 748.69 624.38 876.82 625.37
00000430 00000160 578.21 143.93 409.61 628.57 746.39 381.41 911.02 384.78 859.13 517.79 759.20 616.40 886.45 617.01
00000431 DELETE   583.79 130.30 416.72 639.38 761.48 357.14 929.50 374.66 875.21 511.52 759.04 602.76 883.20 617.21
00000432 00000162 589.45 124.18 421.16 644.91 775.99 348.17 944.75 367.81 892.20 504.55 768.52 597.75 890.05 613.53
00000433 00000163 598.53 120.86 416.93 639.09 786.25 342.26 954.72 361.37 906.25 494.35 784.69 592.90 904.48 607.85
00000434 00000164 602.06 117.15 416.46 640.01 791.45 339.10 961.74 362.20 914.42 489.12 788.25 587.10 913.16 605.31
00000435 00000165 601.45 111.77 416.95 641.62 794.49 334.03 963.70 361.10 916.27 484.18 786.17 580.43 911.09 602.36
00000436 00000166 597.53 108.76 419.06 639.18 796.37 328.73 961.96 357.93 914.14 479.22 785.92 574.79 905.54 598.49
00000437 00000167 587.11 92.77 425.78 655.36 796.58 326.62 952.94 356.36 914.26 474.16 781.28 569.01 904.86 594.88
00000438 00000168 582.95 89.11 426.56 654.31 791.31 323.49 947.19 353.03 908.68 471.91 776.30 565.20 901.68 590.70
00000439 00000169 574.40 81.50 429.76 658.18 782.76 320.02 939.84 353.69 897.25 469.64 766.62 558.79 893.77 587.34
00000440 00000170 572.37 88.97 424.01 637.03 764.13 321.98 935.91 347.54 885.51 460.43 753.69 556.21 889.58 578.13
00000441 00000171 563.05 78.38 429.14 646.95 757.29 316.91 929.18 347.17 876.33 453.49 749.32 551.66 880.20 576.65
00000442 00000172 555.46 71.60 432.72 655.45 757.90 318.23 916.81 351.93 868.47 447.15 743.40 547.27 872.13 573.78
00000443 00000173 551.39 79.14 435.00 646.25 748.17 311.11 915.99 346.74 861.36 450.29 736.16 545.18 862.47 574.59
00000444 00000174 546.47 78.48 439.06 651.59 742.68 309.22 911.63 346.23 855.26 451.29 728.34 544.88 855.06 575.54
00000445 00000175 542.02 77.63 439.11 656.12 736.21 311.83 905.76 348.80 848.40 454.09 720.56 547.17 847.41 577.54
00000446 00000176 540.83 82.75 434.21 654.66 729.63 312.78 900.16 349.67 839.91 457.68 714.04 550.90 840.51 580.92
00000447 00000177 538.15 85.31 432.22 656.82 723.50 315.01 895.56 351.37 833.25 464.58 706.64 555.87 835.05 585.37
00000448 00000178 536.83 91.25 430.35 653.86 715.18 316.63 892.79 351.56 827.78 469.07 699.25 561.37 831.48 589.60
00000449 00000179 537.28 96.35 427.85 653.41 710.62 321.56 888.42 355.46 821.71 474.38 695.42 565.01 827.84 592.21
00000450 00000180 540.49 104.97 424.14 647.93 714.64 327.72 888.78 359.45 823.45 479.28 698.63 571.61 827.26 596.91
00000451 00000181 544.20 111.56 422.06 645.06 718.08 336.64 891.66 366.83 828.75 488.95 704.36 579.66 832.95 603.66
00000452 00000182 547.73 121.49 422.93 637.03 722.24 347.38 893.56 374.80 833.72 493.74 712.82 585.43 840.19 606.91
00000453 00000183 552.34 131.95 421.76 629.00 725.02 358.51 897.32 382.13 836.47 502.21 718.90 592.23 849.84 610.48
00000454 00000184 553.23 136.13 422.59 629.51 727.73 372.25 897.44 393.64 840.41 509.71 722.65 600.31 857.83 616.57
00000455 00000185 557.66 142.32 421.77 628.36 729.20 386.53 895.54 401.51 838.42 522.41 729.47 612.67 859.80 623.86
00000456 00000186 563.31 151.96 417.74 625.69 728.01 397.91 897.05 411.79 835.47 531.07 727.65 620.12 862.33 630.90
00000457 00000187 563.81 159.68 415.37 627.47 725.92 403.85 896.00 417.06 833.96 538.06 725.27 627.99 861.59 638.43
00000458 00000188 566.43 170.61 418.00 615.23 722.17 402.90 896.63 415.79 833.80 546.65 727.69 630.06 853.71 640.19
00000459 00000189 572.87 180.76 414.14 609.07 721.14 409.41 896.81 418.85 833.62 551.34 729.54 637.07 857.71 644.03
00000460 00000190 578.26 183.86 411.57 608.58 723.50 416.60 899.01 424.39 836.07 556.04 735.11 641.85 865.55 647.20
00000461 00000191 583.08 188.20 406.94 605.57 727.52 423.56 899.23 432.87 837.28 562.36 740.02 645.76 867.51 652.35
00000462 00000192 589.43 196.82 400.23 598.01 732.16 429.40 899.93 438.57 838.68 567.41 745.36 649.59 870.33 656.04
00000463 00000193 596.30 206.82 399.41 589.18 737.99 433.70 905.52 442.88 841.37 574.80 750.07 652.78 877.25 659.49
00000464 00000194 603.94 211.11 399.38 595.06 741.66 434.90 910.87 448.19 840.83 579.26 746.89 655.63 871.55 667.08
00000465 00000195 606.65 213.44 400.20 594.12 744.63 440.28 911.55 452.81 841.44 582.63 747.70 658.58 873.05 669.32
00000466 00000196 608.69 216.44 401.40 590.53 748.15 448.22 913.91 459.83 843.57 584.75 748.78 661.32 874.13 671.35
00000467 00000197 612.99 222.78 398.19 584.58 749.89 450.46 916.03 462.24 843.37 586.36 751.42 663.98 876.26 674.35
00000468 00000198 618.38 222.74 396.76 585.95 754.06 448.36 919.18 462.20 845.00 589.28 755.54 666.50 876.56 678.51
00000469 00000199 624.16 222.43 393.56 587.72 756.69 446.43 922.04 460.56 847.69 589.97 759.51 668.50 879.11 680.76
00000470 00000200 625.95 223.35 394.44 587.96 761.22 447.76 924.14 460.63 851.78 591.25 764.99 670.36 882.67 681.57
00000471 00000201 627.09 221.48 396.89 590.81 763.73 447.56 927.83 459.75 855.86 592.08 768.55 670.88 888.35 681.18
00000472 00000202 629.31 222.34 396.40 589.44 764.85 449.59 930.06 459.56 858.71 592.27 772.34 672.06 894.23 680.25
00000473 00000203 629.87 223.25 397.40 589.16 766.08 450.76 932.74 459.11 861.95 593.08 776.62 672.94 900.53 679.55
00000474 00000204 631.98 222.55 397.55 590.89 767.97 455.63 934.86 463.25 865.41 594.13 778.39 673.07 907.77 678.86
00000475 00000205 633.21 224.10 398.28 587.14 768.17 458.30 938.50 464.92 867.95 595.42 780.10 674.40 911.81 679.38
00000476 00000206 631.93 224.63 400.68 587.38 767.99 459.14 940.26 462.76 869.95 597.38 783.50 676.51 915.31 678.86
00000477 00000207 630.84 224.93 403.51 589.28 767.40 461.90 942.11 464.33 872.12 599.05 784.97 677.99 920.05 679.13
00000478 00000208 630.81 222.72 406.79 591.47 768.43 462.71 944.37 463.39 875.56 599.82 789.80 678.78 925.36 678.21
00000479 00000209 632.16 221.21 406.93 591.80 772.49 462.95 947.88 462.54 880.59 602.24 795.19 679.93 928.65 678.32
00000480 00000210 633.59 218.42 408.46 595.24 775.69 462.06 950.18 461.16 885.17 599.35 800.03 680.29 932.12 678.01
00000481 00000211 634.60 217.24 409.59 596.30 777.65 461.19 953.42 459.16 889.30 597.75 803.75 680.09 937.45 676.71
00000482 00000212 635.49 215.96 410.51 596.31 778.28 462.05 956.36 459.62 891.74 597.39 805.21 679.60 941.67 675.87
00000483 00000213 635.60 214.22 411.15 598.65 779.96 461.91 958.06 458.47 894.94 597.29 807.44 680.08 943.38 675.59
00000484 00000214 636.19 213.48 411.59 600.07 780.13 462.70 958.83 458.68 896.37 598.41 806.63 679.63 945.47 674.90
00000485 00000215 634.73 219.31 411.82 598.09 777.80 466.77 959.85 456.24 894.40 597.91 798.54 677.12 944.59 668.49
00000486 00000216 633.14 214.46 414.79 601.11 775.68 461.76 957.79 456.46 893.84 598.65 802.15 678.32 946.83 672.86
00000487 00000217 632.23 217.28 414.35 598.36 773.19 462.28 954.38 455.92 891.01 598.85 801.10 678.20 945.45 671.95
00000488 00000218 630.42 217.89 416.17 599.19 770.88 463.72 951.98 456.46 888.66 599.03 798.70 677.32 945.21 670.35
00000489 00000219 627.11 216.32 417.01 601.03 766.62 466.85 948.74 457.52 882.73 600.26 794.28 679.24 941.30 670.44
00000490 00000220 625.46 215.92 418.41 600.76 762.81 467.08 946.23 458.16 878.10 601.08 789.22 679.06 937.66 670.72
00000491 00000221 623.56 216.09 416.65 602.97 760.25 466.06 940.40 457.00 873.87 602.42 785.69 681.00 931.05 672.66
00000492 00000222 622.94 217.35 412.68 603.05 759.41 464.14 935.24 456.35 869.88 601.70 785.39 682.25 922.89 674.83
00000493 00000223 621.39 217.23 411.75 605.20 758.32 463.42 932.04 455.91 867.18 604.33 783.51 682.46 918.83 675.55
00000494 00000224 619.32 218.43 412.28 606.60 753.02 464.15 927.92 456.43 862.23 604.28 777.67 680.67 918.52 673.80
00000495 00000225 618.03 217.54 410.72 606.52 747.65 462.90 922.56 456.23 854.60 603.16 772.27 678.39 914.44 672.45
00000496 00000226 616.22 219.63 410.46 601.95 742.98 463.27 918.46 455.76 849.50 602.75 766.38 673.11 914.82 666.77
00000497 00000227 612.79 219.79 411.96 601.35 738.68 464.87 914.32 455.85 846.75 603.22 763.22 670.52 915.94 663.15
00000498 00000228 608.98 221.74 412.34 597.41 734.97 465.89 909.94 455.92 842.87 602.57 760.23 667.57 914.84 659.69
00000499 00000229 605.23 223.82 412.75 593.68 728.80 466.88 904.07 455.84 837.58 602.12 753.98 663.18 912.86 654.73
00000500 00000230 600.37 222.86 411.61 593.86 723.48 467.84 897.55 454.78 833.38 601.20 751.05 662.75 909.24 652.64
00000501 00000231 592.64 224.99 415.60 589.49 717.73 468.52 892.10 454.00 827.48 601.34 747.35 663.45 903.14 652.23
00000502 00000232 587.42 221.71 417.69 593.43 711.23 466.23 886.44 452.08 819.33 598.59 742.47 662.93 897.23 651.71
00000503 00000233 581.78 225.35 415.53 592.74 709.10 466.87 882.86 450.79 817.74 600.90 736.79 664.53 894.38 650.41
00000504 00000234 582.25 223.46 415.37 594.24 708.47 466.00 882.17 450.76 816.50 600.32 735.85 664.22 893.29 650.76
00000505 00000235 586.25 221.95 415.05 600.35 705.64 468.23 892.12 450.19 816.49 596.75 738.21 659.53 902.63 646.46
00000506 00000236 586.22 222.08 415.62 601.04 706.44 467.58 892.60 450.85 816.94 596.92 738.04 660.38 900.95 648.45
00000507 00000237 585.05 221.56 414.18 598.85 711.46 464.95 884.54 452.96 817.54 599.64 736.79 666.89 891.26 656.08
00000508 00000238 584.53 221.71 413.90 597.77 712.16 464.39 884.20 453.28 817.56 600.85 736.65 666.33 889.49 656.29
00000509 00000239 584.24 220.48 412.74 600.47 714.30 462.82 884.70 452.91 819.00 599.88 736.98 666.22 888.46 657.04
00000510 00000240 583.92 216.51 411.08 602.06 714.06 462.23 884.86 452.71 819.57 598.87 737.38 667.77 885.83 659.08
00000511 00000241 587.50 216.04 410.01 607.22 710.80 466.22 897.09 455.49 821.44 596.00 737.16 661.85 895.12 655.33
00000512 00000242 590.45 210.46 410.89 610.80 714.18 463.41 902.43 451.91 827.05 592.13 739.47 661.31 899.09 654.15
00000513 00000243 593.85 204.81 412.61 612.43 721.00 451.06 907.95 442.23 834.82 582.95 743.49 655.21 903.36 650.24
00000514 00000244 594.56 199.39 415.73 617.49 726.24 443.55 912.25 434.32 841.79 574.22 750.72 654.55 907.40 649.14
00000515 00000245 603.90 199.84 409.40 616.78 734.69 434.50 915.66 434.16 847.89 570.68 757.84 660.20 903.22 659.18
00000516 00000246 605.66 195.11 411.93 625.06 744.07 430.70 924.05 429.94 859.85 567.25 765.34 660.65 908.82 658.75
00000517 00000247 609.24 188.23 412.48 639.52 752.54 425.23 937.97 426.83 875.89 565.67 772.61 666.08 915.91 665.77
00000518 00000248 612.84 190.62 413.47 641.49 765.98 421.35 951.02 423.89 893.13 565.56 785.64 671.79 921.30 672.21
00000519 00000249 615.34 188.02 420.82 646.24 778.09 422.28 966.29 423.80 913.09 567.31 799.93 674.89 941.02 673.96
00000520 00000250 619.36 189.48 423.77 646.88 788.49 422.45 978.84 425.09 927.04 567.57 807.65 676.43 951.57 676.68
00000521 00000251 624.32 191.49 424.57 649.67 798.73 421.59 984.19 424.23 937.80 566.04 812.07 678.90 954.87 679.58
00000522 00000252 624.17 195.34 425.33 652.24 806.54 425.71 987.09 428.17 944.81 566.47 815.39 680.44 957.56 681.09
00000523 00000253 624.70 198.84 425.53 651.32 809.54 432.73 987.85 434.97 947.53 571.15 819.51 683.97 961.30 684.17
00000524 00000254 624.05 200.14 426.80 651.20 808.70 437.65 989.13 436.23 949.15 574.76 824.58 688.71 967.05 685.61
00000525 00000255 622.14 202.42 428.51 653.53 807.80 440.75 987.78 438.32 949.86 578.34 824.94 692.62 967.52 688.71
00000526 00000256 618.56 216.00 432.49 637.01 803.70 443.22 984.00 443.30 940.56 582.15 825.24 689.52 957.11 689.01
00000527 00000257 615.76 214.66 433.55 642.01 798.86 447.93 980.23 446.74 936.16 584.16 821.12 692.34 955.60 690.63
00000528 00000258 614.81 215.14 434.10 641.21 795.33 448.40 979.99 445.99 933.49 585.66 817.50 695.08 954.31 692.40
00000529 00000259 614.92 200.15 434.24 661.28 798.61 442.11 978.19 441.01 935.81 582.66 818.94 696.24 959.36 693.12
00000530 00000260 616.52 197.85 435.91 660.93 797.26 441.58 981.56 440.04 936.07 581.62 816.71 693.20 962.70 689.62
00000531 00000261 619.25 197.88 433.80 658.22 798.32 439.83 981.39 440.30 933.39 581.00 819.38 693.07 961.06 690.93
00000532 00000262 618.29 195.47 436.39 661.87 798.08 435.54 982.13 437.09 932.85 578.75 816.30 690.53 959.12 689.51
00000533 00000263 620.40 194.57 434.77 660.83 797.94 431.54 982.88 433.45 933.31 575.81 816.33 688.70 958.90 688.05
00000534 00000264 624.33 190.25 431.56 654.96 795.37 424.30 985.28 425.70 931.60 569.49 816.84 681.95 959.86 680.83
00000535 00000265 626.58 182.82 430.77 655.46 792.24 417.63 987.59 419.17 931.01 563.90 816.95 676.30 961.90 675.39
00000536 00000266 628.90 170.94 428.77 661.03 789.02 410.94 986.80 411.79 927.11 559.07 815.12 670.84 959.97 669.49
00000537 00000267 624.82 167.64 431.52 660.11 788.85 405.17 979.70 406.46 921.29 551.29 811.83 662.62 947.94 661.88
00000538 00000268 618.78 158.17 439.26 666.64 784.11 400.21 975.85 403.97 913.60 541.86 804.92 654.37 942.82 655.71
00000539 00000269 615.64 149.14 439.74 664.17 778.82 394.01 971.71 401.38 906.78 537.47 796.87 644.24 935.92 648.83
00000540 00000270 612.72 138.32 434.17 667.55 774.72 385.61 956.63 395.98 895.48 530.03 784.19 636.61 930.03 644.08
00000541 00000271 607.23 130.16 434.80 664.92 769.57 378.61 952.55 391.93 887.55 524.79 776.15 624.88 921.87 634.73
00000542 00000272 603.85 127.44 431.93 661.23 762.23 374.38 947.91 391.97 878.62 518.08 766.25 618.74 914.29 632.31
00000543 00000273 601.83 126.21 427.77 659.64 754.82 378.01 939.34 394.88 868.04 518.40 757.78 615.12 906.70 628.29
00000544 00000274 597.87 128.07 426.74 652.49 746.39 379.30 930.98 392.11 857.88 520.56 750.24 615.01 898.89 625.21
00000545 00000275 591.86 131.71 433.01 647.99 736.68 386.13 927.16 392.59 849.76 518.09 747.96 611.55 898.53 618.67
00000546 00000276 588.57 133.15 434.58 647.10 731.90 386.17 922.78 391.19 844.18 520.46 745.16 612.59 894.83 618.75
00000547 00000277 584.50 131.43 437.24 651.28 728.20 384.59 920.55 388.49 841.83 519.09 742.46 613.27 893.96 618.47
00000548 00000278 583.41 127.90 437.86 651.91 726.38 382.13 920.62 386.06 841.33 516.62 740.46 609.83 895.54 614.99
00000549 00000279 585.46 127.48 438.03 659.29 729.77 380.95 920.78 385.83 843.12 516.64 743.70 612.86 894.20 618.90
00000550 00000280 583.51 119.99 438.15 668.46 737.94 373.95 920.06 386.47 847.40 523.71 741.68 615.73 884.60 626.17
00000551 00000281 584.84 119.75 438.18 669.57 741.75 373.98 922.87 387.62 851.15 524.92 744.67 616.23 886.85 627.56
00000552 00000282 586.48 127.19 439.22 665.15 737.67 383.46 928.20 388.60 853.34 519.99 748.39 617.74 898.80 623.98
00000553 00000283 588.01 129.90 437.12 660.32 738.79 384.16 930.47 388.86 855.60 523.66 750.40 618.98 900.70 624.85
00000554 00000284 588.18 133.02 435.95 658.60 739.11 386.18 930.97 390.24 857.46 525.64 751.31 621.40 900.73 626.79
00000555 00000285 584.54 124.72 435.37 665.01 746.15 380.18 924.33 391.93 858.12 531.29 750.07 620.54 891.81 630.26
00000556 00000286 584.83 124.13 434.12 668.63 747.50 379.48 922.91 391.38 858.22 530.37 749.93 620.00 890.43 629.93
00000557 00000287 585.28 122.38 433.00 670.25 748.12 378.82 922.46 389.37 859.09 530.11 751.91 618.89 891.34 627.56
00000558 00000288 586.97 119.67 430.91 670.21 747.79 376.54 923.56 384.88 861.26 528.01 754.26 616.94 895.17 623.53
00000559 00000289 588.22 118.46 429.56 666.04 747.41 374.36 924.20 381.04 863.02 523.81 755.75 614.66 898.60 619.61
00000560 00000290 590.32 118.31 427.95 663.86 747.19 374.56 924.01 380.40 863.24 522.02 756.40 613.05 900.92 617.11
00000561 00000291 592.73 119.87 425.83 659.19 746.25 374.19 925.22 379.55 862.53 521.37 756.63 612.58 902.08 616.22
00000562 00000292 593.52 119.16 426.47 658.32 744.47 371.96 925.16 377.58 860.44 517.97 755.68 609.89 902.25 613.61
00000563 00000293 593.95 118.87 426.24 657.93 742.27 371.96 924.10 376.72 857.67 517.65 754.72 609.70 901.46 612.69
00000564 00000294 593.91 122.04 426.84 656.62 743.27 374.81 924.67 380.26 857.33 523.76 754.00 611.79 900.26 615.54
00000565 00000295 594.31 125.97 426.21 653.28 744.35 382.44 922.57 387.19 856.29 529.01 755.04 614.05 900.51 617.55
00000566 00000296 594.58 132.67 423.97 642.92 739.85 393.30 919.14 394.71 851.08 532.26 754.03 616.66 900.12 617.77
00000567 00000297 591.70 137.52 427.19 643.59 737.78 396.85 916.94 395.85 850.18 535.98 752.19 619.37 900.82 618.71
00000568 00000298 590.10 143.83 427.16 640.87 733.26 401.31 912.87 397.20 847.17 540.56 749.41 622.64 901.99 619.83
00000569 00000299 586.49 143.82 428.49 644.76 729.03 402.55 908.82 398.65 842.21 543.81 744.24 623.98 899.39 621.53
00000570 00000300 585.57 142.77 426.91 645.24 723.30 402.16 907.38 398.95 837.76 544.60 740.81 625.84 897.69 624.03
00000571 00000301 582.77 137.22 427.55 652.03 721.33 400.59 904.46 398.32 835.50 543.00 739.85 625.34 895.08 624.17
00000572 00000302 580.44 136.03 429.09 651.61 721.38 398.36 904.01 396.31 834.51 542.43 739.41 624.05 892.79 623.09
00000573 00000303 579.60 135.32 429.10 650.78 718.50 396.57 903.45 395.12 832.02 541.28 736.04 622.48 892.14 621.97
00000574 00000304 579.11 133.64 429.51 651.35 717.06 395.42 901.97 395.12 829.93 539.30 734.24 620.65 889.70 621.03
00000575 00000305 578.90 132.35 429.87 652.14 716.19 393.91 901.64 394.85 828.27 539.54 733.00 619.94 887.69 621.36
00000576 00000306 577.64 130.07 431.21 654.54 715.09 392.90 901.65 394.45 827.41 539.52 730.78 619.43 886.49 621.38
00000577 00000307 577.26 130.06 430.91 655.34 713.90 392.51 901.01 393.89 826.64 539.65 729.81 619.82 885.65 621.76
00000578 00000308 576.32 130.57 432.21 655.93 713.85 392.43 901.42 393.93 826.81 540.98 730.17 621.74 885.00 623.85
00000579 00000309 576.65 131.15 432.87 658.35 714.10 394.09 902.22 395.45 827.63 542.78 731.39 625.20 886.00 627.23
00000580 00000310 576.94 136.22 432.98 655.81 715.20 396.57 902.86 396.65 828.84 545.15 732.30 628.66 887.44 629.68
00000581 00000311 577.16 137.36 432.70 655.26 714.56 399.27 903.32 397.93 829.16 548.37 734.30 631.52 890.92 631.18
00000582 00000312 578.17 137.28 433.23 655.71 713.95 400.95 905.58 398.77 830.28 549.84 735.91 634.25 894.72 633.07
00000583 00000313 580.32 138.72 432.36 654.55 714.67 403.27 906.80 399.30 832.67 550.69 738.20 634.79 900.01 632.11
00000584 00000314 584.39 143.73 430.50 646.09 717.02 404.90 908.75 400.26 834.63 551.39 740.30 633.36 903.39 630.15
00000585 00000315 587.05 145.62 429.19 643.87 717.67 406.03 908.82 399.31 835.19 550.85 741.58 633.19 906.44 628.27
00000586 00000316 588.42 150.60 429.07 633.94 720.52 405.44 910.14 398.46 836.91 550.04 743.80 630.55 907.18 625.48
00000587 00000317 589.68 148.72 428.93 634.29 723.59 404.74 910.68 397.71 839.71 548.31 745.45 627.77 907.87 622.59
00000588 00000318 591.16 146.66 428.31 632.61 725.82 403.25 910.37 396.14 841.58 546.50 747.49 625.42 907.80 620.16
00000589 00000319 592.25 142.78 427.62 634.67 726.97 401.86 910.83 393.98 843.00 544.73 749.68 624.31 908.31 618.33
00000590 00000320 593.34 140.13 426.62 636.52 727.44 399.97 910.78 392.36 843.44 542.11 751.42 624.02 908.40 618.14
00000591 00000321 594.08 138.75 425.57 635.92 728.39 399.51 911.07 392.28 843.93 541.89 752.01 622.77 907.99 617.19
00000592 00000322 594.39 138.65 425.56 636.65 729.02 399.78 910.97 391.82 844.81 542.16 753.11 623.56 908.27 617.45
00000593 00000323 594.43 138.79 426.36 638.33 729.45 400.36 910.70 392.06 845.05 542.66 754.49 624.21 908.38 617.74
00000594 00000324 594.41 140.34 425.85 639.18 728.62 401.49 910.94 393.02 845.15 543.46 753.80 625.94 909.14 619.33
00000595 00000325 593.84 139.11 427.94 647.50 727.08 402.51 910.71 393.12 845.00 546.00 754.60 630.94 910.84 623.48
00000596 00000326 593.79 141.66 427.53 646.37 724.95 403.59 910.20 393.37 843.65 548.86 754.68 634.66 910.85 626.62
00000597 00000327 592.41 142.33 427.91 647.93 722.79 404.63 909.92 393.85 842.09 549.23 753.56 636.06 911.76 627.52
00000598 00000328 590.69 140.16 428.28 651.25 720.78 405.11 910.57 394.17 841.83 549.23 752.47 637.16 913.10 628.27
00000599 00000329 589.24 140.20 429.02 654.15 720.70 405.71 909.72 394.62 841.17 549.13 751.64 637.35 913.13 628.32
00000600 00000330 588.46 137.68 429.29 659.27 721.68 405.93 908.10 395.68 840.69 548.29 749.77 635.65 912.59 627.24
00000601 00000331 588.14 136.11 429.16 660.34 722.48 405.10 906.53 396.36 839.25 547.09 747.15 632.40 909.44 625.35
00000602 00000332 587.93 138.68 428.53 657.59 721.86 405.32 905.83 397.17 838.51 545.64 745.23 630.73 908.31 624.25
00000603 00000333 586.97 136.73 427.59 662.03 721.70 405.37 904.36 398.48 838.38 545.41 743.29 631.18 905.87 625.95
00000604 00000334 586.63 138.79 426.82 657.28 721.81 405.91 904.77 400.03 837.88 545.57 741.52 629.64 903.93 625.34
00000605 00000335 586.62 141.88 425.21 652.68 721.65 406.44 904.43 401.83 837.26 545.75 739.90 627.94 902.23 624.73
00000606 00000336 584.73 144.20 426.39 650.22 720.78 408.00 904.57 403.91 836.82 546.77 738.68 627.98 901.68 625.28
00000607 00000337 583.30 147.63 426.40 645.31 719.76 409.23 903.66 405.19 834.68 548.54 737.53 627.89 898.85 625.38
00000608 00000338 583.32 148.06 424.98 643.43 720.27 411.66 904.69 408.62 834.46 549.03 734.38 627.98 894.75 626.56
00000609 00000339 582.93 152.46 422.18 637.53 717.40 416.45 903.98 413.47 831.21 550.32 731.07 628.02 892.50 626.68
00000610 00000340 580.63 151.63 423.32 637.55 716.24 414.33 902.21 410.18 830.18 551.69 731.52 628.64 891.45 626.44
00000611 00000341 575.24 155.22 418.60 637.09 718.53 417.36 896.75 402.55 833.14 553.86 740.33 639.95 891.09 626.53
00000612 00000342 576.23 145.34 425.73 643.77 717.53 407.77 900.49 406.90 830.83 547.78 731.07 624.58 890.65 624.82
00000613 00000343 573.23 150.01 420.40 640.26 719.15 412.39 897.61 400.28 833.83 549.75 740.53 636.04 891.61 624.58
00000614 00000344 572.24 149.73 420.59 635.09 719.56 412.99 897.25 400.05 833.79 549.09 742.15 635.07 891.28 622.98
00000615 00000345 571.44 147.85 419.97 635.03 718.20 412.86 895.15 399.18 832.08 548.48 743.87 636.16 890.12 623.17
00000616 00000346 570.40 147.68 420.28 633.05 717.37 412.81 894.00 399.18 830.55 547.05 743.88 636.73 887.90 623.76
00000617 00000347 569.96 147.83 420.20 634.96 716.94 411.31 893.76 397.99 830.37 547.14 742.94 637.42 886.92 624.73
00000618 00000348 571.77 147.30 419.83 639.18 718.93 409.25 896.22 396.76 833.10 547.71 745.07 640.77 887.17 628.68
00000619 00000349 577.24 140.37 425.17 637.07 723.72 404.23 906.08 402.41 838.69 541.58 740.45 625.51 891.62 625.23
00000620 DELETE   585.80 142.64 420.26 625.65 736.58 394.89 919.83 387.89 856.59 532.45 762.36 623.35 910.04 617.62
00000621 DELETE   592.54 136.60 421.41 630.33 751.65 381.47 935.85 373.59 881.15 523.24 782.27 622.54 924.74 614.76
00000622 00000352 605.79 132.29 417.26 635.98 771.81 371.98 950.78 366.36 906.29 509.95 803.03 616.61 939.32 610.43
00000623 00000353 613.18 128.45 416.47 640.74 789.97 365.94 961.99 361.13 924.95 500.10 812.45 609.19 943.72 603.67
00000624 00000354 616.96 128.26 418.22 639.89 797.82 364.27 969.58 359.34 934.32 497.48 814.09 605.97 948.20 600.62
00000625 00000355 622.16 126.30 414.70 640.84 800.49 361.45 972.97 358.45 936.25 493.86 817.48 604.76 950.35 600.79
00000626 00000356 623.33 128.45 413.53 636.63 801.82 358.73 974.37 357.42 936.73 491.60 819.19 603.87 949.90 601.34
00000627 00000357 624.17 127.50 412.98 634.57 801.52 357.63 975.22 356.06 936.46 489.83 821.25 602.08 952.13 599.10
00000628 00000358 624.27 126.21 413.13 635.74 800.81 354.65 975.79 352.25 936.30 487.50 820.48 600.43 953.47 596.71
00000629 00000359 623.23 122.29 413.55 635.89 798.15 353.43 974.00 350.61 933.76 485.89 818.92 597.11 953.85 593.06
00000630 00000360 621.20 111.99 412.54 641.47 792.23 357.32 967.95 354.32 927.33 484.90 816.06 591.67 954.20 587.16
00000631 00000361 614.41 112.78 414.30 635.43 784.94 357.89 961.44 353.05 918.58 480.95 810.61 588.36 950.26 582.29
00000632 00000362 612.01 113.08 414.53 637.78 773.80 354.99 951.59 350.41 905.78 481.01 800.07 589.20 941.28 583.25
00000633 00000363 603.98 109.25 416.74 643.00 760.66 360.62 940.71 353.75 889.46 485.50 788.18 590.20 936.23 584.86
00000634 00000364 599.29 107.03 417.30 643.77 750.41 361.04 930.24 354.35 877.28 483.89 782.67 590.52 928.13 585.80
00000635 00000365 595.17 108.42 416.84 640.31 739.91 363.20 920.25 354.93 865.30 484.14 774.18 587.96 921.08 582.56
00000636 00000366 592.78 108.08 415.58 638.40 731.83 369.23 913.32 358.29 855.01 486.54 766.78 588.96 915.87 581.75
00000637 00000367 587.33 113.97 417.92 637.48 724.24 375.18 909.14 364.95 844.90 493.34 758.83 591.74 910.34 585.07
00000638 00000368 582.37 123.10 413.40 633.97 722.41 378.36 901.62 369.88 840.69 502.29 751.98 604.17 897.50 596.09
00000639 00000369 575.94 130.52 415.32 628.61 716.71 384.22 893.46 375.82 834.90 505.63 747.56 607.59 891.69 599.53
00000640 00000370 572.56 133.82 414.44 627.07 714.97 385.04 888.82 377.51 830.62 508.67 746.72 610.64 886.60 603.20
00000641 00000371 571.14 134.93 415.30 629.86 715.64 385.80 889.03 378.44 831.25 510.91 747.61 613.59 886.31 605.95
00000642 00000372 570.80 136.13 414.78 630.81 716.42 387.51 889.46 378.61 833.21 513.78 748.53 615.92 887.06 607.26
00000643 00000373 569.79 136.20 414.44 632.88 716.84 390.10 888.86 380.94 833.65 515.88 748.22 617.43 886.53 608.61
00000644 00000374 567.75 137.50 416.50 631.56 712.74 394.40 888.00 383.15 831.57 519.81 744.63 619.29 887.73 609.02
00000645 00000375 566.08 140.30 417.05 631.15 709.06 399.97 885.78 385.98 827.63 524.87 741.71 622.20 887.83 609.43
00000646 00000376 564.85 142.48 414.28 631.95 706.35 404.69 881.20 388.47 822.65 530.62 741.67 629.15 883.69 614.11
00000647 00000377 564.52 146.38 412.39 624.52 699.87 409.39 876.54 389.01 815.91 535.53 741.40 634.13 882.84 615.75
00000648 00000378 563.84 146.82 412.43 624.70 698.14 411.44 874.83 390.58 812.36 537.35 740.21 636.26 880.95 617.40
00000649 00000379 562.98 149.28 413.48 629.40 698.93 412.82 873.17 392.46 811.48 538.99 738.93 638.51 878.28 619.97
00000650 00000380 562.89 154.20 414.40 626.97 698.90 415.28 871.82 394.33 808.85 542.12 737.93 641.09 876.51 621.88
00000651 00000381 565.18 156.80 414.14 627.70 700.70 418.78 871.93 396.35 810.46 544.38 740.75 644.25 878.68 623.82
00000652 00000382 567.28 158.90 413.17 626.22 702.96 419.67 875.48 397.25 813.57 546.38 743.66 646.43 880.91 625.90
00000653 00000383 568.81 159.75 412.89 622.25 704.66 421.34 879.67 398.65 817.27 546.81 746.44 645.73 884.69 624.90
00000654 00000384 570.90 158.94 413.84 621.03 706.82 421.38 882.91 398.95 821.11 546.95 747.77 643.35 888.00 622.70
00000655 00000385 573.66 159.43 414.62 623.14 709.11 421.93 885.94 399.06 824.45 548.12 750.03 644.33 891.95 623.26
00000656 00000386 576.40 159.72 415.52 625.33 711.88 422.81 891.90 400.19 829.47 551.19 751.05 645.62 897.45 625.16
00000657 00000387 581.73 156.23 420.96 628.07 713.85 420.38 898.22 407.68 832.41 550.54 746.20 632.76 905.43 622.99
00000658 00000388 585.86 160.22 418.56 628.97 715.47 424.20 901.34 411.90 834.79 553.54 748.23 638.02 907.68 628.89
00000659 00000389 588.29 161.45 417.93 628.89 717.36 428.64 903.26 416.49 836.10 556.32 749.64 641.80 907.31 633.20
00000660 00000390 587.60 165.62 418.92 622.88 717.02 431.58 906.47 419.35 836.51 559.72 747.95 643.47 908.07 635.18
00000661 00000391 587.55 166.69 419.87 622.97 716.06 432.80 907.87 420.84 836.27 563.07 747.13 645.48 908.82 637.40
00000662 00000392 587.76 169.75 418.65 619.81 715.67 433.99 907.53 422.75 835.59 564.76 746.14 645.53 907.95 638.11
00000663 00000393 586.07 172.26 419.96 621.93 715.83 434.94 907.04 425.26 835.18 565.46 745.15 646.08 906.36 640.06
00000664 00000394 583.92 173.29 420.88 623.15 715.32 435.28 906.33 425.88 835.22 565.50 743.11 646.29 904.55 640.65
00000665 00000395 582.81 175.08 419.57 621.43 713.20 435.75 905.44 426.50 833.08 567.66 740.09 646.86 902.33 641.45
00000666 00000396 581.91 175.35 418.36 620.84 710.54 436.11 903.30 426.74 830.07 569.59 737.99 647.14 901.05 641.69
00000667 00000397 580.78 178.90 416.83 619.11 707.94 438.23 901.21 428.46 827.41 571.41 736.23 648.80 899.21 643.03
00000668 00000398 579.84 179.31 414.85 617.46 703.96 442.24 901.38 431.27 823.85 573.76 733.41 651.67 897.74 644.85
00000669 00000399 568.85 189.25 416.92 609.73 706.27 448.77 885.62 429.11 821.17 577.27 740.12 664.59 883.50 647.58
00000670 00000400 567.16 189.93 416.80 610.63 703.49 449.23 882.22 428.81 818.50 578.05 738.94 665.30 881.58 647.81
00000671 00000401 576.12 180.91 416.89 619.74 701.71 445.16 894.83 434.60 819.05 574.84 733.10 653.83 890.87 647.63
00000672 00000402 576.38 181.44 416.85 620.33 702.61 443.43 895.59 434.07 819.50 574.41 733.97 654.80 890.60 649.60
00000673 00000403 566.49 189.81 418.81 613.68 703.02 446.51 883.07 429.84 817.83 578.75 740.08 667.15 880.94 652.49
00000674 00000404 566.42 190.37 418.12 610.31 702.81 446.00 883.35 429.38 817.52 578.95 739.96 666.12 880.71 651.50
00000675 00000405 566.17 191.09 417.62 607.48 702.70 446.13 882.46 429.31 816.95 578.82 739.86 665.16 879.73 650.43
00000676 00000406 565.86 191.14 417.69 610.39 702.90 446.82 882.06 430.30 816.34 579.58 738.01 665.63 878.77 651.13
00000677 00000407 566.01 191.71 418.13 614.56 704.85 446.18 881.56 430.75 816.95 579.42 737.38 665.63 877.64 651.97
00000678 00000408 566.48 191.34 416.39 616.57 705.42 444.87 880.59 431.16 815.55 579.50 737.47 666.26 875.36 653.91
00000679 00000409 565.72 189.91 416.87 621.22 705.42 443.88 880.32 431.19 815.18 579.22 735.79 666.18 874.36 654.65
00000680 00000410 566.07 188.89 416.78 623.25 705.51 443.39 879.99 430.97 815.15 578.65 735.10 665.57 874.29 654.20
00000681 00000411 565.11 187.31 417.67 623.14 705.25 443.06 880.38 430.32 815.25 578.13 734.97 664.55 875.06 652.86
00000682 00000412 563.79 186.56 418.25 620.62 702.88 444.44 879.47 430.25 813.24 579.12 734.50 663.70 876.22 650.82
00000683 00000413 562.42 184.01 417.34 618.24 699.50 445.65 878.35 429.73 810.85 579.95 733.37 662.93 876.89 648.65
00000684 00000414 561.97 184.62 416.66 615.58 698.26 445.05 877.65 429.81 809.38 579.90 731.99 662.27 875.56 648.68
00000685 00000415 559.27 184.83 418.10 617.21 697.43 445.36 876.07 429.59 808.65 580.63 730.17 662.56 873.86 648.50
00000686 00000416 556.45 186.54 419.42 616.09 696.56 444.95 875.28 428.88 808.10 581.46 728.61 662.05 872.38 647.86
00000687 00000417 554.50 187.25 420.99 619.72 696.34 445.58 873.82 429.74 807.40 580.68 727.01 662.33 871.00 648.59
00000688 00000418 552.42 188.59 421.69 617.61 695.28 446.17 872.42 430.45 805.77 581.77 725.94 661.57 869.73 648.06
00000689 00000419 551.33 187.86 421.23 619.08 694.69 445.81 870.71 430.67 804.46 581.99 724.33 660.32 868.47 647.31
00000690 00000420 550.32 185.72 420.96 618.76 693.87 445.29 870.00 431.27 802.97 581.63 722.64 659.45 865.33 647.56
00000691 00000421 550.76 184.44 420.03 619.32 694.26 443.96 869.36 429.83 802.61 581.15 723.08 659.08 864.52 647.15
00000692 00000422 551.30 182.03 419.28 620.41 693.36 442.15 869.38 428.85 801.26 579.79 722.04 658.19 863.72 646.94
00000693 00000423 550.99 179.98 419.66 622.70 693.39 441.06 868.91 428.15 800.80 577.69 721.10 656.86 863.38 645.97
00000694 00000424 551.42 176.62 419.04 625.85 692.90 439.75 868.68 427.15 800.06 575.60 720.12 656.59 862.54 645.91
00000695 00000425 552.21 177.18 418.21 624.96 693.64 437.78 868.65 425.96 800.23 574.16 720.66 656.74 861.20 646.71
00000696 00000426 552.82 174.67 417.38 626.95 693.15 437.16 868.79 424.56 800.39 572.56 720.61 656.20 862.46 645.44
00000697 00000427 553.28 172.83 416.17 623.09 691.17 435.39 867.96 422.22 798.47 570.39 719.01 653.98 861.26 642.91
00000698 00000428 553.58 171.16 414.79 620.84 689.11 433.92 866.43 420.31 797.32 567.80 717.90 652.60 860.65 641.38
00000699 00000429 552.84 168.70 414.63 624.55 688.36 430.78 864.91 418.53 795.92 564.01 716.24 651.41 858.73 641.15
00000700 00000430 551.91 166.42 413.94 627.22 689.06 428.76 863.34 417.39 795.48 561.50 716.82 650.74 856.41 641.11
00000701 00000431 551.68 167.02 412.81 624.56 687.79 427.55 861.38 415.36 794.22 559.45 716.70 648.94 856.76 638.56
00000702 00000432 551.86 165.63 411.22 625.34 687.50 426.32 859.83 414.58 793.39 558.03 715.88 647.27 856.05 637.31
00000703 00000433 551.98 165.80 408.86 622.09 688.50 427.45 862.13 414.19 795.27 557.17 715.50 646.16 857.40 635.41
00000704 00000434 551.58 167.74 407.95 616.90 689.71 429.06 861.81 416.04 795.39 555.07 715.25 642.84 857.20 632.29
00000705 00000435 552.11 165.53 408.20 618.00 687.80 425.34 861.04 412.42 793.34 554.98 714.98 641.75 857.62 630.92
00000706 00000436 552.21 164.93 409.53 618.99 687.99 425.66 859.42 412.23 792.98 555.18 715.91 641.21 857.91 630.03
00000707 00000437 551.77 166.26 410.25 617.06 688.85 422.83 859.10 410.17 792.76 554.11 716.16 639.28 857.11 628.55
00000708 00000438 552.26 166.78 410.48 616.64 689.47 421.39 858.71 409.03 792.52 552.65 716.57 637.61 857.30 626.83
00000709 00000439 551.98 167.34 410.78 615.67 688.33 420.53 857.33 408.00 790.97 552.52 715.44 636.00 856.72 625.12
00000710 00000440 552.28 167.14 409.55 617.06 685.99 420.84 854.71 408.66 787.64 552.57 713.20 635.84 855.46 625.19
00000711 00000441 552.46 167.04 408.14 616.00 681.69 422.43 851.73 410.37 782.84 552.69 710.59 635.97 853.70 625.53
00000712 00000442 552.40 167.64 406.53 615.19 678.43 424.69 848.61 411.99 779.94 553.84 708.64 636.86 852.40 626.02
00000713 00000443 552.09 172.19 407.74 613.42 677.04 426.08 848.87 413.47 778.12 555.44 706.55 637.14 853.47 626.38
00000714 00000444 553.09 176.76 407.49 610.72 677.59 427.15 850.06 416.16 777.46 556.38 706.39 638.01 853.24 628.46
00000715 00000445 553.82 179.56 408.14 608.58 680.36 428.56 852.67 418.36 780.03 557.85 708.57 639.68 853.86 630.68
00000716 00000446 555.60 181.90 406.96 608.10 682.71 429.59 854.53 419.68 781.67 559.20 710.30 641.61 854.57 632.80
00000717 00000447 554.86 186.08 408.13 602.26 683.80 431.18 855.21 420.87 783.33 561.62 711.85 642.13 854.13 633.26
00000718 00000448 555.57 186.21 407.38 601.54 684.10 432.01 854.98 421.27 783.22 562.50 713.07 642.39 854.32 633.16
00000719 00000449 555.55 185.38 407.90 597.23 682.53 432.25 854.66 420.35 782.06 562.43 712.81 640.28 855.09 630.07
00000720 00000450 554.95 179.90 408.84 597.66 680.45 430.30 853.79 417.86 779.62 560.54 711.55 637.12 855.01 626.40
00000721 00000451 554.53 181.76 408.89 597.15 681.19 429.91 853.72 417.96 780.09 560.72 711.57 637.58 854.11 627.39
00000722 00000452 554.11 183.32 408.16 596.43 681.25 431.09 853.88 419.91 780.26 562.50 710.73 638.76 852.97 629.38
00000723 00000453 553.28 186.86 407.31 593.61 680.32 432.24 853.10 420.22 780.68 563.39 710.31 638.90 853.36 628.98
00000724 00000454 550.61 190.81 407.91 589.30 677.32 432.86 851.74 420.69 779.50 566.25 707.61 639.09 851.44 629.68
00000725 00000455 549.67 192.64 407.32 587.55 674.11 434.77 851.13 423.29 778.60 571.39 706.05 641.23 849.57 632.74
00000726 00000456 546.95 198.69 409.20 584.03 672.32 438.42 850.03 426.09 778.82 577.34 705.41 644.59 848.34 635.68
00000727 00000457 545.79 205.46 409.09 577.37 670.24 443.08 849.83 428.09 779.70 582.11 706.76 647.48 849.86 636.57
00000728 00000458 546.44 206.92 407.54 577.44 671.11 447.03 851.12 431.55 781.08 587.06 708.64 650.15 851.44 638.85
00000729 00000459 547.93 217.53 405.80 570.29 674.97 454.44 853.20 437.64 784.69 593.94 711.24 652.60 853.45 639.88
00000730 00000460 547.21 227.02 406.99 560.80 675.02 459.69 854.71 441.73 786.30 599.13 711.72 654.47 854.14 640.53
00000731 00000461 547.58 231.48 407.30 556.21 676.39 461.98 856.38 445.51 787.06 603.73 712.93 657.47 852.83 644.74
00000732 00000462 551.12 233.42 404.10 552.97 681.56 467.94 860.30 451.59 789.66 603.72 711.64 656.98 852.46 644.86
00000733 00000463 556.69 237.90 401.57 548.79 686.50 466.39 859.11 453.54 789.37 603.72 715.53 659.34 856.25 649.20
00000734 00000464 556.22 236.48 402.68 551.07 687.23 464.20 861.05 450.13 791.95 605.02 717.92 660.11 859.28 648.68
00000735 00000465 557.56 232.70 403.65 555.33 687.04 464.05 863.42 449.18 794.91 604.93 719.78 662.39 861.16 650.01
00000736 00000466 558.94 231.54 405.48 556.49 688.26 463.13 865.53 448.55 795.77 604.04 719.92 662.01 862.33 649.65
00000737 00000467 558.54 228.72 408.73 560.24 688.80 460.78 867.40 446.16 797.52 603.67 723.09 664.22 863.66 651.55
00000738 00000468 559.15 225.42 410.48 563.75 688.85 459.62 869.34 445.00 799.41 604.04 724.19 665.91 865.58 653.10
00000739 00000469 555.11 222.42 414.61 572.20 690.85 461.78 870.84 443.06 804.06 604.60 724.51 664.34 862.35 649.38
00000740 00000470 560.79 222.64 410.83 570.17 691.32 458.56 871.04 443.75 802.08 604.02 726.51 667.49 866.59 654.39
00000741 00000471 560.55 223.16 411.30 572.43 692.75 459.61 870.97 444.72 803.13 603.02 726.70 667.95 866.55 654.86
00000742 00000472 559.08 222.48 412.42 575.60 694.08 459.05 870.40 444.12 804.21 602.10 728.02 668.63 865.07 655.48
00000743 00000473 558.93 221.86 412.19 575.69 693.97 458.11 870.26 443.32 803.77 602.63 728.00 668.99 864.04 655.87
00000744 00000474 557.37 219.91 414.22 578.17 692.59 457.45 869.87 442.72 803.02 602.29 726.15 667.94 864.28 654.87
00000745 00000475 556.97 219.05 413.67 578.22 692.22 455.02 869.92 441.19 803.12 602.37 726.80 667.75 864.54 655.39
00000746 00000476 552.71 215.74 416.20 584.36 693.36 455.47 872.12 438.21 807.40 599.64 725.75 664.70 863.81 650.61
00000747 00000477 552.08 207.61 416.44 587.45 693.88 452.69 873.66 435.35 807.28 598.38 725.88 664.08 863.44 650.08
00000748 00000478 551.74 201.53 417.20 592.52 692.73 448.99 874.17 433.44 805.35 596.03 723.89 661.90 863.64 649.36
00000749 00000479 551.62 198.70 416.33 592.82 693.12 445.73 872.76 431.73 803.82 592.93 721.67 658.38 860.12 647.33
00000750 00000480 552.41 199.55 416.04 596.25 694.50 445.70 871.41 431.40 804.51 591.46 720.17 655.67 861.44 644.48
00000751 00000481 552.22 197.48 416.08 596.99 695.54 444.90 870.59 430.46 804.49 589.56 722.27 655.44 861.27 644.01
00000752 00000482 549.83 194.64 417.36 595.70 693.98 442.06 869.39 427.83 802.82 588.19 725.68 657.50 858.25 646.01
00000753 00000483 549.37 193.87 417.33 595.14 690.68 438.94 869.36 424.61 800.88 586.06 726.48 658.55 858.80 646.91
00000754 00000484 548.53 192.43 417.41 592.90 688.29 435.35 868.04 422.70 797.04 582.35 723.79 655.69 856.01 645.62
00000755 00000485 550.35 183.87 415.73 598.69 688.09 433.85 865.85 422.23 793.82 578.69 723.16 654.41 854.09 645.06
00000756 00000486 550.74 179.44 415.75 601.97 687.49 431.90 863.83 418.93 792.53 575.61 721.19 651.71 853.76 641.12
00000757 00000487 552.71 172.25 413.82 609.04 687.76 430.91 862.91 415.12 793.71 571.56 723.50 650.62 857.21 637.44
00000758 00000488 554.31 163.03 412.51 617.90 690.56 423.95 864.30 405.77 798.28 564.42 728.07 648.09 862.49 632.31
00000759 00000489 554.83 148.21 413.17 632.48 693.61 412.21 868.43 392.08 805.97 552.20 732.34 645.56 868.35 628.14
00000760 00000490 555.76 138.73 414.38 624.73 693.66 403.04 875.27 384.33 810.89 537.86 734.29 631.23 876.21 614.36
00000761 00000491 556.72 125.52 417.39 633.02 696.79 388.70 880.37 379.34 817.40 519.84 727.26 612.81 878.67 603.31
00000762 00000492 556.15 127.23 417.25 629.67 701.95 370.57 882.63 366.68 821.18 507.50 724.49 598.10 875.14 592.88
00000763 00000493 558.12 124.12 414.74 629.14 701.02 359.70 884.25 358.22 820.05 501.98 726.61 597.24 870.84 593.51
00000764 00000494 560.09 118.51 414.46 629.66 700.89 355.63 887.86 355.38 821.20 499.39 727.57 594.79 871.38 592.05
00000765 00000495 559.60 121.93 416.28 624.70 704.29 352.60 892.36 349.25 828.58 495.87 731.26 593.58 874.31 588.66
00000766 00000496 560.94 119.78 416.94 633.88 712.85 348.86 900.01 344.59 842.13 490.15 735.02 592.49 881.53 587.21
00000767 00000497 567.78 118.52 415.42 633.89 724.12 349.80 908.84 344.68 854.84 487.85 741.26 588.24 891.99 582.77
00000768 00000498 573.46 122.42 414.06 625.82 733.46 352.65 915.99 342.41 865.89 488.31 756.30 588.70 905.28 578.62
00000769 00000499 578.02 119.53 413.09 624.09 741.32 353.27 921.18 342.40 874.00 485.31 764.85 585.13 913.56 574.69
00000770 00000500 579.93 120.81 414.42 618.36 746.25 353.54 926.62 340.38 882.60 484.74 771.22 585.51 919.30 573.62
00000771 00000501 580.42 109.97 418.87 634.55 751.94 355.08 929.42 344.21 884.71 490.68 781.83 586.64 925.84 578.79
00000772 00000502 586.73 112.97 414.20 636.02 758.01 355.58 933.02 342.88 891.83 489.20 790.62 590.88 928.89 581.47
00000773 00000503 591.36 113.77 411.66 633.74 760.34 355.26 937.29 341.71 895.40 490.43 794.26 591.93 932.46 581.76
00000774 00000504 598.51 116.04 409.53 629.70 760.62 347.81 939.65 342.11 890.77 485.39 791.87 590.09 925.74 583.48
00000775 00000505 601.63 115.63 409.61 630.26 763.32 347.15 942.30 341.96 893.56 484.67 792.45 588.27 928.74 582.17
00000776 00000506 604.84 115.90 409.69 633.01 769.05 345.66 943.50 342.59 897.25 483.32 796.53 588.20 927.81 583.81
00000777 00000507 608.50 117.41 408.76 634.48 774.20 345.33 946.07 342.46 903.16 481.80 801.08 589.94 930.11 585.81
00000778 00000508 610.70 117.69 409.57 633.76 778.43 346.70 950.37 342.82 907.64 483.64 804.42 590.83 932.53 585.82
00000779 00000509 612.73 118.35 411.68 627.69 781.61 349.44 958.55 345.39 912.61 485.62 806.72 590.08 939.77 584.90
00000780 00000510 615.54 119.01 411.94 624.55 786.44 350.84 961.69 346.22 917.98 484.77 811.27 589.34 943.55 583.81
00000781 00000511 617.10 118.53 412.88 635.25 789.68 349.56 962.39 347.81 920.05 486.35 811.81 591.67 942.22 588.19
00000782 00000512 618.93 118.45 411.78 639.37 790.77 348.05 964.48 347.00 922.86 485.60 811.71 594.76 943.15 591.93
00000783 00000513 618.44 114.24 412.77 642.86 790.61 347.09 964.00 345.90 922.82 483.69 811.54 592.87 943.98 589.80
00000784 00000514 617.22 112.75 411.26 638.87 787.31 350.02 959.63 346.70 917.71 483.64 813.28 593.46 940.37 588.64
00000785 00000515 616.24 115.91 410.89 628.64 778.85 350.03 958.93 343.63 910.17 485.37 812.68 593.82 942.17 586.14
00000786 00000516 614.99 117.28 411.34 625.96 772.29 349.95 954.39 343.35 902.78 484.43 806.86 591.67 940.27 583.79
00000787 00000517 614.45 115.75 410.30 632.71 767.03 349.12 949.67 345.52 894.52 488.33 798.28 592.28 931.04 587.10
00000788 00000518 612.39 117.88 410.58 633.71 761.82 346.15 945.00 344.51 887.28 488.88 790.48 591.64 922.94 588.15
00000789 00000519 610.62 116.05 409.86 631.62 756.82 345.72 944.91 344.90 883.88 489.37 786.01 591.30 923.25 588.69
00000790 00000520 605.46 109.75 414.72 628.98 755.52 350.29 941.85 345.51 882.42 489.89 784.89 586.15 931.83 582.87
00000791 00000521 606.56 107.12 414.01 634.79 757.35 349.06 943.39 345.66 884.00 488.52 784.67 587.22 932.15 585.07
00000792 00000522 611.39 113.81 410.43 635.24 758.10 342.00 947.60 342.66 884.78 487.38 785.52 591.74 922.02 590.43
00000793 00000523 609.19 110.56 413.16 629.02 761.76 347.95 948.20 345.64 888.99 489.46 789.05 587.61 934.52 586.03
00000794 00000524 610.21 109.09 414.61 629.16 765.99 349.44 950.67 346.32 892.83 491.14 792.81 587.84 936.93 585.51
00000795 00000525 610.93 104.15 417.16 639.11 774.29 356.48 953.08 353.07 898.74 490.31 796.36 588.41 939.86 585.59
00000796 00000526 613.04 105.43 418.27 647.75 777.72 351.66 957.07 348.38 906.89 484.60 803.48 592.01 935.11 587.33
00000797 00000527 616.10 109.92 416.65 643.85 783.78 347.59 960.85 349.67 911.72 484.50 804.00 590.79 936.18 590.65
00000798 00000528 617.69 111.68 415.66 642.84 785.69 346.02 962.72 349.30 913.87 485.38 805.34 592.51 936.26 593.44
00000799 00000529 618.46 112.20 416.23 644.92 784.79 345.18 964.66 348.72 914.56 486.07 804.18 593.91 937.24 595.07
00000800 00000530 620.68 113.04 416.47 643.77 785.88 345.30 967.07 348.45 916.11 487.81 807.24 595.80 938.27 596.68
00000801 00000531 623.68 111.78 415.03 642.61 786.28 347.50 970.20 349.16 917.61 489.40 812.64 596.26 944.80 595.49
00000802 00000532 623.38 111.96 417.30 642.87 788.57 348.73 973.62 349.87 921.35 491.40 814.37 596.43 949.79 595.20
00000803 00000533 624.78 114.25 416.41 643.99 790.67 349.99 972.80 350.70 921.11 492.19 815.51 599.04 947.52 597.28
00000804 00000534 624.35 115.73 416.60 642.84 789.59 350.97 973.36 352.14 921.42 493.59 813.64 600.48 947.96 599.19
00000805 00000535 624.36 118.30 417.35 637.52 785.98 348.34 975.36 349.72 921.42 494.50 810.30 599.83 950.51 599.04
00000806 00000536 622.33 118.94 418.77 637.40 783.30 348.30 974.15 349.38 919.09 494.67 808.58 600.76 949.24 599.60
00000807 00000537 618.53 118.34 420.30 640.53 783.38 346.61 970.29 348.01 917.17 493.31 807.49 599.85 943.60 598.93
00000808 00000538 615.17 119.40 418.69 640.28 781.44 346.87 965.32 348.70 913.47 493.71 806.33 600.72 938.00 600.24
00000809 00000539 614.44 121.84 414.67 638.12 777.68 350.13 961.00 350.91 910.15 496.27 806.75 604.58 936.75 603.21
00000810 00000540 613.35 123.58 412.81 638.19 771.95 355.77 955.16 353.65 904.20 499.79 804.86 607.91 935.54 604.15
00000811 00000541 609.24 127.49 415.46 640.21 764.55 361.20 949.52 356.64 898.11 503.18 799.13 612.81 934.04 607.30
00000812 00000542 603.26 128.63 420.62 643.92 761.68 364.63 945.88 361.23 893.26 509.34 793.79 616.49 930.16 611.99
00000813 00000543 601.27 128.13 422.28 645.27 759.87 362.75 943.77 359.79 888.62 510.01 790.81 616.15 925.34 611.93
00000814 00000544 601.72 125.55 422.08 652.19 758.74 362.72 942.36 360.37 887.24 509.66 787.10 617.45 922.05 613.80
00000815 00000545 600.62 122.28 420.87 655.44 756.84 364.27 938.50 364.39 883.21 510.08 780.88 616.08 915.46 614.74
00000816 00000546 600.09 121.71 420.27 659.49 754.91 365.13 934.95 365.28 878.43 511.45 779.94 615.85 912.80 614.50
00000817 00000547 600.18 123.73 420.25 657.74 754.27 366.93 932.57 366.31 874.82 513.68 779.52 615.44 913.55 613.27
00000818 00000548 599.20 124.15 422.42 655.13 752.00 368.85 932.70 368.11 874.02 514.44 778.33 615.33 916.29 613.13
00000819 00000549 600.00 124.36 422.80 653.66 750.77 370.68 934.75 370.98 875.39 515.88 777.08 617.61 918.86 616.45
00000820 00000550 601.44 127.38 422.62 648.53 749.83 371.65 939.43 370.57 877.89 517.87 777.38 618.90 924.37 616.50
00000821 00000551 601.84 127.07 423.05 650.03 751.62 370.63 941.64 370.79 879.71 518.11 777.39 618.59 924.97 617.20
00000822 00000552 601.82 125.78 422.49 650.06 755.26 370.81 941.60 370.65 881.79 519.06 780.74 618.08 923.29 616.39
00000823 00000553 601.05 127.69 423.97 648.90 756.70 373.15 942.73 370.46 884.73 521.80 785.18 620.16 928.12 616.26
00000824 00000554 601.39 129.55 423.69 644.95 758.60 374.27 945.13 370.78 888.26 520.52 788.06 619.51 933.70 614.80
00000825 00000555 602.26 132.85 423.40 640.80 759.67 374.91 944.92 370.91 889.12 520.68 788.98 618.91 934.09 613.83
00000826 00000556 601.73 130.94 423.14 643.27 760.85 376.06 941.69 372.23 888.02 521.45 789.18 618.75 931.05 613.87
00000827 00000557 600.74 122.72 422.34 652.13 761.31 384.38 936.57 378.04 884.48 522.96 788.45 620.97 926.73 614.01
00000828 00000558 599.64 123.04 421.37 658.51 764.18 378.93 936.41 375.30 885.76 521.30 787.56 622.81 919.00 618.57
00000829 00000559 599.51 128.37 424.03 658.18 767.92 372.09 943.40 371.15 893.30 520.13 786.85 620.42 925.78 618.32
00000830 00000560 604.04 131.86 423.53 654.98 774.60 372.78 950.39 371.62 904.73 515.47 794.61 618.94 938.49 616.35
00000831 00000561 609.30 132.90 421.10 652.26 783.69 372.53 958.77 370.13 918.18 511.27 802.93 618.19 945.51 614.70
00000832 00000562 614.07 131.82 419.13 650.55 790.87 372.30 965.70 367.57 928.98 509.66 807.05 617.10 949.44 611.84
00000833 00000563 616.98 133.04 417.03 647.12 795.97 373.25 968.54 365.37 936.79 507.92 810.20 616.68 951.20 609.18
00000834 00000564 615.14 127.26 415.72 650.63 797.30 380.34 965.13 370.80 935.06 511.09 811.34 617.38 949.15 608.55
00000835 00000565 608.80 132.63 417.44 642.85 788.37 386.51 954.27 377.41 920.39 518.36 807.90 618.81 943.21 610.09
00000836 00000566 601.69 141.67 422.02 638.37 769.56 392.26 943.69 378.12 901.62 530.98 794.60 625.52 938.52 612.97
00000837 00000567 594.44 153.26 425.92 627.55 757.35 400.26 933.61 385.29 883.29 541.44 784.25 629.80 929.71 617.24
00000838 00000568 594.94 155.68 420.89 630.38 746.31 413.35 922.41 398.72 867.42 545.74 772.56 633.65 922.28 622.38
00000839 00000569 593.34 160.03 418.46 627.89 736.26 424.49 916.97 412.85 854.88 550.23 759.93 635.90 916.88 627.50
00000840 00000570 589.54 161.01 421.90 632.79 729.28 428.38 914.70 417.28 849.62 556.38 754.20 640.33 914.78 632.64
00000841 00000571 588.28 165.53 421.05 632.48 723.87 432.10 910.85 419.92 844.00 565.51 749.54 643.80 910.55 635.61
00000842 00000572 587.36 167.18 420.08 634.13 719.90 435.32 908.86 423.45 840.61 571.37 744.98 646.52 908.26 638.62
00000843 00000573 584.48 177.33 420.75 627.38 718.05 439.72 905.87 427.49 838.68 574.73 744.44 648.72 906.23 640.62
00000844 00000574 582.75 184.45 419.68 623.49 715.04 444.83 904.87 431.87 835.26 582.87 741.00 652.04 903.54 643.57
00000845 00000575 579.19 194.57 421.60 619.22 712.15 448.18 903.48 435.83 830.63 588.12 739.32 656.30 900.15 648.59
00000846 00000576 577.86 199.25 423.10 617.58 709.16 451.70 901.37 438.64 826.78 591.32 737.70 658.19 899.02 649.91
00000847 00000577 578.27 201.46 423.34 616.08 708.51 452.92 900.82 440.24 825.24 593.18 737.38 659.19 897.51 651.31
00000848 00000578 578.57 205.34 423.51 612.87 709.29 452.45 901.50 440.29 826.14 594.86 737.71 658.96 897.82 651.66
00000849 00000579 579.38 210.03 422.69 608.59 711.41 453.92 901.70 442.34 827.35 596.30 738.97 659.50 897.17 652.76
00000850 00000580 581.64 213.99 421.90 605.96 713.43 457.42 902.44 445.46 829.04 599.61 739.72 660.36 897.56 653.38
00000851 00000581 583.10 213.77 421.08 606.68 714.99 460.09 903.93 447.31 830.62 601.67 740.63 661.75 898.46 654.00
00000852 00000582 584.36 216.40 421.66 602.48 716.08 460.56 906.41 447.49 831.77 602.38 741.35 661.84 899.68 653.90
00000853 00000583 586.78 216.06 422.00 600.11 718.18 459.40 908.16 447.15 832.65 601.05 742.78 660.38 900.36 653.06
00000854 00000584 588.82 213.80 422.23 599.54 720.53 457.55 909.06 445.95 833.29 598.57 744.28 657.81 901.57 650.97
00000855 00000585 589.61 215.62 423.27 598.48 723.27 455.16 911.29 444.81 835.43 600.43 745.65 656.58 901.87 650.96
00000856 00000586 596.34 213.56 418.06 597.14 728.04 450.84 907.36 444.90 837.55 596.48 748.96 661.30 895.92 657.09
00000857 00000587 598.33 210.48 417.73 600.14 730.45 447.95 910.04 442.02 840.06 594.60 750.28 660.37 896.78 655.94
00000858 00000588 593.85 203.02 424.19 606.19 729.43 445.85 916.93 435.72 843.37 590.36 751.56 652.14 906.79 646.36
00000859 00000589 595.43 202.39 422.56 605.42 729.09 442.75 916.41 432.56 844.03 586.92 751.57 651.31 906.69 645.53
00000860 00000590 596.00 201.50 422.69 606.46 729.31 442.13 916.44 432.12 844.26 585.09 752.41 651.50 907.25 645.84
00000861 00000591 602.69 203.90 415.90 608.62 729.61 439.54 913.44 434.03 842.84 586.58 752.40 660.79 898.13 656.09
00000862 00000592 597.94 198.94 421.69 609.94 730.17 441.47 916.53 431.93 844.91 584.81 753.83 653.47 906.41 648.29
00000863 00000593 604.04 199.02 416.37 615.05 730.57 439.35 913.59 433.78 843.61 584.59 755.05 663.40 898.18 658.34
00000864 00000594 600.99 197.46 421.09 610.65 731.63 441.52 917.85 432.30 845.53 583.89 755.53 654.85 907.15 649.89
00000865 00000595 605.60 200.12 416.04 612.50 732.89 439.43 917.79 434.21 846.22 585.57 758.97 665.88 900.54 660.93
00000866 00000596 602.35 195.21 421.66 609.82 734.22 440.65 921.04 431.63 848.28 584.13 760.88 655.99 910.76 650.86
00000867 00000597 604.26 189.86 419.46 613.42 734.98 440.06 922.55 430.70 850.11 581.15 762.26 656.64 912.55 651.05
00000868 00000598 606.70 185.13 417.49 617.20 739.03 437.73 922.93 430.35 851.97 577.16 762.80 654.61 910.60 650.67
00000869 00000599 608.50 182.96 418.68 622.88 744.21 435.77 926.56 430.05 856.51 575.14 765.85 654.87 913.47 651.93
00000870 00000600 611.66 183.26 418.28 623.11 748.61 433.57 931.58 428.16 862.02 575.52 769.65 656.57 916.77 653.73
00000871 00000601 611.39 176.09 420.67 627.28 750.41 432.27 936.43 426.46 865.60 574.55 770.21 656.27 919.66 652.77
00000872 00000602 611.44 175.15 421.97 627.04 752.51 431.46 939.00 423.70 869.28 574.98 774.73 656.83 923.46 651.32
00000873 00000603 611.18 173.67 422.03 629.03 752.00 431.64 937.81 423.18 869.22 572.57 774.59 654.62 925.66 648.45
00000874 00000604 611.08 171.36 421.49 631.88 751.38 430.51 934.70 422.74 866.39 568.92 772.02 651.63 922.91 646.33
00000875 00000605 612.31 169.88 419.11 631.21 750.15 429.19 932.66 422.01 864.62 568.10 770.94 650.72 921.65 645.96
00000876 00000606 611.83 172.44 418.00 624.55 749.01 428.48 930.07 420.16 863.85 567.13 773.03 650.45 920.59 645.02
00000877 00000607 612.70 168.41 415.17 626.68 748.94 426.48 926.53 416.82 863.78 564.03 776.60 651.63 919.01 645.19
00000878 00000608 611.06 164.56 416.09 628.78 747.52 423.58 924.44 414.24 861.37 561.42 775.63 650.71 916.89 644.60
00000879 00000609 609.51 164.23 415.53 629.11 744.98 421.88 921.42 412.17 858.80 558.75 774.30 648.89 916.33 642.51
00000880 00000610 609.13 163.95 415.12 627.51 744.66 421.28 921.94 411.18 859.25 557.99 774.35 648.52 917.51 641.68
00000881 00000611 607.85 163.54 416.26 623.33 744.06 419.81 925.25 407.01 862.05 557.56 775.76 647.47 922.02 638.03
00000882 00000612 607.05 163.40 417.94 623.49 745.31 417.85 926.85 404.31 864.86 556.32 777.04 646.59 924.18 636.52
00000883 00000613 607.00 161.98 417.17 626.72 746.21 414.58 927.05 401.68 866.38 552.79 776.12 645.07 923.50 635.56
00000884 00000614 605.50 160.09 417.52 627.46 749.85 411.03 924.56 399.77 866.33 548.08 776.20 638.50 920.82 630.08
00000885 00000615 605.22 157.68 416.66 629.12 749.63 409.01 922.68 398.02 865.68 545.39 775.25 635.08 920.32 626.54
00000886 00000616 604.62 152.32 416.56 633.95 748.93 408.42 921.18 397.42 865.01 544.10 775.31 634.36 919.77 625.63
00000887 00000617 604.16 152.10 415.96 633.10 747.81 407.62 920.07 396.17 863.66 543.51 775.70 634.40 918.91 625.27
00000888 00000618 603.60 152.89 415.74 631.98 747.24 407.94 919.28 396.76 862.69 543.22 775.82 634.91 917.99 626.00
00000889 00000619 603.75 153.80 415.77 632.64 747.11 410.02 919.17 398.50 862.48 544.38 775.80 636.75 917.93 627.71
00000890 00000620 604.95 156.78 415.79 630.86 746.83 413.23 919.41 401.46 861.23 546.58 775.15 638.06 917.88 629.12
00000891 00000621 605.41 159.92 414.98 627.04 746.39 415.59 918.78 404.25 859.70 547.85 774.49 638.35 917.50 629.94
00000892 00000622 605.57 161.89 414.66 624.56 744.78 417.67 918.46 406.14 858.49 549.51 773.67 639.26 918.05 630.88
00000893 00000623 605.35 166.33 414.17 620.07 742.06 419.98 918.08 408.94 856.33 550.99 770.58 639.29 918.00 631.58
00000894 00000624 604.48 168.84 414.00 618.02 739.17 423.22 916.93 412.03 853.64 553.56 768.05 639.41 918.23 631.65
00000895 00000625 602.95 171.06 414.12 617.91 736.49 426.56 916.11 415.80 851.18 554.89 763.88 639.03 917.61 631.55
00000896 00000626 602.09 175.88 413.08 614.38 733.29 433.16 917.37 422.22 849.23 555.96 759.85 640.55 916.24 633.39
00000897 00000627 601.72 173.83 413.39 620.76 731.80 433.93 915.75 422.37 848.05 559.76 758.27 642.48 915.49 634.84
00000898 00000628 598.96 177.23 414.44 619.34 730.12 435.99 913.39 424.10 845.73 564.76 756.82 644.33 913.46 636.62
00000899 00000629 598.21 179.37 413.85 616.76 728.47 435.51 911.70 424.07 844.56 564.61 755.23 643.54 912.25 636.28
00000900 00000630 598.04 178.59 413.12 617.94 728.37 434.62 911.11 423.73 844.68 564.09 754.79 643.10 912.11 636.19
00000901 00000631 598.06 179.89 412.83 616.49 728.91 432.21 911.31 422.09 845.45 561.76 755.06 641.83 912.94 635.49
00000902 00000632 597.50 179.10 412.06 614.59 728.85 430.91 910.66 420.88 845.62 559.23 755.76 639.77 913.36 633.33
00000903 00000633 597.84 178.90 410.86 612.22 729.61 429.67 910.41 419.69 846.31 556.90 756.79 637.62 914.45 631.06
00000904 00000634 598.04 179.57 409.92 607.32 729.84 428.88 910.04 419.24 845.60 555.21 756.47 635.95 913.14 629.71
00000905 00000635 597.50 178.77 408.76 607.25 730.02 428.11 908.81 418.49 846.10 554.13 756.12 634.76 912.17 628.56
00000906 00000636 596.02 177.35 409.77 609.88 729.79 427.84 908.30 418.05 846.10 554.01 755.40 634.78 912.13 628.39
00000907 00000637 595.16 177.33 409.71 610.91 730.93 426.77 908.44 417.66 847.00 553.39 756.42 635.59 911.35 629.87
00000908 00000638 595.04 177.40 409.13 611.63 731.11 426.36 907.81 417.36 847.69 552.66 756.67 635.65 910.88 630.07
00000909 00000639 595.02 176.02 408.13 616.43 731.50 425.58 907.56 416.89 848.60 551.67 756.86 636.46 910.92 631.01
00000910 00000640 592.93 177.59 409.53 619.18 730.22 426.20 906.46 417.58 848.40 552.72 754.55 637.12 909.96 631.74
00000911 00000641 591.06 178.33 410.26 619.75 728.48 427.88 906.25 418.91 847.74 553.85 752.68 637.94 910.12 632.25
00000912 00000642 586.99 177.76 412.91 621.75 727.70 429.33 906.61 420.03 847.72 555.52 751.99 639.15 910.27 633.24
00000913 00000643 585.25 177.73 414.04 622.97 726.39 430.54 906.81 420.97 846.91 556.60 750.46 639.76 910.42 633.56
00000914 00000644 585.12 178.08 413.80 620.48 725.79 432.81 907.35 423.51 846.46 557.97 749.43 640.16 910.18 634.21
00000915 00000645 583.80 180.77 413.35 617.68 724.73 435.50 907.62 424.90 846.84 560.32 747.37 640.64 909.97 633.63
00000916 00000646 583.43 182.93 412.42 615.08 724.91 436.44 907.64 425.79 846.98 562.36 747.70 641.77 908.86 634.87
00000917 00000647 580.87 183.63 413.58 614.56 724.02 437.25 908.34 427.32 846.58 562.96 746.46 642.86 907.46 636.57
00000918 00000648 574.73 182.19 416.47 614.73 724.82 436.55 903.87 425.07 852.57 567.93 744.18 647.73 898.57 637.86
00000919 00000649 573.82 183.74 416.19 614.35 725.10 436.17 903.22 424.47 852.52 567.97 744.77 648.21 897.65 638.05
00000920 00000650 572.82 188.34 415.92 609.51 724.21 436.79 901.78 424.49 851.26 568.67 744.60 648.48 896.79 637.67
00000921 00000651 571.78 186.50 416.11 612.25 723.83 436.48 901.20 424.21 850.73 568.39 744.24 648.78 895.85 637.94
00000922 00000652 571.88 186.11 415.42 611.65 722.61 435.81 901.20 424.43 849.36 567.72 742.92 649.37 894.47 639.44
00000923 00000653 571.97 185.82 415.16 613.41 722.51 436.12 900.99 425.27 848.57 568.42 744.06 652.00 893.07 642.37
00000924 00000654 573.82 185.62 413.70 610.95 722.07 437.72 901.32 426.14 847.86 569.97 748.37 655.07 893.52 644.97
00000925 00000655 575.26 181.11 413.19 611.32 721.82 438.04 902.88 425.94 848.27 571.69 751.16 656.35 895.15 645.95
00000926 00000656 579.58 182.58 413.37 615.90 722.65 436.73 910.27 428.21 846.57 565.98 750.19 649.68 906.24 644.67
00000927 00000657 579.19 179.73 414.71 618.05 722.41 435.10 910.78 426.79 846.29 563.98 750.13 649.10 907.03 644.24
00000928 00000658 580.52 176.27 414.37 623.70 722.56 433.22 908.52 426.61 844.56 561.95 748.90 647.69 903.66 644.39
00000929 00000659 581.10 174.84 414.75 623.30 721.95 431.78 908.63 425.95 843.32 560.69 748.15 646.77 903.03 644.15
00000930 00000660 584.02 171.80 413.37 623.81 721.90 433.60 911.48 426.74 843.22 558.34 746.86 646.71 904.17 643.02
00000931 00000661 584.58 170.00 414.96 623.96 720.38 427.65 911.03 420.54 841.44 557.17 745.98 645.39 904.59 641.67
00000932 00000662 585.32 167.67 416.05 630.45 719.75 422.07 906.78 416.16 840.26 556.97 748.11 644.48 904.11 641.57
00000933 00000663 586.25 168.66 416.93 630.64 719.16 417.31 905.31 411.86 839.61 555.69 749.20 644.15 902.75 641.61
00000934 00000664 587.73 166.51 417.79 633.77 719.27 415.26 906.49 410.26 839.47 553.97 748.32 643.07 903.35 640.83
00000935 00000665 589.34 164.75 419.69 635.55 722.50 414.15 907.00 408.73 840.71 552.67 750.74 641.57 904.95 638.76
00000936 00000666 591.00 166.35 421.27 633.12 724.43 411.54 908.07 404.38 843.47 551.49 753.60 640.34 907.61 636.02
00000937 00000667 592.38 166.28 422.90 631.73 727.31 408.33 910.95 401.02 846.67 548.10 756.43 639.63 908.65 635.06
00000938 00000668 594.94 164.19 423.71 632.49 732.08 404.11 914.56 397.97 850.56 545.75 757.62 636.94 910.11 632.93
00000939 00000669 599.42 156.18 423.29 639.84 741.76 398.55 924.29 395.10 860.88 544.62 762.66 636.59 915.03 634.11
00000940 00000670 603.44 148.87 424.26 647.33 751.44 392.59 935.85 389.58 873.28 542.84 772.62 636.68 921.87 633.96
00000941 00000671 606.60 147.68 425.77 647.93 762.12 389.25 945.31 387.25 884.46 541.27 782.29 635.89 928.90 633.49
00000942 00000672 610.74 153.89 430.39 637.04 766.04 388.11 961.72 387.39 893.20 533.12 794.99 632.73 934.68 629.52
00000943 00000673 614.38 150.90 431.58 639.30 781.72 389.11 973.19 387.75 911.67 529.06 805.62 631.72 945.80 628.76
00000944 00000674 621.09 149.62 431.55 640.20 794.61 389.98 981.31 388.11 926.68 528.19 817.08 630.33 956.39 626.96
00000945 00000675 628.21 151.28 425.24 635.39 802.32 388.80 985.09 385.23 938.19 524.08 825.35 629.60 962.68 625.81
00000946 00000676 634.67 147.93 420.02 640.13 809.38 388.67 989.02 384.10 946.40 524.37 829.70 630.15 966.89 626.48
00000947 00000677 634.62 146.24 421.90 645.92 813.38 386.74 992.18 383.45 950.71 523.20 831.41 629.92 968.71 627.44
00000948 00000678 630.63 140.85 423.70 651.13 813.03 383.03 988.45 383.20 948.91 517.02 828.31 626.37 961.37 626.96
00000949 00000679 628.00 127.89 419.96 655.42 810.21 367.90 982.06 376.01 941.69 502.41 823.48 618.14 957.53 622.76
00000950 00000680 626.59 120.17 417.01 650.21 800.70 350.75 982.75 364.30 935.30 492.24 810.86 604.61 952.09 613.92
00000951 00000681 626.21 106.14 420.44 657.55 804.74 338.95 986.09 362.00 933.10 484.16 804.94 591.82 942.39 609.60
00000952 00000682 624.76 107.65 424.48 656.48 809.45 335.37 985.41 365.88 928.25 483.58 800.63 585.34 930.57 609.48
00000953 00000683 625.36 111.47 426.82 652.36 812.80 338.11 987.35 372.93 927.90 489.97 797.68 585.95 928.36 613.82
00000954 00000684 628.58 121.85 427.23 642.26 816.36 346.49 984.99 379.16 926.90 500.16 799.66 590.52 928.93 616.62
00000955 00000685 630.86 128.43 427.09 642.74 824.58 357.29 986.49 390.25 934.26 508.78 805.12 599.88 930.40 626.45
00000956 00000686 630.98 132.87 429.92 642.40 828.46 363.59 989.53 397.79 937.98 510.39 807.88 602.00 935.65 629.61
00000957 00000687 631.28 132.34 429.61 643.85 828.78 365.26 989.52 397.67 939.50 509.75 808.83 601.53 937.29 627.50
00000958 00000688 629.21 127.76 429.13 643.29 819.73 367.70 987.00 394.65 936.61 509.34 805.90 600.29 941.91 621.38
00000959 00000689 627.29 129.01 423.79 638.40 808.07 365.58 981.33 388.55 930.16 506.21 802.01 599.83 940.82 617.38
00000960 00000690 623.09 128.71 418.91 638.68 800.67 360.46 975.49 383.20 923.27 502.55 796.05 598.59 934.34 616.07
00000961 00000691 618.23 129.83 417.34 635.84 797.03 357.37 967.12 380.78 915.97 498.57 792.27 595.37 922.66 613.65
00000962 00000692 617.69 130.93 414.19 631.28 794.54 353.37 962.63 377.99 908.92 496.55 787.71 593.27 913.84 612.64
00000963 00000693 613.98 129.51 415.02 630.66 790.39 349.70 959.16 375.02 903.47 494.22 780.63 590.66 906.80 610.71
00000964 00000694 610.95 126.38 415.04 632.02 784.44 347.46 955.97 374.86 895.92 492.66 772.82 586.80 901.86 608.49
00000965 00000695 609.83 122.19 416.27 634.44 780.35 352.23 952.97 381.43 888.71 492.29 765.29 584.25 897.13 607.49
00000966 00000696 607.23 122.57 415.52 630.36 772.97 351.75 948.97 383.79 880.10 491.10 756.89 581.24 891.68 607.22
00000967 00000697 603.24 124.21 416.13 628.27 768.70 347.92 942.63 380.70 873.87 489.89 753.27 579.77 884.58 606.57
00000968 00000698 600.25 125.33 417.53 626.54 764.06 343.22 940.38 375.24 869.49 488.50 749.77 578.70 881.77 604.99
00000969 00000699 599.93 127.48 417.97 624.30 762.12 342.46 938.98 373.21 866.80 489.16 748.21 578.81 881.12 604.11
00000970 00000700 600.32 129.60 418.34 622.39 760.28 342.60 939.98 372.60 865.73 491.13 746.61 580.47 881.95 605.21
00000971 00000701 601.80 130.51 417.52 622.42 760.44 343.55 941.12 373.84 865.33 493.50 746.64 582.61 881.86 607.61
00000972 00000702 603.16 130.39 417.41 623.70 761.61 343.84 942.21 374.33 866.26 494.70 748.76 584.25 882.20 609.35
00000973 00000703 602.87 132.49 417.34 622.16 761.93 343.93 942.69 374.17 866.74 495.52 749.78 585.41 882.69 610.29
00000974 00000704 603.99 131.43 416.39 623.23 762.78 343.70 942.98 373.75 867.38 495.17 751.45 585.34 882.88 609.99
00000975 00000705 604.87 129.42 413.47 623.81 760.27 345.40 939.51 372.83 866.01 493.91 752.57 585.34 884.71 607.79
00000976 00000706 604.94 128.84 412.44 624.41 758.58 347.87 937.17 373.61 865.17 494.14 752.60 585.81 886.41 606.88
00000977 00000707 604.18 127.51 412.24 626.91 755.97 349.73 934.07 374.35 862.66 494.49 751.21 586.78 886.39 606.90
00000978 00000708 604.41 126.16 412.27 630.59 753.24 352.99 931.76 376.42 861.09 496.95 750.09 588.73 887.54 607.88
00000979 00000709 604.71 127.18 413.23 632.87 751.09 358.25 930.08 378.76 860.67 501.51 749.93 592.52 890.00 609.02
00000980 00000710 604.15 127.72 414.22 636.45 752.48 369.80 926.63 387.10 861.18 510.36 752.40 598.61 893.03 612.39
00000981 00000711 606.81 131.80 413.38 639.36 754.44 378.55 926.70 393.23 861.06 518.13 755.02 605.80 897.07 617.31
00000982 00000712 608.55 136.66 414.52 645.22 755.77 387.27 927.39 399.12 863.44 527.19 758.03 614.70 902.77 624.18
00000983 00000713 608.84 146.75 417.55 643.11 757.69 397.18 927.90 404.96 865.56 535.93 761.22 623.98 905.85 630.70
00000984 00000714 608.99 156.76 419.96 636.90 758.40 404.51 931.47 409.26 869.00 543.28 764.90 632.37 910.90 637.05
00000985 00000715 610.50 161.83 420.02 635.84 762.19 406.80 936.66 412.76 873.14 547.20 768.18 635.92 913.29 641.66
00000986 00000716 612.19 162.57 421.10 638.69 766.90 408.64 939.89 415.32 876.89 549.48 772.34 638.26 915.38 644.48
00000987 00000717 612.62 163.61 421.43 638.04 767.08 409.69 940.83 415.48 877.40 550.91 773.00 639.43 916.61 644.94
00000988 00000718 612.43 162.60 421.69 638.62 766.77 409.78 940.29 415.63 876.95 551.19 772.38 638.93 916.21 644.51
00000989 00000719 611.56 162.54 421.18 635.15 764.91 409.39 939.39 415.19 875.06 551.47 770.74 637.71 915.27 643.33
00000990 00000720 611.00 163.30 420.55 631.93 762.89 410.30 938.80 415.83 873.38 552.21 769.18 638.18 913.71 643.71
00000991 00000721 610.16 160.81 421.66 637.39 759.85 408.36 937.51 413.90 871.94 551.19 767.58 640.62 912.67 646.21
00000992 00000722 609.14 161.80 420.25 631.91 751.78 409.79 936.97 412.37 867.75 553.58 765.67 644.81 914.35 647.87
00000993 00000723 609.14 161.56 418.95 628.30 749.46 416.62 935.59 418.96 863.01 555.26 761.63 644.57 912.10 647.67
00000994 00000724 606.85 162.98 417.90 627.27 743.74 420.88 930.84 423.67 856.39 556.06 757.87 644.34 910.01 648.00
00000995 00000725 601.77 162.78 418.82 632.68 738.07 421.77 921.65 424.03 848.84 555.77 752.21 642.85 904.73 646.43
00000996 00000726 601.66 167.34 418.18 631.45 735.80 422.17 918.20 425.30 845.59 558.23 747.96 642.63 901.25 647.31
00000997 00000727 599.49 172.22 419.55 631.11 732.97 426.43 917.28 427.65 844.54 563.60 746.21 645.53 900.94 649.03
00000998 00000728 596.81 175.19 421.71 630.62 730.12 430.28 916.46 429.51 842.41 567.61 745.23 647.88 900.52 649.84
00000999 00000729 594.53 180.93 425.03 625.93 729.72 432.76 919.06 430.64 842.72 570.88 744.24 648.44 903.11 649.20
00001000 00000730 594.22 184.47 425.62 623.72 730.07 435.46 918.57 433.81 841.62 575.01 744.34 650.24 901.25 651.56
00001001 00000731 594.02 188.46 426.25 622.93 731.10 438.85 919.45 438.21 842.35 580.52 744.68 654.42 898.63 656.70
00001002 00000732 595.76 193.05 424.95 621.88 732.64 443.25 920.54 443.06 842.98 586.10 747.53 658.98 898.33 661.58
00001003 00000733 595.21 201.62 426.25 618.11 734.16 449.58 922.89 449.08 844.16 593.95 748.97 663.48 898.38 665.82
00001004 00000734 595.84 206.70 426.57 616.87 735.94 453.14 924.67 452.89 846.08 599.19 749.28 667.53 897.76 670.03
00001005 00000735 598.72 207.02 422.91 617.73 741.50 451.79 925.92 453.94 851.79 602.38 753.97 677.65 896.56 679.43
00001006 00000736 598.68 206.77 423.66 624.10 743.84 450.44 926.93 453.22 854.44 602.89 751.00 678.33 896.40 680.73
00001007 00000737 598.89 206.29 423.98 626.81 744.77 450.24 927.06 453.78 855.41 602.90 750.49 678.17 897.15 681.16
00001008 00000738 598.94 205.53 423.41 625.87 746.62 449.37 927.89 453.88 856.22 602.61 750.58 676.92 895.96 680.82
00001009 00000739 599.92 207.76 422.17 618.32 745.10 447.89 927.86 451.72 854.98 601.01 756.02 678.28 895.39 681.38
00001010 00000740 596.67 210.19 427.77 614.98 740.55 452.40 930.57 453.02 852.89 602.54 754.09 672.14 901.15 675.25
00001011 00000741 596.81 209.24 426.86 613.74 739.43 452.20 930.19 451.96 852.97 601.68 754.09 671.11 902.28 673.50
00001012 00000742 596.02 209.03 427.57 613.94 739.16 451.76 930.31 451.81 852.71 599.99 752.87 669.13 902.78 671.78
00001013 00000743 595.68 210.44 427.86 613.29 739.89 451.46 930.36 452.22 852.59 599.35 751.50 667.93 900.73 671.29
00001014 00000744 600.92 207.48 419.29 614.09 745.73 447.08 926.49 450.73 854.48 599.21 757.73 673.82 895.16 676.70
00001015 00000745 600.09 208.18 419.56 614.27 746.65 446.48 927.23 450.11 855.58 598.80 756.68 673.43 896.31 676.34
00001016 00000746 599.71 208.41 418.99 612.99 746.98 446.16 927.00 449.37 856.41 596.84 757.50 672.74 897.72 675.16
00001017 00000747 600.82 206.80 418.42 615.57 748.82 446.28 927.45 449.87 857.94 596.73 758.11 673.24 897.42 676.02
00001018 00000748 600.25 206.58 418.70 616.70 749.59 446.11 927.07 449.39 858.79 596.01 757.66 673.29 897.20 675.85
00001019 00000749 600.56 205.74 418.81 619.90 751.54 445.64 928.08 450.37 861.10 594.03 756.19 671.61 898.34 675.23
00001020 00000750 600.20 206.94 419.02 618.35 752.68 444.71 928.90 450.07 862.78 591.42 754.62 669.04 898.82 673.31
00001021 00000751 600.32 205.65 418.66 618.95 753.87 442.94 930.31 448.87 864.50 588.48 755.82 667.29 900.30 671.93
00001022 00000752 600.80 206.59 418.96 616.61 755.44 441.38 931.43 447.51 865.57 587.84 757.15 664.67 900.88 669.56
00001023 00000753 597.91 204.53 423.30 617.00 752.86 442.65 933.55 444.94 864.76 584.23 757.33 657.74 907.32 661.80
00001024 00000754 596.66 203.43 424.97 619.11 753.86 442.55 934.69 443.90 867.08 584.09 759.16 657.40 909.12 660.61
00001025 00000755 596.58 203.43 425.57 617.49 755.71 441.19 935.07 442.51 868.96 582.70 760.89 656.17 910.18 659.29
00001026 00000756 597.30 200.41 425.89 618.75 756.19 438.50 937.18 440.45 870.16 580.90 759.49 654.81 911.03 658.43
00001027 00000757 595.50 198.32 428.49 619.30 756.85 428.90 939.19 431.28 873.32 575.18 762.14 652.80 913.71 656.71
00001028 00000758 604.23 198.53 421.55 619.95 760.20 417.40 945.35 426.47 876.38 573.99 762.20 652.10 909.09 658.85
00001029 00000759 604.93 197.50 423.10 618.61 762.86 414.75 946.69 422.00 880.48 569.46 768.55 649.99 912.05 654.94
00001030 00000760 606.14 193.65 422.14 615.58 762.69 410.64 948.16 412.56 884.72 560.51 776.94 649.03 917.84 649.11
00001031 00000761 606.50 189.25 423.04 613.02 764.82 406.95 950.49 404.87 888.57 554.64 782.76 645.99 924.08 642.69
00001032 00000762 606.62 169.82 422.22 627.68 771.51 407.74 950.71 399.85 898.84 551.64 789.59 643.01 935.98 636.96
00001033 00000763 608.24 167.16 418.76 629.51 777.07 405.59 952.03 393.62 907.66 547.83 795.77 641.48 940.27 631.71
00001034 00000764 609.41 163.03 416.90 633.13 782.25 405.17 955.09 390.69 917.08 542.09 801.50 640.08 945.35 627.99
00001035 00000765 610.30 157.29 415.60 637.09 789.27 403.72 956.99 389.90 927.11 537.79 805.75 637.61 946.45 625.91
00001036 00000766 611.93 151.70 414.86 639.56 793.64 399.09 960.65 388.45 930.73 533.99 811.74 636.22 947.52 626.76
00001037 00000767 614.92 146.57 412.02 638.12 794.49 396.32 962.43 385.27 929.39 529.09 819.20 634.95 950.66 624.62
00001038 00000768 615.99 143.32 410.62 635.78 794.96 395.23 962.37 383.64 930.41 524.80 821.89 631.40 953.26 620.38
00001039 00000769 616.86 140.55 409.50 635.69 797.20 400.25 962.87 386.07 931.91 523.61 819.29 628.96 950.47 616.21
00001040 00000770 617.00 140.41 407.47 634.62 795.59 397.22 959.72 387.18 927.40 518.92 817.16 625.56 946.07 616.15
00001041 00000771 616.07 139.27 407.90 640.13 794.15 387.66 957.22 381.09 927.43 515.04 813.58 622.67 945.21 616.19
00001042 00000772 613.45 141.02 408.57 639.15 787.97 381.84 955.44 377.57 923.13 512.53 809.60 620.82 945.08 616.24
00001043 00000773 612.31 142.39 408.49 637.83 781.67 379.34 954.37 374.37 918.87 512.10 807.69 622.54 946.32 617.21
00001044 00000774 608.05 142.47 409.89 635.87 776.95 379.18 949.00 373.63 911.86 514.77 808.00 624.64 942.59 618.55
00001045 00000775 606.21 145.82 409.76 631.14 768.95 380.96 947.55 373.10 905.68 519.33 803.78 626.92 943.48 618.81
00001046 00000776 601.82 147.34 413.66 630.29 762.25 382.52 944.08 371.83 898.72 525.26 797.39 629.42 939.58 619.20
00001047 00000777 599.03 146.38 414.81 634.37 754.51 384.28 940.38 373.14 890.27 528.07 789.44 630.76 937.44 620.24
00001048 00000778 593.74 145.50 418.39 636.01 751.45 384.84 932.01 374.52 882.20 528.00 783.16 628.16 928.68 618.50
00001049 00000779 591.53 148.98 418.33 629.79 748.01 385.10 927.14 374.67 876.27 528.81 779.60 626.99 922.17 617.63
00001050 00000780 589.52 150.71 417.39 627.87 744.03 387.55 923.10 376.72 870.86 531.70 776.42 627.04 920.25 617.59
00001051 00000781 587.28 151.96 417.31 624.53 740.46 392.92 917.22 381.51 864.97 533.13 774.29 627.12 918.48 617.38
00001052 00000782 588.14 151.97 414.29 630.01 738.02 397.53 913.52 385.58 860.72 536.57 773.53 632.47 916.72 622.39
00001053 00000783 585.49 157.96 416.46 626.76 734.02 401.82 912.04 389.64 856.65 539.01 770.51 634.78 916.18 624.92
00001054 00000784 587.07 161.30 415.91 625.51 732.42 406.89 911.00 394.44 854.74 542.14 768.38 635.24 917.16 625.58
00001055 00000785 589.47 164.68 414.77 619.32 733.16 410.21 911.57 397.47 854.37 544.47 768.57 634.96 917.04 625.24
00001056 00000786 589.65 164.86 414.29 616.71 734.95 409.06 912.43 395.75 856.06 544.15 770.90 633.37 917.63 623.14
00001057 00000787 589.89 164.37 412.82 614.45 735.17 408.91 911.33 395.40 855.18 542.41 771.48 631.36 916.82 620.90
00001058 00000788 589.42 161.36 411.91 615.72 735.39 411.82 907.19 398.89 852.43 540.92 769.17 628.78 913.12 618.77
00001059 00000789 588.84 159.85 413.38 615.59 730.98 408.34 904.99 397.05 847.09 538.23 763.35 625.14 909.06 616.53
00001060 00000790 588.92 157.02 413.92 619.56 729.46 406.39 904.84 395.93 845.41 537.96 759.82 623.79 907.69 615.77
00001061 00000791 589.09 154.91 414.98 623.19 729.28 404.87 905.35 395.02 845.34 537.72 758.67 623.80 907.58 616.22
00001062 00000792 589.78 154.36 414.39 624.11 728.72 406.90 905.43 396.79 845.71 538.86 757.39 624.23 909.14 616.51
00001063 00000793 589.83 158.71 415.36 622.62 729.00 410.53 905.40 399.96 846.03 540.74 756.93 625.43 910.25 617.54
00001064 00000794 590.20 159.39 414.89 622.71 731.35 413.97 905.21 403.82 846.93 542.51 758.56 626.26 911.51 618.65
00001065 00000795 590.36 161.51 415.33 622.28 731.92 416.45 906.45 405.68 848.32 544.53 758.84 628.70 912.10 620.84
00001066 00000796 591.84 163.60 415.80 621.97 732.53 417.38 907.70 407.07 848.98 546.62 759.43 630.66 912.98 623.38
00001067 00000797 594.64 162.86 416.57 624.69 732.94 417.17 909.68 406.43 849.89 547.47 761.57 634.29 915.13 626.71
00001068 00000798 597.34 163.17 417.53 625.86 733.36 417.78 913.20 406.34 851.28 549.75 765.57 641.07 917.35 633.01
00001069 00000799 602.37 164.58 418.98 622.03 735.31 418.36 919.88 404.93 855.50 552.89 768.65 643.45 922.08 633.49
00001070 00000800 608.93 159.55 416.89 626.00 744.06 419.06 928.20 406.68 862.19 553.22 772.43 644.05 923.07 635.25
00001071 00000801 612.88 156.63 415.39 632.32 755.75 419.60 937.84 408.34 872.95 554.41 781.68 648.20 927.15 639.95
00001072 00000802 617.84 153.81 418.69 645.10 765.19 419.10 941.99 409.54 880.28 555.57 789.96 652.02 931.48 644.17
00001073 00000803 620.31 162.79 421.93 646.05 773.47 422.52 948.04 414.50 888.15 562.23 796.74 657.32 935.90 650.25
00001074 00000804 621.69 170.24 427.84 640.54 777.02 428.57 953.85 420.76 890.69 568.14 798.67 658.64 939.99 651.36
00001075 00000805 623.33 176.74 428.53 633.96 778.25 430.73 958.08 422.89 892.55 571.68 799.69 659.86 942.28 652.49
00001076 00000806 628.13 175.89 427.51 638.80 780.68 430.78 959.50 425.23 893.72 571.95 799.45 660.65 942.77 655.21
00001077 00000807 636.97 173.22 428.14 639.48 781.28 426.26 975.48 430.30 898.00 570.92 793.09 653.73 948.30 659.66
00001078 00000808 638.27 177.38 427.73 637.69 784.24 424.03 978.34 429.93 900.52 571.27 794.25 653.56 949.03 661.16
00001079 00000809 639.61 180.91 427.27 634.31 784.44 424.31 981.21 428.55 902.78 572.48 796.48 656.46 951.32 662.83
00001080 00000810 641.45 177.89 426.31 634.99 784.22 423.93 983.12 426.64 904.66 570.40 798.80 656.91 956.36 661.81
00001081 00000811 640.77 179.07 425.79 633.22 784.06 422.68 981.86 425.22 905.60 567.73 799.92 656.01 956.48 660.79
00001082 00000812 639.27 175.30 425.67 635.45 784.82 420.81 980.13 424.90 904.73 565.63 799.49 654.19 953.19 660.16
00001083 00000813 633.41 178.50 426.09 629.32 779.30 417.80 969.27 415.84 903.08 568.71 804.23 659.67 942.91 656.56
00001084 00000814 631.48 179.31 424.54 628.57 776.67 417.21 965.02 414.47 899.02 567.88 803.54 659.99 938.27 656.00
00001085 00000815 629.57 179.30 424.27 626.36 771.30 417.40 961.77 414.47 893.30 567.44 799.26 657.86 937.70 653.80
00001086 00000816 624.77 179.56 425.70 628.29 767.72 416.41 956.68 415.41 887.19 565.61 791.77 654.56 933.07 651.68
00001087 00000817 621.44 179.18 423.78 629.66 764.01 414.92 949.66 412.26 881.64 561.48 788.21 654.77 925.30 650.28
00001088 00000818 618.70 181.35 420.70 627.11 759.68 412.82 946.63 410.64 877.46 559.10 783.84 654.71 920.84 650.59
00001089 00000819 612.11 173.62 421.12 634.68 758.00 416.90 940.29 412.70 874.81 561.46 780.75 653.28 927.70 649.99
00001090 00000820 610.12 176.56 420.67 629.54 756.00 418.57 938.32 413.99 873.61 562.90 779.84 653.22 926.09 649.96
00001091 00000821 608.85 177.93 421.56 628.52 754.83 420.77 937.48 415.68 872.60 564.02 778.42 653.36 925.73 650.00
00001092 00000822 612.69 187.08 416.91 625.28 753.88 416.95 940.50 414.61 872.58 563.06 779.65 657.56 916.77 653.58
00001093 00000823 612.41 187.15 416.33 626.40 754.92 416.93 941.39 415.67 873.87 563.34 779.71 658.48 916.21 655.46
00001094 00000824 611.83 186.90 416.76 628.13 755.25 417.53 941.20 415.83 874.49 563.11 780.52 659.11 916.47 655.70
00001095 00000825 611.76 187.50 417.11 628.91 756.37 418.29 941.28 416.81 875.57 563.87 781.21 659.45 916.86 656.32
00001096 00000826 611.93 186.65 417.22 629.28 756.96 418.86 941.68 417.32 876.18 564.05 781.30 659.28 917.65 656.07
00001097 00000827 611.79 186.27 417.87 628.83 757.62 419.15 943.56 418.18 877.14 564.67 781.32 658.16 919.27 655.48
00001098 00000828 612.50 186.85 417.03 627.90 757.80 419.82 944.49 417.89 878.43 566.08 782.09 657.87 921.69 654.51
00001099 00000829 612.76 187.70 416.65 624.99 758.44 420.91 944.66 417.63 879.10 565.77 785.01 657.99 922.56 653.55
00001100 00000830 607.88 181.16 421.12 627.89 759.85 427.89 942.74 421.01 878.21 569.07 782.55 654.57 931.70 649.46
00001101 00000831 607.29 179.93 420.90 628.70 756.19 430.29 939.01 421.79 875.57 568.85 781.22 654.88 931.27 648.48
00001102 00000832 605.44 178.79 420.06 628.87 751.75 431.89 935.22 422.41 872.61 568.69 778.03 654.60 929.54 647.53
00001103 00000833 602.81 177.91 419.89 625.87 746.05 432.95 929.27 422.09 867.27 568.26 774.95 653.82 926.56 645.94
00001104 00000834 600.18 180.15 418.13 626.31 740.68 432.48 922.20 421.60 859.91 565.91 771.23 654.77 920.07 647.35
00001105 00000835 596.35 178.71 420.11 627.85 733.80 430.22 919.07 419.34 855.54 564.69 767.55 656.36 917.78 649.25
00001106 00000836 591.50 174.18 422.80 629.54 730.68 428.65 917.38 417.60 852.83 564.06 764.27 654.31 916.69 647.07
00001107 00000837 590.88 173.31 422.63 631.76 728.94 427.42 916.93 415.97 853.10 562.04 762.69 654.12 918.45 646.51
00001108 00000838 591.34 174.19 422.30 633.94 731.45 427.47 916.35 415.94 854.70 562.06 763.83 654.18 916.71 646.72
00001109 00000839 591.72 175.70 422.18 633.60 732.80 428.52 917.35 416.18 856.59 562.59 765.86 653.53 919.63 645.22
00001110 00000840 591.27 175.01 423.02 634.31 735.13 429.00 919.16 415.47 859.40 563.19 768.72 653.98 922.30 644.54
00001111 00000841 592.55 173.15 422.76 635.64 736.72 428.37 920.48 413.76 862.32 562.15 771.34 654.20 924.73 643.75
00001112 00000842 593.69 171.44 422.83 638.38 738.23 427.65 921.35 412.46 864.11 561.41 773.17 655.12 925.86 644.14
00001113 00000843 595.26 172.17 423.88 636.47 738.63 427.04 923.05 411.53 865.10 561.08 773.97 655.23 926.99 643.99
00001114 00000844 599.01 173.07 422.01 633.81 740.21 425.73 924.33 411.42 866.78 560.83 774.92 655.46 927.02 645.14
00001115 00000845 602.95 167.57 423.79 638.97 746.34 424.94 929.71 410.08 871.81 562.05 781.12 655.97 932.12 644.66
00001116 00000846 610.74 165.69 418.01 632.97 755.16 421.87 939.38 406.25 880.10 563.20 791.71 657.46 937.19 645.02
00001117 00000847 617.96 164.71 415.75 636.75 769.84 421.53 947.98 405.82 891.22 560.83 804.85 658.39 943.02 645.18
00001118 00000848 622.37 159.39 418.49 635.81 781.67 422.74 961.58 401.32 908.71 553.86 815.94 658.66 953.96 640.01
00001119 00000849 628.79 150.95 421.91 642.91 797.28 425.22 977.22 403.91 928.69 547.31 826.15 651.14 971.99 631.77
00001120 00000850 637.46 152.89 419.99 633.82 803.08 413.24 987.18 391.84 944.02 535.60 836.77 640.61 985.81 621.22
00001121 00000851 638.11 149.07 420.98 637.50 810.23 407.90 990.20 383.46 954.45 529.95 845.05 639.60 990.07 618.13
00001122 00000852 640.81 154.03 419.28 630.15 812.84 409.00 992.46 381.80 959.68 529.93 848.09 640.82 993.55 617.45
00001123 00000853 643.16 156.01 418.21 626.95 815.50 408.51 994.71 382.09 963.53 529.87 850.16 640.83 994.43 618.37
00001124 00000854 642.40 154.55 421.69 631.11 822.71 400.38 996.48 384.83 961.13 536.48 859.37 637.02 1000.95 623.78
00001125 00000855 642.83 150.72 425.22 639.04 827.98 395.54 999.34 383.77 963.72 536.55 861.99 638.73 998.70 628.42
00001126 00000856 647.15 143.17 421.40 642.08 833.37 389.41 1002.88 382.53 965.58 532.63 864.11 634.47 994.64 627.82
00001127 00000857 648.86 140.62 420.26 641.66 836.46 385.40 1004.24 380.08 967.01 529.20 865.68 632.41 993.25 626.91
00001128 00000858 649.53 141.96 420.12 639.97 839.07 382.90 1005.68 379.06 968.92 526.62 867.86 630.86 993.98 626.54
00001129 00000859 650.43 141.55 419.31 639.27 841.03 383.04 1005.59 378.77 971.92 524.74 871.09 630.33 995.62 625.52
00001130 00000860 651.90 141.17 417.68 640.65 844.61 385.17 1008.54 381.33 976.51 524.05 874.87 631.47 998.27 626.93
00001131 00000861 653.80 144.52 415.91 638.63 845.96 389.10 1010.23 381.40 978.62 527.37 879.56 635.35 1002.17 627.60
00001132 00000862 652.93 144.22 418.41 641.39 844.87 392.54 1011.75 384.11 978.55 530.69 878.41 637.05 1003.75 628.69
00001133 00000863 651.95 148.75 420.04 638.07 843.27 395.07 1013.06 384.91 980.13 534.10 876.62 639.29 1006.43 629.71
00001134 00000864 651.66 149.20 420.62 634.96 844.26 396.14 1015.68 384.72 983.00 535.85 876.27 638.66 1007.82 628.13
00001135 00000865 652.16 149.70 421.52 632.88 845.39 394.51 1017.57 384.65 983.88 533.72 876.96 635.92 1008.96 626.56
00001136 00000866 653.39 148.21 421.59 631.30 845.90 393.44 1018.22 384.68 984.05 531.08 877.06 632.23 1009.70 623.76
00001137 00000867 654.41 147.98 421.57 630.08 847.87 394.03 1018.72 384.81 987.00 529.18 878.32 631.60 1009.64 622.93
00001138 00000868 656.18 149.71 420.81 628.27 850.34 395.57 1020.69 385.50 990.60 530.30 880.56 632.67 1011.40 623.43
00001139 00000869 658.69 150.25 419.54 628.40 852.71 397.06 1020.87 385.82 991.92 532.06 882.10 634.14 1010.16 624.13
00001140 00000870 659.49 148.74 419.69 631.59 853.65 398.11 1022.40 387.28 993.36 533.60 882.44 635.00 1010.97 625.30
00001141 00000871 661.07 148.85 416.22 631.86 855.62 403.68 1020.61 388.48 994.39 536.60 883.68 637.32 1010.60 624.24
00001142 00000872 659.77 149.44 419.18 629.45 855.41 414.29 1023.11 395.71 993.74 538.49 879.74 638.73 1008.80 623.49
00001143 00000873 659.71 152.02 418.40 626.48 853.93 414.35 1021.90 394.27 993.39 538.73 880.32 638.59 1010.23 622.10
00001144 00000874 658.32 153.23 417.09 628.13 854.91 407.67 1019.47 389.30 995.10 538.69 880.26 638.51 1009.39 623.24
00001145 00000875 658.11 152.65 418.48 630.41 852.88 403.23 1021.14 388.23 993.29 537.81 879.06 638.19 1010.41 625.46
00001146 00000876 656.88 153.52 420.18 631.62 851.10 401.58 1020.44 387.77 991.23 538.23 875.78 638.17 1009.15 626.47
00001147 00000877 655.17 153.29 418.93 634.17 851.28 406.06 1018.39 389.98 991.11 539.74 873.72 639.41 1006.64 626.18
00001148 00000878 656.63 153.77 418.15 630.46 848.61 420.14 1016.28 400.77 986.31 542.48 870.89 640.45 1004.61 625.03
00001149 00000879 654.17 155.43 421.43 631.83 844.99 417.99 1016.27 398.58 984.75 543.37 867.55 641.20 1005.98 625.84
00001150 00000880 654.08 158.77 417.38 631.46 845.55 410.86 1013.46 393.81 984.03 545.89 866.13 641.89 1003.02 628.36
00001151 00000881 651.47 160.09 419.58 636.97 842.93 406.83 1011.99 392.38 982.37 546.32 862.36 643.32 1001.39 631.83
00001152 00000882 649.62 163.64 420.08 636.32 841.36 407.45 1009.37 393.98 980.13 547.89 860.48 645.22 998.06 634.62
00001153 00000883 647.08 167.61 421.58 632.70 839.15 408.50 1008.43 396.07 977.89 549.60 858.51 646.06 996.49 636.50
00001154 00000884 648.48 177.50 420.77 613.55 834.37 409.86 1010.42 393.53 981.61 543.19 850.08 644.38 995.34 632.08
00001155 00000885 646.54 178.60 421.71 611.48 829.70 410.54 1007.35 393.98 976.83 544.41 847.34 645.25 992.89 632.55
00001156 00000886 645.10 176.93 420.58 612.23 827.41 410.54 1005.45 393.81 974.54 545.43 845.99 645.01 991.48 631.80
00001157 00000887 642.93 175.24 421.14 614.49 825.08 410.26 1002.92 393.46 972.45 544.88 844.02 644.90 988.95 631.64
00001158 00000888 642.82 169.35 418.38 620.12 828.61 415.36 1000.75 399.24 972.93 546.55 844.74 645.87 985.02 633.27
00001159 00000889 643.98 166.51 415.88 620.31 829.26 423.25 999.36 407.55 970.40 548.78 843.25 646.93 981.83 634.35
00001160 00000890 639.77 171.44 419.28 616.09 824.65 414.94 999.20 400.39 968.65 546.19 841.87 645.79 982.15 634.01
00001161 00000891 638.90 176.00 419.68 612.22 820.92 409.73 997.49 394.74 966.58 543.50 840.63 644.28 981.85 632.21
00001162 00000892 637.45 177.76 420.70 611.09 819.81 407.74 996.50 391.98 965.94 540.84 840.72 642.86 982.03 630.00
00001163 00000893 637.62 175.60 419.91 612.60 821.05 406.87 995.98 390.51 968.26 537.41 841.43 640.83 982.56 627.61
00001164 00000894 638.10 171.20 418.86 614.35 820.25 405.92 995.49 388.52 968.02 534.11 841.27 638.11 982.70 624.16
00001165 00000895 639.80 171.15 417.39 611.34 821.12 405.10 996.01 387.41 968.46 532.86 842.73 636.53 982.57 622.60
00001166 00000896 641.87 169.75 415.76 609.39 821.37 402.30 997.32 385.82 967.30 531.07 842.45 634.35 983.00 621.85
00001167 00000897 641.99 162.87 416.14 615.93 822.16 400.22 998.92 384.87 968.32 529.78 842.40 633.16 982.84 621.92
00001168 00000898 642.78 157.19 415.71 621.22 823.66 398.83 999.50 384.74 967.31 527.18 843.11 630.67 983.86 620.27
00001169 00000899 644.18 151.85 414.29 624.06 828.37 397.94 1004.58 384.63 973.28 520.28 849.14 629.88 991.03 618.83
00001170 00000900 644.47 148.95 414.26 624.17 833.15 394.91 1006.73 382.98 977.77 516.29 852.77 626.74 992.01 616.93
00001171 00000901 645.86 142.90 413.61 626.08 838.35 403.40 1009.18 387.84 980.80 517.08 851.64 625.76 990.18 613.81
00001172 00000902 647.22 141.89 410.73 626.48 839.70 398.17 1010.19 387.76 982.03 509.82 851.71 620.58 991.02 612.86
00001173 00000903 647.55 141.23 408.19 627.37 835.94 390.35 1007.72 384.59 979.62 503.92 848.83 615.35 992.12 611.29
00001174 00000904 649.25 137.40 406.76 632.35 834.81 384.41 1007.82 379.11 979.99 501.24 847.71 613.06 992.46 609.34
00001175 00000905 647.50 137.38 407.38 630.52 830.64 379.74 1006.21 375.33 976.96 498.08 844.74 610.49 990.73 607.16
00001176 00000906 646.72 137.15 406.31 628.65 826.65 376.68 1002.61 373.18 972.37 496.16 840.88 607.58 987.65 604.93
00001177 00000907 646.10 135.79 405.30 629.60 824.27 372.94 999.66 371.28 968.66 492.72 839.84 605.50 984.77 603.97
00001178 00000908 645.18 133.63 405.55 632.50 821.90 371.81 998.59 370.09 966.58 491.41 836.47 604.29 983.21 602.60
00001179 00000909 644.55 133.02 406.04 632.11 820.11 370.20 997.63 369.67 962.76 490.85 835.46 603.60 981.32 602.54
00001180 00000910 643.11 134.33 407.26 631.54 818.72 370.66 996.86 370.58 961.01 492.07 832.91 603.30 980.23 602.58
00001181 00000911 643.42 134.05 407.44 632.98 819.37 371.84 997.35 372.86 961.23 494.25 832.76 604.87 979.26 605.22
00001182 00000912 642.78 134.67 408.68 633.25 820.65 373.46 997.23 374.09 961.97 496.41 833.70 606.29 979.46 606.39
00001183 00000913 643.50 135.83 409.50 632.50 821.45 375.86 999.62 376.43 964.60 498.17 834.68 608.15 981.64 608.41
00001184 00000914 644.97 133.55 409.72 635.56 826.55 379.03 1002.72 379.60 967.70 501.19 838.02 610.90 982.60 611.32
00001185 00000915 647.42 135.11 409.43 633.10 833.86 389.85 1005.55 390.54 972.36 504.09 842.89 613.51 983.89 614.52
00001186 00000916 649.48 137.23 408.85 631.39 836.65 390.55 1007.90 389.14 976.20 506.58 845.50 615.44 986.86 614.98
00001187 00000917 652.71 138.93 408.66 631.05 839.19 386.94 1012.82 385.86 978.93 509.18 849.69 618.22 990.18 617.94
00001188 00000918 650.74 139.44 413.82 632.51 841.42 385.12 1016.76 384.40 983.74 511.34 852.57 621.12 992.53 620.99
00001189 00000919 647.82 143.67 417.53 632.39 843.62 377.41 1010.16 387.78 970.80 522.60 852.18 618.68 982.60 626.58
00001190 00000920 649.43 146.51 415.73 632.35 843.06 378.87 1012.08 386.35 971.40 527.11 855.07 625.72 986.00 631.24
00001191 00000921 649.67 147.07 418.91 636.73 841.69 381.58 1013.26 386.92 971.26 531.30 856.36 632.46 988.66 636.20
00001192 00000922 651.22 150.57 418.58 638.23 840.23 384.74 1012.14 386.70 972.37 535.22 856.31 638.25 988.63 639.62
00001193 00000923 651.55 152.34 420.71 638.59 840.25 387.55 1013.45 387.86 973.87 538.10 858.80 642.11 991.50 642.13
00001194 00000924 653.75 152.34 419.06 641.89 840.07 390.23 1012.97 388.94 974.53 541.21 858.22 644.74 992.02 643.51
00001195 00000925 652.77 158.32 420.10 637.34 838.54 391.90 1013.32 389.63 973.82 543.10 857.36 645.31 993.69 643.52
00001196 00000926 653.66 162.15 418.96 634.88 837.39 394.99 1013.27 391.35 974.49 544.73 856.68 646.29 995.32 643.56
00001197 00000927 652.08 163.45 421.19 633.46 838.77 396.59 1012.37 393.01 974.34 545.42 854.89 644.50 993.08 642.12
00001198 00000928 652.01 165.42 420.29 632.10 837.95 397.77 1011.84 393.47 973.16 546.72 853.53 642.80 993.93 639.82
00001199 00000929 650.65 163.98 421.55 635.04 837.11 398.82 1010.95 393.94 972.73 547.33 852.21 642.93 993.35 639.66
00001200 00000930 648.48 165.83 423.42 633.75 836.39 400.56 1009.94 394.32 971.71 548.53 852.54 643.87 993.07 639.60
00001201 00000931 647.21 168.96 422.64 629.29 835.40 401.94 1009.23 394.05 971.37 550.13 852.47 644.92 992.39 639.57
00001202 00000932 652.91 182.12 417.62 606.70 829.27 405.59 1010.21 394.09 972.97 543.62 844.45 643.01 990.70 635.01
00001203 00000933 651.49 182.25 419.41 609.08 828.98 405.56 1009.38 394.44 972.51 544.89 844.46 644.05 990.03 635.99
00001204 00000934 650.27 181.87 419.41 609.21 827.04 405.71 1008.19 394.15 971.92 545.07 842.95 644.82 988.62 636.40
00001205 00000935 648.69 183.63 420.76 607.72 824.25 406.29 1006.82 393.90 970.16 545.00 840.38 645.26 987.22 636.20
00001206 00000936 648.82 183.03 419.87 608.45 824.18 405.61 1006.66 393.83 969.41 544.63 840.16 646.20 986.13 637.61
00001207 00000937 647.63 180.66 420.54 610.32 823.39 406.24 1005.30 394.85 968.42 545.58 840.13 646.58 985.19 638.19
00001208 00000938 647.12 182.52 420.93 609.10 821.91 406.22 1005.33 395.92 966.62 547.08 839.11 647.17 985.04 639.47
00001209 00000939 646.74 184.45 421.46 606.69 821.03 406.59 1005.90 396.33 965.97 548.76 838.14 647.49 985.15 639.77
00001210 00000940 646.80 184.26 420.89 607.12 820.67 406.15 1005.20 396.57 965.28 549.14 837.86 647.37 984.79 640.21
00001211 00000941 645.63 173.56 419.99 624.83 829.81 414.57 1005.08 407.32 962.61 556.00 845.94 647.84 986.43 643.96
00001212 00000942 646.61 174.01 420.03 623.00 829.35 421.20 1006.37 411.70 961.66 555.78 843.91 648.33 985.39 642.79
00001213 00000943 646.27 177.61 419.35 612.99 824.55 414.65 1003.21 404.40 966.35 552.83 837.80 649.84 979.47 642.46
00001214 00000944 645.57 183.49 419.87 605.73 821.01 409.26 1004.67 400.75 964.34 550.47 836.43 648.87 980.91 642.79
00001215 00000945 644.16 185.49 421.01 603.94 818.75 407.74 1003.83 398.81 963.50 549.37 835.68 649.31 980.58 642.71
00001216 00000946 643.59 185.27 421.14 603.96 818.68 407.88 1003.12 397.91 964.27 548.79 835.55 649.17 980.40 641.79
00001217 00000947 643.00 184.94 420.60 604.23 817.66 408.03 1002.28 398.16 963.24 548.13 835.12 649.18 979.80 641.92
00001218 00000948 642.07 183.34 420.35 606.04 816.77 408.94 1001.28 399.21 962.04 547.61 835.02 649.03 979.74 641.68
00001219 00000949 641.89 182.61 420.23 608.23 815.90 408.60 1001.18 399.18 961.30 547.19 834.98 648.77 980.37 641.47
00001220 00000950 641.14 180.19 419.92 612.37 815.58 409.15 999.78 399.65 960.92 547.75 835.11 649.41 979.51 641.95
00001221 00000951 641.09 178.63 418.42 613.25 814.26 409.70 998.52 399.23 959.46 547.41 834.99 649.98 978.24 641.88
00001222 00000952 640.41 177.20 416.73 615.27 815.07 414.47 998.04 404.03 959.26 550.31 833.99 650.85 977.57 642.54
00001223 00000953 642.00 169.75 414.51 622.27 814.77 424.74 996.09 413.11 956.80 553.22 834.19 652.73 976.97 643.36
00001224 00000954 640.28 172.17 416.71 619.38 812.49 422.49 996.06 411.21 954.80 553.33 833.35 652.38 976.59 643.10
00001225 00000955 638.83 177.02 417.62 618.16 812.25 417.20 994.56 405.65 955.25 552.24 832.02 652.63 974.85 643.39
00001226 00000956 638.89 177.86 417.40 617.55 810.06 413.65 994.67 402.52 954.12 550.62 831.87 652.54 976.04 643.48
00001227 00000957 638.77 179.39 418.56 616.67 809.85 412.82 995.49 401.57 953.90 551.52 831.75 652.85 976.73 643.64
00001228 00000958 638.35 181.58 418.76 614.40 809.97 411.86 995.94 401.14 954.00 552.04 832.56 652.97 977.04 643.99
00001229 00000959 637.82 182.53 418.97 613.65 809.76 411.19 995.77 401.22 953.40 552.11 832.48 652.94 977.20 644.45
00001230 00000960 637.37 184.21 419.28 613.36 809.50 410.94 994.94 400.29 953.07 551.77 832.09 652.21 977.35 643.19
00001231 00000961 638.41 182.89 417.72 614.77 809.29 411.47 994.83 400.38 953.50 551.73 832.65 652.57 977.85 643.22
00001232 00000962 638.39 183.11 417.61 614.84 809.31 411.94 994.24 400.03 953.77 551.78 833.17 652.88 977.37 642.87
00001233 00000963 639.04 183.73 417.07 613.07 809.25 411.90 994.58 400.54 953.34 552.35 832.86 652.54 977.37 642.93
00001234 00000964 639.18 184.51 416.42 611.83 809.31 412.02 994.27 401.17 953.49 551.68 833.36 652.55 977.84 643.39
00001235 00000965 637.43 183.54 418.54 614.63 809.05 411.16 994.09 400.26 953.29 551.19 833.13 652.23 977.42 642.85
00001236 00000966 638.30 183.29 417.63 613.57 809.67 411.22 994.10 400.49 954.01 550.64 832.47 652.61 975.74 643.69
00001237 00000967 638.21 183.40 417.00 613.59 809.79 410.36 993.42 400.66 953.39 549.80 832.77 652.49 974.32 644.38
00001238 00000968 638.87 181.45 415.98 614.04 810.07 410.44 993.39 400.97 953.56 549.18 832.79 651.82 973.98 644.02
00001239 00000969 638.37 181.54 416.61 613.92 809.31 410.23 992.60 401.29 952.35 548.44 832.73 651.58 973.47 644.12
00001240 00000970 638.45 179.64 415.41 615.04 808.14 410.64 991.88 401.47 951.56 547.83 832.17 651.10 973.08 643.34
00001241 00000971 637.46 178.99 415.18 615.35 807.62 410.70 990.47 401.75 950.02 547.42 832.91 651.03 972.26 643.30
00001242 00000972 637.44 179.74 415.21 615.18 806.87 411.14 989.97 401.73 949.49 548.63 831.76 651.41 971.40 643.36
00001243 00000973 637.07 181.79 414.38 612.04 805.90 411.90 988.68 402.39 947.59 548.65 831.43 651.53 969.94 643.37
00001244 00000974 635.53 183.19 414.36 612.59 806.37 415.02 986.15 405.79 946.40 550.77 831.59 652.74 967.52 644.58
00001245 00000975 635.06 182.16 413.52 614.53 807.58 419.60 983.86 410.92 945.30 552.48 830.67 653.35 965.42 645.56
00001246 00000976 633.01 183.37 414.50 613.96 806.45 419.44 982.06 410.30 943.76 553.37 829.86 653.88 963.34 645.67
00001247 00000977 630.49 183.48 414.20 614.18 804.55 418.86 980.66 410.15 941.39 552.30 828.03 653.48 961.19 645.52
00001248 00000978 629.06 184.61 414.76 613.46 803.48 418.96 978.82 410.38 939.08 552.88 827.50 653.13 959.30 645.19
00001249 00000979 627.87 185.57 414.15 611.31 801.82 419.24 977.36 409.32 937.03 552.24 827.09 653.23 958.21 644.13
00001250 00000980 626.45 185.93 414.04 612.17 800.52 417.04 976.70 408.39 935.44 550.18 825.91 651.15 957.44 643.04
00001251 00000981 625.18 182.69 414.29 613.53 799.13 417.80 974.51 409.43 933.58 548.73 824.63 649.07 956.88 641.16
00001252 00000982 623.87 181.27 414.65 617.00 798.32 417.05 973.08 408.80 931.90 548.44 823.51 649.13 955.41 641.10
00001253 00000983 623.12 182.73 414.47 615.85 797.51 416.53 972.21 408.52 930.68 548.39 822.60 648.54 954.79 640.74
00001254 00000984 621.64 184.08 414.26 613.43 796.29 416.06 971.11 407.85 929.09 548.41 821.60 648.69 952.55 640.78
CROP_BBOX: 278 0 1383 1019
