Video ID: 	aluHwm32MyM
H: 	1080
W: 	1920
FPS: 	29.97002997002997

FRAME INDEX X0 Y0 W H [Landmarks (5 Points)]

00002801 00000000 1017.70 165.38 420.46 614.08 1097.05 399.68 1277.75 468.82 1109.74 557.28 1069.90 613.09 1215.99 669.05
00002802 00000001 1013.45 172.31 421.29 611.23 1094.94 403.36 1277.10 474.87 1108.45 563.65 1069.30 614.45 1217.85 672.51
00002803 00000002 1018.69 175.24 424.94 618.26 1090.47 391.28 1274.93 485.64 1109.40 569.83 1061.32 608.29 1216.97 682.52
00002804 DELETE   1022.30 192.36 413.44 608.90 1095.05 398.71 1274.28 493.38 1114.11 573.86 1062.48 609.13 1220.34 683.35
00002805 00000004 1023.88 197.73 415.97 611.56 1099.66 407.84 1278.46 502.20 1121.10 583.62 1064.38 614.95 1224.25 688.80
00002806 DELETE   1028.46 200.62 412.74 600.88 1108.67 412.48 1279.31 508.72 1119.60 593.36 1080.48 624.17 1222.74 702.13
00002807 00000006 1031.66 202.48 421.03 602.83 1115.24 416.11 1289.24 510.53 1129.05 594.93 1085.44 626.51 1231.59 703.17
00002808 DELETE   1033.69 196.87 415.49 622.06 1123.34 417.80 1300.43 510.88 1140.64 598.93 1089.94 633.34 1237.50 709.13
00002809 00000008 1040.16 199.81 421.16 627.17 1130.22 416.72 1305.47 506.22 1145.00 594.89 1095.18 640.42 1238.55 713.35
00002810 DELETE   1043.45 197.18 428.80 621.35 1130.34 416.58 1305.67 504.28 1143.93 594.48 1095.60 645.48 1229.80 717.29
00002811 00000010 1037.55 195.78 435.11 621.68 1126.08 415.94 1305.33 505.19 1140.21 594.35 1089.37 643.24 1226.57 716.27
00002812 00000011 1037.36 191.83 430.68 619.60 1124.78 412.84 1302.05 504.37 1136.58 593.45 1086.09 638.18 1220.15 712.74
00002813 00000012 1036.99 193.44 425.79 610.44 1120.28 410.40 1296.97 501.72 1132.55 587.43 1077.46 636.53 1204.02 710.87
00002814 00000013 1034.44 192.83 424.56 603.60 1117.09 407.88 1292.21 499.91 1128.56 584.97 1074.75 628.98 1201.99 703.82
00002815 00000014 1028.84 197.08 423.96 604.60 1111.72 409.18 1286.10 502.93 1123.56 586.84 1069.79 627.16 1203.93 703.25
00002816 00000015 1028.85 197.82 420.01 605.29 1110.40 409.20 1281.46 504.17 1122.04 587.72 1070.91 624.57 1208.89 701.55
00002817 00000016 1028.25 199.14 420.87 614.41 1110.10 409.52 1280.88 501.89 1122.32 585.43 1070.26 630.31 1205.82 705.54
00002818 00000017 1024.33 196.15 426.03 628.19 1099.90 405.78 1284.33 505.35 1117.99 581.99 1054.94 625.38 1206.57 705.70
00002819 00000018 1025.28 201.07 428.12 617.64 1096.97 403.29 1283.22 506.94 1115.55 583.85 1053.34 622.74 1203.87 706.51
00002820 00000019 1024.44 194.89 421.59 618.06 1095.51 405.93 1284.23 504.18 1120.06 582.93 1054.45 623.69 1206.98 703.38
00002821 00000020 1020.29 192.86 425.57 616.07 1105.25 407.11 1287.78 500.23 1123.97 588.00 1066.65 626.37 1213.42 702.26
00002822 00000021 1018.75 197.21 427.30 611.35 1107.07 406.52 1297.84 493.39 1135.84 586.00 1065.44 628.01 1215.98 699.62
00002823 00000022 1027.53 187.34 428.97 626.48 1114.37 405.43 1309.53 484.08 1145.11 584.13 1078.74 632.53 1232.90 697.12
00002824 00000023 1034.04 183.80 438.07 640.34 1130.90 408.84 1324.45 474.53 1166.57 581.30 1098.71 647.53 1244.93 702.08
00002825 00000024 1045.99 178.16 426.11 650.96 1138.54 409.77 1337.10 467.40 1178.54 582.08 1111.25 651.82 1266.41 700.06
00002826 00000025 1048.01 172.57 434.75 650.07 1143.41 412.48 1349.81 462.67 1195.04 580.93 1119.50 651.43 1282.19 693.76
00002827 DELETE   1051.44 162.21 440.53 658.66 1147.32 407.52 1361.72 449.67 1211.56 579.51 1129.53 654.46 1301.40 689.29
00002828 00000027 1056.26 155.66 439.19 668.63 1150.15 401.17 1365.05 441.60 1216.34 571.92 1133.86 652.64 1310.58 685.53
00002829 00000028 1057.37 153.66 434.76 663.95 1152.27 399.83 1366.54 436.25 1224.76 569.46 1139.65 647.87 1319.46 677.40
00002830 00000029 1054.63 150.08 435.74 662.76 1150.02 396.51 1363.91 429.83 1224.48 563.14 1138.12 645.92 1316.72 673.21
00002831 00000030 1046.23 148.93 441.24 653.49 1143.75 392.38 1354.55 430.47 1211.36 556.66 1128.56 635.46 1300.57 667.11
00002832 00000031 1044.99 141.96 436.64 659.07 1135.41 384.93 1344.10 427.20 1192.17 550.69 1117.81 630.47 1282.81 665.33
00002833 00000032 1038.61 142.16 430.01 653.75 1130.14 381.59 1333.26 429.80 1179.53 547.47 1104.93 622.26 1263.52 661.77
00002834 DELETE   1034.08 143.88 420.14 641.82 1119.94 380.54 1319.85 432.00 1162.35 543.55 1094.00 614.96 1245.65 656.93
00002835 00000034 1019.68 140.16 420.98 639.33 1102.59 386.94 1288.71 440.14 1136.24 544.83 1077.63 614.85 1228.18 657.20
00002836 DELETE   1015.37 143.60 416.63 631.61 1096.69 387.29 1278.25 438.02 1128.42 539.68 1070.97 614.13 1214.41 654.79
00002837 DELETE   1009.93 147.85 412.09 636.79 1091.32 391.23 1268.69 442.33 1116.21 543.77 1063.97 622.43 1202.70 663.77
00002838 DELETE   1001.61 156.15 411.97 637.31 1081.60 388.78 1263.70 452.33 1099.35 549.43 1051.17 624.86 1188.94 677.18
00002839 00000038 1004.02 162.48 409.69 635.94 1081.95 394.34 1254.35 462.11 1089.02 554.57 1050.88 633.42 1174.81 689.14
00002840 00000039 999.79 172.36 397.11 623.49 1078.32 393.88 1246.79 472.90 1077.68 558.82 1045.87 625.61 1168.44 690.38
00002841 00000040 993.47 182.51 403.13 612.86 1073.21 394.55 1240.79 482.01 1072.12 568.66 1038.85 620.35 1166.46 691.10
00002842 DELETE   989.48 198.30 407.73 593.11 1068.47 394.46 1236.78 491.77 1063.45 573.88 1031.16 615.79 1165.11 694.00
00002843 DELETE   988.24 200.94 403.10 591.12 1067.29 398.42 1235.45 503.06 1061.45 582.66 1029.85 612.40 1167.35 696.18
00002844 DELETE   993.52 213.46 403.45 585.58 1067.02 405.52 1226.53 512.91 1054.25 591.54 1032.01 615.78 1163.16 701.34
00002845 00000044 992.65 213.37 403.16 595.68 1065.24 415.09 1226.09 521.38 1058.43 596.88 1034.36 624.45 1166.57 709.39
00002846 00000045 990.17 223.00 406.29 590.75 1063.16 421.32 1226.33 525.15 1060.87 603.41 1032.57 629.82 1166.13 713.07
00002847 00000046 988.86 228.69 410.91 584.37 1061.65 425.31 1228.96 526.95 1062.65 607.69 1033.25 632.75 1170.09 714.24
00002848 00000047 991.07 231.10 408.68 583.06 1064.25 426.76 1232.52 525.48 1068.27 605.61 1039.86 633.03 1178.48 711.96
00002849 00000048 995.67 222.70 403.58 599.57 1068.39 425.73 1235.92 520.03 1073.49 604.76 1048.67 638.09 1188.50 713.38
00002850 00000049 994.56 226.49 401.29 596.06 1071.78 424.34 1241.75 516.88 1078.98 602.66 1050.04 634.56 1194.64 708.63
00002851 00000050 994.41 222.23 400.98 594.03 1072.53 423.71 1243.38 514.95 1080.94 600.36 1049.58 632.99 1194.02 706.33
00002852 00000051 993.15 223.14 401.09 588.42 1072.82 423.75 1244.64 515.49 1082.40 601.12 1050.14 629.99 1195.03 703.60
00002853 00000052 991.84 231.22 405.58 575.46 1071.76 424.61 1245.13 519.69 1081.82 603.96 1047.05 627.82 1193.44 704.20
00002854 00000053 992.75 232.44 406.13 572.43 1070.67 428.79 1247.77 523.55 1083.84 606.58 1045.87 628.33 1195.53 704.38
00002855 00000054 994.42 233.69 409.79 570.19 1072.74 430.03 1248.88 522.69 1085.39 605.71 1047.99 628.56 1195.66 703.00
00002856 00000055 997.29 234.78 414.40 570.19 1075.91 431.99 1253.28 520.92 1089.70 607.36 1051.09 633.71 1196.04 705.48
00002857 00000056 1000.03 234.41 406.67 567.43 1080.17 431.84 1256.48 520.36 1094.49 604.65 1055.73 633.03 1198.21 704.55
00002858 00000057 1003.78 234.94 404.55 566.50 1084.16 433.67 1259.15 519.78 1096.95 602.61 1059.34 635.03 1200.38 704.57
00002859 00000058 1004.87 234.46 409.71 567.39 1086.16 433.03 1262.12 520.55 1097.47 603.84 1060.01 633.51 1203.93 704.11
00002860 00000059 1007.62 231.03 414.85 572.56 1088.40 432.77 1268.76 518.88 1103.07 603.06 1062.24 635.69 1210.56 705.17
00002861 00000060 1008.82 228.97 414.74 575.63 1089.77 429.57 1273.44 516.95 1106.31 604.75 1061.64 632.51 1216.56 703.30
00002862 00000061 1009.11 227.10 415.08 579.72 1092.05 424.51 1276.13 515.13 1106.95 603.03 1061.44 627.85 1220.30 701.13
00002863 00000062 1017.46 213.58 407.70 592.48 1098.01 413.78 1278.26 515.31 1114.00 604.98 1066.88 620.60 1224.93 703.84
00002864 00000063 1019.42 212.04 399.25 590.63 1098.96 412.16 1279.38 509.39 1118.06 598.87 1070.26 620.26 1227.76 700.00
00002865 00000064 1021.54 206.38 397.83 596.15 1100.86 412.39 1279.02 503.31 1120.85 591.66 1072.97 622.13 1226.14 696.39
00002866 00000065 1025.63 204.35 401.04 596.56 1102.83 409.13 1280.56 498.42 1120.77 583.42 1076.55 619.17 1229.27 691.64
00002867 00000066 1028.74 197.70 397.02 602.32 1105.96 405.34 1286.26 494.32 1124.46 580.07 1080.54 616.44 1234.86 688.71
00002868 00000067 1025.67 203.03 402.79 591.05 1100.19 398.10 1289.79 491.41 1131.32 572.53 1066.07 604.45 1230.99 678.80
00002869 00000068 1024.09 200.21 406.35 588.36 1099.97 393.35 1292.35 488.99 1131.42 569.60 1064.80 599.98 1230.72 676.41
00002870 00000069 1016.23 199.95 412.85 582.92 1101.49 403.86 1286.59 476.75 1121.87 564.66 1068.37 605.50 1226.12 665.57
00002871 00000070 1022.97 191.42 409.56 593.76 1106.35 397.48 1289.29 468.78 1127.21 556.42 1073.25 603.71 1228.20 662.30
00002872 00000071 1040.58 174.99 395.63 601.46 1116.34 383.83 1292.77 463.79 1132.52 551.85 1087.51 604.26 1226.38 669.08
00002873 00000072 1028.79 165.81 408.34 595.72 1110.59 384.07 1288.12 456.03 1130.58 544.74 1074.93 587.98 1226.86 647.07
00002874 00000073 1027.28 153.84 410.52 607.35 1113.06 371.82 1287.69 445.10 1130.21 536.82 1077.56 585.39 1225.62 645.40
00002875 00000074 1034.51 139.08 400.92 615.17 1120.51 364.53 1290.45 436.88 1135.87 525.02 1083.28 578.97 1226.59 638.39
00002876 00000075 1044.00 146.39 404.53 613.31 1135.33 350.11 1306.69 432.92 1151.98 516.28 1092.22 573.09 1221.79 641.36
00002877 DELETE   1048.43 143.46 409.14 607.87 1139.73 346.47 1315.85 424.17 1163.59 508.03 1097.74 568.25 1233.61 632.18
00002878 00000077 1050.18 146.86 417.07 599.68 1149.03 341.85 1324.10 419.81 1172.86 499.47 1104.49 560.65 1242.14 624.67
00002879 00000078 1054.32 138.74 419.47 600.28 1156.10 338.07 1327.83 417.27 1176.11 495.25 1107.43 555.99 1243.55 621.12
00002880 00000079 1055.13 136.16 416.59 598.64 1159.78 333.84 1333.46 411.95 1179.10 489.79 1108.78 552.61 1243.87 617.18
00002881 00000080 1055.24 129.54 422.37 602.81 1163.03 330.37 1334.89 404.58 1181.64 478.17 1111.13 549.21 1241.72 610.65
00002882 00000081 1056.92 121.05 421.73 601.80 1164.07 325.83 1334.58 397.00 1179.38 471.58 1110.80 542.92 1239.03 602.43
00002883 00000082 1059.60 115.16 419.81 602.60 1164.34 322.44 1338.26 390.50 1181.74 464.92 1110.98 542.41 1239.31 599.58
00002884 00000083 1058.63 105.30 422.62 608.36 1163.47 317.69 1339.29 383.46 1183.76 458.65 1113.67 539.14 1241.13 594.48
00002885 00000084 1060.68 100.50 418.83 610.48 1162.90 314.00 1338.06 379.13 1183.62 448.92 1112.90 535.33 1240.31 590.10
00002886 00000085 1059.65 102.49 419.98 603.77 1161.84 311.48 1337.41 376.64 1182.21 446.87 1109.64 529.81 1240.85 584.60
00002887 00000086 1059.48 106.23 422.02 595.65 1162.07 311.22 1336.39 375.87 1183.14 447.56 1113.26 522.05 1249.76 576.29
00002888 00000087 1059.04 105.96 421.84 591.08 1161.05 311.34 1337.37 375.62 1184.43 446.37 1115.63 516.73 1260.90 569.97
00002889 00000088 1062.20 102.82 421.64 593.25 1158.67 307.77 1335.40 373.31 1180.56 443.56 1116.46 511.94 1270.17 565.37
00002890 00000089 1063.95 102.29 410.58 591.48 1159.61 306.03 1334.50 374.83 1180.81 439.55 1117.94 503.60 1278.41 559.06
00002891 00000090 1063.83 104.86 403.66 592.37 1159.01 309.32 1335.18 375.70 1184.12 442.45 1119.96 505.27 1284.39 558.74
00002892 00000091 1059.52 108.22 415.94 590.64 1158.54 316.28 1337.52 376.03 1191.60 449.82 1125.41 511.64 1292.40 559.54
00002893 00000092 1057.69 111.24 422.96 587.51 1158.64 317.14 1342.31 376.69 1195.41 458.11 1121.05 514.61 1293.18 562.74
00002894 00000093 1054.93 109.14 428.27 599.92 1155.44 318.78 1339.71 378.97 1190.31 459.96 1115.89 521.55 1287.77 569.68
00002895 00000094 1053.34 111.67 423.85 599.39 1148.16 324.64 1326.91 386.18 1176.09 461.69 1112.21 524.81 1275.31 574.28
00002896 00000095 1051.15 122.44 420.97 600.38 1146.32 326.45 1328.60 395.35 1172.39 472.97 1108.88 530.89 1274.20 586.34
00002897 00000096 1042.79 131.38 417.22 612.01 1142.97 330.76 1329.43 402.28 1171.14 483.38 1108.83 541.35 1276.33 599.22
00002898 DELETE   1040.55 145.34 421.10 608.99 1136.49 338.30 1315.88 410.73 1157.59 487.88 1103.46 552.71 1264.26 611.61
00002899 DELETE   1038.65 145.67 421.32 612.18 1133.68 348.35 1307.74 423.44 1153.93 497.28 1101.25 557.98 1255.25 619.37
00002900 DELETE   1041.06 138.17 396.73 609.94 1133.28 359.18 1304.82 432.07 1159.40 509.54 1100.74 553.13 1264.67 611.99
00002901 00000100 1048.57 140.72 407.51 615.88 1145.80 358.31 1320.39 436.70 1166.24 510.86 1115.28 558.51 1275.95 622.68
00002902 00000101 1054.38 145.43 415.70 608.53 1146.64 360.20 1325.95 434.20 1172.30 515.78 1118.84 562.26 1284.45 622.52
00002903 00000102 1058.04 147.67 422.97 604.19 1148.00 363.91 1328.10 436.56 1174.53 519.89 1121.45 562.18 1290.07 620.99
00002904 00000103 1064.50 159.66 419.52 590.06 1153.19 369.49 1330.08 441.92 1178.07 525.46 1126.61 563.02 1290.88 622.09
00002905 00000104 1071.64 163.93 415.40 587.90 1157.99 375.44 1331.76 448.06 1183.77 533.48 1129.10 566.27 1293.31 625.89
00002906 00000105 1071.72 167.21 414.47 586.21 1161.17 384.10 1338.49 447.72 1192.93 535.45 1132.63 575.52 1301.13 626.41
00002907 00000106 1074.54 170.45 419.31 580.19 1164.58 389.05 1342.16 451.90 1194.04 540.89 1135.81 576.20 1302.03 627.10
00002908 00000107 1074.92 173.23 420.22 576.65 1164.07 391.17 1343.66 454.07 1194.71 544.43 1136.55 576.40 1305.54 627.45
00002909 00000108 1077.00 178.39 420.89 570.59 1164.88 394.20 1345.72 457.52 1194.94 547.08 1135.95 577.68 1305.59 629.34
00002910 00000109 1077.24 186.69 423.60 564.87 1164.67 397.32 1346.67 460.83 1193.39 550.98 1134.94 581.32 1303.91 633.60
00002911 00000110 1080.56 188.98 420.45 562.98 1165.58 399.00 1346.05 461.46 1192.90 550.55 1136.96 582.14 1303.73 633.56
00002912 00000111 1081.83 188.54 420.23 564.14 1165.64 401.64 1346.35 461.10 1193.47 551.58 1138.96 585.14 1304.26 634.03
00002913 00000112 1084.15 187.32 417.18 564.18 1166.53 401.87 1347.49 461.39 1194.82 552.56 1140.08 584.34 1306.28 633.22
00002914 00000113 1084.45 186.26 420.06 563.85 1167.18 400.72 1347.80 459.39 1194.54 550.42 1141.39 582.43 1307.57 630.67
00002915 00000114 1087.36 178.65 420.52 580.30 1165.74 383.53 1351.41 464.53 1199.22 546.58 1140.47 568.54 1308.60 631.58
00002916 00000115 1085.99 176.58 420.26 568.76 1168.53 397.20 1349.06 455.01 1196.94 546.80 1143.67 577.42 1310.87 624.55
00002917 00000116 1086.90 172.93 416.19 571.05 1169.76 396.06 1349.34 453.32 1199.01 544.41 1143.82 575.78 1311.71 622.34
00002918 00000117 1087.32 169.95 415.79 573.03 1170.58 393.77 1349.52 451.26 1200.14 543.24 1143.95 574.43 1312.03 621.02
00002919 00000118 1088.07 162.80 411.74 580.35 1171.17 391.78 1348.76 448.70 1202.30 540.12 1144.58 574.94 1311.71 620.83
00002920 00000119 1088.25 160.72 409.98 580.46 1171.19 389.11 1348.39 445.02 1202.98 537.08 1144.82 574.36 1310.90 619.53
00002921 00000120 1088.10 161.05 408.10 580.23 1171.12 388.25 1346.77 442.98 1202.54 535.84 1144.85 573.47 1310.25 617.93
00002922 00000121 1088.48 159.71 406.49 581.13 1170.76 386.88 1343.90 442.36 1200.57 534.48 1143.98 571.81 1308.30 616.81
00002923 00000122 1088.66 157.47 408.04 582.18 1172.21 391.13 1343.73 448.39 1201.66 533.02 1144.36 570.88 1307.49 616.93
00002924 00000123 1088.92 157.79 408.63 581.09 1173.10 391.20 1344.52 446.30 1204.03 530.80 1146.01 571.10 1307.95 615.53
00002925 00000124 1089.00 156.36 406.18 580.87 1174.23 385.46 1346.75 439.70 1205.69 524.49 1145.66 568.38 1308.28 612.60
00002926 00000125 1089.45 149.60 405.41 585.87 1176.48 379.42 1346.73 435.04 1208.09 519.43 1146.71 564.78 1307.77 610.16
00002927 00000126 1089.21 149.97 404.78 584.07 1177.50 375.11 1347.04 431.97 1209.69 516.31 1147.40 561.93 1308.57 608.61
00002928 00000127 1088.65 147.30 404.90 584.06 1177.66 371.90 1347.65 429.10 1210.57 512.98 1147.60 559.91 1308.37 606.96
00002929 00000128 1088.22 145.79 406.09 584.57 1176.86 369.12 1347.89 425.46 1211.14 508.02 1147.71 558.75 1307.97 605.07
00002930 00000129 1089.22 145.70 412.05 590.61 1176.81 357.18 1350.66 431.68 1204.97 518.18 1150.21 553.91 1302.73 615.44
00002931 00000130 1088.90 141.22 413.22 593.40 1177.19 355.38 1350.55 429.07 1205.81 515.06 1150.46 551.75 1304.03 612.55
00002932 00000131 1089.19 140.05 411.31 592.13 1176.99 353.99 1349.87 427.27 1205.85 512.83 1149.53 550.18 1303.21 610.52
00002933 00000132 1088.45 138.24 410.63 593.78 1178.12 355.26 1349.28 427.54 1207.16 510.89 1149.81 549.94 1302.22 609.62
00002934 00000133 1084.48 139.78 410.23 589.74 1172.46 361.83 1353.76 425.25 1205.97 505.85 1141.78 556.11 1304.12 608.16
00002935 00000134 1088.04 133.28 410.15 596.44 1178.68 354.62 1350.44 425.33 1210.48 508.17 1150.64 548.93 1302.94 607.25
00002936 00000135 1081.90 141.21 411.26 588.20 1172.68 360.99 1353.47 424.01 1206.56 504.00 1140.34 553.30 1304.02 605.35
00002937 00000136 1081.74 139.99 410.47 589.88 1172.19 359.99 1352.75 423.74 1206.32 503.49 1139.09 552.31 1303.54 604.96
00002938 00000137 1079.77 138.85 412.46 591.52 1171.64 359.55 1352.69 423.00 1206.24 502.32 1137.55 551.83 1303.07 604.31
00002939 00000138 1077.24 139.23 413.33 590.59 1171.53 359.49 1352.48 423.00 1206.84 501.57 1136.83 551.33 1302.32 603.85
00002940 00000139 1075.31 138.96 411.65 590.57 1170.91 358.97 1351.75 422.56 1207.22 501.07 1134.83 550.40 1300.95 603.25
00002941 00000140 1070.40 138.47 412.91 589.74 1169.23 358.80 1349.70 422.95 1206.55 500.07 1132.80 549.10 1297.45 602.39
00002942 00000141 1067.00 136.83 415.75 591.05 1167.73 360.03 1347.53 424.36 1204.98 499.23 1131.42 548.84 1294.32 602.08
00002943 00000142 1064.89 138.11 415.39 589.44 1165.51 360.45 1344.79 423.50 1203.71 500.22 1130.41 549.80 1292.13 601.89
00002944 00000143 1063.55 137.57 415.25 589.85 1164.81 360.28 1343.99 423.38 1203.83 500.29 1130.07 550.03 1291.09 601.98
00002945 00000144 1063.22 137.80 416.19 589.68 1163.53 361.82 1342.67 423.47 1202.70 501.10 1129.41 550.86 1290.25 601.61
00002946 00000145 1060.03 138.65 419.01 588.72 1161.52 362.91 1340.98 423.91 1201.48 502.49 1127.99 551.97 1287.85 602.22
00002947 00000146 1057.82 137.26 418.90 591.70 1159.19 363.74 1339.60 424.30 1199.03 503.91 1126.78 554.06 1286.50 604.05
00002948 00000147 1056.13 139.89 422.02 590.57 1158.11 364.89 1337.76 426.16 1196.50 506.03 1125.28 554.48 1284.16 604.98
00002949 00000148 1053.98 142.43 423.29 589.82 1157.41 365.87 1338.90 428.44 1196.77 509.27 1123.83 554.95 1285.40 606.54
00002950 00000149 1053.24 143.22 424.58 591.57 1158.76 366.43 1341.19 428.81 1200.82 510.73 1124.21 555.73 1288.29 607.27
00002951 00000150 1052.59 144.93 423.82 593.70 1161.36 364.60 1346.86 426.86 1209.06 511.90 1124.23 556.37 1294.30 608.11
00002952 00000151 1054.12 147.02 423.41 594.14 1164.24 364.24 1352.34 425.95 1215.24 512.14 1126.09 557.54 1299.67 609.12
00002953 00000152 1055.25 148.71 426.19 594.81 1165.48 364.22 1355.47 424.86 1218.05 512.59 1126.85 558.57 1303.06 609.50
00002954 00000153 1054.96 148.09 426.31 593.17 1166.83 363.97 1358.33 424.31 1221.02 513.22 1127.81 558.15 1304.60 608.95
00002955 00000154 1054.98 150.53 425.75 587.83 1165.81 362.30 1357.98 421.00 1221.20 512.45 1127.12 557.97 1302.99 607.59
00002956 00000155 1052.52 143.52 426.89 588.69 1164.20 360.94 1356.58 418.01 1220.93 508.79 1126.09 557.11 1298.67 605.27
00002957 00000156 1051.44 145.35 424.51 583.13 1163.60 358.00 1355.57 414.41 1221.47 506.83 1125.00 556.12 1294.94 603.76
00002958 00000157 1049.53 138.46 421.93 584.90 1162.06 357.75 1352.69 413.91 1220.24 504.32 1124.67 556.73 1289.41 604.07
00002959 00000158 1050.24 135.62 416.34 583.96 1160.40 355.41 1351.08 411.84 1218.97 503.40 1122.75 554.97 1286.92 602.45
00002960 00000159 1048.13 130.85 416.33 587.29 1159.73 351.28 1349.46 407.59 1216.99 500.03 1122.15 552.28 1284.09 599.88
00002961 00000160 1045.86 133.66 413.71 582.55 1159.07 347.54 1346.42 404.28 1213.97 499.49 1119.67 549.18 1279.78 597.57
00002962 00000161 1043.89 131.72 412.12 582.70 1155.89 344.80 1344.17 400.64 1211.59 495.73 1116.89 547.16 1278.63 594.70
00002963 00000162 1041.57 125.40 410.00 587.20 1153.07 342.78 1341.80 397.37 1210.13 490.73 1115.43 544.40 1278.70 590.65
