Video ID: 	7TIvi4qxvO4
H: 	1080
W: 	1920
FPS: 	23.976023976023978

FRAME INDEX X0 Y0 W H [Landmarks (5 Points)]

00002585 00000000 827.75 194.19 376.34 546.42 922.42 427.55 1080.55 418.98 1001.29 518.14 952.85 613.37 1079.04 608.02
00002586 00000001 823.10 201.46 373.17 538.99 912.48 440.14 1071.48 435.87 984.29 524.99 935.88 612.52 1068.07 609.62
00002587 DELETE   820.41 211.96 370.26 546.30 894.18 450.68 1059.55 450.86 962.44 530.28 917.28 616.74 1044.97 615.53
00002588 DELETE   815.35 231.55 369.35 530.34 881.63 460.66 1041.93 459.79 945.59 543.85 904.24 626.63 1032.00 624.75
00002589 00000004 811.64 246.64 371.75 522.44 873.06 466.78 1031.26 464.09 931.10 551.22 900.43 638.70 1021.27 635.19
00002590 00000005 812.29 248.94 371.53 519.31 870.97 475.13 1028.99 473.64 926.97 557.44 896.22 643.79 1017.78 641.25
00002591 00000006 813.23 250.76 370.89 517.79 870.76 479.80 1028.91 477.18 926.57 564.18 898.20 649.33 1018.61 645.74
00002592 00000007 813.73 252.33 369.87 517.73 871.31 484.70 1028.66 480.39 928.07 567.58 902.73 655.34 1018.82 650.48
00002593 00000008 812.98 253.60 370.63 523.28 872.05 487.18 1029.81 481.61 930.35 569.24 905.06 658.91 1021.03 653.15
00002594 00000009 812.32 252.14 371.39 528.77 872.50 488.08 1029.64 480.71 931.45 569.14 907.10 662.70 1021.07 655.43
00002595 00000010 810.40 257.17 373.34 521.14 885.40 481.69 1029.72 486.65 939.21 574.80 904.75 654.61 1021.33 660.21
00002596 00000011 811.31 255.66 374.62 520.72 883.93 477.06 1030.35 484.78 936.39 573.27 899.28 648.67 1022.81 656.32
00002597 00000012 810.16 254.09 375.19 526.23 881.81 476.68 1029.11 480.75 935.58 569.59 899.61 647.25 1028.10 651.24
00002598 00000013 812.53 254.09 374.85 526.63 882.24 473.59 1030.05 476.93 933.88 564.20 900.34 644.72 1029.02 647.92
00002599 00000014 813.47 253.38 373.88 523.63 882.37 466.94 1031.19 469.71 932.05 555.28 898.08 640.01 1028.66 642.97
00002600 00000015 814.46 253.26 371.46 515.85 882.83 463.71 1033.36 467.95 935.12 550.85 893.99 630.80 1028.88 634.50
00002601 00000016 815.41 248.97 367.26 505.65 881.32 463.30 1033.20 466.95 936.33 548.40 892.26 620.96 1033.62 624.15
00002602 00000017 814.89 242.00 368.46 508.93 880.78 461.69 1036.30 460.07 941.27 545.92 893.99 620.01 1035.91 619.48
00002603 00000018 812.40 225.68 369.17 524.07 880.54 448.83 1035.66 454.50 929.80 543.36 894.03 611.91 1030.05 617.97
00002604 00000019 815.12 216.20 367.21 531.10 878.77 447.43 1037.25 446.57 936.38 533.83 896.83 613.42 1029.97 611.04
00002605 00000020 811.11 178.31 389.52 566.21 873.37 438.78 1027.31 432.43 926.16 528.39 906.19 608.26 1025.47 600.65
00002606 00000021 810.89 142.19 405.90 592.80 868.36 387.32 1033.16 378.62 911.95 475.83 895.97 585.39 1029.03 577.43
00002607 00000022 809.98 143.97 401.39 595.35 864.74 398.64 1031.88 385.69 908.38 477.25 891.38 596.37 1020.68 584.96
00002608 00000023 808.36 148.88 398.72 591.45 863.43 405.69 1034.77 394.48 908.42 480.21 886.12 602.94 1014.13 593.08
00002609 00000024 803.46 156.28 400.39 586.64 860.30 405.92 1033.18 394.31 906.75 486.26 884.92 608.88 1010.62 598.53
00002610 00000025 795.78 168.02 398.43 574.60 863.02 401.00 1021.28 394.77 908.33 494.19 886.52 603.89 1012.70 599.79
00002611 00000026 792.06 167.61 399.59 574.58 861.01 400.81 1020.06 394.48 909.08 493.32 886.90 604.01 1012.49 599.74
00002612 00000027 789.36 168.50 400.92 573.07 860.10 400.62 1020.49 394.75 910.38 493.10 886.78 603.64 1013.08 599.63
00002613 00000028 787.01 169.07 401.25 570.30 858.97 401.07 1019.60 394.50 911.53 492.85 887.46 602.47 1014.36 597.83
00002614 00000029 786.06 168.71 400.85 570.05 857.62 400.49 1018.37 393.65 911.20 492.43 886.86 602.11 1013.84 597.24
00002615 00000030 786.48 168.90 398.29 567.36 857.38 400.18 1016.62 393.53 910.21 490.06 885.67 599.18 1012.10 594.47
00002616 00000031 787.02 169.14 396.06 562.54 856.06 397.81 1014.47 393.18 907.12 487.94 881.51 595.85 1006.41 593.13
00002617 00000032 787.30 168.08 393.67 561.22 855.40 395.14 1013.19 392.73 905.35 485.46 877.79 591.98 1002.40 591.26
00002618 00000033 784.75 158.45 404.57 570.28 853.73 399.40 1013.84 383.80 899.40 483.84 881.98 599.30 1000.33 586.17
00002619 00000034 786.84 167.97 390.46 557.12 854.61 392.87 1009.70 392.75 902.45 484.03 874.25 588.74 994.16 590.28
00002620 00000035 787.99 168.36 389.82 556.16 855.37 391.77 1010.36 392.57 901.99 483.50 873.85 588.46 992.86 590.88
00002621 00000036 789.43 168.34 388.37 555.27 856.10 391.89 1010.67 392.58 902.32 483.75 874.87 588.29 993.68 590.57
00002622 00000037 791.72 167.89 389.25 555.37 857.49 393.18 1013.22 392.41 903.78 483.75 876.61 589.19 997.53 590.26
00002623 00000038 794.53 169.40 390.96 554.55 862.87 393.36 1017.62 392.94 909.52 484.99 883.02 588.83 1004.58 590.05
00002624 00000039 799.35 171.52 391.31 556.12 868.37 395.97 1021.11 392.62 914.48 484.69 889.84 590.91 1010.10 589.74
00002625 00000040 803.61 172.63 391.71 556.03 872.14 398.26 1025.04 392.02 919.29 486.16 894.34 592.28 1016.18 588.81
00002626 00000041 804.95 171.27 393.21 559.78 875.68 398.60 1030.50 390.77 925.55 487.76 899.48 592.48 1022.80 587.57
00002627 00000042 807.33 167.37 394.15 561.11 879.36 400.15 1035.32 391.37 930.20 489.68 903.13 591.33 1028.05 585.29
00002628 00000043 809.79 167.19 393.43 558.78 881.63 401.41 1039.82 391.65 934.55 489.72 905.29 590.29 1033.27 583.22
00002629 00000044 811.39 166.17 392.24 558.52 883.05 401.81 1042.98 391.79 937.89 489.66 907.20 590.54 1036.58 583.23
00002630 00000045 814.83 159.44 393.28 572.18 879.60 400.10 1050.91 391.45 936.42 481.19 904.96 593.09 1031.42 586.05
00002631 00000046 817.37 158.26 392.96 573.59 881.96 401.43 1051.80 393.55 937.68 483.40 906.46 594.91 1031.88 588.52
00002632 00000047 818.78 159.45 392.12 573.87 883.86 402.62 1053.89 394.28 940.75 484.08 908.42 596.74 1034.03 590.08
00002633 00000048 821.38 159.34 392.30 575.43 887.21 402.45 1056.02 395.07 942.20 484.72 911.52 597.44 1035.56 591.65
00002634 00000049 824.11 159.37 390.50 578.51 889.89 401.50 1057.63 395.57 942.15 485.52 915.02 598.85 1038.45 594.22
00002635 00000050 826.65 160.60 388.76 580.77 891.67 401.88 1058.56 396.33 942.11 487.64 918.63 602.54 1038.86 598.15
00002636 00000051 828.00 161.96 387.71 583.53 892.19 401.91 1059.87 396.00 941.34 488.34 920.34 605.83 1040.06 601.16
00002637 00000052 829.25 162.24 388.29 587.76 892.15 404.18 1059.04 397.53 938.79 489.76 919.25 609.08 1039.81 603.78
00002638 00000053 829.28 164.34 389.30 582.19 889.93 407.67 1055.54 400.63 935.59 492.67 915.48 609.00 1036.80 603.34
00002639 00000054 826.52 166.98 391.32 576.49 884.08 410.26 1049.62 402.33 928.22 491.48 905.05 605.51 1030.67 599.11
00002640 00000055 822.35 168.24 393.36 576.56 879.54 409.59 1045.80 404.05 922.00 492.51 896.51 603.84 1024.82 599.27
00002641 00000056 821.52 171.64 394.62 572.84 873.95 411.96 1036.81 405.63 909.37 493.13 890.40 605.71 1015.74 600.12
00002642 00000057 820.04 170.68 395.49 569.68 869.86 413.30 1029.09 410.15 900.54 493.91 883.09 604.31 1005.66 600.96
00002643 00000058 817.25 167.19 395.82 575.33 874.06 418.00 1017.19 411.74 890.17 494.32 887.82 604.23 993.91 598.69
00002644 00000059 818.86 169.36 391.45 570.29 869.83 418.47 1010.11 413.67 880.22 497.62 884.24 602.80 990.32 598.25
00002645 00000060 818.83 168.99 395.99 568.96 867.58 419.12 1006.08 415.57 871.51 500.05 881.66 600.03 990.50 596.50
00002646 00000061 820.56 170.80 397.64 567.03 867.87 419.71 1004.71 417.25 870.23 502.46 882.67 600.35 990.76 597.79
00002647 00000062 822.22 171.78 396.17 565.36 868.13 418.97 1003.86 418.80 869.15 504.83 882.63 599.24 990.97 598.54
00002648 00000063 825.01 172.10 394.81 565.79 869.56 419.49 1003.39 419.30 870.83 504.71 883.40 602.48 986.73 601.94
00002649 00000064 828.78 171.70 390.14 560.50 868.78 417.11 1001.71 417.25 870.69 504.07 882.07 607.13 976.22 607.42
00002650 00000065 830.37 170.59 388.28 562.37 868.71 415.87 1000.73 417.29 870.05 504.36 880.89 608.09 972.79 609.50
00002651 00000066 830.02 168.79 388.19 567.33 869.37 415.07 1000.10 415.88 869.01 501.52 882.16 608.23 971.53 608.87
00002652 00000067 826.50 167.23 391.33 574.58 869.70 414.80 1001.09 414.86 867.11 498.42 882.59 607.59 974.53 607.34
00002653 00000068 827.34 165.83 392.47 575.97 869.90 413.59 1001.20 414.70 867.11 497.10 881.31 606.32 973.64 606.87
00002654 00000069 831.33 166.24 390.16 573.20 872.04 414.91 1004.36 416.48 874.07 499.79 883.02 607.98 974.31 609.16
00002655 00000070 834.87 169.74 390.10 569.24 874.43 415.84 1009.90 417.85 884.80 504.03 885.63 611.31 977.09 613.11
00002656 00000071 839.00 165.18 391.46 578.63 880.72 419.45 1018.80 422.87 894.53 507.48 892.85 614.76 986.85 617.61
00002657 00000072 847.10 164.17 392.13 580.85 887.46 415.20 1036.80 422.08 909.54 510.77 901.80 610.83 1006.62 616.60
00002658 00000073 848.52 163.20 404.81 578.61 908.07 414.08 1061.78 415.60 934.04 510.92 925.39 613.77 1035.56 614.71
00002659 00000074 864.10 163.37 401.24 579.95 932.39 424.52 1093.29 418.74 978.86 512.44 956.54 617.19 1070.84 611.08
00002660 DELETE   879.76 165.18 402.39 580.75 952.30 422.91 1122.91 423.20 1015.70 512.57 979.96 611.24 1103.68 609.92
00002661 00000076 895.70 166.00 408.96 581.23 986.23 412.70 1165.08 415.38 1066.30 517.20 1007.97 611.25 1140.85 614.11
00002662 00000077 909.47 166.40 409.56 582.42 1009.61 412.47 1186.51 411.78 1097.87 520.74 1036.09 613.27 1170.52 612.76
00002663 00000078 915.52 171.66 411.50 575.13 1024.67 412.76 1200.48 411.73 1117.34 516.36 1049.72 608.86 1192.35 607.37
00002664 00000079 917.86 168.41 411.80 581.79 1032.40 410.00 1205.07 409.27 1127.48 514.21 1057.96 609.15 1196.99 607.68
00002665 00000080 917.97 164.67 410.26 588.92 1032.94 408.60 1204.89 408.44 1128.16 516.02 1060.93 614.90 1192.32 614.15
00002666 00000081 915.33 167.07 408.78 586.24 1027.50 409.11 1199.22 408.88 1120.85 518.49 1055.89 617.16 1182.85 617.08
00002667 00000082 911.96 168.09 408.92 590.44 1020.19 411.51 1193.04 411.43 1111.06 522.27 1044.39 620.10 1173.17 620.71
00002668 00000083 905.58 172.64 414.32 592.69 1008.98 415.27 1185.27 415.98 1096.61 527.67 1032.32 624.74 1163.77 626.37
00002669 00000084 900.55 171.73 414.85 598.25 998.40 419.73 1175.14 423.55 1077.99 527.79 1017.52 624.46 1151.57 628.53
00002670 00000085 895.20 174.95 409.41 594.64 982.76 420.78 1156.78 424.53 1056.50 527.90 1006.51 627.48 1131.79 631.71
00002671 00000086 885.14 178.97 410.39 599.86 960.70 434.93 1136.42 440.19 1021.92 534.76 982.73 630.32 1110.44 634.36
00002672 00000087 874.11 186.99 412.48 597.10 946.26 443.55 1120.89 446.45 1007.74 541.75 966.27 632.70 1104.36 634.50
00002673 00000088 869.05 193.05 413.25 593.02 937.70 447.39 1111.56 450.81 995.79 548.46 957.26 636.15 1094.87 637.98
00002674 00000089 867.38 199.36 407.27 590.94 931.99 450.75 1099.60 451.94 986.49 550.15 955.64 644.23 1083.00 644.09
00002675 00000090 862.88 202.30 406.15 588.76 926.93 451.37 1092.26 452.95 980.22 553.00 951.68 646.88 1075.79 647.08
00002676 00000091 855.69 199.68 408.81 591.78 920.30 450.82 1088.88 452.84 975.86 558.19 940.68 645.64 1074.08 645.72
00002677 00000092 854.58 199.97 402.21 597.59 913.27 447.11 1082.38 458.03 965.63 562.99 935.38 640.31 1066.19 649.58
00002678 00000093 850.60 199.92 402.66 597.74 911.16 445.90 1078.41 455.89 961.59 560.43 937.33 643.13 1063.07 651.43
00002679 00000094 846.78 204.62 407.58 587.33 914.17 449.86 1081.74 450.20 970.67 556.09 938.72 649.37 1067.24 648.20
00002680 00000095 845.57 201.19 406.50 581.16 917.58 451.74 1087.08 454.45 978.00 556.70 939.36 647.48 1065.19 648.75
00002681 00000096 847.79 196.44 408.39 582.83 924.25 448.98 1093.38 452.56 988.56 552.15 946.19 645.22 1067.17 647.66
00002682 DELETE   851.70 188.48 409.67 590.20 937.60 441.70 1109.10 450.15 1005.48 548.51 956.18 639.03 1079.12 645.21
00002683 00000098 861.10 187.82 406.72 586.22 955.94 435.38 1125.67 446.46 1024.20 542.06 969.69 633.39 1103.31 644.25
00002684 00000099 869.01 177.82 409.64 596.40 971.63 430.92 1146.98 442.84 1047.79 540.35 989.17 632.34 1127.28 642.91
00002685 00000100 883.96 172.28 407.54 600.02 981.11 425.29 1165.84 440.27 1062.94 540.09 992.93 627.44 1127.31 640.89
00002686 00000101 884.95 172.45 409.63 595.45 981.99 424.65 1167.25 440.30 1063.02 541.13 992.35 625.82 1125.89 639.95
00002687 00000102 885.42 172.07 410.15 593.67 978.21 424.49 1162.63 441.71 1055.64 541.65 988.74 624.87 1120.27 640.08
00002688 00000103 885.00 178.54 410.03 589.29 972.21 425.56 1160.11 441.92 1047.72 542.94 983.87 626.36 1119.95 640.57
00002689 00000104 886.36 177.38 409.85 590.89 966.96 425.72 1153.89 440.00 1038.83 542.76 979.63 625.96 1118.90 638.12
00002690 00000105 883.39 172.00 413.65 604.06 960.97 433.98 1138.10 446.09 1019.96 538.68 972.60 625.69 1109.04 635.44
00002691 00000106 882.18 175.17 415.01 601.58 957.21 434.09 1132.36 446.22 1012.74 538.56 966.27 621.52 1106.17 631.34
00002692 00000107 881.83 174.40 414.21 601.93 954.33 432.71 1128.33 446.34 1007.60 540.89 962.71 619.55 1103.56 630.56
00002693 00000108 881.44 175.41 415.98 599.60 952.45 433.16 1125.68 446.55 1004.55 541.18 962.07 618.82 1103.49 629.45
00002694 00000109 882.07 173.53 417.63 601.72 953.41 432.30 1126.61 444.91 1004.39 538.52 965.10 618.31 1105.34 628.16
00002695 00000110 885.32 173.09 416.82 600.01 954.27 429.17 1126.61 439.01 1005.13 532.90 970.14 619.31 1104.73 626.91
00002696 00000111 889.22 170.84 415.22 597.08 958.01 426.12 1129.98 435.66 1010.29 528.94 975.76 617.59 1105.31 624.94
00002697 00000112 891.74 169.60 413.91 591.99 961.62 422.82 1134.69 432.76 1016.09 526.68 980.65 614.19 1111.13 621.76
00002698 00000113 894.12 164.27 411.49 591.57 964.20 419.57 1138.49 429.58 1021.80 524.02 986.01 611.33 1116.16 618.82
CROP_BBOX: 598 0 1516 928
