Video ID: 	Fr5jjbBsqfA
H: 	1080
W: 	1920
FPS: 	29.97002997002997

FRAME INDEX X0 Y0 W H [Landmarks (5 Points)]

00024287 00000000 692.28 166.59 424.74 570.03 797.94 352.25 1000.34 357.17 896.37 434.51 818.12 572.11 977.82 576.02
00024288 00000001 686.73 162.89 424.18 559.27 789.59 354.52 991.38 358.31 887.15 433.59 805.71 563.20 965.14 566.10
00024289 00000002 684.08 159.48 422.19 549.47 784.83 352.06 983.94 353.25 876.96 430.83 799.85 554.16 956.72 555.03
00024290 00000003 679.34 150.85 418.38 555.87 778.88 350.71 975.25 353.52 869.78 426.71 789.61 550.06 947.98 552.73
00024291 00000004 679.33 149.81 418.94 558.84 778.34 351.00 975.39 353.48 869.23 426.37 790.03 550.42 948.80 552.86
00024292 DELETE   673.39 134.63 422.09 567.74 768.94 350.27 975.85 357.48 849.95 429.49 770.36 548.27 941.84 555.16
00024293 00000006 670.15 141.47 415.67 554.75 762.35 352.66 971.14 362.98 841.85 420.72 758.25 548.13 923.91 556.79
00024294 DELETE   662.74 130.64 409.13 558.39 744.56 350.37 950.83 355.56 818.09 426.75 744.49 549.89 917.62 555.10
00024295 DELETE   656.30 128.66 411.76 555.01 734.42 348.03 941.03 357.43 801.79 422.68 730.66 546.74 906.07 555.66
00024296 DELETE   656.29 128.65 411.89 555.12 734.43 348.03 940.99 357.33 801.60 422.62 730.62 546.72 905.73 555.54
00024297 00000010 649.98 128.87 412.94 551.01 727.06 345.77 930.38 360.11 791.13 421.74 719.74 543.42 896.02 556.13
00024298 00000011 646.46 127.76 415.48 550.14 723.78 344.71 925.30 359.81 783.94 421.09 714.20 541.35 886.66 555.00
00024299 00000012 643.18 129.27 418.81 554.69 721.13 343.77 921.07 362.92 778.22 426.11 708.93 541.43 878.45 558.52
00024300 00000013 643.85 129.16 415.89 556.36 718.98 346.03 916.06 366.59 773.53 435.91 705.75 543.57 869.80 562.01
00024301 00000014 643.99 128.24 415.54 556.10 718.59 345.78 915.58 366.66 772.98 435.83 705.31 543.44 869.47 562.03
00024302 00000015 643.99 126.12 413.54 563.79 716.55 347.86 912.21 369.72 768.08 439.77 702.26 546.62 863.02 566.01
00024303 00000016 642.57 126.52 416.08 568.02 713.61 349.75 911.70 371.81 765.69 439.77 697.58 550.13 861.70 569.50
00024304 00000017 641.68 130.83 419.15 570.23 711.70 352.97 910.07 373.95 762.84 440.30 695.28 554.16 858.69 572.58
00024305 00000018 641.86 134.44 418.27 567.41 713.80 356.04 908.95 379.81 762.60 447.25 694.08 557.34 852.05 577.80
00024306 00000019 641.83 133.98 418.29 568.30 713.79 355.63 909.31 379.70 762.39 446.61 694.02 557.25 852.35 577.92
00024307 00000020 641.68 137.48 419.32 568.45 714.03 358.40 909.89 383.04 761.94 447.79 693.61 562.38 851.85 583.59
00024308 00000021 641.30 140.71 419.64 569.34 713.44 361.31 909.43 384.09 760.48 449.98 693.83 565.77 853.23 585.76
00024309 00000022 639.06 143.04 419.58 570.20 710.99 363.72 908.83 385.77 760.84 452.38 691.78 570.96 853.86 590.06
00024310 00000023 638.47 146.61 419.90 569.13 711.24 366.28 908.34 387.77 760.23 455.81 691.53 571.81 853.33 590.72
00024311 00000024 638.40 146.07 419.04 569.62 711.66 366.40 908.23 388.36 760.35 456.18 691.73 571.72 852.54 591.02
00024312 00000025 638.72 145.17 417.89 572.80 710.47 368.43 908.37 389.37 758.96 458.18 691.28 574.31 853.42 592.65
00024313 00000026 638.41 143.96 419.24 574.29 709.86 370.69 907.97 391.74 759.27 459.17 691.32 576.21 854.01 594.12
00024314 00000027 638.49 138.75 420.89 584.38 709.73 372.73 909.12 392.16 760.41 460.53 691.81 579.64 854.95 596.10
00024315 00000028 639.26 137.61 420.49 586.75 709.33 372.47 908.31 391.80 759.45 461.71 692.14 580.36 855.97 596.61
00024316 00000029 639.43 138.39 419.67 585.39 709.35 372.35 907.87 391.58 759.79 462.03 692.36 579.73 855.75 595.85
00024317 00000030 640.08 137.59 420.47 587.99 710.01 372.86 908.61 390.99 761.37 462.79 694.44 580.73 857.82 595.99
00024318 00000031 641.50 137.55 420.57 589.01 710.74 373.31 908.56 389.77 761.49 464.01 697.31 580.54 860.43 594.53
00024319 00000032 642.08 136.65 420.04 589.92 710.95 373.00 909.20 388.65 762.09 463.03 697.57 580.41 861.34 593.67
00024320 00000033 642.45 136.26 419.92 590.05 710.38 372.53 909.77 386.82 761.88 461.01 697.37 580.81 861.84 593.02
00024321 00000034 642.42 135.80 419.81 590.29 710.28 372.61 909.60 386.83 761.84 461.37 697.47 580.68 862.24 592.77
00024322 00000035 643.08 135.02 420.56 589.71 709.39 371.43 909.07 384.55 760.37 458.04 696.88 579.08 862.82 590.28
00024323 00000036 642.89 134.98 420.76 588.21 709.30 371.16 909.41 383.02 761.06 455.84 697.60 578.09 864.23 588.09
00024324 00000037 644.59 136.88 420.01 584.55 710.84 370.12 909.36 381.59 760.78 454.45 699.14 576.01 864.06 586.07
00024325 00000038 644.53 136.10 421.37 590.71 711.03 369.53 909.22 380.11 759.75 453.39 699.92 577.15 863.47 586.79
00024326 00000039 644.74 137.29 421.29 589.29 711.04 369.78 909.06 380.38 759.21 453.40 699.82 576.71 863.19 586.46
00024327 00000040 642.73 145.93 420.71 595.55 716.06 372.05 906.34 384.11 761.48 450.72 706.40 577.51 859.43 588.63
00024328 00000041 639.42 149.85 423.66 607.54 717.32 365.54 912.35 377.59 760.28 446.79 698.65 580.66 859.23 591.69
00024329 00000042 640.25 148.80 422.69 607.83 715.12 362.01 915.97 375.73 759.58 446.31 694.91 577.07 867.22 589.51
00024330 00000043 638.37 145.25 422.77 606.52 713.27 359.23 917.29 372.43 761.73 442.13 694.42 574.27 870.88 586.64
00024331 00000044 638.36 146.84 422.90 605.43 713.37 359.49 917.33 371.48 762.13 441.40 694.72 574.12 871.62 585.43
00024332 00000045 637.46 149.37 423.40 598.94 717.63 357.03 919.84 370.00 766.66 439.87 695.47 571.49 868.64 583.87
00024333 00000046 640.55 149.96 420.27 592.32 723.15 354.94 922.69 370.13 773.15 440.58 701.00 565.45 869.90 579.99
00024334 00000047 644.19 149.41 417.82 589.41 727.34 351.27 923.58 370.22 774.64 440.99 704.74 560.77 868.97 578.48
00024335 00000048 645.40 148.08 418.05 588.93 727.99 351.54 925.32 373.89 774.33 446.11 704.24 560.92 869.13 581.12
00024336 00000049 645.46 147.42 418.20 588.49 727.66 351.40 925.35 373.91 774.10 446.16 703.58 561.01 868.41 581.36
00024337 00000050 645.28 146.69 420.85 597.93 729.07 355.42 926.31 378.85 774.50 449.37 705.54 568.26 865.75 589.18
00024338 00000051 644.44 154.48 421.26 597.07 732.02 360.74 925.36 385.55 775.82 458.57 706.60 574.39 862.59 596.39
00024339 00000052 645.69 157.22 422.37 596.99 734.07 364.98 925.19 390.93 775.25 465.75 707.64 576.47 863.21 599.12
00024340 00000053 646.03 158.33 421.31 595.73 734.69 366.49 926.42 392.77 776.42 467.78 707.50 578.85 862.40 601.92
00024341 00000054 645.99 157.73 422.17 597.98 734.49 366.54 926.56 392.75 775.76 468.53 707.67 579.33 863.72 602.21
00024342 00000055 646.77 157.23 421.62 597.29 734.87 366.50 926.50 390.12 776.03 466.04 709.99 579.07 864.13 599.90
00024343 00000056 647.38 155.12 421.45 593.23 733.26 366.02 927.52 388.71 778.49 463.56 712.16 577.28 867.46 597.33
00024344 00000057 649.26 157.17 420.86 583.92 731.03 362.97 927.00 385.52 776.11 458.49 711.16 571.66 868.91 591.60
00024345 00000058 649.26 156.29 419.07 577.90 731.43 358.56 925.73 381.95 777.21 452.44 710.56 566.03 865.85 586.93
00024346 00000059 649.40 156.15 418.55 577.30 731.55 358.33 925.72 381.81 777.46 452.76 710.74 565.85 865.63 586.84
00024347 00000060 650.76 150.20 418.94 583.41 730.96 356.53 925.67 380.31 775.60 449.41 710.24 563.42 867.66 584.51
00024348 00000061 652.03 151.05 416.33 579.66 732.67 355.15 927.61 379.17 777.44 448.92 712.02 560.95 869.59 582.39
00024349 00000062 652.90 151.35 415.89 576.30 733.87 355.29 928.46 379.86 779.00 447.81 713.14 559.48 869.36 581.66
00024350 00000063 654.93 153.91 414.96 574.26 735.63 355.31 929.84 379.75 779.38 447.27 713.90 559.67 869.49 581.97
00024351 00000064 654.38 153.74 416.04 575.35 735.92 354.96 930.38 380.12 779.78 447.00 713.81 559.55 869.39 582.46
00024352 00000065 656.16 154.85 418.19 579.39 739.32 355.45 931.14 380.20 780.85 445.36 717.19 560.03 868.93 582.90
00024353 00000066 657.82 148.53 419.33 576.21 739.97 355.28 930.90 383.04 782.29 443.94 719.04 554.67 872.40 579.66
00024354 00000067 658.03 149.71 424.36 576.71 745.62 350.37 936.32 383.89 784.45 444.12 718.11 553.07 868.94 582.51
00024355 00000068 664.10 148.45 426.16 581.84 751.55 348.75 947.58 379.17 791.32 440.49 722.62 555.01 880.63 581.26
00024356 00000069 664.20 149.74 427.08 581.21 752.19 348.39 948.00 379.11 791.16 440.07 722.59 555.29 879.70 581.82
00024357 00000070 666.75 142.35 438.40 577.07 764.43 350.76 955.70 379.87 810.69 439.83 730.12 551.83 889.62 576.90
00024358 00000071 669.32 139.36 440.03 572.61 770.03 345.66 961.66 377.32 814.97 434.50 732.42 543.99 893.73 570.95
00024359 00000072 671.81 138.48 437.20 562.76 772.79 341.85 966.04 372.37 821.22 421.37 733.79 536.51 899.82 561.79
00024360 00000073 678.74 137.78 426.06 559.99 777.46 330.23 967.22 365.30 832.79 412.38 740.67 529.41 898.60 559.52
00024361 00000074 678.32 137.64 426.01 560.54 777.37 330.08 967.41 365.56 832.80 411.72 740.28 529.07 899.37 559.50
00024362 00000075 679.81 135.25 428.01 559.26 777.77 330.13 969.12 356.96 835.94 408.75 749.18 530.06 903.93 553.44
00024363 00000076 681.53 136.18 425.22 565.19 777.49 330.12 970.91 355.74 837.92 410.83 751.26 533.54 908.64 556.31
00024364 00000077 681.63 141.43 423.29 565.60 778.86 334.32 969.21 360.35 837.90 413.51 751.05 540.11 897.87 563.53
00024365 00000078 678.62 144.61 423.95 576.21 773.16 337.04 966.74 360.30 832.38 424.81 748.79 543.55 907.11 564.92
00024366 00000079 678.24 144.25 423.79 576.22 773.21 337.27 966.37 360.59 832.50 425.04 748.82 543.73 905.86 565.17
00024367 00000080 675.32 144.14 421.18 572.92 770.10 338.23 962.14 365.98 826.97 425.48 741.24 541.13 905.98 566.11
00024368 00000081 674.84 148.61 422.95 554.81 767.38 340.37 971.42 368.72 829.56 418.70 743.30 535.23 912.48 558.91
00024369 00000082 675.26 148.98 420.44 551.97 767.32 339.92 971.85 368.70 830.69 421.13 743.09 532.88 914.62 556.69
00024370 00000083 675.21 146.40 420.52 555.52 766.06 339.86 970.80 366.13 829.19 422.72 744.67 535.96 914.42 557.71
00024371 00000084 675.43 145.86 420.26 555.92 766.19 340.19 971.09 366.27 829.65 422.83 744.75 535.92 915.10 557.47
00024372 00000085 675.38 144.42 419.10 558.71 764.67 341.27 969.79 364.22 828.19 422.54 744.60 539.87 913.15 559.13
00024373 00000086 674.82 143.12 419.50 562.11 764.38 340.99 967.98 362.26 826.14 418.29 744.56 542.32 907.77 560.61
00024374 00000087 670.20 132.00 429.45 578.77 759.89 344.83 954.27 356.06 816.69 420.31 739.10 545.93 901.02 556.76
00024375 00000088 669.06 130.20 428.36 582.42 755.28 343.39 953.48 354.04 813.51 417.21 733.14 547.49 898.76 557.95
00024376 00000089 668.38 129.91 428.91 583.81 755.09 343.39 953.12 354.05 813.02 416.97 733.26 548.02 898.74 558.47
00024377 00000090 664.93 131.66 422.12 577.81 750.08 338.51 956.88 351.17 807.59 415.11 733.63 547.87 909.14 559.34
00024378 00000091 663.46 131.25 423.09 579.14 748.44 339.44 956.93 353.18 806.99 417.96 732.48 548.52 912.79 560.53
00024379 00000092 663.86 128.89 420.44 581.55 746.85 342.50 956.55 353.41 807.29 418.67 733.67 551.33 915.74 561.20
00024380 00000093 662.91 128.28 419.86 570.02 747.95 342.18 954.64 351.21 812.40 416.85 738.51 547.12 912.69 555.43
00024381 00000094 662.80 128.97 420.04 569.53 748.04 342.06 954.57 351.36 812.40 416.68 738.39 546.91 912.42 555.43
00024382 00000095 663.20 128.06 417.82 563.79 746.78 340.65 951.95 346.97 813.68 415.49 739.74 539.38 919.43 546.11
00024383 00000096 664.39 131.94 415.56 560.79 749.53 341.04 953.11 348.22 816.40 417.83 742.82 540.25 918.16 547.22
00024384 00000097 666.27 132.99 417.49 567.38 751.32 344.19 951.97 347.51 813.85 419.13 746.68 548.77 910.33 551.97
00024385 00000098 666.87 134.41 418.14 567.86 751.91 342.30 952.62 346.15 814.62 420.06 747.46 549.12 909.01 552.83
00024386 00000099 666.60 136.11 417.82 566.37 751.73 342.06 951.79 346.24 814.13 420.36 747.33 548.65 908.44 552.57
00024387 00000100 667.39 134.82 414.73 565.61 750.80 343.47 953.11 350.61 815.25 424.71 746.31 546.51 916.18 552.41
00024388 00000101 668.07 133.30 416.16 569.53 751.86 343.60 954.87 351.99 817.78 426.63 748.17 547.16 919.45 553.83
00024389 00000102 667.85 132.41 417.60 567.93 753.37 342.38 957.66 353.31 820.18 426.21 748.01 546.48 919.63 555.13
00024390 00000103 669.10 135.22 419.04 571.49 754.65 340.71 958.20 352.04 818.23 426.08 746.48 548.63 915.48 557.95
00024391 00000104 669.63 136.04 418.39 569.85 754.91 340.41 957.76 351.63 817.80 425.13 746.38 548.50 913.96 557.88
00024392 00000105 668.86 135.43 418.07 572.34 754.07 339.41 957.92 351.00 816.46 423.01 744.30 550.42 912.38 560.43
00024393 00000106 667.98 133.65 418.07 575.77 753.00 340.62 958.99 352.36 817.08 422.74 742.56 552.85 914.19 563.08
00024394 00000107 668.18 133.37 419.59 582.10 753.10 342.67 959.97 352.19 817.63 421.93 742.71 556.78 915.04 565.58
00024395 00000108 666.13 134.43 422.01 591.96 751.02 345.45 961.91 354.76 817.68 424.82 741.29 564.90 916.49 573.41
00024396 00000109 666.19 134.40 421.86 591.81 751.07 345.54 961.86 354.93 817.96 425.10 741.40 564.81 916.66 573.38
00024397 00000110 665.68 136.88 422.64 597.27 750.15 348.55 963.42 357.03 818.61 431.84 743.07 571.46 918.81 579.00
00024398 00000111 665.82 136.87 421.72 599.75 749.33 350.21 964.95 358.14 821.47 437.70 744.22 575.99 921.95 583.12
00024399 00000112 664.42 139.22 421.55 596.67 747.82 354.49 963.03 361.63 823.25 441.40 745.71 578.05 923.72 584.45
00024400 00000113 664.55 141.40 418.56 593.54 747.34 359.39 961.50 365.61 822.45 446.61 745.88 580.29 923.14 586.00
00024401 00000114 664.73 141.63 418.69 593.91 747.43 359.45 961.57 365.51 823.02 446.37 746.10 580.32 923.51 585.96
00024402 00000115 664.72 140.11 414.82 598.81 746.62 363.61 960.29 367.90 822.57 448.19 746.58 584.78 922.47 589.42
00024403 00000116 663.89 140.82 413.14 603.33 746.46 368.34 959.15 369.68 825.76 453.99 749.19 588.95 925.77 591.10
00024404 00000117 665.01 143.08 414.41 614.47 748.08 371.87 961.56 370.08 829.80 456.98 753.59 596.87 928.92 596.25
00024405 00000118 663.23 146.41 412.74 628.81 747.22 374.08 958.50 370.65 828.54 466.28 754.70 607.85 929.76 605.16
00024406 00000119 663.01 146.11 414.01 628.75 747.18 374.25 959.27 370.91 828.50 466.26 754.51 607.72 929.85 605.03
00024407 00000120 659.54 149.05 415.01 635.79 745.67 379.85 953.58 377.30 827.21 472.95 752.92 611.35 931.44 609.19
00024408 00000121 657.80 151.23 415.38 630.32 744.27 387.26 952.13 386.15 829.92 479.68 753.88 613.25 932.59 612.73
00024409 00000122 654.76 151.71 419.15 608.43 739.84 398.40 949.45 396.23 828.67 488.74 757.32 615.02 931.20 613.16
00024410 00000123 649.02 158.82 423.17 592.52 741.21 408.40 940.72 403.44 828.92 488.61 765.16 613.31 923.18 609.14
00024411 00000124 648.93 158.64 423.20 593.64 741.03 408.32 940.69 403.24 828.87 488.66 765.03 613.47 923.49 609.21
00024412 00000125 646.34 160.67 423.73 601.42 739.56 413.89 933.48 408.05 823.76 490.38 765.54 617.98 918.03 613.11
00024413 00000126 642.70 162.59 422.69 606.62 736.64 416.16 924.09 408.76 818.22 492.49 765.06 623.37 908.69 617.90
00024414 00000127 640.52 163.78 421.74 609.40 733.97 417.48 919.50 408.20 813.46 493.04 762.87 628.11 902.23 621.63
00024415 00000128 638.01 167.40 421.61 608.28 730.27 419.04 917.50 411.64 807.43 499.16 757.25 632.76 894.13 628.44
00024416 00000129 637.89 167.64 421.41 606.87 730.39 418.82 917.51 411.78 807.44 498.63 757.03 631.47 894.30 627.41
00024417 00000130 636.98 167.74 420.22 611.97 726.06 423.93 911.02 416.96 798.81 503.92 751.65 636.32 888.03 632.31
00024418 00000131 633.85 169.46 418.43 618.17 720.14 431.94 906.06 422.66 793.07 508.44 746.79 646.10 882.47 640.10
CROP_BBOX: 394 0 1344 940
