Video ID: 	b46vBW_dNiU
H: 	1080
W: 	1920
FPS: 	24.0

FRAME INDEX X0 Y0 W H [Landmarks (5 Points)]

00003374 00000000 493.56 46.47 252.47 371.27
00003375 00000001 495.69 47.03 252.56 371.17
00003376 DELETE   497.63 47.91 252.61 371.03
00003377 00000003 499.57 48.79 252.67 370.88
00003378 00000004 501.52 49.68 252.72 370.74
00003379 DELETE   503.46 50.56 252.77 370.59
00003380 DELETE   945.91 111.26 372.52 602.54 1018.40 369.18 1193.50 373.23 1092.12 488.23 1038.08 561.04 1194.46 564.06
00003381 00000007 943.89 111.52 372.37 596.42 1019.36 363.31 1193.57 366.35 1094.90 475.26 1035.64 549.43 1198.03 551.30
00003382 DELETE   934.67 106.99 366.26 588.91 1002.11 359.70 1172.08 369.98 1068.75 471.35 1012.06 538.59 1175.27 545.36
00003383 DELETE   505.82 46.69 253.54 372.36
00003384 DELETE   505.72 46.23 253.70 372.71
00003385 00000011 502.86 47.82 253.72 372.71
00003386 00000012 499.99 49.41 253.74 372.70
00003387 00000013 497.12 51.00 253.75 372.69
00003388 DELETE   494.26 52.59 253.77 372.69
00003389 00000015 492.54 53.11 253.72 372.66
00003390 00000016 492.55 52.02 253.56 372.60
00003391 00000017 492.55 50.94 253.41 372.53
00003392 00000018 492.55 49.86 253.25 372.47
00003393 00000019 492.56 48.77 253.09 372.41
00003394 00000020 493.14 47.93 253.21 372.02
00003395 00000021 494.10 47.25 253.50 371.41
00003396 00000022 495.07 46.57 253.79 370.80
00003397 00000023 496.04 45.89 254.07 370.20
00003398 00000024 497.00 45.21 254.36 369.59
00003399 00000025 498.18 45.23 254.45 368.94
00003400 00000026 499.41 45.43 254.49 368.29
00003401 00000027 500.65 45.63 254.53 367.64
00003402 00000028 501.88 45.84 254.57 366.99
00003403 00000029 961.42 112.73 355.06 571.29 1005.19 363.37 1150.29 357.20 1048.62 467.72 1040.07 539.67 1179.95 532.44
00003404 00000030 963.13 114.50 356.09 572.97 1006.75 364.70 1152.19 358.36 1050.20 468.29 1040.97 540.23 1181.89 533.03
00003405 00000031 967.56 112.49 355.53 572.28 1011.46 364.70 1158.29 359.02 1055.30 468.35 1043.64 539.57 1184.49 533.19
00003406 00000032 969.30 112.31 357.18 577.03 1012.90 366.75 1159.84 361.29 1056.19 473.43 1047.20 546.00 1184.68 540.23
00003407 00000033 969.35 114.37 354.75 580.45 1010.55 367.25 1157.98 364.62 1054.87 480.32 1045.34 550.67 1182.83 547.02
00003408 00000034 963.98 113.97 368.28 591.90 1006.23 370.11 1172.66 353.37 1064.50 486.02 1045.45 568.25 1192.64 555.06
00003409 00000035 965.89 115.54 367.34 590.67 1008.08 370.02 1173.76 354.47 1066.55 489.37 1047.10 564.24 1196.82 551.68
00003410 00000036 974.64 119.27 356.98 581.62 1016.44 374.18 1173.94 369.58 1069.78 492.78 1050.98 552.19 1206.86 545.94
00003411 00000037 513.84 46.65 254.99 367.86
00003412 00000038 515.06 47.32 254.88 368.06
00003413 00000039 515.98 47.87 254.81 368.24
00003414 00000040 516.44 48.23 254.82 368.38
00003415 00000041 516.90 48.59 254.84 368.52
00003416 00000042 517.37 48.95 254.85 368.65
00003417 00000043 973.09 117.50 359.03 574.59 1014.16 370.29 1167.12 365.71 1063.73 490.03 1051.98 547.78 1203.01 541.12
00003418 00000044 973.41 113.43 367.66 572.17 1015.97 372.68 1172.26 362.69 1067.98 487.53 1042.58 548.61 1197.41 538.43
00003419 00000045 976.69 109.07 369.38 579.45 1020.24 366.95 1180.23 359.99 1071.98 478.55 1046.09 546.52 1197.76 539.63
00003420 00000046 983.65 108.81 366.91 583.29 1026.04 367.95 1186.72 360.49 1077.58 478.30 1052.39 544.99 1205.58 537.99
00003421 00000047 988.27 111.11 362.51 580.88 1031.91 366.76 1190.62 359.93 1081.69 476.87 1056.83 542.55 1209.87 536.12
00003422 00000048 991.40 111.75 360.73 578.53 1036.12 366.67 1195.02 359.34 1085.66 475.03 1060.92 541.10 1215.53 534.40
00003423 00000049 994.03 110.24 359.27 578.02 1037.35 367.44 1196.72 360.07 1087.71 476.80 1061.60 540.17 1218.02 533.58
00003424 00000050 996.86 109.41 356.70 576.51 1039.33 368.96 1199.77 361.79 1091.49 480.32 1061.18 538.56 1222.41 532.15
00003425 00000051 529.07 45.87 253.62 367.39
00003426 00000052 1003.06 116.80 357.28 557.23 1047.98 368.65 1200.05 370.20 1090.58 477.96 1079.41 534.24 1231.75 532.35
00003427 00000053 1006.00 119.32 355.49 550.10 1051.98 367.81 1200.95 370.50 1092.29 475.81 1082.59 531.40 1230.78 530.84
00003428 00000054 1008.19 121.20 354.95 544.77 1054.26 365.71 1203.26 369.72 1093.63 475.28 1083.00 528.01 1232.18 528.76
00003429 00000055 1009.72 121.85 356.37 543.69 1056.50 365.68 1205.11 370.04 1095.77 475.37 1084.32 526.82 1234.44 527.97
00003430 00000056 1010.78 122.70 357.02 543.82 1057.57 366.06 1206.55 370.89 1097.06 476.71 1084.74 526.63 1235.76 528.31
00003431 00000057 1011.58 123.40 356.12 544.21 1057.29 367.49 1207.13 371.85 1098.02 478.54 1084.29 527.19 1237.27 528.60
00003432 00000058 1010.21 125.71 356.60 542.32 1057.26 367.93 1207.07 372.95 1098.03 479.96 1083.94 527.14 1236.94 529.23
00003433 00000059 1009.97 125.60 355.59 544.67 1055.83 368.53 1205.93 374.06 1096.77 482.17 1082.57 527.60 1237.67 530.10
00003434 00000060 1008.12 126.78 355.87 544.42 1053.97 370.27 1204.78 374.99 1095.60 483.82 1081.69 528.40 1238.71 530.20
00003435 00000061 541.91 47.46 251.80 362.23
00003436 00000062 542.44 47.88 251.63 361.71
00003437 00000063 542.66 48.37 251.46 361.15
00003438 00000064 542.43 48.98 251.28 360.52
00003439 00000065 542.19 49.58 251.10 359.89
00003440 00000066 541.96 50.19 250.93 359.25
00003441 00000067 541.72 50.80 250.75 358.62
00003442 00000068 999.54 129.59 355.07 545.57 1046.88 376.92 1202.11 379.52 1096.56 489.13 1076.94 531.17 1240.14 530.94
00003443 00000069 998.82 130.38 355.09 545.87 1046.18 377.07 1202.60 380.07 1097.05 489.91 1075.79 531.61 1239.99 531.68
00003444 00000070 540.93 52.51 250.23 357.28
00003445 00000071 540.67 53.08 250.06 356.87
00003446 00000072 998.52 130.67 354.15 548.78 1044.75 377.82 1201.06 381.07 1095.80 491.14 1073.88 532.75 1237.95 533.04
00003447 00000073 997.31 131.93 352.35 547.49 1043.07 378.79 1199.07 381.77 1094.57 491.72 1072.61 533.44 1235.47 533.49
00003448 00000074 995.87 130.81 352.23 549.14 1040.74 379.49 1197.23 381.44 1092.34 491.21 1072.09 534.12 1234.56 533.05
00003449 00000075 994.31 130.09 352.84 551.22 1037.49 380.41 1196.08 381.36 1090.45 491.78 1069.49 535.46 1233.67 533.50
00003450 00000076 993.89 131.62 349.35 549.29 1033.61 386.40 1195.97 385.45 1089.77 490.44 1065.87 537.31 1232.95 533.84
00003451 00000077 992.69 131.41 347.99 550.41 1030.93 387.87 1193.30 385.66 1088.54 490.00 1063.39 538.17 1231.16 533.85
00003452 00000078 990.66 130.67 350.52 553.50 1028.72 385.34 1190.56 383.60 1085.31 491.98 1061.66 537.94 1229.96 534.01
00003453 00000079 987.61 131.77 351.63 553.87 1025.90 385.40 1187.84 381.81 1083.94 493.40 1059.54 538.36 1228.73 533.18
00003454 00000080 986.71 132.07 350.74 556.53 1023.75 385.40 1184.22 381.17 1081.33 495.40 1058.01 538.94 1226.47 533.34
00003455 00000081 984.28 132.41 351.85 555.56 1021.62 385.82 1182.45 381.36 1079.31 495.53 1055.95 538.77 1223.77 533.04
00003456 00000082 533.72 58.26 249.35 354.68
00003457 00000083 532.35 58.57 249.55 354.73
00003458 00000084 530.98 58.89 249.75 354.78
00003459 00000085 529.62 59.20 249.95 354.84
00003460 00000086 528.25 59.52 250.15 354.89
00003461 00000087 527.03 59.76 250.33 354.88
00003462 00000088 526.04 59.89 250.46 354.78
00003463 00000089 525.05 60.02 250.59 354.69
00003464 00000090 524.06 60.15 250.72 354.59
00003465 00000091 523.06 60.28 250.85 354.49
00003466 00000092 522.32 60.01 250.76 354.33
00003467 00000093 521.74 59.46 250.52 354.11
00003468 00000094 521.16 58.91 250.28 353.90
00003469 00000095 520.58 58.37 250.04 353.69
00003470 00000096 961.94 134.82 343.57 543.24 1000.41 372.16 1145.61 373.86 1043.65 483.46 1028.86 529.01 1182.47 528.22
00003471 00000097 956.52 134.66 347.54 547.82 995.66 373.78 1143.17 375.84 1039.99 487.26 1025.29 532.68 1180.38 532.20
00003472 00000098 951.68 136.90 348.80 549.53 991.02 375.91 1140.02 378.61 1036.52 492.88 1021.74 535.30 1179.00 535.47
00003473 00000099 946.65 139.03 351.42 548.41 988.47 378.71 1136.43 380.94 1034.60 494.42 1020.79 535.83 1177.63 535.63
00003474 00000100 942.50 138.08 352.07 547.80 985.11 380.22 1134.38 381.61 1032.50 493.53 1018.28 536.09 1176.19 535.01
00003475 00000101 939.43 136.99 351.52 547.24 982.01 380.95 1130.34 380.86 1029.29 492.63 1017.35 536.28 1174.09 533.81
00003476 00000102 936.14 135.89 353.04 549.03 979.28 381.73 1126.67 380.12 1026.31 492.64 1016.36 537.28 1172.33 533.25
00003477 00000103 933.02 135.52 352.75 552.15 974.84 384.86 1122.47 380.46 1023.40 492.81 1015.17 541.14 1170.02 534.43
00003478 00000104 931.35 138.22 351.43 552.15 973.47 388.61 1120.26 383.61 1023.75 496.70 1015.27 542.56 1170.35 535.42
00003479 00000105 929.96 139.06 351.10 551.80 971.55 390.94 1118.03 385.98 1021.88 499.42 1015.93 543.89 1170.06 536.81
00003480 00000106 929.78 139.69 350.99 550.47 971.70 390.90 1118.36 386.39 1022.67 499.88 1016.04 543.49 1170.10 536.81
00003481 00000107 929.85 137.97 351.02 550.11 972.56 390.25 1119.50 384.97 1024.92 498.12 1015.82 542.02 1170.65 534.67
00003482 00000108 502.04 56.77 248.98 353.34
00003483 00000109 501.14 56.84 249.04 353.32
00003484 00000110 500.24 56.92 249.09 353.31
00003485 00000111 499.64 56.83 249.12 353.28
00003486 00000112 499.52 56.48 249.10 353.25
00003487 00000113 499.40 56.14 249.08 353.22
00003488 00000114 499.27 55.80 249.06 353.19
00003489 00000115 499.15 55.45 249.04 353.16
00003490 00000116 499.28 55.17 249.00 353.12
00003491 00000117 499.58 54.92 248.95 353.08
00003492 00000118 499.88 54.66 248.90 353.03
00003493 00000119 500.18 54.41 248.84 352.99
00003494 00000120 500.48 54.16 248.79 352.95
00003495 00000121 501.35 54.05 248.57 352.86
00003496 00000122 502.35 53.97 248.30 352.75
00003497 00000123 503.35 53.89 248.04 352.65
00003498 00000124 504.36 53.81 247.77 352.55
00003499 00000125 505.36 53.73 247.51 352.44
00003500 00000126 506.80 53.81 247.15 352.30
00003501 00000127 508.23 53.90 246.79 352.16
00003502 00000128 509.66 53.99 246.43 352.02
00003503 00000129 511.10 54.08 246.07 351.88
00003504 00000130 512.43 54.25 245.81 351.69
00003505 00000131 513.36 54.75 245.97 351.29
00003506 00000132 514.30 55.26 246.14 350.89
00003507 00000133 515.23 55.76 246.30 350.49
00003508 00000134 516.16 56.26 246.46 350.09
00003509 00000135 516.96 56.51 246.64 349.80
00003510 00000136 517.53 56.38 246.84 349.66
00003511 00000137 518.11 56.25 247.04 349.53
00003512 00000138 518.69 56.11 247.24 349.39
00003513 00000139 519.27 55.98 247.44 349.26
00003514 00000140 519.55 56.27 247.56 349.21
00003515 00000141 519.63 56.84 247.64 349.22
00003516 00000142 519.71 57.42 247.72 349.23
00003517 00000143 519.78 57.99 247.80 349.24
00003518 00000144 519.86 58.57 247.88 349.25
00003519 00000145 519.46 59.01 247.93 349.28
00003520 00000146 518.93 59.43 247.97 349.30
00003521 00000147 518.41 59.84 248.02 349.33
00003522 00000148 517.88 60.26 248.07 349.35
00003523 00000149 517.36 60.67 248.11 349.38
00003524 00000150 517.02 60.47 247.80 349.48
00003525 00000151 516.69 60.26 247.50 349.59
00003526 00000152 963.55 146.41 343.54 540.75 1005.26 382.45 1157.35 384.72 1058.66 500.24 1035.80 537.51 1193.99 538.06
00003527 00000153 963.32 147.14 344.08 539.89 1004.78 382.79 1157.16 384.58 1058.59 500.49 1035.98 537.95 1194.20 538.07
00003528 00000154 963.10 147.16 344.33 538.89 1005.09 382.35 1157.18 383.86 1059.05 499.49 1035.68 536.46 1194.40 536.40
00003529 00000155 962.90 146.00 343.97 537.87 1005.96 381.34 1158.10 382.57 1060.09 498.01 1036.04 534.89 1195.14 534.66
00003530 00000156 964.17 142.43 341.54 537.57 1006.36 378.05 1158.00 379.49 1060.25 495.43 1035.55 531.23 1194.75 531.12
00003531 00000157 965.16 138.97 341.00 536.19 1007.18 376.84 1156.84 376.98 1059.80 490.75 1036.93 528.47 1193.66 526.89
CROP_BBOX: 777 0 1760 884
