Video ID: 	an23gYUOdSY
H: 	2160
W: 	3840
FPS: 	30.0

FRAME INDEX X0 Y0 W H [Landmarks (5 Points)]

00002205 00000000 1283.83 286.74 905.61 1393.87 1542.66 790.44 1991.69 789.88 1803.87 966.34 1581.83 1268.69 1984.61 1264.43
00002206 00000001 1286.06 281.64 909.19 1395.32 1549.19 784.24 1999.40 781.36 1814.57 958.78 1590.48 1265.50 1991.93 1258.01
00002207 00000002 1290.92 288.61 908.24 1392.41 1555.86 778.13 2003.00 773.99 1817.49 959.12 1603.07 1270.51 1988.59 1262.07
00002208 00000003 1302.36 286.98 904.16 1393.03 1558.67 784.35 2011.27 786.05 1818.05 971.12 1593.48 1270.80 1991.90 1266.85
00002209 00000004 1303.72 296.04 907.13 1392.51 1559.41 790.76 2012.15 797.78 1811.30 985.95 1587.55 1273.74 1987.38 1274.54
00002210 00000005 1307.55 307.40 903.13 1389.98 1557.64 800.44 2011.44 811.67 1802.69 1009.54 1579.77 1286.88 1986.21 1290.86
00002211 00000006 1311.15 319.91 899.78 1382.37 1555.72 816.40 2013.48 833.39 1798.26 1035.65 1570.87 1300.85 1985.47 1310.61
00002212 00000007 1305.86 340.42 909.22 1363.22 1556.61 826.86 2012.44 849.59 1793.09 1050.13 1571.22 1308.51 1975.03 1323.41
00002213 00000008 1307.96 345.56 910.45 1360.64 1560.54 836.27 2012.32 863.28 1792.56 1065.46 1569.35 1315.19 1972.41 1334.11
00002214 00000009 1313.18 349.18 909.75 1360.45 1563.23 839.42 2014.21 868.24 1791.98 1073.55 1570.93 1317.14 1971.80 1337.30
00002215 00000010 1316.26 354.12 906.19 1352.84 1564.50 844.20 2014.28 873.45 1790.25 1078.96 1574.74 1318.82 1973.22 1339.29
00002216 00000011 1318.10 353.57 908.68 1354.09 1567.48 844.43 2014.82 874.78 1792.09 1075.86 1575.54 1314.72 1969.55 1336.07
00002217 00000012 1319.46 346.48 907.57 1359.53 1569.18 847.01 2012.49 876.33 1794.44 1074.30 1577.66 1312.77 1968.45 1333.24
00002218 00000013 1314.47 332.37 902.37 1372.59 1559.18 851.76 2004.23 861.97 1783.15 1073.89 1562.80 1319.14 1973.62 1328.28
00002219 00000014 1312.01 329.54 904.87 1387.99 1554.73 864.32 2004.44 868.99 1782.56 1081.61 1559.58 1329.55 1978.00 1333.86
00002220 00000015 1308.61 332.96 905.96 1406.95 1547.92 871.28 1998.06 873.79 1774.46 1084.07 1557.16 1350.15 1970.02 1353.09
00002221 00000016 1301.48 347.32 912.71 1407.27 1533.33 886.61 1985.58 888.18 1755.26 1091.34 1542.82 1371.97 1948.97 1374.51
00002222 00000017 1292.93 351.68 913.69 1412.93 1519.62 892.59 1970.86 896.97 1732.03 1096.55 1527.15 1383.33 1916.82 1388.91
00002223 DELETE   1288.08 367.48 910.16 1407.64 1503.67 902.97 1955.87 914.14 1702.98 1101.80 1501.28 1393.07 1884.39 1404.40
00002224 DELETE   1281.00 370.63 908.58 1411.41 1486.74 924.05 1939.85 936.57 1681.77 1123.69 1487.66 1407.83 1868.36 1419.33
00002225 00000020 1274.99 376.64 932.52 1388.61 1474.48 925.62 1909.98 944.93 1646.52 1148.17 1470.38 1404.53 1837.98 1422.61
00002226 00000021 1280.95 394.24 921.01 1387.03 1467.78 932.16 1907.79 963.93 1630.04 1161.29 1462.93 1425.20 1820.62 1453.74
00002227 00000022 1262.10 395.54 938.78 1404.23 1466.26 937.10 1896.39 971.93 1623.08 1178.65 1454.47 1424.42 1809.30 1456.00
00002228 00000023 1261.89 389.66 940.92 1415.12 1470.31 942.42 1904.52 974.52 1632.78 1180.17 1453.65 1421.34 1828.68 1450.26
00002229 00000024 1267.17 383.09 940.51 1417.45 1488.44 939.20 1924.98 971.27 1658.61 1174.35 1468.31 1409.41 1851.09 1438.41
00002230 00000025 1281.70 385.50 935.70 1414.49 1508.87 935.49 1941.92 964.76 1681.71 1168.94 1492.21 1410.94 1864.56 1437.72
00002231 00000026 1285.86 380.94 936.33 1411.11 1524.96 929.38 1960.94 958.41 1715.38 1171.25 1510.44 1409.11 1889.21 1435.09
00002232 00000027 1289.55 388.87 937.16 1403.10 1532.95 930.80 1968.83 959.60 1728.77 1174.12 1521.43 1409.82 1902.34 1435.14
00002233 00000028 1294.51 394.53 928.80 1395.47 1534.91 936.53 1977.12 968.13 1739.22 1186.53 1525.76 1419.09 1917.37 1444.73
00002234 00000029 1297.70 394.29 934.02 1408.34 1522.89 939.13 1976.42 963.45 1731.97 1180.65 1532.53 1431.28 1919.16 1452.11
00002235 00000030 1292.74 397.54 932.85 1387.70 1525.59 950.47 1970.13 978.95 1728.73 1200.45 1523.52 1430.23 1908.62 1453.94
00002236 00000031 1291.43 408.45 934.94 1387.70 1508.34 955.62 1961.05 983.32 1713.98 1197.21 1512.35 1435.07 1902.50 1458.21
00002237 00000032 1283.67 404.50 928.47 1385.67 1507.14 959.49 1950.72 984.67 1709.44 1210.36 1502.93 1430.65 1896.16 1451.42
00002238 00000033 1274.43 409.74 933.72 1383.43 1498.48 962.43 1942.17 989.43 1699.33 1218.27 1493.40 1429.81 1884.13 1452.03
00002239 00000034 1266.14 404.01 934.99 1398.18 1485.24 961.71 1928.32 989.56 1683.94 1228.67 1484.87 1437.58 1876.53 1460.86
00002240 00000035 1265.52 411.79 929.64 1402.14 1466.69 970.57 1915.05 991.30 1670.74 1244.72 1479.96 1458.18 1867.19 1476.65
00002241 00000036 1252.69 425.60 939.48 1395.56 1441.71 984.64 1905.76 1007.56 1636.85 1262.44 1460.61 1474.74 1853.82 1493.48
00002242 00000037 1253.02 421.84 931.27 1414.74 1438.41 990.71 1878.16 1010.99 1628.79 1261.32 1451.10 1475.24 1840.39 1493.36
00002243 00000038 1249.94 419.68 932.38 1408.65 1426.18 1014.06 1868.30 1020.88 1611.97 1259.16 1438.96 1482.04 1833.81 1488.82
00002244 00000039 1246.30 412.37 933.00 1408.19 1416.24 1007.80 1856.19 1014.68 1593.79 1252.18 1429.31 1476.46 1816.85 1484.11
00002245 00000040 1240.77 409.09 930.98 1410.97 1406.71 996.37 1843.48 1004.97 1577.02 1249.19 1424.68 1471.12 1804.81 1480.34
00002246 00000041 1236.53 405.91 928.32 1407.19 1395.67 985.41 1836.58 995.34 1567.94 1242.18 1412.60 1462.87 1793.21 1473.59
00002247 00000042 1235.61 406.38 924.65 1401.80 1386.83 978.25 1822.32 986.05 1552.32 1236.33 1404.90 1460.48 1778.40 1469.90
00002248 00000043 1228.86 406.50 922.38 1395.79 1377.21 969.71 1814.47 981.89 1541.69 1231.46 1392.04 1452.29 1766.19 1465.63
00002249 00000044 1223.72 402.54 926.22 1403.19 1371.18 967.44 1808.71 977.62 1529.39 1221.89 1385.35 1452.23 1758.66 1463.73
00002250 00000045 1218.52 399.18 926.92 1405.08 1365.62 965.07 1804.06 972.75 1523.22 1219.14 1380.80 1454.08 1755.66 1463.55
00002251 00000046 1213.05 398.39 926.07 1424.29 1359.79 959.98 1800.26 965.42 1517.05 1215.55 1374.52 1460.32 1753.99 1468.04
00002252 00000047 1209.82 393.87 927.80 1428.03 1360.93 957.80 1798.34 964.56 1516.61 1211.26 1372.90 1461.04 1748.57 1470.09
00002253 00000048 1208.79 394.96 927.25 1425.26 1358.63 958.40 1795.19 965.60 1514.02 1210.42 1371.42 1461.83 1745.02 1471.35
00002254 00000049 1200.89 395.94 929.66 1423.45 1352.92 959.97 1791.86 967.74 1510.91 1214.65 1364.28 1458.42 1743.36 1468.27
00002255 00000050 1197.54 397.43 927.72 1404.71 1351.77 959.23 1785.90 969.69 1509.10 1212.98 1361.42 1445.34 1739.84 1457.36
00002256 00000051 1193.39 396.54 929.21 1399.91 1346.65 951.85 1783.76 965.09 1508.39 1210.30 1352.15 1436.38 1736.18 1450.71
00002257 00000052 1192.37 392.98 930.93 1398.11 1339.43 947.46 1777.03 958.87 1499.79 1206.32 1343.65 1434.51 1725.91 1447.97
00002258 00000053 1184.60 390.04 935.03 1394.11 1340.21 944.24 1775.77 957.51 1499.61 1201.96 1339.78 1424.75 1724.34 1439.72
00002259 00000054 1177.38 385.83 939.69 1392.87 1337.95 940.05 1769.50 954.32 1494.26 1198.98 1338.94 1417.46 1720.65 1433.25
00002260 00000055 1174.97 384.03 940.55 1385.43 1338.89 938.84 1764.52 951.27 1491.72 1189.98 1341.34 1408.88 1715.77 1422.94
00002261 00000056 1175.58 384.10 937.79 1384.40 1338.56 938.13 1762.44 948.65 1489.14 1187.54 1344.02 1407.91 1714.81 1420.25
00002262 00000057 1172.70 383.42 941.18 1383.44 1338.08 936.91 1761.48 946.90 1489.51 1186.30 1345.98 1406.39 1715.88 1418.10
00002263 00000058 1171.24 382.76 941.54 1385.75 1336.62 936.51 1762.05 945.81 1489.69 1184.69 1345.63 1407.07 1717.24 1418.11
00002264 00000059 1171.52 382.67 941.41 1386.06 1335.49 938.05 1761.66 945.25 1489.15 1184.76 1347.91 1408.36 1718.39 1417.47
00002265 00000060 1171.50 382.77 941.95 1387.63 1337.87 937.10 1763.22 944.86 1491.17 1184.94 1348.66 1406.01 1721.38 1415.49
00002266 00000061 1177.80 384.78 936.11 1402.31 1336.87 938.90 1765.50 944.85 1489.97 1188.16 1346.41 1418.23 1724.82 1426.40
00002267 00000062 1180.41 380.18 933.65 1413.11 1331.77 940.03 1766.21 944.63 1489.42 1191.82 1343.72 1427.36 1728.01 1434.38
00002268 00000063 1182.45 378.89 931.96 1422.06 1331.07 941.19 1768.30 942.91 1491.50 1191.04 1346.09 1436.42 1730.33 1440.98
00002269 00000064 1179.93 381.44 939.07 1428.65 1331.17 943.21 1770.05 938.06 1492.04 1191.30 1347.51 1439.22 1739.55 1437.49
00002270 00000065 1181.66 376.38 936.88 1439.26 1333.40 942.95 1769.09 935.14 1490.30 1188.73 1349.18 1439.58 1739.92 1435.51
00002271 00000066 1182.18 375.59 934.74 1440.45 1336.95 941.65 1769.61 933.09 1492.35 1187.39 1349.69 1432.83 1747.32 1427.31
00002272 00000067 1184.64 380.55 933.59 1440.81 1336.16 941.78 1769.39 930.27 1492.07 1185.03 1351.73 1434.63 1749.97 1426.25
00002273 00000068 1184.92 380.88 934.49 1443.24 1334.78 939.17 1770.25 926.17 1490.82 1183.60 1351.11 1433.84 1753.02 1423.86
00002274 00000069 1185.23 380.80 935.08 1438.00 1336.44 937.52 1770.03 925.51 1491.28 1183.09 1354.60 1431.96 1750.41 1423.14
00002275 00000070 1185.80 381.49 935.26 1433.76 1337.75 936.85 1769.18 925.09 1489.39 1181.99 1356.37 1427.98 1749.04 1419.34
00002276 00000071 1185.22 380.79 934.72 1425.95 1333.73 934.42 1767.68 925.10 1487.53 1180.50 1350.62 1422.81 1744.77 1416.62
00002277 00000072 1183.12 384.79 936.91 1417.23 1331.63 927.89 1765.96 922.76 1485.89 1177.17 1345.00 1411.20 1743.02 1408.47
00002278 00000073 1182.49 382.14 937.24 1419.45 1328.28 921.98 1763.46 918.12 1483.13 1176.64 1344.56 1411.69 1738.76 1410.49
00002279 00000074 1182.52 377.45 937.68 1415.91 1327.73 919.57 1762.97 918.47 1480.57 1173.52 1341.68 1406.93 1735.24 1408.27
00002280 00000075 1185.85 378.87 933.84 1408.76 1328.66 917.84 1762.75 918.61 1478.95 1168.34 1340.74 1401.75 1730.08 1404.98
00002281 00000076 1185.82 380.55 934.23 1405.42 1329.03 917.22 1764.49 919.34 1478.80 1166.64 1340.86 1400.38 1728.52 1404.87
00002282 00000077 1186.41 382.05 931.95 1394.37 1330.26 915.80 1767.27 921.20 1484.03 1166.28 1343.94 1399.76 1728.44 1407.11
00002283 00000078 1188.87 380.08 927.15 1392.42 1325.61 918.00 1769.22 922.86 1488.10 1170.92 1341.76 1408.34 1730.50 1415.23
00002284 00000079 1193.60 383.84 921.88 1394.15 1323.72 918.64 1771.78 923.97 1488.16 1174.53 1342.90 1423.19 1718.28 1431.44
00002285 00000080 1197.45 383.02 915.59 1394.55 1330.60 918.72 1773.26 924.69 1489.31 1172.84 1351.68 1429.96 1706.06 1439.27
00002286 00000081 1195.97 381.98 916.67 1401.37 1328.99 918.78 1773.91 920.96 1490.88 1171.60 1350.75 1430.61 1713.23 1436.68
00002287 00000082 1195.74 377.91 918.50 1404.50 1332.99 917.98 1774.33 920.49 1492.30 1166.30 1350.70 1423.66 1715.75 1429.94
00002288 00000083 1191.91 380.64 922.06 1397.06 1332.72 914.57 1774.34 918.74 1492.21 1161.51 1345.63 1412.83 1721.74 1419.99
00002289 00000084 1190.74 378.08 923.95 1396.83 1336.93 911.90 1779.82 917.35 1498.38 1157.64 1345.56 1399.68 1733.83 1407.65
00002290 00000085 1196.64 376.09 918.73 1393.93 1342.79 910.79 1784.68 910.18 1507.85 1154.21 1358.93 1400.93 1742.66 1403.61
00002291 00000086 1207.04 368.65 911.12 1403.61 1349.42 910.71 1793.79 906.05 1521.12 1152.37 1372.69 1409.41 1749.70 1408.83
00002292 00000087 1208.70 372.48 916.88 1408.87 1365.98 905.86 1808.33 898.61 1543.67 1148.62 1391.82 1413.34 1755.50 1411.28
00002293 00000088 1202.81 376.13 918.87 1392.50 1382.50 899.25 1829.88 899.87 1567.09 1150.44 1396.39 1400.41 1780.69 1401.20
00002294 00000089 1198.92 369.36 926.58 1397.84 1388.86 899.72 1837.60 896.44 1581.16 1146.47 1408.17 1392.66 1798.79 1389.40
00002295 00000090 1203.01 372.64 926.24 1395.15 1396.63 897.66 1844.67 891.35 1591.79 1143.90 1421.82 1388.14 1815.01 1381.60
00002296 00000091 1204.78 374.95 927.94 1397.50 1400.08 895.54 1848.55 876.34 1602.16 1137.70 1442.78 1396.81 1827.17 1379.31
00002297 00000092 1208.47 371.37 926.54 1411.22 1403.86 895.99 1851.63 870.89 1611.16 1135.94 1452.31 1402.26 1847.99 1379.47
00002298 00000093 1213.92 373.56 922.06 1406.02 1407.36 894.76 1857.29 867.42 1617.56 1128.89 1451.98 1394.43 1864.49 1368.87
00002299 00000094 1216.20 378.61 921.82 1390.76 1412.47 889.96 1862.86 866.22 1623.74 1118.80 1452.34 1385.21 1868.57 1362.81
00002300 00000095 1221.38 372.57 919.49 1384.36 1414.93 875.96 1867.26 854.82 1629.30 1108.97 1454.26 1372.47 1869.33 1352.32
00002301 00000096 1226.19 374.43 916.92 1356.41 1421.48 870.09 1878.83 851.39 1640.69 1087.49 1456.90 1351.55 1878.39 1334.02
00002302 00000097 1228.24 372.20 919.40 1342.48 1432.97 857.56 1887.50 839.01 1653.36 1066.18 1468.91 1328.25 1886.02 1310.14
00002303 00000098 1233.26 345.02 929.01 1350.64 1446.46 838.64 1904.99 825.78 1668.66 1045.51 1486.20 1305.61 1902.04 1291.20
00002304 00000099 1248.86 326.59 923.89 1357.93 1469.19 825.38 1925.12 812.66 1686.31 1010.54 1502.56 1286.30 1915.84 1272.40
00002305 00000100 1265.42 318.04 921.88 1352.28 1495.00 809.63 1947.14 804.13 1714.44 998.51 1523.96 1271.69 1924.31 1263.18
00002306 00000101 1282.67 319.06 918.58 1342.69 1529.62 803.96 1968.73 800.02 1745.13 987.80 1555.58 1263.76 1935.38 1257.60
00002307 DELETE   1314.82 315.53 900.79 1344.67 1563.02 790.76 1988.68 805.40 1777.14 980.04 1581.20 1240.01 1952.71 1248.67
00002308 DELETE   1340.56 333.57 902.38 1316.65 1591.18 791.00 2024.16 811.14 1813.51 980.38 1611.62 1244.90 1978.95 1258.10
00002309 00000104 1355.76 311.48 895.36 1324.13 1612.27 784.77 2052.18 814.54 1833.74 987.91 1613.48 1245.61 2010.63 1269.82
00002310 00000105 1372.35 320.69 900.63 1332.37 1629.11 791.18 2078.23 828.52 1859.64 987.17 1630.41 1245.67 2022.52 1272.63
00002311 00000106 1377.83 327.34 904.07 1333.03 1639.95 791.31 2091.86 835.68 1871.34 991.85 1635.06 1244.59 2037.76 1277.84
00002312 00000107 1384.82 323.18 899.63 1331.20 1642.55 794.87 2094.77 838.00 1874.09 995.63 1636.77 1242.14 2044.42 1274.44
00002313 00000108 1385.02 324.51 898.19 1327.71 1639.36 792.56 2089.96 832.81 1869.74 992.32 1629.50 1234.85 2041.98 1264.77
00002314 00000109 1381.31 302.30 884.17 1329.04 1628.39 769.43 2076.77 819.81 1854.69 978.22 1609.34 1226.20 2032.02 1266.87
00002315 00000110 1378.05 297.60 888.45 1326.95 1624.13 768.62 2067.79 811.73 1845.08 963.25 1612.55 1220.79 2028.87 1254.92
00002316 00000111 1377.79 294.80 882.81 1304.23 1620.86 750.39 2059.78 786.92 1842.64 940.05 1616.40 1205.66 2026.02 1234.03
00002317 00000112 1373.96 292.33 881.69 1289.45 1614.71 739.32 2059.69 776.56 1841.59 925.45 1618.07 1191.27 2036.14 1220.77
00002318 00000113 1373.85 302.26 876.37 1252.86 1609.84 730.58 2050.27 758.11 1830.33 909.06 1616.47 1168.70 2032.70 1190.34
00002319 00000114 1376.00 303.87 870.63 1222.97 1608.50 722.78 2042.33 749.74 1820.46 883.96 1619.91 1149.97 2026.88 1169.93
00002320 00000115 1374.90 304.72 865.47 1196.33 1611.64 715.44 2035.66 745.51 1817.15 866.44 1624.14 1131.95 2014.50 1154.44
00002321 00000116 1376.68 304.05 859.39 1186.44 1610.74 712.99 2030.38 743.03 1816.77 864.61 1619.03 1116.48 2012.21 1139.18
00002322 00000117 1376.64 303.67 856.78 1183.63 1606.85 714.12 2028.09 741.26 1809.96 865.34 1614.96 1117.60 2006.77 1137.62
00002323 00000118 1368.01 301.84 862.68 1195.48 1597.98 716.68 2020.56 739.85 1801.04 868.31 1609.09 1126.68 2001.95 1143.32
00002324 00000119 1357.84 303.44 864.55 1222.64 1587.60 724.30 2013.19 745.56 1797.44 881.20 1594.08 1145.11 1999.53 1161.00
00002325 00000120 1341.62 312.92 872.25 1236.64 1571.84 744.66 2005.82 756.34 1792.49 903.78 1577.91 1168.66 1997.12 1177.35
00002326 00000121 1314.67 308.48 880.26 1277.10 1555.25 758.40 1996.07 771.16 1782.33 933.35 1557.42 1193.66 1987.11 1203.28
00002327 00000122 1284.84 307.45 901.74 1307.83 1531.81 782.21 1978.98 780.70 1769.98 950.96 1545.44 1216.91 1964.91 1214.67
00002328 00000123 1263.23 303.42 913.22 1335.29 1502.93 794.83 1962.85 791.78 1747.00 969.88 1521.55 1235.01 1954.95 1230.41
00002329 00000124 1241.12 298.42 916.01 1333.63 1471.75 784.78 1946.16 788.86 1726.18 983.21 1486.78 1238.18 1940.95 1240.99
00002330 00000125 1222.65 305.78 924.73 1353.19 1462.53 802.21 1934.10 795.09 1716.11 997.88 1493.62 1250.93 1934.16 1240.90
00002331 00000126 1205.93 331.87 923.54 1344.32 1445.44 808.36 1912.52 793.60 1697.37 1002.09 1489.09 1269.63 1918.55 1253.24
00002332 00000127 1199.12 331.26 923.16 1355.09 1432.01 816.92 1897.83 797.25 1677.34 1009.24 1479.64 1283.24 1907.58 1262.24
00002333 00000128 1177.00 345.67 936.23 1352.97 1417.32 825.59 1883.46 803.94 1664.56 1024.67 1468.90 1298.39 1896.90 1274.93
00002334 00000129 1162.52 358.34 945.24 1344.65 1410.16 837.07 1874.22 814.24 1656.86 1040.94 1461.24 1307.23 1891.74 1282.69
00002335 00000130 1157.34 355.07 944.71 1358.03 1403.59 841.64 1868.00 818.74 1650.48 1052.14 1450.14 1314.28 1884.54 1290.44
00002336 00000131 1151.57 353.16 944.90 1368.99 1393.73 845.47 1861.63 818.85 1644.67 1061.20 1447.77 1327.34 1883.21 1299.89
00002337 00000132 1138.06 347.05 954.62 1405.18 1387.22 849.19 1852.81 824.23 1636.80 1066.88 1440.09 1347.51 1870.48 1322.03
00002338 00000133 1131.74 349.22 953.41 1408.64 1384.23 861.78 1843.78 837.20 1632.78 1081.97 1430.26 1357.67 1860.40 1333.30
00002339 00000134 1128.60 350.17 947.24 1399.36 1366.57 869.53 1840.23 836.51 1628.13 1085.85 1414.62 1360.10 1852.67 1333.22
00002340 00000135 1123.05 348.90 957.35 1421.39 1366.52 877.66 1837.23 842.74 1623.38 1102.69 1430.80 1369.86 1842.35 1334.51
00002341 00000136 1118.41 349.97 953.22 1430.20 1366.06 879.57 1830.83 843.58 1620.70 1103.48 1438.91 1377.93 1836.50 1341.64
00002342 00000137 1116.02 352.93 941.91 1395.64 1359.01 875.47 1827.97 836.93 1623.27 1087.15 1419.19 1367.67 1842.74 1336.22
00002343 00000138 1113.75 349.27 957.24 1424.53 1367.21 873.77 1828.79 843.83 1617.41 1094.00 1423.58 1357.92 1829.90 1326.68
00002344 00000139 1116.85 352.59 956.98 1417.31 1370.28 871.23 1829.84 841.19 1620.00 1092.43 1425.16 1353.69 1832.17 1322.47
00002345 00000140 1119.89 350.56 959.58 1425.05 1374.32 869.90 1837.47 840.28 1626.97 1091.82 1437.20 1360.51 1838.62 1329.75
00002346 00000141 1128.65 356.55 949.23 1419.81 1375.73 871.91 1841.55 837.35 1634.13 1095.50 1454.64 1376.74 1843.18 1342.05
00002347 00000142 1126.91 363.92 946.05 1406.69 1383.27 869.60 1839.34 840.64 1637.31 1090.97 1448.58 1383.65 1858.13 1356.17
00002348 00000143 1131.33 371.69 948.41 1404.37 1387.94 870.98 1846.81 844.05 1647.69 1093.00 1449.50 1386.86 1867.54 1360.79
00002349 00000144 1130.80 369.39 946.23 1411.71 1386.72 873.81 1850.69 844.80 1650.80 1100.23 1448.15 1389.32 1874.36 1361.42
00002350 00000145 1129.16 369.93 950.01 1409.71 1384.51 873.66 1848.84 843.80 1649.56 1100.27 1448.79 1388.79 1871.22 1360.10
00002351 00000146 1127.63 370.10 951.27 1407.44 1382.81 874.81 1845.52 841.69 1645.48 1099.26 1448.41 1386.69 1873.30 1355.13
00002352 00000147 1126.25 361.66 948.76 1410.53 1379.24 872.13 1840.98 836.99 1639.99 1094.90 1449.01 1385.56 1870.10 1352.19
00002353 00000148 1124.08 356.71 949.57 1412.48 1377.33 868.02 1835.35 831.33 1633.52 1085.58 1447.58 1382.01 1862.59 1347.16
00002354 00000149 1128.66 342.61 944.28 1418.06 1379.62 863.71 1835.57 832.98 1630.32 1077.27 1436.42 1370.59 1856.71 1341.21
00002355 00000150 1131.83 339.53 940.44 1420.38 1379.45 849.98 1838.09 820.77 1629.51 1065.92 1432.02 1356.12 1856.65 1327.65
00002356 00000151 1134.62 334.68 937.82 1421.34 1377.01 840.09 1837.32 807.49 1627.48 1051.90 1430.57 1345.30 1858.86 1313.80
00002357 00000152 1140.48 327.21 946.05 1442.25 1385.04 835.80 1848.02 789.86 1643.78 1050.46 1442.09 1344.56 1862.71 1299.65
00002358 00000153 1137.45 320.56 948.23 1423.52 1387.78 822.63 1840.77 785.92 1636.09 1031.08 1435.13 1316.61 1866.54 1280.47
00002359 00000154 1143.24 318.06 946.43 1397.82 1392.16 811.73 1855.90 776.64 1643.58 1015.70 1444.55 1303.12 1873.10 1268.01
00002360 00000155 1151.79 302.99 933.38 1368.18 1391.11 796.52 1859.64 772.28 1646.72 1001.04 1435.33 1285.82 1874.31 1265.54
00002361 00000156 1160.13 293.96 940.20 1367.29 1401.22 785.53 1871.35 756.83 1658.69 987.72 1459.94 1262.92 1875.42 1233.29
00002362 00000157 1159.42 287.79 944.51 1371.77 1405.39 783.33 1866.53 747.23 1662.45 991.04 1468.62 1252.67 1878.46 1216.32
