Video ID: 	SCpgKvZB_VQ
H: 	1080
W: 	1920
FPS: 	23.976023976023978

FRAME INDEX X0 Y0 W H [Landmarks (5 Points)]

00022352 00000000 561.87 127.24 415.16 635.34 796.41 378.28 942.62 408.85 947.60 457.19 815.30 598.03 940.89 622.81
00022353 00000001 559.57 127.07 420.84 648.93 790.08 372.81 942.55 407.71 945.77 455.43 803.74 596.23 939.29 624.06
00022354 00000002 559.68 130.33 421.93 658.17 790.91 373.42 941.85 409.28 946.43 458.39 794.86 597.02 934.75 626.04
00022355 00000003 562.03 128.40 422.41 653.43 791.55 377.11 944.78 409.78 947.81 463.57 796.66 599.29 935.98 626.16
00022356 00000004 559.94 129.28 422.19 641.23 793.68 381.36 948.25 411.01 949.92 468.92 801.45 600.07 936.47 624.51
00022357 00000005 565.63 131.02 415.98 633.06 798.97 387.34 951.84 411.39 953.96 472.01 809.69 600.97 940.55 620.47
00022358 00000006 570.62 134.46 415.32 627.27 803.15 389.11 955.84 411.69 960.82 472.67 814.91 599.84 948.14 617.86
00022359 00000007 573.62 128.08 413.81 622.97 807.20 383.46 957.48 405.40 964.51 468.40 822.85 595.41 951.78 612.81
00022360 00000008 576.11 122.74 412.72 617.52 808.27 373.85 956.25 396.30 966.40 454.32 826.79 583.65 953.40 601.37
00022361 00000009 574.98 120.36 414.07 628.75 808.92 374.32 955.87 396.33 965.63 457.83 830.02 590.32 953.74 607.67
00022362 00000010 581.36 127.45 412.42 641.56 811.56 384.83 958.51 407.75 966.14 476.10 832.39 607.74 953.73 625.89
00022363 00000011 582.88 134.14 413.03 636.19 812.90 397.20 944.16 411.76 957.53 483.49 841.00 603.29 950.79 614.06
00022364 00000012 590.17 129.53 410.24 640.44 818.67 397.70 951.83 409.37 966.19 480.59 848.76 603.54 962.05 611.90
00022365 00000013 589.34 125.98 409.99 638.33 821.84 386.95 952.07 405.83 969.46 473.42 851.91 597.10 961.29 611.44
00022366 00000014 590.14 119.79 413.98 631.26 827.63 377.34 957.17 398.23 976.75 463.33 856.75 582.15 968.10 598.22
00022367 00000015 592.41 120.46 414.60 621.73 828.28 364.19 958.07 385.38 978.13 449.36 861.55 574.01 970.50 590.36
00022368 00000016 592.07 116.55 413.29 630.59 829.29 369.09 954.25 384.17 979.53 454.92 862.60 577.70 969.59 589.34
00022369 00000017 586.21 121.24 414.92 645.63 824.54 386.02 949.14 396.02 977.00 471.55 854.63 593.31 964.12 600.52
00022370 00000018 588.12 129.20 414.22 662.31 831.34 399.75 946.24 409.08 979.31 488.41 850.86 612.98 952.29 620.17
00022371 00000019 589.70 136.10 413.96 655.74 836.56 399.16 946.75 400.78 993.33 492.25 845.28 614.24 945.94 616.89
00022372 00000020 596.64 134.69 413.09 636.30 838.52 393.35 952.41 392.04 996.75 476.24 862.44 602.61 963.62 602.30
00022373 DELETE   598.62 123.17 410.89 639.35 837.59 385.50 953.96 383.79 999.07 467.65 866.35 595.82 967.45 594.98
00022374 00000022 589.07 123.84 412.00 636.19 830.25 386.11 940.42 384.54 987.93 469.79 861.07 595.13 956.74 594.55
00022375 00000023 582.87 132.86 412.73 633.96 822.69 395.68 932.51 393.28 976.94 482.85 849.74 605.03 945.60 603.69
00022376 00000024 584.02 138.19 413.80 633.82 822.83 401.68 937.24 401.62 974.36 488.04 849.74 610.80 949.16 610.88
00022377 00000025 586.17 141.00 412.85 632.01 827.32 405.57 941.67 399.49 982.11 491.67 853.38 614.48 953.67 610.03
00022378 00000026 588.34 140.01 411.67 636.17 830.51 411.32 944.73 400.06 986.56 497.21 856.11 619.61 956.06 611.07
00022379 00000027 586.90 139.42 412.79 642.27 831.03 412.25 944.69 400.84 986.57 499.93 857.40 623.94 955.24 615.21
00022380 00000028 587.84 139.43 412.81 640.18 830.63 411.50 946.36 399.75 987.57 499.96 856.77 623.37 955.47 614.43
00022381 00000029 587.59 141.44 412.64 633.31 830.00 411.94 945.97 400.30 986.32 498.37 856.52 619.86 956.48 610.88
00022382 00000030 588.21 141.13 411.81 636.38 829.95 411.99 945.18 401.10 985.78 499.15 856.88 622.20 955.48 613.77
00022383 00000031 587.42 137.87 412.74 643.27 830.91 412.75 944.53 400.78 986.54 501.54 859.56 626.59 955.17 617.37
00022384 00000032 590.30 134.86 411.80 642.07 836.88 410.34 946.30 396.96 991.33 495.87 867.37 620.94 959.48 610.43
00022385 00000033 596.77 125.32 415.23 646.28 839.78 405.21 956.69 392.75 999.97 478.77 881.53 612.20 982.72 601.47
00022386 00000034 595.65 131.03 415.95 645.26 839.61 409.25 953.72 393.58 997.62 485.03 881.31 618.16 980.71 604.81
00022387 00000035 593.94 133.13 414.27 642.32 834.40 409.72 950.55 393.96 991.76 486.81 877.37 620.05 976.15 606.65
00022388 00000036 592.30 135.20 413.91 637.74 827.79 407.24 947.36 393.60 985.33 483.85 871.96 617.64 973.71 605.99
00022389 00000037 588.59 131.58 414.35 645.21 825.37 406.31 940.60 391.98 981.50 481.22 867.73 616.58 967.21 604.62
00022390 00000038 582.27 133.66 414.45 652.54 819.63 405.71 930.32 395.11 974.49 483.70 862.45 621.89 957.50 612.89
00022391 00000039 579.95 126.64 411.10 640.28 807.40 405.77 926.52 392.42 961.69 479.58 856.12 612.95 955.38 601.73
00022392 00000040 581.01 123.93 408.04 631.64 803.95 403.45 925.18 390.09 958.98 473.35 861.73 605.15 961.59 593.36
00022393 00000041 580.77 126.10 407.52 625.73 801.06 398.23 920.70 385.28 955.65 467.36 862.02 600.68 961.64 589.22
00022394 00000042 575.77 117.46 413.49 639.46 812.20 394.61 939.78 388.18 977.89 465.10 859.40 605.92 968.23 599.30
00022395 00000043 575.79 115.84 414.55 643.72 812.25 396.40 941.24 389.06 979.23 466.52 861.31 608.88 970.67 601.37
00022396 00000044 578.82 121.62 409.15 634.45 799.68 403.17 920.49 386.45 952.74 469.31 864.35 604.64 964.48 589.85
00022397 00000045 577.54 123.63 409.53 633.88 800.88 403.40 920.46 384.97 953.04 471.28 867.90 607.77 965.57 591.67
00022398 00000046 577.62 117.20 412.19 646.81 812.56 398.98 940.02 385.40 976.52 470.78 866.29 616.20 973.60 603.39
00022399 00000047 577.44 116.65 412.45 648.11 811.41 398.65 939.60 385.60 976.03 468.27 866.45 616.35 974.28 603.83
00022400 00000048 573.03 113.06 414.98 648.81 807.36 397.10 935.37 383.65 972.83 462.95 863.61 612.77 973.03 600.01
00022401 00000049 568.08 113.66 417.75 648.25 802.07 395.88 931.63 380.98 967.34 462.07 860.27 614.26 970.21 600.53
00022402 00000050 566.14 112.62 417.56 652.31 800.97 395.31 929.15 382.31 965.10 462.66 859.07 616.22 967.62 604.29
00022403 00000051 565.17 113.18 417.98 655.06 799.11 392.39 926.10 380.65 963.49 460.54 857.73 615.37 966.47 604.64
00022404 00000052 561.68 112.80 421.59 654.32 797.58 390.71 923.05 380.86 963.97 455.39 857.52 611.97 966.35 602.72
00022405 00000053 557.34 113.08 421.51 658.19 795.93 390.15 920.63 382.79 962.80 455.53 852.94 610.69 963.13 603.41
00022406 00000054 557.90 118.31 414.44 666.62 792.95 395.45 916.48 386.96 957.45 464.40 832.37 614.32 947.44 607.15
00022407 00000055 553.42 126.96 421.65 664.41 792.72 401.61 914.50 386.44 954.71 476.19 824.65 618.56 940.69 606.47
00022408 00000056 546.29 132.89 427.31 664.11 792.56 412.81 910.08 392.45 958.80 487.25 850.93 640.56 951.53 623.90
00022409 00000057 545.97 136.09 424.95 663.61 785.44 413.14 905.16 391.76 951.80 489.82 851.04 645.04 952.01 627.26
00022410 00000058 543.19 140.06 423.62 656.57 780.57 411.31 900.30 388.92 946.66 488.22 847.51 642.20 949.03 623.57
00022411 00000059 538.94 139.37 423.44 650.48 775.93 412.67 901.09 387.90 945.44 482.57 839.34 635.96 946.32 614.95
00022412 00000060 538.10 133.04 419.28 653.79 773.66 406.07 895.52 380.42 941.24 473.94 836.84 629.47 941.03 608.20
00022413 00000061 536.64 126.95 421.38 667.86 772.48 398.48 886.52 375.85 939.24 472.47 837.06 631.04 935.55 613.55
00022414 00000062 536.00 127.35 420.14 665.33 773.68 392.91 885.11 372.21 939.82 470.68 835.16 627.32 932.09 611.70
00022415 00000063 538.13 127.67 418.85 642.73 763.79 397.27 891.61 374.54 930.92 463.72 827.17 615.12 936.92 596.29
00022416 00000064 540.24 126.44 420.10 638.13 763.88 403.36 897.40 375.38 932.14 462.13 827.19 614.30 942.10 590.65
00022417 00000065 542.88 125.86 421.77 636.80 767.60 406.29 902.26 376.68 936.42 464.71 830.81 615.78 946.52 590.81
00022418 00000066 541.51 123.73 426.27 635.65 770.22 404.42 901.70 373.06 940.17 459.70 834.71 612.09 948.92 585.67
00022419 00000067 544.46 123.94 429.03 631.16 775.44 400.48 904.90 369.97 943.85 456.87 837.94 607.58 952.17 581.69
00022420 00000068 551.07 124.94 425.59 624.86 780.34 399.21 909.78 367.73 950.76 451.86 842.62 604.39 958.06 577.63
00022421 00000069 555.15 122.94 424.04 627.73 784.17 398.24 913.55 369.24 955.06 451.53 845.85 604.54 960.70 579.92
00022422 00000070 555.96 122.96 423.34 631.08 785.74 400.31 916.38 373.05 954.36 456.68 844.72 607.47 960.59 584.13
00022423 00000071 554.96 130.40 421.18 631.42 787.25 407.71 915.40 379.25 952.77 470.15 842.75 615.31 955.16 591.26
00022424 00000072 549.05 136.23 426.68 639.02 786.54 419.78 914.25 392.41 949.35 486.61 842.21 628.56 952.20 605.61
00022425 00000073 547.73 142.21 421.83 648.05 784.19 426.26 912.09 397.80 947.18 502.35 843.88 647.91 948.08 623.69
00022426 00000074 551.45 150.44 416.16 642.05 779.85 437.74 913.89 406.07 942.79 512.28 836.99 654.23 945.07 627.38
00022427 00000075 548.64 152.48 417.07 648.41 778.34 439.98 913.60 411.84 940.68 516.91 835.44 658.71 944.40 634.63
00022428 00000076 546.55 151.42 417.66 649.93 775.18 440.17 911.92 407.73 937.89 517.65 833.49 660.55 943.38 632.71
00022429 00000077 546.20 149.93 417.08 648.35 773.91 434.71 910.40 403.52 935.90 512.28 832.93 655.92 941.71 629.15
00022430 00000078 546.23 148.83 416.91 646.54 772.92 427.51 907.08 398.80 935.13 503.69 832.88 650.14 941.11 625.47
00022431 00000079 543.00 141.31 420.41 649.58 775.37 421.49 902.87 392.36 935.70 497.29 832.30 643.44 937.05 618.96
00022432 00000080 546.95 143.53 418.14 636.18 777.65 417.82 905.22 392.56 940.49 487.57 831.22 628.94 942.36 607.91
00022433 00000081 547.89 140.69 418.85 641.40 778.85 419.34 906.13 391.70 942.17 488.91 832.62 631.19 944.19 608.27
00022434 00000082 547.01 141.69 420.58 643.93 778.34 423.19 908.08 395.09 942.70 494.21 832.53 636.03 944.09 612.80
00022435 00000083 545.84 140.92 417.41 647.37 780.30 426.50 907.27 392.13 944.53 501.65 836.49 645.71 940.09 617.27
00022436 00000084 546.51 143.14 416.74 646.70 779.25 427.70 908.00 392.87 943.47 503.07 834.52 646.66 940.13 617.75
00022437 00000085 545.03 141.15 417.51 649.41 780.29 423.83 906.14 391.45 943.20 501.15 833.90 644.35 937.54 617.59
00022438 00000086 544.01 141.00 418.07 645.89 779.24 420.26 904.62 390.12 939.46 496.44 832.44 640.21 936.22 615.05
00022439 00000087 545.54 138.11 413.93 641.17 774.46 416.43 898.98 385.25 937.41 486.54 828.89 628.67 936.08 602.95
00022440 00000088 543.21 132.81 413.26 640.89 767.98 413.29 896.16 379.61 933.35 479.84 824.62 624.25 933.77 596.18
00022441 00000089 541.15 130.49 413.17 644.82 766.07 410.60 894.70 377.49 934.25 476.77 823.17 623.46 931.96 595.91
00022442 00000090 541.09 133.13 415.89 648.10 766.18 411.48 896.52 379.79 934.94 481.20 824.10 628.00 934.04 601.63
00022443 00000091 539.95 134.44 418.70 651.44 772.57 411.53 898.34 376.42 938.68 487.82 830.78 636.75 936.81 608.00
00022444 00000092 540.67 136.64 417.64 653.25 774.72 411.38 897.65 378.44 939.48 487.37 825.98 634.09 933.58 607.47
00022445 00000093 538.26 138.50 418.42 657.16 773.19 409.11 894.52 377.82 937.20 489.60 815.24 631.55 924.26 606.59
00022446 00000094 538.52 137.08 418.60 654.94 773.97 410.50 894.97 379.46 934.60 490.10 818.34 632.34 925.36 607.46
00022447 00000095 540.38 131.90 417.02 652.85 775.27 411.72 896.36 378.36 935.22 487.66 827.91 632.66 931.62 605.42
00022448 00000096 542.04 133.38 416.17 641.74 769.38 415.54 894.46 380.04 934.00 480.32 829.70 625.71 937.62 596.29
00022449 00000097 538.07 136.99 419.10 646.86 773.60 414.85 894.46 378.58 933.95 488.91 832.84 635.89 933.48 605.96
00022450 00000098 538.99 138.40 416.81 655.16 773.93 416.20 895.38 382.70 934.33 493.82 835.04 643.09 935.20 615.35
00022451 00000099 534.58 142.10 418.92 658.88 769.34 414.80 891.36 386.96 929.16 494.40 825.83 644.13 926.88 621.16
00022452 00000100 531.55 143.54 418.63 648.50 766.57 418.48 890.06 383.10 929.21 495.60 823.47 643.16 923.09 614.29
00022453 00000101 533.14 144.25 418.98 640.63 766.39 419.59 892.61 383.44 929.88 495.63 828.34 642.61 929.41 612.81
00022454 00000102 533.12 140.14 418.23 635.13 760.88 423.92 886.04 383.42 924.93 487.83 824.15 632.12 928.54 598.92
00022455 00000103 530.90 143.09 418.97 629.39 756.10 418.99 882.59 383.16 921.23 483.08 821.65 627.41 927.96 597.83
00022456 00000104 531.88 141.62 416.32 638.18 758.23 419.00 880.32 383.25 923.05 488.25 821.11 632.47 924.09 603.36
00022457 00000105 531.28 139.48 417.08 648.48 764.00 419.30 885.22 382.50 925.85 493.92 829.00 643.01 924.10 613.01
00022458 00000106 531.02 142.32 416.27 645.58 760.50 420.30 884.20 380.26 923.91 494.22 829.20 645.99 925.15 613.12
00022459 00000107 530.40 144.38 418.30 643.58 760.64 419.91 881.47 378.92 924.49 491.31 831.08 643.94 927.01 610.53
00022460 00000108 531.85 143.66 416.78 644.24 758.27 422.13 877.78 377.54 921.14 492.24 832.91 646.30 927.13 610.25
00022461 00000109 530.85 146.13 416.26 642.67 759.57 423.78 875.41 377.47 922.51 493.35 834.08 646.74 925.32 609.46
00022462 00000110 531.10 147.80 417.43 643.15 759.72 426.42 876.20 379.63 922.22 495.71 837.87 651.06 927.09 613.29
00022463 00000111 529.43 147.37 419.24 647.39 758.06 429.83 876.80 381.79 921.08 498.94 836.88 654.61 927.29 615.47
00022464 00000112 529.80 145.93 416.16 650.56 752.68 432.40 874.57 383.89 915.30 499.85 835.81 657.49 926.27 617.51
00022465 00000113 525.24 149.49 416.58 651.64 744.34 439.63 865.28 380.49 907.11 502.04 830.36 662.14 921.31 612.83
00022466 00000114 521.54 154.20 413.41 650.94 733.37 443.55 852.97 384.53 893.73 505.00 827.22 666.88 918.49 617.33
00022467 00000115 506.89 149.07 419.86 659.74 721.83 452.27 842.43 387.50 883.77 506.34 818.28 669.17 914.73 614.45
00022468 00000116 483.42 158.04 439.67 644.96 708.12 462.05 836.23 391.05 878.05 512.39 799.51 674.96 904.15 614.15
00022469 00000117 470.40 168.41 448.85 636.01 690.42 474.34 817.03 393.59 860.29 517.35 789.69 684.79 892.99 616.57
00022470 00000118 457.39 168.95 453.11 639.88 677.05 481.60 796.24 396.35 844.18 514.36 786.17 685.16 883.49 614.07
00022471 00000119 448.18 170.94 455.42 639.10 665.70 491.16 771.49 396.67 830.63 514.25 781.30 683.28 868.53 605.67
00022472 00000120 433.35 169.54 463.03 646.51 651.08 497.46 759.88 399.40 815.22 512.25 774.57 687.29 862.16 606.75
00022473 00000121 431.29 176.97 452.76 641.17 636.46 499.75 753.06 408.95 797.65 514.69 760.74 687.32 854.27 612.62
00022474 00000122 430.56 178.94 448.58 644.09 629.93 498.11 749.25 408.34 788.58 520.02 755.97 691.98 849.82 617.45
00022475 00000123 430.59 181.75 450.43 650.29 625.13 492.94 749.20 405.97 783.55 523.35 745.35 696.42 845.94 623.45
00022476 00000124 426.62 174.22 455.92 647.55 625.10 495.49 753.95 404.93 787.66 519.61 744.34 690.11 850.14 614.64
00022477 00000125 427.01 168.63 455.54 638.81 632.76 488.77 758.99 400.43 792.84 514.26 748.12 680.67 851.41 606.91
CROP_BBOX: 212 0 1225 976
