Video ID: 	FwiBNhkV10E
H: 	2160
W: 	3840
FPS: 	23.976023976023978

FRAME INDEX X0 Y0 W H [Landmarks (5 Points)]

00073086 00000000 2185.20 519.59 778.30 1061.08 2312.71 928.72 2661.64 854.88 2464.65 1089.47 2402.65 1296.42 2729.00 1234.62
00073087 00000001 2193.87 502.07 776.49 1074.17 2317.12 933.52 2669.58 861.79 2470.17 1095.47 2408.42 1301.22 2732.28 1240.84
00073088 00000002 2199.48 506.85 776.92 1059.56 2322.59 934.40 2675.19 859.18 2476.74 1093.94 2415.79 1299.94 2738.56 1237.16
00073089 00000003 2202.24 502.19 780.78 1043.74 2331.20 931.46 2686.47 859.07 2489.53 1090.58 2417.89 1284.66 2748.98 1224.75
00073090 00000004 2211.48 493.25 771.84 1034.42 2336.96 923.92 2696.17 853.04 2496.03 1082.25 2422.21 1276.53 2753.80 1217.21
00073091 00000005 2223.43 489.58 761.35 1025.67 2345.46 920.05 2702.50 852.36 2502.25 1076.74 2429.24 1269.38 2756.31 1213.28
00073092 00000006 2227.73 488.86 759.71 1018.17 2351.98 913.39 2706.71 848.53 2510.01 1073.95 2437.88 1261.60 2763.40 1207.94
00073093 DELETE   2228.51 482.10 759.01 1026.71 2352.51 907.06 2706.08 845.56 2509.81 1071.64 2435.67 1257.23 2761.20 1206.09
00073094 00000008 2223.59 480.42 764.76 1038.90 2349.29 911.08 2703.51 849.13 2507.50 1075.81 2432.56 1262.53 2758.22 1210.68
00073095 00000009 2219.27 489.18 762.97 1038.36 2344.41 917.60 2700.77 853.47 2500.89 1077.94 2426.31 1270.62 2755.27 1217.15
00073096 00000010 2212.35 497.75 768.86 1044.36 2338.29 916.43 2693.01 852.08 2493.15 1081.45 2417.88 1271.67 2750.24 1218.34
00073097 00000011 2208.39 511.43 761.39 1029.91 2337.94 912.19 2686.41 848.48 2490.39 1075.55 2415.30 1266.39 2739.25 1214.00
00073098 00000012 2201.37 490.24 763.99 1044.64 2330.61 903.08 2674.45 843.06 2479.81 1058.05 2404.29 1253.96 2722.69 1203.08
00073099 00000013 2193.29 491.48 765.96 1037.52 2321.63 901.18 2668.32 842.27 2471.65 1053.57 2396.86 1251.50 2714.62 1201.12
00073100 00000014 2186.74 479.08 766.06 1047.54 2314.11 893.13 2660.77 836.99 2465.02 1052.26 2390.01 1248.14 2706.88 1200.05
00073101 00000015 2181.90 478.68 762.00 1043.52 2310.80 893.02 2659.74 837.20 2463.93 1052.51 2385.40 1246.91 2702.16 1199.39
00073102 00000016 2176.31 484.12 759.35 1041.31 2310.56 891.58 2655.19 838.39 2464.24 1050.78 2384.51 1243.15 2699.20 1197.90
00073103 00000017 2170.63 492.02 757.94 1039.23 2306.40 887.75 2651.58 836.74 2459.83 1049.60 2379.09 1240.50 2693.27 1197.30
00073104 00000018 2167.25 496.99 751.93 1020.31 2301.22 882.30 2645.04 835.66 2451.12 1049.94 2370.90 1237.68 2680.21 1199.36
00073105 00000019 2159.78 499.06 752.18 1016.88 2298.16 881.20 2641.90 834.53 2451.51 1046.83 2366.93 1235.44 2675.57 1196.76
00073106 00000020 2154.31 491.41 751.64 1023.20 2293.90 876.37 2638.22 833.37 2450.40 1046.05 2361.39 1231.91 2672.32 1196.22
00073107 00000021 2156.28 497.06 749.11 1026.49 2295.93 875.53 2636.29 824.59 2450.84 1038.85 2365.77 1230.30 2681.42 1187.41
00073108 00000022 2155.36 483.19 752.12 1046.89 2294.72 868.36 2632.72 816.00 2450.84 1034.06 2370.85 1227.52 2685.08 1182.57
00073109 00000023 2159.45 487.83 745.65 1041.18 2297.12 863.83 2635.36 815.94 2449.31 1028.46 2367.17 1217.19 2686.04 1175.91
00073110 00000024 2165.64 493.97 742.92 1032.27 2301.71 862.33 2641.68 810.41 2453.73 1025.45 2374.25 1218.06 2691.00 1173.65
00073111 00000025 2171.45 492.18 746.45 1031.88 2309.21 853.35 2648.48 810.20 2456.46 1021.59 2374.67 1208.65 2693.44 1171.46
00073112 00000026 2174.82 482.97 751.16 1040.61 2318.25 840.29 2652.50 810.78 2465.83 1019.88 2380.71 1199.12 2689.11 1173.03
00073113 00000027 2179.97 461.87 751.11 1056.70 2318.65 839.80 2653.79 803.35 2468.67 1017.35 2384.16 1202.70 2689.16 1170.87
00073114 00000028 2179.19 468.55 758.75 1051.51 2321.34 836.95 2658.67 800.58 2470.64 1015.56 2386.05 1203.48 2691.26 1171.39
00073115 00000029 2185.78 466.96 757.63 1051.27 2323.97 839.12 2660.33 798.64 2472.04 1011.16 2391.29 1201.97 2697.66 1166.40
00073116 00000030 2195.33 471.29 752.55 1050.10 2330.61 831.80 2665.49 798.55 2474.35 1010.99 2392.47 1191.89 2704.12 1162.66
00073117 00000031 2196.29 484.14 754.70 1037.15 2334.17 831.68 2671.20 797.56 2478.18 1012.10 2397.99 1194.13 2705.96 1164.35
00073118 00000032 2200.28 474.76 752.52 1040.78 2335.22 835.53 2676.02 797.00 2480.76 1013.44 2398.12 1195.27 2714.55 1161.64
00073119 00000033 2202.47 480.86 752.76 1027.50 2335.70 841.38 2678.99 798.71 2481.57 1015.70 2399.65 1199.78 2719.47 1162.92
00073120 00000034 2200.65 493.15 754.55 1009.62 2337.31 846.44 2680.99 804.95 2482.30 1015.40 2395.66 1199.10 2720.98 1163.67
00073121 00000035 2200.20 482.19 757.45 1004.94 2332.24 841.78 2680.96 804.69 2475.64 1011.99 2390.05 1203.19 2708.53 1171.18
00073122 00000036 2199.12 477.43 756.09 1008.77 2332.75 839.66 2682.52 804.44 2478.30 1014.28 2389.09 1204.22 2708.33 1173.90
00073123 00000037 2198.50 471.70 757.25 1021.86 2333.72 839.16 2683.25 801.52 2479.97 1011.71 2391.54 1209.27 2705.42 1176.76
00073124 00000038 2201.48 464.97 757.94 1035.75 2337.62 839.30 2686.89 799.33 2486.27 1014.31 2397.30 1208.26 2714.67 1173.43
00073125 00000039 2204.34 472.62 759.91 1018.49 2339.84 837.29 2689.02 795.92 2489.08 1016.42 2404.32 1207.24 2716.79 1171.05
00073126 00000040 2208.70 475.10 758.70 1014.98 2343.17 836.26 2692.95 793.24 2495.02 1019.86 2414.19 1206.05 2725.48 1167.97
00073127 00000041 2214.63 461.87 755.20 1021.60 2346.90 837.21 2697.80 791.35 2499.78 1021.24 2417.27 1206.53 2730.25 1166.13
00073128 00000042 2218.84 463.57 753.89 1007.98 2351.66 838.05 2702.24 789.44 2507.54 1018.60 2424.46 1207.42 2733.47 1164.65
00073129 00000043 2224.10 465.62 748.48 1001.15 2361.78 830.60 2709.74 786.59 2518.61 1013.43 2432.69 1202.88 2736.76 1164.55
00073130 00000044 2229.06 450.03 748.64 1017.19 2369.51 823.14 2720.60 785.37 2528.41 1010.48 2436.64 1196.44 2744.08 1163.03
00073131 00000045 2228.46 457.10 742.02 1003.31 2368.69 817.72 2712.78 776.96 2538.64 1004.71 2446.30 1194.04 2753.31 1156.91
00073132 00000046 2226.99 458.98 756.20 1015.78 2377.98 813.31 2719.85 776.81 2548.40 997.79 2452.14 1189.47 2758.38 1154.19
00073133 00000047 2232.61 453.49 755.55 1016.89 2379.85 809.60 2725.01 775.20 2551.86 993.90 2455.40 1190.00 2760.71 1157.56
00073134 00000048 2243.01 457.95 751.07 1005.55 2382.63 812.63 2728.61 773.87 2555.17 994.78 2458.53 1191.51 2764.76 1155.31
00073135 00000049 2251.45 451.62 755.38 1019.28 2394.17 813.42 2739.15 777.07 2561.11 998.87 2468.99 1194.46 2771.15 1159.85
00073136 00000050 2264.12 455.64 744.36 1004.39 2404.08 812.23 2748.02 782.71 2567.72 997.32 2468.48 1187.69 2768.29 1159.35
00073137 00000051 2277.33 450.31 739.34 1007.51 2416.91 812.19 2763.47 779.26 2582.52 996.90 2480.84 1190.72 2780.76 1159.50
00073138 00000052 2278.50 433.36 753.11 1031.49 2428.87 806.24 2774.30 781.27 2583.82 991.98 2488.95 1184.66 2781.63 1160.37
00073139 00000053 2284.04 440.14 749.04 1013.40 2434.27 807.45 2784.54 786.66 2574.57 981.73 2485.66 1169.24 2792.92 1152.63
00073140 00000054 2290.41 456.58 742.82 991.73 2441.94 809.48 2791.37 787.02 2581.51 983.69 2490.75 1168.49 2794.82 1151.34
00073141 00000055 2296.73 464.18 742.81 993.55 2442.47 807.98 2789.75 783.89 2582.12 987.64 2489.66 1173.46 2793.48 1151.34
00073142 00000056 2301.03 443.74 739.38 1004.08 2452.81 805.72 2804.48 784.99 2596.13 981.56 2499.08 1165.20 2807.28 1149.94
00073143 00000057 2303.02 444.09 737.45 994.09 2453.65 805.74 2806.83 786.07 2598.71 981.96 2499.73 1164.04 2807.15 1150.13
00073144 00000058 2302.10 444.73 737.38 995.97 2453.30 806.81 2806.78 785.74 2598.75 982.33 2499.34 1165.04 2807.86 1149.82
00073145 00000059 2298.34 445.02 743.90 1005.30 2452.16 807.00 2801.38 786.60 2593.54 982.15 2499.89 1166.30 2803.44 1150.80
00073146 00000060 2295.01 442.84 742.72 1009.11 2445.32 807.98 2796.43 788.91 2585.74 984.48 2493.44 1169.20 2799.63 1155.02
00073147 00000061 2285.13 437.11 757.08 1023.14 2439.99 810.43 2788.33 785.90 2599.65 993.30 2496.17 1181.61 2792.18 1158.34
00073148 00000062 2276.39 439.94 759.53 1036.35 2430.94 815.05 2781.63 785.92 2592.77 997.59 2491.31 1191.34 2790.29 1163.46
00073149 00000063 2278.30 453.37 744.85 1017.46 2422.06 818.56 2774.00 786.97 2590.44 1002.68 2482.46 1198.61 2787.83 1169.16
00073150 00000064 2269.11 464.87 745.50 1006.04 2410.54 819.39 2766.13 786.89 2586.49 1009.64 2476.17 1201.13 2786.45 1170.28
00073151 00000065 2256.67 464.66 753.81 1013.48 2399.64 825.75 2756.14 789.45 2578.20 1012.51 2468.00 1206.18 2781.73 1171.94
00073152 00000066 2250.94 459.81 755.49 1019.02 2388.64 826.59 2750.03 787.84 2569.07 1018.86 2457.63 1211.60 2779.55 1175.49
00073153 00000067 2247.30 484.71 752.89 993.52 2383.85 826.00 2741.92 792.25 2561.59 1020.25 2454.21 1211.98 2771.82 1178.97
00073154 00000068 2241.93 478.49 755.22 1002.58 2381.42 828.14 2736.17 790.90 2557.31 1019.74 2455.38 1213.10 2766.54 1177.03
00073155 00000069 2233.65 476.04 756.77 1001.68 2376.46 827.63 2731.83 790.36 2554.95 1021.47 2450.77 1214.61 2760.68 1178.61
00073156 00000070 2239.04 476.41 757.41 1009.17 2384.83 837.34 2731.06 802.25 2542.99 1016.56 2457.90 1215.46 2756.81 1185.55
00073157 00000071 2239.71 479.46 747.71 995.21 2384.50 839.89 2728.11 805.33 2541.69 1021.72 2456.64 1219.66 2749.73 1190.41
00073158 00000072 2238.95 476.92 751.65 1018.05 2381.99 848.17 2725.77 813.43 2536.69 1022.32 2452.47 1220.88 2756.30 1191.10
00073159 00000073 2239.13 466.79 746.48 1030.34 2382.89 850.29 2721.65 812.82 2539.20 1023.21 2455.71 1220.71 2757.38 1188.12
00073160 00000074 2237.36 465.03 747.50 1023.10 2381.69 846.61 2722.43 811.01 2539.48 1023.88 2453.43 1219.90 2751.63 1188.97
00073161 00000075 2237.51 473.58 751.71 1018.57 2382.84 846.32 2725.40 811.89 2539.37 1023.98 2456.38 1222.16 2752.93 1192.49
00073162 00000076 2240.72 481.88 750.70 1015.06 2382.81 847.47 2725.77 811.83 2537.33 1025.08 2457.87 1223.34 2757.76 1192.98
00073163 00000077 2244.11 475.08 748.06 1017.28 2383.36 848.10 2726.05 812.76 2538.38 1027.44 2459.62 1225.39 2755.83 1195.43
00073164 00000078 2243.76 481.87 753.05 1018.96 2386.52 848.15 2730.41 814.55 2541.98 1027.91 2460.47 1227.47 2759.17 1199.01
00073165 00000079 2247.28 499.17 750.37 999.97 2391.01 855.45 2728.77 817.27 2544.75 1029.93 2467.65 1230.01 2761.48 1198.17
00073166 00000080 2247.66 494.84 751.08 1004.26 2389.99 855.38 2728.61 816.54 2544.15 1030.02 2467.82 1230.62 2760.95 1198.08
00073167 00000081 2248.72 490.67 749.40 1011.58 2388.67 856.23 2726.13 816.49 2542.63 1030.09 2466.91 1232.16 2759.65 1198.71
00073168 00000082 2244.11 475.98 753.48 1026.77 2385.20 851.50 2722.89 812.09 2542.65 1031.99 2465.17 1230.28 2757.34 1196.56
00073169 00000083 2242.82 483.93 752.07 1016.23 2383.89 859.91 2719.98 817.84 2539.21 1035.28 2465.04 1234.07 2755.88 1198.14
00073170 00000084 2242.45 476.84 749.73 1024.20 2380.61 861.35 2718.53 818.81 2535.89 1036.95 2464.25 1237.95 2754.52 1201.45
00073171 00000085 2240.85 474.99 751.10 1022.39 2378.86 859.58 2716.76 817.68 2534.05 1035.21 2459.98 1234.08 2750.07 1198.30
00073172 00000086 2239.67 478.95 754.10 1026.47 2377.75 858.01 2713.24 818.94 2528.83 1033.69 2457.10 1233.65 2746.42 1200.04
00073173 00000087 2240.16 478.33 748.16 1023.31 2374.24 859.93 2709.12 817.24 2527.11 1034.03 2453.00 1232.42 2743.44 1196.07
00073174 00000088 2238.37 475.80 745.85 1027.84 2369.21 861.83 2705.12 815.55 2519.59 1035.53 2449.80 1235.26 2740.90 1195.91
00073175 00000089 2234.29 474.28 744.53 1020.85 2365.05 858.29 2703.71 815.43 2514.94 1033.34 2441.57 1231.84 2731.44 1195.49
00073176 00000090 2231.12 468.46 748.38 1035.78 2363.60 860.69 2699.46 814.56 2514.06 1032.02 2441.05 1232.77 2732.81 1193.17
00073177 00000091 2230.75 473.30 749.74 1026.86 2363.59 858.78 2697.84 813.30 2512.42 1032.04 2440.50 1229.15 2730.32 1190.33
00073178 00000092 2233.85 475.52 745.18 1021.13 2365.09 856.31 2700.30 811.14 2513.15 1028.05 2439.33 1226.77 2728.23 1188.48
00073179 00000093 2234.39 474.48 741.62 1020.36 2364.43 853.71 2700.24 807.54 2511.21 1029.50 2439.19 1226.67 2730.65 1187.71
00073180 00000094 2237.86 474.22 742.06 1025.99 2368.11 852.86 2702.42 810.09 2514.35 1027.81 2440.94 1223.00 2733.24 1186.92
00073181 00000095 2239.04 462.06 739.13 1022.23 2368.26 844.65 2709.25 806.95 2515.19 1027.18 2441.52 1222.31 2730.60 1190.31
00073182 00000096 2239.77 482.06 741.48 1005.81 2372.31 846.31 2710.47 803.19 2522.06 1023.88 2448.27 1221.80 2735.77 1186.04
00073183 00000097 2226.28 454.67 745.85 1019.18 2369.22 833.38 2706.01 798.63 2529.71 1021.32 2446.91 1214.04 2736.81 1180.42
00073184 00000098 2231.83 463.37 738.38 1003.63 2371.80 829.02 2705.56 793.13 2528.26 1015.10 2451.74 1211.26 2737.20 1176.58
00073185 00000099 2232.38 457.18 741.76 1013.91 2373.77 829.95 2707.61 790.78 2532.70 1009.05 2451.38 1208.95 2738.78 1172.07
00073186 00000100 2235.33 451.11 742.92 1019.25 2373.97 825.12 2709.94 786.65 2531.77 1010.54 2450.52 1205.08 2741.47 1168.30
00073187 00000101 2232.69 443.14 745.45 1029.59 2378.10 816.96 2713.60 781.98 2536.58 1002.64 2450.02 1199.11 2742.65 1165.68
00073188 00000102 2236.89 431.32 742.20 1027.76 2375.91 806.25 2713.25 771.86 2534.29 989.78 2454.05 1190.95 2741.43 1159.47
00073189 00000103 2241.64 418.53 746.81 1032.72 2376.51 791.47 2717.76 762.38 2532.49 987.06 2457.11 1182.18 2742.62 1155.56
00073190 00000104 2251.84 411.39 746.53 1020.83 2380.72 780.64 2722.21 755.51 2529.53 975.47 2453.34 1170.90 2741.73 1148.13
00073191 00000105 2256.78 412.99 747.16 1027.94 2391.82 775.79 2722.59 748.07 2530.24 958.62 2464.08 1163.39 2742.18 1138.03
00073192 00000106 2265.52 405.18 742.21 1020.30 2392.41 769.41 2723.89 742.39 2525.91 955.12 2458.91 1154.07 2741.93 1129.49
00073193 00000107 2269.90 403.15 736.07 1004.77 2396.08 762.19 2728.46 735.04 2531.04 951.10 2462.23 1145.70 2743.77 1121.46
00073194 00000108 2270.34 398.50 740.35 1014.02 2402.34 758.79 2735.24 731.70 2537.98 940.09 2469.53 1140.26 2752.20 1115.84
00073195 00000109 2287.03 403.37 729.79 997.71 2420.09 761.64 2752.79 739.40 2555.25 924.11 2476.30 1115.39 2763.34 1100.21
00073196 00000110 2299.31 377.43 717.64 1017.63 2427.52 755.12 2756.85 736.52 2557.99 918.15 2478.41 1108.45 2760.77 1096.88
00073197 00000111 2308.09 377.88 720.38 1014.37 2438.71 752.17 2764.84 737.05 2565.55 914.41 2486.38 1103.72 2761.63 1095.64
00073198 00000112 2313.23 382.85 719.66 1000.19 2443.67 755.63 2770.69 737.30 2571.95 914.41 2490.67 1102.67 2767.39 1092.20
00073199 00000113 2320.39 379.93 720.93 1010.20 2453.58 753.12 2780.99 739.30 2579.54 915.89 2494.26 1102.18 2774.78 1095.74
00073200 00000114 2326.39 379.15 714.03 1008.67 2459.45 752.06 2789.35 737.81 2586.38 913.16 2497.09 1101.86 2783.24 1095.33
00073201 00000115 2331.99 390.06 707.44 998.67 2465.70 755.90 2795.74 742.17 2589.71 917.26 2497.60 1103.05 2788.30 1097.07
00073202 00000116 2337.11 391.69 707.94 1003.66 2469.95 764.36 2804.11 748.49 2597.31 926.02 2501.85 1112.79 2796.49 1104.55
00073203 00000117 2344.16 399.57 709.29 1007.87 2473.12 769.14 2809.82 751.55 2596.04 931.82 2504.41 1121.24 2803.54 1111.44
00073204 00000118 2345.28 389.20 708.81 1023.16 2473.30 776.25 2812.41 761.89 2598.50 944.37 2506.22 1133.89 2803.64 1126.65
00073205 00000119 2345.00 397.22 707.69 1026.99 2476.59 783.03 2808.01 771.43 2600.28 951.44 2509.86 1134.17 2801.88 1128.70
00073206 00000120 2341.38 388.96 711.59 1044.48 2472.06 784.41 2802.62 776.87 2594.33 957.74 2507.95 1141.11 2794.85 1138.72
00073207 00000121 2337.64 391.95 710.53 1036.35 2468.50 788.23 2801.55 782.36 2588.58 960.42 2503.26 1143.74 2788.09 1143.07
00073208 00000122 2333.24 397.38 709.97 1026.80 2464.35 790.16 2795.28 786.86 2583.33 964.31 2500.61 1143.07 2781.21 1144.43
00073209 00000123 2334.23 402.11 712.27 1018.48 2463.61 787.88 2796.32 781.56 2580.16 953.00 2497.61 1139.06 2782.24 1138.22
00073210 00000124 2336.03 387.33 707.99 1025.64 2461.19 784.69 2791.68 776.73 2577.51 950.85 2495.39 1133.80 2784.61 1131.40
00073211 00000125 2339.47 388.85 705.57 1023.82 2462.42 780.70 2794.82 770.35 2578.24 945.30 2493.79 1130.92 2787.94 1126.92
00073212 00000126 2339.53 394.82 712.23 1016.89 2468.05 778.19 2802.13 772.30 2584.46 944.23 2494.21 1128.52 2788.75 1128.39
00073213 00000127 2338.53 396.30 712.02 1015.12 2466.69 777.28 2804.53 770.67 2585.05 943.41 2495.64 1131.05 2790.98 1130.20
00073214 00000128 2335.93 396.46 711.85 1017.17 2464.21 774.67 2803.95 769.48 2584.02 942.08 2492.85 1130.38 2791.26 1130.78
00073215 00000129 2332.99 399.45 711.13 1005.14 2458.64 778.32 2797.35 767.97 2578.86 945.14 2490.60 1132.23 2786.93 1128.49
00073216 00000130 2326.30 389.52 713.11 1019.34 2449.81 775.84 2788.85 765.62 2569.85 942.01 2485.32 1130.65 2781.03 1126.79
00073217 00000131 2316.87 391.10 714.12 1016.40 2442.62 775.95 2777.54 764.38 2566.05 949.87 2480.09 1132.38 2771.64 1127.06
00073218 00000132 2308.42 391.40 715.62 1010.76 2435.39 777.42 2772.19 767.97 2560.92 950.96 2469.82 1134.28 2763.26 1131.03
00073219 00000133 2301.70 392.34 717.94 1012.00 2429.15 775.87 2767.92 765.92 2555.35 949.20 2465.61 1133.42 2758.65 1129.19
00073220 00000134 2293.56 398.89 725.29 1011.50 2417.59 766.58 2756.53 754.74 2550.19 963.98 2464.23 1150.34 2752.35 1138.45
00073221 00000135 2293.97 404.29 725.59 1004.92 2419.37 765.70 2763.51 758.20 2553.77 962.45 2460.86 1148.44 2751.25 1140.61
00073222 00000136 2290.07 401.76 729.63 1009.14 2417.37 766.59 2761.65 758.70 2553.43 965.71 2458.97 1149.23 2754.02 1141.02
00073223 00000137 2289.89 402.56 726.56 1005.04 2412.67 767.62 2758.00 757.18 2552.41 968.34 2455.67 1149.29 2754.84 1138.99
00073224 00000138 2286.60 405.38 728.59 1008.87 2411.93 768.12 2758.90 760.24 2551.36 967.55 2450.63 1149.23 2755.58 1140.71
00073225 00000139 2285.82 401.41 732.35 1025.79 2412.24 768.83 2754.80 760.55 2549.65 968.07 2453.59 1153.28 2753.72 1143.91
00073226 00000140 2283.16 403.06 737.25 1031.02 2415.96 774.59 2759.58 765.08 2554.22 968.77 2456.78 1156.05 2755.22 1145.67
00073227 00000141 2291.47 410.68 736.91 1024.42 2426.25 781.06 2767.66 774.50 2560.56 971.04 2459.53 1157.15 2759.92 1148.76
00073228 00000142 2291.61 408.65 738.01 1033.23 2431.33 784.15 2778.05 780.61 2566.86 973.44 2465.31 1158.51 2762.96 1152.17
00073229 00000143 2298.96 411.42 728.69 1032.16 2436.31 790.55 2780.17 792.67 2558.43 973.98 2460.96 1148.54 2764.07 1153.42
00073230 00000144 2300.56 416.15 729.78 1035.94 2437.07 796.78 2782.19 791.93 2561.61 979.10 2464.39 1155.82 2770.74 1154.42
00073231 00000145 2301.23 422.27 727.84 1023.35 2438.63 796.55 2782.51 793.57 2560.96 979.72 2467.47 1156.45 2765.59 1156.97
00073232 00000146 2301.96 418.90 728.68 1022.90 2441.72 796.51 2786.59 792.63 2566.50 978.19 2471.59 1155.33 2767.46 1155.19
00073233 00000147 2302.41 426.86 730.70 1015.99 2444.04 794.31 2787.80 788.24 2570.03 977.00 2471.97 1152.74 2771.24 1150.96
00073234 00000148 2304.74 423.12 729.76 1014.43 2446.78 796.25 2791.46 791.72 2571.76 978.44 2475.95 1153.58 2773.87 1153.08
00073235 00000149 2302.96 418.95 732.03 1022.88 2448.71 792.04 2796.16 794.19 2573.77 981.61 2476.08 1152.29 2774.88 1157.35
00073236 00000150 2305.53 413.16 728.87 1027.76 2452.20 793.70 2797.75 798.06 2577.44 981.59 2477.59 1152.21 2775.20 1159.41
00073237 00000151 2303.23 408.89 730.19 1034.59 2448.46 797.29 2795.45 795.68 2577.23 981.75 2476.39 1155.86 2779.70 1157.76
00073238 00000152 2301.89 412.68 732.24 1031.63 2445.16 796.90 2792.29 793.84 2571.69 981.09 2475.39 1157.04 2776.99 1157.51
00073239 00000153 2298.95 416.36 732.95 1029.82 2442.04 798.73 2786.51 794.25 2568.82 981.22 2473.35 1157.01 2771.21 1156.23
00073240 00000154 2296.73 416.74 734.12 1026.62 2440.17 798.87 2784.20 794.58 2567.41 982.52 2472.51 1157.15 2770.73 1156.33
00073241 00000155 2295.23 420.84 733.81 1021.74 2439.19 802.01 2782.17 794.66 2568.20 983.18 2472.23 1158.30 2768.82 1155.22
00073242 00000156 2296.87 415.93 731.96 1026.49 2439.10 798.96 2784.14 793.05 2567.90 980.71 2471.38 1157.43 2769.18 1155.53
00073243 00000157 2296.01 418.27 731.54 1023.69 2436.78 796.93 2783.34 789.59 2564.58 977.50 2470.33 1157.06 2770.60 1153.81
