Video ID: 	1VgN8KDObyk
H: 	2160
W: 	3840
FPS: 	25.0

FRAME INDEX X0 Y0 W H [Landmarks (5 Points)]

00003350 00000000 1683.38 445.75 539.46 837.65 1845.72 779.99 2108.51 796.36 1988.82 953.88 1856.56 1096.73 2063.26 1108.51
00003351 00000001 1682.56 446.49 540.03 839.55 1845.51 779.35 2107.43 796.35 1987.60 953.32 1855.79 1096.52 2061.23 1108.80
00003352 00000002 1681.95 445.65 540.54 843.51 1845.65 779.35 2106.97 796.64 1988.15 951.05 1856.25 1095.20 2060.89 1107.74
00003353 00000003 1681.92 446.75 540.64 841.88 1845.61 779.33 2107.02 796.68 1988.11 951.47 1856.25 1095.41 2061.04 1107.96
00003354 00000004 1680.79 446.55 542.45 846.61 1846.64 778.46 2106.83 795.98 1988.27 949.97 1856.87 1093.91 2060.14 1106.49
00003355 00000005 1680.87 443.03 543.05 850.37 1847.94 778.09 2107.02 795.39 1989.82 948.86 1858.20 1091.60 2060.72 1103.97
00003356 00000006 1680.97 442.47 543.14 853.71 1850.59 776.58 2109.02 794.80 1993.35 947.45 1859.61 1090.95 2061.37 1104.13
00003357 00000007 1680.41 443.07 545.16 853.21 1853.10 775.29 2112.39 794.22 1996.61 944.64 1860.90 1088.96 2064.20 1102.87
00003358 00000008 1681.49 442.04 544.64 852.72 1854.85 773.51 2114.82 793.13 1999.41 943.86 1861.68 1088.34 2067.00 1102.91
00003359 00000009 1682.04 439.69 544.13 853.23 1857.67 773.15 2116.42 793.64 2002.41 943.16 1863.10 1086.80 2069.08 1102.14
00003360 00000010 1684.58 437.05 540.82 849.00 1859.47 773.02 2117.95 793.02 2003.94 943.62 1866.64 1087.65 2070.95 1102.31
00003361 00000011 1687.42 434.64 538.73 843.17 1860.32 771.73 2119.95 791.53 2005.20 944.15 1868.07 1086.76 2073.25 1101.25
00003362 00000012 1688.88 432.75 538.80 836.45 1860.50 770.18 2122.03 791.65 2005.58 944.60 1866.72 1085.22 2074.26 1101.16
00003363 00000013 1689.83 434.32 539.70 829.67 1859.88 769.84 2122.61 791.17 2003.76 946.04 1865.61 1084.34 2074.57 1100.23
00003364 00000014 1689.74 433.48 541.31 823.67 1860.38 768.78 2122.83 791.20 2001.82 944.42 1866.86 1080.44 2072.61 1097.09
00003365 00000015 1689.45 432.05 542.10 823.30 1860.86 770.10 2123.83 794.68 2001.61 943.26 1865.70 1077.25 2070.22 1095.95
00003366 00000016 1691.69 442.30 538.68 813.42 1866.34 773.83 2124.11 807.13 2002.48 945.22 1863.98 1075.10 2065.82 1101.03
00003367 00000017 1694.20 451.81 547.40 802.62 1875.07 775.69 2135.67 809.57 2014.80 945.97 1876.59 1075.27 2073.41 1101.31
00003368 DELETE   1700.01 451.42 548.81 797.24 1889.48 773.79 2145.47 808.42 2029.32 942.29 1888.45 1072.85 2078.42 1101.28
00003369 00000019 1705.80 451.51 545.72 795.92 1897.86 772.28 2153.15 807.66 2038.63 944.12 1896.58 1072.67 2085.00 1101.48
00003370 00000020 1707.35 450.46 545.40 796.89 1898.08 770.50 2152.88 808.37 2036.08 943.29 1893.24 1069.88 2082.30 1100.89
00003371 00000021 1706.93 450.23 545.18 798.88 1894.51 769.45 2149.60 808.81 2031.26 939.85 1886.36 1067.06 2078.89 1099.86
00003372 00000022 1708.57 449.09 543.01 806.33 1891.92 769.52 2144.60 811.04 2023.70 939.04 1882.58 1066.27 2072.61 1101.13
00003373 00000023 1708.43 443.94 544.58 816.85 1891.33 768.75 2144.25 811.67 2023.22 936.56 1880.46 1066.20 2070.83 1102.52
00003374 00000024 1714.32 441.65 542.98 815.87 1896.58 767.50 2149.56 808.95 2029.39 934.60 1885.57 1065.04 2076.74 1100.14
00003375 00000025 1718.28 437.81 544.89 813.61 1904.68 764.59 2158.92 803.78 2038.77 932.13 1896.30 1062.44 2086.26 1095.05
00003376 00000026 1722.25 430.27 545.81 819.74 1911.10 760.64 2165.02 797.80 2046.50 933.27 1905.11 1062.55 2094.38 1092.68
00003377 00000027 1722.71 433.18 544.60 815.95 1913.82 759.05 2166.08 795.16 2049.82 934.65 1909.93 1063.64 2097.14 1092.45
00003378 00000028 1722.84 433.46 544.67 815.69 1913.99 759.02 2165.98 795.35 2049.64 934.83 1909.81 1063.49 2096.80 1092.48
00003379 00000029 1722.54 434.72 543.59 813.39 1910.96 757.31 2162.71 791.73 2046.48 935.24 1908.34 1064.02 2095.08 1091.32
00003380 00000030 1721.63 436.70 543.80 811.52 1907.39 755.65 2159.48 788.93 2042.25 931.71 1906.44 1063.65 2091.89 1090.01
00003381 00000031 1720.55 436.56 543.89 810.08 1904.87 754.40 2158.62 787.69 2038.83 930.51 1905.34 1062.26 2090.08 1088.53
00003382 00000032 1721.98 434.33 541.94 809.56 1903.78 753.53 2158.32 785.73 2038.50 930.84 1904.72 1062.23 2090.95 1087.56
00003383 00000033 1720.49 433.88 542.32 810.72 1902.88 753.28 2157.63 783.61 2039.27 930.42 1904.93 1062.01 2092.26 1085.95
00003384 00000034 1718.26 433.88 542.28 813.41 1901.64 753.28 2155.32 782.66 2039.27 930.78 1905.15 1061.93 2090.61 1085.10
00003385 00000035 1716.83 436.09 538.48 812.34 1897.30 753.07 2150.69 781.77 2035.38 929.61 1900.61 1061.27 2088.23 1084.22
00003386 00000036 1714.50 435.35 536.08 812.12 1893.05 751.78 2147.44 781.43 2032.03 930.04 1894.12 1062.11 2086.04 1085.95
00003387 00000037 1711.53 437.89 536.65 809.07 1888.86 752.12 2143.20 781.21 2028.88 929.08 1890.00 1061.84 2083.60 1085.44
00003388 00000038 1708.30 436.43 539.73 811.14 1885.95 750.97 2141.32 780.58 2025.87 927.81 1886.70 1060.40 2082.65 1084.46
00003389 00000039 1708.43 432.61 539.53 812.66 1885.06 750.32 2141.61 778.31 2024.93 924.47 1888.53 1059.53 2083.85 1082.14
00003390 00000040 1706.12 431.15 540.82 812.40 1883.69 748.79 2141.31 775.95 2025.41 922.28 1888.38 1059.63 2083.99 1081.39
00003391 00000041 1698.72 425.68 549.96 821.25 1879.47 751.08 2143.08 776.84 2024.65 921.87 1886.82 1061.96 2088.55 1081.44
00003392 00000042 1697.53 427.70 548.86 821.05 1877.82 751.28 2140.90 774.83 2023.29 921.13 1886.98 1063.33 2089.65 1080.89
00003393 00000043 1696.24 426.37 548.71 824.86 1876.16 751.10 2139.40 774.73 2022.01 919.12 1885.85 1063.42 2088.11 1081.07
00003394 00000044 1694.13 425.30 545.72 827.18 1871.91 752.92 2134.34 774.73 2017.21 917.99 1883.43 1064.11 2086.63 1080.35
00003395 00000045 1691.51 425.84 546.23 830.00 1868.96 752.44 2129.83 773.14 2012.89 916.06 1880.84 1064.21 2081.82 1079.50
00003396 00000046 1689.88 424.73 547.47 834.12 1865.93 751.32 2127.74 771.02 2010.07 913.83 1877.51 1063.77 2080.65 1078.42
00003397 00000047 1505.15 294.69 995.26 1487.39 1810.98 834.78 2274.25 850.49 2083.19 1112.85 1839.61 1387.67 2233.50 1400.46
00003398 00000048 1491.86 285.97 1016.02 1511.02 1802.58 837.29 2277.77 849.65 2074.13 1108.88 1851.20 1398.50 2232.80 1406.74
00003399 00000049 1493.42 288.26 1014.91 1522.68 1806.32 838.03 2277.40 851.83 2076.73 1107.46 1852.27 1404.17 2231.27 1413.45
00003400 00000050 1507.28 297.43 992.08 1502.64 1818.30 845.54 2274.26 871.04 2084.20 1115.40 1835.81 1393.03 2226.23 1413.27
00003401 00000051 1510.81 296.55 988.61 1460.65 1823.21 854.19 2279.56 878.28 2083.36 1116.14 1843.11 1385.03 2217.85 1404.95
00003402 00000052 1511.06 296.29 988.45 1462.35 1823.54 854.56 2279.92 878.38 2083.91 1115.80 1843.06 1385.31 2218.67 1405.02
00003403 00000053 1515.34 295.02 979.46 1425.28 1816.23 856.35 2276.28 868.18 2084.41 1114.83 1859.74 1390.17 2217.43 1400.63
00003404 00000054 1516.59 291.45 974.58 1427.98 1813.38 849.07 2275.03 858.06 2085.20 1118.42 1861.13 1389.52 2217.56 1397.72
00003405 00000055 1514.89 293.11 978.02 1428.06 1812.10 841.73 2275.93 851.17 2085.53 1117.55 1860.49 1388.73 2217.33 1397.55
00003406 00000056 1511.64 290.97 982.88 1435.98 1813.23 836.78 2274.81 847.71 2085.33 1108.94 1857.90 1384.24 2214.81 1394.18
00003407 00000057 1511.25 291.38 987.55 1446.42 1814.53 831.14 2273.46 844.44 2086.72 1101.01 1861.46 1385.69 2214.91 1397.62
00003408 00000058 1512.91 288.05 988.44 1468.72 1818.41 826.48 2273.39 843.58 2088.01 1097.46 1861.92 1386.25 2216.01 1401.19
00003409 00000059 1497.04 274.65 1021.02 1503.97 1811.91 825.57 2286.80 838.93 2082.00 1094.90 1871.27 1391.69 2227.23 1401.60
00003410 00000060 1496.93 271.40 1020.81 1510.03 1813.11 824.09 2288.67 838.04 2084.31 1091.88 1871.16 1389.77 2230.94 1400.08
00003411 00000061 1510.58 278.23 989.58 1484.61 1821.46 822.90 2274.69 841.72 2090.16 1095.61 1856.65 1379.59 2224.32 1395.46
00003412 00000062 1508.15 274.99 992.73 1463.86 1816.69 826.62 2275.51 841.28 2088.59 1099.33 1853.13 1372.30 2227.95 1384.76
00003413 00000063 1509.23 277.19 988.74 1451.96 1818.96 836.06 2276.52 853.52 2088.47 1097.80 1847.90 1367.02 2229.80 1381.28
00003414 00000064 1509.74 289.04 991.65 1444.97 1822.09 843.79 2280.94 861.75 2088.38 1101.60 1845.71 1369.04 2230.19 1383.73
00003415 00000065 1511.84 291.83 988.47 1448.25 1822.64 844.40 2283.68 864.40 2090.04 1106.01 1843.57 1373.93 2229.50 1390.33
00003416 00000066 1511.15 293.00 987.42 1451.71 1824.50 850.39 2282.81 870.45 2089.84 1112.74 1845.10 1378.20 2227.79 1394.83
00003417 00000067 1509.44 290.50 987.49 1452.15 1822.23 856.08 2278.82 872.45 2088.27 1117.36 1848.09 1381.83 2227.96 1395.36
00003418 00000068 1509.04 294.26 989.07 1449.74 1822.03 861.14 2278.44 877.38 2085.54 1121.59 1848.30 1385.96 2226.24 1399.45
00003419 00000069 1509.00 298.33 988.99 1463.28 1819.88 865.65 2277.22 883.06 2079.96 1131.56 1843.51 1395.97 2220.30 1410.77
00003420 00000070 1505.35 306.98 994.46 1476.35 1819.74 869.24 2279.36 888.54 2080.76 1137.24 1839.85 1405.50 2220.43 1421.65
00003421 00000071 1503.06 312.60 997.59 1489.39 1820.70 869.67 2279.70 892.45 2080.99 1139.84 1837.27 1410.09 2219.96 1428.74
00003422 00000072 1504.47 309.74 998.70 1496.47 1822.52 869.55 2282.36 892.38 2084.12 1140.20 1839.34 1412.38 2222.44 1430.89
00003423 00000073 1505.33 311.79 996.91 1491.38 1823.04 872.97 2281.73 893.63 2084.74 1141.98 1842.79 1414.21 2222.40 1431.07
00003424 00000074 1506.63 313.82 994.15 1485.74 1824.01 875.54 2281.96 897.42 2084.45 1146.75 1842.64 1414.47 2220.18 1432.43
00003425 00000075 1508.20 311.50 992.92 1482.91 1819.47 880.19 2279.43 898.14 2079.46 1155.28 1842.65 1420.07 2217.83 1435.16
00003426 00000076 1508.99 311.22 991.78 1482.56 1819.85 880.21 2279.12 898.04 2079.65 1154.85 1843.62 1420.22 2217.32 1435.24
00003427 00000077 1508.90 317.53 991.52 1479.57 1817.82 883.60 2275.97 899.54 2076.51 1157.78 1844.73 1424.77 2216.30 1438.31
00003428 00000078 1510.08 317.54 990.08 1475.14 1816.55 886.13 2274.68 900.75 2075.25 1159.85 1845.88 1426.06 2214.62 1438.76
00003429 00000079 1514.68 318.13 988.50 1462.62 1817.86 889.60 2276.72 903.84 2075.64 1164.13 1848.62 1427.06 2212.14 1439.73
00003430 00000080 1518.58 317.19 985.96 1452.64 1819.71 887.07 2279.13 900.57 2078.24 1162.26 1853.46 1424.50 2212.75 1436.63
00003431 00000081 1522.71 314.15 982.16 1441.97 1822.69 884.13 2283.29 898.90 2082.97 1157.46 1857.45 1420.34 2214.51 1433.69
00003432 00000082 1523.50 312.92 982.52 1438.74 1825.96 883.36 2289.10 898.59 2089.54 1150.85 1860.81 1417.89 2219.74 1431.58
00003433 00000083 1527.48 316.09 982.97 1437.21 1834.21 884.14 2293.97 900.81 2095.63 1141.11 1867.68 1415.69 2222.63 1430.43
00003434 00000084 1522.84 312.01 986.47 1454.25 1837.51 884.29 2294.40 899.36 2100.78 1134.47 1869.06 1414.90 2228.51 1428.05
00003435 00000085 1522.53 311.57 989.59 1466.11 1838.52 883.75 2295.79 899.79 2100.90 1134.58 1866.97 1417.20 2230.78 1431.11
00003436 00000086 1519.73 317.90 991.74 1462.57 1831.78 884.56 2292.26 902.99 2095.75 1145.48 1862.51 1422.00 2226.61 1437.59
00003437 00000087 1519.50 321.68 993.41 1455.79 1825.39 888.32 2288.73 903.92 2088.96 1159.71 1860.39 1429.86 2222.36 1443.51
00003438 00000088 1516.96 330.16 992.27 1453.14 1816.41 891.90 2288.27 903.05 2084.17 1172.46 1856.79 1440.15 2224.18 1450.19
00003439 00000089 1520.15 329.66 986.31 1456.25 1811.48 887.30 2285.89 896.52 2082.56 1179.73 1856.81 1445.81 2222.19 1454.65
00003440 00000090 1518.11 333.18 988.97 1454.46 1808.80 889.37 2285.06 896.75 2079.71 1186.04 1856.96 1451.58 2221.46 1458.94
00003441 00000091 1510.28 336.98 995.48 1455.31 1806.55 891.99 2283.46 898.34 2078.31 1190.25 1854.57 1453.12 2222.32 1459.25
00003442 00000092 1509.55 331.03 996.41 1462.45 1803.29 891.89 2281.16 897.10 2075.65 1189.71 1853.45 1453.87 2223.82 1458.84
00003443 00000093 1508.07 331.70 997.66 1468.11 1802.58 890.40 2279.38 894.80 2074.76 1185.03 1854.05 1453.33 2223.61 1457.60
00003444 00000094 1505.90 328.54 999.55 1474.90 1801.22 888.50 2277.00 893.94 2072.19 1180.35 1852.83 1453.67 2218.09 1458.81
00003445 00000095 1508.08 322.84 995.71 1481.99 1801.14 884.82 2275.33 890.84 2071.45 1177.18 1853.51 1451.98 2217.17 1457.63
00003446 00000096 1506.10 320.70 994.75 1476.78 1799.71 883.63 2274.64 887.54 2071.92 1175.25 1851.68 1446.81 2217.31 1450.71
00003447 00000097 1504.47 317.39 996.66 1472.77 1798.23 881.83 2275.06 883.24 2071.94 1172.72 1849.67 1442.13 2221.38 1443.84
00003448 00000098 1501.62 311.84 998.89 1476.87 1795.12 878.95 2274.66 878.90 2070.27 1169.55 1845.29 1436.90 2225.62 1437.21
00003449 00000099 1501.67 314.88 997.02 1475.58 1795.63 877.66 2274.56 879.74 2069.16 1169.96 1840.24 1433.45 2226.17 1435.28
00003450 00000100 1498.86 313.38 1000.45 1481.14 1795.63 876.49 2274.43 880.57 2067.88 1168.59 1835.43 1429.79 2226.31 1433.20
00003451 00000101 1498.58 313.68 1000.46 1481.59 1795.46 876.49 2274.57 880.58 2067.94 1168.61 1835.29 1430.20 2226.80 1433.60
00003452 00000102 1501.36 313.11 997.85 1476.15 1795.06 877.40 2275.06 882.04 2066.85 1170.73 1838.06 1433.98 2222.58 1438.14
00003453 00000103 1503.90 319.25 996.79 1470.36 1796.57 879.63 2275.48 885.12 2067.45 1173.08 1842.91 1439.36 2218.83 1444.50
00003454 00000104 1506.74 321.41 992.94 1467.48 1794.26 881.47 2273.88 885.99 2065.19 1177.42 1845.49 1444.48 2215.99 1449.07
00003455 00000105 1505.02 324.71 995.60 1468.12 1791.93 883.78 2273.15 887.25 2063.74 1179.68 1845.96 1449.34 2215.26 1453.06
00003456 00000106 1504.35 326.60 996.63 1466.53 1791.87 883.84 2273.61 887.79 2064.53 1180.37 1846.28 1451.02 2212.59 1455.23
00003457 00000107 1504.53 327.33 996.21 1464.62 1792.04 883.61 2273.67 887.08 2065.13 1178.55 1846.56 1450.84 2212.11 1454.68
00003458 00000108 1506.28 325.47 995.33 1467.64 1794.47 882.05 2273.53 886.38 2065.67 1174.13 1848.17 1449.61 2211.26 1454.17
00003459 00000109 1505.13 324.15 993.19 1467.59 1793.70 878.77 2273.22 881.99 2067.48 1171.81 1848.94 1447.67 2211.95 1451.31
00003460 00000110 1502.03 321.28 996.05 1469.61 1795.66 874.66 2273.58 877.46 2070.72 1164.16 1851.21 1444.28 2211.03 1447.57
00003461 00000111 1487.55 314.40 1010.02 1452.06 1788.84 861.83 2279.67 864.10 2080.38 1144.28 1867.35 1440.25 2215.63 1441.22
00003462 00000112 1732.32 405.63 535.84 774.42 1908.70 700.50 2155.94 732.26 2035.01 840.99 1913.42 990.83 2092.55 1015.98
00003463 00000113 1730.26 404.91 537.16 779.08 1907.20 701.24 2154.91 730.87 2035.90 842.48 1913.58 992.88 2094.27 1016.47
00003464 00000114 1729.43 409.17 534.37 780.61 1904.87 704.19 2152.57 731.52 2036.75 846.18 1912.79 999.66 2095.69 1021.58
00003465 00000115 1728.39 413.24 531.80 773.49 1901.09 709.31 2150.47 734.44 2036.10 854.24 1910.26 1003.12 2097.58 1023.64
00003466 00000116 1728.25 414.31 531.01 772.48 1898.33 714.08 2150.68 737.87 2035.48 861.81 1910.30 1011.23 2097.80 1030.58
00003467 00000117 1730.36 416.32 531.13 779.56 1893.38 722.95 2149.89 745.47 2033.10 861.76 1905.95 1016.33 2096.03 1035.71
00003468 00000118 1730.47 427.77 529.45 775.75 1892.71 733.90 2148.52 754.68 2032.80 865.15 1905.25 1022.37 2094.96 1040.76
00003469 00000119 1727.49 430.20 530.29 787.77 1890.05 734.42 2148.96 756.71 2030.83 864.79 1899.93 1028.12 2093.93 1048.17
00003470 00000120 1721.85 423.28 533.02 806.92 1888.68 733.72 2146.81 760.14 2028.02 868.56 1895.37 1031.63 2086.43 1054.98
00003471 00000121 1719.36 428.09 530.97 801.93 1883.80 737.53 2140.85 762.81 2022.29 877.88 1891.46 1035.76 2084.80 1057.97
00003472 00000122 1714.53 430.47 532.55 800.56 1880.85 743.36 2139.83 769.50 2021.04 886.06 1887.90 1039.19 2083.99 1062.27
00003473 00000123 1709.70 446.91 536.29 791.13 1877.98 748.99 2137.65 773.39 2015.58 896.09 1881.25 1048.64 2084.16 1070.02
00003474 00000124 1700.11 451.36 544.82 790.14 1871.47 755.28 2137.79 781.27 2009.12 905.29 1876.50 1052.76 2092.30 1073.97
00003475 00000125 1700.45 451.04 544.84 790.43 1871.61 755.55 2137.64 781.39 2009.14 905.07 1876.82 1052.66 2092.42 1073.76
00003476 00000126 1699.59 443.68 544.35 800.90 1871.35 755.21 2135.55 783.84 2007.94 911.98 1873.19 1055.52 2088.30 1078.49
00003477 00000127 1698.89 441.46 543.46 811.16 1871.65 757.21 2132.40 785.22 2006.69 919.03 1872.93 1062.25 2084.26 1084.40
00003478 00000128 1698.78 436.77 541.93 828.38 1871.21 760.23 2129.74 788.55 2006.33 923.91 1871.78 1068.58 2078.37 1091.05
00003479 00000129 1698.13 436.99 542.07 826.92 1870.58 762.38 2128.73 789.94 2006.69 928.67 1871.34 1071.78 2078.33 1093.38
00003480 00000130 1698.13 438.24 541.00 819.71 1870.63 763.95 2128.85 791.13 2006.68 930.96 1872.69 1072.54 2079.08 1093.62
00003481 00000131 1698.77 437.99 539.17 817.16 1871.20 765.90 2129.43 792.86 2008.86 935.32 1873.21 1074.05 2079.97 1094.92
00003482 00000132 1697.95 440.40 538.84 818.97 1871.57 767.51 2127.78 794.47 2009.04 939.41 1873.41 1076.96 2077.30 1097.53
00003483 00000133 1698.52 443.05 534.62 819.29 1869.99 769.13 2126.24 796.07 2007.64 942.56 1871.03 1081.97 2075.70 1102.50
00003484 00000134 1698.28 442.37 533.80 820.32 1868.71 770.38 2124.94 798.54 2005.51 945.07 1868.72 1082.46 2073.16 1104.05
00003485 00000135 1698.33 443.66 532.08 819.72 1867.75 772.71 2122.27 801.96 2003.13 947.92 1866.82 1083.61 2069.21 1106.15
00003486 00000136 1699.65 444.82 528.03 820.43 1866.64 776.89 2119.44 806.11 2002.01 952.93 1866.18 1087.58 2066.44 1110.13
00003487 00000137 1700.27 448.21 525.78 821.13 1865.95 780.25 2116.29 809.33 1999.53 957.12 1864.82 1091.30 2063.52 1113.66
00003488 00000138 1699.78 450.74 526.89 820.88 1865.10 782.46 2115.60 811.10 1998.64 960.35 1865.14 1094.79 2062.58 1116.60
00003489 00000139 1700.44 451.32 526.66 821.41 1865.88 782.74 2116.44 810.66 1999.56 960.65 1867.31 1095.38 2063.79 1116.51
00003490 00000140 1701.06 448.08 526.01 829.66 1867.04 782.75 2117.12 811.28 2001.42 960.81 1871.51 1099.34 2062.35 1120.71
00003491 00000141 1700.96 445.27 528.98 841.08 1869.68 783.78 2118.25 811.58 2004.42 965.53 1874.18 1105.23 2062.16 1125.67
00003492 00000142 1701.75 451.86 530.44 842.32 1874.38 788.64 2121.44 813.91 2012.49 970.44 1883.10 1111.36 2067.96 1129.29
00003493 00000143 1694.69 463.31 549.86 829.42 1877.29 795.40 2135.04 819.23 2021.21 975.01 1891.47 1115.83 2076.06 1133.23
00003494 00000144 1696.79 473.26 550.11 820.69 1877.65 800.97 2136.25 823.69 2021.69 980.38 1893.57 1119.59 2079.88 1135.75
00003495 00000145 1697.76 477.11 548.16 816.03 1876.39 803.65 2135.71 826.22 2020.70 982.64 1891.74 1118.23 2079.81 1134.59
00003496 00000146 1697.90 478.61 545.54 814.68 1874.34 806.10 2132.62 827.95 2017.46 981.86 1887.85 1113.24 2080.66 1129.81
00003497 00000147 1703.65 475.53 531.15 821.94 1872.53 802.61 2122.68 825.90 2013.49 980.41 1877.75 1110.86 2077.02 1128.30
00003498 00000148 1701.34 472.75 534.52 829.86 1872.61 800.78 2121.65 824.13 2012.98 979.05 1875.46 1110.66 2076.27 1128.34
00003499 00000149 1701.04 469.56 535.11 837.88 1872.99 799.07 2120.27 823.47 2011.81 975.78 1872.82 1108.52 2074.77 1127.35
00003500 00000150 1700.81 470.11 534.94 837.49 1873.04 799.01 2120.35 823.37 2012.40 975.75 1873.07 1108.66 2075.02 1127.43
00003501 00000151 1699.92 467.65 534.97 837.99 1871.88 797.85 2120.35 822.67 2011.12 974.79 1870.88 1107.58 2075.01 1126.82
00003502 00000152 1699.46 465.17 534.57 839.97 1870.27 796.63 2119.33 822.04 2009.06 974.59 1867.32 1105.42 2073.55 1125.31
00003503 00000153 1698.42 466.10 534.00 839.21 1868.58 796.56 2117.20 821.52 2006.21 975.06 1865.36 1105.32 2071.25 1124.81
00003504 00000154 1698.78 463.17 532.24 839.62 1866.72 798.40 2114.72 824.00 2003.45 970.85 1865.04 1102.77 2068.60 1122.72
00003505 00000155 1701.06 469.07 528.07 831.49 1865.61 802.66 2114.61 829.40 1999.82 966.66 1864.05 1099.52 2066.12 1120.73
00003506 00000156 1699.14 467.90 528.78 831.61 1863.40 799.88 2113.39 825.66 1998.34 965.07 1863.69 1098.47 2066.04 1118.65
00003507 00000157 1698.57 460.10 527.59 836.54 1863.76 795.76 2111.32 821.66 1998.73 965.95 1863.33 1097.89 2064.23 1117.88
00003508 00000158 1697.46 455.96 528.22 840.30 1864.46 793.27 2110.70 819.56 1999.15 965.61 1862.40 1097.14 2063.95 1117.37
