Video ID: 	hsc0qJQLEHo
H: 	1080
W: 	1920
FPS: 	25.0

FRAME INDEX X0 Y0 W H [Landmarks (5 Points)]

00027747 00000000 671.66 105.00 447.17 636.38 837.14 367.24 1023.37 395.13 936.47 508.52 825.57 576.71 975.77 601.75
00027748 DELETE   680.51 113.58 450.58 628.91 850.81 369.02 1033.02 395.75 949.54 507.27 841.75 578.28 987.87 601.87
00027749 DELETE   694.81 113.03 445.72 634.24 870.26 369.99 1050.44 401.39 964.40 504.30 849.27 576.14 990.39 604.48
00027750 00000003 698.43 107.39 447.69 640.17 874.96 366.34 1056.85 399.44 969.95 501.90 851.14 574.47 994.44 604.23
00027751 00000004 702.72 108.24 444.75 641.68 877.80 366.09 1059.36 400.02 973.91 501.11 854.88 576.05 997.87 606.71
00027752 00000005 704.81 110.11 443.94 638.62 878.08 368.33 1060.44 401.74 973.17 503.82 854.30 577.70 996.58 608.20
00027753 00000006 702.34 113.87 446.88 635.36 877.76 369.31 1060.34 401.68 972.85 505.93 852.68 577.17 996.33 606.84
00027754 00000007 703.23 115.23 443.79 636.15 876.20 371.09 1059.08 402.53 971.87 508.37 852.97 579.10 996.80 607.76
00027755 00000008 698.83 121.56 446.05 632.61 874.00 374.13 1056.18 405.45 969.23 511.41 849.34 583.31 991.66 611.96
00027756 00000009 699.20 125.22 441.27 630.56 871.72 377.77 1052.37 408.48 966.00 514.66 848.42 585.96 988.81 614.25
00027757 00000010 697.42 125.50 442.17 630.80 870.62 378.79 1050.39 410.48 962.71 517.23 846.50 586.57 987.34 615.57
00027758 00000011 695.97 128.57 441.71 627.91 867.02 379.98 1048.08 411.47 959.69 519.61 844.04 586.67 986.53 615.56
00027759 00000012 691.23 129.88 447.03 620.33 860.75 380.31 1044.60 412.70 956.58 523.73 842.16 588.90 989.59 617.00
00027760 00000013 694.27 129.23 442.11 629.45 863.55 380.62 1046.68 414.04 955.67 522.25 839.56 590.04 983.98 620.31
00027761 00000014 693.88 127.38 442.33 631.80 865.39 381.44 1047.26 414.45 957.65 522.37 841.71 590.32 984.91 620.13
00027762 00000015 691.60 131.49 446.02 621.66 863.17 381.75 1044.88 414.21 957.98 525.08 844.14 590.81 990.89 618.65
00027763 00000016 695.59 128.87 442.31 630.15 867.69 379.67 1048.30 410.98 960.28 520.13 843.65 588.04 985.77 616.73
00027764 00000017 696.01 126.09 442.91 632.91 869.52 378.48 1050.24 410.38 962.15 519.00 844.72 588.20 986.20 617.28
00027765 00000018 699.46 130.57 439.50 627.67 869.52 379.19 1050.89 411.44 961.62 521.27 845.13 588.39 986.93 618.00
00027766 00000019 699.98 128.87 440.76 629.18 871.67 378.14 1052.25 410.59 963.31 519.48 847.80 588.56 987.44 618.37
00027767 00000020 700.41 129.46 440.51 629.20 872.19 377.51 1053.63 409.07 965.05 517.33 848.59 588.53 989.19 617.53
00027768 00000021 698.25 127.93 443.38 630.46 872.67 376.88 1054.03 409.12 965.25 516.53 849.30 587.81 989.50 617.18
00027769 00000022 698.03 129.90 443.93 629.74 873.72 375.19 1054.57 407.92 966.64 515.41 850.40 586.99 990.64 616.76
00027770 00000023 700.06 130.14 442.06 631.06 873.31 375.89 1055.18 407.93 966.84 516.44 850.07 588.10 991.53 617.39
00027771 00000024 699.25 130.58 442.61 630.89 872.94 376.63 1054.23 408.47 965.57 517.10 849.37 588.62 990.08 617.77
00027772 00000025 698.88 131.81 442.41 628.46 872.99 376.29 1054.34 408.76 965.65 517.48 848.93 588.40 989.60 618.08
00027773 00000026 697.30 128.46 444.04 632.33 872.35 376.38 1053.64 408.34 965.32 517.29 848.40 588.47 989.74 617.64
00027774 00000027 697.14 128.03 443.80 631.14 870.87 377.33 1052.09 409.11 963.99 518.76 846.58 587.74 988.12 616.92
00027775 00000028 697.83 129.96 443.02 630.42 868.74 377.39 1051.45 409.65 960.72 520.31 843.46 588.45 987.03 617.95
00027776 00000029 693.41 130.95 448.92 624.08 861.67 380.08 1045.62 412.37 955.01 523.74 841.11 589.37 991.14 617.19
00027777 00000030 692.09 132.14 446.32 622.51 860.14 380.65 1044.13 412.11 955.14 523.48 841.43 589.84 991.29 617.01
00027778 00000031 691.06 128.78 448.32 625.32 858.83 380.98 1043.67 412.55 953.54 523.31 840.34 590.08 990.85 617.30
00027779 00000032 692.43 131.58 447.64 622.30 858.42 381.40 1044.27 413.33 952.85 523.67 839.43 589.93 991.12 617.53
00027780 00000033 691.20 130.18 448.17 623.83 858.78 382.62 1044.94 413.86 954.76 523.81 840.66 591.05 991.73 618.06
00027781 00000034 692.48 130.24 449.31 625.19 860.15 383.19 1046.63 415.17 955.26 526.49 839.91 591.35 992.05 618.92
00027782 00000035 694.50 133.38 449.13 623.85 861.91 383.38 1047.44 416.99 954.40 527.60 840.56 592.21 991.59 620.89
00027783 00000036 686.38 135.29 450.19 631.61 866.20 378.49 1043.05 414.60 957.94 523.72 845.59 594.09 985.98 623.72
00027784 00000037 686.38 136.73 451.49 629.50 867.23 380.03 1043.69 415.75 958.86 524.76 846.45 594.38 986.53 623.78
00027785 00000038 696.06 131.34 446.71 625.93 866.29 386.18 1048.52 418.02 959.15 527.66 849.82 598.20 992.71 625.06
00027786 00000039 688.69 136.13 447.74 626.38 869.37 383.30 1045.33 415.25 964.54 525.12 854.90 598.41 991.33 624.36
00027787 00000040 696.79 130.33 445.22 633.11 864.33 383.51 1048.40 416.84 954.31 525.78 840.00 593.40 982.94 623.59
00027788 00000041 691.84 133.52 448.62 620.66 857.27 387.13 1044.15 421.81 950.44 528.14 835.13 589.28 989.41 619.16
00027789 00000042 692.06 134.57 447.07 618.03 858.06 388.20 1044.18 420.16 952.69 528.99 837.90 588.61 993.25 616.03
00027790 00000043 692.69 134.32 446.07 622.12 859.53 391.03 1044.59 421.42 954.19 532.33 841.04 592.84 995.05 618.84
00027791 00000044 689.15 132.77 447.82 627.82 855.65 389.43 1041.21 421.73 947.80 534.94 837.26 597.86 985.84 625.35
00027792 00000045 680.51 130.92 459.56 633.62 849.75 388.61 1038.19 423.90 941.86 534.96 831.39 599.75 979.80 629.57
00027793 00000046 677.57 124.43 462.10 641.56 846.97 390.11 1034.81 425.58 937.37 535.43 828.92 601.22 977.11 631.08
00027794 00000047 675.89 119.92 462.32 652.28 849.87 392.11 1034.73 427.21 938.69 533.68 831.35 602.39 979.29 631.77
00027795 00000048 675.39 121.97 462.70 660.47 848.90 389.13 1033.29 428.40 935.92 534.44 823.55 599.76 978.32 632.78
00027796 00000049 672.99 121.97 464.27 655.08 844.44 388.59 1031.60 430.81 929.72 535.37 815.59 596.17 974.91 631.96
00027797 00000050 671.77 119.85 463.62 648.94 840.13 389.36 1029.46 428.18 926.89 536.54 812.64 592.72 973.97 626.03
00027798 00000051 672.19 118.53 462.96 645.26 840.83 390.55 1029.46 426.25 930.90 535.07 820.22 594.56 975.41 625.02
00027799 00000052 675.80 120.07 460.78 641.45 842.86 393.43 1031.91 426.67 932.81 535.49 827.02 600.60 977.76 628.61
00027800 00000053 675.92 123.17 465.28 641.80 844.71 394.65 1033.80 428.21 933.88 538.82 827.25 601.79 978.41 630.01
00027801 00000054 676.92 124.63 462.38 641.01 846.56 396.31 1033.72 429.59 935.81 539.63 827.05 601.05 979.21 629.32
00027802 00000055 680.51 126.48 458.91 639.20 849.65 397.17 1037.37 430.40 940.13 539.07 829.76 601.88 982.34 630.06
00027803 00000056 683.28 129.36 456.88 638.98 852.48 394.72 1039.61 429.35 943.77 537.15 833.14 602.13 984.46 631.20
00027804 00000057 686.97 132.40 453.66 637.48 853.88 396.83 1041.34 430.87 944.99 540.08 832.80 603.08 986.56 631.90
00027805 00000058 687.85 132.03 452.57 638.15 856.63 396.84 1042.45 431.33 946.90 542.55 833.55 603.44 987.02 632.60
00027806 00000059 690.27 131.52 450.35 636.90 857.06 396.35 1043.11 430.59 947.43 542.48 834.46 602.86 988.05 631.73
00027807 00000060 691.82 126.22 447.66 649.36 856.93 391.64 1043.38 424.46 948.19 534.89 833.92 604.01 982.05 633.34
00027808 00000061 692.66 127.42 447.49 648.43 856.65 392.27 1043.49 424.83 947.89 535.47 833.62 604.20 981.34 633.49
00027809 00000062 693.15 128.04 446.74 649.23 856.79 393.47 1044.73 425.34 949.45 536.31 833.94 605.74 982.99 634.47
00027810 00000063 693.77 129.45 446.62 651.22 859.64 393.36 1046.89 423.97 953.64 536.16 837.05 607.44 985.71 635.11
00027811 00000064 694.99 126.10 445.00 652.85 862.46 391.62 1047.60 421.66 955.73 533.91 841.03 607.91 985.74 635.01
00027812 00000065 695.76 126.27 444.57 651.86 863.27 391.09 1047.85 421.41 955.74 533.65 841.43 607.15 985.34 634.51
00027813 00000066 696.23 128.61 444.81 650.91 863.03 391.68 1048.69 421.87 956.01 535.22 841.08 608.35 986.20 635.72
00027814 00000067 687.40 135.81 448.40 644.30 867.69 393.14 1042.52 427.38 961.54 538.55 848.59 611.47 989.83 639.71
00027815 00000068 697.76 127.60 443.77 652.96 866.16 391.55 1050.10 420.64 959.24 533.45 844.74 609.09 987.75 635.43
00027816 00000069 686.66 135.45 448.87 646.85 866.43 392.40 1042.51 426.04 961.26 538.94 847.42 610.83 990.72 638.58
00027817 00000070 694.81 130.16 446.26 652.73 860.10 394.29 1048.17 423.31 954.95 540.33 836.17 609.73 986.93 636.01
00027818 00000071 694.41 134.78 446.33 649.58 860.87 396.47 1048.66 424.96 957.40 544.21 836.87 610.93 988.00 636.83
00027819 00000072 685.32 140.68 449.53 651.80 869.20 398.34 1043.90 428.81 964.96 552.48 844.57 616.27 994.07 642.25
00027820 00000073 685.87 144.97 447.53 650.31 867.79 398.81 1041.27 430.42 961.03 552.43 842.34 616.01 992.90 642.92
00027821 00000074 678.06 138.55 452.85 658.41 859.14 399.35 1035.27 432.91 953.28 551.65 833.03 612.04 989.70 640.64
00027822 00000075 683.63 134.45 450.62 658.56 850.87 396.78 1038.31 427.28 944.75 547.66 825.52 608.89 984.32 635.93
00027823 00000076 672.42 136.47 452.77 660.49 853.38 399.96 1030.02 434.52 948.80 550.32 827.18 609.51 987.10 638.90
00027824 00000077 674.00 140.53 449.93 658.53 855.70 403.89 1030.96 435.79 950.52 554.49 830.97 614.85 988.23 642.11
00027825 00000078 674.03 139.64 450.11 662.67 852.37 408.65 1029.59 440.79 947.19 559.46 829.47 618.74 986.61 646.17
00027826 00000079 672.26 138.55 447.97 664.21 846.03 409.46 1025.30 438.75 942.98 559.80 823.67 618.78 985.25 644.02
00027827 00000080 675.65 134.70 448.34 654.81 847.38 406.92 1028.77 434.08 936.85 551.06 821.71 613.44 978.79 636.57
00027828 00000081 673.37 135.27 449.40 649.28 845.33 408.24 1025.89 435.66 936.18 548.74 821.24 610.35 976.84 633.80
00027829 00000082 672.14 128.82 447.47 659.29 842.68 411.45 1021.72 435.89 932.99 551.44 819.50 611.78 976.23 632.72
00027830 00000083 668.82 130.35 448.80 657.71 834.88 412.26 1017.36 435.09 927.28 550.02 817.94 615.25 973.12 634.38
00027831 00000084 666.16 133.31 450.89 655.68 829.09 408.56 1016.09 430.62 925.53 546.12 816.83 614.80 974.41 633.43
00027832 00000085 666.18 131.10 453.92 657.67 828.20 406.17 1018.25 428.13 926.47 545.06 817.72 614.58 977.71 633.08
00027833 00000086 668.24 129.72 452.09 657.90 832.25 406.47 1020.71 428.40 930.36 545.06 820.64 614.41 979.20 632.78
00027834 00000087 670.99 129.04 456.17 657.32 837.74 405.93 1026.08 430.35 932.97 548.00 822.96 614.68 980.84 635.00
00027835 00000088 673.50 130.01 457.56 652.99 840.92 404.65 1029.57 429.14 937.40 546.27 825.99 614.02 982.07 634.72
00027836 00000089 674.74 130.80 461.20 651.02 843.19 400.35 1034.29 426.05 939.24 543.63 827.42 611.38 986.01 633.14
00027837 00000090 676.07 130.44 459.07 652.15 846.66 400.08 1036.17 426.93 943.35 543.86 829.21 610.26 988.68 633.06
00027838 00000091 683.88 136.09 451.88 646.75 849.59 404.06 1039.18 430.74 943.97 550.77 830.91 613.50 990.22 636.33
00027839 00000092 687.07 134.33 448.20 651.71 853.33 407.94 1039.51 433.96 946.38 555.53 830.84 615.13 990.54 637.56
00027840 00000093 691.70 131.02 444.97 662.64 852.85 404.92 1044.10 429.38 951.24 552.80 833.61 618.09 990.79 640.32
00027841 00000094 682.79 137.13 448.87 660.49 863.22 402.07 1039.09 429.80 959.90 550.89 848.19 625.71 990.26 648.79
00027842 00000095 682.69 135.03 447.75 662.04 862.93 401.06 1039.03 428.11 961.27 547.99 850.70 631.02 986.51 653.43
00027843 00000096 677.29 134.45 451.89 663.88 860.21 402.58 1035.85 431.91 956.50 548.52 846.93 630.18 983.10 654.49
00027844 00000097 675.56 135.75 451.56 663.43 855.31 404.23 1032.47 434.11 950.97 550.48 839.80 625.63 985.50 650.64
00027845 00000098 674.54 137.46 451.05 665.10 851.68 405.86 1030.03 433.98 949.20 553.45 835.48 626.83 986.72 650.47
00027846 00000099 673.23 136.89 454.06 672.13 848.33 404.12 1027.94 434.21 945.81 552.44 826.26 624.19 984.84 649.80
00027847 00000100 673.46 135.47 451.42 679.05 851.15 400.24 1028.63 433.47 946.41 550.89 828.55 627.76 982.27 655.80
00027848 00000101 673.78 137.38 452.05 671.39 851.31 399.01 1028.92 431.19 947.13 548.91 826.57 621.16 986.00 648.52
00027849 00000102 674.17 136.06 453.53 666.36 853.12 395.95 1031.04 427.55 948.92 545.93 829.84 619.52 986.25 646.20
00027850 00000103 672.16 137.98 454.72 668.71 851.98 396.50 1030.99 426.73 951.53 544.59 829.95 621.65 988.12 647.25
00027851 00000104 673.21 138.05 453.29 668.10 850.69 398.32 1030.01 428.00 950.32 545.08 829.86 624.30 985.94 649.44
00027852 00000105 674.13 136.89 450.60 663.32 850.55 400.98 1028.49 428.63 949.63 546.35 832.31 624.05 985.80 647.55
00027853 00000106 674.17 136.21 451.59 660.22 849.99 401.37 1029.52 427.64 951.41 545.11 835.70 623.58 989.90 645.67
00027854 00000107 678.60 132.97 454.88 646.53 846.36 403.21 1037.30 423.87 948.58 539.35 841.76 619.36 994.41 636.37
00027855 00000108 676.94 137.52 450.75 647.30 853.71 398.22 1033.05 423.22 957.14 538.11 844.49 618.75 990.68 639.23
00027856 00000109 678.96 140.65 448.68 645.79 855.25 401.84 1034.18 426.15 957.06 542.62 845.11 620.44 993.11 640.62
00027857 00000110 683.00 142.45 444.65 649.36 856.78 407.92 1034.08 432.97 956.53 553.55 842.37 621.93 994.10 643.31
00027858 00000111 684.42 144.18 444.85 651.06 858.07 412.34 1035.07 435.90 959.12 558.42 842.36 622.72 997.20 643.18
00027859 00000112 685.92 141.81 445.42 655.14 862.94 412.56 1036.20 436.08 962.02 559.47 849.07 624.88 996.89 645.10
00027860 00000113 689.54 142.98 442.89 658.87 864.76 411.82 1037.22 436.93 960.75 558.23 849.82 628.75 994.67 650.24
00027861 00000114 687.11 140.61 445.85 679.10 864.70 410.65 1038.81 438.62 960.69 557.79 844.94 634.13 996.93 657.74
00027862 00000115 693.24 142.71 439.79 677.81 865.16 407.40 1048.42 440.95 968.17 559.44 840.99 633.21 1001.67 662.49
00027863 00000116 684.30 137.97 446.05 679.84 860.84 409.00 1036.35 434.50 960.52 555.97 842.97 633.30 998.22 654.90
00027864 00000117 679.87 136.36 451.11 672.12 857.46 400.24 1035.09 428.07 956.71 548.32 839.32 626.03 995.38 649.33
00027865 00000118 675.95 132.57 454.34 666.47 853.83 394.52 1032.79 422.91 952.72 537.91 833.33 615.15 992.62 638.74
00027866 00000119 679.75 124.57 457.49 650.44 849.14 393.62 1039.11 417.28 949.14 529.46 839.26 606.63 994.35 626.60
00027867 00000120 681.10 129.21 451.27 632.57 847.91 393.49 1038.23 411.04 954.37 525.14 843.30 598.74 1001.49 613.66
00027868 00000121 682.58 127.03 450.87 635.21 849.38 391.47 1038.74 408.08 954.84 522.15 850.83 602.19 1001.70 616.14
00027869 00000122 682.61 125.08 452.11 637.31 849.85 388.03 1039.77 405.67 955.11 521.96 851.03 601.41 1000.59 616.30
00027870 00000123 685.97 124.71 449.62 634.61 850.99 387.95 1039.75 405.26 954.83 522.45 854.71 603.46 1001.00 618.04
00027871 00000124 684.99 128.09 449.85 632.90 852.21 389.31 1039.99 406.58 957.23 521.56 856.42 603.62 1001.24 617.98
00027872 00000125 684.81 125.67 450.66 634.49 850.93 388.61 1040.16 404.90 956.82 521.70 857.30 605.18 1002.34 618.72
CROP_BBOX: 331 0 1433 1014
