Video ID: 	wtALXV7bLX0
H: 	1080
W: 	1920
FPS: 	25.0

FRAME INDEX X0 Y0 W H [Landmarks (5 Points)]

00008747 00000000 671.05 188.62 409.34 630.72 764.34 427.41 959.06 445.18 842.82 546.96 768.55 652.97 924.03 668.71
00008748 00000001 666.11 183.26 409.26 626.57 758.27 422.09 950.71 438.26 835.93 537.42 763.52 644.52 916.09 658.89
00008749 00000002 654.75 187.83 414.29 604.81 744.36 420.17 942.06 428.95 822.18 530.85 756.31 636.98 913.71 642.90
00008750 DELETE   652.39 173.59 412.10 607.86 742.02 409.89 933.82 423.75 812.38 520.53 749.94 619.79 912.20 631.18
00008751 00000004 648.86 167.17 413.72 603.84 737.24 406.96 929.82 419.72 806.43 514.06 742.49 611.65 908.97 622.06
00008752 00000005 644.36 170.71 414.29 603.48 730.78 409.59 921.16 422.65 798.28 522.29 738.24 614.92 904.65 625.26
00008753 00000006 643.55 173.26 414.37 607.00 727.73 412.36 917.59 426.27 793.41 528.91 734.23 621.04 899.77 632.11
00008754 00000007 642.24 174.71 415.86 607.85 726.30 413.78 917.15 427.60 792.94 530.14 733.75 622.93 900.18 633.99
00008755 00000008 641.99 173.97 416.15 607.36 725.84 413.55 916.71 426.10 792.05 529.53 734.39 622.59 899.96 632.67
00008756 00000009 641.43 173.70 416.63 609.44 724.60 411.96 914.67 423.82 789.77 528.05 733.57 622.98 898.39 632.52
00008757 00000010 640.54 174.70 413.81 614.65 721.85 412.83 907.41 422.71 784.83 529.54 729.63 625.33 891.48 633.35
00008758 00000011 642.61 188.15 402.85 608.86 718.81 414.40 898.60 421.34 782.58 528.01 731.10 626.71 878.07 632.09
00008759 00000012 635.53 193.76 397.48 611.68 709.37 416.21 888.88 424.17 771.88 527.43 719.34 629.79 866.80 636.09
00008760 00000013 619.76 180.97 408.65 621.37 696.67 415.29 875.54 422.15 752.82 529.45 704.00 632.67 857.40 638.39
00008761 DELETE   609.81 179.24 412.23 618.67 680.96 418.50 859.32 419.61 735.15 525.04 693.89 635.67 838.37 636.80
00008762 00000015 608.01 178.74 404.77 616.14 667.54 427.33 837.15 424.32 709.40 522.84 680.65 637.42 818.61 634.52
00008763 DELETE   599.40 173.59 405.00 620.34 653.50 429.10 823.13 424.66 694.67 523.33 668.45 636.62 804.58 632.33
00008764 00000017 585.11 178.46 416.11 616.71 643.26 431.38 813.91 429.73 679.04 524.96 659.21 640.61 793.84 639.46
00008765 00000018 577.99 194.97 406.82 596.36 623.03 434.81 797.99 428.37 663.94 536.29 640.74 642.61 791.50 637.27
00008766 DELETE   573.79 182.72 399.11 610.71 613.45 428.35 780.93 428.68 644.03 538.99 629.22 642.65 767.77 644.01
00008767 DELETE   563.76 186.92 402.39 611.14 600.31 431.67 763.48 430.20 623.03 538.48 617.56 646.47 753.27 646.42
00008768 00000021 549.66 195.32 411.27 614.44 591.66 436.25 747.63 431.66 608.63 539.15 613.26 655.29 736.92 652.18
00008769 DELETE   532.50 196.07 416.82 621.39 581.65 444.31 734.71 438.13 596.03 544.35 606.18 665.86 724.53 660.76
00008770 DELETE   521.96 199.01 416.30 614.88 566.85 450.25 724.61 439.13 584.24 545.22 593.57 671.79 709.29 662.50
00008771 DELETE   514.63 194.25 416.27 617.83 556.08 450.73 716.10 438.74 571.91 546.89 583.01 673.34 700.16 663.03
00008772 00000025 511.39 183.94 413.32 634.79 544.67 445.36 693.82 435.67 556.37 553.60 572.65 670.70 687.91 662.59
00008773 00000026 501.57 187.42 415.84 633.06 535.59 447.55 682.44 437.37 546.95 556.77 566.13 672.51 677.74 664.47
00008774 00000027 499.69 188.65 412.02 630.35 531.52 447.54 677.54 439.32 543.09 558.77 559.66 674.69 666.39 668.70
00008775 00000028 500.98 188.47 409.60 631.64 530.40 447.37 676.33 442.78 539.87 561.50 555.76 674.01 665.08 670.95
00008776 00000029 499.19 188.23 413.94 631.44 532.30 445.78 682.90 443.01 545.12 560.57 555.28 673.99 666.08 672.56
00008777 00000030 507.67 185.05 411.82 628.81 540.08 436.62 692.00 435.87 554.63 550.03 558.58 666.44 667.70 666.91
00008778 DELETE   511.00 193.37 415.47 608.11 555.86 436.23 714.01 427.42 571.10 529.56 573.03 659.46 683.42 652.54
00008779 00000032 522.40 191.49 410.95 600.35 569.30 428.86 727.41 422.21 587.78 519.92 582.75 648.53 691.01 643.69
00008780 00000033 525.81 182.60 412.99 610.52 579.17 425.63 736.37 420.90 597.23 516.74 589.69 645.56 699.22 642.57
00008781 00000034 529.70 186.10 411.23 614.51 579.76 424.15 738.69 423.46 598.62 523.30 590.63 647.87 702.65 648.51
00008782 00000035 529.72 183.15 414.15 621.73 580.18 424.73 742.81 427.13 599.96 527.65 590.24 648.15 708.06 651.46
00008783 00000036 529.30 181.48 415.67 623.64 580.01 425.93 746.19 431.10 603.52 531.47 589.62 644.72 717.07 650.21
00008784 00000037 528.21 182.63 417.25 624.82 581.19 429.65 752.37 433.71 610.61 536.53 594.05 647.68 726.21 652.03
00008785 00000038 533.59 184.20 415.38 626.28 586.76 433.69 758.71 434.58 617.77 537.63 602.34 648.91 736.47 650.48
00008786 00000039 537.23 185.05 414.46 622.45 589.76 432.51 762.30 429.17 620.86 533.62 607.12 645.74 744.02 643.95
00008787 00000040 540.15 187.30 412.68 615.73 590.65 428.36 759.38 424.16 616.53 527.09 606.35 640.66 742.27 638.19
00008788 00000041 535.46 182.14 417.22 615.94 587.86 430.44 750.57 423.10 607.93 521.04 603.55 638.31 732.97 633.10
00008789 00000042 524.69 181.52 420.75 611.06 578.50 432.74 742.61 422.51 602.81 517.55 596.75 638.59 723.26 630.96
00008790 DELETE   517.49 186.56 420.16 606.86 569.75 438.79 730.25 421.85 594.18 519.48 594.24 644.31 718.54 630.74
00008791 00000044 507.74 191.54 419.26 598.87 558.57 441.24 720.50 419.28 583.10 521.22 587.50 647.82 711.04 629.83
00008792 00000045 506.59 188.23 407.66 601.06 539.28 437.91 696.17 420.48 563.14 530.55 565.05 646.00 687.48 632.32
00008793 00000046 500.58 187.11 404.27 605.54 527.04 440.50 680.46 420.90 548.05 534.18 555.56 650.65 675.15 636.00
00008794 00000047 492.86 189.82 411.09 606.39 521.38 444.76 669.13 421.06 538.45 540.78 555.52 655.81 671.52 637.38
00008795 00000048 487.83 189.29 416.46 607.99 517.76 443.25 668.29 419.59 537.93 543.27 555.25 657.37 671.11 638.87
00008796 00000049 493.77 193.98 411.04 604.25 519.73 443.28 669.53 418.37 538.13 542.67 556.48 658.35 673.13 638.84
00008797 00000050 494.52 199.09 410.14 600.70 521.53 443.71 670.78 419.93 539.03 542.79 557.77 658.05 674.48 639.27
00008798 00000051 494.74 204.71 402.21 594.33 521.73 443.69 668.67 423.12 536.96 543.02 553.95 654.89 671.96 638.82
00008799 00000052 491.33 201.14 403.99 598.67 519.71 446.41 664.17 423.28 533.59 542.91 552.41 655.95 669.89 637.87
00008800 00000053 488.44 198.24 405.14 605.01 517.97 447.67 660.91 424.40 529.89 543.67 551.36 657.62 669.68 639.41
00008801 00000054 484.69 197.80 409.51 609.04 517.59 453.43 657.72 426.67 528.54 546.72 554.24 662.82 670.58 641.47
00008802 00000055 487.99 200.82 404.14 606.97 520.99 463.34 659.04 437.05 532.96 550.40 557.07 664.00 673.21 642.74
00008803 00000056 486.59 193.16 407.69 611.49 520.10 468.32 664.79 439.10 541.31 546.45 558.27 662.21 679.55 638.60
00008804 00000057 495.67 195.63 404.09 605.29 527.38 466.51 674.36 437.35 552.06 541.31 560.74 658.35 684.20 635.18
00008805 DELETE   503.99 195.03 404.49 604.67 538.81 459.47 689.64 433.63 567.81 539.45 571.47 654.90 695.45 634.34
00008806 00000059 514.46 188.15 405.92 608.51 554.06 452.78 712.47 430.41 587.21 533.76 584.17 649.08 709.49 630.68
00008807 00000060 520.26 176.30 408.86 618.12 566.42 446.57 728.24 423.73 606.74 528.00 594.67 644.92 722.11 625.83
00008808 00000061 522.67 175.62 419.55 611.22 574.78 441.78 750.77 422.32 616.34 518.84 597.00 640.25 738.02 625.05
00008809 00000062 530.77 176.18 415.31 608.39 582.35 438.37 762.17 420.11 625.13 515.79 601.97 636.90 748.64 622.59
00008810 00000063 538.29 174.06 413.78 611.24 591.53 429.22 772.06 417.54 634.36 515.39 610.18 634.07 757.75 625.08
00008811 00000064 540.98 173.83 409.91 612.11 602.79 422.23 778.20 409.84 657.07 514.72 625.33 633.90 771.44 623.38
00008812 00000065 556.93 174.02 400.88 611.40 619.49 419.94 792.70 414.14 668.82 515.46 633.13 630.60 780.98 626.19
00008813 00000066 566.09 172.56 398.81 610.57 627.31 417.94 802.43 412.40 677.28 513.53 639.36 628.26 788.26 624.31
00008814 00000067 569.87 174.43 397.25 608.99 631.65 416.77 805.92 411.13 680.69 511.60 642.28 625.28 792.93 621.11
00008815 00000068 572.82 183.90 396.55 597.62 634.83 414.52 811.87 410.21 686.20 508.09 647.95 618.87 797.32 615.90
00008816 00000069 573.92 182.38 395.97 600.48 635.23 413.37 812.63 409.18 686.87 508.01 649.20 619.13 799.74 616.22
00008817 00000070 573.59 176.04 393.68 606.74 634.37 416.40 809.38 410.55 685.49 513.03 645.24 624.96 797.48 620.74
00008818 00000071 570.47 177.50 392.95 606.65 629.17 419.24 804.43 411.56 679.80 515.46 641.53 628.83 793.49 623.12
00008819 00000072 569.68 176.95 390.28 610.31 626.35 418.75 798.72 412.18 674.00 516.65 638.33 630.94 786.64 626.25
00008820 00000073 567.69 176.81 391.17 614.94 623.55 417.40 792.97 411.24 667.80 514.17 635.87 631.51 781.25 627.14
00008821 00000074 565.04 178.96 392.15 617.93 619.28 418.89 785.92 409.72 661.11 514.30 636.41 635.23 779.28 628.22
00008822 00000075 562.62 182.50 394.03 612.20 617.27 422.97 784.84 413.17 661.36 517.60 635.67 637.40 777.62 629.90
00008823 00000076 561.71 181.16 396.13 607.36 615.56 424.17 788.55 414.28 662.72 519.07 633.85 634.97 781.75 626.90
00008824 00000077 564.49 176.87 394.22 607.29 617.74 418.74 793.17 409.55 665.58 516.42 634.88 633.25 783.08 625.64
00008825 00000078 566.52 177.69 395.23 604.45 620.91 420.29 794.83 409.80 669.26 515.79 640.04 633.43 786.03 624.90
00008826 00000079 567.36 182.08 395.16 599.94 622.67 420.87 795.35 410.75 671.31 517.52 641.32 634.45 783.54 626.76
00008827 00000080 566.35 192.00 398.44 586.98 624.47 420.53 797.65 413.43 678.45 511.75 648.55 628.83 782.73 623.86
00008828 00000081 566.48 191.99 398.68 585.35 624.47 420.81 797.96 413.80 678.83 513.38 648.84 628.67 783.44 623.76
00008829 00000082 566.00 179.48 396.69 599.38 622.20 421.49 794.37 412.83 672.51 518.38 641.85 633.16 784.66 626.14
00008830 00000083 567.10 178.43 395.96 600.68 622.66 420.54 795.53 412.94 671.17 518.18 639.51 631.30 786.56 624.99
00008831 00000084 566.24 180.02 397.80 600.36 621.13 421.46 795.53 414.34 671.00 520.10 638.30 631.65 787.67 625.57
00008832 00000085 566.85 182.43 397.76 598.79 620.29 422.17 797.19 415.71 671.20 522.31 637.29 632.48 789.08 626.98
00008833 00000086 567.09 179.01 397.59 600.43 620.73 421.09 799.32 414.62 672.69 521.13 637.28 631.07 791.61 625.26
00008834 00000087 567.98 178.27 396.85 600.46 622.90 419.96 800.93 413.44 674.66 519.64 639.65 630.26 793.45 624.52
00008835 00000088 568.13 179.94 397.85 599.09 623.40 421.24 800.41 414.52 675.27 520.72 641.01 630.89 793.34 625.10
00008836 00000089 567.70 181.53 398.59 598.82 624.94 422.66 799.24 415.41 676.22 520.39 643.38 631.36 791.96 625.33
00008837 00000090 566.88 181.83 397.81 600.24 625.80 422.20 796.61 414.86 675.50 519.41 644.24 631.66 788.57 625.75
00008838 00000091 568.26 180.64 395.07 606.97 625.89 420.97 794.08 414.72 671.73 519.46 641.17 631.63 785.17 626.88
00008839 00000092 568.22 180.66 394.28 608.21 625.13 421.37 794.06 415.28 671.32 519.88 639.96 631.56 786.09 626.84
00008840 00000093 568.13 181.32 394.31 606.71 623.87 423.34 795.12 416.91 671.47 521.87 638.56 631.84 787.31 626.84
00008841 00000094 568.52 181.77 393.85 606.50 624.33 423.79 795.72 417.39 672.03 522.16 638.83 631.41 788.69 626.36
00008842 00000095 568.53 192.62 394.04 598.83 627.48 421.86 801.69 416.31 678.05 515.63 643.51 624.78 793.84 620.19
00008843 00000096 568.68 194.89 394.37 599.09 628.31 418.35 801.59 413.59 676.80 513.44 644.34 622.33 793.45 618.43
00008844 00000097 568.25 194.88 394.79 599.47 627.84 418.72 800.91 413.20 676.04 513.18 644.90 622.14 794.47 617.48
00008845 00000098 567.87 194.76 394.56 597.57 627.30 420.31 800.59 414.46 676.46 514.23 645.27 623.03 794.93 618.09
00008846 00000099 564.23 180.93 397.39 607.13 622.87 421.83 795.63 413.42 671.98 520.23 640.68 630.81 792.29 623.83
00008847 00000100 562.52 180.65 396.39 605.77 620.62 422.56 792.46 414.19 669.50 520.23 638.77 630.89 788.74 623.79
00008848 00000101 558.72 181.89 399.45 603.86 616.98 423.06 789.12 414.72 665.95 519.39 635.99 631.38 783.89 624.19
00008849 00000102 557.25 182.36 401.18 604.22 613.72 421.64 784.33 412.86 660.85 518.20 634.49 631.58 780.37 623.85
00008850 00000103 561.96 183.11 394.73 599.88 610.46 415.89 790.82 411.15 656.95 518.47 629.34 631.43 772.18 628.25
00008851 00000104 558.54 186.15 397.23 597.48 606.44 418.16 786.26 411.57 652.10 518.17 626.31 632.47 770.11 627.63
00008852 00000105 557.29 183.50 398.14 599.38 604.84 417.80 783.67 410.60 648.03 516.20 624.42 632.69 767.40 627.43
00008853 00000106 557.15 185.63 397.38 595.55 603.89 416.28 782.57 409.57 646.90 515.44 623.69 631.66 766.82 626.76
00008854 00000107 556.51 184.30 397.77 594.53 602.76 415.26 782.01 408.94 645.68 514.83 621.85 631.13 765.88 626.57
00008855 00000108 554.66 186.12 398.85 592.27 600.99 415.50 780.74 409.74 644.23 516.12 620.11 631.26 764.74 627.14
00008856 00000109 553.84 188.14 398.34 591.48 600.20 416.94 779.70 411.57 643.27 517.37 619.13 631.48 763.35 627.66
00008857 00000110 554.13 187.17 397.56 592.77 600.51 416.52 780.13 410.94 644.07 517.34 620.18 631.80 763.58 627.85
00008858 00000111 556.60 186.44 395.75 593.63 603.31 415.65 783.14 409.98 648.19 517.85 623.02 632.55 765.49 628.52
00008859 00000112 560.63 187.11 394.69 595.30 607.01 416.81 786.99 410.91 654.46 519.79 626.44 633.87 769.21 629.79
00008860 00000113 561.82 190.76 395.98 595.21 609.58 421.03 790.46 415.57 660.41 524.34 629.99 635.20 772.92 631.62
00008861 00000114 562.57 194.82 396.18 593.95 610.00 422.73 790.79 416.86 661.90 526.58 631.00 636.80 772.93 632.95
00008862 00000115 560.84 195.47 396.86 594.44 608.67 422.08 789.83 417.13 660.00 527.69 629.03 636.81 772.65 633.64
00008863 00000116 558.91 192.74 397.67 597.27 607.24 422.91 788.34 417.64 657.81 527.44 627.27 636.96 772.00 633.43
00008864 00000117 556.53 194.02 399.37 597.22 604.70 426.23 784.09 420.29 653.80 529.92 625.56 639.44 769.76 635.32
00008865 00000118 556.34 194.19 399.66 595.56 603.71 428.17 783.40 420.89 652.95 531.30 625.16 639.99 771.28 634.73
00008866 00000119 559.81 195.61 399.09 592.85 606.40 429.07 786.98 421.55 657.01 532.56 628.31 640.30 774.17 634.87
00008867 00000120 567.79 188.53 399.29 602.40 616.99 430.68 796.30 422.51 670.39 531.78 640.11 641.48 781.89 635.78
00008868 00000121 568.83 196.01 400.22 603.11 629.18 433.94 803.79 423.27 686.78 529.62 652.76 640.29 796.87 631.87
00008869 00000122 572.87 196.97 399.75 606.95 637.80 432.49 810.29 423.70 695.93 528.93 659.62 640.21 806.87 633.27
00008870 00000123 574.49 194.11 398.76 604.28 639.97 428.67 813.58 422.24 698.13 525.17 660.27 633.78 808.51 628.33
00008871 00000124 573.71 192.30 400.02 599.86 639.19 425.07 816.02 419.93 697.40 520.83 656.95 629.77 809.69 625.38
00008872 00000125 570.53 191.51 400.20 597.45 635.84 425.72 813.10 421.99 694.56 522.03 652.93 629.71 804.79 626.47
00008873 00000126 568.35 191.05 397.10 597.75 630.03 429.66 806.40 424.18 687.47 524.59 648.51 634.43 796.44 630.26
00008874 00000127 564.88 186.46 395.39 602.19 621.29 430.26 795.28 424.93 671.75 528.97 637.91 638.17 786.15 634.58
00008875 00000128 558.13 186.40 399.38 601.81 615.76 428.02 787.13 424.02 664.09 528.26 633.48 636.16 779.45 633.00
00008876 00000129 559.68 188.47 396.78 596.71 607.82 423.61 790.09 419.37 661.04 528.17 628.32 638.83 771.33 636.08
00008877 00000130 552.36 188.35 406.71 605.71 611.05 430.41 784.40 420.57 664.03 529.77 638.39 642.33 784.55 634.06
00008878 00000131 555.49 201.23 399.81 596.83 611.12 433.28 791.33 421.55 672.84 530.79 641.65 647.00 789.67 637.22
00008879 00000132 550.99 203.58 400.00 606.37 610.98 433.62 792.04 420.64 676.93 530.46 643.62 650.94 793.02 640.29
00008880 00000133 547.44 200.34 397.16 612.79 610.09 434.40 793.33 421.65 680.55 530.70 642.68 652.70 795.24 642.17
00008881 00000134 540.87 202.88 396.92 611.74 607.70 438.57 791.59 427.18 683.63 535.87 639.90 657.93 791.21 648.87
00008882 00000135 533.14 194.97 404.79 622.09 605.01 443.93 794.25 425.42 686.74 537.38 644.32 663.28 796.57 649.25
00008883 00000136 528.66 192.90 405.69 627.52 603.15 448.50 795.69 432.91 689.70 547.82 640.17 670.55 792.37 659.12
00008884 00000137 526.40 186.52 407.61 637.47 603.56 450.48 795.57 438.73 693.36 556.20 638.43 674.30 789.19 666.01
00008885 00000138 527.51 186.89 408.29 640.76 605.55 452.98 798.91 440.85 696.59 559.95 641.74 676.92 792.17 668.35
00008886 00000139 531.81 184.38 411.04 643.21 614.95 453.60 807.60 442.49 704.37 557.89 650.93 673.27 803.65 665.00
00008887 00000140 541.78 195.14 406.36 635.31 627.22 451.21 820.33 443.25 722.00 557.24 659.18 671.94 812.80 664.80
00008888 00000141 554.41 200.79 401.19 623.63 639.40 452.62 829.01 446.16 732.21 560.90 669.14 670.29 824.11 664.94
CROP_BBOX: 324 0 1261 970
