Video ID: 	1vNRsgWECnA
H: 	1080
W: 	1920
FPS: 	25.0

FRAME INDEX X0 Y0 W H [Landmarks (5 Points)]

00004081 00000000 846.97 209.94 408.41 623.58 884.40 446.69 1032.84 477.15 868.51 579.29 890.90 680.11 995.16 704.71
00004082 00000001 845.29 212.56 408.71 617.70 883.03 447.60 1033.84 478.97 869.82 580.34 889.07 677.72 997.63 702.80
00004083 00000002 845.00 213.45 409.89 611.15 881.99 450.34 1035.69 480.99 872.92 581.02 887.63 676.14 999.97 700.74
00004084 00000003 844.74 212.75 411.56 612.49 883.24 451.51 1037.76 483.41 875.96 583.62 888.55 676.89 999.53 702.67
00004085 00000004 847.49 212.28 410.41 612.81 884.53 452.23 1035.98 483.61 875.39 584.94 891.73 677.81 998.49 703.13
00004086 00000005 851.64 212.80 407.94 613.16 888.78 447.86 1038.89 481.91 875.98 584.87 895.28 676.22 1002.32 703.49
00004087 DELETE   864.28 206.85 398.14 617.27 896.04 450.41 1032.74 478.97 887.25 581.12 900.91 667.29 1008.87 691.12
00004088 00000007 866.07 205.59 396.59 620.19 899.47 449.45 1033.59 475.61 889.12 579.88 905.83 667.11 1016.37 688.85
00004089 00000008 869.95 199.92 396.50 627.41 902.99 447.12 1038.86 473.36 892.87 578.11 908.13 666.91 1020.99 689.24
00004090 00000009 872.33 201.48 398.84 625.06 906.28 444.84 1044.26 472.04 896.33 578.00 910.55 666.96 1024.36 690.25
00004091 00000010 875.54 197.08 399.00 624.45 906.03 444.54 1048.38 470.81 898.31 577.66 907.33 668.98 1022.04 691.82
00004092 00000011 876.30 201.38 401.14 615.49 906.40 444.17 1051.17 471.13 902.98 578.47 906.82 668.11 1021.82 691.54
00004093 00000012 878.16 204.34 400.99 612.50 908.17 445.11 1051.40 473.27 904.89 579.16 906.49 669.52 1015.83 694.21
00004094 00000013 879.35 206.66 400.55 612.88 910.33 446.96 1052.67 473.75 906.49 579.90 909.61 672.12 1016.92 695.63
00004095 00000014 879.91 206.40 400.89 614.61 910.81 446.68 1053.53 473.98 906.48 579.87 910.25 671.88 1019.00 695.71
00004096 00000015 880.03 203.50 399.79 618.47 910.77 446.30 1052.79 473.16 905.79 579.63 909.71 672.69 1018.36 696.28
00004097 00000016 879.44 204.81 398.73 617.25 910.55 445.97 1052.95 472.95 905.10 579.49 909.69 672.56 1018.66 696.22
00004098 00000017 878.96 203.28 397.76 619.23 909.62 445.48 1051.45 473.05 903.99 579.19 908.63 672.21 1016.46 696.53
00004099 00000018 878.05 201.65 398.61 620.64 908.47 444.49 1051.56 472.36 902.18 578.17 907.38 670.23 1018.75 694.77
00004100 00000019 877.12 202.06 398.56 617.62 907.43 444.18 1051.25 471.77 901.64 577.14 906.09 668.30 1020.41 692.49
00004101 00000020 875.18 202.29 398.28 615.56 906.07 444.59 1049.90 472.51 900.87 578.10 905.34 665.40 1024.43 689.56
00004102 00000021 872.89 203.01 399.11 620.48 906.95 445.29 1048.66 474.63 897.89 577.30 907.60 663.09 1028.67 687.92
00004103 00000022 871.43 202.33 397.74 623.06 906.63 444.80 1047.12 477.36 895.44 579.56 908.06 661.68 1030.62 688.77
00004104 00000023 871.14 204.43 398.60 619.76 905.94 445.93 1046.81 479.39 895.26 581.30 906.41 661.39 1029.46 689.22
00004105 00000024 872.82 205.82 399.22 613.81 904.85 447.25 1046.85 479.39 896.90 582.75 903.45 665.43 1021.50 692.66
00004106 00000025 875.07 207.39 397.99 610.28 905.53 448.00 1046.48 479.74 899.04 583.42 902.43 668.65 1013.80 696.07
00004107 00000026 874.64 213.12 399.25 603.91 906.46 448.06 1047.53 479.48 899.48 582.08 902.15 668.34 1012.46 695.43
00004108 00000027 875.29 211.60 399.56 603.76 908.65 446.54 1049.94 479.94 902.64 581.15 903.07 665.47 1014.09 694.19
00004109 00000028 877.36 211.56 401.07 604.74 911.73 446.95 1052.62 478.70 905.07 579.30 907.00 664.89 1019.72 692.06
00004110 00000029 879.26 211.45 401.68 607.83 915.50 447.21 1056.41 479.41 907.03 577.87 913.16 662.23 1029.79 689.21
00004111 00000030 879.35 215.49 405.04 608.06 919.57 447.24 1058.49 481.59 908.46 580.67 919.46 662.10 1036.24 690.34
00004112 00000031 880.88 224.68 405.58 602.08 921.54 450.51 1058.62 486.11 908.20 586.55 923.75 664.84 1039.11 693.54
00004113 00000032 881.77 225.26 406.91 600.83 920.76 453.08 1061.67 491.01 910.47 593.36 921.98 667.12 1041.04 697.47
00004114 00000033 883.72 232.52 405.31 593.20 921.42 453.28 1065.15 494.46 911.23 596.69 921.98 668.11 1041.60 700.90
00004115 00000034 886.51 236.41 405.30 588.99 922.19 455.15 1068.66 495.35 915.44 600.12 924.41 671.13 1042.72 702.92
00004116 00000035 887.87 239.46 408.02 585.40 923.14 455.25 1072.34 496.75 918.26 602.84 925.86 672.69 1044.50 705.24
00004117 00000036 889.03 236.67 408.79 590.18 925.87 454.53 1076.16 497.75 922.40 604.52 926.83 673.67 1047.36 707.61
00004118 00000037 884.26 232.90 418.27 608.85 929.28 456.20 1089.43 503.41 923.89 606.31 925.00 679.25 1049.23 717.02
00004119 00000038 887.70 243.45 416.54 603.43 932.15 461.17 1091.68 508.21 929.00 615.54 928.74 686.31 1054.14 723.96
00004120 00000039 887.70 255.79 418.29 593.94 932.65 463.64 1096.62 511.21 932.83 620.81 929.59 690.26 1057.70 728.16
00004121 00000040 888.73 259.28 416.81 591.61 934.73 467.21 1099.94 515.24 936.75 624.64 931.26 691.73 1060.24 730.05
00004122 00000041 890.22 261.57 409.01 588.97 927.00 461.92 1099.36 517.85 936.78 627.45 931.44 689.93 1063.20 735.10
00004123 00000042 889.93 262.22 409.58 586.89 926.30 461.98 1098.86 519.16 935.67 627.61 930.47 691.73 1058.71 738.40
00004124 00000043 888.99 257.51 410.53 591.96 925.70 461.50 1097.62 516.42 933.76 625.06 929.89 693.78 1055.37 738.86
00004125 00000044 888.69 259.18 409.06 591.64 925.30 461.46 1096.52 516.14 932.36 624.03 929.81 693.56 1055.71 738.32
00004126 00000045 887.10 259.49 416.38 592.94 932.19 467.58 1095.19 514.33 934.44 621.20 930.53 698.15 1048.02 735.50
00004127 00000046 884.59 261.00 415.94 588.29 931.26 466.79 1094.36 515.23 933.12 619.42 926.20 698.43 1039.81 737.38
00004128 00000047 884.16 259.86 415.73 587.09 931.17 466.43 1093.12 515.65 932.29 618.11 924.78 696.75 1036.97 736.46
00004129 00000048 884.85 259.66 414.92 589.41 931.89 466.19 1092.13 516.42 930.52 618.88 925.66 696.03 1038.00 736.32
00004130 00000049 884.45 254.75 415.01 595.42 931.66 466.23 1092.85 516.25 930.81 618.34 925.32 695.43 1039.28 735.70
00004131 00000050 884.36 258.22 415.84 593.26 930.97 465.70 1092.80 515.76 930.13 619.79 926.25 695.57 1041.73 735.63
00004132 00000051 884.44 259.57 415.59 592.32 931.10 465.94 1092.77 515.19 930.29 619.38 926.52 695.94 1041.69 735.31
00004133 00000052 885.30 254.76 414.94 596.46 931.68 466.31 1092.12 514.50 930.27 618.00 927.32 696.44 1041.98 735.13
00004134 00000053 886.18 253.62 415.27 598.29 931.49 467.26 1091.76 514.23 929.93 619.95 928.87 698.47 1043.46 736.20
00004135 00000054 886.16 250.46 415.82 601.07 931.24 465.66 1091.19 513.54 928.81 619.64 929.01 697.27 1045.10 735.69
00004136 00000055 885.82 251.24 415.48 597.73 931.03 463.07 1091.86 513.07 927.81 619.16 927.19 693.59 1045.50 733.64
00004137 00000056 884.99 250.83 416.50 596.33 930.26 462.84 1091.68 513.12 927.13 618.94 926.05 692.08 1045.33 732.41
00004138 00000057 885.15 248.48 409.64 593.82 922.79 458.41 1090.71 516.76 926.68 621.36 924.67 687.25 1047.89 735.38
00004139 00000058 885.57 247.49 408.20 593.29 923.27 457.78 1090.41 516.41 925.48 619.87 924.86 686.51 1047.20 734.88
00004140 00000059 884.91 247.50 407.93 591.48 923.41 457.47 1089.61 515.34 925.17 616.59 923.40 684.83 1044.54 732.86
00004141 00000060 883.25 243.66 416.24 596.71 930.22 458.25 1090.69 510.26 925.35 611.52 922.41 685.42 1040.69 727.42
00004142 00000061 885.85 244.82 408.69 593.34 923.56 456.21 1089.17 510.25 925.12 611.56 924.16 684.88 1044.05 730.21
00004143 00000062 885.57 241.51 408.74 594.96 922.99 453.73 1089.59 507.95 925.07 610.08 923.43 683.97 1043.88 729.42
00004144 00000063 886.15 241.39 408.58 594.84 923.34 452.90 1090.08 507.83 925.41 609.47 923.58 683.19 1044.21 729.15
00004145 00000064 885.96 240.37 409.00 597.89 923.14 454.31 1089.35 508.23 923.74 610.74 924.49 685.13 1044.92 730.16
00004146 00000065 883.72 237.92 417.52 603.10 930.82 457.38 1090.44 507.75 924.80 608.81 924.12 684.63 1041.58 725.43
00004147 00000066 883.59 236.70 416.92 604.54 930.29 457.30 1089.54 507.46 924.38 608.97 924.14 685.21 1040.95 725.82
00004148 00000067 884.36 236.75 416.69 604.89 930.19 456.07 1089.65 505.91 923.97 607.80 924.08 685.64 1040.83 726.06
00004149 00000068 886.56 239.52 408.26 603.80 922.69 454.26 1088.87 507.83 921.27 612.41 924.65 687.46 1047.05 731.74
00004150 00000069 885.70 233.48 415.17 609.60 931.87 456.56 1090.23 506.15 924.15 606.63 924.73 685.42 1044.16 725.54
00004151 00000070 885.56 231.18 416.83 610.06 932.16 457.41 1092.99 509.43 925.93 607.01 924.84 684.19 1047.77 726.24
00004152 00000071 885.32 228.78 416.56 611.47 932.45 460.69 1090.34 513.66 925.71 606.47 925.78 684.15 1047.20 726.48
00004153 00000072 888.13 237.79 408.62 602.09 927.17 457.45 1092.93 512.10 926.53 608.93 924.47 686.29 1044.81 731.91
00004154 00000073 887.74 223.65 412.30 613.82 935.56 455.39 1091.70 507.52 928.64 598.90 922.29 683.78 1032.55 726.69
00004155 00000074 890.10 234.61 407.60 599.95 931.02 449.06 1095.88 504.29 925.17 597.32 920.59 685.67 1031.44 732.73
00004156 00000075 891.25 229.35 409.77 604.46 933.35 446.79 1094.41 499.13 923.20 591.57 920.82 685.44 1027.52 730.07
00004157 00000076 890.34 227.71 411.19 604.46 933.17 444.29 1094.06 496.27 922.59 588.62 920.44 683.44 1027.89 727.72
00004158 00000077 889.62 227.11 411.15 603.19 932.12 440.55 1094.33 494.48 922.14 587.13 919.87 680.10 1029.45 725.83
00004159 00000078 890.39 232.49 408.21 593.79 930.06 445.25 1090.12 499.72 918.82 588.13 909.80 673.46 1027.33 719.49
00004160 00000079 890.37 226.53 408.88 599.66 930.25 444.65 1089.79 499.26 917.48 586.75 909.13 672.27 1026.93 718.29
00004161 00000080 890.78 232.31 408.24 593.99 930.46 445.04 1090.70 499.85 918.59 588.27 910.01 672.73 1028.33 718.86
00004162 00000081 889.43 226.77 412.21 603.47 932.17 438.83 1094.17 493.12 921.49 587.11 920.06 678.42 1030.69 724.37
00004163 00000082 890.07 230.06 411.21 600.89 931.36 440.88 1094.73 493.89 922.03 588.47 919.58 680.31 1031.10 725.40
00004164 00000083 889.19 228.38 412.29 603.15 931.07 441.06 1095.68 494.47 922.17 589.29 919.79 680.86 1031.19 726.26
00004165 00000084 889.12 227.33 412.69 605.16 930.18 441.28 1095.01 494.55 921.82 590.74 920.68 681.06 1033.24 726.07
00004166 00000085 890.65 229.51 410.66 604.58 930.55 442.55 1095.49 494.61 922.70 593.42 924.16 682.54 1036.26 726.43
00004167 00000086 890.04 230.90 412.18 605.76 929.73 443.90 1095.28 495.74 922.78 597.22 926.28 682.37 1042.16 725.78
00004168 00000087 889.43 229.91 413.12 607.56 929.37 443.72 1094.82 495.88 922.61 597.87 927.10 681.40 1044.23 724.81
00004169 00000088 889.90 229.19 413.00 607.54 929.83 444.70 1093.89 495.44 921.21 597.60 927.49 681.88 1044.45 724.06
00004170 00000089 888.76 229.97 413.04 605.69 929.02 444.19 1093.23 495.88 921.29 596.36 925.42 680.28 1043.33 723.29
00004171 00000090 890.08 229.12 412.14 606.25 929.30 445.40 1092.00 495.29 919.88 596.12 925.70 682.38 1040.80 724.03
00004172 00000091 889.60 232.25 411.85 605.62 928.11 446.19 1092.28 496.51 920.53 599.77 926.62 684.95 1041.53 727.02
00004173 00000092 891.24 231.15 409.55 609.34 928.58 447.38 1092.53 497.05 919.49 600.05 925.22 687.75 1041.20 729.43
00004174 00000093 890.93 235.25 408.80 606.05 928.02 447.24 1091.82 497.30 919.79 600.15 924.88 687.48 1040.33 729.55
00004175 00000094 890.41 230.20 408.42 611.28 929.17 446.06 1091.65 496.53 918.75 598.52 924.21 686.69 1039.00 728.79
00004176 00000095 890.84 229.99 408.62 612.35 929.72 446.41 1091.70 496.26 918.62 598.30 925.02 687.39 1039.04 728.92
00004177 00000096 891.00 229.64 408.96 612.93 929.72 446.27 1093.16 495.69 919.53 597.61 925.11 687.53 1040.05 728.83
00004178 00000097 891.00 230.84 409.93 611.99 930.32 446.27 1093.76 496.01 919.94 597.47 925.31 687.22 1039.75 728.77
00004179 00000098 892.06 229.40 408.66 612.94 931.30 446.44 1095.20 495.68 921.27 597.17 926.08 687.79 1040.35 729.02
00004180 00000099 891.06 228.54 409.44 609.75 930.32 446.83 1096.15 496.15 922.86 597.43 925.25 686.81 1040.72 728.37
00004181 00000100 890.47 231.97 410.55 604.32 929.06 446.51 1095.40 497.12 922.62 599.53 925.20 684.72 1041.92 727.25
00004182 00000101 890.14 230.13 410.09 606.56 928.94 447.02 1093.58 497.34 921.25 598.87 926.24 683.61 1043.53 725.65
00004183 00000102 888.78 230.54 409.92 606.34 926.97 446.47 1091.75 498.70 920.63 601.43 925.10 681.75 1045.12 725.10
00004184 00000103 887.15 231.44 409.34 602.69 924.68 447.48 1090.06 500.49 919.85 600.38 921.49 680.66 1040.37 725.02
00004185 00000104 885.35 227.17 407.88 604.51 923.27 450.82 1085.38 508.08 918.45 600.54 918.55 676.35 1036.58 723.88
00004186 00000105 880.75 223.18 415.15 608.29 929.32 455.53 1083.98 507.66 919.45 595.33 917.12 676.22 1031.28 718.40
00004187 00000106 883.44 228.77 406.87 601.59 923.88 452.28 1085.56 509.28 918.32 598.18 916.12 679.27 1030.36 727.07
00004188 00000107 882.82 228.62 407.72 602.54 923.74 450.72 1086.50 508.53 917.85 598.73 915.52 679.98 1030.44 728.44
00004189 00000108 880.30 221.58 415.41 613.66 930.70 451.06 1089.33 504.84 920.10 595.68 915.81 678.89 1030.62 722.97
00004190 00000109 890.49 222.52 404.00 607.50 930.30 449.73 1082.41 501.51 923.71 600.77 922.05 673.39 1039.55 715.33
00004191 00000110 890.07 222.49 404.98 609.71 929.96 450.04 1082.28 500.49 922.59 600.65 923.42 674.53 1041.19 715.33
00004192 00000111 890.50 221.55 404.88 607.67 929.17 449.29 1082.25 500.55 923.20 601.12 922.95 673.96 1041.71 715.26
00004193 00000112 885.11 226.91 408.92 609.90 922.42 448.44 1088.50 499.54 916.98 601.27 921.21 684.09 1040.64 726.70
00004194 00000113 885.34 227.36 411.11 609.00 924.87 445.11 1089.11 497.52 916.91 597.04 921.10 682.69 1037.24 726.15
00004195 00000114 886.98 225.49 411.34 608.92 928.06 446.02 1090.24 497.38 917.93 593.05 920.84 684.00 1032.89 727.19
00004196 00000115 888.24 225.30 409.48 605.24 928.28 444.35 1086.66 496.37 916.68 590.00 920.20 681.69 1027.21 725.45
00004197 00000116 890.47 223.85 405.46 600.73 928.85 446.67 1084.53 499.41 914.18 585.38 910.81 673.63 1024.01 717.94
00004198 00000117 890.11 214.90 406.38 605.92 929.33 441.47 1083.91 497.20 911.00 579.65 908.76 666.06 1024.66 712.33
00004199 00000118 889.78 216.45 407.15 599.46 931.69 439.13 1085.32 496.38 914.09 574.87 908.46 658.22 1027.00 705.84
00004200 00000119 890.60 222.23 407.79 592.73 932.91 434.53 1089.56 496.37 919.05 574.32 909.43 652.04 1032.62 703.20
00004201 00000120 895.23 210.68 408.70 607.29 936.52 435.78 1092.52 492.88 922.73 572.99 916.06 653.91 1038.82 701.08
00004202 00000121 897.50 210.89 410.83 606.33 940.58 433.99 1097.39 491.67 926.85 571.94 918.33 652.99 1040.24 700.67
00004203 00000122 898.71 203.94 410.08 611.00 941.65 431.90 1098.58 490.77 927.86 569.19 919.02 650.33 1040.92 698.83
00004204 00000123 898.44 207.23 411.35 604.95 942.51 431.25 1099.30 490.98 927.73 567.66 917.91 649.06 1039.33 698.30
00004205 00000124 898.60 205.81 410.62 606.70 942.08 430.85 1098.35 491.02 926.70 568.02 917.99 649.08 1038.93 698.60
00004206 00000125 898.64 204.80 411.35 610.11 941.94 431.13 1098.45 491.58 926.48 569.50 918.65 650.67 1039.60 700.38
00004207 00000126 899.41 208.14 411.70 615.09 940.73 436.16 1098.60 494.50 926.37 576.17 920.46 658.82 1041.54 706.90
00004208 00000127 899.12 214.43 411.61 611.70 941.64 442.82 1096.97 498.53 926.17 579.62 921.58 662.50 1042.95 708.36
00004209 00000128 899.23 216.39 410.46 611.27 939.68 444.60 1096.26 500.45 926.04 583.49 921.94 664.36 1044.62 710.39
00004210 00000129 898.86 219.09 411.30 607.55 939.32 443.56 1096.74 499.71 926.91 582.76 921.39 663.05 1044.58 709.42
00004211 00000130 898.62 218.28 411.45 608.75 940.96 442.12 1097.21 498.22 927.51 580.04 922.32 660.38 1046.61 706.49
00004212 00000131 901.09 216.67 409.18 614.27 942.58 441.92 1097.55 495.49 927.69 578.84 924.91 661.63 1049.11 705.55
00004213 00000132 900.51 220.47 409.97 612.44 942.90 443.87 1097.99 496.16 928.34 580.88 925.26 665.95 1047.38 708.89
00004214 00000133 898.89 217.49 411.54 617.37 940.77 448.78 1098.24 500.10 928.56 587.18 923.59 673.11 1045.40 715.73
CROP_BBOX: 612 0 1550 992
