Video ID: 	rjF7Oc_3ekg
H: 	2160
W: 	3840
FPS: 	23.976023976023978

FRAME INDEX X0 Y0 W H [Landmarks (5 Points)]

00001071 00000000 1695.68 381.21 749.49 1153.32 1736.68 803.27 1989.38 786.96 1746.21 988.37 1787.54 1231.68 1976.08 1215.38
00001072 00000001 1656.66 396.44 778.96 1128.61 1721.86 784.01 1992.76 769.16 1713.35 985.61 1782.50 1225.27 1994.56 1207.14
00001073 00000002 1639.41 338.47 777.96 1146.19 1703.56 766.79 1988.86 757.56 1706.02 960.73 1748.76 1191.74 1972.46 1183.81
00001074 00000003 1648.92 334.38 734.44 1138.40 1727.01 755.34 1988.70 748.32 1710.13 929.19 1735.66 1183.76 1933.32 1177.63
00001075 00000004 1635.92 315.23 741.29 1165.08 1685.77 781.53 1963.96 747.26 1700.37 935.90 1696.12 1208.48 1893.86 1184.14
00001076 00000005 1620.16 341.71 734.85 1142.84 1668.47 796.93 1927.47 759.81 1681.49 937.92 1677.66 1220.36 1849.06 1193.16
00001077 00000006 1597.38 362.87 740.22 1130.02 1649.74 801.15 1914.30 776.47 1675.04 952.61 1658.42 1224.63 1830.17 1206.79
00001078 00000007 1587.65 398.24 746.79 1106.96 1637.83 800.15 1910.89 780.37 1665.47 968.11 1655.50 1233.13 1840.03 1217.82
00001079 00000008 1586.21 457.96 744.36 1059.59 1633.00 832.99 1910.05 789.85 1667.88 977.21 1672.71 1251.84 1865.53 1215.16
00001080 00000009 1584.01 462.80 750.35 1062.91 1633.06 848.72 1904.09 808.62 1662.19 988.97 1670.62 1254.66 1869.16 1219.52
00001081 00000010 1584.07 475.39 751.20 1066.04 1634.29 853.88 1902.74 814.28 1666.35 1001.00 1674.09 1264.69 1874.15 1230.78
00001082 00000011 1588.51 456.73 758.60 1090.95 1635.52 855.98 1895.41 815.58 1662.09 1007.56 1676.57 1273.27 1869.45 1238.62
00001083 00000012 1597.38 461.18 759.35 1087.76 1640.76 853.42 1897.13 814.58 1664.96 1016.92 1685.47 1276.72 1873.00 1242.99
00001084 00000013 1600.56 443.52 768.17 1093.47 1642.67 852.04 1904.81 810.32 1667.54 1013.16 1685.99 1270.35 1880.28 1234.88
00001085 00000014 1609.45 397.62 765.83 1127.05 1653.65 849.00 1913.70 803.62 1677.99 1005.85 1698.07 1261.27 1897.92 1224.40
00001086 00000015 1620.43 389.51 767.32 1118.11 1671.43 847.96 1932.75 798.84 1695.90 1000.65 1717.52 1253.42 1921.61 1213.23
00001087 00000016 1638.38 406.50 771.54 1086.52 1702.08 818.87 1955.19 787.24 1717.38 999.81 1747.93 1237.66 1939.07 1210.72
00001088 00000017 1651.17 435.15 763.66 1054.82 1711.97 815.05 1964.63 788.48 1728.44 1006.91 1760.28 1233.07 1953.21 1209.25
00001089 00000018 1659.42 435.68 766.07 1064.58 1715.45 820.91 1966.02 789.36 1726.94 1008.90 1774.90 1238.36 1962.47 1207.97
00001090 00000019 1670.82 447.25 759.56 1049.70 1723.44 819.12 1975.56 797.57 1732.23 1010.57 1776.70 1233.65 1966.50 1211.68
00001091 00000020 1671.58 452.89 760.28 1042.97 1726.70 816.83 1977.86 796.96 1736.87 1010.95 1782.77 1232.85 1971.68 1211.84
00001092 00000021 1674.13 441.32 756.27 1054.44 1727.69 817.14 1976.94 794.02 1740.56 1010.13 1789.61 1232.24 1975.79 1208.50
00001093 00000022 1663.32 464.89 781.19 1044.63 1732.51 828.28 1993.85 822.36 1735.50 1035.13 1803.06 1240.41 2001.82 1240.74
00001094 00000023 1664.18 486.11 779.02 1048.81 1733.08 848.56 1989.93 840.18 1741.97 1069.45 1809.86 1266.65 2002.67 1265.61
00001095 00000024 1651.27 472.78 781.47 1078.57 1726.45 848.47 1991.26 853.43 1738.29 1084.88 1790.38 1278.06 1982.95 1286.76
00001096 00000025 1648.65 487.64 771.36 1061.79 1719.73 841.39 1986.43 850.16 1733.66 1076.85 1774.24 1280.39 1963.53 1292.78
00001097 00000026 1638.70 453.09 778.06 1101.08 1710.88 840.55 1978.86 846.82 1725.98 1078.12 1764.89 1287.55 1949.63 1298.23
00001098 00000027 1643.86 420.99 762.25 1134.57 1711.93 844.41 1956.20 832.74 1728.40 1052.13 1770.89 1280.92 1938.94 1267.96
00001099 00000028 1643.40 414.07 759.63 1143.51 1707.29 842.63 1950.18 824.37 1718.62 1043.59 1775.04 1275.57 1946.27 1256.18
00001100 00000029 1636.87 392.06 770.72 1163.17 1704.66 843.21 1952.13 820.33 1719.07 1040.05 1779.36 1270.03 1962.88 1246.63
00001101 00000030 1632.94 409.35 780.95 1146.24 1698.42 843.38 1951.95 826.13 1712.10 1045.75 1771.82 1269.11 1961.71 1250.03
00001102 00000031 1619.36 394.10 787.35 1145.15 1683.68 856.07 1963.93 829.61 1713.68 1064.07 1741.28 1262.62 1974.23 1243.44
00001103 00000032 1632.61 386.99 771.44 1136.44 1686.80 848.21 1963.65 838.34 1709.84 1058.71 1747.68 1258.57 1971.98 1247.47
00001104 00000033 1630.81 417.25 774.34 1108.78 1696.18 848.45 1969.52 843.94 1716.89 1062.84 1757.48 1252.47 1987.74 1244.29
00001105 00000034 1633.24 403.38 773.34 1150.98 1700.18 857.77 1967.12 842.40 1719.00 1063.19 1773.06 1263.88 1996.91 1246.57
00001106 00000035 1630.39 398.40 775.06 1164.47 1696.63 861.04 1963.39 842.75 1713.01 1063.55 1769.86 1268.61 1994.28 1249.07
00001107 00000036 1629.05 419.03 775.43 1143.73 1695.14 860.76 1958.38 841.61 1710.76 1059.68 1769.35 1266.05 1993.43 1245.35
00001108 00000037 1626.13 411.40 781.96 1149.49 1694.43 856.75 1959.86 837.61 1708.67 1053.34 1765.85 1265.23 1987.54 1245.15
00001109 00000038 1632.47 390.35 767.67 1153.59 1701.35 850.73 1960.29 830.39 1712.61 1043.78 1772.45 1252.31 1992.67 1231.56
00001110 00000039 1630.95 373.92 764.01 1134.35 1696.72 836.70 1961.69 813.51 1716.49 1028.36 1767.16 1239.10 1990.16 1217.38
00001111 00000040 1630.57 353.54 765.88 1140.20 1693.62 847.05 1948.79 807.87 1712.05 1013.05 1767.18 1232.33 1991.04 1198.24
00001112 00000041 1629.48 333.85 758.88 1162.71 1686.60 854.31 1927.85 792.40 1700.02 999.78 1762.83 1232.83 1971.74 1181.56
00001113 DELETE   1619.42 365.07 754.03 1130.67 1659.30 887.34 1893.16 793.91 1684.61 1005.15 1754.72 1265.73 1941.24 1188.30
00001114 DELETE   1592.12 380.49 744.50 1120.36 1633.93 910.56 1858.89 815.05 1654.69 1029.41 1733.47 1281.39 1916.04 1201.21
00001115 DELETE   1565.31 414.87 752.30 1114.79 1614.39 929.27 1829.61 852.61 1626.99 1063.70 1702.70 1291.10 1887.38 1224.86
00001116 00000045 1551.15 419.24 747.15 1122.94 1605.89 939.86 1806.72 869.41 1610.16 1089.39 1691.91 1300.55 1876.11 1239.32
00001117 00000046 1544.22 421.49 747.11 1115.59 1602.36 938.88 1804.42 873.25 1609.28 1083.69 1681.43 1300.13 1856.54 1242.90
00001118 00000047 1548.72 410.16 734.46 1115.23 1598.86 921.15 1806.52 867.10 1609.98 1072.06 1668.53 1288.62 1836.42 1241.26
00001119 00000048 1550.33 403.50 736.94 1106.79 1606.91 910.52 1814.97 859.23 1616.19 1055.15 1669.16 1274.32 1832.65 1229.06
00001120 00000049 1556.88 388.08 736.14 1105.46 1611.70 896.36 1822.05 843.41 1622.39 1042.59 1672.92 1268.60 1832.69 1222.60
00001121 00000050 1566.25 375.04 736.92 1127.14 1614.91 887.45 1824.58 832.64 1622.34 1036.12 1680.29 1272.88 1841.68 1225.33
00001122 00000051 1572.28 367.12 726.88 1132.66 1623.17 879.79 1826.49 829.81 1627.02 1028.99 1685.13 1269.00 1837.34 1226.18
00001123 00000052 1584.51 366.17 720.33 1126.63 1625.60 871.33 1826.90 816.64 1627.36 1013.98 1688.08 1263.90 1837.73 1217.62
00001124 00000053 1588.99 360.28 724.66 1118.42 1633.49 847.35 1845.74 797.19 1636.73 998.10 1690.76 1245.52 1845.26 1203.24
00001125 00000054 1597.07 350.97 730.00 1111.34 1640.63 841.65 1865.55 782.22 1650.81 977.43 1696.32 1226.57 1865.25 1177.90
00001126 00000055 1605.49 344.27 745.74 1113.50 1655.12 832.02 1896.39 772.33 1674.24 972.86 1702.44 1217.35 1893.05 1169.45
00001127 00000056 1615.60 341.07 745.39 1119.84 1670.61 821.99 1916.48 766.57 1692.98 971.44 1712.10 1214.77 1910.87 1170.89
00001128 00000057 1621.21 337.01 750.27 1121.22 1680.13 815.87 1932.37 763.33 1712.25 975.72 1720.61 1211.70 1928.95 1170.82
00001129 00000058 1627.74 320.63 744.91 1128.37 1688.32 811.53 1945.37 759.38 1725.56 972.36 1726.78 1206.48 1940.95 1166.47
00001130 00000059 1630.42 323.63 747.06 1119.71 1693.31 799.38 1954.34 747.40 1727.21 958.35 1728.79 1196.03 1945.27 1155.76
00001131 00000060 1626.61 308.87 749.84 1139.05 1682.73 789.15 1949.00 736.08 1707.59 944.45 1717.97 1192.62 1941.98 1151.93
00001132 00000061 1611.94 311.71 758.39 1137.92 1665.14 807.65 1941.46 746.50 1687.75 941.39 1704.21 1193.27 1935.68 1145.17
00001133 00000062 1589.54 305.75 757.65 1138.78 1642.73 813.85 1922.52 756.83 1667.80 948.08 1680.56 1189.79 1919.53 1144.43
00001134 00000063 1571.39 311.57 759.20 1139.69 1628.27 800.74 1899.77 762.52 1645.46 952.04 1661.38 1181.84 1892.07 1151.21
00001135 00000064 1560.90 332.59 761.08 1131.43 1614.34 797.04 1882.11 771.32 1627.51 960.21 1642.36 1185.02 1871.66 1163.32
00001136 00000065 1543.99 337.45 767.25 1126.68 1596.09 794.79 1873.12 776.42 1613.49 968.50 1625.35 1194.89 1851.26 1178.77
00001137 00000066 1520.00 333.03 784.71 1133.36 1568.76 790.58 1871.66 778.28 1590.80 983.21 1612.96 1210.14 1839.41 1203.62
00001138 00000067 1511.44 319.05 796.09 1150.12 1565.77 788.36 1874.24 784.04 1587.58 988.69 1605.25 1211.14 1830.94 1210.68
00001139 00000068 1524.56 321.92 793.52 1157.55 1583.61 800.40 1866.87 796.12 1598.91 991.49 1609.80 1206.00 1837.08 1201.62
00001140 00000069 1532.58 322.79 783.59 1160.40 1587.47 804.73 1863.32 800.89 1602.14 998.54 1615.44 1210.18 1834.27 1205.85
00001141 00000070 1536.03 320.95 789.08 1162.96 1596.63 801.06 1882.03 801.46 1622.40 1002.82 1620.78 1209.90 1846.61 1209.82
00001142 00000071 1551.04 306.46 783.88 1176.88 1614.90 800.99 1901.73 800.21 1638.45 993.27 1630.57 1207.07 1861.14 1206.88
00001143 00000072 1563.64 303.18 788.53 1174.06 1630.50 791.80 1923.85 788.30 1653.48 978.39 1638.94 1191.11 1880.70 1189.96
00001144 00000073 1587.17 298.83 788.11 1174.82 1655.93 787.60 1949.24 773.03 1679.03 966.41 1667.06 1189.64 1907.59 1180.56
00001145 00000074 1613.95 288.22 769.60 1174.54 1679.26 775.53 1982.42 759.11 1711.20 964.38 1695.34 1191.78 1942.75 1181.44
00001146 00000075 1634.72 312.84 772.51 1135.22 1714.17 775.87 2017.05 769.50 1741.32 942.70 1714.72 1180.26 1948.69 1174.23
00001147 DELETE   1653.17 298.27 776.87 1160.09 1708.40 754.98 2023.50 764.31 1730.50 963.28 1729.78 1188.65 1965.45 1199.88
00001148 DELETE   1676.41 307.44 769.63 1152.11 1744.00 769.19 2038.84 776.69 1766.71 959.20 1748.84 1181.35 1975.11 1187.91
00001149 00000078 1687.26 287.37 772.42 1180.55 1754.45 767.82 2060.28 775.80 1784.53 958.97 1756.73 1183.47 1991.94 1191.70
00001150 00000079 1703.52 284.18 772.30 1196.51 1768.18 771.28 2070.90 772.11 1796.28 963.85 1773.85 1189.82 2023.19 1192.15
00001151 00000080 1710.26 298.87 772.70 1178.01 1778.71 773.63 2076.45 777.75 1803.16 967.20 1783.76 1189.27 2029.10 1194.50
00001152 00000081 1713.07 285.99 768.97 1194.88 1787.06 771.32 2085.52 778.66 1810.82 967.92 1791.03 1187.77 2036.94 1195.88
00001153 00000082 1719.60 279.80 772.36 1198.27 1789.27 769.62 2092.95 777.29 1811.54 964.33 1788.76 1188.60 2031.56 1197.49
00001154 00000083 1721.39 281.58 766.46 1204.23 1796.44 765.42 2097.19 780.44 1817.21 961.99 1790.85 1189.48 2026.03 1204.82
00001155 00000084 1721.41 291.46 764.81 1188.03 1800.37 762.14 2094.85 782.66 1816.16 960.43 1788.97 1182.11 2020.00 1201.84
00001156 00000085 1715.06 292.25 770.53 1181.52 1794.24 764.07 2092.08 782.88 1811.36 958.65 1785.66 1179.04 2014.43 1197.23
00001157 00000086 1712.00 283.68 772.88 1188.20 1790.10 765.68 2090.16 781.52 1807.97 961.00 1780.19 1177.35 2015.11 1193.67
00001158 00000087 1706.62 293.00 773.09 1176.79 1782.10 765.84 2082.84 786.61 1798.57 961.96 1772.00 1170.66 2016.06 1190.14
00001159 00000088 1704.68 292.96 777.73 1179.81 1776.79 763.60 2079.67 786.00 1793.18 960.60 1767.92 1169.75 2016.48 1190.25
00001160 00000089 1698.11 297.76 776.50 1178.06 1769.86 767.44 2070.22 791.57 1786.91 966.36 1762.51 1176.20 2006.59 1197.62
00001161 00000090 1684.94 296.26 780.16 1184.46 1756.11 769.16 2060.70 798.00 1778.33 976.18 1750.90 1177.25 1997.77 1201.49
00001162 00000091 1675.48 294.76 783.97 1194.16 1748.09 792.14 2061.49 810.88 1771.43 983.70 1748.71 1189.78 2001.30 1205.00
00001163 00000092 1671.82 299.59 780.16 1190.51 1742.24 796.85 2050.89 812.84 1762.91 984.96 1742.31 1195.03 1990.16 1207.95
00001164 00000093 1667.86 304.16 781.41 1189.98 1735.73 797.32 2033.36 812.08 1753.09 984.22 1738.99 1201.55 1969.65 1213.65
00001165 00000094 1661.97 308.38 777.07 1197.59 1736.13 795.93 2028.55 812.50 1745.19 985.95 1735.27 1207.05 1963.11 1220.73
00001166 00000095 1660.56 307.52 776.54 1196.26 1736.22 796.53 2027.31 815.29 1745.13 988.03 1733.38 1210.32 1958.04 1225.65
00001167 00000096 1661.27 311.82 773.03 1188.32 1734.33 795.87 2021.54 813.80 1745.25 987.15 1735.13 1213.57 1952.92 1228.31
00001168 00000097 1660.53 325.27 775.90 1180.36 1733.18 792.34 2024.20 812.29 1745.34 989.95 1731.91 1216.76 1950.79 1233.06
00001169 00000098 1660.92 320.52 770.14 1186.55 1731.33 791.98 2021.96 813.74 1744.09 991.17 1729.22 1221.43 1942.49 1239.50
00001170 00000099 1661.67 302.17 772.85 1211.24 1729.80 792.40 2019.27 812.59 1743.62 991.98 1732.38 1225.10 1943.97 1242.20
00001171 00000100 1670.52 323.28 761.74 1182.13 1731.87 789.54 2020.05 810.20 1746.46 994.78 1736.14 1224.15 1940.41 1241.63
00001172 00000101 1672.59 314.78 772.31 1190.27 1731.64 789.33 2024.98 804.69 1746.81 990.95 1737.64 1223.67 1951.83 1236.28
00001173 00000102 1677.15 311.52 772.21 1184.30 1735.28 786.39 2030.53 802.98 1754.88 988.82 1740.60 1214.90 1960.97 1228.78
00001174 00000103 1679.08 311.51 759.68 1180.93 1744.02 785.95 2040.08 803.22 1763.06 983.88 1744.22 1212.37 1964.50 1226.82
00001175 00000104 1685.48 318.66 767.87 1172.22 1749.83 775.55 2045.79 798.01 1768.72 982.03 1750.21 1206.67 1970.55 1225.18
00001176 00000105 1691.38 321.33 762.35 1163.18 1756.91 775.88 2049.93 794.80 1777.95 975.83 1756.38 1207.15 1970.86 1223.30
00001177 00000106 1692.20 307.53 760.65 1179.58 1759.07 776.08 2053.91 795.94 1782.34 974.62 1758.09 1204.22 1977.11 1221.28
00001178 00000107 1693.29 315.95 761.61 1166.30 1761.72 776.94 2055.78 794.59 1786.75 970.94 1763.00 1202.58 1974.48 1217.94
00001179 00000108 1695.63 307.22 765.71 1169.90 1763.29 774.86 2059.82 791.00 1785.34 967.06 1760.66 1197.36 1983.80 1211.92
00001180 00000109 1695.19 299.00 763.88 1172.54 1765.16 778.26 2065.58 790.43 1790.93 968.58 1765.14 1196.33 1994.75 1207.93
00001181 00000110 1693.74 294.96 768.67 1175.79 1763.16 777.19 2067.51 790.67 1789.95 971.07 1761.61 1190.03 2001.96 1202.61
00001182 00000111 1690.84 299.35 768.85 1165.36 1763.39 776.41 2066.93 787.86 1790.12 967.53 1761.29 1185.96 2003.60 1197.13
00001183 00000112 1691.94 312.55 769.00 1147.50 1764.90 770.48 2067.54 786.80 1790.18 965.89 1759.33 1177.75 2008.05 1192.24
00001184 00000113 1691.87 302.86 771.51 1153.97 1765.93 774.01 2068.26 788.12 1791.57 969.69 1762.76 1173.96 2016.26 1186.81
00001185 00000114 1691.07 302.81 773.84 1154.76 1768.02 778.63 2069.96 791.29 1795.44 971.14 1764.78 1174.70 2014.15 1186.65
00001186 00000115 1692.87 310.24 779.76 1146.01 1767.55 778.87 2068.75 789.65 1793.46 968.94 1761.55 1174.20 2013.75 1184.63
00001187 00000116 1695.12 318.59 779.54 1137.66 1767.39 777.13 2067.27 789.53 1792.16 969.23 1760.47 1174.21 2012.67 1185.69
00001188 00000117 1694.59 312.66 776.92 1143.68 1767.43 778.35 2067.08 789.73 1792.39 968.65 1762.28 1176.67 2010.93 1187.39
00001189 00000118 1694.52 304.90 775.13 1154.20 1767.44 778.05 2068.34 789.73 1792.76 969.74 1763.13 1177.75 2011.05 1188.67
00001190 00000119 1695.79 306.62 772.14 1152.11 1770.67 778.10 2070.81 791.61 1794.65 969.54 1763.65 1178.22 2008.08 1191.07
00001191 00000120 1698.14 320.37 774.80 1135.79 1771.38 776.54 2070.54 790.59 1795.10 968.76 1763.59 1178.64 2005.74 1191.80
00001192 00000121 1699.29 326.69 782.54 1127.13 1773.44 776.24 2070.71 789.79 1795.54 970.20 1766.31 1176.97 2008.10 1189.93
00001193 00000122 1701.66 328.43 784.21 1126.88 1771.50 774.14 2070.52 784.50 1795.01 970.23 1768.17 1181.66 2009.72 1191.97
00001194 00000123 1702.55 316.30 780.56 1140.47 1772.22 775.33 2071.08 782.70 1797.89 971.99 1770.49 1187.56 2007.86 1196.21
00001195 00000124 1702.66 304.39 777.11 1149.88 1769.78 793.73 2074.10 793.52 1800.70 971.48 1774.12 1190.06 2014.98 1192.15
00001196 00000125 1703.50 311.24 782.20 1140.84 1774.10 797.88 2077.00 792.00 1802.99 963.25 1774.79 1187.12 2017.26 1184.65
00001197 00000126 1705.26 304.66 780.68 1147.75 1775.49 786.29 2079.77 785.76 1804.43 961.86 1775.90 1182.10 2018.84 1184.21
00001198 00000127 1706.61 307.64 777.11 1142.48 1780.31 783.23 2074.62 780.73 1802.25 957.80 1778.79 1178.86 2016.30 1179.80
00001199 00000128 1708.83 293.95 780.30 1156.82 1782.83 777.13 2081.53 779.06 1804.49 955.52 1780.40 1173.26 2021.14 1177.85
00001200 00000129 1709.35 308.75 777.50 1141.31 1782.73 771.28 2079.73 774.11 1799.94 949.72 1778.91 1170.12 2018.97 1174.87
00001201 00000130 1707.50 301.31 775.53 1148.38 1783.87 768.83 2083.68 773.55 1805.42 950.03 1779.42 1168.75 2022.64 1175.22
00001202 00000131 1709.09 311.59 775.91 1135.30 1785.95 768.30 2082.47 773.95 1804.53 947.34 1779.76 1167.44 2020.53 1174.60
00001203 00000132 1710.61 312.79 777.97 1134.75 1785.62 767.94 2082.23 772.71 1804.89 948.45 1780.61 1167.65 2022.58 1174.10
00001204 00000133 1710.68 299.75 775.15 1149.79 1786.74 768.05 2085.01 772.94 1808.32 953.44 1783.86 1167.59 2026.79 1174.48
00001205 00000134 1712.70 289.07 774.11 1158.40 1787.37 767.48 2087.30 770.14 1809.72 953.28 1784.88 1169.30 2029.25 1174.50
00001206 00000135 1712.30 286.40 780.35 1163.80 1786.42 766.54 2087.62 768.39 1808.84 949.46 1785.56 1168.44 2028.21 1172.95
00001207 00000136 1711.95 282.14 779.70 1170.05 1785.74 765.53 2090.60 767.43 1810.71 950.19 1784.38 1169.78 2027.54 1174.64
00001208 00000137 1713.30 277.59 780.26 1174.32 1785.84 766.19 2091.92 767.14 1811.88 951.61 1784.93 1171.44 2028.17 1175.67
00001209 00000138 1712.99 276.95 780.95 1175.59 1785.54 766.29 2092.10 766.95 1811.99 951.60 1784.79 1172.51 2028.78 1176.53
00001210 00000139 1712.90 278.68 781.53 1172.33 1785.34 767.96 2090.23 767.42 1811.20 950.68 1784.99 1173.55 2026.10 1176.49
00001211 00000140 1712.09 284.86 781.32 1164.43 1786.53 769.75 2089.25 769.51 1812.07 949.42 1785.36 1172.77 2023.84 1175.93
00001212 00000141 1711.83 288.04 781.26 1162.32 1787.36 769.70 2089.05 771.18 1813.51 950.62 1785.72 1171.89 2027.60 1176.43
00001213 00000142 1711.72 291.13 780.77 1161.32 1787.51 769.26 2088.55 773.00 1813.17 952.43 1786.13 1171.61 2029.12 1177.76
00001214 00000143 1711.77 292.59 780.64 1160.11 1785.27 770.60 2088.77 773.79 1813.86 955.18 1784.09 1173.37 2028.19 1179.12
00001215 00000144 1711.57 292.46 781.50 1159.61 1787.59 769.18 2093.34 776.03 1817.37 956.57 1783.83 1171.62 2027.87 1180.51
00001216 00000145 1712.02 302.76 777.13 1146.85 1789.86 770.35 2091.40 777.56 1815.94 956.52 1784.51 1170.81 2025.61 1179.81
00001217 00000146 1711.41 309.02 777.24 1139.81 1790.00 771.19 2089.76 778.22 1814.87 955.56 1784.41 1169.94 2024.49 1178.67
00001218 00000147 1710.96 298.46 777.95 1152.35 1788.76 769.90 2092.04 777.35 1816.69 956.32 1784.50 1170.43 2024.59 1179.64
00001219 00000148 1711.64 291.40 775.78 1160.79 1788.11 770.29 2092.89 776.10 1818.81 956.51 1785.31 1173.59 2023.64 1181.59
00001220 00000149 1712.84 289.33 779.33 1162.45 1787.36 772.44 2090.99 773.92 1818.12 957.21 1786.89 1177.20 2023.11 1182.05
00001221 00000150 1711.61 301.80 777.83 1147.06 1786.84 773.11 2087.67 776.62 1817.13 959.34 1785.05 1175.99 2022.72 1182.22
00001222 00000151 1711.22 303.21 779.14 1145.65 1785.86 773.13 2086.42 776.48 1815.29 959.64 1784.47 1176.18 2022.59 1182.11
00001223 00000152 1711.27 297.98 779.50 1151.95 1786.44 772.90 2087.89 776.56 1817.07 960.59 1784.98 1176.41 2023.46 1182.75
00001224 00000153 1712.31 297.59 778.27 1152.55 1785.72 773.37 2088.22 776.38 1817.00 962.22 1784.93 1178.02 2023.80 1183.75
00001225 00000154 1712.82 299.89 778.15 1151.23 1785.78 776.24 2087.15 777.36 1815.05 961.22 1785.22 1179.83 2022.85 1183.93
00001226 00000155 1712.74 299.04 777.70 1152.18 1787.66 793.73 2092.29 787.32 1818.81 958.27 1787.90 1184.23 2025.43 1181.93
00001227 00000156 1711.65 295.26 773.42 1156.60 1785.84 793.27 2091.63 786.48 1818.45 960.91 1787.36 1185.59 2026.40 1182.79
00001228 00000157 1712.87 293.69 770.78 1159.37 1786.75 781.03 2090.96 782.61 1818.56 961.48 1786.97 1180.98 2026.15 1185.15
00001229 00000158 1712.22 286.45 771.18 1168.59 1786.72 781.65 2090.02 780.82 1820.57 964.12 1787.42 1182.57 2027.95 1185.13
00001230 00000159 1712.13 290.33 770.59 1165.34 1787.80 779.63 2087.74 781.82 1817.02 962.63 1787.33 1181.61 2024.46 1186.58
00001231 00000160 1711.21 293.20 772.64 1162.40 1787.64 777.79 2088.14 780.84 1816.34 961.57 1786.46 1180.53 2024.34 1186.27
00001232 00000161 1713.01 295.59 776.10 1160.18 1788.93 775.32 2089.49 778.16 1816.57 960.58 1787.84 1180.12 2026.26 1185.59
00001233 00000162 1713.00 302.35 778.75 1152.19 1789.18 774.53 2087.57 777.97 1813.89 958.22 1787.45 1177.64 2026.80 1183.30
00001234 00000163 1714.24 307.18 781.30 1145.98 1789.20 775.45 2086.85 777.33 1813.39 957.27 1787.82 1178.43 2024.34 1182.80
00001235 00000164 1714.54 306.86 781.89 1146.06 1789.87 776.96 2088.25 777.49 1817.69 958.85 1788.60 1179.87 2023.61 1183.49
00001236 00000165 1715.13 305.67 781.97 1145.90 1789.94 776.42 2089.52 777.45 1819.08 959.74 1788.37 1179.95 2023.61 1184.09
00001237 00000166 1714.68 304.29 784.82 1148.26 1790.44 775.00 2090.43 777.67 1819.70 960.07 1788.29 1178.08 2024.42 1183.55
00001238 00000167 1714.05 294.25 785.85 1160.82 1790.01 774.33 2094.55 777.30 1823.53 961.87 1789.18 1179.06 2027.12 1184.95
00001239 00000168 1714.97 301.04 784.15 1152.81 1791.23 773.77 2094.23 778.50 1824.10 962.12 1789.49 1178.74 2026.38 1185.95
00001240 00000169 1716.53 299.87 778.85 1155.85 1791.50 774.00 2095.56 775.61 1824.71 960.01 1790.96 1181.72 2027.41 1186.34
00001241 00000170 1717.28 301.21 776.80 1154.53 1791.34 775.27 2094.17 776.87 1821.32 960.91 1791.28 1182.05 2029.26 1186.41
00001242 00000171 1717.09 303.01 780.59 1154.92 1791.50 778.76 2092.63 779.17 1820.71 962.25 1792.44 1183.69 2029.51 1187.20
00001243 00000172 1717.31 305.95 778.00 1150.03 1791.47 781.78 2090.03 779.89 1819.77 963.06 1794.41 1186.59 2028.16 1188.07
00001244 00000173 1717.68 313.22 778.76 1142.59 1790.82 782.13 2087.86 779.41 1817.92 962.91 1793.52 1188.10 2026.09 1188.83
00001245 00000174 1717.86 314.63 778.44 1139.95 1790.85 782.76 2088.46 779.47 1818.57 963.00 1793.45 1188.52 2026.54 1188.83
00001246 00000175 1717.76 305.19 777.94 1150.78 1790.46 782.77 2088.80 779.75 1820.46 964.44 1793.34 1188.01 2027.53 1188.75
00001247 00000176 1717.48 296.41 779.11 1162.21 1788.89 782.47 2090.00 779.40 1820.29 965.89 1792.96 1188.71 2029.73 1189.42
00001248 00000177 1717.52 290.52 778.53 1169.05 1788.72 782.86 2091.11 779.95 1822.62 968.25 1792.77 1189.85 2029.11 1190.96
00001249 00000178 1717.99 289.31 780.59 1170.24 1787.91 782.24 2091.46 779.09 1821.30 967.68 1791.18 1190.83 2026.47 1191.89
00001250 00000179 1718.68 286.06 780.27 1174.69 1787.46 782.01 2090.53 778.04 1820.52 968.09 1791.75 1192.06 2026.22 1192.42
00001251 00000180 1718.21 284.93 779.26 1175.28 1788.03 782.41 2091.06 778.42 1822.34 968.10 1792.40 1191.81 2026.72 1192.12
00001252 00000181 1718.86 298.00 777.88 1159.61 1789.74 782.96 2089.66 779.53 1820.88 965.97 1791.82 1189.90 2026.59 1190.48
00001253 00000182 1720.16 318.36 778.50 1136.49 1791.60 783.61 2088.87 781.10 1818.41 963.08 1791.27 1189.37 2024.87 1190.44
00001254 00000183 1720.64 324.40 779.43 1129.97 1791.99 782.32 2089.56 780.16 1817.91 962.85 1791.20 1188.80 2024.65 1190.01
00001255 00000184 1721.14 321.46 778.25 1133.07 1793.08 783.02 2089.54 780.65 1819.66 962.78 1791.78 1189.13 2023.78 1190.34
00001256 00000185 1720.43 315.01 779.23 1140.29 1793.90 782.99 2090.31 780.92 1821.52 961.88 1792.33 1188.07 2025.24 1189.63
00001257 00000186 1719.88 309.46 782.04 1147.69 1792.68 781.38 2090.70 779.86 1821.91 962.43 1792.16 1187.97 2024.10 1189.94
00001258 00000187 1721.47 307.64 783.39 1150.59 1792.06 781.26 2092.25 778.09 1823.07 961.44 1791.87 1191.58 2022.91 1192.39
00001259 00000188 1721.88 305.92 780.64 1152.33 1792.54 781.98 2093.63 778.72 1823.79 961.59 1792.92 1193.04 2022.15 1193.85
00001260 00000189 1721.41 304.94 781.40 1153.67 1792.44 781.87 2094.65 778.94 1825.14 962.33 1792.76 1193.22 2022.40 1194.36
00001261 00000190 1721.81 307.33 781.69 1150.47 1792.99 781.77 2094.18 779.13 1824.82 961.61 1792.68 1192.90 2021.34 1194.30
00001262 00000191 1721.74 306.09 782.45 1151.96 1792.70 781.64 2094.33 778.83 1824.85 961.63 1792.11 1192.53 2022.23 1193.79
00001263 00000192 1720.86 301.61 782.47 1157.39 1791.90 781.84 2094.66 778.61 1824.52 962.50 1792.46 1192.65 2023.46 1193.56
00001264 00000193 1720.02 308.52 779.45 1149.23 1791.84 783.59 2091.27 780.54 1821.72 962.90 1792.50 1191.60 2023.64 1192.34
00001265 00000194 1718.72 304.51 778.86 1155.55 1789.74 784.41 2091.01 782.50 1822.29 966.75 1792.35 1194.27 2024.50 1195.91
00001266 00000195 1718.70 299.84 780.13 1162.15 1788.51 783.95 2091.34 781.18 1820.89 967.86 1791.46 1195.26 2025.11 1196.30
00001267 00000196 1718.43 317.65 781.04 1143.57 1788.95 790.24 2095.81 787.42 1818.15 966.02 1789.90 1195.73 2023.95 1196.49
00001268 00000197 1715.01 306.42 781.42 1156.34 1782.95 807.37 2087.43 795.65 1815.96 970.37 1790.13 1202.47 2025.48 1195.34
00001269 00000198 1713.96 310.73 784.55 1155.31 1782.83 807.07 2086.56 799.08 1815.32 973.07 1788.46 1205.55 2021.31 1201.72
00001270 00000199 1711.46 302.95 786.75 1163.84 1781.77 797.06 2085.75 792.01 1816.43 973.51 1788.33 1201.42 2020.51 1200.27
00001271 00000200 1712.28 290.94 775.29 1174.28 1781.03 792.10 2077.99 787.56 1813.45 973.03 1789.24 1195.18 2020.55 1194.21
00001272 00000201 1714.45 284.46 777.66 1172.95 1785.19 778.37 2087.09 777.94 1815.56 961.82 1788.36 1181.67 2026.78 1184.33
00001273 00000202 1715.91 291.97 774.47 1155.76 1787.65 775.05 2083.37 772.39 1810.08 953.86 1790.09 1171.30 2030.63 1171.90
00001274 00000203 1718.17 306.74 779.87 1136.67 1792.02 772.18 2086.39 766.35 1813.58 947.54 1791.48 1169.68 2032.96 1168.16
00001275 00000204 1718.98 304.70 778.34 1142.28 1792.57 772.83 2089.08 768.71 1815.89 949.99 1792.23 1172.11 2031.53 1171.96
00001276 00000205 1718.31 315.33 782.78 1132.67 1792.81 773.41 2089.12 772.23 1813.97 951.98 1790.76 1174.43 2029.15 1176.33
00001277 00000206 1717.18 302.89 781.37 1148.21 1793.51 769.50 2092.70 773.08 1817.51 954.60 1791.36 1172.87 2030.73 1178.86
00001278 00000207 1714.60 285.21 779.37 1170.48 1791.86 769.82 2096.16 769.52 1821.31 955.59 1793.38 1176.20 2035.52 1179.29
00001279 00000208 1719.33 302.61 781.10 1147.53 1796.60 772.26 2095.52 770.80 1820.74 952.71 1796.07 1174.97 2036.21 1177.20
00001280 00000209 1722.83 308.08 781.51 1141.35 1797.68 773.07 2095.21 769.75 1820.43 949.40 1796.35 1173.76 2034.12 1174.43
00001281 00000210 1721.94 297.81 780.30 1152.57 1797.79 770.57 2099.08 768.85 1824.41 950.37 1796.75 1173.04 2035.74 1175.34
00001282 00000211 1721.69 298.93 780.25 1151.75 1797.66 769.92 2099.77 768.91 1825.66 950.62 1796.09 1173.72 2035.13 1176.65
00001283 00000212 1719.83 297.30 778.54 1154.95 1798.12 769.79 2100.09 770.27 1827.11 951.11 1796.32 1173.48 2034.63 1177.56
00001284 00000213 1719.71 288.64 776.16 1164.42 1797.17 769.25 2100.67 769.56 1826.55 954.44 1798.15 1176.88 2036.01 1180.56
00001285 00000214 1718.80 291.62 776.59 1161.19 1797.81 770.02 2099.85 772.33 1827.64 956.04 1798.44 1176.88 2033.86 1182.21
00001286 00000215 1719.99 291.40 778.79 1162.52 1798.68 771.79 2102.30 773.03 1829.16 955.04 1799.52 1177.75 2034.42 1182.37
00001287 00000216 1720.87 297.32 779.22 1157.32 1799.24 774.12 2101.62 773.89 1828.69 954.78 1799.61 1178.69 2033.32 1182.18
00001288 00000217 1720.81 305.61 779.31 1147.37 1798.74 774.50 2099.72 774.01 1827.74 954.59 1798.27 1177.95 2031.97 1181.13
00001289 00000218 1720.69 300.66 780.56 1152.35 1797.51 773.56 2100.64 772.54 1827.73 953.73 1797.32 1178.46 2031.74 1181.27
00001290 00000219 1720.95 307.42 781.11 1143.46 1797.98 773.44 2097.98 772.65 1825.94 953.10 1797.07 1176.87 2030.17 1179.75
00001291 00000220 1720.12 300.61 782.17 1151.08 1797.57 772.34 2098.36 772.26 1826.62 954.93 1797.06 1175.45 2032.05 1179.02
00001292 00000221 1719.94 302.56 782.11 1149.06 1797.32 771.99 2098.19 771.51 1825.86 953.63 1796.08 1175.61 2031.64 1178.84
00001293 00000222 1719.11 302.63 784.50 1149.86 1795.99 772.57 2097.23 771.39 1824.41 953.67 1795.04 1176.41 2031.24 1178.99
00001294 00000223 1718.58 300.57 783.65 1149.78 1795.27 772.81 2097.02 771.77 1823.72 953.29 1794.50 1175.80 2031.24 1178.52
00001295 00000224 1717.34 297.29 783.70 1152.47 1793.92 772.89 2096.10 772.76 1820.55 955.00 1794.42 1175.59 2034.14 1178.77
00001296 00000225 1717.12 288.55 782.29 1162.93 1792.69 772.85 2097.29 770.19 1821.69 956.40 1795.42 1177.66 2035.66 1178.96
00001297 00000226 1717.38 288.69 782.14 1162.34 1793.11 773.04 2097.44 770.07 1822.40 955.82 1795.49 1177.68 2034.12 1178.86
00001298 00000227 1717.55 294.04 782.01 1157.67 1793.60 773.32 2097.93 771.06 1822.51 955.30 1795.03 1177.54 2035.03 1179.16
00001299 00000228 1717.92 297.96 782.46 1154.41 1795.14 772.68 2098.77 773.00 1823.47 954.82 1794.54 1175.69 2033.42 1179.50
00001300 00000229 1718.32 301.29 780.08 1149.94 1796.40 770.94 2098.35 772.33 1825.91 954.40 1794.77 1174.65 2032.24 1179.22
00001301 00000230 1718.50 298.08 780.70 1155.54 1797.45 769.91 2100.13 771.53 1827.31 952.58 1796.24 1174.09 2033.86 1178.83
00001302 00000231 1718.58 302.66 779.28 1150.26 1798.04 770.99 2099.36 773.14 1826.94 953.76 1797.11 1174.06 2034.37 1179.09
00001303 00000232 1718.89 300.91 778.55 1152.01 1797.71 770.54 2099.50 772.96 1826.75 954.57 1796.56 1174.43 2034.64 1179.68
00001304 00000233 1719.00 299.75 780.11 1153.33 1797.88 770.63 2099.84 772.46 1827.95 954.42 1797.10 1174.58 2034.81 1179.52
00001305 00000234 1719.27 301.56 780.83 1150.88 1797.40 770.38 2098.80 772.25 1826.11 954.04 1796.48 1174.11 2032.62 1179.06
00001306 00000235 1718.28 300.67 782.70 1150.68 1795.63 770.27 2098.01 771.69 1824.79 954.02 1794.72 1174.34 2032.81 1178.99
00001307 00000236 1718.13 297.39 783.30 1155.00 1795.33 770.35 2098.29 772.27 1825.18 955.78 1795.02 1174.39 2034.14 1179.43
00001308 00000237 1718.78 302.96 782.97 1149.56 1796.04 770.27 2097.67 772.75 1824.08 955.26 1795.11 1173.92 2035.67 1179.20
00001309 00000238 1718.85 306.39 783.14 1146.09 1797.42 771.44 2098.19 773.82 1825.51 955.48 1796.28 1174.19 2036.00 1179.34
00001310 00000239 1719.31 308.77 781.71 1143.17 1798.20 772.40 2097.99 775.23 1825.94 956.00 1796.66 1174.60 2035.34 1180.02
00001311 00000240 1718.93 315.49 781.65 1135.16 1798.43 772.89 2096.61 776.17 1825.30 955.51 1796.52 1173.95 2034.63 1179.58
00001312 00000241 1718.41 313.06 781.23 1138.22 1798.06 772.68 2096.62 776.13 1824.81 956.26 1796.56 1173.71 2036.38 1179.48
00001313 00000242 1718.35 314.08 781.63 1138.42 1798.32 773.18 2096.89 776.77 1824.32 955.17 1796.14 1174.38 2035.24 1180.18
00001314 00000243 1718.81 313.07 781.98 1139.08 1798.25 773.75 2095.47 776.41 1824.24 955.25 1796.71 1175.72 2034.26 1180.71
00001315 00000244 1717.97 300.05 782.94 1153.64 1796.41 772.43 2096.60 775.61 1826.07 957.82 1796.47 1177.16 2035.10 1182.71
00001316 00000245 1717.70 298.61 783.90 1155.17 1796.15 772.90 2095.60 775.78 1825.12 957.90 1796.88 1177.61 2034.95 1182.90
00001317 00000246 1718.45 309.98 781.42 1142.58 1796.25 776.61 2092.63 776.40 1821.43 956.10 1796.69 1178.81 2033.56 1181.58
00001318 00000247 1718.33 309.79 778.32 1144.45 1796.09 785.59 2100.57 782.10 1827.12 954.12 1796.82 1181.42 2037.80 1181.28
00001319 00000248 1717.63 297.37 780.26 1157.87 1794.80 781.95 2100.12 779.00 1826.43 955.39 1798.03 1181.27 2039.48 1181.56
00001320 00000249 1717.07 301.53 779.12 1151.54 1792.34 780.19 2095.57 776.18 1822.81 953.89 1795.25 1180.29 2035.54 1180.03
00001321 00000250 1718.19 298.68 779.50 1155.35 1795.09 780.82 2093.06 777.73 1822.02 957.71 1798.49 1180.30 2034.63 1181.01
00001322 00000251 1718.38 297.53 780.06 1156.08 1795.39 778.33 2095.21 774.63 1823.92 956.17 1798.40 1179.99 2035.86 1180.33
00001323 00000252 1719.75 296.89 778.94 1156.39 1798.02 775.74 2098.70 773.16 1826.81 954.71 1800.45 1178.94 2037.59 1180.15
00001324 00000253 1719.12 295.48 776.72 1154.66 1796.85 773.92 2098.54 770.89 1828.94 956.08 1800.66 1179.27 2037.60 1180.05
00001325 00000254 1720.30 290.33 782.69 1160.77 1797.71 771.25 2101.87 768.85 1831.13 955.75 1800.72 1178.32 2042.10 1179.79
00001326 00000255 1721.05 294.51 781.53 1155.20 1798.92 770.49 2101.18 768.75 1830.46 954.84 1801.18 1176.61 2042.02 1178.53
00001327 00000256 1722.48 295.42 782.83 1155.46 1800.82 770.52 2102.27 769.01 1831.98 954.48 1802.74 1176.12 2042.92 1178.35
00001328 00000257 1722.82 298.90 781.94 1151.96 1801.23 770.40 2101.28 770.03 1830.24 954.70 1801.15 1174.87 2040.77 1178.05
00001329 00000258 1722.75 298.90 781.40 1151.66 1800.58 770.98 2100.93 769.94 1828.97 954.93 1800.39 1175.89 2040.19 1178.46
00001330 00000259 1719.05 293.07 779.95 1157.99 1798.09 770.96 2101.65 770.32 1829.96 955.91 1799.99 1177.47 2038.79 1180.32
00001331 00000260 1719.04 306.43 779.74 1145.74 1798.90 772.68 2099.13 771.89 1827.17 952.96 1799.61 1177.82 2036.91 1180.32
00001332 00000261 1719.41 319.26 780.46 1132.12 1797.56 773.69 2097.53 775.37 1823.84 955.19 1794.83 1176.50 2031.90 1180.84
00001333 00000262 1719.35 304.10 777.97 1148.76 1795.88 775.21 2093.09 776.46 1822.73 958.98 1796.26 1180.97 2030.05 1185.07
00001334 00000263 1715.63 287.65 780.59 1168.08 1790.37 775.21 2093.91 774.36 1825.54 962.85 1795.78 1183.10 2030.48 1185.73
00001335 00000264 1715.85 286.45 782.69 1170.62 1790.17 772.13 2094.63 774.26 1823.42 962.45 1793.86 1183.21 2029.64 1188.16
00001336 00000265 1714.32 304.42 782.79 1150.06 1788.46 773.99 2089.80 776.17 1818.56 959.94 1789.73 1181.95 2024.03 1186.60
00001337 00000266 1710.56 307.35 778.06 1146.48 1787.14 774.50 2087.42 777.16 1817.83 959.94 1787.20 1180.33 2022.01 1185.33
00001338 00000267 1711.95 296.99 781.47 1159.69 1785.91 776.16 2087.82 776.22 1818.96 964.91 1790.76 1184.50 2025.45 1187.47
00001339 00000268 1711.30 297.43 782.90 1156.72 1784.93 774.39 2088.35 776.11 1817.17 963.19 1787.17 1181.62 2024.66 1186.11
00001340 00000269 1709.20 307.17 780.76 1146.81 1781.92 775.31 2084.43 776.63 1813.43 962.75 1784.64 1184.00 2021.21 1187.93
00001341 00000270 1708.51 315.58 776.92 1139.13 1782.26 775.72 2084.04 776.60 1812.69 962.96 1783.54 1183.27 2021.08 1186.62
00001342 00000271 1708.64 317.23 778.13 1137.09 1781.65 776.25 2083.86 776.44 1811.95 962.84 1782.99 1183.80 2020.94 1186.53
00001343 00000272 1708.48 321.46 777.53 1132.02 1781.59 776.04 2084.40 776.59 1811.29 963.06 1783.13 1184.44 2020.23 1187.39
00001344 00000273 1709.22 317.57 778.19 1134.81 1781.79 775.92 2083.64 776.23 1811.53 962.47 1784.01 1184.22 2019.08 1187.09
00001345 00000274 1711.39 305.60 780.45 1144.99 1783.82 775.92 2084.91 776.38 1814.53 961.71 1786.31 1182.26 2019.52 1185.53
00001346 00000275 1712.88 303.01 781.91 1150.24 1786.01 776.52 2085.29 776.83 1816.11 962.14 1789.37 1182.41 2022.45 1185.43
00001347 00000276 1712.38 308.45 781.23 1144.83 1786.97 777.78 2085.07 776.69 1817.73 961.52 1789.90 1182.16 2022.75 1183.88
00001348 00000277 1712.39 308.69 783.65 1144.57 1787.79 776.80 2086.45 777.25 1817.94 960.68 1788.72 1180.38 2024.10 1183.58
00001349 00000278 1712.55 304.16 779.76 1149.39 1786.51 775.25 2087.01 776.37 1817.20 961.69 1788.27 1181.76 2023.03 1185.55
00001350 00000279 1713.64 302.48 781.35 1150.57 1787.46 775.85 2088.58 776.47 1818.94 961.02 1788.81 1182.12 2023.77 1185.60
00001351 00000280 1715.53 301.72 781.55 1151.05 1788.99 775.04 2089.90 776.35 1820.31 960.92 1790.35 1183.07 2023.63 1187.04
00001352 00000281 1715.52 298.37 783.27 1156.65 1789.40 776.29 2091.70 776.38 1821.46 960.40 1791.74 1184.67 2025.87 1187.79
00001353 00000282 1715.83 288.41 785.39 1170.97 1789.62 777.30 2095.49 775.07 1825.23 962.17 1795.16 1186.57 2030.88 1188.01
00001354 00000283 1716.34 295.76 783.46 1162.86 1790.99 777.75 2095.00 774.74 1825.69 960.96 1794.79 1186.95 2029.37 1187.76
00001355 00000284 1716.00 308.68 781.31 1147.63 1793.54 777.83 2092.38 777.48 1823.88 960.38 1795.07 1183.99 2029.47 1186.77
00001356 00000285 1716.52 311.60 781.82 1143.89 1792.93 777.17 2089.27 777.50 1821.92 961.02 1794.63 1183.08 2028.39 1186.33
00001357 00000286 1716.63 300.26 782.44 1157.38 1792.74 776.16 2092.20 776.76 1823.39 960.88 1793.98 1183.32 2028.82 1186.99
00001358 00000287 1717.24 299.80 782.29 1156.54 1792.30 777.41 2092.05 776.65 1822.80 959.52 1793.42 1184.70 2028.05 1187.30
00001359 00000288 1718.89 312.95 780.27 1142.60 1793.26 782.28 2095.97 781.11 1823.24 955.95 1795.18 1184.77 2029.77 1186.54
00001360 00000289 1717.86 304.48 781.65 1149.98 1790.80 794.35 2097.19 784.93 1826.62 957.86 1794.43 1192.43 2031.16 1187.72
00001361 00000290 1718.65 289.68 781.92 1167.92 1791.98 784.23 2102.96 782.03 1828.65 959.62 1795.70 1189.09 2034.61 1190.47
00001362 00000291 1718.56 289.60 782.14 1168.18 1793.09 783.78 2095.75 780.63 1825.79 960.91 1795.49 1189.56 2031.05 1190.47
00001363 00000292 1720.67 292.59 780.31 1164.40 1794.34 779.66 2094.49 779.60 1824.49 962.66 1795.71 1187.35 2030.71 1190.71
00001364 00000293 1721.22 288.03 782.18 1169.17 1795.07 776.88 2098.71 777.45 1828.21 961.78 1797.42 1186.31 2032.73 1190.38
00001365 00000294 1721.38 295.25 781.33 1160.69 1795.45 777.38 2098.22 779.02 1828.03 961.71 1796.44 1184.96 2031.66 1189.78
00001366 00000295 1719.92 295.40 781.48 1160.91 1795.47 777.85 2097.57 778.98 1827.61 960.96 1797.26 1185.44 2033.27 1189.67
00001367 00000296 1719.95 298.88 782.25 1157.78 1796.44 778.99 2096.35 777.73 1827.66 959.49 1799.20 1187.35 2032.18 1189.66
00001368 00000297 1720.05 308.03 782.76 1148.04 1796.61 777.87 2094.73 777.01 1825.29 957.57 1798.61 1186.24 2030.74 1188.60
00001369 00000298 1720.66 310.42 782.34 1145.09 1796.96 777.72 2095.08 776.48 1826.43 957.33 1798.57 1186.31 2030.10 1188.43
00001370 00000299 1720.70 306.24 782.58 1150.22 1797.16 777.42 2095.25 776.62 1826.62 957.41 1798.79 1186.57 2030.48 1189.10
00001371 00000300 1720.09 303.49 781.00 1153.34 1797.34 778.23 2096.51 776.67 1827.38 957.63 1798.54 1187.08 2030.21 1189.17
00001372 00000301 1719.87 306.46 779.01 1151.24 1797.52 778.70 2098.42 778.43 1828.24 958.28 1798.52 1188.04 2030.18 1190.97
00001373 00000302 1720.02 300.41 781.13 1158.63 1796.49 779.61 2100.26 778.15 1829.90 960.66 1798.66 1189.68 2033.37 1191.82
00001374 00000303 1720.06 301.64 780.12 1155.69 1795.12 782.48 2096.69 779.04 1826.68 961.06 1797.82 1189.85 2031.03 1190.42
00001375 00000304 1720.23 303.91 779.72 1152.61 1794.11 782.32 2095.12 780.68 1825.61 964.45 1795.38 1188.79 2029.82 1190.83
00001376 00000305 1720.35 302.97 777.31 1154.66 1794.95 780.85 2095.62 781.73 1827.52 965.25 1795.36 1189.28 2030.53 1193.29
00001377 00000306 1720.39 303.21 778.93 1155.28 1795.71 781.23 2095.28 781.40 1827.91 964.80 1796.58 1189.36 2031.42 1192.74
00001378 00000307 1720.27 298.82 781.95 1160.80 1795.47 781.32 2095.73 781.58 1828.65 965.00 1796.88 1189.67 2031.30 1193.33
00001379 00000308 1720.05 293.08 781.46 1167.91 1795.65 781.40 2096.26 780.65 1829.41 965.51 1797.82 1190.29 2031.58 1193.23
00001380 00000309 1720.73 287.32 782.40 1174.98 1795.50 781.59 2097.72 780.02 1829.92 965.93 1798.63 1191.92 2032.93 1194.25
00001381 00000310 1720.26 285.72 781.52 1177.17 1795.31 781.31 2098.05 780.34 1829.72 967.04 1798.55 1192.09 2033.52 1194.87
00001382 00000311 1720.26 289.90 781.43 1171.30 1795.11 780.34 2097.61 780.78 1829.53 966.76 1797.35 1190.28 2033.54 1194.09
00001383 00000312 1720.52 303.32 778.72 1153.27 1795.37 781.13 2096.31 781.88 1828.14 964.75 1796.22 1187.75 2030.75 1191.62
00001384 00000313 1720.12 305.95 782.11 1149.08 1793.66 782.47 2095.12 780.75 1825.27 963.00 1795.05 1187.60 2030.99 1189.37
00001385 00000314 1720.84 310.28 785.11 1144.13 1795.92 783.10 2096.27 779.17 1828.01 960.46 1797.64 1186.59 2033.01 1186.70
00001386 00000315 1719.87 315.28 784.72 1138.01 1795.34 783.25 2094.63 780.49 1827.09 960.72 1796.29 1184.96 2031.66 1185.91
00001387 00000316 1719.34 313.58 783.28 1139.02 1795.13 782.80 2095.10 781.23 1827.96 962.54 1795.11 1185.27 2030.58 1187.39
00001388 00000317 1719.17 314.89 782.90 1137.59 1793.79 781.85 2093.83 780.76 1826.17 964.19 1794.56 1185.96 2028.91 1188.57
00001389 00000318 1719.15 312.37 781.61 1140.10 1794.22 781.99 2094.05 781.72 1826.01 963.84 1794.41 1185.72 2027.91 1189.01
00001390 00000319 1719.54 314.83 781.88 1137.24 1794.26 783.22 2093.77 781.43 1826.24 963.28 1794.48 1187.03 2026.90 1189.00
00001391 00000320 1719.49 316.67 780.67 1135.40 1794.60 783.50 2093.87 780.52 1827.02 960.89 1795.02 1187.30 2026.25 1188.26
00001392 00000321 1719.71 309.19 781.62 1144.39 1794.64 782.77 2095.74 778.15 1829.34 960.75 1796.44 1188.59 2028.15 1188.19
00001393 00000322 1720.26 311.82 782.10 1141.23 1795.32 781.65 2097.33 777.97 1830.10 959.73 1796.84 1187.93 2029.13 1188.16
00001394 00000323 1720.87 309.26 782.88 1144.43 1794.99 781.76 2098.08 777.18 1830.15 959.34 1796.60 1188.90 2029.39 1188.52
00001395 00000324 1721.26 306.10 782.98 1148.14 1795.35 782.65 2099.49 777.28 1831.98 959.41 1797.80 1190.14 2030.12 1189.23
00001396 00000325 1720.14 304.48 780.52 1150.49 1794.01 782.99 2099.05 776.82 1831.20 960.26 1797.29 1191.23 2032.38 1189.47
00001397 00000326 1720.50 299.49 775.47 1156.40 1795.73 792.13 2105.39 786.46 1830.75 957.96 1797.13 1192.00 2035.89 1190.43
00001398 00000327 1719.76 281.71 774.69 1176.95 1796.20 787.50 2109.14 781.59 1836.17 960.11 1799.53 1192.07 2040.89 1190.62
00001399 00000328 1720.93 292.51 773.10 1167.26 1796.27 783.83 2102.04 780.18 1833.65 962.63 1801.83 1190.21 2039.98 1190.41
00001400 00000329 1720.81 314.21 771.83 1142.14 1799.41 781.42 2095.03 781.30 1828.46 959.25 1799.73 1185.92 2033.73 1188.77
00001401 00000330 1721.55 312.74 779.80 1141.65 1797.98 780.09 2094.64 779.76 1827.66 958.94 1798.46 1185.63 2032.55 1188.39
00001402 00000331 1721.56 307.40 784.58 1147.35 1795.76 777.87 2095.90 778.16 1827.20 960.03 1796.94 1186.58 2031.57 1189.89
00001403 00000332 1722.75 304.25 781.88 1149.86 1798.09 775.52 2099.09 777.05 1828.78 958.45 1799.35 1183.62 2034.11 1187.99
00001404 00000333 1723.42 301.57 782.63 1152.86 1800.52 774.75 2103.20 777.25 1833.01 957.86 1801.88 1182.47 2036.57 1187.78
00001405 00000334 1722.92 303.16 782.39 1150.92 1801.45 775.88 2102.84 776.98 1834.18 957.52 1802.63 1182.36 2037.23 1186.72
00001406 00000335 1723.44 307.22 781.35 1146.36 1802.24 777.30 2102.55 776.43 1833.89 956.44 1803.17 1182.73 2038.29 1185.37
00001407 00000336 1723.65 306.86 782.51 1147.34 1804.27 777.62 2104.74 775.85 1836.96 956.48 1804.88 1182.50 2041.71 1184.55
00001408 00000337 1723.60 303.30 781.32 1152.16 1805.97 775.55 2107.75 777.03 1840.06 958.06 1805.44 1180.22 2045.12 1184.92
00001409 00000338 1723.26 306.21 781.29 1148.56 1806.64 774.63 2107.97 776.66 1840.12 958.30 1805.99 1179.83 2045.49 1184.77
00001410 00000339 1724.76 301.50 778.13 1152.03 1806.90 773.77 2109.91 774.89 1840.72 958.00 1807.30 1181.42 2045.67 1185.67
00001411 00000340 1726.03 296.51 777.54 1157.04 1805.37 774.64 2110.04 774.15 1841.30 958.55 1807.42 1183.38 2046.06 1186.49
00001412 00000341 1726.31 294.92 779.32 1159.39 1805.06 775.76 2110.94 773.90 1841.96 958.16 1808.81 1184.26 2046.61 1186.37
00001413 00000342 1726.49 289.56 779.97 1165.53 1805.47 774.99 2112.00 772.76 1841.81 957.20 1810.54 1184.45 2048.13 1186.19
00001414 00000343 1726.65 289.94 780.81 1165.09 1805.24 775.16 2111.79 772.47 1841.56 956.90 1810.31 1184.95 2047.66 1186.39
00001415 00000344 1726.40 293.45 779.97 1161.05 1805.40 774.86 2111.48 773.72 1841.62 957.65 1809.37 1184.41 2046.87 1187.13
00001416 00000345 1726.06 302.54 780.04 1151.32 1805.69 775.66 2108.33 775.57 1840.39 958.16 1808.69 1184.04 2044.58 1187.33
00001417 00000346 1725.07 299.48 780.60 1156.04 1806.42 775.26 2107.12 775.96 1841.22 959.92 1809.96 1184.80 2043.00 1188.70
00001418 00000347 1723.90 298.17 781.69 1158.20 1805.23 774.89 2107.24 775.64 1841.03 959.99 1808.71 1184.98 2042.06 1188.93
00001419 00000348 1722.88 294.96 780.52 1162.76 1803.47 774.00 2106.48 775.69 1839.61 961.50 1807.49 1184.78 2042.98 1189.39
00001420 00000349 1723.17 300.69 780.68 1155.66 1803.37 774.42 2105.34 776.32 1838.55 960.83 1806.78 1184.34 2042.46 1189.07
00001421 00000350 1723.09 298.69 780.52 1158.50 1803.03 774.17 2105.41 775.62 1838.10 960.85 1806.35 1184.65 2043.24 1189.01
00001422 00000351 1722.86 299.87 780.60 1157.71 1803.26 774.47 2105.03 776.11 1838.21 961.07 1806.78 1184.28 2043.87 1188.78
00001423 00000352 1722.52 298.94 779.63 1158.20 1802.98 774.41 2104.49 775.68 1837.98 961.04 1806.96 1183.88 2044.90 1188.02
00001424 00000353 1723.11 300.12 779.89 1157.45 1803.11 774.58 2105.06 775.44 1838.04 960.61 1806.41 1184.09 2045.02 1187.96
00001425 00000354 1723.10 299.40 779.80 1157.76 1803.14 774.64 2105.27 775.39 1838.44 960.78 1806.49 1184.12 2045.11 1187.93
00001426 00000355 1722.85 299.88 779.72 1156.93 1803.55 774.69 2105.44 775.67 1839.46 960.68 1807.05 1184.04 2044.68 1188.06
00001427 00000356 1722.70 294.82 780.83 1162.51 1803.65 774.39 2107.20 775.43 1840.57 960.96 1807.25 1184.27 2045.44 1188.57
00001428 00000357 1723.66 302.33 779.96 1153.88 1803.83 775.05 2106.10 775.68 1839.31 960.18 1806.36 1184.28 2044.94 1188.24
00001429 00000358 1723.27 305.24 780.25 1149.34 1803.63 775.12 2104.08 776.16 1837.28 959.67 1805.19 1183.40 2042.93 1187.64
00001430 00000359 1722.38 296.42 779.71 1160.14 1801.90 775.66 2104.19 775.18 1837.89 961.44 1805.39 1184.94 2045.43 1187.92
00001431 00000360 1722.37 296.11 780.46 1160.84 1801.79 776.14 2103.46 775.55 1837.09 961.72 1805.57 1185.32 2045.58 1188.20
00001432 00000361 1722.26 295.70 780.15 1162.14 1801.97 775.27 2104.11 775.38 1837.54 961.63 1805.84 1184.80 2045.38 1188.21
00001433 00000362 1722.39 295.82 781.13 1162.18 1801.18 776.32 2104.05 775.72 1836.70 962.22 1805.66 1185.07 2047.38 1187.88
00001434 00000363 1722.41 298.37 779.92 1160.17 1802.54 776.33 2105.20 776.61 1838.83 961.97 1807.09 1184.38 2047.70 1187.89
00001435 00000364 1722.68 302.21 779.11 1156.02 1803.43 776.65 2104.55 776.24 1838.12 960.37 1807.37 1185.14 2046.04 1188.03
00001436 00000365 1723.02 297.76 778.07 1161.32 1803.89 775.70 2105.19 777.03 1839.06 962.34 1807.84 1185.77 2046.94 1190.12
00001437 00000366 1721.97 310.55 775.27 1148.76 1802.04 782.56 2108.71 777.93 1839.12 956.45 1805.78 1187.96 2047.36 1187.15
00001438 00000367 1721.01 301.36 776.69 1157.54 1800.73 794.99 2111.45 786.89 1840.81 958.69 1803.77 1192.76 2047.54 1189.23
00001439 00000368 1721.67 294.39 778.41 1165.24 1800.24 787.93 2112.54 781.89 1840.96 958.54 1804.22 1191.84 2047.51 1190.36
00001440 00000369 1722.94 293.88 776.90 1168.16 1799.22 784.27 2105.12 778.55 1836.91 961.54 1803.55 1191.20 2044.14 1190.08
00001441 00000370 1723.40 298.74 776.75 1162.72 1801.28 781.53 2103.41 779.35 1836.62 963.08 1803.59 1189.35 2042.43 1191.08
00001442 00000371 1722.33 299.54 776.85 1160.67 1800.83 777.49 2103.42 778.05 1836.48 964.33 1803.95 1186.99 2043.41 1190.84
00001443 00000372 1722.95 309.57 777.74 1148.95 1801.24 777.93 2101.34 777.01 1834.16 963.08 1803.95 1186.99 2041.44 1189.54
00001444 00000373 1723.78 306.67 777.84 1151.82 1802.05 777.81 2102.49 777.26 1834.85 962.10 1804.36 1186.60 2041.71 1189.55
00001445 00000374 1723.86 308.64 777.99 1148.87 1802.64 777.23 2102.97 777.13 1835.44 961.31 1804.20 1185.78 2041.09 1189.13
00001446 00000375 1723.88 308.23 778.15 1149.30 1802.58 776.87 2103.31 776.68 1835.23 961.98 1804.55 1185.99 2041.08 1189.29
00001447 00000376 1723.86 309.02 778.91 1148.25 1802.66 776.34 2103.89 775.88 1835.58 961.77 1804.72 1186.17 2040.19 1189.28
00001448 00000377 1722.98 303.78 779.36 1154.91 1801.87 777.03 2104.28 775.43 1836.37 960.79 1804.77 1186.78 2042.48 1188.87
00001449 00000378 1721.66 297.62 777.97 1161.75 1802.60 776.79 2106.00 775.79 1838.61 961.45 1806.03 1186.77 2044.01 1189.40
00001450 00000379 1721.63 299.54 778.48 1160.37 1801.75 777.61 2104.71 776.32 1836.10 960.95 1804.86 1187.00 2042.83 1189.17
00001451 00000380 1721.80 305.08 779.80 1153.87 1800.37 779.56 2101.91 777.26 1833.49 961.09 1803.20 1187.17 2042.09 1188.34
00001452 00000381 1721.89 303.74 779.37 1154.95 1798.91 780.97 2100.51 778.77 1831.42 962.12 1801.43 1187.35 2040.34 1188.69
00001453 00000382 1721.98 306.65 780.84 1151.14 1798.46 781.46 2099.87 779.28 1831.46 961.84 1799.54 1187.60 2038.06 1189.18
00001454 00000383 1721.96 304.35 781.64 1153.77 1797.99 780.58 2100.61 779.21 1831.99 963.02 1798.84 1187.95 2038.54 1190.29
00001455 00000384 1720.92 306.54 782.14 1150.62 1797.06 780.36 2100.03 779.92 1830.97 962.84 1797.80 1187.90 2036.86 1190.89
00001456 00000385 1720.57 307.42 782.56 1148.66 1797.18 779.77 2098.41 780.20 1830.30 963.55 1798.28 1187.25 2034.84 1190.91
00001457 00000386 1720.24 308.02 781.40 1146.99 1797.62 778.01 2100.56 780.62 1832.48 965.17 1797.69 1186.54 2033.79 1192.17
00001458 00000387 1720.63 310.05 778.01 1144.20 1799.36 778.56 2099.53 781.87 1833.53 965.09 1798.72 1185.96 2031.58 1192.20
00001459 00000388 1720.55 304.46 777.72 1151.34 1798.55 780.08 2098.68 781.37 1832.30 964.27 1798.51 1187.95 2030.42 1192.70
00001460 00000389 1720.51 304.44 779.32 1152.20 1797.84 781.28 2099.20 781.10 1832.36 962.91 1797.47 1188.94 2031.27 1192.59
00001461 00000390 1720.79 300.09 779.42 1157.83 1797.40 781.49 2099.33 780.93 1832.85 963.78 1797.78 1189.65 2031.86 1192.98
00001462 00000391 1720.12 305.29 779.77 1151.29 1796.00 781.05 2096.71 781.58 1830.24 964.22 1795.79 1188.94 2031.20 1192.85
00001463 00000392 1719.64 298.93 780.91 1158.80 1795.04 780.92 2098.06 781.67 1831.09 966.68 1796.03 1190.45 2033.70 1194.45
00001464 00000393 1719.75 300.06 781.85 1158.19 1793.84 780.29 2096.50 781.25 1828.62 965.77 1794.69 1190.69 2034.44 1194.72
00001465 00000394 1719.80 299.25 781.36 1159.55 1792.81 781.22 2096.04 781.26 1828.29 966.40 1793.85 1191.73 2033.49 1195.04
00001466 00000395 1719.62 296.59 780.49 1163.24 1793.09 781.69 2096.79 780.74 1828.14 966.57 1795.29 1192.53 2034.32 1195.08
00001467 00000396 1719.15 297.22 780.21 1162.39 1793.22 781.78 2096.23 780.91 1827.96 966.72 1795.21 1192.38 2033.82 1194.94
00001468 00000397 1719.04 299.38 779.95 1160.25 1793.70 781.81 2095.55 781.08 1827.99 966.47 1795.09 1192.06 2033.04 1194.76
00001469 00000398 1718.49 295.76 781.30 1164.55 1793.54 781.02 2096.38 780.53 1828.11 966.73 1795.84 1192.01 2034.08 1194.91
00001470 00000399 1717.45 301.57 780.99 1158.36 1793.37 781.61 2095.54 781.89 1828.74 967.82 1795.60 1190.96 2033.81 1194.21
00001471 00000400 1718.39 309.99 784.83 1150.04 1791.98 782.12 2094.40 781.19 1826.56 967.92 1794.20 1191.76 2031.75 1194.04
00001472 00000401 1719.18 315.88 783.21 1144.08 1791.74 782.53 2093.24 782.40 1825.46 968.26 1793.07 1191.52 2028.09 1194.52
00001473 00000402 1718.79 313.13 782.65 1147.35 1791.90 782.44 2093.55 782.60 1826.11 967.74 1793.25 1191.12 2028.71 1194.36
00001474 00000403 1719.04 314.03 783.36 1146.45 1791.69 782.73 2092.94 782.22 1824.70 967.80 1793.12 1191.64 2028.43 1194.38
00001475 00000404 1718.98 310.75 782.74 1147.98 1791.39 782.73 2092.32 781.94 1823.30 966.25 1791.63 1190.50 2026.87 1193.09
00001476 00000405 1719.31 309.65 781.06 1149.25 1792.37 782.51 2092.57 782.52 1823.71 965.37 1791.98 1189.50 2027.79 1192.65
00001477 00000406 1719.25 307.43 781.89 1151.21 1791.86 782.25 2092.70 781.68 1823.67 965.34 1791.97 1189.43 2029.03 1192.16
00001478 00000407 1719.01 308.59 782.83 1148.71 1791.72 782.62 2092.34 782.18 1824.44 965.99 1792.07 1189.18 2029.35 1191.93
00001479 00000408 1719.26 309.71 781.31 1146.32 1792.09 782.89 2091.43 781.80 1823.74 965.08 1792.25 1188.70 2028.44 1190.92
00001480 00000409 1719.30 306.04 782.40 1151.38 1792.22 782.40 2091.73 780.81 1823.49 964.29 1793.40 1188.30 2032.17 1190.02
00001481 00000410 1718.51 308.85 783.36 1146.91 1791.87 781.89 2091.60 780.59 1822.94 963.36 1793.34 1186.43 2034.41 1188.16
00001482 00000411 1718.58 307.00 781.36 1149.21 1791.91 781.74 2092.19 780.22 1824.32 964.07 1793.42 1187.05 2034.90 1188.67
00001483 00000412 1718.42 304.28 783.96 1153.27 1791.44 781.77 2092.57 780.03 1824.06 964.73 1793.47 1188.07 2033.67 1189.64
00001484 00000413 1717.30 315.61 782.97 1141.24 1792.26 779.54 2093.55 782.07 1825.38 967.88 1792.44 1185.98 2031.64 1191.11
00001485 00000414 1718.39 308.95 781.49 1150.35 1793.20 779.18 2095.51 782.40 1828.01 968.17 1793.22 1186.88 2032.68 1192.66
00001486 00000415 1717.88 307.17 781.56 1154.39 1792.89 778.89 2096.21 782.27 1828.20 969.14 1793.46 1187.46 2033.85 1193.30
00001487 00000416 1717.55 312.30 780.87 1148.52 1792.28 778.65 2094.90 781.73 1826.47 969.22 1793.12 1187.43 2032.31 1192.94
00001488 00000417 1716.94 312.47 780.95 1148.85 1791.32 778.88 2093.76 781.14 1825.60 969.34 1792.32 1188.20 2030.84 1193.02
00001489 00000418 1716.99 314.94 779.55 1144.59 1791.01 779.13 2093.34 780.85 1825.76 969.11 1791.70 1188.53 2029.13 1192.91
00001490 00000419 1716.45 313.94 780.37 1145.56 1789.32 778.63 2091.63 780.10 1824.03 967.86 1790.40 1188.47 2027.07 1192.52
00001491 00000420 1717.41 308.37 779.43 1151.64 1790.36 779.48 2091.88 780.46 1823.69 968.00 1791.28 1189.36 2027.56 1193.08
00001492 00000421 1717.64 302.02 779.73 1158.35 1791.57 780.22 2092.85 782.54 1823.92 969.17 1792.10 1189.01 2029.04 1193.96
00001493 00000422 1715.27 320.31 783.70 1138.38 1789.56 783.04 2089.77 782.30 1820.30 970.43 1790.46 1188.74 2028.25 1190.92
00001494 00000423 1713.95 315.00 781.57 1144.15 1789.21 785.20 2089.26 782.71 1822.08 968.33 1790.67 1188.74 2030.29 1189.43
00001495 00000424 1713.41 307.86 777.41 1153.90 1788.67 783.15 2089.54 782.80 1823.18 970.04 1790.39 1188.66 2030.93 1191.16
00001496 00000425 1713.82 307.33 774.28 1154.07 1789.16 780.27 2089.98 783.74 1822.82 970.97 1789.26 1187.75 2029.90 1193.27
00001497 00000426 1712.82 315.34 776.15 1146.33 1788.26 778.61 2088.61 783.38 1820.31 971.60 1789.48 1186.77 2027.98 1193.11
00001498 00000427 1710.82 321.25 781.15 1139.67 1786.64 778.12 2088.53 782.57 1819.06 970.03 1788.68 1186.55 2025.58 1192.46
00001499 00000428 1710.45 311.78 782.44 1150.09 1786.22 778.16 2086.88 782.56 1818.54 969.96 1789.63 1186.87 2026.08 1192.79
00001500 00000429 1710.18 313.26 782.04 1149.60 1786.60 779.92 2086.91 782.24 1819.28 969.00 1789.93 1188.47 2024.64 1192.87
00001501 00000430 1709.77 309.69 784.26 1154.47 1786.84 781.84 2087.30 782.25 1820.31 968.29 1789.75 1188.84 2025.33 1191.78
00001502 00000431 1709.74 313.23 785.20 1150.32 1786.32 782.40 2086.86 782.78 1818.98 967.44 1788.54 1188.35 2023.97 1191.25
00001503 00000432 1709.98 316.23 784.57 1146.48 1786.21 782.86 2086.03 782.92 1818.36 967.62 1787.69 1188.21 2023.38 1190.87
00001504 00000433 1710.20 323.68 784.76 1137.77 1786.09 783.00 2085.12 782.37 1815.99 967.25 1787.01 1188.67 2022.70 1190.68
00001505 00000434 1709.80 314.50 781.02 1147.81 1785.26 793.53 2090.84 788.52 1819.12 966.68 1788.36 1193.54 2027.83 1191.86
00001506 00000435 1707.80 306.54 781.44 1154.89 1784.36 799.28 2092.39 792.89 1821.46 966.85 1788.11 1194.61 2027.26 1191.97
00001507 00000436 1710.78 292.26 782.56 1171.84 1784.75 791.62 2095.73 789.38 1825.04 970.25 1789.95 1192.46 2030.45 1193.53
00001508 00000437 1710.28 297.65 781.50 1166.68 1783.84 787.44 2085.23 787.75 1819.66 972.04 1788.96 1190.53 2024.34 1193.52
00001509 00000438 1709.28 299.13 782.01 1165.22 1783.71 784.68 2083.30 785.56 1818.30 971.02 1788.72 1189.80 2023.11 1193.18
00001510 00000439 1708.94 306.24 782.47 1157.56 1784.75 782.20 2083.07 784.18 1815.91 969.42 1787.87 1188.49 2023.34 1192.60
00001511 00000440 1709.76 317.93 783.60 1144.13 1785.27 782.70 2083.03 784.57 1813.82 969.00 1786.52 1188.46 2020.99 1192.43
00001512 00000441 1709.47 318.38 782.47 1143.37 1784.33 783.84 2082.10 783.73 1813.07 968.64 1786.16 1190.48 2020.44 1192.76
00001513 00000442 1710.84 321.02 783.32 1140.75 1785.05 783.17 2082.61 781.95 1813.67 968.85 1787.48 1190.23 2022.21 1191.62
00001514 00000443 1710.03 319.48 782.72 1141.92 1784.05 783.41 2083.26 781.32 1815.18 969.32 1787.08 1190.49 2022.06 1191.30
00001515 00000444 1707.91 304.00 781.24 1158.10 1783.25 784.52 2084.43 782.79 1818.97 970.23 1786.79 1189.05 2023.95 1190.43
00001516 00000445 1707.18 304.48 782.06 1158.62 1782.83 781.09 2083.78 783.43 1817.88 971.16 1786.26 1186.67 2027.31 1191.05
00001517 00000446 1705.96 297.60 782.02 1167.00 1782.19 779.11 2084.78 783.74 1818.03 973.63 1785.72 1185.69 2028.89 1192.03
00001518 00000447 1705.53 293.07 782.58 1171.14 1781.71 779.71 2084.78 783.43 1818.72 974.60 1785.50 1186.30 2028.17 1192.11
00001519 00000448 1705.73 293.67 780.09 1170.71 1781.98 778.69 2084.52 784.59 1818.16 975.63 1784.86 1185.14 2027.43 1192.67
00001520 00000449 1705.57 300.95 780.66 1162.83 1782.48 778.46 2085.22 785.08 1817.98 974.13 1784.23 1184.20 2026.92 1192.10
00001521 00000450 1706.07 307.42 782.24 1155.81 1782.59 778.65 2084.48 785.19 1817.39 973.37 1783.70 1184.28 2025.22 1192.05
00001522 00000451 1706.09 308.27 783.04 1154.88 1781.55 778.57 2082.34 783.78 1815.21 974.39 1783.99 1186.71 2022.15 1193.47
00001523 00000452 1706.59 308.41 782.59 1154.49 1781.12 779.72 2080.93 784.09 1814.56 973.79 1783.97 1188.05 2019.76 1194.20
00001524 00000453 1706.60 303.32 780.24 1160.49 1781.13 781.16 2079.81 785.45 1815.69 975.61 1784.12 1189.60 2018.17 1195.85
00001525 00000454 1706.15 309.24 782.87 1154.38 1780.41 782.20 2077.00 785.48 1813.43 975.49 1783.01 1190.29 2015.25 1195.67
00001526 00000455 1706.33 313.50 782.83 1149.46 1778.67 782.59 2076.96 786.34 1810.59 974.39 1780.39 1189.18 2015.53 1194.70
00001527 00000456 1705.54 310.01 783.30 1153.26 1779.40 782.42 2077.94 786.11 1812.04 974.48 1780.84 1189.46 2017.58 1195.02
00001528 00000457 1705.09 307.38 784.73 1156.33 1779.06 783.36 2078.88 785.07 1812.74 973.31 1780.01 1191.17 2016.57 1195.28
00001529 00000458 1704.77 305.74 784.71 1157.17 1779.15 782.48 2080.02 785.50 1813.92 973.54 1779.90 1189.45 2018.65 1194.63
00001530 00000459 1704.91 302.83 782.87 1161.48 1779.43 782.66 2080.67 786.29 1814.18 972.75 1779.70 1189.09 2020.29 1194.68
00001531 00000460 1704.57 301.31 783.98 1163.06 1779.18 782.40 2080.77 786.18 1814.85 972.58 1779.20 1188.31 2020.65 1194.10
00001532 00000461 1704.11 304.55 784.95 1160.27 1780.27 781.70 2080.97 786.39 1814.91 971.94 1779.31 1186.51 2021.00 1193.00
00001533 00000462 1703.70 302.45 785.34 1162.31 1779.54 781.58 2080.29 787.61 1814.25 973.23 1777.46 1184.96 2018.57 1192.69
00001534 00000463 1704.16 304.06 784.51 1160.05 1779.50 780.61 2080.03 787.09 1813.47 972.84 1776.89 1183.55 2018.27 1191.61
00001535 00000464 1704.41 308.07 783.04 1156.88 1779.94 778.76 2078.40 788.85 1811.36 973.97 1776.93 1179.55 2018.79 1190.18
00001536 00000465 1701.28 312.02 785.31 1154.03 1779.57 778.32 2080.51 790.68 1809.90 972.27 1774.98 1175.27 2020.84 1187.59
CROP_BBOX: 1242 0 3122 1876
