Video ID: 	6ecwfe4fNew
H: 	1080
W: 	1920
FPS: 	25.0

FRAME INDEX X0 Y0 W H [Landmarks (5 Points)]

00005128 00000000 675.66 107.09 426.22 619.82 816.14 371.53 1028.07 355.54 958.28 497.37 852.08 594.15 1021.33 581.74
00005129 00000001 677.54 109.22 424.28 620.42 821.14 369.25 1030.15 354.30 963.93 495.80 859.02 595.66 1022.78 584.01
00005130 00000002 676.89 106.23 426.04 625.18 823.54 370.00 1031.43 354.74 966.42 496.91 858.57 593.57 1024.45 581.47
00005131 00000003 676.38 106.91 426.02 623.76 822.97 373.15 1031.08 356.12 966.65 496.90 857.08 593.21 1025.25 579.67
00005132 00000004 675.19 108.66 426.02 625.24 821.24 373.26 1030.93 358.23 964.73 497.11 851.35 592.66 1023.09 580.93
00005133 00000005 674.08 104.42 428.81 636.10 819.34 374.61 1028.69 360.19 963.28 496.42 850.79 595.60 1022.48 584.05
00005134 00000006 674.96 124.94 423.64 624.03 819.79 371.66 1025.29 360.07 960.79 490.92 850.80 601.66 1019.34 590.79
00005135 00000007 670.63 109.18 429.26 633.39 813.97 375.65 1024.57 360.65 957.51 499.28 846.94 599.12 1016.53 587.73
00005136 00000008 671.77 106.49 428.37 634.32 814.01 374.48 1024.54 360.45 956.15 499.48 846.84 598.82 1015.57 588.18
00005137 00000009 677.23 123.10 423.51 625.27 819.59 370.39 1025.74 361.19 957.40 493.26 850.07 601.83 1017.67 592.77
00005138 00000010 680.94 121.98 423.89 623.90 823.91 369.66 1031.04 361.10 962.76 492.18 854.08 601.79 1021.98 592.99
00005139 00000011 683.39 121.01 424.94 623.85 828.59 368.10 1035.41 361.97 967.09 493.61 857.51 600.40 1023.26 593.69
00005140 00000012 678.83 111.22 428.52 630.50 827.83 373.25 1038.21 364.79 969.22 500.85 855.60 599.79 1022.44 593.35
00005141 00000013 677.58 112.05 428.87 629.82 826.26 375.71 1036.99 367.45 967.36 503.80 853.91 601.05 1021.25 594.80
00005142 00000014 675.62 113.64 427.98 628.70 822.56 377.97 1032.41 365.88 964.02 504.53 857.58 603.75 1022.03 594.25
00005143 00000015 671.58 112.35 429.67 633.63 817.94 379.37 1023.83 365.06 957.97 506.82 853.63 603.45 1016.00 592.48
00005144 00000016 666.81 109.69 432.31 635.12 809.16 377.29 1016.21 365.27 945.81 505.41 844.71 600.78 1008.72 591.93
00005145 00000017 660.59 109.66 435.68 631.39 800.14 373.62 1005.81 363.29 930.72 503.55 832.27 594.64 996.96 587.85
00005146 00000018 657.65 116.41 437.16 624.95 795.04 370.88 999.62 363.16 917.61 501.26 821.74 589.48 987.69 585.08
00005147 00000019 654.92 114.61 436.77 627.52 790.95 366.37 996.70 360.15 912.24 498.67 818.62 591.99 980.06 589.05
00005148 00000020 654.29 117.12 434.92 624.63 787.07 366.09 992.53 362.00 904.31 500.53 812.40 592.67 971.85 591.81
00005149 00000021 656.30 117.42 430.94 621.82 783.47 365.17 991.39 363.54 899.06 499.31 803.60 590.06 967.72 591.07
00005150 DELETE   654.74 119.36 434.49 623.89 781.75 365.07 988.61 369.15 891.49 501.65 790.99 586.92 959.72 592.68
00005151 00000023 657.56 113.47 432.03 633.51 778.08 364.34 985.06 372.01 883.20 500.06 785.58 591.87 953.16 600.02
00005152 00000024 657.00 116.35 434.51 633.48 777.69 365.05 984.34 375.10 881.22 500.63 782.93 593.03 948.67 603.21
00005153 00000025 660.48 115.90 435.08 634.41 780.60 365.70 985.48 378.01 881.55 502.65 782.72 593.04 946.91 605.14
00005154 00000026 662.53 116.24 435.17 635.67 783.21 365.85 987.85 378.92 882.73 504.12 784.15 593.28 948.82 605.90
00005155 00000027 662.62 123.28 437.99 633.87 785.17 364.74 989.76 375.93 885.03 505.19 787.66 593.44 954.99 604.30
00005156 00000028 664.03 122.92 436.36 634.52 785.49 364.12 991.20 373.15 887.91 504.19 792.46 596.10 958.01 605.12
00005157 00000029 664.13 120.74 437.05 637.85 785.35 365.54 991.36 371.51 889.00 504.39 796.26 596.62 961.65 603.00
00005158 00000030 664.33 124.03 436.07 624.42 785.85 366.80 992.45 372.09 891.14 506.54 796.78 593.36 962.42 599.35
00005159 00000031 664.70 121.72 434.65 620.39 786.32 368.72 991.82 372.85 892.64 507.37 798.29 591.31 963.55 596.50
00005160 00000032 662.65 117.04 434.86 626.42 784.78 368.88 991.61 373.10 892.32 507.09 797.73 591.90 963.21 597.22
00005161 00000033 661.26 116.78 435.20 633.23 783.61 370.78 990.64 374.17 891.09 506.82 795.62 594.59 963.24 599.08
00005162 00000034 660.12 115.37 434.76 635.97 782.55 370.64 987.45 373.98 888.97 506.39 794.65 594.47 961.25 598.84
00005163 00000035 660.21 114.24 433.44 636.20 781.82 370.71 987.22 374.31 889.01 506.49 794.22 595.45 960.34 600.09
00005164 00000036 660.47 114.45 434.50 638.50 782.10 371.62 986.88 374.26 888.15 508.77 794.39 594.50 962.89 598.17
00005165 00000037 660.16 116.10 434.47 635.88 782.41 371.54 987.03 374.68 887.97 508.88 794.50 594.64 961.46 598.83
00005166 00000038 662.02 117.79 430.71 632.76 780.67 371.44 986.15 374.96 886.49 509.20 793.12 597.26 959.27 601.82
00005167 00000039 661.05 119.23 431.70 631.66 779.57 371.24 985.15 374.54 885.01 508.97 792.71 597.36 958.76 601.78
00005168 00000040 661.50 116.21 430.91 633.35 778.62 370.50 985.06 373.43 884.88 508.92 795.05 598.78 959.43 602.92
00005169 00000041 660.51 115.24 432.54 635.15 780.42 371.46 987.67 371.91 889.03 507.23 801.23 599.99 965.33 602.04
00005170 00000042 661.26 104.21 432.68 644.67 784.22 373.21 990.52 373.58 894.75 503.25 807.01 600.17 968.83 601.87
00005171 00000043 662.44 101.70 430.88 646.88 785.96 371.65 991.63 370.19 900.46 499.79 809.71 599.12 973.57 599.23
00005172 00000044 659.60 101.63 433.20 640.17 783.27 376.75 990.76 369.15 899.85 500.49 810.75 596.75 978.24 591.76
00005173 00000045 649.84 111.99 438.23 633.04 772.59 381.18 983.49 368.10 891.79 505.23 805.67 601.32 976.43 591.95
00005174 00000046 640.91 100.99 439.27 651.94 757.68 387.95 965.50 369.19 876.79 511.19 799.48 608.79 971.14 594.22
00005175 DELETE   621.61 112.99 452.07 638.33 745.70 396.33 952.90 374.88 867.36 518.72 793.72 613.68 968.16 592.71
00005176 00000048 619.09 109.88 450.89 644.55 739.01 395.58 947.09 375.32 857.72 520.54 784.47 613.64 961.49 593.80
00005177 00000049 619.63 108.23 450.61 654.64 740.91 397.43 948.26 377.35 859.82 521.65 784.21 616.63 962.82 597.24
00005178 00000050 621.06 119.73 451.22 643.66 747.25 400.77 953.97 377.67 870.83 524.09 793.51 620.77 968.97 599.08
00005179 00000051 621.86 114.42 453.28 647.20 750.80 401.07 956.91 377.16 876.31 525.72 798.11 621.09 971.94 599.05
00005180 00000052 621.34 114.29 453.22 646.12 749.24 400.74 956.28 376.59 875.75 525.80 797.80 620.98 972.03 598.67
00005181 DELETE   616.14 119.36 454.90 649.02 742.97 398.17 950.31 376.21 866.66 523.41 789.56 621.97 961.90 601.55
00005182 DELETE   613.07 120.11 451.75 649.37 733.15 396.27 941.45 377.44 853.72 520.12 779.54 622.99 950.99 605.50
00005183 00000055 607.25 119.91 457.74 649.52 729.82 397.22 936.92 377.51 851.44 524.63 778.23 623.05 947.85 605.03
00005184 00000056 606.85 120.24 457.04 644.99 730.88 396.91 939.62 373.69 858.07 523.78 785.36 623.53 953.49 602.34
00005185 00000057 609.40 118.48 454.48 647.40 732.88 393.82 942.14 371.26 860.14 522.55 790.51 628.86 951.63 607.92
00005186 00000058 606.08 117.98 454.52 647.78 727.89 392.23 937.43 371.47 853.18 520.98 785.74 630.59 943.63 611.35
00005187 00000059 603.69 120.58 450.82 644.93 717.43 392.19 924.77 372.25 835.45 524.41 772.47 631.14 931.61 612.84
00005188 00000060 599.46 124.37 452.44 644.04 712.54 390.75 920.44 371.55 829.73 525.78 767.18 632.47 923.75 615.10
00005189 00000061 600.44 123.64 450.81 643.15 714.23 392.88 921.28 372.09 833.16 526.71 770.36 632.67 928.07 613.86
00005190 00000062 599.69 121.62 450.94 642.50 714.01 393.78 921.66 372.54 834.46 526.00 770.81 630.65 930.87 611.37
00005191 00000063 596.63 123.24 453.98 643.03 711.03 392.23 919.39 372.02 829.71 524.94 766.41 629.10 926.37 610.60
00005192 00000064 595.82 124.66 452.31 643.75 706.72 392.86 917.12 373.57 825.24 526.79 760.07 628.14 923.76 610.34
00005193 00000065 597.74 115.22 452.84 651.03 712.43 394.82 923.87 374.23 827.85 530.10 757.69 622.54 927.28 605.61
00005194 DELETE   601.05 125.23 448.66 636.55 720.86 395.75 929.89 375.03 845.06 522.08 772.25 624.49 940.13 605.46
00005195 DELETE   603.35 124.47 448.95 637.47 729.25 394.76 940.77 374.14 858.91 520.86 782.05 625.66 951.54 606.44
00005196 00000068 606.07 123.63 445.97 641.32 734.06 395.91 944.39 372.15 866.97 521.42 787.50 625.99 956.88 604.35
00005197 00000069 606.72 126.68 446.20 636.70 737.26 395.00 947.39 370.17 873.48 519.15 789.93 622.59 960.63 600.25
00005198 00000070 607.10 127.23 447.22 633.89 741.49 397.39 951.42 372.08 880.07 519.19 794.28 623.37 965.25 600.49
00005199 00000071 609.18 124.28 447.89 634.77 744.57 400.18 955.13 373.89 885.13 522.22 798.55 624.59 970.12 600.66
00005200 00000072 611.01 123.81 447.73 634.61 748.38 399.70 957.58 372.96 889.94 520.65 804.07 625.56 972.16 601.11
00005201 00000073 614.73 121.70 443.42 636.58 755.68 400.61 959.12 375.03 895.20 517.26 809.60 624.88 971.53 601.56
00005202 00000074 620.21 107.34 435.19 652.38 762.03 403.17 961.98 376.03 895.01 516.55 807.66 621.93 969.61 598.37
00005203 00000075 621.88 105.75 436.03 651.47 765.05 397.08 965.82 372.42 897.35 511.93 809.67 619.88 970.26 598.55
00005204 00000076 625.43 110.39 432.24 646.28 767.31 394.66 968.59 370.47 901.36 508.39 812.90 618.15 974.40 597.15
00005205 00000077 625.11 106.85 430.61 647.02 767.50 396.27 968.42 369.65 903.37 509.43 814.14 617.20 976.47 593.88
00005206 DELETE   623.21 108.07 429.88 643.53 763.23 398.67 966.11 371.10 899.25 513.99 812.39 620.74 972.04 596.80
00005207 DELETE   609.60 111.32 436.92 647.45 751.63 397.19 958.29 368.67 892.96 518.06 803.01 624.41 965.24 600.53
00005208 DELETE   602.29 127.91 440.79 635.87 736.92 394.18 943.66 368.98 877.15 517.29 798.61 629.83 958.47 606.86
00005209 00000081 595.64 128.19 442.83 635.82 730.14 395.47 937.17 369.43 870.73 521.87 791.44 631.65 953.49 608.11
00005210 00000082 595.33 132.50 442.09 631.08 730.09 397.80 936.84 369.99 871.37 524.67 792.76 632.63 954.76 607.66
00005211 00000083 596.21 135.51 442.60 629.27 730.63 399.02 938.27 369.96 873.09 528.29 794.65 634.77 955.99 608.70
00005212 00000084 595.17 134.05 444.38 631.09 729.80 401.66 937.41 371.97 872.29 531.14 795.50 637.79 954.97 611.14
00005213 00000085 592.85 136.32 444.59 630.60 725.97 405.57 930.75 374.87 866.20 533.25 792.93 640.20 950.71 613.00
00005214 00000086 590.71 135.07 443.87 633.56 721.97 410.07 924.77 379.30 859.24 535.02 788.55 641.98 947.10 615.22
00005215 00000087 592.28 136.80 443.07 630.57 722.18 408.85 924.19 379.20 858.06 535.57 788.43 642.07 945.69 616.06
00005216 00000088 594.92 135.93 444.88 631.40 726.49 406.12 931.32 376.04 863.99 535.40 793.62 641.14 950.71 614.31
00005217 00000089 597.09 134.74 448.05 630.36 731.36 405.25 940.72 373.90 872.37 535.27 797.67 641.16 958.17 613.11
00005218 00000090 602.80 131.43 446.99 632.86 736.80 406.05 946.50 375.45 877.27 536.29 800.55 640.03 962.28 612.65
00005219 00000091 605.35 128.36 447.29 639.52 740.26 406.87 948.73 377.29 879.06 535.72 799.37 638.60 962.92 612.37
00005220 DELETE   606.55 127.07 449.77 639.29 741.51 407.33 951.10 378.89 880.30 536.80 799.63 638.86 964.47 613.50
00005221 00000093 610.50 126.18 447.10 640.65 745.29 406.83 953.87 378.17 883.74 537.29 801.42 639.61 966.21 614.13
00005222 00000094 614.76 125.27 445.24 641.50 751.12 405.81 960.14 378.09 890.77 533.94 809.05 639.77 971.05 614.67
00005223 00000095 617.17 126.04 444.32 638.32 753.96 406.87 963.11 378.62 893.12 535.59 812.36 641.54 973.05 615.98
00005224 00000096 615.83 128.34 445.52 636.13 752.15 408.19 961.68 379.60 891.17 538.06 811.60 643.04 971.30 617.28
00005225 00000097 613.36 133.77 443.89 630.97 748.63 412.58 957.04 381.98 888.08 541.03 810.06 646.59 967.65 619.12
00005226 00000098 609.36 138.70 444.61 631.66 745.82 414.82 952.40 383.04 885.72 545.87 804.52 646.52 964.99 618.98
00005227 00000099 605.21 142.75 445.87 627.57 742.63 415.01 949.70 383.40 882.09 546.27 801.92 645.94 962.69 618.73
00005228 00000100 601.57 142.95 446.49 627.63 738.27 415.44 946.00 384.73 877.35 545.56 798.06 646.10 958.82 619.54
00005229 00000101 600.47 146.32 445.54 623.11 734.70 415.61 942.59 386.34 872.78 543.96 792.85 644.13 955.29 618.95
00005230 00000102 601.37 142.34 443.26 626.29 737.45 419.27 941.57 391.35 873.68 543.40 793.87 643.33 954.81 619.26
00005231 00000103 625.51 112.26 434.04 632.54 761.16 394.05 965.59 368.85 891.35 515.30 804.24 613.25 968.10 591.58
00005232 00000104 624.74 121.46 439.33 622.32 758.04 390.02 968.01 365.80 894.68 510.21 804.81 612.00 977.32 589.88
00005233 00000105 627.71 115.50 432.42 630.92 762.55 394.71 966.97 370.10 892.40 516.06 803.66 612.63 969.91 591.46
00005234 00000106 627.29 115.18 433.47 630.77 762.94 394.96 966.87 369.84 892.71 515.71 804.75 612.57 970.13 590.90
00005235 00000107 624.38 121.50 440.39 619.24 759.39 389.98 968.65 364.86 895.81 508.68 807.13 610.15 978.64 586.75
00005236 00000108 624.56 122.13 440.17 620.55 758.68 390.97 967.75 365.75 894.52 511.19 805.57 610.82 978.51 587.66
00005237 00000109 624.44 123.15 440.08 621.78 758.39 391.66 967.89 368.52 893.94 511.37 803.66 612.02 976.66 590.72
00005238 00000110 624.23 122.42 441.01 626.71 758.28 391.67 967.78 368.57 894.32 512.58 803.05 613.56 976.26 592.48
00005239 00000111 622.69 124.58 441.83 622.80 758.00 390.55 968.69 367.81 894.38 511.77 801.39 611.90 976.20 590.81
00005240 00000112 622.41 122.49 441.33 622.75 758.56 390.15 968.59 368.28 894.92 511.02 799.66 609.25 975.68 588.98
00005241 00000113 622.06 122.11 442.12 624.47 758.34 390.31 968.47 368.05 894.69 510.99 799.29 609.15 976.17 588.54
00005242 00000114 622.30 121.01 441.73 627.01 758.38 390.58 968.87 368.70 894.75 511.88 799.73 610.45 976.27 590.13
00005243 00000115 622.82 124.11 441.58 623.37 758.42 390.95 968.58 367.81 895.06 512.72 801.19 611.02 976.91 589.65
00005244 00000116 624.39 125.55 440.82 619.22 758.58 390.95 970.37 368.00 895.00 513.77 802.76 612.17 978.11 590.88
00005245 00000117 624.00 122.94 441.50 621.77 758.46 391.47 969.84 367.46 895.12 516.18 805.17 613.27 979.29 590.73
00005246 00000118 624.72 120.80 441.14 623.06 758.97 392.05 969.42 366.61 895.18 517.53 807.06 613.70 980.01 589.95
00005247 00000119 623.50 121.96 441.56 626.01 759.49 391.73 966.24 366.07 895.01 518.51 810.27 615.74 975.69 591.99
00005248 00000120 622.00 128.01 441.90 620.93 757.44 392.13 965.49 366.95 892.55 518.06 805.90 614.93 974.95 591.75
00005249 00000121 621.15 126.06 442.30 620.24 756.04 392.73 963.70 366.83 891.33 516.09 805.03 613.23 976.27 589.29
00005250 00000122 620.66 115.67 438.33 634.74 758.23 393.95 962.16 368.74 888.36 518.66 799.96 611.85 967.35 590.11
00005251 00000123 617.71 109.64 440.63 642.45 756.91 393.80 960.97 368.45 887.74 517.66 797.19 611.23 966.25 589.45
00005252 00000124 618.14 111.38 439.21 640.90 755.22 393.52 959.78 367.83 886.19 516.92 794.43 610.21 965.53 588.38
00005253 00000125 617.77 109.20 439.26 644.37 754.02 392.55 959.86 367.40 886.07 515.83 793.15 611.77 964.16 590.60
00005254 00000126 616.52 116.66 444.30 635.14 751.25 390.71 959.83 365.12 888.99 509.63 799.25 614.17 972.15 591.05
00005255 00000127 617.87 109.84 439.41 643.65 754.66 393.30 959.72 367.10 887.09 514.28 796.99 613.75 964.32 591.41
00005256 00000128 617.88 108.90 438.50 642.18 755.88 394.41 960.88 368.08 888.39 514.67 797.87 613.50 964.77 591.11
00005257 00000129 620.11 111.55 437.10 637.50 758.26 394.13 962.65 367.58 890.55 514.59 802.81 614.30 967.09 591.49
00005258 00000130 621.45 110.95 436.27 635.13 761.23 394.56 964.15 366.50 893.72 514.92 807.40 613.25 970.73 589.00
00005259 00000131 623.22 115.05 435.14 631.49 761.63 392.74 964.59 366.12 893.14 513.27 806.87 612.68 970.49 589.64
00005260 00000132 620.17 109.99 437.24 634.61 759.04 390.77 962.65 362.41 892.02 510.55 805.33 609.84 970.37 585.67
00005261 00000133 618.17 105.99 438.63 634.74 757.34 386.91 961.27 360.24 890.29 507.77 804.62 607.70 967.52 585.06
00005262 00000134 619.13 106.50 437.20 637.55 757.11 382.62 960.83 356.14 890.18 503.85 804.68 607.32 967.01 585.04
00005263 00000135 621.71 113.51 438.59 629.17 755.49 377.67 964.08 350.70 892.44 494.10 807.66 608.14 972.49 583.14
00005264 00000136 621.58 100.36 436.92 643.89 757.33 377.85 962.41 351.06 891.05 495.77 804.82 606.66 966.94 584.21
00005265 00000137 620.46 98.56 436.86 643.26 756.18 375.78 960.76 348.69 890.04 493.25 803.24 604.20 965.22 581.43
00005266 00000138 619.93 93.12 435.78 640.72 754.68 373.89 956.98 345.78 887.28 490.04 802.39 598.57 963.65 574.93
00005267 00000139 617.69 92.82 436.19 634.49 753.79 371.07 954.41 341.94 886.00 488.79 801.12 591.97 962.41 567.49
00005268 00000140 615.76 88.88 437.73 632.61 751.09 367.46 951.57 338.14 882.35 485.34 797.68 585.02 960.88 560.64
00005269 00000141 611.23 87.99 440.37 627.06 746.19 362.37 948.48 331.70 879.39 483.08 792.11 577.20 960.19 552.08
00005270 00000142 608.05 85.21 441.84 619.79 741.49 359.29 944.16 327.24 873.83 476.19 790.36 569.88 961.69 543.40
00005271 00000143 605.72 80.43 443.52 618.94 736.90 355.71 935.09 324.10 865.07 467.64 788.26 564.13 954.75 537.64
00005272 00000144 601.42 84.47 444.10 609.86 727.04 352.54 925.39 317.83 853.80 461.39 783.84 560.91 950.13 531.71
00005273 00000145 601.44 81.63 441.49 611.21 720.75 351.05 916.31 314.30 844.96 455.58 782.52 559.12 946.93 528.13
00005274 00000146 602.35 76.93 439.10 615.51 717.30 352.35 910.44 313.88 839.38 455.19 780.96 558.83 945.12 526.38
00005275 00000147 599.13 77.75 440.67 615.16 712.14 353.86 904.51 311.53 834.41 452.72 779.62 558.42 945.01 522.97
00005276 00000148 597.68 78.72 441.57 611.07 707.81 353.75 899.62 307.68 830.09 449.17 780.31 557.32 945.05 518.39
00005277 00000149 592.59 76.69 443.98 611.82 701.70 354.40 892.91 305.24 823.30 447.64 776.02 554.75 943.80 513.44
00005278 00000150 591.55 79.10 444.49 603.71 699.43 352.69 890.80 304.38 818.76 446.99 773.41 552.44 941.86 511.68
00005279 00000151 596.04 79.80 444.65 603.29 703.33 350.71 893.50 302.56 822.54 444.58 776.34 549.81 944.24 508.81
00005280 00000152 604.21 80.00 444.11 606.78 712.86 346.24 905.57 300.36 834.04 444.31 783.97 550.60 951.96 511.26
00005281 00000153 613.54 81.88 444.12 605.08 728.33 346.72 920.17 301.33 850.10 445.78 796.79 550.31 963.25 510.73
00005282 00000154 617.61 80.16 446.02 608.89 737.66 349.00 931.53 303.76 862.08 448.50 803.09 552.19 969.73 513.30
00005283 00000155 616.71 81.87 446.25 607.90 736.32 351.19 928.63 305.63 859.20 450.37 800.87 552.69 967.42 513.67
00005284 00000156 614.97 80.82 443.43 609.10 730.51 352.71 920.15 309.45 848.99 452.25 795.76 554.78 958.49 517.29
00005285 00000157 611.72 79.70 439.49 609.81 721.31 354.88 913.39 310.70 841.45 453.91 789.54 558.04 954.59 520.27
00005286 00000158 607.65 76.20 440.71 613.80 718.58 356.91 909.81 313.43 839.07 456.44 786.83 559.27 951.00 522.44
00005287 00000159 603.10 77.55 442.66 612.64 714.14 357.45 906.71 313.53 835.45 458.37 783.53 559.76 948.96 522.80
00005288 00000160 599.89 80.46 444.76 611.80 709.98 359.08 902.30 312.78 831.84 456.99 780.38 559.89 947.35 520.82
00005289 00000161 595.56 75.58 443.54 618.11 705.23 359.30 897.14 313.02 827.41 458.47 777.33 560.18 945.47 520.86
00005290 00000162 593.33 75.91 441.86 616.40 703.15 360.93 896.25 313.56 826.27 458.84 775.27 560.43 944.74 520.60
00005291 00000163 592.99 77.10 442.86 615.21 705.29 361.50 897.36 313.43 829.46 457.91 778.89 561.69 945.29 521.52
00005292 00000164 597.52 76.44 437.31 613.73 713.82 364.81 901.85 322.07 836.40 459.60 780.84 559.03 945.69 523.93
00005293 DELETE   602.18 80.07 434.22 606.31 723.75 366.72 908.82 328.24 844.16 457.06 786.45 557.46 946.64 526.19
00005294 DELETE   607.27 82.85 432.59 605.56 730.88 364.77 915.13 327.04 851.36 454.92 790.85 556.78 949.52 525.56
CROP_BBOX: 261 0 1468 1080
