Video ID: 	OaYtbcW1HoE
H: 	2160
W: 	3840
FPS: 	25.0

FRAME INDEX X0 Y0 W H [Landmarks (5 Points)]

00081060 00000000 1842.52 301.59 381.55 547.46 1913.36 538.23 2066.48 562.85 1928.22 644.44 1907.37 725.05 2025.23 744.31
00081061 00000001 1841.07 305.54 380.42 544.96 1911.73 540.50 2063.87 563.43 1927.90 645.51 1907.00 727.04 2023.29 745.06
00081062 00000002 1838.73 311.17 377.46 541.52 1909.90 541.12 2059.79 564.86 1926.86 648.29 1907.03 728.72 2021.52 746.80
00081063 00000003 1836.96 310.99 379.52 544.39 1907.77 541.43 2059.87 566.15 1925.02 653.22 1905.45 731.27 2021.55 749.89
00081064 00000004 1836.33 309.65 380.00 549.06 1906.43 543.37 2057.57 568.58 1923.45 656.48 1904.48 734.62 2018.96 753.20
00081065 00000005 1836.77 311.18 376.62 548.89 1905.94 544.25 2057.47 569.95 1923.42 658.84 1905.01 736.60 2019.61 755.40
00081066 00000006 1836.34 312.82 376.48 548.51 1905.93 545.91 2058.70 570.66 1924.74 660.09 1904.58 738.33 2020.29 756.62
00081067 00000007 1837.67 312.80 377.59 549.01 1906.92 546.49 2060.51 571.41 1926.05 662.27 1905.57 739.69 2022.19 758.08
00081068 00000008 1839.66 316.06 375.06 546.19 1908.45 546.71 2062.78 571.65 1928.31 663.28 1906.66 740.71 2023.93 759.18
00081069 00000009 1843.01 316.11 375.87 546.49 1910.88 547.54 2067.86 571.12 1932.27 662.64 1908.83 741.57 2026.74 759.59
00081070 00000010 1847.33 310.76 375.28 550.20 1914.69 547.50 2071.98 570.59 1935.75 662.06 1913.54 740.68 2029.96 758.20
00081071 00000011 1851.37 308.06 375.85 549.80 1920.53 548.15 2076.92 572.53 1942.82 659.57 1915.90 737.56 2032.24 756.00
00081072 00000012 1854.86 309.96 379.25 546.40 1925.28 547.04 2084.19 575.00 1948.13 657.88 1917.01 734.02 2035.43 755.60
00081073 DELETE   1856.39 308.65 381.60 546.68 1929.38 552.67 2086.75 577.32 1954.84 656.01 1919.88 733.66 2037.82 752.93
00081074 DELETE   1861.65 308.69 380.75 542.87 1934.38 555.82 2091.06 578.96 1960.29 652.91 1924.61 733.25 2040.10 751.78
00081075 DELETE   1863.71 308.21 382.50 541.33 1937.79 555.15 2099.00 578.18 1970.03 650.65 1929.82 730.30 2048.80 749.29
00081076 00000016 1872.17 309.26 384.10 539.27 1940.59 543.99 2106.56 567.07 1981.05 648.12 1935.89 727.16 2055.57 747.42
00081077 00000017 1876.33 304.74 385.85 542.79 1945.61 541.72 2108.20 563.96 1984.29 645.55 1939.42 724.79 2059.39 744.48
00081078 00000018 1880.56 305.53 383.73 541.63 1949.87 542.22 2111.54 562.54 1989.36 643.31 1942.30 724.83 2063.02 743.20
00081079 00000019 1882.31 303.33 383.50 543.42 1952.80 540.24 2113.37 558.38 1994.02 641.09 1946.30 724.49 2067.00 740.95
00081080 00000020 1883.64 300.67 383.00 545.16 1954.12 538.37 2115.69 555.49 1997.60 640.39 1948.81 723.62 2071.69 739.07
00081081 00000021 1883.57 300.25 382.89 546.24 1955.67 537.75 2117.61 553.48 2001.61 640.41 1950.76 723.41 2075.94 737.96
00081082 00000022 1884.52 300.86 380.22 544.92 1956.88 537.61 2118.80 553.03 2003.68 640.27 1952.55 721.04 2080.36 735.46
00081083 00000023 1884.86 300.66 379.92 544.20 1957.81 537.90 2120.16 553.04 2005.46 640.49 1952.75 720.37 2083.38 734.60
00081084 00000024 1884.55 300.96 380.07 544.30 1957.74 538.56 2121.42 553.23 2006.85 640.80 1952.97 720.93 2085.21 734.87
00081085 00000025 1884.26 300.87 380.91 543.87 1958.00 538.96 2122.46 553.11 2007.63 639.78 1952.63 721.00 2087.21 734.52
00081086 00000026 1882.93 301.18 382.31 543.01 1957.28 539.27 2123.23 553.12 2008.70 638.82 1952.47 721.88 2088.56 735.21
00081087 00000027 1881.08 299.11 383.82 545.67 1955.69 539.46 2123.06 552.79 2009.38 639.40 1952.02 724.53 2087.64 737.66
00081088 00000028 1879.32 300.81 384.89 544.70 1953.88 540.35 2124.37 553.33 2010.48 640.43 1950.80 725.99 2089.15 739.12
00081089 00000029 1877.22 303.52 387.05 543.58 1952.30 541.19 2124.32 554.63 2010.93 641.19 1950.90 728.23 2087.34 741.79
00081090 00000030 1876.46 302.93 388.73 544.87 1951.45 542.42 2123.49 555.22 2010.90 642.42 1952.89 729.90 2086.56 742.74
00081091 00000031 1876.81 304.30 386.25 545.06 1950.75 541.72 2120.65 555.90 2007.37 643.37 1951.31 728.62 2082.94 742.65
00081092 00000032 1875.74 304.53 386.39 544.90 1949.83 541.22 2119.90 555.86 2005.03 642.45 1948.85 727.93 2081.44 742.44
00081093 00000033 1875.81 300.86 385.81 547.94 1949.96 539.99 2118.72 554.55 2003.70 640.72 1948.88 727.33 2079.85 741.78
00081094 00000034 1875.30 299.02 385.84 551.42 1949.76 539.06 2118.60 553.61 2003.90 638.86 1949.86 728.29 2079.58 742.76
00081095 00000035 1874.01 298.44 387.72 560.07 1950.40 537.33 2117.62 551.99 2000.93 635.32 1946.57 729.00 2079.71 743.96
00081096 00000036 1870.73 299.67 390.16 557.96 1947.06 537.20 2117.45 551.63 1998.84 636.49 1942.69 727.89 2081.97 742.91
00081097 00000037 1869.45 298.88 390.96 553.79 1943.84 537.20 2116.58 554.04 1993.56 638.40 1937.81 725.00 2079.76 741.88
00081098 00000038 1868.52 301.07 390.15 547.06 1942.04 537.63 2113.91 555.49 1990.95 640.46 1935.87 722.81 2076.51 740.54
00081099 00000039 1857.79 298.26 395.52 547.23 1939.52 540.32 2113.31 564.05 1982.09 637.16 1930.94 721.95 2068.78 742.29
00081100 00000040 1854.32 299.39 396.56 548.88 1936.09 542.39 2109.09 565.66 1978.41 639.76 1928.77 723.61 2066.44 743.65
00081101 00000041 1851.12 298.37 395.85 548.50 1933.13 542.80 2105.71 566.59 1973.76 639.54 1923.27 722.40 2062.45 743.09
00081102 00000042 1850.62 298.87 391.52 543.75 1931.45 537.64 2101.00 562.17 1968.42 636.12 1919.07 718.70 2056.79 739.90
00081103 00000043 1847.69 292.92 391.25 547.66 1929.34 532.71 2095.93 558.72 1962.68 633.38 1915.89 715.05 2049.45 737.30
00081104 00000044 1844.60 288.89 390.47 550.11 1925.85 530.15 2091.47 555.82 1958.30 628.71 1911.85 712.18 2045.59 734.38
00081105 00000045 1843.15 283.85 388.94 552.57 1921.70 527.61 2086.54 553.42 1952.59 623.04 1908.03 708.97 2040.01 731.50
00081106 00000046 1841.02 283.64 387.73 550.03 1919.49 525.39 2082.02 550.91 1948.37 618.00 1904.84 704.06 2035.31 726.47
00081107 00000047 1834.50 292.01 388.39 539.66 1914.47 526.13 2079.26 549.81 1948.15 614.15 1900.40 702.41 2028.21 724.00
00081108 00000048 1838.70 291.96 380.42 539.02 1914.07 527.74 2074.86 547.21 1943.89 613.66 1901.41 705.88 2021.85 722.11
00081109 00000049 1838.60 287.75 376.01 541.93 1912.27 522.25 2067.92 542.71 1935.92 611.94 1897.85 703.66 2014.36 720.34
00081110 00000050 1833.73 287.03 378.34 542.81 1909.59 519.31 2064.70 541.21 1931.41 609.91 1893.67 701.77 2008.75 719.60
00081111 00000051 1829.29 286.04 380.81 544.99 1906.81 518.45 2060.97 541.26 1926.72 609.09 1889.23 701.20 2003.05 719.77
00081112 00000052 1824.08 287.58 382.77 543.76 1902.76 520.29 2058.13 541.48 1923.01 609.42 1885.84 703.76 1998.95 721.14
00081113 00000053 1823.29 289.45 377.59 545.55 1899.32 521.37 2054.55 543.03 1917.53 612.07 1882.10 707.51 1995.77 724.88
00081114 00000054 1818.46 287.02 381.96 550.06 1898.09 522.53 2050.67 545.18 1914.86 616.16 1880.31 708.69 1993.14 728.36
00081115 00000055 1815.67 288.24 382.57 553.48 1894.84 525.19 2046.92 547.03 1909.52 618.48 1877.93 711.75 1993.83 730.48
00081116 00000056 1812.59 291.86 384.42 552.43 1892.61 527.76 2046.99 549.45 1909.19 621.04 1875.59 714.75 1993.85 733.66
00081117 00000057 1811.37 290.29 386.35 555.72 1890.98 530.30 2044.76 551.83 1907.50 623.50 1873.95 716.01 1992.90 734.59
00081118 00000058 1816.41 296.38 384.05 548.36 1881.50 529.37 2039.73 548.35 1907.71 624.82 1870.62 716.37 1997.06 732.39
00081119 00000059 1815.96 299.61 385.36 547.52 1881.15 530.09 2039.24 549.55 1906.38 627.22 1870.98 717.86 1996.03 734.14
00081120 00000060 1814.79 302.44 386.56 547.72 1880.59 531.48 2039.89 550.36 1906.03 628.59 1870.60 719.01 1997.66 735.09
00081121 00000061 1815.84 301.96 386.23 550.66 1881.69 533.66 2040.79 551.86 1907.90 631.01 1872.14 719.49 2002.48 734.84
00081122 00000062 1816.18 304.51 388.51 553.88 1882.61 537.49 2042.30 552.54 1911.08 632.91 1875.34 723.96 2007.06 736.51
00081123 00000063 1812.70 302.60 388.33 559.07 1892.56 543.65 2047.04 561.14 1911.09 637.52 1880.01 730.65 2003.88 745.35
00081124 00000064 1818.91 302.03 384.34 559.77 1895.96 545.30 2048.19 563.09 1913.17 644.18 1886.18 734.59 2001.90 748.77
00081125 00000065 1822.89 307.69 381.02 556.19 1896.17 547.53 2047.97 566.30 1913.76 650.45 1887.78 737.35 2002.96 752.00
00081126 00000066 1827.72 314.07 375.35 560.76 1894.27 549.96 2047.80 568.84 1912.57 660.55 1891.48 748.35 2004.51 762.83
00081127 00000067 1831.01 327.68 373.34 557.88 1893.18 552.87 2045.91 575.62 1910.72 666.65 1891.48 753.04 2006.01 770.20
00081128 00000068 1833.26 328.77 370.03 560.81 1893.15 553.00 2046.03 578.33 1909.55 669.15 1891.06 754.22 2006.44 773.22
00081129 00000069 1829.23 328.09 372.51 556.36 1891.51 551.64 2044.54 578.45 1907.76 666.30 1886.87 748.75 2006.03 768.89
00081130 00000070 1826.75 323.89 375.62 556.51 1892.93 550.91 2046.83 576.65 1909.80 662.43 1885.22 746.61 2004.74 766.31
00081131 00000071 1826.80 319.63 375.68 559.05 1896.40 548.98 2048.88 573.94 1913.54 660.31 1886.68 745.81 2005.06 765.15
00081132 00000072 1829.41 318.01 376.82 555.98 1899.64 548.05 2053.25 570.89 1917.75 658.50 1891.17 743.68 2010.18 761.36
00081133 00000073 1831.39 317.71 377.78 553.75 1902.11 547.13 2057.25 569.29 1921.75 658.59 1895.13 744.49 2013.65 761.91
00081134 00000074 1833.57 315.24 380.17 554.71 1904.29 549.14 2061.21 569.95 1925.55 661.36 1899.27 746.60 2017.43 762.85
00081135 00000075 1835.09 318.61 379.28 552.66 1904.96 549.61 2062.67 570.08 1928.25 663.46 1900.91 747.60 2019.48 763.59
00081136 00000076 1835.75 320.28 378.54 553.56 1904.58 549.32 2062.60 571.40 1927.79 666.05 1900.65 748.67 2019.25 765.76
00081137 00000077 1835.52 323.82 377.39 555.87 1902.83 551.01 2060.26 573.67 1925.80 670.23 1899.07 751.31 2018.49 768.75
00081138 00000078 1835.47 329.83 375.94 555.12 1902.04 552.99 2058.90 576.72 1925.96 674.47 1898.91 754.55 2017.39 772.79
00081139 00000079 1837.99 331.54 374.27 556.03 1900.35 555.32 2058.43 579.65 1924.04 678.69 1899.95 757.89 2019.09 776.06
00081140 00000080 1838.65 332.16 372.57 557.94 1899.23 557.63 2056.57 581.61 1923.51 680.62 1901.12 759.71 2019.58 777.36
00081141 00000081 1838.33 334.35 370.36 557.40 1896.97 559.26 2053.51 582.63 1922.00 681.59 1902.41 760.65 2019.82 777.44
00081142 00000082 1837.14 338.07 370.10 555.38 1895.29 560.64 2051.98 583.52 1920.21 682.20 1902.25 762.42 2019.59 778.71
00081143 00000083 1836.83 336.82 371.31 554.64 1894.65 560.62 2052.22 584.39 1919.76 682.82 1901.22 762.00 2018.59 778.93
00081144 00000084 1836.38 341.44 369.68 548.36 1893.55 561.59 2051.37 585.82 1918.45 682.48 1900.71 761.38 2018.02 778.64
00081145 00000085 1833.41 341.18 372.97 546.80 1891.44 560.70 2049.08 586.74 1915.83 683.03 1897.84 759.41 2014.95 777.86
00081146 00000086 1832.10 336.63 371.28 550.11 1890.24 559.83 2047.41 586.17 1914.01 681.84 1895.12 758.49 2011.93 777.25
00081147 00000087 1831.43 333.25 371.00 552.41 1888.85 560.06 2045.17 585.80 1911.23 680.55 1891.86 759.86 2007.58 778.30
00081148 00000088 1828.21 330.57 371.02 553.15 1887.33 557.74 2043.51 583.23 1909.70 678.44 1889.52 758.15 2003.69 776.68
00081149 00000089 1826.46 326.83 373.38 555.40 1887.17 556.04 2042.42 582.21 1909.18 677.53 1887.96 756.49 2001.93 775.61
00081150 00000090 1826.22 323.61 375.60 560.07 1887.53 556.09 2042.34 581.89 1909.40 677.19 1888.50 756.90 2002.67 775.59
00081151 00000091 1827.36 323.56 372.71 561.64 1888.38 555.32 2042.36 583.33 1908.04 676.92 1887.98 755.91 2002.81 776.12
00081152 00000092 1829.52 322.95 371.11 560.93 1886.85 561.77 2041.97 589.13 1907.62 676.91 1886.33 757.08 2002.75 776.47
00081153 00000093 1830.81 328.26 368.23 553.93 1888.17 562.41 2041.69 591.28 1907.11 676.06 1883.72 755.43 1999.46 776.64
00081154 00000094 1828.24 326.67 370.63 557.67 1887.08 563.75 2040.19 591.25 1906.94 675.95 1883.42 757.19 1997.07 777.28
00081155 00000095 1826.99 327.77 369.79 557.96 1886.20 564.81 2040.58 592.99 1907.57 677.80 1881.19 759.08 1994.63 779.79
00081156 00000096 1824.21 334.56 369.67 550.84 1885.07 567.86 2040.23 596.36 1907.70 680.95 1878.07 760.98 1991.60 782.18
00081157 00000097 1821.77 338.11 374.72 549.83 1881.00 571.90 2033.48 597.83 1904.58 689.43 1878.33 761.24 1990.86 781.70
00081158 00000098 1817.87 338.82 373.57 555.32 1875.84 575.97 2030.97 604.71 1899.37 697.32 1874.12 766.70 1987.06 789.55
00081159 00000099 1816.45 345.09 364.14 556.33 1876.59 578.70 2035.42 610.52 1897.80 696.96 1867.33 775.84 1982.39 799.36
00081160 00000100 1809.95 343.26 374.38 554.88 1870.83 583.70 2029.21 612.36 1893.16 696.69 1866.70 773.92 1982.42 795.07
00081161 00000101 1806.73 336.87 375.91 559.83 1868.40 582.27 2024.92 610.63 1890.61 690.81 1864.59 768.80 1980.41 789.73
00081162 00000102 1810.05 332.74 371.22 560.44 1871.43 579.09 2022.25 604.35 1891.28 684.97 1867.69 768.64 1977.85 787.26
00081163 00000103 1810.67 329.48 370.32 561.72 1872.39 575.16 2021.65 599.99 1890.34 683.05 1867.90 767.00 1977.89 785.09
00081164 00000104 1812.75 328.26 379.54 565.54 1871.85 568.30 2022.54 593.65 1891.88 682.40 1870.64 759.89 1980.73 780.44
00081165 00000105 1814.60 324.56 380.28 570.86 1873.45 569.09 2023.86 593.92 1894.79 682.94 1873.70 759.00 1985.61 779.03
00081166 00000106 1814.45 328.34 373.24 566.42 1874.33 579.26 2024.29 598.96 1895.04 683.53 1874.22 767.35 1988.06 781.18
00081167 00000107 1813.58 332.40 374.69 567.92 1871.66 582.12 2023.36 599.89 1894.56 686.91 1876.83 772.50 1990.22 784.64
00081168 00000108 1809.18 328.87 376.83 578.97 1865.94 579.25 2018.49 598.42 1889.22 691.86 1878.75 777.87 1992.16 790.17
00081169 00000109 1809.57 328.94 374.47 584.63 1863.52 576.42 2018.59 599.09 1883.94 695.76 1875.97 783.55 1990.23 798.08
00081170 00000110 1809.92 333.79 372.05 580.93 1862.55 579.20 2016.05 602.21 1881.03 698.38 1873.30 785.96 1987.76 800.85
00081171 00000111 1808.98 331.35 374.90 582.48 1860.87 579.69 2014.02 604.59 1879.51 700.67 1871.78 786.86 1984.64 803.29
00081172 00000112 1808.33 330.19 374.17 581.40 1860.83 579.26 2014.61 605.06 1879.59 701.57 1870.98 785.70 1985.13 802.90
00081173 00000113 1807.41 331.43 375.59 577.75 1860.52 580.02 2014.62 605.80 1880.11 702.09 1871.45 784.92 1985.50 802.09
00081174 00000114 1807.64 339.01 375.07 567.90 1860.42 579.90 2014.94 606.08 1881.55 704.21 1873.13 784.53 1987.88 802.05
00081175 00000115 1810.38 341.78 372.81 561.68 1861.73 580.84 2014.53 609.02 1881.88 707.07 1876.64 784.24 1987.29 803.18
00081176 00000116 1807.93 346.75 374.59 558.89 1861.01 583.84 2014.55 610.89 1883.49 709.44 1875.10 785.84 1986.14 804.27
00081177 00000117 1807.28 350.36 375.03 557.33 1860.32 585.84 2015.54 612.95 1882.32 713.36 1874.10 789.85 1985.27 808.45
00081178 00000118 1806.27 348.76 375.03 561.54 1858.59 587.43 2014.66 614.29 1880.15 715.30 1871.67 792.30 1984.34 810.79
00081179 00000119 1803.49 352.14 376.54 558.88 1856.71 590.09 2011.01 616.94 1877.38 715.70 1870.64 794.38 1981.10 812.66
00081180 00000120 1802.09 354.09 377.14 558.95 1853.74 591.89 2008.97 617.19 1876.11 716.09 1868.13 795.54 1979.86 812.74
00081181 00000121 1797.98 355.21 378.22 560.25 1852.14 590.58 2006.83 618.21 1874.96 718.82 1866.54 797.19 1978.09 816.04
00081182 00000122 1797.14 358.23 376.73 557.55 1850.53 588.71 2004.82 621.45 1867.08 723.26 1864.69 794.90 1977.14 818.03
00081183 00000123 1793.90 361.06 379.03 555.36 1848.74 588.56 2003.34 622.40 1867.58 727.79 1862.92 796.73 1975.34 820.74
00081184 00000124 1794.37 364.20 377.03 553.70 1848.70 592.20 2002.56 623.52 1866.73 728.83 1861.32 799.46 1973.76 821.81
00081185 00000125 1794.69 363.99 375.65 555.14 1847.52 594.08 1999.77 623.72 1864.74 729.34 1860.16 802.12 1972.76 823.08
00081186 00000126 1793.01 362.17 375.43 557.31 1846.31 595.47 1997.92 623.44 1863.74 729.26 1859.61 802.82 1971.74 822.53
00081187 00000127 1791.16 364.52 374.93 553.39 1844.35 594.33 1995.32 622.09 1863.22 726.41 1859.25 800.72 1969.42 820.27
00081188 00000128 1787.16 358.43 379.26 557.48 1841.07 591.44 1994.75 618.46 1861.52 720.86 1859.52 797.58 1969.66 816.62
00081189 00000129 1786.40 353.99 381.06 560.20 1840.92 590.52 1994.21 616.50 1861.59 716.39 1858.90 794.56 1968.48 812.89
00081190 00000130 1787.96 349.78 381.81 561.55 1841.61 587.74 1997.47 614.05 1862.75 714.93 1859.77 792.86 1970.34 811.52
00081191 00000131 1786.83 345.73 384.51 565.42 1842.49 589.29 2000.22 613.88 1870.56 714.14 1860.08 795.65 1970.57 812.00
00081192 00000132 1790.54 351.87 382.57 558.54 1844.11 590.21 2000.12 613.16 1871.29 712.24 1861.36 795.61 1970.48 810.93
00081193 00000133 1791.52 351.85 381.30 556.05 1845.20 591.29 2000.15 613.36 1871.25 712.36 1860.52 796.35 1967.33 811.15
00081194 00000134 1792.75 346.65 381.71 560.07 1847.25 589.43 2001.62 613.20 1871.71 712.19 1859.08 795.37 1965.20 811.57
00081195 00000135 1791.75 345.34 382.19 559.18 1847.95 586.08 2004.84 610.27 1873.42 712.21 1858.68 794.27 1966.81 811.09
00081196 00000136 1794.17 345.94 381.29 555.30 1851.61 585.08 2007.89 609.54 1877.69 710.41 1862.19 790.99 1970.60 808.08
00081197 00000137 1799.63 345.32 378.18 555.28 1855.92 583.50 2013.18 607.80 1881.19 708.92 1868.97 788.30 1979.64 804.94
00081198 00000138 1807.85 344.56 372.56 556.00 1860.95 584.14 2017.74 607.42 1885.62 709.29 1877.02 786.87 1989.33 802.29
00081199 00000139 1809.54 344.47 375.44 561.78 1865.20 583.29 2023.23 603.99 1890.21 707.86 1879.75 788.63 1993.13 802.25
00081200 00000140 1813.08 340.71 373.03 570.21 1869.40 582.64 2030.10 600.09 1895.63 703.93 1883.79 788.54 2001.51 799.89
00081201 00000141 1816.05 340.67 375.69 570.74 1878.95 579.34 2036.20 600.17 1902.90 698.79 1884.71 783.06 2002.94 797.58
00081202 00000142 1819.15 341.09 376.59 567.98 1882.73 577.80 2043.72 599.03 1910.26 698.33 1888.86 781.29 2009.21 796.35
00081203 00000143 1822.74 343.82 374.38 561.41 1884.76 579.16 2044.82 598.40 1912.08 697.04 1892.74 780.48 2011.14 794.19
00081204 00000144 1824.15 341.27 369.40 561.71 1882.63 579.20 2040.18 599.63 1908.36 698.86 1891.51 780.27 2006.96 794.55
00081205 00000145 1819.13 346.73 369.99 552.99 1876.89 577.59 2031.10 601.58 1899.34 699.46 1884.41 777.94 1998.00 794.81
00081206 00000146 1813.20 341.80 373.50 555.32 1867.50 579.42 2023.01 603.95 1890.03 703.87 1880.85 777.97 1992.57 794.51
00081207 00000147 1812.49 340.46 369.00 563.76 1864.41 579.32 2018.29 604.40 1884.95 705.62 1878.58 783.21 1991.32 799.72
00081208 00000148 1809.42 344.31 372.35 570.95 1861.71 581.52 2015.49 605.35 1881.67 706.13 1877.79 793.32 1984.92 808.94
00081209 00000149 1804.93 338.89 374.21 576.36 1859.09 583.04 2011.04 605.64 1879.03 705.83 1872.98 795.95 1977.07 810.76
00081210 00000150 1798.06 337.91 377.73 577.27 1854.56 584.04 2004.45 604.11 1874.38 704.10 1865.94 795.57 1968.69 808.70
00081211 00000151 1795.19 340.48 377.68 573.52 1849.02 581.81 1997.79 604.10 1868.70 702.16 1859.54 792.47 1962.10 807.39
00081212 00000152 1789.46 338.65 378.97 573.72 1843.24 582.16 1993.09 603.82 1862.68 697.76 1852.10 790.67 1956.36 805.45
00081213 00000153 1785.58 337.85 375.00 577.69 1840.12 580.60 1988.87 602.61 1859.92 697.57 1851.04 791.50 1956.44 806.27
00081214 00000154 1777.15 329.95 384.86 590.35 1836.93 577.44 1985.54 603.51 1853.15 701.27 1853.85 787.61 1958.19 806.28
00081215 00000155 1774.30 334.53 383.57 588.17 1834.15 579.53 1982.80 604.83 1850.74 703.46 1853.40 789.69 1959.45 807.64
00081216 00000156 1772.10 335.91 382.48 582.28 1830.69 578.14 1979.25 605.99 1847.41 705.47 1848.99 785.57 1957.12 805.15
00081217 00000157 1769.64 333.60 382.94 580.13 1828.37 578.44 1975.91 607.22 1843.42 705.19 1843.49 782.55 1952.43 802.81
00081218 00000158 1769.71 340.34 371.06 569.16 1825.46 583.00 1972.89 607.73 1845.19 703.57 1840.26 786.40 1949.12 802.44
00081219 00000159 1768.73 342.72 370.64 565.76 1823.25 583.77 1970.26 607.50 1843.30 703.45 1839.63 786.44 1948.23 801.61
CROP_BBOX: 1569 66 2464 1050
