Video ID: 	HknUEo1YEms
H: 	1080
W: 	1920
FPS: 	25.0

FRAME INDEX X0 Y0 W H [Landmarks (5 Points)]

00004157 00000000 549.40 195.21 360.49 558.03 701.37 392.49 853.38 376.81 823.61 523.09 741.94 614.54 857.83 599.75
00004158 DELETE   549.10 191.54 362.08 554.09 700.88 389.38 852.72 374.55 822.79 518.46 740.49 608.18 856.76 594.23
00004159 00000002 549.81 191.86 363.29 549.91 701.60 391.68 856.40 375.03 823.98 524.48 737.85 605.24 860.28 589.70
00004160 00000003 550.16 190.07 366.00 549.64 701.40 395.98 859.50 377.39 824.75 529.97 738.18 607.25 862.56 590.30
00004161 00000004 551.94 193.81 365.67 547.49 702.22 400.83 861.60 381.89 825.00 533.84 739.79 610.86 863.76 593.89
00004162 00000005 551.68 197.96 366.21 543.15 701.81 404.72 860.49 385.41 824.51 536.38 738.82 611.20 862.97 594.30
00004163 00000006 551.49 196.24 365.21 544.11 701.08 405.29 859.18 385.30 823.27 534.52 737.12 610.02 862.42 592.80
00004164 00000007 550.75 196.89 365.18 541.83 702.21 403.37 859.93 384.53 823.29 534.09 736.91 608.69 860.59 592.43
00004165 00000008 550.01 197.08 364.54 539.64 700.80 402.96 858.26 383.46 821.17 533.24 735.63 607.39 859.69 590.71
00004166 00000009 549.04 196.69 362.77 540.30 698.12 403.92 856.15 383.74 819.36 534.58 734.02 608.19 859.03 591.13
00004167 00000010 548.32 200.72 361.10 538.47 697.63 406.01 854.55 385.68 818.75 536.33 733.61 610.92 856.99 593.95
00004168 00000011 546.67 215.47 369.24 531.93 698.95 410.63 857.83 394.69 820.33 540.28 737.14 609.04 856.98 595.82
00004169 00000012 547.25 219.14 368.95 529.88 699.36 413.77 858.36 397.81 820.64 545.82 737.48 612.02 857.26 598.92
00004170 00000013 543.72 213.42 365.72 537.28 698.68 414.59 854.33 393.71 822.11 546.27 733.05 618.06 858.45 600.76
00004171 00000014 546.97 227.27 370.91 524.25 698.76 416.17 859.70 400.05 821.55 550.55 736.45 614.65 859.56 601.82
00004172 00000015 543.57 220.69 366.60 535.13 699.10 417.46 856.70 396.38 824.66 550.70 735.29 622.11 861.64 604.69
00004173 00000016 548.34 231.41 368.58 523.99 700.65 420.22 859.76 404.00 822.92 555.07 738.13 619.39 860.56 606.75
00004174 00000017 549.00 230.54 368.28 525.66 702.23 422.79 860.78 405.66 823.81 557.19 738.55 620.96 861.21 607.70
00004175 00000018 544.43 224.74 367.84 537.59 699.49 424.20 860.40 402.61 826.76 560.09 733.55 627.33 864.32 609.50
00004176 00000019 544.51 227.59 366.83 537.96 697.54 432.81 859.81 408.50 825.78 563.82 731.54 630.76 865.20 610.78
00004177 00000020 546.44 227.47 373.13 540.45 694.21 439.81 859.98 416.40 822.02 555.23 718.24 633.14 864.16 614.48
00004178 00000021 545.06 234.11 373.85 542.08 693.40 446.52 858.62 424.08 819.87 563.37 716.37 639.32 862.90 621.74
00004179 00000022 544.80 232.03 372.79 548.31 690.33 450.67 856.60 429.22 815.95 567.68 712.62 643.65 861.08 626.97
00004180 00000023 543.05 241.27 376.54 543.86 685.71 455.80 854.57 433.32 812.04 573.81 710.80 648.64 862.30 630.83
00004181 00000024 541.53 245.58 377.25 541.52 681.74 460.28 851.90 435.11 810.01 579.74 709.23 652.40 862.12 632.48
00004182 00000025 540.68 251.42 378.53 540.74 681.26 463.76 850.23 438.14 808.34 586.71 708.20 655.21 861.72 634.97
00004183 00000026 540.18 253.61 378.36 541.07 679.85 464.50 850.52 438.17 806.65 589.99 706.79 658.21 860.72 637.27
00004184 00000027 539.89 254.56 378.54 540.51 679.64 465.81 850.43 438.18 807.68 590.98 707.33 659.27 861.44 637.30
00004185 00000028 538.54 252.88 379.92 542.69 679.57 465.93 850.68 437.52 808.89 591.34 707.37 660.10 861.28 637.47
00004186 00000029 540.85 249.37 378.27 541.73 680.41 464.55 853.07 436.92 808.67 591.19 708.11 660.71 861.37 638.74
00004187 00000030 541.88 249.39 378.56 539.70 680.73 463.55 854.39 435.98 808.70 590.83 708.88 659.73 862.92 637.82
00004188 00000031 542.61 249.83 379.61 539.29 681.91 462.63 855.87 435.13 810.86 588.02 710.06 658.12 864.40 636.24
00004189 00000032 545.38 247.24 377.28 538.90 683.90 464.89 857.70 437.40 811.99 588.03 712.17 657.42 866.62 635.57
00004190 DELETE   547.09 246.90 375.63 541.40 689.75 465.87 859.13 441.07 815.32 589.09 713.59 656.34 866.73 636.93
00004191 00000034 546.71 243.82 376.49 543.51 689.11 464.40 860.56 438.89 816.03 586.50 714.39 656.46 868.15 636.40
00004192 00000035 548.12 245.70 375.00 542.38 691.80 463.38 861.02 439.62 816.65 585.37 715.44 655.43 867.20 636.73
00004193 00000036 547.78 250.22 375.45 537.03 692.43 460.15 861.24 436.88 816.23 581.56 716.30 652.87 867.21 634.43
00004194 00000037 547.26 244.32 376.57 541.17 691.45 456.97 861.20 434.25 815.66 579.62 715.07 650.84 866.47 632.92
00004195 00000038 547.30 242.08 377.82 543.02 692.54 453.32 862.22 431.93 815.94 578.34 714.92 648.47 866.57 631.56
00004196 00000039 544.23 236.58 379.03 547.14 698.26 441.27 867.77 428.63 811.85 589.35 717.38 643.47 859.69 632.80
00004197 00000040 545.89 239.85 378.50 542.27 691.76 449.45 860.99 428.37 816.33 574.72 714.98 646.04 865.16 629.37
00004198 00000041 545.29 238.04 379.29 543.34 690.89 446.84 860.50 427.01 815.60 573.35 714.02 644.31 864.26 628.51
00004199 00000042 544.90 235.46 378.79 543.04 689.11 441.56 860.39 421.51 814.11 569.82 714.14 643.60 863.31 627.46
00004200 00000043 545.85 234.55 377.20 542.57 687.37 438.90 860.33 418.67 812.18 567.30 713.26 641.34 863.86 624.91
00004201 00000044 545.54 234.80 376.60 538.11 685.08 436.13 860.70 414.63 811.10 565.14 713.08 639.69 864.21 621.94
00004202 00000045 545.54 229.03 375.19 541.11 683.39 435.00 859.08 413.25 809.52 563.74 711.66 637.40 863.65 619.43
00004203 00000046 543.94 228.41 375.45 539.30 681.48 432.69 857.56 410.74 807.92 561.95 710.36 635.97 861.69 617.66
00004204 00000047 543.11 225.43 374.72 538.98 679.77 430.29 855.71 407.84 807.11 559.75 708.56 633.63 859.64 614.80
00004205 00000048 542.07 222.71 375.25 541.03 679.41 428.91 854.59 405.40 807.23 557.79 708.19 631.82 858.83 612.11
00004206 00000049 540.22 222.93 376.33 539.90 678.37 428.00 853.77 402.30 807.77 555.98 707.57 631.04 858.97 609.60
00004207 00000050 538.56 224.71 377.65 538.15 678.04 425.88 853.23 400.03 807.61 553.68 707.98 630.70 858.10 608.97
00004208 00000051 538.04 223.11 377.25 539.19 677.91 425.12 852.49 399.00 807.64 552.99 707.81 630.61 856.86 608.71
00004209 00000052 538.40 223.45 376.55 539.52 677.77 425.31 852.30 399.33 807.47 553.14 706.66 630.17 856.73 608.46
00004210 00000053 536.99 224.34 376.59 538.75 676.21 426.24 851.79 400.12 806.77 555.67 705.65 630.86 855.98 609.11
00004211 00000054 535.94 225.05 376.33 538.11 674.41 426.30 850.17 401.82 804.37 556.57 703.88 631.08 853.84 610.63
00004212 00000055 534.79 228.57 376.59 534.05 672.92 425.96 848.78 400.84 802.97 557.14 702.43 630.51 852.68 609.65
00004213 00000056 533.47 226.75 375.88 535.18 671.00 424.97 846.35 398.85 800.97 555.54 702.17 630.57 850.56 608.76
00004214 00000057 532.84 222.53 374.39 538.36 670.15 423.02 845.54 396.71 800.86 555.43 700.64 629.03 849.19 607.17
00004215 00000058 531.39 222.54 373.18 536.19 668.99 421.36 842.07 395.46 798.94 552.59 700.30 627.48 845.38 606.03
00004216 00000059 530.63 220.59 371.31 533.71 668.36 420.29 840.69 392.45 799.60 549.62 700.91 624.75 845.11 601.94
00004217 00000060 530.42 223.86 368.53 529.32 668.40 418.60 839.06 390.40 798.56 545.84 701.23 622.43 844.45 599.44
00004218 00000061 529.11 220.82 367.52 531.34 665.33 418.36 835.49 389.34 795.74 543.10 699.85 621.53 842.25 597.88
00004219 00000062 528.28 217.90 366.87 531.53 663.15 417.83 833.44 388.34 793.36 543.12 698.55 619.81 840.49 595.83
00004220 00000063 526.53 215.43 367.40 533.48 661.06 417.49 831.28 386.49 791.06 541.01 697.33 618.88 839.15 593.57
00004221 00000064 525.68 212.78 366.59 534.58 659.41 417.37 829.24 385.06 789.37 540.74 696.80 617.93 838.36 591.59
00004222 00000065 525.87 210.88 366.24 535.41 658.92 417.57 829.14 383.84 790.00 540.47 696.79 618.15 838.09 590.67
00004223 00000066 524.61 210.55 366.00 535.70 658.42 418.56 828.56 385.64 789.40 541.23 696.43 619.48 836.40 592.73
00004224 00000067 526.73 210.64 364.47 535.06 662.07 421.88 831.11 390.27 791.75 544.02 697.18 621.20 835.83 595.82
00004225 00000068 526.33 213.60 362.54 532.04 662.22 428.36 828.77 397.46 790.72 544.92 699.05 624.07 835.15 599.08
00004226 00000069 527.34 213.37 361.32 532.59 661.64 427.82 828.64 398.71 789.06 545.16 699.51 625.77 833.62 602.18
00004227 00000070 526.77 214.49 362.03 531.28 659.37 427.00 827.74 398.82 786.91 545.41 697.98 624.60 833.26 601.68
00004228 00000071 526.20 213.34 362.24 532.62 657.60 426.20 826.16 398.57 785.77 544.97 696.24 624.44 831.33 602.07
00004229 00000072 526.06 213.63 362.19 533.38 656.76 424.70 825.89 398.55 784.06 546.34 693.67 623.39 830.54 602.33
00004230 00000073 526.80 214.79 362.05 533.29 657.96 423.84 826.22 398.76 784.53 546.30 694.91 623.08 831.00 602.85
00004231 00000074 527.91 213.80 360.97 533.26 662.41 426.14 827.91 401.87 786.70 546.33 694.97 624.17 827.85 604.94
00004232 00000075 529.76 214.93 361.01 533.50 664.18 422.70 830.28 399.88 787.35 544.98 695.94 623.74 828.46 605.53
00004233 00000076 528.81 212.60 363.15 538.28 661.37 415.51 830.91 394.97 785.58 542.05 696.51 624.40 827.56 607.42
00004234 00000077 527.19 203.96 367.44 551.61 662.23 413.65 831.23 393.56 787.52 543.21 693.96 622.68 828.16 606.52
00004235 00000078 528.85 204.72 366.26 549.31 661.09 410.96 831.25 391.17 786.82 540.12 696.28 622.62 829.26 606.45
00004236 00000079 528.40 204.02 366.03 550.07 659.65 409.06 830.47 389.42 784.20 540.76 695.49 621.55 828.65 605.16
00004237 00000080 529.62 205.18 365.54 548.51 659.63 408.05 830.85 388.95 783.19 541.70 695.31 620.71 828.42 604.78
00004238 00000081 529.54 207.56 367.71 551.69 662.13 409.12 830.75 389.78 785.10 543.17 695.46 619.46 831.32 603.30
00004239 00000082 530.59 212.41 367.57 547.98 662.98 411.50 833.39 390.81 787.97 546.80 696.50 620.39 837.37 602.92
00004240 00000083 532.92 214.95 367.37 545.92 666.23 413.74 836.50 393.19 791.09 545.71 698.16 621.44 840.63 604.22
00004241 00000084 535.45 216.00 367.79 544.04 671.56 416.43 838.55 395.84 795.85 544.96 700.07 620.14 843.22 603.11
00004242 00000085 538.07 213.22 367.69 546.02 675.11 416.28 842.46 395.75 799.29 545.05 701.98 620.69 845.59 603.80
00004243 00000086 540.37 216.40 366.90 541.77 676.89 417.46 844.62 396.26 800.89 545.18 703.25 620.27 848.51 602.84
00004244 00000087 544.33 213.51 365.60 543.78 681.92 418.42 848.18 398.14 804.34 543.84 706.48 618.97 852.53 602.16
00004245 00000088 542.56 223.68 362.10 528.72 689.19 420.59 849.62 410.04 803.57 555.34 717.76 613.35 848.60 605.01
00004246 00000089 544.63 218.40 365.15 532.60 687.98 418.54 852.18 406.59 802.99 554.20 720.26 612.48 849.55 602.93
00004247 00000090 544.33 198.10 363.95 550.82 695.15 410.35 854.07 393.25 813.26 549.50 726.44 613.81 855.41 599.53
00004248 00000091 547.81 194.43 362.45 555.01 700.00 406.40 855.81 390.98 816.07 547.45 730.93 613.64 855.43 600.02
00004249 00000092 549.57 193.20 360.61 556.73 701.02 405.80 856.35 390.47 818.15 545.19 734.41 614.78 857.41 600.98
00004250 00000093 552.17 197.15 359.90 554.90 703.83 406.32 859.49 391.72 821.18 546.23 735.04 615.39 858.33 601.88
00004251 00000094 556.21 194.69 357.09 556.25 707.20 404.89 864.05 391.92 824.88 547.27 738.26 617.15 858.02 604.95
00004252 00000095 560.27 192.65 355.19 556.24 708.56 406.23 865.48 391.21 825.32 544.78 744.49 618.61 862.33 604.26
00004253 00000096 565.26 194.70 354.48 554.18 715.28 407.40 867.78 391.91 828.80 543.09 750.04 619.40 864.18 604.38
00004254 00000097 567.86 202.08 362.56 544.18 714.23 404.84 873.33 393.48 831.90 540.02 743.41 615.28 859.10 606.14
00004255 00000098 573.49 190.18 353.38 546.05 721.29 406.84 874.70 390.61 834.44 538.79 755.20 613.54 868.36 598.61
00004256 00000099 577.14 186.86 353.28 548.39 723.42 404.77 878.52 389.00 836.57 535.59 756.93 611.67 871.03 597.18
00004257 00000100 578.90 185.45 354.20 546.30 723.95 408.77 877.24 393.10 834.78 534.22 755.44 609.18 869.50 595.44
00004258 00000101 582.65 189.17 353.03 541.65 724.60 406.88 879.60 392.04 835.67 534.04 756.06 608.04 871.48 595.19
00004259 00000102 584.20 195.94 353.53 533.19 726.14 405.24 880.59 390.06 837.15 534.64 757.04 605.98 871.87 592.92
00004260 00000103 586.27 192.43 354.63 535.16 728.62 402.86 881.38 389.20 837.09 533.48 758.04 603.04 872.20 591.46
00004261 00000104 588.90 193.05 353.79 533.16 730.12 401.80 882.84 388.47 838.56 533.48 757.77 600.75 873.94 589.69
00004262 00000105 592.40 199.40 352.85 527.50 730.52 406.28 882.93 391.14 839.74 532.62 758.16 600.67 876.49 588.51
00004263 00000106 600.26 207.62 352.22 523.40 738.51 411.45 889.06 395.49 845.80 534.67 765.66 604.24 884.37 591.03
00004264 DELETE   616.52 206.36 353.06 528.91 748.63 408.18 902.53 396.77 856.21 529.50 773.07 601.90 901.28 592.45
00004265 00000108 623.42 199.29 355.64 535.37 759.58 401.05 916.97 389.76 868.35 526.07 781.23 600.79 913.62 591.72
00004266 00000109 626.42 197.67 357.67 535.18 763.00 399.07 920.13 387.60 872.09 525.74 785.11 599.95 915.24 590.91
00004267 00000110 623.50 182.54 357.18 544.81 769.54 393.61 924.56 386.29 876.05 533.26 793.43 599.35 911.69 593.25
00004268 00000111 625.85 186.62 357.31 542.60 773.00 392.21 927.29 385.09 879.43 534.53 796.80 599.63 915.09 593.35
00004269 00000112 629.93 190.99 356.98 532.14 774.58 391.81 932.45 383.05 883.40 533.04 800.63 598.81 920.48 590.90
00004270 00000113 637.77 186.96 356.77 536.07 777.09 394.40 938.19 382.89 888.10 532.79 805.70 599.79 928.85 589.11
00004271 00000114 641.15 188.45 357.97 533.11 779.30 394.72 940.12 382.57 889.56 527.76 809.38 597.01 932.52 585.92
00004272 00000115 642.18 185.32 358.42 534.43 781.04 394.58 939.48 381.90 890.14 525.53 811.24 595.40 932.28 583.86
00004273 00000116 641.96 186.09 356.00 532.08 779.40 392.66 938.19 379.74 889.07 524.10 810.79 594.61 932.06 582.98
00004274 00000117 639.16 183.85 356.35 531.84 777.81 389.52 936.53 376.84 886.97 521.80 808.82 592.66 930.21 581.06
00004275 00000118 635.19 181.76 356.13 530.70 776.35 385.88 933.21 374.34 884.69 516.67 805.49 588.59 925.28 578.11
00004276 DELETE   629.11 193.22 359.21 523.70 763.71 392.15 924.27 377.91 875.46 503.93 787.19 584.55 924.49 574.34
00004277 00000120 619.20 185.82 356.15 527.67 750.48 389.63 909.99 373.91 866.27 501.28 780.14 584.20 914.65 572.39
CROP_BBOX: 234 0 1178 951
