Video ID: 	tfp4ira3YQQ
H: 	1080
W: 	1920
FPS: 	25.0

FRAME INDEX X0 Y0 W H [Landmarks (5 Points)]

00002605 00000000 652.87 158.52 441.87 632.56 824.30 422.15 1007.13 417.77 969.69 481.67 872.59 636.56 1021.23 632.89
00002606 00000001 657.28 155.57 439.93 632.72 826.42 413.99 1010.27 407.86 973.96 479.72 875.88 634.46 1024.98 629.43
00002607 00000002 658.39 151.94 441.04 633.08 825.63 408.35 1012.98 403.04 975.28 478.56 874.26 629.68 1028.77 624.74
00002608 00000003 658.11 146.30 441.95 633.71 826.43 403.80 1014.25 397.26 976.04 479.50 872.07 622.81 1031.09 616.72
00002609 00000004 656.76 145.14 441.64 630.99 823.57 399.65 1011.60 396.28 971.96 473.53 870.52 618.05 1029.61 614.27
00002610 00000005 650.63 140.38 442.45 635.89 820.39 393.29 1006.75 394.84 967.36 462.76 867.90 614.78 1022.33 615.41
00002611 DELETE   640.57 139.02 447.61 639.62 819.58 388.41 999.31 389.98 963.85 455.27 866.76 611.36 1015.13 612.20
00002612 00000007 635.90 132.75 444.89 642.32 814.26 380.11 995.65 387.02 960.28 447.74 858.04 605.51 1009.99 610.60
00002613 00000008 632.01 131.39 443.48 640.02 810.46 377.47 993.82 387.91 958.25 444.73 854.09 601.07 1008.88 608.54
00002614 00000009 629.08 134.34 442.77 630.63 806.30 382.79 996.21 390.22 961.00 448.28 854.23 604.42 1009.94 608.76
00002615 00000010 625.87 135.81 442.84 630.38 801.30 381.31 991.27 385.30 953.01 450.91 849.00 606.13 1003.26 607.77
00002616 00000011 622.89 136.78 441.86 631.12 796.67 382.08 987.65 386.74 947.97 455.09 842.69 608.17 997.25 610.31
00002617 00000012 620.29 139.05 441.35 632.67 792.36 383.25 986.16 386.10 944.25 462.15 835.83 610.92 992.95 611.74
00002618 00000013 619.66 140.84 441.06 632.91 791.18 387.32 985.82 387.42 940.57 469.84 832.34 612.19 991.64 610.62
00002619 00000014 620.17 144.65 441.38 629.28 791.09 391.02 986.98 392.02 940.66 477.14 832.30 615.78 992.46 614.96
00002620 00000015 618.64 147.83 443.12 631.93 791.99 394.13 986.64 394.04 941.02 487.59 830.74 623.53 988.97 622.11
00002621 00000016 618.48 149.48 443.85 632.52 790.95 396.08 986.61 394.94 939.48 490.64 827.77 625.44 987.92 623.40
00002622 00000017 617.31 147.50 443.06 630.31 788.85 392.32 984.03 391.84 936.03 488.58 825.02 619.82 986.02 618.19
00002623 00000018 615.35 142.04 441.92 629.84 782.78 385.15 982.37 388.63 928.38 481.72 814.99 610.51 982.53 612.07
00002624 00000019 612.15 135.42 442.28 636.47 779.35 380.40 978.69 387.15 924.29 475.32 808.38 605.03 976.08 609.29
00002625 00000020 609.41 134.77 442.79 636.53 776.23 378.48 978.35 387.72 922.29 474.06 803.65 604.42 973.30 610.62
00002626 00000021 608.38 136.61 443.76 637.32 776.20 381.02 977.80 392.66 921.93 476.98 800.25 604.95 971.78 613.28
00002627 00000022 607.95 140.50 444.50 637.75 776.48 384.80 978.42 396.34 922.13 482.09 798.78 608.16 972.36 616.53
00002628 00000023 610.47 144.77 443.79 634.44 779.17 388.35 981.63 398.33 923.12 488.94 800.56 612.03 974.60 619.23
00002629 00000024 611.30 147.07 443.73 635.09 781.08 390.27 983.79 402.10 924.28 492.09 799.78 614.74 974.24 623.57
00002630 00000025 609.40 149.54 444.36 634.51 779.40 392.36 982.13 402.98 922.69 495.05 798.81 617.26 972.79 625.33
00002631 00000026 605.45 150.79 446.22 631.72 777.15 391.73 981.66 402.54 921.31 493.95 796.80 616.79 971.54 624.98
00002632 00000027 603.41 148.60 446.46 632.02 776.02 389.29 979.62 402.06 919.46 492.73 794.57 614.02 968.76 623.81
00002633 00000028 597.04 146.17 449.59 632.02 772.96 387.12 976.05 400.15 917.80 488.72 792.57 609.75 967.40 619.61
00002634 00000029 594.34 140.54 447.10 634.97 771.31 382.08 972.21 399.04 917.65 477.87 791.18 603.57 964.21 616.48
00002635 00000030 595.67 132.16 442.55 638.09 768.82 376.46 969.36 393.38 913.77 469.80 791.58 599.17 961.10 611.66
00002636 00000031 594.66 130.16 441.78 637.27 765.95 372.42 966.83 389.00 910.33 466.14 790.34 597.02 958.83 609.14
00002637 00000032 595.48 129.22 440.65 637.29 764.96 372.49 966.16 388.20 909.21 466.04 790.79 597.61 958.62 608.96
00002638 00000033 594.85 129.76 440.92 635.79 765.39 372.32 966.82 388.32 910.20 467.52 791.60 598.23 958.83 609.80
00002639 00000034 593.54 131.98 441.45 632.94 764.60 373.25 966.89 389.08 909.91 470.37 792.44 600.35 958.67 611.70
00002640 00000035 590.93 132.51 443.47 633.76 764.10 375.52 965.87 389.39 909.53 473.29 793.82 602.99 958.39 612.71
00002641 00000036 590.93 133.80 442.73 632.66 762.46 375.39 964.48 388.01 907.67 473.30 793.92 603.83 958.20 612.53
00002642 00000037 591.00 132.15 441.54 630.82 760.51 372.40 962.14 385.70 906.08 465.82 793.25 599.76 957.41 608.93
00002643 00000038 589.82 120.42 446.48 632.52 760.01 374.58 961.68 376.29 901.18 462.17 796.08 597.46 958.19 598.52
00002644 00000039 589.73 115.48 445.71 629.63 759.31 366.72 961.95 369.36 899.12 455.20 794.25 589.40 957.05 591.33
00002645 00000040 593.76 123.67 438.49 624.40 757.24 358.81 960.48 368.32 903.30 443.69 792.90 585.68 959.25 591.03
00002646 00000041 595.48 123.52 437.21 625.17 756.99 358.63 960.45 367.67 903.43 443.53 792.43 585.62 959.42 590.52
00002647 00000042 595.94 124.87 436.76 625.52 756.61 359.84 961.75 368.79 903.36 446.36 791.64 588.50 959.83 593.45
00002648 00000043 595.49 125.99 436.82 628.00 756.54 365.03 960.93 373.11 902.51 453.13 792.21 592.85 959.75 597.18
00002649 00000044 594.33 131.03 437.38 626.28 755.84 370.35 959.35 377.98 901.90 456.46 792.39 596.54 959.30 600.71
00002650 00000045 595.04 132.10 436.44 627.95 757.69 371.13 959.62 380.36 902.49 460.41 792.70 599.07 957.49 604.70
00002651 00000046 595.19 134.26 436.26 627.10 758.56 372.14 959.42 382.06 901.67 464.86 792.21 600.36 955.87 606.83
00002652 00000047 596.11 135.32 435.41 625.93 758.50 372.59 959.30 382.39 901.34 465.26 791.98 600.78 955.50 607.20
00002653 00000048 595.52 134.20 435.48 625.88 756.37 372.50 958.71 381.86 899.57 462.37 790.26 600.01 955.54 605.95
00002654 00000049 593.45 134.84 435.26 622.65 753.71 372.03 956.80 381.78 897.08 460.25 787.57 598.72 953.88 605.00
00002655 00000050 590.51 132.92 434.45 623.57 750.51 372.49 953.44 382.36 893.60 461.68 784.22 599.54 949.94 605.93
00002656 00000051 585.50 135.47 435.60 620.76 746.93 373.20 948.31 382.06 888.25 463.36 780.71 599.46 945.08 605.20
00002657 00000052 582.68 136.63 437.13 619.10 746.60 372.81 945.85 384.31 886.60 463.22 779.46 598.77 941.59 606.97
00002658 00000053 584.78 138.40 435.38 617.46 746.30 373.84 945.67 384.81 885.31 464.71 778.67 599.34 941.12 607.24
00002659 00000054 584.02 137.92 436.29 618.21 746.56 373.77 946.06 385.45 885.40 464.41 778.81 599.35 940.61 607.82
00002660 00000055 585.88 138.07 435.99 618.98 747.39 374.90 947.87 386.20 886.79 466.67 780.48 601.12 942.77 609.17
00002661 00000056 587.79 139.64 436.81 619.64 749.16 376.17 951.07 388.61 889.59 467.17 781.99 602.30 946.21 611.10
00002662 00000057 589.52 140.18 436.82 620.77 751.04 374.93 953.54 387.78 891.74 467.84 783.41 602.84 947.51 612.00
00002663 00000058 594.71 138.16 432.70 622.93 754.09 375.01 955.27 386.67 894.41 466.95 786.35 603.15 949.27 611.29
00002664 00000059 596.83 136.82 431.14 623.60 756.51 372.87 956.32 383.47 896.59 466.15 789.23 602.04 949.96 609.32
00002665 00000060 597.30 132.79 430.16 627.79 755.91 371.46 955.33 382.17 896.72 461.78 788.51 600.56 950.01 607.78
00002666 00000061 594.70 132.27 431.20 627.06 753.65 370.61 952.95 381.17 895.22 459.12 787.54 598.86 949.44 605.79
00002667 00000062 591.99 132.37 431.82 627.68 752.17 370.35 951.56 381.44 894.30 459.49 786.50 599.85 947.53 607.27
00002668 00000063 588.51 132.67 434.16 629.25 750.88 372.67 946.85 381.70 890.52 462.86 785.90 601.30 943.99 607.05
00002669 00000064 587.05 133.59 434.78 629.13 748.76 372.96 945.55 382.64 888.26 462.98 784.43 602.65 942.61 608.98
00002670 00000065 583.74 136.85 438.82 626.54 748.37 374.75 943.29 383.96 886.01 464.54 783.42 602.61 940.40 608.75
00002671 00000066 580.17 139.28 440.88 626.91 746.76 378.42 939.64 387.20 883.77 467.04 781.66 605.54 937.23 611.49
00002672 00000067 579.17 138.95 439.05 628.08 745.14 378.78 937.65 388.45 882.01 466.70 779.13 606.14 935.20 612.84
00002673 00000068 576.11 139.00 439.42 626.99 744.11 376.30 935.19 386.05 879.69 465.11 777.18 603.46 932.11 610.45
00002674 00000069 574.31 138.14 439.32 626.73 743.44 374.66 933.91 384.34 878.32 465.69 775.48 602.55 930.11 609.58
00002675 00000070 569.05 138.16 442.80 626.52 741.83 373.99 931.67 384.22 876.48 465.18 775.37 602.12 928.05 609.52
00002676 00000071 566.98 133.04 442.83 630.80 741.20 372.16 931.38 384.89 876.99 461.41 775.53 600.42 927.91 609.61
00002677 00000072 567.02 129.66 441.00 633.74 741.06 370.27 930.12 382.98 877.39 458.17 776.04 599.58 927.84 608.66
00002678 00000073 565.30 123.93 445.56 641.49 737.51 375.26 933.43 376.67 875.43 457.67 777.20 604.37 930.00 605.73
00002679 00000074 562.96 131.07 440.46 628.13 735.30 374.16 929.38 382.33 882.48 455.50 777.19 604.26 929.19 609.52
00002680 00000075 559.91 131.28 440.64 630.82 733.10 374.07 926.42 383.43 879.84 456.43 773.12 604.23 925.54 610.38
00002681 00000076 558.23 129.51 438.96 635.11 730.86 373.12 924.61 382.41 878.45 457.65 769.90 605.60 922.91 611.72
00002682 00000077 555.99 132.21 437.46 638.30 728.88 375.38 921.16 383.20 874.69 465.36 766.09 609.68 917.72 614.56
00002683 00000078 551.98 135.38 438.95 640.14 723.83 377.93 919.47 383.69 870.59 468.17 761.86 612.83 916.83 615.71
00002684 00000079 551.33 135.44 440.67 641.13 723.67 376.33 918.14 381.47 870.16 465.13 762.14 610.57 917.52 612.92
00002685 00000080 554.87 131.13 440.41 641.48 726.35 372.61 920.55 378.36 872.87 455.94 766.11 606.81 920.98 609.88
00002686 00000081 556.48 126.39 440.82 645.15 726.04 370.35 921.74 375.98 872.48 449.24 767.15 605.94 922.00 609.00
00002687 00000082 556.46 125.51 440.03 647.14 725.02 370.47 920.36 375.51 870.33 448.70 766.05 606.22 920.79 608.70
00002688 00000083 555.61 130.59 439.06 645.20 726.21 373.25 918.55 380.22 871.23 455.22 765.90 606.84 918.84 610.85
00002689 00000084 554.86 134.90 439.92 649.18 726.61 379.70 918.70 384.79 871.24 466.84 765.08 613.63 918.83 615.87
00002690 00000085 558.18 140.70 436.03 650.94 728.15 389.98 916.35 396.34 873.17 470.29 764.07 618.44 920.05 622.19
00002691 00000086 556.74 143.77 436.18 648.54 730.00 394.15 914.93 403.70 874.28 470.44 761.14 617.43 918.02 623.75
00002692 00000087 545.98 150.87 438.54 643.97 718.85 396.10 906.07 398.87 867.69 470.65 758.60 622.72 912.58 622.33
00002693 00000088 541.57 152.47 439.24 645.45 710.77 393.89 900.76 391.83 858.03 469.63 751.40 623.86 907.36 619.51
00002694 DELETE   538.85 155.96 435.38 643.38 702.71 393.70 895.96 393.86 849.95 468.89 742.31 624.38 898.58 621.92
00002695 00000090 533.90 157.98 434.39 646.22 693.53 393.09 889.34 394.42 842.04 467.16 733.20 627.43 893.48 625.58
00002696 00000091 528.15 161.78 433.82 645.28 685.22 393.91 885.04 396.12 833.65 466.86 725.04 630.25 888.52 628.85
00002697 00000092 520.58 157.07 438.36 641.49 673.59 393.59 870.34 401.32 817.12 472.93 710.34 626.40 875.78 632.16
00002698 00000093 513.17 158.90 439.58 638.84 668.54 392.98 862.83 403.79 808.99 471.05 703.61 625.47 865.33 633.96
00002699 00000094 509.74 159.18 438.49 637.22 667.29 394.39 857.73 405.67 807.54 470.41 701.47 624.73 858.88 633.92
00002700 00000095 508.09 161.79 435.52 632.30 663.87 394.70 854.71 406.49 803.54 470.23 698.49 624.25 854.70 633.91
00002701 00000096 503.51 161.08 435.62 626.96 660.61 394.72 849.90 405.59 797.71 470.73 696.55 621.74 850.64 630.44
00002702 00000097 503.21 156.43 434.12 624.51 658.21 391.32 846.88 400.95 792.44 465.54 692.63 616.07 848.40 623.49
00002703 00000098 502.68 155.43 431.23 622.19 653.43 387.58 844.24 396.47 785.79 462.40 684.45 611.31 845.52 618.09
00002704 00000099 502.23 154.26 429.78 618.47 651.63 385.84 840.79 393.27 782.75 456.57 683.76 608.44 842.27 614.04
00002705 00000100 502.50 152.25 428.20 618.09 649.20 382.97 838.29 391.42 781.03 451.27 683.40 607.60 840.32 614.03
00002706 00000101 504.15 151.40 427.14 614.72 648.46 380.54 837.85 387.16 780.86 448.18 684.90 606.67 841.73 611.54
00002707 00000102 505.08 150.91 427.43 614.55 648.74 380.11 836.76 385.04 781.29 445.61 688.09 606.64 843.64 609.99
00002708 00000103 504.45 149.08 431.12 615.30 649.15 380.07 837.23 384.61 783.01 442.98 692.12 606.82 846.58 609.56
00002709 00000104 504.84 147.94 432.15 616.02 649.30 379.11 837.37 381.86 784.21 438.69 695.41 606.30 850.17 607.46
00002710 00000105 506.52 148.80 431.36 614.05 648.31 378.87 837.23 378.51 782.06 439.11 695.18 607.06 850.71 605.62
00002711 00000106 504.52 149.95 432.61 611.61 647.37 378.00 835.44 376.52 779.72 440.06 693.66 605.61 848.47 603.25
00002712 00000107 506.64 150.53 429.84 609.46 646.16 377.82 834.95 374.17 775.84 442.62 691.03 605.56 846.50 601.39
00002713 00000108 507.82 150.45 429.01 609.13 644.70 378.88 834.89 373.71 773.24 445.68 688.31 607.69 845.57 602.29
00002714 00000109 511.71 152.44 425.53 608.82 646.26 378.47 837.43 374.29 772.77 447.84 688.08 607.57 844.72 603.25
00002715 00000110 514.72 156.00 427.21 606.58 646.40 380.87 839.60 376.76 771.95 449.92 686.77 609.81 844.73 605.68
00002716 00000111 524.36 159.64 421.13 603.73 650.86 384.36 845.02 378.84 775.38 453.52 691.80 612.54 847.47 607.42
00002717 00000112 533.33 163.68 422.18 602.99 653.68 384.51 853.05 377.34 780.14 454.69 697.54 616.24 857.99 609.26
00002718 00000113 542.58 162.75 417.80 605.61 660.83 386.93 860.68 380.60 785.92 454.95 702.95 618.55 863.53 612.28
00002719 00000114 551.31 159.21 414.46 611.38 669.83 390.17 870.21 386.52 792.34 461.57 710.02 619.49 870.80 615.33
00002720 00000115 553.49 162.29 421.07 611.97 673.96 392.20 874.46 386.54 797.60 467.62 716.71 624.02 875.37 618.11
00002721 00000116 556.94 162.27 423.57 612.96 681.17 393.06 882.06 389.26 802.92 469.81 719.90 623.10 879.34 618.64
00002722 00000117 560.01 162.67 422.41 614.13 687.07 393.12 888.14 391.64 807.82 471.55 720.33 621.76 881.57 619.53
00002723 00000118 560.31 161.23 423.44 616.10 689.44 392.11 891.19 391.88 810.62 470.98 721.48 621.71 883.10 620.44
00002724 00000119 556.44 158.42 426.79 618.20 687.69 391.05 888.80 392.20 810.19 470.79 720.38 621.37 880.41 621.13
00002725 00000120 554.80 157.72 425.85 618.81 684.56 388.90 884.80 389.96 805.93 469.78 717.97 621.85 876.08 621.49
00002726 00000121 551.87 154.39 422.22 620.26 678.64 385.37 879.81 387.65 800.89 467.80 711.91 619.98 870.71 620.64
00002727 00000122 546.78 150.08 418.36 622.81 671.06 382.11 874.64 384.71 795.06 465.80 704.01 619.62 864.97 620.62
00002728 00000123 537.12 151.09 421.78 619.47 661.02 380.13 866.12 380.22 788.81 458.78 696.98 617.46 860.11 616.39
00002729 00000124 523.40 149.61 424.81 615.82 653.14 375.74 855.30 375.71 780.65 464.09 688.07 614.18 847.45 613.49
00002730 00000125 513.19 149.20 426.20 611.89 646.41 373.25 846.44 371.97 772.59 460.26 682.98 611.02 838.66 609.50
00002731 DELETE   507.95 140.23 418.29 618.10 642.32 365.77 839.20 363.64 766.73 454.23 680.12 606.57 830.25 604.49
00002732 00000127 497.28 141.22 425.51 613.08 633.61 369.89 833.94 361.07 758.21 455.09 673.63 607.94 826.52 598.94
00002733 00000128 488.68 134.78 428.31 619.08 623.81 372.69 825.61 360.91 750.99 458.55 667.16 610.06 822.13 598.27
00002734 00000129 488.51 132.88 423.44 624.20 616.29 376.01 822.11 365.15 743.46 468.59 658.36 614.36 821.55 603.22
00002735 DELETE   485.00 135.11 425.52 622.07 610.18 387.96 817.32 375.82 741.36 477.54 654.32 619.08 822.54 607.13
00002736 DELETE   481.84 139.15 425.69 623.98 607.25 393.80 817.25 381.54 741.08 484.51 651.36 622.89 822.73 611.82
00002737 DELETE   481.23 139.69 424.21 623.72 606.01 395.40 816.09 383.64 740.89 491.95 650.58 625.44 822.10 614.29
00002738 00000133 478.39 138.71 428.60 625.20 603.94 392.52 814.09 380.96 737.87 496.42 649.65 627.06 820.63 615.32
00002739 00000134 476.39 139.22 431.91 625.46 603.31 390.63 814.10 378.74 738.76 498.02 648.40 626.80 820.89 614.84
00002740 00000135 476.17 139.69 432.99 623.66 603.41 390.77 815.08 377.17 740.97 496.16 649.37 624.16 823.75 610.68
00002741 00000136 477.41 138.34 433.92 622.61 604.79 388.88 816.22 374.45 743.48 492.28 650.26 622.22 825.13 608.06
00002742 00000137 479.50 132.74 435.55 625.57 607.92 386.56 821.02 370.88 746.38 486.79 652.16 619.19 828.37 603.63
00002743 00000138 481.16 117.80 441.56 639.03 618.64 382.01 825.54 368.38 748.36 491.27 657.11 611.45 825.36 598.98
00002744 00000139 490.90 110.28 438.76 636.99 629.77 371.68 834.11 360.00 758.71 468.06 666.03 599.27 834.97 590.33
00002745 DELETE   492.68 109.07 440.59 631.17 632.85 364.27 839.15 352.16 763.82 455.99 671.76 591.33 841.36 582.14
00002746 00000141 497.80 106.32 438.08 623.50 636.91 357.29 838.51 344.83 767.44 445.24 680.01 582.34 846.86 573.02
00002747 00000142 503.97 104.02 437.03 614.63 642.14 347.99 844.56 338.84 771.36 436.27 685.98 572.72 851.56 565.81
00002748 00000143 505.05 100.09 438.35 612.12 646.22 344.66 846.87 336.35 774.84 429.79 691.57 568.34 853.43 561.89
00002749 00000144 508.93 95.31 438.20 611.56 648.64 341.96 850.24 331.61 778.38 423.41 694.36 564.36 857.94 556.08
00002750 00000145 512.75 95.14 438.48 609.50 651.49 341.83 852.37 329.56 781.84 417.67 701.87 562.65 863.84 552.88
00002751 00000146 515.38 94.05 437.58 608.97 654.06 342.15 856.37 329.60 788.91 413.94 706.51 562.25 870.38 552.36
00002752 00000147 515.97 92.13 441.50 610.26 657.62 339.64 860.24 323.98 798.79 406.65 713.75 559.77 879.85 547.18
00002753 00000148 516.68 85.79 444.64 621.46 663.61 333.95 859.45 320.69 806.24 394.57 717.46 553.92 881.56 542.84
00002754 00000149 520.01 98.74 437.43 623.16 674.45 327.36 861.80 313.09 821.40 388.25 732.50 560.83 882.17 545.86
00002755 00000150 524.81 98.18 434.18 625.94 679.42 326.79 864.40 312.54 826.57 388.41 736.83 560.72 884.57 545.77
00002756 00000151 530.32 99.61 434.06 620.28 688.43 331.93 871.89 318.43 832.06 395.16 745.11 560.31 890.00 545.81
00002757 DELETE   532.85 98.30 439.01 626.23 695.27 338.38 883.20 324.80 843.03 402.68 754.59 565.52 900.38 550.74
00002758 00000153 537.18 98.43 441.03 627.71 703.10 343.81 890.90 331.66 853.36 407.41 766.49 571.98 908.84 558.67
00002759 00000154 541.23 106.11 440.01 623.13 706.04 352.22 892.83 337.77 855.72 412.25 772.49 578.61 912.42 563.66
00002760 00000155 544.61 113.78 438.00 627.30 705.95 358.85 893.14 343.58 855.64 416.94 771.66 587.93 913.26 573.00
00002761 00000156 543.59 120.36 439.41 629.12 702.19 365.49 894.24 350.36 855.71 422.74 770.01 598.30 916.60 583.55
00002762 00000157 542.75 128.33 442.91 627.51 700.89 371.10 894.65 354.48 855.69 430.08 767.67 602.98 919.69 586.55
00002763 00000158 547.93 128.77 439.94 631.16 705.02 370.50 899.88 354.95 861.25 432.33 770.08 604.71 924.00 589.17
00002764 00000159 550.63 128.27 442.27 627.01 708.21 371.05 902.08 349.32 863.86 432.75 776.70 603.44 929.62 582.80
00002765 00000160 555.02 119.74 441.32 619.04 714.07 370.03 906.40 344.36 869.75 431.03 784.70 596.93 934.35 572.78
CROP_BBOX: 275 0 1349 983
