Video ID: 	gu56uLL4cKA
H: 	1080
W: 	1920
FPS: 	25.0

FRAME INDEX X0 Y0 W H [Landmarks (5 Points)]

00019821 00000000 811.37 226.28 375.09 622.86 914.79 522.72 1076.74 561.65 980.69 656.70 900.09 704.01 1034.07 734.96
00019822 00000001 815.66 214.63 372.57 642.25 919.25 524.98 1087.06 555.83 999.42 657.91 903.62 719.34 1033.68 745.83
00019823 00000002 817.92 216.56 370.07 641.73 922.91 524.95 1083.55 558.47 1001.16 653.74 910.44 724.14 1025.89 752.83
00019824 00000003 818.52 215.60 369.07 645.73 924.95 524.44 1082.24 558.79 1002.09 653.47 914.02 726.78 1024.71 756.08
00019825 00000004 817.03 216.21 369.66 645.41 924.87 524.59 1083.62 558.95 1003.33 654.18 913.72 727.69 1024.23 757.23
00019826 00000005 814.72 212.04 369.23 647.46 923.62 524.52 1082.72 557.36 1002.32 651.87 913.07 725.35 1025.48 753.51
00019827 00000006 811.62 206.24 369.78 646.26 922.47 522.09 1081.93 554.29 1001.73 648.19 911.16 720.54 1025.55 748.09
00019828 00000007 801.17 222.30 373.71 617.61 914.14 508.27 1074.73 542.87 987.47 635.88 909.11 706.50 1026.58 734.54
00019829 DELETE   789.75 210.90 375.26 622.71 906.39 495.89 1069.65 531.01 981.60 625.79 897.79 692.89 1018.92 721.68
00019830 DELETE   777.26 197.76 381.34 629.90 892.60 481.25 1061.83 521.96 968.30 609.03 882.59 681.25 1010.58 713.95
00019831 DELETE   780.40 197.41 378.51 621.95 892.56 468.29 1053.05 506.06 956.98 603.09 872.64 665.51 999.36 697.02
00019832 00000011 778.60 191.54 381.32 624.62 894.23 457.71 1056.84 499.86 960.83 598.84 869.31 657.71 998.31 693.19
00019833 00000012 778.37 192.11 383.06 624.56 899.09 456.85 1060.06 500.52 966.02 599.68 872.58 658.17 998.84 694.82
00019834 00000013 778.56 192.40 384.35 623.69 898.47 460.55 1065.29 505.72 968.44 605.35 871.06 661.00 1002.61 698.82
00019835 00000014 777.28 194.89 385.85 624.12 902.60 463.14 1070.49 508.73 976.83 608.84 874.46 664.63 1006.24 702.86
00019836 00000015 779.52 199.24 384.53 623.45 909.59 468.25 1073.90 511.82 984.55 614.34 883.08 668.67 1013.16 704.79
00019837 00000016 783.96 204.23 378.89 618.71 914.41 474.48 1077.19 517.90 992.88 621.10 883.79 667.37 1020.26 703.19
00019838 00000017 785.78 207.00 378.15 619.25 920.84 479.02 1078.29 521.97 997.69 627.15 888.73 670.66 1021.82 706.07
00019839 00000018 781.66 199.60 377.18 634.62 915.17 483.34 1081.92 527.56 999.97 625.19 892.69 680.10 1027.57 715.92
00019840 00000019 780.71 207.77 378.79 630.97 916.97 487.50 1083.27 532.50 1001.18 631.66 892.24 684.53 1025.08 721.28
00019841 00000020 780.50 214.19 377.67 623.52 917.39 490.40 1082.01 535.38 999.39 634.00 893.20 687.72 1022.32 724.71
00019842 00000021 779.34 211.28 378.16 623.13 915.08 489.77 1079.14 533.83 996.54 633.60 892.16 689.36 1018.57 725.56
00019843 00000022 780.48 205.47 378.09 627.63 914.05 486.23 1077.59 530.91 994.26 630.80 893.81 691.44 1016.30 727.94
00019844 00000023 778.38 197.40 377.09 632.85 910.75 482.37 1073.33 526.08 992.02 630.08 893.66 692.92 1013.13 728.30
00019845 00000024 773.05 196.87 378.37 629.19 904.18 478.72 1069.29 522.67 986.94 623.42 885.23 686.19 1010.57 721.97
00019846 00000025 770.52 189.11 378.22 634.43 898.18 475.94 1064.69 517.36 981.71 615.94 881.28 682.35 1008.91 716.16
00019847 00000026 763.96 186.38 382.35 630.09 892.85 469.43 1056.23 509.27 979.11 608.34 879.09 677.03 1001.10 710.05
00019848 00000027 761.46 190.33 382.85 623.31 892.58 462.30 1050.09 500.29 968.59 599.75 870.66 666.64 984.27 699.32
00019849 00000028 755.45 182.36 377.15 628.77 884.17 450.41 1040.94 488.59 962.78 587.91 863.61 659.03 977.28 692.66
00019850 00000029 745.36 172.88 373.73 637.30 877.23 444.26 1033.71 483.42 958.00 583.28 856.64 654.69 970.43 689.11
00019851 00000030 736.57 167.74 371.76 642.84 864.22 442.56 1025.91 480.94 947.18 578.76 842.96 651.01 965.70 684.85
00019852 00000031 715.66 168.69 379.97 625.29 848.24 436.21 1006.17 476.44 928.91 570.13 832.21 644.56 952.29 678.02
00019853 00000032 707.08 165.53 382.30 627.97 836.80 431.70 1003.76 474.88 921.37 568.80 821.70 644.19 949.20 679.91
00019854 00000033 699.23 160.46 381.74 632.52 823.12 429.32 992.67 469.18 909.35 565.07 815.27 644.39 942.87 677.52
00019855 00000034 692.40 159.92 377.79 639.55 812.37 433.98 977.31 468.65 896.69 565.95 806.94 649.32 929.58 679.04
00019856 00000035 687.74 159.66 376.87 643.08 806.65 435.92 969.27 469.11 890.51 565.43 804.61 655.09 919.73 683.58
00019857 00000036 684.76 160.53 376.70 639.50 803.60 435.20 966.99 468.36 887.98 565.87 801.14 650.23 919.95 678.76
00019858 00000037 683.10 161.06 376.06 637.95 802.33 434.75 965.29 468.20 886.53 564.81 799.71 649.00 917.82 677.85
00019859 00000038 683.39 159.77 376.03 635.82 801.95 433.75 964.78 465.20 888.74 561.64 802.53 646.71 921.77 673.92
00019860 00000039 685.78 157.48 375.78 635.46 804.33 432.65 967.84 463.29 893.43 560.55 807.57 646.63 926.97 673.05
00019861 00000040 689.46 151.94 376.16 635.64 811.32 436.24 974.40 464.34 901.57 560.83 818.21 645.93 936.26 669.41
00019862 DELETE   693.01 154.15 375.01 627.49 817.12 437.86 979.72 464.92 909.62 555.72 826.48 641.75 945.10 663.80
00019863 00000042 694.58 149.56 378.20 631.23 816.73 428.03 985.56 457.30 910.44 553.81 821.03 636.19 951.31 660.07
00019864 00000043 693.77 144.46 380.27 636.66 810.96 421.26 984.95 453.94 900.76 552.87 807.77 631.10 947.72 658.00
00019865 00000044 694.04 145.69 381.46 636.32 807.85 420.23 978.70 453.26 892.75 547.41 802.48 630.18 940.30 657.83
00019866 00000045 696.27 147.65 378.21 640.24 806.52 420.99 971.29 456.02 885.46 548.90 799.57 632.71 929.56 662.66
00019867 00000046 695.48 148.94 377.82 640.43 801.58 423.55 966.90 458.59 876.03 551.99 793.99 636.44 920.94 666.71
00019868 00000047 696.00 148.73 377.62 641.59 800.90 425.82 967.34 460.74 874.92 555.03 793.99 639.44 919.92 669.49
00019869 00000048 697.96 149.45 377.37 643.55 805.28 426.44 970.61 461.59 880.60 559.18 799.55 642.65 923.30 672.71
00019870 00000049 702.49 152.02 379.31 643.48 814.30 425.33 981.25 462.22 888.68 559.17 807.58 643.07 933.53 674.12
00019871 00000050 701.66 152.72 386.05 641.79 820.04 426.43 990.58 462.70 898.28 561.71 816.43 641.93 944.63 671.98
00019872 00000051 702.89 153.07 387.68 643.11 827.04 424.86 994.89 461.99 905.27 561.49 822.69 642.63 948.02 673.15
00019873 00000052 704.75 152.83 386.10 643.63 824.86 424.05 992.62 462.28 899.61 560.19 818.65 642.39 943.21 674.13
00019874 00000053 705.35 152.90 383.37 645.39 821.13 422.21 985.60 463.52 887.87 558.81 808.54 641.96 930.78 676.59
00019875 00000054 704.49 153.06 383.31 642.71 820.29 421.10 984.07 463.94 885.68 556.66 805.93 640.22 926.96 676.15
00019876 00000055 703.82 150.85 387.65 641.07 822.86 420.42 993.69 460.41 896.62 556.78 810.82 636.81 940.57 670.24
00019877 00000056 707.87 150.45 388.74 642.25 832.03 422.01 1003.16 461.63 911.76 557.68 818.69 634.77 953.70 667.53
00019878 00000057 709.60 150.93 389.34 641.46 837.55 422.02 1008.55 460.20 919.21 558.34 824.42 635.34 960.24 666.92
00019879 00000058 708.83 151.20 390.03 643.37 835.26 421.78 1007.21 462.04 916.09 558.59 819.95 635.12 956.59 668.45
00019880 00000059 708.13 152.61 391.31 646.72 833.89 422.09 1003.89 465.65 909.81 559.51 813.99 636.24 950.07 672.53
00019881 00000060 710.46 151.63 388.95 646.12 834.72 424.05 1005.80 467.28 911.69 563.03 816.51 637.08 953.28 672.76
00019882 00000061 714.29 152.98 388.05 644.11 838.01 428.08 1012.63 469.62 920.98 566.97 822.31 641.10 961.93 674.98
00019883 00000062 719.49 152.40 384.92 646.00 841.84 430.58 1014.27 471.38 924.77 571.63 826.76 644.32 963.59 677.42
00019884 00000063 722.40 155.52 376.63 651.53 841.03 438.61 1009.16 476.87 923.02 570.87 827.64 645.92 964.96 676.61
00019885 00000064 719.62 153.47 382.91 654.17 841.83 436.32 1007.37 475.50 921.95 570.34 828.22 645.44 961.28 677.04
00019886 00000065 715.75 151.44 385.68 657.84 840.93 431.23 1009.39 474.32 922.54 569.21 823.57 644.91 959.57 679.75
00019887 00000066 712.94 147.70 387.03 659.67 840.21 427.92 1011.15 470.34 924.46 567.24 821.26 639.97 962.80 674.37
00019888 00000067 711.64 148.32 387.33 654.35 840.64 424.86 1012.16 467.86 925.56 563.42 821.19 635.27 964.18 670.29
00019889 00000068 709.73 146.93 388.30 653.29 839.70 424.04 1011.17 466.73 925.70 561.60 821.21 633.04 964.74 667.65
00019890 00000069 708.25 146.96 389.28 651.41 839.86 423.53 1011.76 466.82 926.41 561.42 821.85 632.50 964.83 667.64
00019891 00000070 708.76 147.66 388.11 651.10 839.86 425.13 1014.26 468.41 928.54 565.78 821.99 633.57 967.76 668.51
00019892 00000071 711.07 147.83 386.84 651.19 840.77 429.52 1015.05 471.31 930.76 567.96 824.36 635.10 971.28 668.37
00019893 00000072 712.92 149.67 387.66 651.67 843.25 433.46 1017.48 470.80 935.83 573.04 830.17 640.01 976.43 669.67
00019894 00000073 715.87 154.99 386.84 650.64 850.28 434.68 1018.40 471.43 940.98 573.55 838.23 643.67 977.58 672.94
00019895 00000074 719.28 152.94 387.06 654.40 854.68 434.85 1022.16 470.94 946.11 573.00 842.93 646.36 979.28 675.29
00019896 00000075 718.90 155.00 387.48 652.01 856.84 433.59 1022.19 469.25 947.94 569.96 845.85 645.49 980.40 674.08
00019897 00000076 719.43 151.93 388.49 653.74 859.39 432.39 1025.10 467.48 951.24 568.81 848.32 645.46 981.83 673.71
00019898 00000077 721.81 149.20 388.84 652.65 863.01 430.48 1028.39 465.77 956.02 567.37 854.03 644.80 986.36 673.05
00019899 00000078 725.76 148.97 386.22 649.59 866.41 428.86 1031.73 462.91 961.62 566.20 860.08 645.17 991.90 672.38
00019900 00000079 736.52 145.16 377.15 650.93 873.60 422.93 1041.35 458.63 972.57 561.57 862.36 641.56 992.39 672.87
00019901 00000080 738.32 143.95 376.74 650.39 872.92 422.62 1041.71 458.38 971.83 561.42 860.96 639.46 992.82 670.81
00019902 00000081 740.11 139.99 376.97 655.44 873.50 422.33 1040.66 457.17 972.19 559.23 861.86 637.72 993.94 668.19
00019903 00000082 741.69 134.87 377.48 658.30 875.71 418.47 1042.91 453.47 975.41 557.42 863.88 634.71 998.33 664.88
00019904 00000083 742.98 132.54 379.21 661.55 877.79 417.17 1043.19 454.15 976.24 554.21 866.02 631.01 1000.31 662.60
00019905 00000084 743.01 130.50 381.04 665.01 878.84 415.55 1041.21 453.82 973.87 552.62 865.59 631.13 994.62 663.84
00019906 00000085 743.48 132.51 381.29 664.91 878.14 415.10 1040.73 453.46 972.36 552.05 864.46 632.07 992.68 665.02
00019907 00000086 744.24 133.48 382.34 664.45 879.14 415.53 1042.05 454.32 973.10 552.49 864.89 631.31 994.26 664.62
00019908 00000087 746.50 128.30 382.29 670.16 880.14 420.14 1046.32 457.33 975.46 553.76 866.81 632.60 999.00 664.24
00019909 00000088 748.93 130.92 378.52 665.15 883.17 424.24 1047.13 460.60 979.24 555.76 869.39 631.03 1003.11 661.96
00019910 00000089 751.58 134.86 381.03 659.33 884.66 423.71 1053.73 458.96 981.81 556.51 872.70 632.16 1009.30 661.95
00019911 00000090 754.91 139.28 377.81 654.08 884.80 420.98 1052.96 456.57 981.99 556.23 874.10 631.11 1011.95 661.26
00019912 00000091 753.58 141.55 376.73 651.06 879.50 422.10 1049.19 456.13 974.63 556.96 872.04 634.11 1009.49 663.08
00019913 00000092 751.89 149.23 374.64 644.65 875.46 425.17 1043.42 459.05 968.72 559.07 868.31 636.60 1003.60 665.87
00019914 00000093 749.45 154.48 372.35 644.06 869.03 430.63 1041.22 464.20 960.95 565.84 858.87 641.44 997.85 670.77
00019915 00000094 742.34 169.87 382.12 633.38 860.49 443.78 1027.36 469.02 944.84 573.77 861.51 649.84 998.76 669.90
00019916 00000095 745.50 173.35 380.94 632.57 862.53 446.12 1028.39 472.22 945.89 579.88 863.04 652.94 1000.59 673.44
00019917 00000096 748.57 174.31 380.74 632.83 865.05 446.30 1031.73 470.93 950.00 579.28 866.46 653.52 1005.79 672.53
00019918 00000097 754.94 166.02 374.48 638.24 868.59 441.49 1041.82 470.68 957.05 571.72 861.17 646.33 1002.98 671.65
00019919 00000098 758.06 166.42 373.52 637.05 871.52 440.23 1043.27 471.08 958.81 571.64 862.34 645.26 1003.00 671.99
00019920 00000099 761.44 164.78 373.66 639.46 873.62 441.26 1045.65 471.74 959.85 572.40 862.72 645.75 1004.01 672.04
00019921 00000100 763.83 164.56 375.00 641.00 877.40 441.79 1049.17 473.18 963.85 574.23 865.37 646.90 1005.38 673.90
00019922 00000101 765.34 169.58 380.04 635.71 883.72 443.00 1054.51 475.17 970.14 578.47 870.17 647.00 1009.07 674.52
00019923 00000102 768.96 170.59 382.51 633.70 894.26 441.17 1063.22 477.53 981.99 577.19 877.15 646.10 1013.19 676.84
00019924 00000103 771.51 170.35 382.19 633.09 903.84 439.20 1067.55 480.10 989.82 576.61 885.08 644.31 1017.09 678.41
00019925 00000104 772.86 172.76 383.01 631.50 908.65 439.42 1072.44 480.25 995.37 577.69 889.61 644.31 1022.31 678.46
00019926 00000105 771.35 175.19 385.46 629.35 912.86 439.86 1074.18 481.66 1001.21 576.15 892.43 643.83 1023.43 678.89
00019927 00000106 769.48 175.04 387.03 633.33 914.63 442.23 1076.97 485.31 1005.43 577.58 892.00 642.83 1026.65 678.83
00019928 00000107 766.59 176.01 387.54 638.27 913.70 443.95 1076.90 484.62 1007.82 579.68 891.04 643.96 1029.25 677.76
00019929 00000108 763.94 170.43 383.06 642.85 903.92 441.37 1066.77 482.37 996.82 577.82 881.82 644.24 1018.64 678.59
00019930 00000109 757.06 170.11 380.08 635.72 889.55 444.86 1053.92 478.76 981.25 577.96 871.52 645.91 1003.91 675.57
00019931 00000110 754.50 167.40 377.66 639.44 880.48 442.79 1047.72 476.56 971.01 580.01 865.50 650.29 995.76 679.83
00019932 00000111 753.60 171.95 374.13 635.40 879.18 442.02 1041.00 479.09 965.13 579.15 866.32 652.82 987.12 684.99
00019933 00000112 753.81 174.26 372.12 634.34 879.51 444.80 1037.33 479.25 963.80 581.90 869.39 658.56 982.92 688.62
00019934 00000113 751.37 174.98 372.09 635.99 878.94 450.84 1036.28 483.31 963.92 586.13 871.37 661.79 983.14 689.92
00019935 00000114 750.19 177.91 368.02 634.62 879.61 457.81 1034.72 488.02 963.90 587.82 871.44 664.19 980.17 690.77
00019936 00000115 749.50 175.56 369.73 636.45 879.55 452.96 1034.97 483.68 964.94 584.46 872.74 663.78 980.88 690.61
00019937 00000116 749.87 172.15 370.54 640.20 877.39 445.53 1036.51 479.02 965.30 580.35 868.51 660.79 981.39 690.11
00019938 00000117 738.95 180.46 382.54 622.73 868.26 446.62 1035.49 475.93 961.98 581.04 864.96 661.22 994.53 684.72
00019939 00000118 737.51 180.38 382.91 623.16 868.64 443.54 1035.15 473.83 962.69 578.19 861.40 656.88 993.92 681.15
00019940 00000119 736.65 181.64 381.44 620.94 868.40 441.52 1035.93 474.52 963.90 575.13 858.83 651.71 996.31 678.39
00019941 00000120 735.52 180.23 380.62 618.85 867.64 440.15 1035.45 472.60 963.73 574.10 859.24 650.16 995.81 676.18
00019942 00000121 744.89 168.30 368.10 634.32 873.59 436.44 1038.87 473.19 966.95 570.67 858.53 644.18 988.32 676.53
00019943 00000122 744.55 168.63 367.16 627.75 872.04 435.69 1038.73 472.42 966.35 568.79 857.95 642.72 987.90 675.07
00019944 00000123 744.29 168.43 366.98 624.81 870.58 435.46 1039.02 471.23 965.97 568.30 856.56 640.96 990.33 672.42
00019945 00000124 738.60 175.50 374.62 615.61 870.66 439.12 1031.26 472.38 959.95 572.03 862.38 642.33 993.31 669.61
00019946 00000125 737.60 176.24 375.53 614.10 869.28 439.06 1030.02 471.39 958.39 572.13 861.62 642.82 991.97 669.49
00019947 00000126 738.11 177.61 374.59 612.05 868.82 439.49 1029.87 472.44 957.56 572.57 861.66 643.72 991.49 670.87
00019948 00000127 737.82 177.78 374.88 613.74 869.45 440.43 1029.70 473.98 958.19 572.28 861.62 645.06 990.46 672.77
00019949 00000128 736.88 178.33 375.33 615.13 868.67 441.20 1028.36 474.25 957.05 573.41 861.21 645.51 990.05 672.71
00019950 00000129 736.02 178.31 376.77 615.07 867.68 441.28 1028.31 474.27 956.11 573.59 860.17 645.38 989.60 672.55
00019951 00000130 735.98 177.53 377.50 616.28 867.62 440.65 1028.56 473.66 955.97 573.02 859.95 645.15 989.70 672.32
00019952 00000131 736.01 177.00 376.73 614.39 867.18 439.44 1028.90 472.41 955.97 571.84 860.68 644.78 990.12 671.97
00019953 00000132 737.01 177.10 376.05 613.58 867.52 439.63 1029.61 472.38 956.59 571.92 861.28 645.11 990.77 672.13
00019954 00000133 737.44 178.33 376.11 612.45 867.76 439.99 1029.97 472.35 957.10 572.76 860.88 645.67 990.31 672.49
00019955 00000134 737.69 178.27 375.62 616.02 867.73 440.29 1027.82 473.85 955.96 573.63 860.76 647.17 987.78 674.92
00019956 00000135 736.59 177.01 377.25 626.78 869.13 440.44 1025.94 474.95 955.89 574.76 860.51 648.68 987.52 677.08
00019957 00000136 734.23 175.79 379.51 629.97 868.98 438.77 1025.81 473.87 955.82 572.86 856.77 644.95 986.69 673.86
00019958 00000137 733.49 171.60 376.37 625.64 865.78 439.27 1024.68 472.07 953.85 572.41 856.46 642.24 987.96 669.19
00019959 00000138 733.22 168.60 371.41 624.61 860.42 444.17 1021.31 472.24 949.52 576.41 855.62 643.71 989.54 666.25
00019960 00000139 732.89 173.61 370.89 624.29 861.19 446.65 1020.54 475.91 950.37 579.34 858.88 652.06 986.38 675.67
00019961 00000140 732.89 179.36 369.75 621.39 863.85 447.74 1016.35 477.88 948.21 582.30 861.43 656.68 978.76 681.24
00019962 00000141 729.68 176.80 369.03 624.68 858.53 447.59 1011.25 477.42 942.24 582.83 859.79 658.99 974.42 683.01
00019963 00000142 726.50 176.54 370.53 622.21 852.85 452.36 1007.58 481.50 936.81 581.95 855.02 658.25 972.70 681.47
00019964 00000143 724.67 175.54 367.40 623.96 846.79 453.97 1003.41 480.73 932.08 579.08 849.83 654.13 974.13 675.32
00019965 00000144 725.36 168.03 369.32 629.22 846.36 447.41 1005.63 477.20 931.88 575.89 847.14 652.03 972.29 675.60
00019966 00000145 725.79 166.20 369.84 630.49 847.50 443.98 1007.83 473.89 933.94 573.96 846.05 649.49 973.59 673.37
00019967 00000146 725.68 168.17 368.99 623.26 850.19 443.50 1009.59 471.62 938.41 572.41 850.87 648.18 976.67 670.64
00019968 00000147 727.53 166.79 369.59 622.26 852.48 441.47 1012.36 469.21 941.88 569.54 852.77 646.09 979.84 668.60
00019969 00000148 728.06 166.45 372.63 624.02 853.60 441.46 1018.53 469.36 946.74 570.44 852.28 644.95 986.91 667.28
00019970 00000149 730.52 166.96 372.22 626.14 857.82 441.78 1021.53 470.81 950.64 571.17 854.84 644.98 989.63 668.31
00019971 00000150 731.52 169.83 374.26 626.05 863.55 441.28 1022.47 472.20 954.59 571.25 859.07 647.30 986.47 672.56
00019972 00000151 735.05 172.38 373.14 630.19 869.12 440.76 1024.42 473.26 959.70 572.78 863.10 650.12 988.56 676.70
00019973 00000152 733.38 179.19 376.89 618.15 861.30 442.11 1030.12 469.08 961.29 573.66 861.78 655.44 997.02 676.84
00019974 00000153 744.27 168.09 365.21 631.92 873.13 435.72 1036.63 470.62 968.52 568.85 862.12 647.53 987.07 678.15
00019975 00000154 744.76 166.25 364.99 635.56 873.76 436.12 1037.27 471.60 969.63 568.55 862.68 647.10 988.78 678.11
00019976 00000155 744.41 166.97 366.58 632.14 875.36 435.72 1038.15 471.41 969.93 567.79 863.17 645.29 988.68 676.61
00019977 00000156 745.33 163.24 367.09 633.34 874.53 435.03 1039.88 471.01 970.81 568.43 861.25 642.95 991.47 674.54
00019978 00000157 745.44 164.02 367.16 631.61 875.09 434.25 1041.39 470.50 972.14 568.27 862.10 642.56 993.09 674.36
00019979 00000158 744.73 164.17 367.29 629.81 875.31 434.44 1042.08 470.78 972.30 567.67 862.64 642.63 993.39 674.44
00019980 00000159 745.22 165.66 366.93 627.60 875.34 434.57 1042.17 470.84 972.89 568.25 863.22 643.07 993.85 674.80
00019981 00000160 745.41 165.38 367.04 628.29 875.26 434.37 1042.68 470.89 972.88 569.06 863.13 643.45 993.96 675.39
00019982 00000161 745.47 165.47 366.30 628.03 875.33 434.30 1042.95 471.10 973.53 568.97 863.60 643.34 994.63 675.43
00019983 00000162 745.40 164.03 366.18 628.75 874.72 433.77 1042.76 470.57 973.13 567.76 863.22 642.95 994.78 674.96
00019984 00000163 744.84 162.86 366.20 629.06 874.49 432.78 1042.76 469.90 972.86 567.00 862.85 642.74 994.29 675.01
00019985 00000164 743.82 162.59 367.98 630.45 874.80 432.11 1043.40 469.08 973.45 566.25 862.77 642.52 994.21 674.72
00019986 00000165 743.27 162.01 367.54 629.27 875.25 430.19 1042.90 468.87 973.17 564.35 862.39 641.01 993.01 674.56
00019987 00000166 743.31 160.12 367.71 631.08 875.48 429.54 1042.69 467.35 974.01 563.74 862.92 641.01 993.37 673.85
00019988 00000167 743.27 159.87 366.91 630.32 875.49 428.96 1042.74 467.10 974.31 563.41 863.05 640.77 993.27 673.87
00019989 00000168 743.59 157.91 365.82 631.62 875.55 428.62 1042.36 466.99 973.92 563.00 862.52 640.14 992.69 673.38
