Video ID: 	2_ceN6PL83g
H: 	2160
W: 	3840
FPS: 	25.0

FRAME INDEX X0 Y0 W H [Landmarks (5 Points)]

00012621 00000000 1440.00 263.83 605.04 885.29 1575.45 646.98 1847.36 625.12 1703.44 808.88 1621.60 953.28 1843.73 937.69
00012622 00000001 1447.54 266.13 602.64 880.70 1586.59 651.83 1849.61 632.72 1706.88 804.69 1627.05 946.95 1843.06 932.80
00012623 DELETE   1453.64 270.50 597.26 872.18 1592.45 653.16 1855.63 639.99 1711.28 802.73 1623.12 936.85 1847.38 927.78
00012624 DELETE   1457.59 271.94 595.35 871.14 1596.30 651.27 1860.75 638.22 1716.88 801.08 1624.98 930.57 1856.43 920.93
00012625 DELETE   1459.13 269.04 595.78 872.33 1595.69 646.95 1866.35 632.45 1718.05 794.79 1626.02 927.14 1865.24 916.12
00012626 00000005 1460.15 265.74 591.27 869.79 1591.20 643.55 1860.47 628.05 1712.43 792.88 1617.41 925.73 1863.76 914.15
00012627 00000006 1458.33 266.35 590.87 868.35 1585.96 639.11 1858.13 623.87 1707.19 794.93 1608.10 922.56 1863.20 911.33
00012628 00000007 1456.36 267.52 592.37 868.03 1581.58 639.67 1854.77 621.79 1703.63 792.83 1607.24 923.61 1862.13 910.15
00012629 00000008 1454.31 266.59 595.43 872.18 1580.00 640.65 1853.56 620.43 1702.36 793.10 1609.02 924.70 1863.83 909.12
00012630 00000009 1454.65 264.66 597.58 875.75 1580.50 643.83 1853.39 621.50 1703.50 797.33 1610.37 927.11 1867.58 909.89
00012631 00000010 1458.21 262.46 599.48 877.08 1586.23 645.17 1856.94 622.03 1710.26 801.51 1615.81 927.29 1872.01 909.33
00012632 00000011 1465.33 262.19 600.04 880.90 1594.46 650.04 1864.57 625.50 1720.81 802.65 1626.64 928.98 1881.06 909.03
00012633 00000012 1476.07 268.90 595.60 876.65 1606.22 651.06 1875.15 628.68 1731.22 804.27 1636.80 929.62 1890.41 910.64
00012634 00000013 1484.32 268.56 592.37 877.74 1617.43 649.40 1889.90 630.91 1745.42 808.04 1641.72 928.55 1901.70 912.05
00012635 00000014 1490.11 268.07 597.78 877.59 1625.58 639.26 1902.57 621.53 1761.74 806.94 1646.82 929.23 1909.40 916.26
00012636 00000015 1497.86 263.68 593.83 882.97 1637.79 632.74 1912.41 620.29 1771.89 801.62 1652.04 926.59 1913.53 918.46
00012637 00000016 1503.52 259.88 589.89 887.93 1643.91 627.34 1918.78 621.24 1777.18 797.45 1652.15 924.89 1914.17 922.44
00012638 00000017 1506.46 257.72 589.09 891.87 1647.98 623.62 1922.85 621.36 1780.36 793.33 1652.57 925.53 1913.22 926.56
00012639 00000018 1507.49 256.38 587.52 886.24 1647.69 617.97 1923.17 620.13 1775.67 787.25 1652.71 924.92 1905.28 929.57
00012640 00000019 1500.20 262.78 592.70 866.14 1643.89 617.54 1926.43 625.97 1769.44 779.84 1653.42 916.69 1894.87 925.29
00012641 00000020 1503.07 254.81 588.00 882.35 1644.88 610.71 1918.45 618.25 1767.65 778.71 1648.01 919.06 1892.70 927.87
00012642 00000021 1501.78 259.46 598.66 904.06 1647.95 607.18 1927.34 614.68 1769.49 769.42 1653.22 917.40 1890.81 928.69
00012643 00000022 1490.91 268.53 606.69 905.26 1642.24 614.19 1916.05 620.18 1763.50 771.12 1659.20 932.21 1872.95 940.80
00012644 00000023 1490.11 264.93 611.41 911.55 1642.84 625.31 1918.41 624.37 1769.05 782.55 1672.52 949.00 1871.11 951.84
00012645 00000024 1490.05 264.80 616.51 914.86 1647.35 633.09 1924.97 630.30 1778.21 791.40 1682.24 955.96 1878.37 957.43
00012646 00000025 1497.61 260.43 605.52 917.84 1648.03 631.18 1928.75 625.82 1788.24 793.39 1683.11 956.47 1892.69 955.62
00012647 00000026 1502.93 262.80 601.43 915.57 1651.17 630.58 1934.77 628.61 1789.40 797.34 1675.55 950.90 1905.61 952.27
00012648 00000027 1506.15 261.97 601.84 917.86 1653.88 630.19 1936.78 628.63 1790.46 798.47 1672.02 946.51 1912.57 948.15
00012649 00000028 1510.74 261.07 596.31 907.42 1655.71 628.62 1936.94 629.23 1788.71 799.06 1669.45 940.84 1910.63 944.36
00012650 00000029 1511.21 260.69 594.59 898.09 1656.37 629.71 1934.52 632.60 1787.24 802.59 1669.71 937.49 1905.50 942.62
00012651 00000030 1510.95 261.42 592.61 893.17 1655.36 631.81 1932.00 635.57 1785.45 806.12 1671.23 940.13 1898.98 945.95
00012652 00000031 1509.41 266.19 593.87 891.86 1652.46 634.10 1931.86 638.40 1783.04 809.27 1671.01 946.06 1895.45 952.31
00012653 00000032 1506.34 267.50 595.90 898.37 1650.56 636.58 1930.27 640.32 1781.81 811.74 1672.02 952.63 1891.93 958.62
00012654 00000033 1504.38 266.35 595.94 899.77 1649.59 637.49 1927.13 641.00 1779.12 810.98 1671.29 951.55 1889.56 957.44
00012655 00000034 1504.62 264.40 592.32 897.93 1646.64 635.59 1924.76 637.51 1777.34 807.17 1665.78 943.83 1894.58 948.37
00012656 00000035 1505.42 261.10 589.57 890.34 1646.18 628.60 1922.09 628.38 1777.49 801.20 1662.73 934.73 1898.15 937.03
00012657 DELETE   1504.68 264.03 591.58 885.45 1646.36 629.46 1924.93 629.90 1772.89 792.75 1658.37 928.25 1901.10 931.10
00012658 DELETE   1506.25 255.56 591.55 891.26 1648.86 622.60 1923.77 624.53 1771.45 782.73 1657.35 922.60 1900.03 927.13
00012659 00000038 1505.85 250.14 593.86 895.12 1645.16 619.15 1921.91 615.95 1768.17 777.44 1657.75 921.64 1902.78 922.22
00012660 00000039 1504.98 249.66 593.04 895.80 1642.88 617.91 1918.20 614.83 1763.93 780.68 1657.60 921.53 1899.58 921.73
00012661 00000040 1502.22 251.47 589.62 885.78 1638.51 619.57 1914.66 615.92 1762.80 784.29 1653.96 920.76 1898.61 920.22
00012662 00000041 1499.91 256.40 585.63 866.05 1632.64 622.70 1906.12 616.30 1757.33 786.78 1651.09 921.49 1892.70 918.58
00012663 00000042 1496.91 259.03 587.14 866.65 1630.04 624.27 1901.67 616.98 1753.35 788.54 1650.43 920.84 1889.72 917.04
00012664 00000043 1494.22 255.34 590.40 881.63 1626.75 627.93 1898.45 613.58 1753.69 786.07 1646.86 924.01 1892.88 914.43
00012665 00000044 1493.14 256.59 591.00 883.62 1625.89 628.27 1896.04 612.91 1751.22 787.75 1645.36 921.84 1896.78 910.65
00012666 00000045 1493.60 259.22 591.48 884.30 1625.96 628.68 1895.81 612.60 1751.28 788.43 1644.13 918.11 1902.67 905.86
00012667 00000046 1492.32 266.21 591.86 899.32 1627.27 624.79 1898.66 608.33 1750.93 787.19 1648.73 924.59 1903.38 913.09
00012668 00000047 1491.63 270.25 602.59 903.97 1627.97 627.54 1900.92 613.81 1749.10 784.69 1651.07 926.08 1906.50 915.20
00012669 00000048 1492.64 275.89 602.20 900.69 1628.66 629.70 1901.66 617.24 1748.33 779.32 1651.46 925.60 1902.03 915.84
00012670 00000049 1492.33 274.74 601.21 904.58 1629.56 632.08 1903.39 621.92 1748.58 775.81 1644.79 922.35 1906.56 914.21
00012671 00000050 1494.98 275.29 598.76 890.46 1634.35 628.62 1908.94 626.50 1752.91 776.76 1639.87 913.73 1911.63 911.83
00012672 DELETE   1496.42 264.79 594.28 892.38 1637.78 626.03 1914.45 626.70 1757.30 769.79 1643.54 905.49 1906.63 907.60
00012673 DELETE   1500.34 261.10 593.64 874.63 1646.61 619.05 1922.52 622.31 1767.47 767.67 1649.70 897.44 1906.68 902.34
00012674 DELETE   1504.97 257.94 595.34 865.31 1655.13 615.95 1929.69 623.72 1774.04 758.00 1656.34 892.04 1905.64 901.30
00012675 00000054 1505.82 243.42 599.68 869.20 1658.89 608.42 1940.59 619.85 1781.47 757.70 1661.14 892.93 1905.73 905.14
00012676 00000055 1510.00 237.86 597.20 874.12 1661.77 602.89 1942.73 615.48 1783.66 756.38 1662.90 890.73 1904.86 903.97
00012677 00000056 1512.31 238.05 597.71 873.44 1663.95 599.47 1944.27 614.45 1784.29 757.92 1662.91 888.27 1903.30 903.47
00012678 00000057 1518.13 232.45 595.70 875.55 1668.00 591.45 1944.60 607.23 1789.92 755.39 1658.59 889.03 1900.07 905.23
00012679 00000058 1518.87 232.55 596.02 880.78 1669.66 591.40 1943.54 608.00 1788.17 758.60 1659.37 891.13 1898.05 907.85
00012680 00000059 1517.64 238.80 597.19 880.47 1667.61 599.64 1945.93 618.06 1783.52 767.29 1665.49 895.39 1897.96 913.15
00012681 00000060 1518.96 238.29 594.55 884.04 1667.92 600.71 1941.29 617.86 1787.01 776.19 1661.50 904.52 1895.86 921.35
00012682 00000061 1519.88 246.37 591.53 885.62 1667.82 607.80 1942.25 627.24 1785.29 788.46 1663.55 913.06 1893.91 931.42
00012683 00000062 1521.16 258.45 588.86 881.09 1669.29 621.41 1942.29 641.64 1781.35 797.01 1667.21 916.57 1889.23 935.75
00012684 DELETE   1520.14 264.69 589.94 891.09 1668.52 626.89 1942.50 643.93 1791.28 810.32 1671.03 932.14 1884.63 949.48
00012685 00000064 1518.40 269.72 592.61 905.18 1666.90 635.06 1941.66 647.22 1792.46 822.13 1680.61 957.17 1880.95 970.78
00012686 00000065 1517.38 273.57 595.43 909.13 1664.81 638.52 1939.19 650.04 1789.34 827.99 1679.18 964.77 1880.27 977.68
00012687 00000066 1514.74 272.44 596.33 907.70 1662.20 639.73 1938.65 651.47 1786.58 829.12 1676.65 962.94 1883.17 975.61
00012688 00000067 1511.98 271.75 595.12 895.50 1658.24 638.41 1935.88 651.55 1783.06 825.73 1671.91 955.20 1885.47 968.33
00012689 00000068 1509.38 274.16 594.93 895.31 1653.28 637.70 1932.55 652.01 1776.52 819.18 1661.32 946.04 1888.58 960.46
00012690 00000069 1507.01 276.04 595.86 903.84 1649.88 640.24 1930.69 653.82 1774.92 822.88 1653.23 945.87 1893.58 959.79
00012691 00000070 1504.12 279.59 597.58 901.11 1648.43 644.94 1928.03 657.22 1773.04 829.45 1651.92 948.76 1893.55 961.34
00012692 00000071 1502.05 279.26 602.36 891.12 1648.50 650.15 1927.62 660.44 1773.88 836.35 1659.45 957.28 1889.99 967.64
00012693 00000072 1501.39 278.43 601.82 881.06 1645.75 652.28 1928.20 663.34 1772.15 837.68 1654.89 956.49 1890.42 967.01
00012694 00000073 1501.16 280.06 602.00 876.75 1644.95 655.63 1928.33 664.70 1773.47 842.87 1657.39 957.95 1893.61 966.38
00012695 00000074 1501.03 290.01 600.66 877.55 1645.21 661.59 1927.77 669.03 1775.27 854.23 1659.02 963.72 1895.76 970.77
00012696 00000075 1499.87 296.10 604.86 881.95 1648.33 665.41 1926.56 673.77 1771.42 862.71 1665.50 976.62 1888.96 984.55
00012697 00000076 1500.55 296.58 603.74 885.66 1648.74 666.55 1926.74 675.49 1771.09 865.53 1666.34 981.08 1888.33 989.41
00012698 00000077 1500.80 297.26 603.35 884.11 1648.75 666.26 1927.44 676.00 1771.03 864.77 1664.81 981.03 1886.97 990.07
00012699 00000078 1499.90 297.00 601.04 880.42 1647.42 665.10 1928.01 676.75 1772.08 866.47 1660.04 976.51 1888.14 986.74
00012700 00000079 1499.44 298.72 599.55 873.34 1644.39 664.39 1926.11 677.01 1769.56 865.09 1654.49 970.12 1889.11 980.85
00012701 00000080 1496.61 300.56 598.85 873.38 1644.19 664.92 1921.95 677.81 1765.99 858.43 1653.87 963.88 1885.35 975.19
00012702 00000081 1495.46 301.86 596.57 877.16 1641.07 678.18 1919.93 684.57 1766.11 854.03 1651.15 963.73 1892.91 970.56
00012703 DELETE   1491.67 297.42 601.01 877.52 1639.09 685.06 1919.04 689.68 1764.50 853.39 1651.05 966.26 1891.75 971.90
00012704 00000083 1491.12 295.43 600.95 876.47 1637.73 682.75 1919.45 686.53 1764.66 854.10 1652.07 966.54 1890.62 971.16
00012705 00000084 1494.51 296.26 599.58 871.45 1638.36 676.62 1921.96 681.03 1765.72 854.10 1654.79 966.94 1893.12 971.28
00012706 00000085 1495.66 297.79 601.69 873.41 1641.50 672.44 1922.54 676.93 1769.49 856.49 1659.01 966.27 1895.54 970.42
00012707 00000086 1495.31 301.73 602.99 874.15 1642.32 671.27 1923.58 677.13 1769.88 858.57 1655.24 965.15 1899.52 970.49
00012708 00000087 1495.73 303.65 603.00 877.47 1643.87 673.11 1924.89 677.45 1773.29 861.44 1655.85 966.94 1906.00 970.82
00012709 00000088 1496.35 307.25 603.07 875.76 1644.69 672.53 1925.03 677.11 1773.99 862.07 1656.13 967.19 1907.28 971.15
00012710 00000089 1496.84 305.37 603.34 874.85 1646.26 671.03 1926.45 677.71 1775.16 862.08 1658.17 970.71 1899.91 977.04
00012711 00000090 1499.08 300.81 602.06 873.18 1645.48 670.47 1928.63 677.54 1776.47 864.51 1659.16 975.97 1898.11 982.39
00012712 00000091 1507.76 296.12 592.64 879.08 1648.76 670.61 1928.51 675.58 1777.82 860.24 1659.45 980.36 1900.47 984.63
00012713 00000092 1507.15 292.01 597.07 887.39 1653.53 670.28 1930.90 675.08 1781.51 859.16 1666.90 980.88 1900.02 984.65
00012714 00000093 1508.40 291.99 597.57 889.12 1656.84 669.23 1931.71 674.79 1782.75 857.72 1671.08 980.94 1899.32 985.28
00012715 00000094 1510.38 290.06 595.81 888.07 1657.13 667.08 1934.78 673.48 1784.02 857.40 1669.86 979.09 1901.78 984.15
00012716 00000095 1513.51 288.04 592.68 882.67 1656.06 664.49 1935.03 671.27 1783.13 855.22 1665.88 975.37 1902.29 981.02
00012717 00000096 1512.45 284.38 594.91 887.15 1657.45 662.13 1934.35 668.15 1784.47 851.84 1666.64 972.38 1900.87 977.66
00012718 00000097 1505.92 283.06 602.47 887.44 1653.75 659.99 1935.15 664.12 1786.65 852.95 1675.76 975.98 1898.22 980.39
00012719 00000098 1504.35 280.38 603.04 893.33 1652.49 660.65 1933.71 661.91 1785.75 850.21 1677.72 975.72 1900.90 977.97
00012720 00000099 1501.52 283.02 605.68 890.56 1649.78 661.61 1929.71 661.64 1781.07 848.63 1675.63 974.03 1898.85 975.47
00012721 00000100 1498.94 285.39 605.58 888.55 1644.42 665.07 1922.61 662.60 1773.14 848.59 1671.92 973.93 1894.57 973.42
00012722 00000101 1495.24 291.33 603.51 883.66 1636.92 668.47 1917.96 664.36 1766.50 852.49 1665.85 976.17 1892.79 974.23
00012723 00000102 1491.27 303.81 604.05 877.22 1629.56 675.39 1910.07 670.25 1754.42 861.28 1662.00 983.85 1885.31 980.66
00012724 00000103 1491.55 304.39 598.44 890.82 1629.39 689.56 1900.13 683.04 1749.26 874.24 1662.04 1002.17 1880.18 996.85
00012725 DELETE   1484.85 304.57 603.53 899.87 1619.77 710.10 1891.53 695.30 1746.01 888.00 1663.92 1010.44 1879.33 1000.48
00012726 00000105 1481.36 311.21 608.46 877.76 1618.46 708.97 1894.92 698.44 1742.54 889.88 1658.72 1002.38 1880.98 993.41
00012727 00000106 1481.92 311.53 604.41 875.26 1619.07 701.23 1895.66 691.34 1742.49 887.98 1657.16 995.28 1883.33 986.30
00012728 00000107 1486.05 311.30 598.83 872.81 1620.31 691.00 1896.16 682.34 1741.46 884.01 1656.38 985.60 1886.25 977.62
00012729 00000108 1485.20 305.91 593.46 872.28 1619.03 683.38 1890.17 673.45 1744.29 875.85 1650.77 980.24 1885.83 970.16
00012730 00000109 1484.62 305.27 590.81 868.22 1616.37 680.76 1887.72 670.18 1741.34 870.03 1648.61 978.27 1881.73 967.90
00012731 00000110 1483.14 304.29 589.84 865.80 1613.80 677.88 1885.24 669.31 1737.93 869.05 1643.86 975.27 1876.44 966.74
00012732 00000111 1482.61 302.45 588.47 865.81 1614.57 677.12 1883.69 667.85 1737.91 865.28 1646.21 976.38 1873.68 967.41
00012733 00000112 1482.67 302.02 588.12 865.23 1615.24 677.28 1883.99 666.27 1739.91 863.14 1648.42 977.91 1874.18 967.47
00012734 00000113 1482.41 301.80 588.46 864.56 1615.02 677.82 1884.33 665.95 1740.55 862.14 1649.50 978.96 1874.49 968.05
CROP_BBOX: 1099 0 2464 1402
