Video ID: 	TpQ5R3ftRGI
H: 	1080
W: 	1920
FPS: 	24.0

FRAME INDEX X0 Y0 W H [Landmarks (5 Points)]

00015510 00000000 808.44 117.70 409.78 525.22 930.84 358.17 1105.47 299.56 1057.81 423.43 1009.97 529.30 1154.85 481.35
00015511 DELETE   798.69 114.78 412.06 526.10 911.99 355.63 1085.89 293.08 1037.43 421.77 990.73 528.06 1135.06 473.88
00015512 DELETE   781.15 118.61 421.27 530.38 889.82 349.43 1060.55 296.15 1002.42 413.70 967.52 529.47 1106.61 483.21
00015513 00000003 774.82 122.98 416.76 531.19 872.45 355.26 1045.23 305.27 978.33 418.12 951.60 540.97 1089.73 498.64
00015514 00000004 771.74 125.81 416.69 538.28 870.84 361.94 1043.39 316.09 974.13 435.38 948.60 547.45 1086.17 508.21
00015515 DELETE   776.40 130.30 417.67 544.38 885.13 380.68 1053.93 327.56 995.03 452.71 962.08 557.06 1099.41 512.08
00015516 00000006 787.53 144.94 416.65 535.28 895.88 388.18 1060.73 323.37 1016.80 449.34 983.72 567.49 1119.06 510.19
00015517 00000007 788.58 143.68 417.37 531.75 898.10 385.42 1066.09 318.74 1021.59 448.04 986.77 565.78 1122.54 506.77
00015518 00000008 775.64 139.41 418.01 527.69 889.35 379.46 1062.10 324.07 1008.25 450.85 966.93 554.51 1104.41 507.40
00015519 DELETE   763.21 132.40 429.57 536.67 875.24 372.07 1048.01 322.52 986.42 441.52 952.28 549.44 1092.34 506.96
00015520 00000010 758.02 130.86 434.29 538.61 863.96 365.98 1037.16 318.50 970.06 434.68 943.40 547.02 1083.67 506.03
00015521 00000011 753.27 135.27 430.14 533.20 860.99 365.32 1032.66 317.78 968.25 434.27 939.92 545.29 1079.26 504.41
00015522 00000012 754.64 135.99 426.47 528.53 859.76 367.00 1033.61 316.96 969.14 434.86 939.95 545.63 1082.01 502.63
00015523 00000013 754.63 135.79 425.45 530.25 860.84 368.47 1035.88 317.94 971.93 434.31 939.80 546.34 1083.96 502.83
00015524 00000014 757.46 137.04 426.87 529.84 863.48 374.00 1037.40 322.45 974.52 436.81 942.86 548.83 1085.39 504.24
00015525 00000015 760.10 138.83 421.22 529.12 866.32 376.61 1039.73 327.86 976.60 444.29 940.92 550.25 1083.59 508.29
00015526 00000016 763.67 140.13 416.28 532.58 868.44 378.58 1043.77 330.57 979.79 449.60 943.72 555.76 1086.28 514.53
00015527 00000017 771.23 141.60 412.48 532.36 875.05 383.18 1047.76 333.39 986.45 452.06 951.68 559.45 1090.37 517.25
00015528 00000018 777.49 142.76 409.32 528.03 882.64 384.88 1054.18 332.83 993.48 451.39 957.80 556.35 1097.84 512.26
00015529 00000019 783.85 147.05 409.36 524.47 887.76 381.98 1051.64 327.42 998.67 444.97 965.57 556.42 1101.74 508.21
00015530 00000020 781.80 142.69 410.11 524.86 888.38 383.47 1060.89 332.56 999.98 452.35 960.37 553.88 1100.28 510.63
00015531 00000021 786.72 145.99 409.81 520.90 887.84 382.56 1052.28 329.05 997.27 444.42 961.55 553.88 1100.70 506.51
00015532 00000022 782.10 144.59 412.68 518.67 885.97 382.34 1057.96 332.70 994.80 450.58 958.03 550.14 1097.70 507.72
00015533 00000023 783.93 142.16 415.50 522.97 887.40 381.07 1059.86 333.54 994.15 448.02 956.19 549.27 1097.30 508.70
00015534 00000024 787.10 142.86 413.08 522.45 888.44 379.08 1059.82 332.03 993.65 447.24 956.06 549.15 1096.51 509.10
00015535 00000025 791.86 149.03 409.13 518.64 889.44 376.45 1051.16 327.85 991.41 440.55 959.57 551.42 1095.84 508.29
00015536 00000026 791.90 150.74 411.30 519.75 890.85 374.00 1049.88 327.30 990.44 435.96 959.91 550.70 1091.99 509.03
00015537 00000027 791.97 147.97 411.25 523.65 892.42 371.64 1051.05 326.54 991.44 435.68 961.12 551.71 1089.11 511.58
00015538 00000028 790.25 141.54 413.05 526.46 890.96 373.55 1059.45 334.12 989.75 441.81 955.53 548.67 1090.05 515.03
00015539 00000029 790.52 141.88 409.65 521.80 890.91 372.03 1061.33 334.84 991.02 440.93 953.17 544.52 1090.41 512.65
00015540 00000030 790.92 140.34 408.92 525.22 891.33 370.68 1061.05 333.19 990.63 440.54 950.89 544.60 1089.11 512.73
00015541 00000031 791.53 138.34 408.72 529.06 890.77 367.44 1058.37 331.27 988.74 439.50 949.68 544.17 1086.69 513.39
00015542 00000032 791.38 135.86 409.90 534.61 890.66 366.52 1058.48 331.47 987.45 438.30 949.83 545.52 1086.14 515.91
00015543 00000033 791.62 136.70 411.59 536.32 890.27 367.73 1057.67 331.23 986.17 437.23 950.44 547.87 1085.94 517.12
00015544 00000034 793.01 135.74 410.74 533.65 887.18 366.69 1057.01 331.75 980.64 437.27 945.93 546.07 1083.74 516.65
00015545 00000035 793.81 131.66 407.18 535.16 885.47 364.28 1054.51 328.55 978.34 432.25 944.90 544.95 1081.56 515.00
00015546 00000036 795.25 127.94 405.92 534.67 881.51 357.25 1053.56 320.30 972.02 422.20 942.09 539.72 1082.84 508.67
00015547 00000037 800.24 127.46 400.33 522.59 885.05 351.60 1053.05 316.34 971.72 417.82 938.16 525.77 1081.72 495.93
00015548 00000038 802.95 119.96 396.67 527.63 886.41 349.11 1052.08 313.70 971.68 408.69 938.79 521.47 1082.16 491.39
00015549 00000039 805.88 118.19 396.75 535.55 888.54 350.87 1057.78 316.37 973.39 415.21 939.42 527.04 1083.55 498.13
00015550 00000040 809.63 122.12 396.86 535.11 891.59 356.05 1065.08 323.40 974.54 421.71 942.00 535.18 1084.78 507.97
00015551 00000041 818.19 126.76 385.09 534.68 898.38 360.69 1068.97 332.00 978.66 431.31 944.10 541.63 1083.13 518.07
00015552 00000042 822.28 135.70 381.12 532.85 904.22 365.72 1075.85 343.89 982.44 438.39 945.15 546.92 1083.10 529.18
00015553 00000043 824.05 133.39 383.69 545.15 905.11 378.16 1075.63 348.37 984.24 437.28 949.73 555.60 1088.98 529.88
00015554 00000044 824.34 134.78 384.72 545.83 906.77 376.67 1076.85 348.24 986.34 436.81 950.37 554.50 1090.51 529.72
00015555 00000045 824.40 131.13 385.92 541.75 907.85 371.75 1077.38 341.88 989.43 431.14 953.54 550.30 1090.61 524.58
00015556 00000046 823.83 129.35 384.60 533.81 905.05 363.30 1080.12 338.14 983.85 430.02 947.36 545.22 1087.59 524.94
00015557 00000047 821.79 122.09 386.47 537.50 901.75 360.99 1075.33 331.05 980.25 425.15 947.84 543.84 1087.69 519.44
00015558 00000048 820.36 119.08 387.50 542.24 899.18 360.89 1072.14 330.01 977.21 424.02 944.33 542.93 1085.43 517.79
00015559 00000049 821.68 126.47 384.02 539.38 902.10 363.19 1073.27 335.35 979.34 428.19 944.72 546.81 1081.92 524.32
00015560 00000050 821.71 129.50 383.84 539.19 903.51 364.12 1074.32 341.02 980.61 433.07 944.91 548.39 1080.55 530.07
00015561 00000051 821.46 132.23 385.80 535.52 906.62 363.60 1076.30 340.82 985.19 432.77 950.30 547.94 1082.42 529.65
00015562 00000052 819.02 122.22 393.41 546.40 904.88 365.28 1077.34 331.05 989.58 418.65 957.33 547.54 1088.89 518.44
00015563 00000053 819.12 124.34 388.50 539.62 903.31 359.88 1077.08 332.27 985.28 425.04 948.59 543.64 1088.14 521.12
00015564 00000054 817.60 125.96 387.78 538.15 898.81 361.77 1071.23 333.71 978.81 426.94 943.50 543.61 1083.07 520.59
00015565 00000055 814.18 130.35 387.23 536.91 894.70 362.30 1067.41 338.54 974.65 432.14 938.29 544.84 1077.03 525.41
00015566 00000056 811.34 131.18 387.00 540.40 894.63 365.56 1066.34 344.60 975.58 436.86 936.89 547.50 1074.55 530.42
00015567 00000057 813.83 135.73 384.52 537.09 897.52 366.88 1067.76 346.10 977.77 437.99 939.59 550.20 1073.03 533.60
00015568 00000058 821.59 135.12 381.55 541.49 904.12 369.67 1079.06 349.31 985.66 440.28 942.57 549.66 1086.67 533.08
00015569 00000059 827.73 136.09 388.54 545.45 918.21 374.09 1091.05 351.57 1004.25 441.85 962.51 555.61 1103.89 534.89
00015570 00000060 831.01 143.40 392.95 538.36 930.15 368.93 1108.88 360.81 1020.81 452.36 972.70 548.73 1116.17 541.52
00015571 00000061 836.03 142.10 389.15 529.99 933.85 365.84 1114.25 358.79 1024.29 448.18 975.35 543.51 1118.42 537.28
00015572 00000062 827.78 130.33 393.05 533.33 925.81 367.68 1098.24 349.26 1018.32 430.66 967.81 540.95 1104.93 523.99
00015573 DELETE   821.86 125.58 390.01 527.57 911.73 354.79 1091.28 337.04 995.26 423.27 948.30 533.13 1093.38 518.36
00015574 DELETE   815.13 122.47 385.43 530.52 897.17 350.43 1072.83 326.75 978.70 420.34 936.39 530.93 1081.46 511.38
00015575 00000065 807.76 122.52 382.25 530.58 885.37 349.99 1054.87 324.50 965.70 423.56 932.41 533.47 1069.76 512.67
00015576 00000066 803.03 131.31 383.05 530.25 881.15 356.33 1051.73 333.86 963.14 435.53 928.65 542.56 1065.03 524.23
00015577 00000067 799.67 143.16 386.34 525.29 882.94 366.54 1057.28 344.42 969.61 449.14 931.93 551.59 1068.06 533.63
00015578 00000068 797.09 144.43 389.21 530.16 887.32 369.35 1064.53 347.36 980.86 453.63 937.95 554.83 1076.58 536.65
00015579 00000069 795.50 140.16 391.24 534.07 888.67 370.09 1065.03 344.22 987.54 453.16 941.93 553.21 1082.90 531.66
00015580 00000070 792.90 137.16 387.99 532.15 886.69 366.58 1061.29 340.13 985.14 449.84 942.93 549.93 1082.06 527.56
00015581 00000071 786.76 141.02 388.88 528.43 882.11 367.62 1056.07 339.65 981.99 451.97 939.23 550.23 1078.18 526.43
00015582 00000072 778.34 145.47 395.31 527.41 878.01 376.62 1052.76 347.25 978.28 457.85 934.65 554.37 1073.87 529.49
00015583 00000073 777.02 145.70 395.51 531.93 877.57 380.62 1053.43 352.75 978.03 461.35 932.09 555.23 1074.57 531.45
00015584 00000074 786.89 156.48 395.87 530.39 882.37 379.23 1054.61 349.09 983.46 459.00 937.69 563.92 1080.47 536.89
00015585 00000075 787.94 155.79 395.77 530.34 882.93 380.05 1055.18 349.79 983.96 458.89 937.71 563.71 1080.99 536.45
00015586 00000076 777.06 148.15 397.84 530.83 879.01 384.75 1052.58 358.17 977.35 463.96 930.63 554.53 1073.65 531.90
00015587 00000077 777.29 145.94 392.66 533.40 876.31 386.19 1049.39 362.66 972.36 462.45 926.18 554.58 1070.32 534.57
00015588 00000078 772.89 145.81 395.54 530.29 872.00 383.29 1048.45 363.56 967.02 462.08 921.89 552.68 1066.60 535.61
00015589 00000079 767.77 144.14 402.59 537.67 865.63 382.02 1039.37 358.90 957.39 458.32 916.47 553.40 1060.20 533.73
00015590 00000080 761.86 139.85 408.57 541.81 859.90 377.58 1033.59 355.40 950.43 454.31 911.45 551.62 1054.58 532.61
00015591 00000081 760.59 136.77 408.06 541.96 858.30 376.80 1030.78 356.42 946.40 453.71 910.06 549.62 1051.23 531.92
00015592 00000082 764.27 138.19 406.06 541.91 860.58 376.23 1033.48 356.90 948.49 454.24 909.72 550.10 1051.32 533.42
00015593 00000083 768.96 134.83 402.34 541.95 862.29 373.17 1037.93 356.51 950.00 454.02 909.92 547.86 1054.92 533.23
00015594 00000084 772.20 135.22 398.71 536.64 863.42 370.31 1040.14 356.78 950.81 453.20 909.78 545.75 1053.75 533.97
00015595 00000085 768.90 131.66 398.97 535.94 861.57 368.59 1038.59 354.67 948.81 449.73 910.48 545.64 1051.33 533.46
00015596 00000086 764.00 131.63 400.99 534.84 858.48 368.94 1033.20 353.56 945.57 449.62 909.52 545.21 1048.10 531.74
00015597 00000087 760.44 130.54 401.55 533.88 853.91 369.64 1025.84 350.54 940.13 445.11 907.54 543.74 1045.26 527.30
00015598 00000088 757.78 126.59 403.97 540.53 850.08 369.66 1022.36 348.90 935.39 442.86 904.20 543.03 1044.81 524.97
00015599 00000089 760.65 128.84 398.99 535.02 851.63 371.11 1023.07 351.50 935.63 441.42 903.07 540.23 1043.54 523.16
00015600 00000090 760.91 133.22 402.33 529.72 855.26 372.29 1027.86 353.98 940.82 443.01 905.45 540.12 1046.04 524.05
00015601 00000091 763.48 128.48 401.19 533.96 858.29 370.67 1032.37 353.52 946.19 443.97 908.23 540.14 1050.52 524.93
00015602 00000092 764.10 125.22 402.13 537.02 860.27 369.49 1034.53 351.72 949.55 441.45 910.78 537.98 1055.36 522.01
00015603 00000093 763.56 125.47 399.86 531.35 858.40 367.44 1033.79 346.97 948.08 439.23 911.54 538.12 1054.64 520.27
00015604 00000094 759.49 127.75 401.08 528.29 854.83 366.83 1030.84 344.22 944.95 437.90 909.95 538.13 1052.50 518.61
00015605 00000095 755.29 125.66 400.07 529.40 849.27 366.51 1022.25 342.21 936.18 437.15 905.57 538.20 1045.16 517.79
00015606 00000096 752.11 127.39 398.75 529.33 843.62 368.41 1018.38 343.45 929.51 437.96 901.07 540.44 1042.01 519.64
00015607 00000097 749.53 128.82 401.65 532.22 842.51 371.31 1017.01 348.03 927.23 443.83 898.82 543.62 1039.12 524.07
00015608 00000098 751.81 131.42 401.21 533.22 843.26 374.04 1019.04 352.42 928.40 449.83 898.03 546.17 1039.89 527.75
00015609 00000099 754.21 131.87 399.01 533.94 848.00 373.74 1022.58 354.65 933.97 451.03 901.46 546.24 1041.52 529.94
00015610 00000100 755.76 134.28 400.13 528.84 853.23 373.73 1028.41 355.68 941.92 451.19 906.37 544.23 1046.92 528.71
00015611 00000101 755.55 134.81 401.84 531.46 852.76 374.57 1029.85 354.33 943.87 452.79 909.48 548.32 1050.85 530.78
00015612 00000102 755.30 128.88 403.47 557.00 850.63 373.22 1023.58 351.58 938.16 453.31 906.97 553.06 1050.71 534.54
00015613 00000103 752.53 122.06 407.15 547.74 848.65 363.42 1028.70 337.86 941.53 437.57 909.61 545.31 1053.43 523.40
00015614 00000104 753.48 113.80 396.16 542.47 844.46 346.70 1021.18 316.20 937.22 415.50 905.62 528.89 1051.76 503.48
00015615 00000105 746.67 106.36 404.34 531.76 834.75 333.62 1009.65 295.49 928.37 399.16 897.34 517.25 1040.61 484.16
00015616 00000106 739.56 95.54 413.03 536.06 823.63 328.47 996.17 282.27 915.51 384.62 893.32 509.98 1036.16 469.58
00015617 00000107 730.61 101.58 415.20 533.35 812.70 334.83 978.55 284.21 900.25 389.92 887.15 514.83 1025.70 471.10
00015618 00000108 724.24 112.14 417.14 533.33 808.10 342.51 974.85 292.54 894.55 407.11 882.63 526.43 1019.39 483.54
00015619 00000109 724.10 116.67 413.72 532.11 809.26 348.77 977.67 300.14 897.52 415.83 882.84 532.72 1021.43 491.19
00015620 00000110 725.90 116.46 415.10 531.13 814.61 348.68 986.48 300.71 908.63 413.24 885.64 528.08 1029.22 486.77
00015621 00000111 726.40 113.52 412.46 525.91 818.33 344.12 988.76 296.06 916.30 401.41 888.18 518.64 1033.51 476.88
00015622 00000112 723.47 113.24 416.80 520.21 816.91 341.09 984.18 292.66 912.94 396.33 886.34 510.71 1030.36 468.27
00015623 00000113 720.15 115.19 418.36 524.11 813.76 340.25 977.98 295.10 906.49 396.10 881.30 512.42 1021.62 472.85
00015624 00000114 717.57 118.00 417.55 531.56 809.24 346.39 976.02 303.46 902.20 406.83 875.82 524.76 1015.33 487.65
00015625 00000115 721.78 119.24 419.98 537.12 812.39 353.04 982.18 314.64 903.84 416.38 874.75 532.16 1013.24 499.57
00015626 00000116 730.25 122.66 416.41 536.14 823.70 361.25 1001.04 328.85 917.59 428.02 878.57 537.75 1020.88 510.26
00015627 DELETE   739.22 135.45 403.00 528.51 837.16 368.36 1013.11 346.15 933.21 442.89 888.97 542.32 1029.33 522.99
00015628 DELETE   754.76 140.24 400.61 525.29 859.94 371.56 1039.79 358.76 952.58 454.74 906.79 545.01 1049.50 533.89
00015629 DELETE   763.05 147.88 392.22 536.95 871.66 381.30 1049.22 370.42 966.30 467.06 911.03 555.29 1054.87 546.28
00015630 00000120 780.67 162.29 386.61 538.47 878.53 385.67 1051.21 375.86 974.00 472.33 918.17 571.29 1057.18 563.29
00015631 00000121 782.21 169.45 386.01 530.46 881.97 389.34 1052.31 378.79 977.45 476.47 923.28 572.92 1060.85 563.55
00015632 00000122 775.14 167.29 392.38 531.41 878.04 384.32 1049.26 371.08 973.60 463.69 917.71 563.42 1058.41 553.05
00015633 DELETE   753.44 141.72 408.72 545.30 863.10 374.83 1040.44 361.47 955.87 455.56 905.30 551.89 1047.97 540.82
00015634 DELETE   745.58 127.39 400.53 555.23 839.86 368.67 1015.52 343.88 928.49 437.57 891.37 553.13 1031.03 530.67
00015635 DELETE   736.52 135.85 401.73 549.05 822.16 372.86 994.08 348.59 900.52 441.86 866.64 554.98 1004.14 534.89
00015636 00000126 732.00 148.36 398.34 543.58 806.22 379.89 967.70 343.98 877.41 437.98 853.75 559.90 993.24 529.88
00015637 00000127 727.23 159.67 399.40 538.05 799.98 387.75 965.41 354.16 872.22 449.91 843.33 566.81 988.58 538.49
00015638 00000128 726.18 169.36 394.45 527.23 797.26 395.13 964.44 368.45 871.20 469.06 840.72 573.16 986.08 549.99
00015639 00000129 731.35 176.21 392.35 525.12 803.31 401.92 973.43 380.64 876.04 475.43 841.92 576.13 989.34 557.62
00015640 DELETE   734.48 174.08 393.96 517.31 814.38 395.23 984.93 372.45 894.70 468.54 858.39 571.06 998.68 550.71
00015641 00000131 739.29 162.98 389.60 523.15 816.26 387.57 987.41 354.18 902.25 459.38 868.80 569.54 1010.72 540.35
00015642 00000132 735.05 148.15 393.57 530.44 818.83 378.13 991.28 343.41 912.56 449.64 877.29 565.29 1015.25 534.28
00015643 00000133 725.25 137.59 397.32 533.29 817.05 369.32 991.35 341.16 912.56 447.53 873.53 550.26 1013.12 526.40
00015644 00000134 723.61 139.83 394.79 523.38 812.11 366.08 985.20 337.98 904.33 438.01 868.60 545.52 1007.93 521.54
00015645 00000135 717.80 137.69 399.21 528.15 807.02 364.17 978.39 336.46 898.96 438.94 863.98 545.27 1002.87 521.55
00015646 00000136 715.40 140.91 400.65 527.37 806.70 366.61 980.40 339.10 900.95 444.25 863.38 548.12 1003.14 524.46
00015647 00000137 715.36 140.76 400.99 527.77 807.82 366.72 981.23 337.75 903.37 444.67 866.75 548.42 1005.93 523.49
00015648 00000138 715.69 137.80 398.61 528.88 808.40 364.52 979.69 333.13 904.21 440.85 872.80 548.17 1008.85 521.21
00015649 00000139 713.24 135.10 398.36 530.52 805.54 361.38 978.09 330.49 902.19 438.17 870.30 545.92 1008.55 519.30
00015650 00000140 707.94 134.28 403.93 532.13 800.90 359.53 974.09 327.38 897.73 433.24 865.10 544.18 1004.64 516.50
00015651 00000141 702.96 135.38 408.96 530.71 797.32 359.42 971.97 326.19 894.89 431.31 860.58 542.55 1002.67 514.32
00015652 00000142 696.94 133.19 411.83 531.55 791.27 360.11 964.30 325.74 887.04 431.72 856.02 541.45 997.92 512.08
00015653 00000143 687.07 133.65 416.34 527.65 782.22 361.40 956.31 325.67 876.29 428.64 848.49 540.29 990.74 509.99
00015654 00000144 676.73 131.97 423.14 533.05 770.18 369.36 943.55 326.24 863.12 429.76 839.96 544.56 984.20 508.31
00015655 00000145 675.65 135.83 420.54 526.89 765.53 375.65 937.77 332.83 854.63 433.20 835.39 545.90 977.19 509.91
00015656 00000146 675.25 140.83 418.04 536.04 765.21 381.27 935.68 342.12 853.35 445.39 834.15 555.05 974.62 522.20
00015657 00000147 675.44 147.59 413.47 539.59 770.73 387.24 943.75 351.80 862.45 462.62 836.13 563.57 978.33 533.95
00015658 00000148 682.53 162.63 408.11 524.85 783.15 399.13 956.57 367.22 878.71 482.07 847.10 569.45 988.89 542.39
00015659 00000149 694.14 177.29 407.69 522.54 794.28 411.60 963.10 376.66 892.28 483.92 857.70 585.64 995.22 556.26
00015660 00000150 693.63 177.63 407.61 521.05 798.05 410.83 966.33 377.26 898.32 484.00 861.52 585.09 996.97 556.82
00015661 00000151 689.78 175.78 403.85 519.39 792.18 400.26 962.66 367.71 892.69 476.10 853.54 576.40 991.02 549.47
00015662 00000152 678.42 160.68 404.09 524.47 780.69 395.71 954.28 364.71 877.82 476.10 842.56 564.82 983.95 538.66
00015663 00000153 674.43 156.05 403.99 534.51 766.90 395.37 939.64 361.16 858.96 470.12 831.26 566.73 974.47 538.05
00015664 00000154 672.35 155.28 404.04 540.09 759.80 400.21 933.23 363.21 849.68 472.01 826.25 572.69 968.52 542.01
00015665 00000155 674.27 169.31 402.25 524.96 758.00 408.44 928.13 368.27 848.78 478.46 824.02 584.07 960.77 549.01
00015666 00000156 676.54 166.81 402.02 537.03 765.51 411.25 935.30 375.21 853.77 481.73 827.51 579.14 968.14 549.68
00015667 00000157 683.18 177.40 404.42 528.36 773.78 410.73 941.82 380.03 866.12 480.91 834.31 583.19 968.77 558.10
00015668 00000158 689.05 175.61 405.74 530.83 782.07 409.22 949.71 382.15 873.78 482.28 839.66 581.48 976.37 559.13
00015669 00000159 692.99 175.24 406.87 528.38 786.54 406.92 954.34 380.42 877.53 481.68 843.28 579.04 981.48 557.10
00015670 00000160 695.13 171.66 407.74 529.33 788.76 402.37 959.66 376.90 881.49 478.75 845.05 578.32 984.01 556.89
00015671 00000161 689.47 158.38 405.32 533.49 788.68 393.14 962.12 370.64 879.18 478.21 843.30 566.83 984.76 547.92
00015672 00000162 689.31 154.56 405.56 531.82 789.23 389.69 964.17 369.71 880.75 474.59 842.79 562.26 984.67 545.16
00015673 00000163 688.99 150.73 407.45 539.08 789.94 388.13 963.68 366.36 881.86 469.66 841.72 560.53 985.52 541.98
00015674 00000164 686.16 151.85 408.48 531.85 787.59 384.55 963.01 363.67 879.26 466.67 840.53 558.25 982.43 540.36
00015675 00000165 687.87 146.41 405.39 541.94 786.72 381.20 962.11 361.18 876.81 464.96 841.82 561.12 980.45 544.06
00015676 00000166 690.62 144.82 403.13 548.39 789.65 380.81 963.61 360.44 879.47 462.75 842.47 561.44 981.04 544.44
00015677 00000167 690.25 143.91 405.76 546.13 790.73 378.71 965.98 358.98 882.41 459.66 841.70 558.12 982.24 541.61
00015678 00000168 686.98 137.85 410.87 547.86 789.55 375.88 962.70 356.15 880.71 457.07 841.30 554.46 979.70 537.70
