Video ID: 	CzWgwEQNtS8
H: 	1080
W: 	1920
FPS: 	25.0

FRAME INDEX X0 Y0 W H [Landmarks (5 Points)]

00002685 00000000 990.61 93.93 432.93 608.50 1056.01 329.23 1233.51 322.75 1103.42 441.94 1083.97 552.25 1232.24 546.17
00002686 00000001 981.72 105.75 437.66 601.32 1048.40 337.65 1222.21 333.76 1090.14 450.52 1075.48 555.06 1221.45 550.59
00002687 00000002 976.30 108.22 433.67 604.06 1040.05 350.74 1209.06 347.07 1076.09 461.14 1063.48 564.11 1209.98 559.70
00002688 00000003 976.50 124.72 424.28 624.22 1039.97 362.18 1203.16 358.53 1070.38 474.99 1072.46 584.04 1198.52 581.29
00002689 DELETE   963.30 139.64 426.57 623.30 1027.02 386.17 1187.31 373.95 1061.32 489.94 1062.00 602.28 1189.98 592.32
00002690 00000005 950.53 145.17 436.63 621.41 1013.51 396.77 1176.80 382.72 1051.61 506.14 1052.52 612.97 1179.46 601.42
00002691 00000006 943.93 149.60 438.30 622.34 1009.78 395.14 1174.51 384.28 1046.51 509.57 1046.44 615.23 1174.98 606.05
00002692 00000007 939.79 152.49 441.05 617.04 1006.79 396.91 1171.38 384.36 1044.86 509.53 1042.54 614.51 1171.97 604.13
00002693 00000008 939.14 150.70 440.15 614.06 1004.78 395.87 1170.52 383.89 1044.16 510.63 1041.00 612.01 1174.10 602.01
00002694 00000009 940.48 153.33 438.28 601.35 1004.54 394.64 1171.43 382.78 1046.55 509.12 1039.97 606.47 1173.99 596.81
00002695 00000010 941.58 150.18 438.00 592.55 1003.69 392.16 1174.38 380.65 1049.42 508.47 1038.69 600.49 1178.51 590.97
00002696 00000011 942.38 145.05 434.70 588.24 1003.50 387.47 1174.54 375.98 1050.55 502.11 1039.53 593.40 1182.16 583.68
00002697 00000012 945.49 142.80 433.62 588.58 1004.44 380.31 1176.68 373.34 1050.67 495.71 1039.08 587.62 1177.57 581.59
00002698 00000013 947.02 143.62 431.93 586.00 1006.50 376.60 1177.34 368.83 1051.69 494.64 1044.15 585.50 1181.66 578.88
00002699 00000014 947.56 142.08 431.06 590.79 1007.15 373.64 1177.99 366.73 1050.46 491.41 1043.56 586.86 1180.08 580.88
00002700 00000015 945.99 139.82 432.84 600.29 1007.10 372.93 1178.57 366.29 1049.00 491.36 1043.45 588.55 1181.59 582.76
00002701 00000016 942.92 141.58 434.24 600.74 1005.95 372.63 1177.45 367.41 1048.23 489.61 1040.73 585.80 1181.78 581.15
00002702 00000017 939.86 140.90 434.45 600.69 1004.32 372.56 1175.88 367.01 1047.11 489.11 1038.68 583.19 1180.29 578.29
00002703 00000018 935.45 140.75 435.38 599.43 1000.35 370.95 1172.00 366.19 1043.02 489.08 1034.72 581.25 1177.83 576.71
00002704 00000019 931.66 136.69 431.20 601.62 996.42 372.30 1168.67 365.82 1039.26 489.06 1032.86 582.68 1175.22 576.19
00002705 00000020 924.20 134.94 439.17 608.90 993.75 371.22 1157.23 372.10 1035.42 496.27 1027.85 581.33 1166.37 581.48
00002706 00000021 917.97 143.84 434.65 603.06 980.03 383.43 1153.58 375.79 1028.95 504.10 1017.87 598.21 1170.32 590.14
00002707 00000022 907.04 154.79 441.70 602.60 974.11 387.34 1138.80 378.90 1020.71 510.22 1018.34 601.00 1163.23 591.75
00002708 00000023 900.38 150.47 440.08 615.10 962.92 388.76 1128.77 377.71 1006.99 515.90 1010.25 608.70 1157.45 597.25
00002709 00000024 896.10 146.23 441.61 617.19 962.12 385.68 1133.53 375.64 1008.98 508.24 1005.82 603.31 1155.17 592.90
00002710 00000025 895.41 144.83 438.97 608.66 962.46 378.18 1134.29 371.70 1007.77 498.33 998.10 589.52 1149.27 582.10
00002711 00000026 894.80 124.47 438.72 614.57 954.58 365.28 1120.56 355.49 992.65 487.79 993.90 581.38 1131.72 573.46
00002712 00000027 893.00 126.46 435.16 599.55 952.85 355.53 1117.67 351.39 989.67 482.61 984.87 573.19 1120.51 570.41
00002713 00000028 887.92 124.13 438.36 609.12 946.26 361.15 1110.34 357.14 982.83 486.72 979.11 575.64 1116.29 572.91
00002714 00000029 879.61 125.09 438.96 607.79 939.38 367.56 1105.26 363.99 980.69 493.16 972.60 576.35 1112.87 573.83
00002715 00000030 868.38 138.75 437.01 600.69 929.88 372.96 1097.23 370.67 969.68 499.77 966.20 579.58 1107.89 577.06
00002716 DELETE   861.53 141.02 432.04 608.70 917.78 383.09 1076.41 377.06 950.19 513.35 956.45 593.38 1094.41 586.55
00002717 DELETE   847.31 159.61 433.47 597.86 901.04 391.99 1059.04 389.35 932.97 522.12 939.08 608.94 1076.57 604.66
00002718 00000033 838.19 153.21 432.75 609.43 893.57 394.31 1047.31 395.63 923.86 531.16 932.39 611.95 1059.25 612.55
00002719 00000034 836.58 163.48 431.74 606.39 892.95 397.47 1052.43 401.05 927.74 538.00 925.09 612.32 1064.05 615.12
00002720 00000035 835.91 165.65 432.92 606.12 893.33 403.82 1052.89 403.41 931.71 541.92 932.52 618.61 1068.91 617.97
00002721 00000036 834.38 169.24 432.41 595.52 890.60 407.40 1047.66 404.07 929.82 541.22 933.89 619.25 1063.51 616.12
00002722 00000037 833.09 163.90 426.34 595.98 886.62 401.61 1049.41 405.56 926.40 542.25 919.67 615.38 1055.66 618.77
00002723 00000038 833.33 160.81 426.49 599.85 887.36 402.59 1050.16 406.16 926.84 540.87 922.72 616.39 1056.40 619.35
00002724 00000039 833.29 164.37 431.88 604.30 889.98 402.67 1051.25 402.91 927.64 542.30 928.01 620.79 1061.76 621.17
00002725 00000040 833.20 168.64 432.88 601.30 891.22 402.38 1054.79 404.41 931.31 544.58 926.96 619.26 1064.80 621.17
00002726 00000041 832.59 168.06 432.89 607.56 890.04 402.92 1054.20 404.35 929.31 543.91 927.31 621.91 1064.71 623.44
00002727 00000042 833.29 167.36 432.36 608.93 889.53 402.97 1053.72 406.15 926.43 544.11 926.43 622.31 1061.62 625.19
00002728 00000043 834.42 167.28 431.02 603.45 889.46 403.53 1053.36 405.75 927.51 544.12 927.86 621.47 1062.38 623.61
00002729 00000044 834.09 164.10 430.36 602.48 890.28 403.50 1055.88 404.50 930.70 542.82 927.90 620.10 1064.96 621.20
00002730 00000045 833.32 164.55 429.36 598.20 888.64 404.13 1054.11 405.01 929.94 542.08 926.08 619.64 1061.69 620.55
00002731 00000046 833.04 162.64 430.67 604.17 889.34 403.49 1053.94 403.04 928.83 541.59 924.03 622.95 1059.50 623.21
00002732 00000047 834.80 161.85 428.37 612.18 892.10 401.76 1055.68 403.65 928.11 541.74 926.65 621.45 1064.09 623.29
00002733 00000048 837.43 163.35 425.31 611.29 895.47 401.29 1058.36 404.84 932.41 542.54 927.92 620.21 1065.28 623.44
00002734 00000049 836.97 163.30 429.19 615.41 896.76 402.38 1058.14 403.66 931.90 540.00 931.67 623.26 1063.90 624.71
00002735 00000050 837.09 162.37 429.60 617.91 896.72 403.11 1056.98 403.55 931.45 539.89 934.24 625.65 1063.27 626.30
00002736 00000051 836.90 161.12 429.04 617.73 894.65 400.02 1059.20 402.15 929.40 538.98 926.08 622.30 1065.11 624.51
00002737 00000052 837.69 159.19 429.44 614.44 894.37 395.86 1057.72 399.34 926.73 534.48 921.86 617.66 1061.06 621.04
00002738 00000053 837.86 153.81 432.32 618.43 893.59 392.81 1058.68 395.27 925.68 527.08 921.51 618.79 1054.05 621.50
00002739 00000054 836.16 144.15 434.32 630.88 891.44 385.81 1055.00 386.14 919.80 518.11 920.47 619.63 1049.12 620.45
00002740 00000055 830.84 139.49 434.75 636.94 886.32 382.94 1048.18 381.56 910.21 510.17 910.82 620.23 1033.31 620.16
00002741 00000056 828.18 142.29 431.32 634.01 877.21 382.63 1029.27 382.80 895.06 510.19 901.24 619.44 1011.64 620.55
00002742 00000057 823.95 145.18 423.39 632.10 872.75 380.37 1027.52 387.04 887.88 511.46 888.76 615.90 1004.68 622.29
00002743 00000058 820.08 148.14 428.65 636.62 871.99 393.32 1023.52 400.15 887.69 519.57 889.17 619.35 1006.54 625.73
00002744 00000059 822.72 162.34 428.18 622.47 873.07 399.68 1024.40 405.88 889.77 529.58 891.86 625.34 1012.93 631.52
00002745 00000060 816.67 175.81 436.01 609.18 869.81 405.15 1026.32 412.90 890.31 533.72 887.62 625.66 1013.88 633.23
00002746 00000061 813.60 182.10 435.75 604.62 867.28 405.65 1025.39 414.66 889.26 536.58 884.79 625.72 1012.19 634.48
00002747 00000062 811.24 181.18 434.17 604.54 865.48 405.77 1025.47 414.99 887.75 536.01 882.83 625.03 1013.20 633.96
00002748 00000063 810.77 185.78 432.76 599.60 863.90 408.12 1025.04 418.14 889.02 540.46 882.71 626.16 1013.50 635.66
00002749 00000064 814.56 187.17 434.13 601.92 865.88 412.25 1022.53 422.78 888.07 546.44 887.21 627.53 1017.60 637.18
00002750 00000065 815.00 191.75 433.14 596.95 866.97 411.51 1024.29 422.16 890.72 545.64 891.67 626.44 1022.14 635.95
00002751 00000066 817.26 188.55 430.60 597.57 869.70 408.27 1025.52 419.87 891.30 540.87 891.58 621.56 1024.03 631.70
00002752 00000067 817.61 185.34 431.71 596.32 871.57 404.00 1029.74 416.45 893.68 537.12 890.70 616.74 1027.30 627.53
00002753 00000068 819.49 183.95 429.23 586.58 873.26 399.07 1033.34 415.97 895.56 537.84 891.05 609.19 1030.40 623.22
00002754 00000069 821.01 177.92 428.64 588.75 876.01 396.39 1034.78 414.49 896.65 535.42 891.09 606.09 1029.51 621.07
00002755 00000070 823.70 179.56 429.68 585.29 878.55 396.79 1036.24 416.22 896.99 537.00 893.84 606.54 1028.97 622.62
00002756 00000071 828.70 179.82 430.10 581.73 883.95 396.16 1039.59 417.62 902.65 539.85 899.98 607.37 1032.06 625.28
00002757 00000072 833.34 173.76 426.95 589.33 887.77 394.11 1046.51 416.48 907.49 539.52 903.76 607.40 1038.93 626.11
00002758 00000073 836.23 171.01 427.72 589.90 890.22 391.78 1046.80 415.19 908.22 538.37 906.85 604.15 1042.63 623.49
00002759 00000074 839.83 165.62 425.97 594.58 893.25 386.73 1052.52 412.14 911.15 538.40 909.83 601.94 1050.35 622.89
00002760 00000075 847.55 161.35 423.43 600.89 899.90 384.40 1059.49 411.96 918.03 535.73 916.74 600.71 1055.28 623.30
00002761 00000076 856.52 159.62 423.30 601.78 905.63 384.94 1066.17 410.27 924.60 534.44 924.49 601.93 1062.59 623.20
00002762 00000077 860.73 164.33 424.52 598.66 909.89 383.55 1074.12 412.19 930.76 535.81 927.87 598.31 1071.71 622.06
00002763 00000078 864.66 159.29 427.10 609.32 916.37 380.78 1081.33 409.72 936.06 529.34 934.58 597.47 1079.21 620.87
00002764 00000079 867.97 153.34 428.16 623.90 919.72 380.50 1084.37 406.12 938.80 526.20 937.24 601.21 1081.39 621.72
00002765 00000080 870.18 155.67 430.16 620.92 921.11 381.94 1088.07 408.74 941.35 529.71 938.85 599.73 1088.34 620.06
00002766 00000081 872.68 161.17 429.92 608.60 924.95 382.58 1094.25 412.80 947.64 531.62 938.77 592.43 1091.11 615.15
00002767 00000082 876.02 163.88 428.84 604.56 926.46 381.79 1094.88 414.16 944.34 532.23 940.79 594.52 1093.50 618.57
00002768 00000083 877.75 171.44 432.36 598.54 929.20 384.14 1097.90 418.40 945.57 535.48 940.57 598.07 1090.62 623.98
00002769 00000084 879.37 173.50 430.23 599.30 932.64 390.00 1100.94 424.04 951.70 539.27 942.14 604.88 1092.18 630.75
00002770 00000085 886.19 176.34 427.01 610.28 937.28 394.76 1100.76 425.61 952.24 544.43 951.07 617.89 1095.25 641.24
00002771 00000086 887.49 167.16 428.81 618.89 939.68 388.74 1107.93 422.54 955.18 540.27 951.26 613.92 1096.70 639.93
00002772 00000087 891.60 159.63 429.05 617.50 944.81 379.50 1114.74 416.87 960.69 533.52 952.72 598.95 1104.24 627.58
00002773 00000088 896.05 148.42 428.76 621.40 955.93 375.98 1121.29 414.59 964.90 526.49 955.03 591.88 1104.40 623.60
00002774 00000089 898.67 145.93 430.56 620.54 957.43 378.21 1123.35 413.75 968.98 523.73 956.06 594.44 1105.38 624.00
00002775 00000090 902.39 143.10 425.84 620.50 958.63 379.67 1126.17 412.43 974.04 522.15 958.42 597.85 1102.43 625.54
00002776 00000091 907.61 142.86 425.08 619.28 961.96 376.86 1128.15 408.33 977.05 518.29 963.03 599.01 1100.15 625.83
00002777 00000092 907.49 140.74 427.88 618.52 963.92 372.35 1128.74 403.24 979.69 515.47 965.28 597.46 1099.72 624.02
00002778 00000093 907.51 137.30 428.49 621.42 965.14 369.78 1129.33 400.27 982.26 512.34 966.62 596.41 1097.86 622.65
00002779 00000094 911.33 137.43 428.26 625.27 967.47 370.96 1128.42 398.50 983.18 511.46 972.98 600.54 1097.93 624.41
00002780 00000095 911.88 137.07 427.55 625.06 967.25 371.25 1128.57 398.34 983.17 511.73 973.51 601.17 1098.43 624.57
00002781 00000096 911.29 135.95 430.37 623.07 967.43 369.64 1128.13 397.78 983.11 511.05 974.40 598.19 1098.25 622.41
00002782 00000097 912.48 135.17 429.08 618.77 967.67 368.68 1129.04 394.66 984.80 509.46 975.76 596.82 1100.34 619.30
00002783 00000098 911.76 136.29 428.57 615.34 966.79 368.40 1128.92 393.20 985.94 509.29 976.68 596.72 1100.77 618.23
00002784 00000099 912.42 135.42 426.73 613.93 967.39 367.88 1128.96 392.33 986.98 508.16 977.31 594.75 1102.27 615.84
00002785 00000100 914.03 143.52 424.94 604.01 964.68 365.66 1135.31 391.25 984.83 506.62 970.63 595.43 1104.82 616.15
00002786 00000101 916.21 136.07 428.97 617.45 970.62 364.37 1141.71 386.29 991.62 501.37 974.70 595.45 1107.18 613.58
00002787 00000102 919.13 136.14 437.39 626.14 973.59 359.27 1147.68 380.53 991.04 498.37 982.47 596.91 1115.76 614.20
00002788 00000103 920.86 136.19 431.15 616.26 977.57 357.66 1149.14 379.91 996.81 494.97 982.40 589.63 1114.09 608.38
00002789 00000104 919.00 128.24 433.85 615.38 975.28 352.59 1148.66 382.48 992.99 495.16 979.64 579.94 1120.93 604.32
00002790 00000105 920.72 117.02 426.54 619.72 972.71 338.57 1139.69 374.09 986.31 490.21 978.82 568.07 1115.52 597.86
00002791 00000106 920.28 115.33 428.34 618.49 973.99 333.43 1138.23 366.45 985.08 478.00 977.66 565.06 1111.00 592.78
00002792 00000107 923.82 116.04 427.03 620.70 979.63 328.67 1138.02 358.05 988.55 468.04 981.18 567.39 1104.48 592.36
00002793 00000108 925.56 111.36 428.92 619.06 988.00 326.20 1156.39 355.27 999.79 454.12 988.58 563.19 1112.47 586.26
00002794 00000109 931.57 97.93 425.50 622.56 987.08 317.90 1151.45 349.66 997.56 455.34 986.61 550.09 1119.35 577.22
00002795 00000110 926.49 100.22 435.85 615.09 993.85 317.90 1163.46 350.26 1005.92 451.17 993.74 544.70 1128.41 570.84
00002796 00000111 935.85 94.43 429.24 610.71 995.30 310.21 1162.60 345.08 999.96 448.94 991.26 536.78 1124.33 565.51
00002797 00000112 937.51 82.69 429.23 608.12 993.41 301.10 1154.39 337.29 998.06 437.09 992.23 523.22 1124.35 552.87
00002798 00000113 945.25 68.83 423.86 610.56 993.32 285.08 1155.40 316.73 998.01 422.35 992.77 514.65 1116.98 541.24
00002799 00000114 952.88 64.70 429.09 606.77 1001.54 275.34 1174.82 311.73 1011.88 405.94 1000.53 508.43 1124.54 538.24
00002800 DELETE   961.99 66.19 434.39 603.13 1015.84 270.06 1184.48 303.44 1021.55 399.67 1011.82 500.39 1143.01 528.05
00002801 DELETE   973.39 52.87 437.15 607.64 1037.54 270.99 1209.35 297.91 1054.12 399.45 1031.73 495.91 1174.71 517.72
00002802 00000117 992.45 52.25 429.25 606.00 1052.99 273.41 1237.42 298.18 1082.12 397.23 1050.22 495.01 1203.83 515.81
00002803 00000118 1000.06 53.15 430.67 608.43 1066.82 278.78 1253.90 299.77 1103.56 393.01 1063.24 495.27 1217.98 513.44
00002804 00000119 1004.22 54.28 429.71 612.35 1069.66 278.37 1251.39 299.32 1102.97 392.31 1068.67 495.63 1217.41 513.72
00002805 00000120 1004.72 59.14 426.03 609.98 1067.23 277.65 1241.59 300.30 1091.07 394.87 1062.46 494.30 1210.19 513.26
00002806 00000121 1005.95 64.46 426.63 605.16 1069.24 282.62 1249.28 308.08 1095.23 399.69 1065.13 498.01 1215.30 519.60
00002807 00000122 1010.04 69.46 433.98 603.45 1076.80 286.61 1260.56 318.32 1103.84 410.71 1070.61 498.45 1228.85 523.75
00002808 DELETE   1011.16 67.50 436.49 620.77 1083.49 295.48 1260.78 319.56 1115.24 419.77 1082.47 512.52 1230.27 532.12
00002809 DELETE   1013.07 72.66 449.17 619.70 1095.42 300.07 1275.41 327.07 1124.89 425.34 1090.12 514.78 1243.04 537.28
00002810 00000125 1019.00 72.59 444.10 624.57 1103.00 302.46 1280.46 331.06 1132.22 430.47 1096.41 516.50 1248.80 540.32
00002811 00000126 1022.75 75.01 443.24 625.41 1106.96 303.05 1279.95 334.38 1131.37 431.45 1099.48 516.67 1250.92 542.60
00002812 00000127 1023.78 75.68 436.28 625.16 1103.87 303.11 1278.39 332.38 1133.99 431.97 1098.76 518.43 1250.79 541.71
00002813 00000128 1023.61 76.32 442.10 621.88 1107.30 301.94 1280.17 335.54 1130.63 431.77 1098.83 515.10 1250.45 542.79
00002814 00000129 1019.79 73.22 443.51 623.99 1103.45 302.06 1278.53 335.47 1127.99 431.41 1095.18 514.77 1249.95 542.12
00002815 00000130 1018.08 72.61 435.72 616.20 1086.80 297.95 1267.04 327.16 1117.39 432.14 1086.82 513.96 1239.87 537.11
00002816 00000131 1014.99 75.11 429.00 605.90 1076.57 296.56 1255.65 322.01 1098.96 421.70 1071.76 509.73 1230.09 529.68
00002817 00000132 997.96 76.67 432.44 606.34 1057.42 292.83 1240.50 314.17 1081.44 421.22 1054.67 516.92 1209.28 533.68
00002818 00000133 989.52 79.52 429.05 611.66 1043.94 286.82 1218.08 307.90 1059.99 421.30 1042.58 520.19 1187.10 536.98
00002819 00000134 976.01 75.11 432.53 623.96 1033.00 284.65 1198.23 307.81 1041.58 417.68 1031.22 517.26 1166.36 536.24
00002820 00000135 963.14 74.93 434.27 624.09 1023.27 291.77 1182.40 306.34 1031.29 409.00 1027.07 517.18 1158.78 530.04
00002821 00000136 959.84 76.86 430.86 616.53 1018.12 292.67 1176.14 306.62 1025.38 413.28 1023.06 513.82 1157.29 525.81
00002822 00000137 954.60 77.75 431.99 610.57 1012.76 301.90 1171.04 319.29 1025.54 424.98 1016.23 514.39 1151.03 528.03
00002823 00000138 955.24 76.31 431.18 618.15 1009.60 303.30 1169.23 319.01 1023.92 429.51 1015.91 522.39 1147.27 534.70
00002824 00000139 955.07 76.52 435.11 631.57 1010.50 307.38 1167.18 316.75 1017.37 431.99 1018.58 534.33 1149.26 542.66
00002825 00000140 952.93 81.99 439.89 632.78 1011.46 307.37 1169.09 316.58 1018.86 434.56 1020.84 541.92 1143.46 550.69
00002826 00000141 949.87 82.80 435.66 632.12 1003.59 321.03 1164.62 333.52 1019.56 450.25 1016.59 549.34 1140.98 559.12
00002827 00000142 947.38 98.30 431.14 619.54 1002.96 324.87 1165.91 344.68 1016.16 456.70 1008.71 545.62 1143.58 562.77
00002828 00000143 939.48 104.68 433.73 621.67 991.67 335.98 1150.51 353.70 1008.72 471.43 1007.43 559.31 1136.43 574.30
00002829 00000144 931.11 119.58 432.55 615.32 983.30 341.97 1137.98 363.51 995.18 483.23 1002.18 565.28 1130.37 583.24
00002830 00000145 923.24 131.63 429.71 602.74 977.70 353.13 1138.82 369.73 990.70 485.07 992.88 569.69 1128.96 581.32
00002831 00000146 914.77 142.15 429.16 596.17 965.27 366.63 1122.22 378.39 984.28 502.21 989.58 577.96 1120.70 587.58
00002832 00000147 909.12 143.23 432.06 594.05 962.95 367.06 1121.86 378.79 985.28 498.18 983.97 574.34 1119.44 583.70
00002833 00000148 909.56 142.01 431.01 597.86 963.18 363.43 1121.90 376.53 983.20 497.43 984.11 572.02 1121.83 582.24
00002834 00000149 914.05 135.53 433.63 603.44 965.89 353.08 1119.92 374.24 979.02 500.53 986.16 564.15 1127.20 580.99
00002835 00000150 914.84 135.31 431.51 603.80 968.18 351.04 1121.75 370.42 981.55 494.08 988.06 557.97 1134.61 572.90
00002836 00000151 914.12 133.09 431.21 606.34 969.12 351.37 1121.03 368.66 983.67 489.20 990.48 552.23 1140.71 565.23
00002837 00000152 916.33 128.13 429.42 611.69 970.67 349.04 1123.42 364.92 985.71 485.31 991.61 550.28 1144.36 562.19
00002838 00000153 918.08 134.98 427.20 607.12 969.23 350.63 1134.03 359.95 990.98 477.24 986.39 556.55 1148.13 560.74
00002839 00000154 914.52 120.09 430.21 618.87 968.61 341.92 1127.78 354.65 986.15 474.00 988.97 549.51 1141.79 559.55
00002840 00000155 917.40 130.69 426.46 606.36 970.27 341.50 1136.25 351.19 993.47 464.55 984.98 549.34 1143.74 554.26
00002841 00000156 911.08 118.17 430.73 617.51 967.04 335.51 1124.65 348.15 984.36 467.34 987.23 544.66 1139.72 554.24
00002842 00000157 909.55 118.51 429.72 613.07 964.26 333.19 1123.68 344.13 983.13 464.57 985.63 544.10 1137.98 552.31
00002843 00000158 905.78 110.29 434.39 619.39 961.88 332.10 1121.66 340.68 982.11 461.67 982.16 540.83 1138.27 547.11
00002844 00000159 903.63 111.81 431.83 614.95 959.32 330.63 1116.41 339.56 978.56 461.27 979.10 537.62 1134.31 544.32
00002845 00000160 899.33 112.35 433.02 610.56 953.96 332.63 1111.28 340.57 974.45 461.48 974.02 537.41 1128.46 543.57
00002846 00000161 894.56 113.31 432.06 607.80 949.00 334.47 1108.31 341.13 970.05 459.19 965.38 536.28 1122.88 541.66
00002847 00000162 891.25 115.20 430.33 608.51 945.12 335.38 1103.22 341.58 965.34 462.25 961.40 535.22 1122.84 539.75
00002848 00000163 880.54 108.61 435.08 617.66 940.48 339.85 1098.84 346.47 963.07 462.76 956.73 541.23 1116.81 543.18
00002849 00000164 875.51 114.26 437.79 606.48 933.61 343.90 1086.88 349.58 954.44 466.99 958.64 547.38 1101.94 549.30
00002850 00000165 869.27 121.40 438.24 609.84 925.57 348.92 1076.29 352.23 947.91 470.64 954.80 552.61 1094.00 552.80
00002851 00000166 864.56 118.09 436.52 611.79 916.41 350.00 1069.42 348.94 936.82 470.30 947.18 560.15 1083.59 557.60
