Video ID: 	2S-QW1nHpGQ
H: 	1080
W: 	1920
FPS: 	29.97002997002997

FRAME INDEX X0 Y0 W H [Landmarks (5 Points)]

00007183 00000000 983.29 166.31 403.86 537.34 1103.00 367.25 1280.95 392.00 1185.34 472.06 1089.24 566.79 1237.48 587.30
00007184 00000001 985.17 163.43 403.00 534.94 1103.54 365.99 1282.00 390.80 1185.24 470.02 1089.00 566.35 1238.23 586.53
00007185 DELETE   986.04 161.72 402.24 526.01 1101.92 366.75 1279.75 390.95 1183.94 469.92 1090.59 562.57 1237.33 581.71
00007186 00000003 985.56 160.95 402.64 524.36 1099.16 367.03 1275.91 388.25 1180.45 468.68 1092.97 560.95 1234.25 577.54
00007187 00000004 983.30 159.96 401.89 523.91 1096.58 366.72 1272.58 387.67 1177.55 468.64 1089.92 559.86 1230.84 576.08
00007188 00000005 982.60 159.09 400.31 524.17 1095.01 366.54 1270.23 387.90 1176.10 469.49 1089.20 560.71 1229.61 577.14
00007189 00000006 981.01 159.33 400.71 523.01 1093.49 366.95 1267.58 387.77 1173.77 469.72 1087.41 559.91 1226.81 575.98
00007190 00000007 979.68 161.92 400.64 525.75 1092.64 367.77 1267.72 386.04 1174.69 470.58 1088.96 563.05 1227.63 577.28
00007191 00000008 979.09 162.24 399.90 526.58 1092.31 368.47 1267.17 386.60 1174.73 471.74 1089.13 565.18 1227.80 579.30
00007192 00000009 978.67 163.15 399.69 526.99 1092.23 368.86 1266.87 388.21 1173.85 473.05 1088.03 565.63 1227.01 580.77
00007193 00000010 978.04 164.50 399.76 526.84 1091.39 370.31 1266.45 390.32 1172.59 473.17 1086.55 566.34 1227.42 582.06
00007194 00000011 977.41 164.01 401.21 524.97 1090.97 370.64 1266.11 390.50 1172.87 474.05 1086.66 567.23 1227.22 582.64
00007195 00000012 977.30 164.10 401.76 524.83 1090.48 370.72 1266.20 391.01 1172.46 474.70 1086.05 567.97 1226.68 583.60
00007196 00000013 979.36 163.24 399.68 524.60 1091.54 371.34 1266.52 392.11 1173.06 475.35 1087.20 568.14 1227.14 584.17
00007197 00000014 979.95 162.01 399.76 524.76 1091.44 371.54 1266.46 393.24 1172.40 475.33 1086.28 566.12 1228.09 582.91
00007198 00000015 981.07 161.43 398.75 524.80 1091.67 371.17 1266.07 393.22 1171.81 475.48 1086.78 563.69 1227.43 580.82
00007199 00000016 981.01 161.15 399.23 527.09 1091.44 371.45 1266.02 393.18 1171.23 475.90 1086.21 564.03 1226.76 581.07
00007200 00000017 980.25 160.96 400.87 527.62 1090.62 372.06 1265.83 393.68 1170.31 476.00 1085.38 564.70 1226.78 581.68
00007201 00000018 979.31 163.87 399.88 526.64 1090.77 372.70 1264.96 394.04 1170.17 476.51 1084.88 565.89 1224.99 582.76
00007202 00000019 976.22 165.89 401.86 528.28 1088.69 373.90 1262.92 393.33 1168.03 476.11 1084.80 566.57 1223.69 581.95
00007203 00000020 972.97 167.36 403.67 530.16 1086.56 373.88 1261.65 392.83 1165.78 477.11 1083.61 566.72 1222.11 581.95
00007204 00000021 971.89 167.55 404.35 529.81 1084.20 375.00 1260.33 393.34 1163.02 477.53 1080.75 569.18 1220.03 583.82
00007205 00000022 971.64 167.38 405.29 530.52 1083.22 375.73 1259.45 394.73 1161.36 477.93 1079.19 570.65 1217.63 585.76
00007206 00000023 971.12 168.05 405.47 533.18 1083.59 375.73 1259.89 394.52 1161.89 477.73 1079.40 570.25 1217.07 585.44
00007207 00000024 970.73 168.52 406.24 538.97 1086.26 375.73 1262.02 394.78 1166.00 479.05 1080.87 571.97 1218.57 587.92
00007208 00000025 970.86 171.57 404.76 541.41 1090.61 377.43 1264.17 396.53 1171.63 479.43 1082.98 578.10 1220.85 594.43
00007209 00000026 972.83 170.25 402.41 545.14 1091.90 379.39 1266.54 398.66 1174.85 481.69 1085.11 579.66 1224.93 596.28
00007210 00000027 971.17 172.56 404.15 542.89 1092.68 378.13 1268.54 397.42 1177.79 484.09 1086.51 581.17 1227.61 597.55
00007211 00000028 969.94 170.93 406.53 545.62 1093.00 380.61 1269.01 399.27 1179.39 485.53 1086.99 583.97 1228.13 599.85
00007212 00000029 970.05 172.73 405.89 545.32 1093.93 379.89 1269.54 398.50 1180.20 486.46 1088.49 583.73 1227.84 599.64
00007213 00000030 969.66 172.28 405.38 546.61 1093.54 380.58 1268.98 399.23 1180.45 487.17 1087.84 585.24 1228.15 601.18
00007214 00000031 968.64 171.72 406.34 548.15 1093.03 380.67 1268.77 398.99 1180.52 487.40 1087.98 586.64 1228.28 602.31
00007215 00000032 968.58 172.39 406.01 547.65 1092.60 380.72 1268.14 399.20 1179.49 486.97 1086.07 586.06 1227.39 601.96
00007216 00000033 968.26 172.15 402.43 543.28 1091.72 381.40 1266.18 398.93 1178.39 486.73 1084.57 584.21 1225.83 599.32
00007217 00000034 968.35 172.02 399.26 532.31 1089.42 381.72 1264.02 399.80 1175.47 483.79 1080.15 580.73 1225.77 595.37
00007218 00000035 968.99 163.48 398.63 528.72 1080.47 374.59 1270.47 395.55 1168.72 487.55 1085.82 580.22 1230.76 597.60
00007219 00000036 969.03 163.03 396.25 529.01 1081.24 373.93 1268.49 395.49 1170.16 487.02 1087.78 577.08 1232.44 594.89
00007220 00000037 970.16 161.75 394.34 528.23 1081.21 373.27 1268.68 394.24 1170.80 486.97 1088.51 576.25 1233.40 593.75
00007221 00000038 970.85 162.34 393.90 527.04 1081.76 373.08 1269.31 393.98 1171.32 486.63 1088.72 575.75 1233.74 593.26
00007222 00000039 971.12 167.75 395.11 528.63 1088.95 379.37 1261.78 397.94 1175.61 482.20 1086.45 575.10 1229.64 589.34
00007223 00000040 971.41 169.15 395.92 530.97 1089.19 379.56 1262.10 398.02 1175.45 481.86 1086.77 575.10 1229.16 589.70
00007224 00000041 971.44 169.64 395.84 533.62 1090.57 379.32 1263.75 397.03 1177.77 482.59 1088.66 574.14 1231.20 588.63
00007225 00000042 970.82 170.37 397.39 535.59 1091.89 379.76 1265.69 396.70 1180.78 484.45 1091.16 576.11 1231.53 590.17
00007226 00000043 970.78 171.73 397.79 535.86 1092.21 380.79 1267.10 397.38 1182.17 484.17 1091.50 578.81 1232.80 592.56
00007227 00000044 970.64 172.16 400.00 536.05 1093.40 381.76 1268.82 397.97 1184.26 485.19 1092.44 579.51 1233.82 593.06
00007228 00000045 970.78 172.82 398.67 534.62 1094.04 382.09 1269.30 398.86 1185.06 484.74 1093.00 579.91 1235.03 593.76
00007229 00000046 970.24 172.90 398.99 536.18 1095.66 383.74 1269.42 401.22 1186.37 485.37 1093.92 579.23 1234.40 593.81
00007230 00000047 970.02 172.35 398.39 536.88 1096.14 384.68 1269.31 401.68 1187.60 486.07 1095.81 580.57 1235.38 594.71
00007231 00000048 969.74 173.09 399.11 534.51 1095.86 385.73 1269.55 401.69 1187.88 487.13 1097.16 582.16 1236.36 595.31
00007232 00000049 969.41 172.86 399.50 535.05 1095.81 385.88 1269.63 401.42 1188.74 487.77 1097.25 583.87 1236.63 596.68
00007233 00000050 969.38 172.12 399.27 535.07 1095.75 386.52 1269.13 401.96 1188.38 488.58 1096.70 584.37 1235.98 597.13
00007234 00000051 968.95 172.81 398.43 531.92 1095.91 386.86 1269.42 402.00 1188.65 488.27 1097.16 584.25 1236.88 596.45
00007235 00000052 969.52 172.20 397.32 533.09 1095.63 386.88 1268.95 401.97 1188.25 488.49 1097.07 582.98 1236.50 595.37
00007236 00000053 968.59 173.28 397.51 533.24 1094.86 386.41 1268.48 402.30 1186.99 487.82 1093.76 579.68 1235.62 592.99
00007237 00000054 968.53 172.73 395.99 533.97 1094.42 385.72 1267.37 401.83 1186.19 487.15 1093.73 578.40 1233.70 591.94
00007238 00000055 966.99 172.79 397.36 536.27 1093.74 384.58 1267.80 401.59 1185.83 488.68 1091.74 577.94 1233.35 592.39
00007239 00000056 966.35 173.08 397.13 537.75 1093.99 384.64 1267.99 401.98 1185.99 489.37 1091.58 578.34 1233.04 593.21
00007240 00000057 966.84 173.89 396.22 536.15 1093.66 385.18 1267.91 401.90 1186.00 488.94 1092.17 580.30 1233.22 594.48
00007241 00000058 967.34 173.60 395.81 535.00 1093.68 386.16 1267.81 402.55 1185.93 489.15 1091.85 581.16 1232.96 595.00
00007242 00000059 968.08 168.33 395.47 531.09 1086.33 381.08 1269.85 400.14 1181.72 491.48 1094.76 582.14 1235.65 598.39
00007243 00000060 967.64 167.39 395.98 531.65 1085.41 381.27 1269.73 399.93 1181.11 491.76 1094.84 583.02 1236.01 598.82
00007244 00000061 967.70 167.63 395.56 530.21 1084.85 381.39 1270.24 399.92 1180.64 492.14 1094.99 583.93 1236.31 599.60
00007245 00000062 967.42 167.37 395.69 530.02 1084.34 381.44 1270.57 399.78 1180.53 492.16 1094.53 584.19 1236.75 599.64
00007246 00000063 967.72 167.05 395.88 530.12 1084.43 381.52 1270.59 399.97 1180.25 492.03 1094.45 584.47 1236.24 600.08
00007247 00000064 967.86 167.00 395.74 529.71 1084.19 381.49 1271.20 399.64 1180.33 492.29 1094.95 585.51 1236.59 600.86
00007248 00000065 967.03 166.56 395.66 530.21 1083.69 381.90 1270.82 399.29 1180.65 493.18 1095.07 586.53 1236.41 601.31
00007249 00000066 966.76 167.11 395.96 529.75 1083.54 382.16 1270.80 399.64 1180.47 493.02 1094.68 586.60 1236.40 601.44
00007250 00000067 966.75 169.14 395.56 528.57 1083.78 383.48 1270.31 400.97 1180.24 492.74 1095.40 586.96 1235.90 601.87
00007251 00000068 966.19 169.07 397.38 529.69 1083.66 384.04 1270.51 401.99 1179.86 492.79 1093.95 586.97 1235.54 602.25
00007252 00000069 966.51 170.50 398.36 531.33 1085.26 384.60 1270.26 402.51 1181.05 492.48 1095.57 586.54 1235.53 601.79
00007253 00000070 965.99 170.69 400.18 532.92 1085.48 385.91 1270.40 403.95 1181.38 493.53 1096.08 587.48 1236.12 602.73
00007254 00000071 965.69 171.13 400.35 532.80 1084.42 386.49 1270.85 404.59 1179.84 494.23 1094.57 589.41 1235.43 604.72
00007255 00000072 965.76 171.45 399.62 533.49 1084.19 386.37 1270.07 404.27 1179.09 493.88 1094.53 589.90 1234.49 605.11
00007256 00000073 965.62 171.33 399.74 533.70 1083.83 386.65 1269.85 404.43 1178.50 493.98 1094.01 589.84 1234.51 604.90
00007257 00000074 965.03 171.18 400.23 533.29 1083.31 386.83 1269.36 404.67 1177.67 493.94 1093.18 589.62 1233.75 604.70
00007258 00000075 964.88 172.07 399.45 532.69 1082.62 386.50 1268.96 404.24 1176.94 494.43 1093.03 590.22 1233.71 605.21
00007259 00000076 964.67 172.39 400.06 533.67 1082.31 387.24 1269.14 404.88 1176.43 494.32 1092.27 590.61 1234.26 605.51
00007260 00000077 964.28 172.65 399.98 534.48 1081.87 388.02 1267.95 404.57 1175.78 494.42 1092.03 591.11 1233.74 605.17
00007261 00000078 963.24 172.28 400.10 535.42 1080.84 387.97 1266.98 404.12 1174.52 494.16 1091.22 591.30 1233.04 605.01
00007262 00000079 962.51 172.31 400.95 535.64 1080.43 388.17 1265.86 404.70 1173.44 494.62 1090.18 591.02 1231.58 605.06
00007263 00000080 961.30 171.56 400.90 536.02 1079.64 388.32 1264.98 404.25 1172.97 494.90 1088.87 590.87 1230.68 604.48
00007264 00000081 960.94 172.56 400.95 532.61 1075.88 388.98 1265.58 404.64 1169.41 495.86 1086.85 592.64 1231.62 605.77
00007265 00000082 960.97 171.63 399.44 535.17 1075.35 390.11 1263.84 404.16 1169.01 496.96 1087.46 593.97 1231.44 605.90
00007266 00000083 960.18 171.82 399.23 535.90 1074.48 389.97 1262.76 403.18 1168.44 496.41 1087.05 594.38 1230.56 605.73
00007267 00000084 960.54 171.17 398.40 536.42 1073.50 391.23 1262.38 403.14 1167.69 497.30 1087.07 596.08 1231.00 606.37
00007268 00000085 959.35 172.58 399.67 536.79 1072.34 391.24 1262.11 402.78 1166.79 496.70 1086.81 597.29 1230.64 607.20
00007269 00000086 958.09 172.31 400.32 536.26 1071.57 390.96 1261.24 402.29 1165.92 496.80 1086.28 596.85 1229.95 606.47
00007270 00000087 957.71 172.40 401.10 536.99 1071.11 391.53 1260.99 402.46 1165.48 496.56 1085.70 597.21 1230.38 606.53
00007271 00000088 957.87 171.84 400.97 538.26 1070.97 391.80 1260.40 402.35 1165.03 496.92 1085.45 597.30 1230.27 606.39
00007272 00000089 957.35 172.17 401.21 537.86 1070.48 391.51 1259.92 402.17 1164.56 497.16 1085.09 597.72 1229.44 606.90
00007273 00000090 956.84 172.41 401.87 538.07 1070.55 392.07 1259.82 402.91 1164.74 496.86 1084.84 597.45 1229.89 606.77
00007274 00000091 956.95 172.38 401.48 538.96 1070.52 392.68 1259.83 403.79 1164.53 497.43 1084.68 598.18 1229.95 607.76
00007275 00000092 956.74 172.31 401.62 539.35 1070.70 393.12 1259.70 404.19 1164.73 497.69 1084.76 598.43 1229.98 607.98
00007276 00000093 956.95 172.52 401.19 539.23 1070.82 393.13 1259.75 404.40 1164.51 497.85 1084.77 598.44 1229.59 608.15
00007277 00000094 956.91 172.22 401.19 539.80 1070.78 393.27 1259.55 404.57 1164.30 497.98 1084.55 598.21 1229.56 607.92
00007278 00000095 957.22 171.19 400.82 540.73 1071.04 393.31 1260.02 404.76 1164.73 498.40 1084.99 598.61 1229.80 608.45
00007279 00000096 957.51 170.75 400.78 541.28 1070.99 393.26 1260.57 404.73 1164.76 498.72 1085.02 598.71 1230.27 608.58
00007280 00000097 958.27 171.17 399.75 541.01 1070.84 393.63 1260.43 405.34 1163.89 498.65 1083.85 598.77 1230.08 608.93
00007281 00000098 957.43 171.41 400.81 541.23 1070.57 393.65 1260.57 405.20 1164.05 498.59 1083.89 599.10 1230.43 609.07
00007282 00000099 957.14 171.81 401.05 543.25 1070.92 393.96 1259.65 405.59 1163.62 498.32 1083.50 598.88 1230.07 608.98
00007283 00000100 956.71 171.70 401.67 544.41 1070.73 394.06 1259.22 405.28 1163.82 498.45 1083.85 599.03 1230.27 608.79
00007284 00000101 956.70 171.35 401.30 544.94 1070.46 394.06 1259.40 405.24 1163.72 498.58 1083.88 599.52 1230.57 609.19
00007285 00000102 956.79 171.77 401.37 544.87 1070.62 394.01 1258.83 405.23 1163.74 498.52 1084.20 599.11 1230.24 608.84
00007286 00000103 956.56 172.09 401.73 544.92 1070.62 394.06 1258.44 405.25 1163.45 498.66 1084.14 599.27 1229.69 608.99
00007287 00000104 956.79 172.02 401.50 545.07 1070.82 394.32 1258.44 405.48 1163.61 498.54 1084.21 599.35 1229.82 609.05
00007288 00000105 957.99 171.38 400.11 545.78 1071.63 395.03 1258.37 405.91 1163.92 498.77 1084.68 599.15 1230.12 608.65
00007289 00000106 957.47 171.59 401.29 545.05 1071.33 395.50 1258.37 406.18 1164.13 499.20 1084.89 599.17 1230.41 608.49
00007290 00000107 958.12 171.47 400.75 545.70 1071.41 395.35 1258.75 406.04 1164.09 500.08 1085.40 600.13 1230.62 609.40
00007291 00000108 957.99 171.13 401.47 546.72 1071.53 395.09 1259.11 406.14 1164.11 500.27 1085.30 600.26 1230.87 609.80
00007292 00000109 958.07 171.19 401.57 547.03 1071.69 395.25 1259.35 406.14 1164.27 500.48 1085.43 600.35 1231.16 609.77
00007293 00000110 957.55 170.35 402.24 547.58 1071.31 395.34 1259.31 406.04 1164.27 500.84 1085.27 600.67 1231.06 609.89
00007294 00000111 957.28 171.09 402.68 546.76 1071.99 395.46 1259.44 406.24 1164.87 500.27 1085.68 600.12 1231.03 609.42
00007295 00000112 957.23 170.14 403.11 548.46 1072.23 395.11 1259.78 405.68 1165.27 500.37 1086.26 600.46 1231.29 609.53
00007296 00000113 958.25 171.87 402.17 549.21 1073.29 394.29 1260.14 404.72 1166.29 499.35 1087.27 600.43 1231.90 609.48
00007297 00000114 958.47 171.34 403.23 553.51 1073.68 393.63 1260.21 404.53 1165.81 498.23 1087.06 599.59 1232.08 608.97
00007298 00000115 955.95 170.11 405.92 551.63 1070.11 391.45 1257.81 402.93 1160.50 496.77 1083.11 599.64 1226.92 609.51
00007299 00000116 955.20 167.09 406.05 542.49 1066.78 387.92 1255.84 402.63 1153.37 494.98 1075.74 594.72 1220.93 607.13
00007300 00000117 955.15 164.20 407.94 538.83 1063.98 383.12 1254.48 402.35 1147.58 494.28 1070.65 589.24 1216.86 604.91
00007301 00000118 951.17 162.64 412.81 540.10 1060.35 381.96 1247.07 400.72 1140.29 487.39 1065.97 583.96 1209.57 598.63
00007302 00000119 954.00 159.70 408.74 541.77 1059.74 377.03 1244.12 397.88 1133.60 484.18 1060.75 578.62 1204.91 595.44
00007303 00000120 955.37 159.29 407.02 544.33 1058.97 377.91 1242.11 400.36 1129.59 481.73 1056.98 576.57 1203.01 594.83
00007304 00000121 956.13 157.69 406.19 547.43 1058.91 376.74 1242.43 402.60 1126.64 484.26 1052.93 575.18 1201.29 596.64
00007305 00000122 957.49 160.50 406.90 545.67 1059.02 379.71 1242.49 405.78 1125.07 486.97 1052.78 576.97 1200.75 598.79
00007306 00000123 957.09 163.75 410.52 545.23 1061.56 380.05 1245.69 409.00 1126.44 489.23 1053.03 577.03 1200.78 601.36
00007307 00000124 960.10 165.72 412.58 543.86 1064.00 381.59 1250.48 410.48 1128.41 491.22 1055.03 579.83 1203.38 604.13
00007308 00000125 961.08 165.15 414.00 547.85 1067.18 383.81 1254.42 413.40 1132.48 496.03 1057.00 582.83 1206.59 607.90
00007309 DELETE   969.74 169.56 416.40 552.10 1079.91 387.88 1263.18 419.92 1148.83 495.11 1061.23 584.54 1203.67 612.28
00007310 00000127 970.67 178.63 416.69 551.93 1083.63 391.68 1265.42 421.46 1152.62 499.34 1066.79 594.61 1208.11 619.36
00007311 00000128 972.08 177.31 420.86 561.13 1087.73 390.16 1270.58 422.69 1157.76 500.03 1070.46 595.74 1213.77 622.75
00007312 00000129 972.57 176.19 422.79 561.52 1090.98 390.38 1272.94 424.07 1160.81 499.60 1072.54 595.74 1217.07 623.67
00007313 00000130 974.73 175.90 422.73 558.69 1094.32 390.93 1275.23 425.59 1163.95 498.95 1074.78 595.33 1219.51 623.97
00007314 00000131 982.31 175.93 421.92 547.46 1096.76 390.18 1280.18 425.93 1161.70 505.46 1076.54 587.44 1216.70 618.67
00007315 DELETE   984.05 175.97 422.82 546.13 1097.41 390.57 1281.67 426.32 1161.83 505.01 1077.17 587.43 1218.49 618.59
00007316 00000133 983.96 177.49 422.13 544.73 1096.99 391.00 1281.51 425.64 1162.53 505.36 1077.56 588.44 1219.19 618.71
00007317 DELETE   982.23 178.00 422.42 543.90 1095.22 389.84 1280.48 425.09 1161.00 505.45 1074.90 586.88 1217.60 617.78
00007318 DELETE   980.65 179.99 420.00 542.40 1093.09 392.04 1277.46 425.87 1159.96 506.18 1073.31 588.47 1215.15 618.24
00007319 DELETE   979.93 181.13 420.39 543.65 1090.80 392.95 1274.96 426.65 1156.34 507.30 1071.28 589.36 1213.16 618.90
00007320 00000137 971.86 182.39 422.30 557.86 1085.48 394.33 1269.43 427.15 1154.41 505.82 1067.69 597.20 1216.94 624.40
00007321 00000138 970.40 183.07 421.47 566.99 1075.53 398.20 1263.56 424.82 1146.14 514.18 1065.79 607.01 1212.24 629.53
00007322 00000139 967.31 180.26 419.49 578.57 1065.48 397.40 1254.68 424.73 1132.81 519.20 1058.51 610.15 1204.54 633.12
00007323 00000140 960.08 184.44 412.53 577.13 1051.91 396.94 1239.48 419.32 1117.61 518.59 1049.28 609.39 1192.89 628.07
00007324 DELETE   953.09 191.43 404.15 564.99 1033.14 407.51 1218.35 416.63 1099.55 520.88 1040.84 617.13 1186.68 624.86
CROP_BBOX: 694 0 1552 884
