Video ID: 	RgjGuWrtKb8
H: 	1080
W: 	1920
FPS: 	23.976023976023978

FRAME INDEX X0 Y0 W H [Landmarks (5 Points)]

00041376 00000000 313.81 227.84 475.42 625.00 422.62 430.69 646.38 421.45 531.85 545.03 460.68 677.57 635.64 668.23
00041377 00000001 316.72 224.53 474.80 639.61 426.35 431.16 655.84 425.82 537.46 553.93 461.88 691.26 633.33 685.44
00041378 00000002 315.70 222.95 474.61 644.42 426.23 432.59 656.91 430.01 534.87 561.15 458.63 694.58 630.85 690.75
00041379 00000003 315.65 225.84 472.61 639.53 425.68 437.80 656.73 437.44 532.09 564.66 453.01 696.58 625.60 694.91
00041380 00000004 315.77 223.29 470.24 639.31 424.73 436.99 654.61 435.19 530.70 562.61 453.64 697.20 622.80 694.47
00041381 00000005 316.89 226.55 466.46 628.70 421.83 429.83 650.98 426.19 529.07 553.87 453.74 691.46 621.15 686.95
00041382 00000006 318.76 208.40 469.92 634.05 424.46 416.48 653.15 413.02 532.07 529.72 455.85 673.83 626.69 669.04
00041383 00000007 322.10 207.30 469.50 622.38 429.94 404.01 654.39 398.92 534.70 509.83 464.79 657.95 628.24 651.85
00041384 DELETE   322.84 199.02 474.92 616.64 432.38 390.79 660.79 387.15 538.79 491.51 464.27 642.00 631.34 636.72
00041385 00000009 320.45 193.52 474.49 609.68 431.61 379.08 656.40 380.64 533.11 482.53 455.36 627.42 622.66 626.82
00041386 00000010 316.81 190.08 472.28 611.20 424.59 377.30 646.90 384.21 518.01 476.57 437.12 618.70 608.87 623.52
00041387 00000011 316.04 199.02 470.65 607.86 421.62 381.83 642.28 392.26 512.43 486.30 429.74 622.91 600.60 630.88
00041388 00000012 320.69 200.60 466.37 616.24 419.05 397.50 643.66 404.02 513.60 503.72 432.63 640.25 605.33 644.61
00041389 00000013 319.34 211.96 464.88 615.27 419.97 409.41 641.08 416.13 514.36 524.44 438.23 653.68 602.72 658.31
00041390 00000014 319.43 233.77 464.12 600.20 415.70 415.99 641.95 423.61 510.17 540.02 435.47 665.49 605.79 670.62
00041391 00000015 319.04 223.75 466.07 621.61 418.20 424.74 647.34 431.87 512.93 547.14 434.20 675.94 610.83 680.64
00041392 00000016 318.07 225.16 468.20 625.56 421.12 426.69 650.79 432.82 519.36 549.72 438.87 678.40 616.93 682.19
00041393 00000017 317.10 222.85 469.52 631.83 425.04 426.43 655.56 432.17 528.36 551.64 446.32 682.50 619.88 686.02
00041394 00000018 315.42 226.86 471.20 630.99 426.71 428.01 659.72 432.42 535.60 554.99 450.61 685.86 624.83 688.10
00041395 00000019 313.48 231.57 472.90 630.98 426.63 428.22 661.53 433.11 536.65 558.39 452.08 689.53 625.58 692.17
00041396 00000020 316.84 242.32 468.36 627.19 431.21 432.69 659.99 441.49 535.65 563.54 450.08 690.43 619.04 695.82
00041397 00000021 309.74 240.17 472.53 628.80 422.27 434.32 655.08 441.11 527.20 563.94 443.32 693.56 619.91 698.10
00041398 00000022 308.59 242.43 473.31 631.49 420.83 437.38 652.32 443.12 524.06 568.15 442.16 696.13 619.46 699.99
00041399 00000023 317.53 256.32 464.38 624.06 425.32 443.11 650.68 448.43 525.90 574.20 445.49 697.74 616.78 700.46
00041400 00000024 315.94 265.53 465.37 616.01 426.57 445.70 650.15 452.00 527.16 576.84 446.33 697.88 616.86 701.20
00041401 00000025 314.49 268.06 467.35 611.89 425.67 446.81 649.23 452.95 526.80 577.11 446.21 696.60 615.47 699.60
00041402 00000026 312.80 264.22 468.06 619.37 424.95 445.21 646.58 452.35 523.07 574.66 442.90 694.60 609.63 698.86
00041403 00000027 309.79 247.48 473.97 634.03 424.31 437.29 645.01 448.07 519.50 567.64 439.99 690.57 601.10 698.60
00041404 00000028 307.88 231.47 469.90 640.74 418.01 430.36 640.01 439.34 510.41 561.01 429.34 687.35 595.88 694.48
00041405 00000029 309.20 227.94 468.46 638.86 414.90 420.88 638.53 428.74 508.06 549.10 429.13 682.60 592.57 689.07
00041406 00000030 311.62 223.71 467.21 642.23 415.13 416.72 641.09 423.12 511.07 542.94 431.07 680.21 598.62 685.20
00041407 00000031 314.02 225.37 467.10 641.37 415.53 414.87 644.01 422.70 510.60 544.05 430.67 678.37 606.89 684.02
00041408 00000032 322.30 237.77 467.35 631.02 422.87 418.56 650.67 427.48 516.09 537.66 431.10 673.78 612.06 680.62
00041409 00000033 322.25 231.95 466.03 626.30 416.06 416.02 645.92 422.04 508.37 538.93 430.33 670.99 616.26 674.73
00041410 00000034 322.21 224.97 465.71 619.45 418.44 411.31 645.92 418.78 508.72 529.73 430.62 659.12 614.57 663.94
00041411 00000035 324.56 216.13 464.78 617.68 420.76 405.91 645.71 412.85 508.86 516.08 432.18 648.20 613.21 652.63
00041412 00000036 321.50 210.70 466.43 619.77 418.67 400.39 645.64 408.53 510.93 508.30 429.49 645.25 609.03 650.83
00041413 00000037 320.25 215.10 464.34 613.80 417.86 404.35 642.16 413.92 507.70 517.08 427.10 646.75 603.68 653.50
00041414 00000038 315.66 223.61 463.02 607.89 413.22 419.13 635.99 427.73 502.83 535.85 423.81 657.63 599.61 664.10
00041415 00000039 314.07 232.77 461.41 609.40 414.33 427.77 634.94 440.47 498.73 552.52 417.16 668.72 595.63 678.70
00041416 00000040 308.92 236.03 465.77 613.43 412.10 434.56 631.36 448.80 495.37 559.41 414.96 674.82 589.53 685.89
00041417 00000041 307.74 240.53 464.65 614.21 412.83 434.59 631.83 449.37 495.22 559.17 413.11 677.09 586.51 688.89
00041418 00000042 312.65 232.35 463.33 613.65 411.51 429.16 635.12 442.19 497.06 553.49 415.69 673.77 591.96 684.09
00041419 00000043 313.61 228.68 467.25 611.60 411.38 421.72 634.73 431.55 498.92 541.57 421.53 662.55 596.57 670.13
00041420 00000044 315.43 217.50 464.65 611.06 413.71 410.76 633.58 422.27 499.75 524.92 419.15 647.09 593.58 656.04
00041421 00000045 318.47 216.46 463.78 603.63 417.14 398.13 639.74 413.20 505.67 503.90 417.46 633.63 596.35 645.83
00041422 00000046 320.45 209.84 466.12 595.02 420.60 392.14 644.43 409.71 510.16 495.82 419.51 627.13 596.99 640.92
00041423 00000047 322.79 223.19 464.09 589.19 421.06 401.24 645.19 415.21 507.66 507.23 424.71 639.32 599.42 650.36
00041424 00000048 323.49 233.39 463.79 591.03 417.53 411.04 645.84 421.57 506.62 528.74 429.22 656.29 603.89 663.93
00041425 00000049 325.46 230.48 462.22 613.63 416.87 421.16 649.88 429.65 509.25 540.40 428.84 676.07 607.04 682.29
00041426 00000050 323.22 232.64 464.82 626.91 416.97 421.99 648.96 431.21 508.49 548.47 426.65 681.26 609.52 688.13
00041427 00000051 321.48 234.00 465.28 630.48 415.64 418.61 646.59 428.87 504.36 548.66 423.79 680.37 607.13 688.17
00041428 00000052 319.28 228.82 466.89 634.47 415.47 417.57 644.95 428.03 505.04 546.21 423.04 677.41 605.44 685.53
00041429 00000053 319.23 231.89 465.18 622.53 413.17 417.00 641.94 426.00 503.24 542.29 422.55 673.83 600.90 680.98
00041430 00000054 317.90 227.61 466.78 618.77 413.22 416.04 640.50 425.58 501.47 536.07 423.29 665.77 600.19 673.10
00041431 00000055 318.12 228.16 465.75 612.35 412.96 410.36 640.02 421.13 500.81 531.12 423.06 660.99 596.71 669.16
00041432 00000056 318.24 221.57 466.81 618.46 415.19 405.42 642.36 417.83 500.87 524.41 423.52 657.56 596.15 667.21
00041433 00000057 318.27 214.97 468.55 622.20 417.58 403.82 643.18 415.73 504.59 518.89 427.00 656.01 594.31 665.51
00041434 00000058 320.63 222.84 462.34 609.62 416.19 404.73 642.65 416.86 506.21 523.00 429.19 660.03 591.31 669.63
00041435 00000059 323.71 226.51 454.93 616.47 417.42 411.54 641.33 423.87 507.28 533.08 426.31 672.84 580.43 683.42
00041436 00000060 323.53 234.70 458.12 614.26 416.38 417.92 641.95 427.68 504.78 544.08 427.53 680.67 586.03 688.51
00041437 00000061 325.21 237.69 456.55 609.68 416.30 419.02 642.98 427.68 504.16 541.99 426.10 679.75 587.75 686.55
00041438 00000062 323.76 228.24 455.90 626.01 418.88 413.21 643.51 423.46 507.26 534.89 425.80 679.97 581.71 689.22
00041439 00000063 323.47 225.92 456.37 621.20 418.98 402.65 646.06 413.38 503.64 517.61 420.41 664.21 592.04 673.04
00041440 00000064 322.70 203.33 466.21 633.54 418.14 397.49 647.62 407.21 504.36 499.06 422.79 649.47 600.10 657.30
00041441 00000065 323.34 193.28 470.95 634.01 418.08 390.09 645.54 402.10 502.26 485.20 417.09 633.64 600.93 642.84
00041442 00000066 323.25 191.18 468.37 618.98 417.38 386.95 642.41 398.15 498.60 478.89 417.48 626.40 598.61 635.04
00041443 00000067 318.87 187.30 467.32 614.06 413.26 389.31 639.45 400.70 499.55 482.33 414.37 628.29 596.71 636.96
00041444 00000068 315.52 187.96 467.78 622.08 409.62 403.12 637.13 412.34 497.03 497.88 414.72 644.14 590.88 651.79
00041445 00000069 310.38 213.67 460.92 597.11 405.82 416.42 625.48 419.77 491.14 516.35 415.14 649.43 590.09 652.14
00041446 00000070 306.41 231.93 464.30 590.21 397.14 426.23 620.59 421.99 486.94 529.08 416.51 660.68 596.35 656.81
00041447 00000071 296.99 226.77 470.43 600.37 392.26 429.03 614.97 421.98 484.28 532.38 415.60 665.10 591.46 658.63
00041448 00000072 295.63 227.93 469.05 607.02 393.09 424.55 610.58 417.85 482.80 530.20 410.75 664.97 580.76 659.63
00041449 00000073 289.61 219.86 469.28 622.62 393.17 415.89 608.90 410.34 481.52 516.25 407.32 660.66 568.61 657.29
00041450 00000074 285.10 195.95 470.34 641.39 391.59 409.79 603.64 407.66 477.40 506.66 403.48 652.51 561.92 651.89
00041451 00000075 283.55 191.03 474.63 634.53 384.40 405.78 596.86 403.41 464.11 497.03 399.47 644.44 552.38 643.34
00041452 00000076 279.90 193.53 474.27 629.39 378.77 411.65 593.47 407.29 460.02 502.74 395.97 647.22 553.92 644.16
00041453 00000077 280.36 207.72 471.71 621.08 372.02 419.70 589.58 410.60 458.16 515.06 397.08 657.94 558.63 650.63
00041454 00000078 276.53 207.93 473.22 635.07 367.58 423.60 590.15 412.64 459.41 525.95 396.37 669.70 567.57 660.93
00041455 00000079 283.67 210.56 472.62 635.38 377.24 421.07 594.19 416.49 464.10 529.84 407.09 668.86 573.70 664.67
00041456 00000080 297.00 213.90 467.53 630.94 383.27 418.65 601.14 414.05 466.15 524.93 407.28 661.63 583.98 657.21
00041457 00000081 303.88 197.64 469.65 644.89 391.35 410.15 615.96 403.16 474.74 502.08 402.92 648.67 589.84 643.22
00041458 00000082 318.89 187.69 471.97 641.92 408.76 397.79 633.27 400.80 490.18 484.42 412.13 634.86 599.82 636.77
00041459 00000083 328.57 186.75 473.01 623.88 419.88 387.82 649.15 393.48 503.29 475.54 424.48 627.42 608.47 630.78
00041460 DELETE   335.52 171.85 472.34 623.97 437.59 382.22 663.27 395.91 515.15 477.83 434.94 617.78 621.28 628.45
00041461 DELETE   351.45 198.00 466.29 608.83 455.39 392.98 681.55 417.16 535.57 495.07 449.47 630.52 628.20 649.03
00041462 DELETE   355.11 190.90 470.96 635.67 469.51 404.51 685.95 426.90 552.51 517.25 462.57 637.69 635.46 657.00
00041463 00000087 364.30 216.14 467.75 625.22 488.13 415.40 702.41 447.03 569.30 536.35 471.39 650.82 643.22 677.78
00041464 00000088 366.62 231.72 471.59 610.76 488.65 416.22 710.04 446.80 568.12 545.28 473.69 657.24 648.36 682.91
00041465 00000089 366.34 237.99 472.03 606.26 489.68 417.17 711.46 447.42 569.99 547.62 473.60 659.92 650.25 685.23
00041466 00000090 367.52 236.98 470.98 605.55 489.88 418.10 712.66 447.43 572.58 547.15 475.63 660.15 653.31 684.61
00041467 00000091 366.42 244.86 471.75 597.37 488.68 418.47 712.49 445.41 572.11 547.23 476.17 661.55 654.09 683.74
00041468 00000092 366.01 244.27 471.47 600.36 487.97 419.40 710.82 445.82 571.59 548.21 476.14 663.16 652.16 684.98
00041469 00000093 365.60 246.86 468.61 606.47 490.60 420.49 708.73 452.94 576.20 548.41 475.91 663.11 645.70 690.42
00041470 00000094 362.70 247.78 471.35 606.71 488.14 421.67 704.50 452.15 572.22 550.28 474.87 661.26 642.98 686.91
00041471 00000095 362.31 247.10 471.91 604.96 487.12 421.87 702.30 452.73 569.08 550.19 473.49 660.14 640.87 686.12
00041472 00000096 363.56 245.22 471.46 607.34 487.56 420.24 702.19 452.12 568.85 549.23 473.60 658.45 639.07 685.43
00041473 00000097 363.49 243.02 471.52 608.30 487.43 420.09 701.76 451.90 568.77 548.06 473.39 656.48 640.12 683.39
00041474 00000098 361.63 233.90 471.23 617.78 487.15 418.47 700.82 450.85 568.41 544.41 472.43 655.46 639.11 682.88
00041475 00000099 361.69 237.17 469.26 614.38 487.38 419.49 701.03 450.95 569.80 545.54 473.82 657.25 639.54 683.94
00041476 00000100 360.48 243.95 471.00 609.53 486.96 420.85 700.15 449.59 569.37 548.49 475.61 659.33 639.43 683.61
00041477 00000101 360.50 241.65 470.41 615.70 485.79 422.51 699.25 450.79 567.71 548.48 475.10 662.15 638.94 686.05
00041478 00000102 358.92 238.83 470.72 621.31 484.73 421.77 697.93 450.74 565.87 548.74 473.18 661.92 635.82 686.63
00041479 00000103 355.92 225.51 471.19 634.11 480.85 421.53 692.41 449.61 562.21 544.95 470.18 659.21 633.53 683.25
00041480 00000104 354.76 220.69 471.70 640.98 477.61 420.37 689.96 450.10 557.96 544.62 464.32 657.71 633.62 683.08
00041481 00000105 355.61 222.16 469.90 636.48 474.78 421.00 688.17 450.66 555.73 545.33 461.84 658.21 631.76 683.30
00041482 00000106 354.84 224.47 470.53 636.83 473.31 420.91 689.55 450.79 555.98 548.16 458.60 658.59 633.46 683.90
00041483 00000107 357.10 220.92 469.70 641.90 474.75 417.79 688.40 447.47 555.25 544.01 461.22 656.07 634.45 681.22
00041484 00000108 359.86 216.58 468.11 649.24 478.50 408.96 691.93 438.37 556.52 539.67 465.66 652.40 638.03 677.45
00041485 00000109 365.32 220.32 465.98 644.22 484.16 404.87 699.98 434.99 563.60 536.67 469.26 649.40 645.45 675.18
00041486 00000110 368.96 225.71 466.71 623.84 486.89 407.00 704.95 435.89 563.36 537.19 469.36 648.55 649.07 673.14
00041487 00000111 372.68 225.07 466.84 625.45 490.14 407.44 712.67 434.97 570.14 537.77 472.91 651.78 656.65 675.18
00041488 00000112 372.30 226.16 467.08 624.54 490.08 409.56 713.24 437.29 572.30 542.37 475.31 656.16 657.53 679.64
00041489 00000113 369.18 234.79 469.66 618.35 489.49 413.43 711.19 440.99 569.95 547.76 474.33 661.84 652.11 685.37
00041490 00000114 363.62 251.52 472.91 606.22 486.34 418.78 705.24 448.56 565.69 557.89 472.56 666.58 646.15 691.52
00041491 00000115 363.86 254.51 467.27 624.76 486.03 428.04 703.06 459.87 571.12 563.64 473.29 674.75 640.48 701.67
00041492 00000116 357.61 261.05 469.13 624.40 479.85 433.70 699.48 462.69 568.26 569.45 472.50 681.75 639.13 706.00
00041493 00000117 355.01 263.06 468.11 624.09 475.89 436.48 695.76 464.48 564.64 573.07 470.42 683.65 637.02 706.83
00041494 00000118 350.28 257.06 472.13 633.44 474.89 437.97 694.39 464.42 564.36 573.88 472.87 686.93 634.87 709.04
00041495 00000119 351.77 266.93 471.57 627.32 477.04 438.80 696.16 466.09 565.74 575.88 474.03 689.09 637.62 711.55
00041496 00000120 355.06 272.22 470.37 620.46 481.31 439.63 700.50 467.49 571.71 576.78 476.72 689.77 640.18 712.61
00041497 00000121 359.96 276.90 468.49 611.42 485.45 437.61 706.20 465.64 577.51 577.10 482.52 690.21 645.83 712.89
00041498 00000122 365.67 284.04 465.67 599.55 489.60 434.09 709.41 462.24 581.93 573.74 485.61 688.37 650.45 710.60
00041499 00000123 371.43 274.72 461.96 605.80 498.79 431.91 719.85 464.00 591.67 570.77 489.84 684.55 657.55 710.41
00041500 00000124 377.61 273.05 460.55 604.11 504.76 430.26 725.35 464.93 596.89 569.05 494.21 683.58 661.88 711.74
00041501 00000125 380.75 268.63 463.10 608.73 509.81 430.17 732.62 468.45 602.27 567.62 496.05 682.47 665.90 713.73
00041502 00000126 382.93 271.31 462.17 607.64 515.31 432.57 737.09 473.04 606.77 570.08 497.88 683.17 668.66 716.29
00041503 00000127 381.60 278.98 469.87 602.61 517.28 433.64 739.68 477.69 606.60 574.16 499.24 683.80 669.20 719.31
00041504 00000128 383.76 277.32 470.89 605.51 520.19 433.80 742.45 479.21 608.86 574.31 500.83 683.90 671.23 720.73
00041505 00000129 384.97 270.54 472.11 615.40 521.52 433.80 743.96 478.49 611.23 572.22 502.37 684.71 674.24 721.25
00041506 00000130 385.08 254.52 471.76 643.68 520.65 433.29 741.94 476.69 610.70 569.00 497.91 684.65 672.98 720.52
00041507 00000131 383.31 245.32 469.58 652.13 514.74 429.43 738.06 465.42 607.27 562.52 498.97 685.21 673.77 714.78
00041508 00000132 378.51 238.30 462.73 643.37 503.13 416.42 726.47 447.09 596.86 545.65 492.77 677.61 663.62 704.00
00041509 00000133 359.18 218.75 474.73 632.65 484.62 409.63 704.93 429.00 576.99 534.98 486.93 662.96 652.20 679.11
00041510 DELETE   349.81 192.33 475.63 658.51 475.74 403.44 690.81 416.50 570.29 515.10 482.36 653.08 640.91 664.96
00041511 00000135 336.13 199.37 474.91 638.80 450.06 401.21 679.81 408.81 549.52 512.02 471.55 659.08 632.30 662.84
00041512 00000136 328.45 194.90 473.14 640.39 439.06 399.03 664.67 402.47 537.34 507.43 465.85 657.91 622.11 658.54
00041513 00000137 325.33 207.28 468.05 627.45 426.23 402.60 650.81 401.77 522.93 510.42 455.10 659.47 613.16 657.23
00041514 00000138 317.58 208.68 470.00 633.47 418.52 409.95 636.52 404.28 512.91 518.58 450.96 665.02 607.92 658.87
00041515 00000139 308.03 213.54 470.51 639.68 408.47 418.39 627.42 411.04 504.27 529.85 438.50 674.59 600.91 667.85
00041516 00000140 304.45 224.85 468.49 641.18 400.81 421.18 622.02 411.48 500.08 534.66 434.54 683.75 602.65 675.17
00041517 00000141 304.55 221.79 470.30 643.08 401.19 419.64 623.99 409.87 499.00 533.25 432.11 681.31 604.57 672.61
00041518 DELETE   309.54 215.61 474.19 641.66 408.63 415.31 634.26 408.91 502.13 526.41 432.82 673.65 609.76 667.34
00041519 00000143 320.05 217.57 470.91 634.31 416.02 408.80 645.94 407.53 508.10 519.00 434.97 666.02 618.55 663.76
CROP_BBOX: 45 0 1138 1080
