Video ID: 	3GfzsJYtsiQ
H: 	1080
W: 	1920
FPS: 	25.0

FRAME INDEX X0 Y0 W H [Landmarks (5 Points)]

00008552 00000000 1064.11 72.04 523.79 757.29 1190.02 362.95 1418.87 345.24 1297.93 479.33 1225.94 629.81 1420.64 614.03
00008553 DELETE   1061.05 71.03 525.49 757.85 1187.49 363.41 1416.04 344.64 1296.36 481.45 1224.43 630.50 1420.50 613.68
00008554 00000002 1060.48 70.58 525.01 755.82 1185.52 365.09 1415.79 345.67 1294.56 482.82 1222.50 629.85 1420.12 612.47
00008555 DELETE   1060.07 69.66 524.32 758.06 1185.74 365.48 1414.72 345.85 1295.27 485.44 1222.98 630.68 1420.34 613.14
00008556 DELETE   1061.03 69.24 523.74 761.83 1187.51 367.06 1414.71 347.53 1296.54 489.20 1225.43 632.80 1421.44 615.38
00008557 00000005 1064.01 70.79 523.41 761.18 1190.62 369.08 1420.81 352.37 1300.02 492.14 1225.11 633.31 1423.72 618.36
00008558 00000006 1069.15 74.72 524.52 758.26 1195.28 371.96 1426.92 357.31 1304.46 497.91 1229.11 633.57 1427.28 620.31
00008559 00000007 1075.93 76.20 519.54 761.83 1201.29 378.02 1432.05 363.65 1309.81 501.61 1233.81 637.47 1431.82 624.39
00008560 00000008 1084.32 79.04 520.63 766.95 1207.13 379.33 1437.13 366.00 1312.50 508.39 1238.36 643.01 1435.71 631.16
00008561 00000009 1090.33 82.69 521.18 771.64 1213.54 381.15 1442.84 367.20 1320.11 513.73 1244.80 647.42 1439.80 635.11
00008562 00000010 1095.76 95.02 524.69 762.27 1219.83 380.67 1456.18 371.02 1333.09 520.58 1258.79 652.02 1447.60 640.69
00008563 00000011 1101.13 85.01 518.18 770.83 1222.64 386.92 1458.13 376.15 1334.38 525.98 1253.10 652.33 1453.71 642.85
00008564 00000012 1105.01 85.96 517.33 768.09 1228.42 390.11 1463.98 380.78 1340.35 528.67 1257.18 652.96 1460.67 644.99
00008565 00000013 1110.96 92.75 515.85 756.19 1235.39 389.43 1472.25 381.63 1345.70 531.37 1263.30 653.71 1464.31 646.81
00008566 00000014 1113.79 89.08 517.65 760.38 1239.60 391.18 1476.29 384.96 1349.16 533.98 1265.48 654.72 1467.86 649.16
00008567 00000015 1115.27 90.49 517.46 760.41 1241.93 389.86 1478.88 385.75 1351.62 535.27 1267.93 655.13 1468.65 651.41
00008568 00000016 1116.48 90.53 517.24 760.39 1243.42 388.89 1479.79 385.36 1353.06 536.38 1269.66 655.35 1469.30 652.16
00008569 00000017 1116.76 91.29 518.78 759.29 1243.98 388.99 1480.26 384.44 1353.89 534.49 1271.59 656.22 1469.38 652.27
00008570 00000018 1116.75 91.29 518.62 759.48 1242.97 388.89 1479.60 382.26 1353.62 532.46 1271.85 656.66 1469.97 650.96
00008571 00000019 1116.06 90.37 519.22 760.37 1242.96 389.34 1479.63 382.21 1354.00 532.12 1272.64 656.92 1470.51 650.76
00008572 00000020 1115.33 90.21 519.32 760.99 1242.22 389.51 1479.48 382.88 1353.57 532.57 1272.10 657.63 1469.41 651.93
00008573 00000021 1114.14 91.49 518.54 759.88 1241.31 390.13 1478.43 384.33 1351.88 532.28 1270.09 658.03 1467.03 653.09
00008574 00000022 1113.49 91.74 516.65 760.53 1239.45 391.68 1476.90 385.30 1349.94 533.00 1268.54 659.05 1465.24 653.62
00008575 00000023 1111.78 93.31 516.19 759.55 1237.18 390.53 1475.02 383.97 1348.24 533.34 1267.31 659.35 1463.21 653.80
00008576 00000024 1111.36 87.30 514.30 769.82 1233.35 392.36 1471.13 386.37 1344.51 533.58 1263.39 659.06 1461.01 654.29
00008577 00000025 1108.70 89.03 516.58 768.88 1230.59 392.79 1467.88 384.83 1342.54 532.15 1261.37 659.07 1459.56 652.54
00008578 00000026 1106.29 88.45 517.91 769.33 1228.03 392.88 1465.43 383.92 1340.72 532.36 1259.14 659.57 1457.23 652.21
00008579 00000027 1104.83 89.83 517.66 769.20 1226.03 392.80 1464.14 382.91 1339.13 532.26 1256.66 659.47 1457.12 651.25
00008580 00000028 1103.36 90.04 518.98 768.31 1225.31 391.44 1464.03 382.16 1338.09 531.52 1255.56 658.94 1456.20 651.18
00008581 00000029 1103.56 90.38 518.15 767.07 1225.51 390.54 1464.02 381.48 1338.53 531.35 1255.73 658.55 1455.96 651.04
00008582 00000030 1103.38 88.84 518.76 767.88 1225.59 390.09 1464.25 381.32 1338.60 531.48 1255.75 658.35 1455.97 651.08
00008583 00000031 1102.57 89.16 520.59 767.95 1225.66 389.95 1464.05 381.55 1338.39 532.49 1256.23 658.64 1455.98 651.71
00008584 00000032 1103.43 89.89 519.59 767.01 1225.36 390.40 1464.04 382.33 1337.68 534.39 1255.71 658.91 1455.61 652.34
00008585 00000033 1102.36 91.38 521.59 765.32 1224.87 390.77 1464.15 382.97 1337.28 535.41 1255.20 659.18 1454.94 652.88
00008586 00000034 1101.90 92.60 520.19 763.09 1223.55 390.83 1462.81 382.91 1336.26 535.93 1253.47 658.24 1454.54 651.89
00008587 00000035 1101.01 92.33 519.79 762.76 1222.52 391.05 1461.64 382.18 1335.36 535.53 1253.28 658.16 1454.53 650.83
00008588 00000036 1101.03 92.32 519.61 762.86 1221.67 390.83 1460.54 381.18 1334.32 534.37 1252.50 657.91 1454.08 649.79
00008589 00000037 1100.26 92.67 520.47 762.31 1220.99 391.13 1459.69 380.69 1333.72 533.90 1252.37 657.83 1453.86 648.94
00008590 00000038 1099.23 91.17 520.32 764.52 1220.27 390.53 1458.39 379.44 1333.21 532.50 1251.70 657.32 1452.89 647.80
00008591 00000039 1099.41 90.28 519.36 767.45 1219.70 390.32 1457.09 378.76 1332.16 532.22 1251.19 658.51 1451.21 648.73
00008592 00000040 1099.33 89.22 518.70 770.91 1218.82 391.27 1455.81 378.50 1330.53 531.87 1251.16 660.61 1450.16 649.90
00008593 00000041 1098.85 89.31 517.27 771.17 1218.60 391.42 1453.11 378.65 1329.13 532.11 1250.95 660.56 1448.12 649.97
00008594 00000042 1097.78 88.52 517.65 771.95 1218.14 392.32 1451.76 379.17 1328.03 532.37 1250.94 660.64 1446.70 649.63
00008595 00000043 1097.04 89.55 518.14 772.12 1216.68 392.88 1450.99 379.25 1326.36 533.87 1250.10 662.02 1446.06 650.47
00008596 00000044 1094.86 99.96 522.01 760.50 1217.99 388.69 1456.25 379.56 1331.90 537.90 1257.25 661.82 1444.25 651.54
00008597 00000045 1094.65 100.38 520.95 759.78 1217.14 388.97 1455.69 380.49 1331.09 539.01 1255.98 661.63 1443.70 652.00
00008598 00000046 1093.08 101.24 522.20 759.64 1215.79 390.21 1454.39 380.95 1329.89 539.90 1254.82 662.00 1445.40 651.62
00008599 00000047 1091.65 90.46 522.74 771.40 1211.87 394.62 1450.08 381.18 1324.28 541.06 1244.28 661.63 1452.52 649.66
00008600 00000048 1090.40 89.99 522.75 772.21 1211.10 394.79 1449.70 381.66 1323.25 540.93 1242.21 660.65 1451.27 648.87
00008601 00000049 1090.40 90.23 522.00 770.17 1210.99 394.68 1449.82 381.78 1323.73 541.53 1242.18 660.90 1451.17 649.36
00008602 00000050 1091.82 91.05 521.16 766.54 1211.70 394.56 1450.45 381.15 1325.09 540.71 1243.88 662.25 1451.61 650.41
00008603 00000051 1091.77 89.50 522.38 774.48 1212.18 394.12 1451.20 380.39 1324.92 539.66 1244.50 663.54 1452.93 651.52
00008604 00000052 1091.54 91.09 521.66 774.58 1212.06 394.78 1449.68 381.09 1324.34 539.93 1245.72 666.80 1447.63 655.15
00008605 00000053 1091.03 102.27 522.11 761.53 1213.65 390.30 1453.99 381.13 1329.65 540.20 1249.85 663.40 1443.73 653.34
00008606 00000054 1091.52 92.59 520.99 774.39 1213.00 395.07 1447.86 381.34 1324.41 539.24 1248.20 667.92 1444.55 656.28
00008607 00000055 1091.42 91.07 521.58 774.90 1213.72 394.19 1449.28 380.67 1324.74 536.61 1247.85 666.42 1444.23 655.14
00008608 00000056 1091.74 91.26 520.69 773.75 1213.89 393.43 1448.52 380.03 1324.31 535.33 1247.74 665.55 1442.97 654.40
00008609 00000057 1091.16 88.71 520.59 773.67 1212.80 392.74 1448.72 379.59 1322.61 535.21 1246.75 665.04 1442.48 653.97
00008610 00000058 1089.73 90.35 519.76 770.32 1208.76 393.43 1445.35 378.66 1319.18 536.30 1243.95 666.54 1443.35 653.97
00008611 00000059 1086.85 88.28 520.10 767.12 1204.85 395.03 1444.32 377.58 1317.77 537.14 1240.32 665.27 1448.48 650.10
00008612 00000060 1082.84 87.32 521.04 765.69 1202.44 396.42 1443.07 378.58 1316.70 538.58 1238.68 666.16 1447.33 650.58
00008613 00000061 1079.63 86.74 521.59 764.83 1198.27 398.18 1442.22 378.98 1314.98 540.55 1237.02 670.90 1445.13 654.40
00008614 00000062 1075.94 86.21 524.34 773.40 1193.29 399.79 1439.49 379.39 1310.91 541.35 1232.30 675.40 1442.81 658.05
00008615 00000063 1072.99 88.88 526.08 775.51 1195.28 396.46 1435.46 379.51 1309.48 538.39 1234.36 673.32 1435.09 659.10
00008616 00000064 1070.96 89.27 526.71 771.53 1194.23 396.09 1433.06 378.60 1308.20 537.07 1234.71 672.17 1433.42 657.41
00008617 00000065 1073.38 87.41 524.40 762.48 1192.41 398.32 1434.50 377.74 1308.90 538.90 1232.65 669.96 1438.96 652.34
00008618 00000066 1073.89 89.13 523.32 759.71 1191.80 397.64 1434.70 377.98 1307.79 539.87 1232.17 669.47 1437.63 652.67
00008619 00000067 1074.15 89.91 521.89 760.43 1191.39 398.65 1435.79 378.89 1308.59 542.04 1232.07 672.87 1438.56 656.10
00008620 00000068 1072.46 89.69 522.72 761.31 1191.63 399.58 1434.82 379.55 1309.00 541.81 1234.96 675.84 1435.77 659.01
00008621 00000069 1071.82 89.44 522.06 761.44 1191.38 398.92 1433.60 379.03 1308.12 540.77 1234.66 675.72 1433.72 659.10
00008622 00000070 1071.46 89.20 522.43 763.17 1190.73 398.38 1432.71 378.47 1307.35 539.35 1234.41 675.41 1432.55 658.76
00008623 00000071 1073.00 88.96 522.51 763.31 1192.99 397.21 1432.97 378.22 1307.92 537.76 1235.75 674.22 1432.31 658.30
00008624 00000072 1072.81 86.66 523.05 763.42 1193.72 397.72 1433.18 377.82 1308.80 535.79 1236.48 673.10 1432.46 656.42
00008625 00000073 1073.96 84.64 523.91 767.15 1195.23 396.66 1434.05 377.63 1309.15 535.43 1237.50 671.78 1432.92 655.80
00008626 00000074 1075.28 84.41 524.16 767.75 1196.64 396.02 1435.08 377.25 1309.83 534.08 1238.70 671.17 1433.20 655.44
00008627 00000075 1077.69 85.22 523.55 768.34 1197.81 396.85 1437.05 377.33 1311.16 534.50 1240.36 671.81 1436.45 655.40
00008628 00000076 1079.08 85.62 522.42 767.51 1199.20 397.17 1439.20 378.20 1313.79 536.25 1240.80 671.66 1438.27 655.71
00008629 00000077 1079.78 87.10 521.93 766.67 1200.51 396.79 1440.05 378.58 1315.22 537.18 1241.41 671.31 1438.68 656.02
00008630 00000078 1080.28 86.91 522.27 764.96 1200.70 397.48 1440.34 379.43 1315.08 537.56 1241.35 670.65 1439.39 655.41
00008631 00000079 1080.67 87.04 521.37 766.47 1200.02 398.76 1440.18 380.32 1314.45 538.91 1240.69 671.73 1439.53 656.12
00008632 00000080 1079.16 88.15 522.88 766.08 1199.10 398.46 1439.46 380.28 1313.56 539.30 1240.30 671.89 1439.10 656.54
00008633 00000081 1077.13 87.58 524.45 765.87 1197.90 398.53 1439.27 380.00 1313.49 539.82 1239.91 672.41 1439.56 656.76
00008634 00000082 1076.68 86.82 524.18 766.68 1197.16 398.70 1438.73 379.87 1313.17 539.74 1239.13 672.30 1439.73 656.33
00008635 00000083 1076.02 87.71 524.05 765.78 1197.04 398.24 1438.88 379.59 1313.49 540.00 1238.89 672.09 1440.04 656.27
00008636 00000084 1075.38 88.60 524.41 764.44 1197.06 398.47 1438.91 379.76 1313.38 540.00 1238.77 671.89 1439.77 656.07
00008637 00000085 1074.50 89.00 524.37 765.24 1196.33 398.77 1437.85 379.39 1312.79 539.26 1238.39 673.11 1439.30 656.77
00008638 00000086 1073.93 88.96 525.01 765.40 1196.01 398.25 1436.96 378.55 1312.79 538.50 1240.40 673.60 1438.85 657.02
00008639 00000087 1074.85 86.05 525.28 765.75 1195.32 397.90 1437.80 377.47 1313.00 538.90 1239.97 672.15 1441.13 654.83
00008640 00000088 1076.21 84.43 523.68 763.13 1194.78 397.92 1438.28 376.19 1313.41 538.06 1237.51 670.06 1443.34 651.33
00008641 00000089 1075.72 83.46 524.45 765.78 1196.20 396.27 1437.99 375.90 1312.68 534.89 1237.84 668.83 1441.26 651.23
00008642 00000090 1075.10 86.37 523.56 765.52 1196.41 394.92 1438.25 375.02 1313.28 534.00 1239.42 673.42 1437.83 656.54
00008643 00000091 1073.95 88.22 523.19 765.85 1197.88 395.55 1435.50 376.65 1313.58 533.41 1243.84 675.04 1432.42 659.40
00008644 00000092 1073.31 86.15 522.56 768.49 1197.06 395.88 1433.98 377.49 1312.73 534.20 1243.97 676.61 1429.74 661.54
00008645 00000093 1073.91 85.96 521.86 768.44 1196.98 396.60 1434.62 377.91 1313.16 534.96 1243.49 677.21 1430.36 661.95
00008646 00000094 1074.46 88.20 520.97 761.66 1195.79 397.15 1435.69 377.83 1313.96 537.19 1242.58 676.69 1433.12 660.84
00008647 00000095 1075.03 87.84 521.63 761.43 1193.52 398.15 1437.15 378.60 1312.86 540.30 1238.30 675.65 1435.79 659.36
00008648 00000096 1075.32 86.93 522.33 764.87 1194.06 397.74 1436.77 378.70 1311.92 540.54 1237.68 674.09 1437.10 658.06
00008649 00000097 1074.73 85.63 523.92 767.73 1195.72 396.20 1436.83 377.49 1312.56 538.06 1238.96 672.62 1437.65 656.81
00008650 00000098 1073.35 86.98 524.37 766.06 1196.66 395.31 1435.36 377.15 1313.30 536.20 1239.92 671.50 1435.99 656.16
00008651 00000099 1072.29 86.49 524.93 764.84 1195.88 395.53 1434.86 377.55 1312.54 536.12 1238.68 670.35 1434.93 655.13
00008652 00000100 1071.28 86.66 524.89 764.00 1194.44 395.35 1433.12 377.20 1310.53 536.13 1236.80 668.88 1433.63 653.42
00008653 00000101 1069.47 87.74 526.00 762.82 1192.85 395.56 1431.42 377.34 1309.44 535.66 1236.67 669.97 1431.06 654.54
00008654 00000102 1068.19 87.73 525.75 763.29 1191.45 395.84 1430.57 377.54 1308.57 536.23 1235.87 671.44 1429.21 656.04
00008655 00000103 1066.22 88.75 526.48 762.03 1190.77 395.80 1429.65 377.41 1308.04 537.00 1235.87 671.70 1428.42 656.25
00008656 00000104 1065.82 88.42 526.96 761.48 1190.31 394.93 1428.98 376.68 1307.75 536.45 1235.55 670.54 1427.86 655.20
00008657 00000105 1065.40 87.82 526.83 762.85 1190.30 395.27 1428.63 376.71 1307.74 536.55 1235.91 670.99 1427.88 655.36
00008658 00000106 1065.84 88.91 525.47 762.04 1189.43 395.73 1428.71 377.15 1307.47 538.00 1235.05 672.86 1426.20 657.41
00008659 00000107 1066.17 90.17 525.01 758.79 1188.52 396.15 1428.86 377.88 1306.53 539.67 1233.59 672.77 1425.39 657.61
00008660 00000108 1066.71 91.23 524.41 755.29 1188.10 397.19 1428.86 377.91 1307.09 540.34 1234.39 673.54 1426.61 657.58
00008661 00000109 1067.26 90.41 524.85 757.45 1188.64 398.23 1429.12 378.23 1307.16 541.27 1236.28 674.84 1427.94 658.20
00008662 00000110 1068.53 90.17 524.59 756.82 1189.36 398.59 1430.08 378.34 1307.69 541.36 1237.14 674.95 1428.69 658.17
00008663 00000111 1070.86 89.00 523.59 760.66 1191.04 398.39 1431.07 379.00 1307.85 541.32 1237.03 673.69 1429.17 657.59
00008664 00000112 1072.94 90.38 523.12 759.65 1192.57 397.47 1432.20 379.36 1308.15 540.25 1236.25 672.02 1429.28 656.91
00008665 00000113 1074.24 85.47 522.88 766.51 1195.14 396.15 1434.16 379.03 1310.07 537.66 1235.90 669.80 1430.57 655.39
00008666 00000114 1076.40 84.64 521.80 767.03 1197.22 394.53 1435.47 378.06 1311.48 536.18 1236.78 668.56 1430.71 654.79
00008667 00000115 1077.50 84.40 521.54 765.89 1198.26 393.28 1437.26 377.14 1312.78 534.12 1237.57 668.08 1430.77 654.60
00008668 00000116 1080.18 83.83 520.34 766.82 1200.17 392.52 1439.03 377.06 1313.56 533.61 1239.52 668.87 1431.62 656.03
00008669 00000117 1081.56 85.22 520.08 764.82 1202.44 391.59 1441.19 377.99 1314.82 533.66 1240.18 668.32 1431.66 657.09
00008670 00000118 1087.02 85.22 516.76 763.75 1205.00 391.01 1445.12 378.45 1317.89 534.82 1241.16 667.86 1433.79 657.53
00008671 00000119 1095.79 86.84 512.63 761.33 1211.70 388.40 1449.64 377.72 1322.79 533.05 1244.08 664.45 1434.74 655.91
00008672 00000120 1097.71 87.30 514.42 761.28 1217.10 384.35 1453.91 375.85 1328.73 532.34 1248.69 660.52 1438.13 653.82
00008673 00000121 1098.49 84.85 518.27 762.69 1220.60 381.12 1460.06 374.28 1333.03 528.04 1250.97 656.26 1442.76 650.56
00008674 00000122 1100.24 83.33 519.64 762.07 1224.81 378.50 1463.07 373.70 1336.35 526.03 1254.20 651.38 1446.91 647.38
00008675 00000123 1102.97 76.77 518.02 770.52 1226.74 379.24 1465.03 375.68 1337.06 525.48 1254.22 648.26 1452.68 644.89
00008676 00000124 1103.54 83.14 517.61 760.85 1228.78 378.15 1470.34 375.19 1339.06 527.11 1254.57 646.14 1454.15 643.71
00008677 00000125 1104.74 85.39 517.37 756.49 1230.94 379.07 1470.72 375.94 1340.31 526.44 1257.56 645.83 1454.20 643.32
00008678 00000126 1107.51 80.17 517.56 769.20 1232.15 381.21 1467.90 378.19 1341.11 527.90 1259.67 650.71 1453.84 648.37
00008679 00000127 1107.01 85.66 518.04 765.50 1232.55 381.28 1473.16 377.10 1342.99 530.99 1259.39 653.38 1459.38 649.86
00008680 00000128 1108.28 85.78 518.44 765.06 1232.43 384.72 1474.56 379.63 1344.45 533.68 1259.91 656.24 1463.49 651.82
00008681 00000129 1109.47 89.60 516.59 754.08 1232.41 386.83 1476.02 381.86 1346.56 536.23 1262.48 659.93 1463.11 655.71
00008682 00000130 1109.89 88.06 517.80 761.03 1235.46 387.01 1477.06 383.58 1347.11 536.06 1264.68 662.35 1461.50 659.45
00008683 00000131 1111.79 88.40 517.32 761.62 1239.46 387.47 1478.01 385.57 1349.33 535.29 1267.63 661.83 1459.54 660.39
00008684 00000132 1112.90 90.92 515.75 757.28 1239.98 388.31 1478.29 386.49 1349.93 536.67 1269.39 662.28 1459.88 660.87
00008685 00000133 1112.91 93.03 516.03 753.58 1239.21 389.16 1478.06 387.14 1349.38 538.81 1269.22 662.03 1461.47 660.37
00008686 00000134 1114.17 92.65 515.34 752.24 1238.80 389.66 1478.85 387.37 1349.65 541.22 1269.08 663.08 1463.18 661.14
00008687 00000135 1114.46 93.08 515.81 749.78 1237.47 389.87 1480.10 387.02 1350.95 544.05 1269.12 665.72 1465.91 663.26
00008688 00000136 1114.57 93.53 516.00 747.81 1237.29 390.27 1480.48 386.82 1351.89 544.50 1270.31 666.13 1467.54 663.07
00008689 00000137 1114.51 93.52 516.84 747.60 1238.14 390.21 1479.98 386.24 1351.87 541.97 1270.75 664.98 1466.91 661.50
00008690 00000138 1114.77 92.74 517.46 751.67 1239.09 390.37 1479.18 386.26 1350.88 540.00 1270.27 663.78 1465.82 660.25
00008691 00000139 1114.23 92.40 518.93 755.30 1241.93 388.97 1479.86 386.18 1352.91 536.81 1272.71 663.01 1462.92 660.77
00008692 00000140 1113.66 91.26 521.50 762.32 1243.03 388.12 1481.07 385.09 1354.71 536.13 1274.82 664.72 1465.36 662.32
00008693 00000141 1113.33 90.65 522.25 764.52 1243.32 387.78 1481.75 384.22 1356.01 535.52 1275.50 665.61 1467.73 662.66
00008694 00000142 1113.61 90.51 522.30 768.98 1243.40 388.23 1482.10 384.28 1355.84 535.59 1274.02 664.95 1469.79 661.62
00008695 00000143 1113.52 90.94 522.29 772.24 1242.55 388.50 1481.05 384.02 1354.77 536.05 1272.43 664.98 1470.28 661.11
00008696 00000144 1113.03 91.29 521.71 772.71 1241.89 388.94 1481.08 384.87 1353.95 537.64 1271.09 664.36 1471.20 660.71
00008697 00000145 1113.22 91.98 520.44 772.66 1240.97 389.76 1480.99 385.87 1353.01 539.76 1270.20 664.36 1471.56 660.77
00008698 00000146 1112.96 95.00 519.18 769.10 1238.88 390.98 1479.63 386.75 1351.15 541.35 1268.11 665.20 1470.33 661.34
00008699 00000147 1113.22 94.41 518.97 769.32 1238.48 390.91 1479.25 386.51 1350.47 541.24 1267.70 665.05 1469.79 661.09
00008700 00000148 1112.94 94.50 518.61 766.40 1238.55 390.72 1478.87 386.92 1350.43 541.32 1267.47 663.40 1469.47 659.95
00008701 00000149 1112.94 94.91 518.55 763.46 1238.24 390.30 1478.58 386.67 1350.30 540.91 1268.10 662.84 1468.84 659.52
00008702 00000150 1113.12 94.07 518.09 763.50 1238.02 390.29 1478.18 386.72 1349.81 540.87 1267.43 661.98 1468.52 658.76
00008703 00000151 1113.13 93.76 518.29 760.59 1237.02 390.22 1477.04 386.28 1348.20 540.60 1266.81 661.31 1467.38 657.81
00008704 00000152 1113.30 91.62 517.87 759.40 1237.82 389.90 1476.80 385.01 1348.21 536.08 1266.44 658.12 1467.84 653.86
00008705 00000153 1113.45 88.38 517.38 758.43 1238.79 387.55 1476.35 381.61 1348.81 530.75 1266.56 654.42 1467.79 649.20
00008706 00000154 1113.11 87.47 519.75 755.00 1237.82 383.59 1475.87 376.80 1348.25 528.12 1267.17 650.66 1469.29 644.66
00008707 00000155 1113.32 88.31 518.60 750.40 1237.68 380.53 1475.81 372.63 1349.25 523.19 1269.79 648.09 1469.09 641.03
00008708 00000156 1114.18 85.81 517.80 751.96 1238.28 378.66 1476.13 370.87 1348.68 518.54 1269.16 646.13 1468.41 639.23
00008709 00000157 1114.74 81.97 518.18 755.21 1239.38 376.74 1476.51 369.11 1349.00 515.98 1268.89 644.15 1467.78 637.51
00008710 00000158 1115.86 83.40 517.33 753.48 1242.26 374.88 1477.16 367.52 1350.43 511.86 1270.99 642.27 1467.78 635.79
00008711 00000159 1116.72 80.99 518.72 756.17 1244.63 374.39 1479.15 366.47 1353.36 510.37 1273.57 642.97 1469.58 636.04
00008712 00000160 1116.53 79.85 519.73 758.13 1246.09 373.43 1479.27 364.96 1354.48 507.84 1274.65 643.03 1470.07 635.62
00008713 00000161 1118.01 81.02 513.37 754.58 1252.98 381.04 1480.29 375.63 1356.76 505.82 1274.82 638.18 1468.05 633.24
00008714 00000162 1118.23 81.32 512.63 752.89 1255.79 380.45 1480.60 377.12 1358.12 504.97 1275.85 636.12 1467.28 632.92
00008715 00000163 1117.43 81.97 513.99 752.45 1253.18 378.07 1480.56 373.10 1357.08 503.75 1274.70 636.39 1466.62 631.93
