Video ID: 	QEL1UveR6Ps
H: 	1080
W: 	1920
FPS: 	25.0

FRAME INDEX X0 Y0 W H [Landmarks (5 Points)]

00006276 00000000 988.47 153.20 387.46 587.43 1061.18 418.47 1238.17 458.24 1112.85 563.67 1057.43 599.30 1203.72 632.45
00006277 DELETE   993.64 132.15 379.29 587.18 1058.90 394.36 1227.11 429.22 1102.45 528.95 1059.48 580.56 1199.65 609.49
00006278 00000002 990.41 100.47 370.53 595.14 1058.02 373.96 1216.11 402.28 1100.97 494.20 1060.45 558.24 1196.22 579.89
00006279 00000003 983.22 85.32 368.71 587.52 1050.05 353.33 1207.04 378.62 1094.47 476.60 1051.13 538.54 1188.50 557.20
00006280 00000004 975.02 80.07 369.30 585.03 1035.70 341.59 1192.61 358.93 1076.06 462.57 1035.32 531.28 1173.03 544.70
00006281 00000005 972.78 88.16 365.17 559.22 1023.73 336.53 1182.04 346.14 1058.73 454.68 1032.52 520.86 1172.38 528.82
00006282 00000006 968.46 92.04 363.80 551.76 1018.42 335.66 1170.42 340.27 1050.28 444.97 1029.75 517.85 1164.51 521.80
00006283 00000007 962.40 83.26 366.89 569.62 1015.53 336.53 1163.68 338.60 1045.83 442.16 1027.87 523.88 1152.25 525.11
00006284 00000008 957.40 91.25 366.17 561.97 1011.85 339.36 1156.13 342.65 1042.50 443.65 1025.60 527.23 1144.93 529.19
00006285 00000009 947.31 100.58 365.75 555.51 996.09 336.68 1152.58 347.68 1036.81 449.94 1007.15 528.47 1141.60 537.22
00006286 00000010 941.17 97.28 362.59 558.51 988.81 338.96 1146.71 350.45 1029.09 455.20 998.60 530.85 1137.83 539.84
00006287 00000011 935.97 96.34 360.60 560.37 984.11 341.77 1138.11 351.70 1022.41 457.13 993.39 532.07 1133.15 539.79
00006288 00000012 929.80 92.65 361.98 564.60 979.53 346.31 1128.06 351.90 1016.20 454.34 989.90 531.21 1125.68 535.37
00006289 00000013 926.72 98.71 363.94 559.84 976.91 349.51 1122.53 351.13 1012.12 451.68 990.28 530.60 1120.07 531.41
00006290 00000014 923.07 99.87 366.41 557.59 973.35 350.01 1118.09 348.16 1008.72 448.62 989.51 529.31 1118.68 527.10
00006291 00000015 920.84 101.93 362.82 555.82 971.10 350.62 1114.25 349.68 1005.40 448.71 985.44 529.04 1113.47 527.39
00006292 00000016 919.77 99.96 362.09 561.08 969.31 353.00 1113.68 352.70 1004.88 452.40 984.19 531.43 1114.85 530.25
00006293 00000017 920.44 102.77 361.60 560.52 967.77 354.02 1111.73 354.27 1002.17 454.65 983.69 532.50 1115.22 531.50
00006294 00000018 919.99 102.89 361.87 561.83 965.91 355.64 1110.43 356.21 999.35 457.54 981.88 534.88 1116.30 534.03
00006295 00000019 919.80 102.41 361.06 563.59 964.78 356.59 1108.22 358.24 998.11 460.78 979.22 537.89 1112.59 537.89
00006296 00000020 920.43 107.59 358.27 560.21 964.49 359.62 1108.13 361.56 998.77 465.99 978.00 540.05 1114.75 540.13
00006297 00000021 918.41 109.47 358.81 561.86 962.52 362.22 1106.62 366.87 998.93 474.94 974.73 543.35 1113.03 545.59
00006298 00000022 914.83 108.72 359.56 565.84 957.81 366.43 1100.52 370.65 993.30 479.78 971.84 546.90 1107.71 548.44
00006299 00000023 912.53 109.12 358.00 568.27 955.68 370.13 1095.82 373.33 989.28 484.41 972.59 548.02 1106.78 548.50
00006300 00000024 908.66 113.00 358.84 564.79 954.00 373.41 1092.41 374.44 988.00 486.43 973.01 548.42 1107.73 547.34
00006301 00000025 903.87 119.02 361.82 561.37 948.95 378.57 1087.16 379.12 982.84 491.04 968.66 551.94 1102.32 550.48
00006302 00000026 899.41 132.23 361.96 550.74 943.21 380.10 1080.76 380.36 976.72 491.50 962.67 555.97 1089.67 553.78
00006303 00000027 898.38 145.65 349.76 541.89 935.05 384.30 1072.97 389.23 961.94 492.63 960.78 557.82 1080.88 561.54
00006304 00000028 892.98 142.38 350.74 549.02 930.09 387.18 1070.96 393.20 957.14 496.07 954.49 563.11 1076.46 567.80
00006305 00000029 882.63 147.32 352.11 545.80 923.52 388.02 1063.07 395.33 951.66 498.51 950.23 564.65 1069.84 570.15
00006306 00000030 873.43 144.48 352.14 547.55 921.05 388.06 1057.50 398.07 948.22 495.24 946.24 558.81 1065.26 566.02
00006307 00000031 866.93 142.35 351.78 548.46 913.13 387.55 1048.12 396.80 943.09 494.20 941.50 557.52 1058.86 563.63
00006308 00000032 862.90 143.12 348.95 546.96 909.45 390.32 1041.27 396.59 941.41 491.81 939.59 556.36 1053.91 559.87
00006309 00000033 860.07 148.02 348.07 542.47 906.93 392.64 1037.44 396.44 940.32 492.04 939.42 555.76 1053.82 557.04
00006310 00000034 860.10 145.62 347.17 543.98 907.54 391.87 1037.49 395.33 941.65 490.17 940.17 554.92 1054.32 555.85
00006311 00000035 861.73 142.76 345.87 544.44 909.43 389.94 1039.16 393.54 943.45 487.86 942.03 554.30 1054.55 555.39
00006312 00000036 862.76 144.13 345.45 539.42 912.32 389.13 1042.17 392.39 946.48 486.85 943.07 552.24 1055.90 553.16
00006313 00000037 865.30 141.53 343.29 539.45 914.49 385.73 1044.28 389.57 948.12 484.17 944.80 551.05 1056.45 552.40
00006314 00000038 867.63 139.09 341.46 541.35 916.16 383.67 1046.17 388.92 949.32 484.16 946.81 550.84 1057.84 553.35
00006315 00000039 869.49 138.28 341.88 541.30 918.40 382.15 1048.55 387.26 951.44 483.08 949.74 551.31 1059.44 553.86
00006316 00000040 875.72 133.81 342.88 543.09 923.01 378.16 1052.31 383.10 953.04 481.39 954.80 552.19 1060.41 555.14
00006317 00000041 883.49 133.43 342.32 539.27 927.67 376.13 1056.30 379.76 957.41 480.30 959.98 551.23 1063.16 553.68
00006318 00000042 892.26 137.24 344.26 535.86 932.41 379.63 1062.85 372.45 969.58 485.15 965.44 562.30 1072.91 554.27
00006319 00000043 897.93 139.53 347.30 530.03 938.98 377.55 1069.01 372.76 976.53 485.96 971.67 560.54 1077.33 554.52
00006320 00000044 906.15 130.36 343.05 538.60 947.18 376.94 1073.86 377.46 982.56 488.66 974.62 556.92 1080.37 555.33
00006321 00000045 911.47 134.55 341.80 533.40 953.13 384.42 1078.49 383.23 987.72 491.47 977.31 557.75 1084.98 554.89
00006322 00000046 916.50 133.90 338.25 535.90 956.78 390.04 1084.57 388.48 993.56 494.21 976.99 559.64 1088.74 556.69
00006323 00000047 922.92 135.63 332.14 533.71 957.72 399.28 1090.42 395.58 997.17 495.21 980.25 564.63 1093.65 560.23
00006324 00000048 925.37 131.05 332.09 539.63 960.03 402.54 1094.30 397.48 1002.13 497.17 983.47 565.69 1098.74 560.52
00006325 DELETE   924.77 136.40 332.87 534.02 961.79 399.67 1094.93 394.38 1004.23 496.68 984.69 564.33 1101.36 558.62
00006326 DELETE   925.81 133.17 333.82 537.47 964.01 393.41 1097.63 392.72 1006.95 493.70 984.67 559.58 1101.14 557.60
00006327 DELETE   925.34 134.01 335.50 532.88 967.25 384.25 1099.86 386.66 1010.09 490.50 988.22 555.33 1103.00 555.58
00006328 00000052 928.25 132.45 337.04 529.30 970.52 376.43 1103.54 379.79 1013.65 486.29 992.42 552.09 1105.78 553.36
00006329 00000053 929.31 117.55 339.56 540.91 975.01 367.89 1107.90 372.17 1014.09 479.78 992.33 546.01 1108.02 548.43
00006330 00000054 930.66 110.53 338.42 542.53 978.17 360.82 1112.70 366.98 1015.82 473.96 995.22 540.08 1111.70 544.06
00006331 00000055 932.78 113.26 339.39 539.42 980.78 361.60 1117.14 366.44 1018.07 471.52 997.96 538.71 1117.58 541.64
00006332 00000056 935.46 111.95 340.04 537.70 981.93 359.39 1120.41 364.42 1019.21 470.03 999.00 536.62 1121.59 539.70
00006333 00000057 937.42 115.64 339.67 528.92 981.74 357.80 1121.71 361.38 1018.88 465.65 1000.82 533.67 1123.64 535.44
00006334 00000058 937.42 111.74 340.38 531.59 981.68 355.99 1122.64 358.97 1019.45 463.00 1001.09 532.18 1125.07 533.46
00006335 00000059 939.34 113.98 339.85 530.53 983.14 357.70 1123.97 360.86 1021.34 465.22 1001.79 535.04 1125.57 536.48
00006336 00000060 940.36 114.21 338.60 529.71 983.70 358.78 1122.85 363.09 1020.95 467.91 1001.04 538.10 1123.48 540.49
00006337 00000061 937.78 110.10 338.14 532.74 980.01 356.71 1120.02 362.07 1016.68 468.38 995.37 537.61 1120.04 541.11
00006338 00000062 932.08 108.92 340.21 536.99 976.10 358.44 1112.44 363.76 1012.97 470.55 991.48 539.08 1112.54 542.54
00006339 00000063 929.13 104.63 338.75 538.37 970.44 356.92 1105.78 362.77 1005.58 465.87 983.19 534.48 1104.11 538.15
00006340 00000064 923.51 105.63 339.17 541.35 965.23 357.76 1100.06 362.24 998.78 465.89 977.91 535.14 1099.46 537.30
00006341 00000065 919.30 107.41 341.07 542.68 961.05 360.18 1091.69 362.52 991.74 465.97 975.34 535.67 1094.68 535.68
00006342 00000066 912.55 111.72 343.71 538.04 957.82 359.73 1084.54 360.02 984.27 461.74 974.87 531.39 1092.44 529.44
00006343 00000067 905.42 111.47 348.22 542.01 953.02 356.26 1079.57 359.01 978.87 463.30 972.50 531.22 1088.82 531.04
00006344 00000068 898.81 118.75 350.59 533.90 945.23 354.97 1073.69 358.35 971.97 464.25 963.81 535.25 1078.67 535.92
00006345 00000069 888.27 121.90 344.71 533.48 925.55 361.41 1066.48 365.82 962.58 472.40 946.33 542.61 1072.00 544.28
00006346 00000070 882.03 123.93 338.67 541.85 918.36 369.44 1055.23 372.67 952.17 479.64 938.94 547.93 1060.66 548.95
00006347 00000071 874.35 125.98 346.34 541.06 920.55 367.76 1054.19 374.04 948.39 473.56 946.99 544.57 1057.53 548.51
00006348 00000072 867.10 129.10 344.08 542.01 907.99 377.81 1043.93 378.80 944.78 486.93 930.78 551.84 1054.31 551.32
00006349 00000073 869.41 139.85 345.55 531.24 915.76 376.30 1046.73 384.30 945.01 480.83 944.80 548.95 1051.91 553.65
00006350 00000074 867.97 145.85 344.91 526.19 913.80 378.92 1045.91 387.84 945.36 483.79 942.19 550.99 1048.93 556.40
00006351 00000075 865.93 147.09 343.83 525.72 910.64 381.81 1042.27 389.07 943.22 483.90 938.81 552.71 1045.48 556.69
00006352 00000076 860.08 145.52 346.16 528.59 903.46 381.57 1035.22 388.53 935.55 482.03 931.53 551.07 1039.98 554.58
00006353 00000077 852.56 138.88 343.11 537.90 888.93 391.67 1023.14 390.45 929.16 495.98 911.02 559.45 1031.11 557.19
00006354 DELETE   846.57 138.39 343.11 539.84 885.18 391.54 1014.89 389.83 918.34 496.14 906.07 558.68 1025.61 555.44
00006355 00000079 836.04 135.24 347.72 547.03 877.71 385.01 1008.23 386.50 908.52 496.68 899.36 556.63 1020.79 555.45
00006356 00000080 828.57 139.95 351.16 542.91 869.35 383.17 1001.96 382.84 899.94 494.53 892.44 557.35 1016.13 554.04
00006357 00000081 825.06 147.51 345.57 533.62 860.69 382.89 996.26 386.58 884.80 486.82 886.62 553.59 1004.38 556.40
00006358 00000082 820.40 144.33 344.77 534.84 855.91 381.36 990.77 384.99 880.46 485.68 883.46 554.10 998.37 556.52
00006359 00000083 812.68 138.56 348.51 539.85 852.86 377.70 985.67 382.32 875.10 482.52 881.34 550.49 995.62 553.52
00006360 00000084 807.51 131.65 351.74 542.79 848.52 372.83 982.52 376.92 870.44 477.50 877.33 549.22 990.56 551.56
00006361 00000085 805.15 119.72 353.19 551.37 847.03 367.13 981.54 370.74 868.50 471.33 874.36 547.81 986.33 549.63
00006362 00000086 801.82 109.42 352.19 563.13 838.10 366.90 974.72 369.92 865.85 476.43 859.68 552.86 980.49 553.85
00006363 00000087 801.33 109.71 354.36 563.17 837.49 366.00 972.60 368.16 864.99 476.46 859.48 552.00 978.92 552.36
00006364 00000088 800.93 110.87 353.87 562.65 837.36 365.64 971.57 367.85 863.12 475.58 859.32 551.14 977.52 551.51
00006365 00000089 800.11 112.96 353.83 562.42 837.31 367.88 970.30 368.14 862.64 475.91 861.60 551.56 977.66 550.29
00006366 00000090 801.36 118.36 355.50 558.61 845.88 366.04 974.23 368.44 862.61 470.49 874.45 547.80 982.48 548.48
00006367 00000091 798.92 123.72 356.61 556.92 844.50 370.55 971.44 372.88 862.02 473.82 874.86 549.53 983.00 549.95
00006368 00000092 799.27 125.72 356.12 557.85 845.14 372.08 969.98 374.16 861.54 474.48 876.05 550.20 983.43 550.56
00006369 00000093 800.01 126.35 355.33 558.86 846.03 371.93 970.54 375.07 862.72 475.22 875.89 551.12 982.34 552.42
00006370 00000094 798.55 125.73 355.93 560.34 845.06 373.99 969.74 376.43 862.21 475.23 875.14 552.43 981.87 553.17
00006371 00000095 798.30 126.64 355.71 556.27 844.03 372.55 969.78 376.23 861.20 475.49 874.45 552.28 980.16 553.98
00006372 00000096 798.14 122.53 354.09 557.01 835.32 374.80 967.14 377.49 861.59 485.10 860.51 555.29 977.84 555.88
00006373 00000097 802.62 121.56 352.99 556.42 839.22 372.03 970.95 374.95 863.54 485.16 864.94 555.51 981.87 556.02
00006374 00000098 808.01 125.40 356.80 552.58 849.92 367.99 980.47 373.69 867.74 475.87 877.37 549.83 986.04 553.25
00006375 00000099 814.47 125.44 354.24 552.97 853.10 370.33 983.55 373.37 872.02 477.43 882.31 550.66 992.66 552.10
00006376 00000100 818.64 121.46 348.22 554.29 853.42 368.50 987.82 372.65 879.80 483.91 878.81 553.95 999.28 554.57
00006377 00000101 818.29 123.07 349.29 550.22 853.32 365.09 988.70 369.64 881.02 481.71 878.58 551.63 997.66 552.68
00006378 00000102 818.84 119.29 347.53 549.83 855.12 360.67 990.77 365.79 882.83 476.38 881.18 548.03 998.12 549.51
00006379 00000103 824.12 118.57 352.02 540.59 868.33 355.60 989.45 357.44 889.06 464.99 895.96 538.91 998.91 537.94
00006380 00000104 824.85 116.10 352.39 541.11 869.07 353.49 989.79 354.73 889.39 463.22 896.52 536.43 1000.97 534.96
00006381 00000105 825.00 117.18 352.22 539.71 869.38 353.33 989.87 354.85 889.51 462.67 896.10 536.04 1000.42 534.82
00006382 00000106 825.75 120.09 350.38 537.17 870.43 354.05 991.04 356.37 890.27 462.93 896.70 535.95 1000.86 535.32
00006383 00000107 826.50 116.00 351.61 545.84 872.16 354.85 993.89 359.67 894.28 469.87 898.84 537.58 1005.35 538.75
00006384 00000108 826.71 116.83 353.79 548.60 873.64 357.38 997.24 362.34 897.30 473.11 899.89 539.51 1009.66 540.75
00006385 00000109 828.56 115.96 354.12 549.90 876.74 358.23 999.69 364.63 899.01 474.71 900.55 538.21 1012.19 540.68
00006386 00000110 829.64 119.05 354.12 546.98 876.88 357.34 1003.28 365.10 901.91 478.48 899.91 538.21 1013.74 542.01
00006387 00000111 829.94 112.99 355.49 555.49 876.57 359.19 1003.94 365.76 902.64 481.67 899.62 539.71 1016.99 542.38
00006388 00000112 830.87 119.84 351.69 551.87 875.17 364.32 1006.23 371.45 904.65 487.91 899.26 542.94 1021.05 546.04
00006389 00000113 833.73 123.64 348.76 552.56 874.90 373.40 1008.24 380.78 906.27 495.73 897.73 549.31 1021.85 552.62
00006390 00000114 835.65 129.15 343.79 551.59 875.21 380.96 1006.46 390.00 904.92 504.98 895.80 553.90 1019.42 558.33
00006391 00000115 843.08 141.87 335.35 541.12 873.52 378.19 1009.24 398.54 899.37 508.13 902.34 551.96 1023.64 565.32
00006392 00000116 842.16 146.27 338.91 537.59 872.21 382.03 1008.13 401.65 898.96 511.19 901.90 556.42 1020.32 569.11
00006393 00000117 843.16 148.18 337.64 536.37 873.10 383.05 1009.20 401.81 901.09 511.64 903.65 556.98 1022.10 569.09
00006394 00000118 841.23 139.74 341.77 537.95 878.73 394.75 1008.22 403.51 909.63 512.70 900.02 560.80 1019.71 565.63
00006395 00000119 844.49 136.80 340.80 541.05 881.24 394.39 1009.21 402.66 911.73 511.40 901.59 561.45 1020.56 565.95
00006396 00000120 848.47 137.03 338.89 540.31 883.75 396.07 1012.47 402.53 916.56 511.29 903.98 562.21 1023.99 565.51
00006397 00000121 853.41 135.15 336.68 546.80 887.15 385.01 1022.87 398.26 920.49 502.34 918.77 558.08 1033.66 566.21
00006398 00000122 853.19 137.18 336.85 544.52 889.29 388.51 1025.24 400.92 923.97 502.79 920.59 558.26 1035.43 565.82
00006399 00000123 853.94 144.18 336.47 535.83 890.07 389.03 1026.15 402.05 925.44 502.66 921.08 557.71 1034.97 565.91
00006400 00000124 856.23 153.99 334.29 529.73 892.46 390.87 1027.47 403.11 927.58 501.70 923.02 558.47 1035.88 566.32
00006401 00000125 857.30 153.17 334.77 528.65 894.88 391.10 1030.14 403.39 930.86 501.43 925.94 557.58 1039.28 565.61
00006402 00000126 859.39 155.44 333.61 525.78 898.96 391.41 1031.93 402.42 934.83 498.00 930.13 554.90 1042.05 562.05
00006403 00000127 856.84 175.84 338.88 499.36 901.02 390.40 1039.49 391.43 938.08 504.14 925.27 554.12 1048.23 554.56
00006404 00000128 862.37 167.74 338.06 505.91 906.05 384.42 1045.74 385.22 943.62 499.15 927.96 550.93 1052.94 551.58
00006405 00000129 868.30 159.61 335.26 506.96 910.60 376.52 1049.02 380.86 945.27 494.43 930.53 545.84 1054.56 549.49
00006406 00000130 870.70 156.39 335.13 508.50 913.84 372.89 1051.18 377.14 947.55 490.47 933.27 543.48 1057.42 547.06
00006407 00000131 870.65 149.56 331.90 514.70 918.09 368.75 1052.32 377.78 951.41 485.58 937.91 537.10 1059.92 541.17
00006408 00000132 870.36 141.72 331.41 521.25 912.58 368.23 1052.53 379.91 950.59 489.25 926.96 538.47 1060.08 546.61
00006409 00000133 869.51 139.18 337.80 517.31 919.35 365.35 1050.69 380.13 950.08 475.90 943.24 530.13 1057.45 540.36
00006410 00000134 867.50 135.62 338.22 520.62 916.59 366.49 1049.80 380.34 948.34 476.61 939.66 531.11 1057.38 540.52
00006411 00000135 864.10 130.04 339.00 525.17 906.37 368.74 1046.52 377.32 945.31 487.92 919.96 535.54 1059.05 541.13
00006412 00000136 860.82 122.89 342.80 525.19 903.85 359.98 1042.69 371.26 937.11 480.50 913.48 526.82 1054.07 534.59
00006413 00000137 856.06 113.45 344.28 526.92 901.06 348.11 1043.29 359.23 934.02 466.71 907.55 511.91 1051.09 519.60
00006414 00000138 857.59 99.38 349.94 533.74 900.93 337.26 1044.54 350.29 933.51 446.01 922.15 493.42 1049.93 502.83
00006415 00000139 856.75 91.03 347.16 538.28 898.23 330.96 1039.76 341.01 930.56 435.69 922.82 489.71 1049.62 496.29
00006416 00000140 854.35 91.85 345.32 537.19 894.32 330.71 1037.20 340.10 927.02 434.14 917.37 488.06 1047.38 493.80
00006417 00000141 851.60 92.11 345.81 535.18 888.93 332.21 1031.05 340.22 921.40 435.03 913.64 488.42 1043.97 492.87
00006418 00000142 845.50 95.33 347.96 532.49 883.01 339.18 1023.98 339.03 915.00 444.74 905.60 501.11 1044.31 501.03
00006419 00000143 841.67 96.55 349.92 528.63 878.02 341.58 1018.38 339.21 911.76 445.07 903.57 502.57 1040.57 500.99
00006420 00000144 825.13 105.28 356.85 524.01 875.46 339.80 1014.11 342.11 910.26 447.97 894.74 500.32 1027.96 500.22
00006421 00000145 827.86 119.65 351.01 502.93 870.28 345.43 1003.88 345.84 898.03 445.51 896.12 499.66 1023.59 498.97
00006422 00000146 824.79 123.84 350.90 504.94 866.63 348.73 997.10 348.07 890.93 444.65 894.99 505.16 1018.15 503.52
00006423 00000147 817.27 124.54 352.42 512.17 857.70 353.68 987.39 350.79 881.31 450.07 889.30 511.14 1012.91 507.34
00006424 00000148 805.64 106.51 357.32 542.02 848.17 356.77 988.81 350.52 881.73 456.38 875.58 522.92 1014.87 515.11
00006425 00000149 803.17 109.52 354.37 547.70 843.98 357.75 984.70 357.35 874.60 464.45 869.90 526.48 1009.82 523.55
00006426 00000150 798.42 118.05 356.38 541.62 839.04 360.31 981.54 360.43 869.31 467.07 864.16 527.94 1006.31 525.61
00006427 00000151 794.78 113.22 360.03 546.36 836.44 358.10 979.45 359.65 867.71 467.24 859.49 526.94 1004.48 525.92
00006428 00000152 790.13 112.64 363.83 546.60 832.71 357.42 975.92 358.82 865.02 466.76 855.85 527.60 999.43 526.68
00006429 00000153 785.02 113.64 366.29 546.43 827.78 359.32 969.77 359.99 858.16 466.24 849.88 527.13 991.47 525.84
00006430 00000154 782.30 114.23 367.91 546.87 824.73 359.81 966.38 359.10 854.32 465.31 846.99 528.43 988.23 526.14
00006431 00000155 779.98 117.08 368.60 549.34 822.44 366.56 962.88 365.43 854.85 470.09 844.04 532.84 985.06 530.09
00006432 00000156 776.82 119.54 368.09 551.90 820.83 375.65 960.67 371.90 857.47 477.51 844.56 539.10 984.34 534.39
00006433 00000157 777.20 123.20 363.91 551.64 819.45 383.62 955.58 376.89 857.60 486.58 849.04 545.54 985.15 538.16
00006434 00000158 775.93 124.66 363.30 555.36 816.14 390.71 953.69 381.96 854.64 497.17 847.42 550.01 989.05 540.66
00006435 00000159 777.10 135.32 359.00 545.39 816.79 390.58 952.34 383.96 848.11 491.33 862.02 551.40 992.01 542.85
00006436 00000160 778.48 136.81 361.12 548.20 818.68 392.06 951.49 386.49 847.15 492.28 863.24 554.11 989.79 546.53
00006437 00000161 780.72 133.23 362.21 552.38 822.52 391.87 954.72 386.74 850.40 490.06 864.77 554.63 988.93 547.59
00006438 00000162 781.30 126.60 365.26 554.91 819.65 392.13 956.20 385.15 859.24 493.71 850.78 557.12 981.69 549.80
00006439 00000163 782.68 121.13 368.40 556.10 822.71 383.29 960.06 380.28 862.59 487.81 850.87 552.32 981.62 548.36
00006440 00000164 785.03 117.02 370.91 554.35 826.77 373.17 967.13 373.03 862.77 479.84 850.15 545.66 983.41 543.95
00006441 00000165 788.54 110.21 370.20 558.81 829.76 369.14 970.70 369.26 864.10 476.22 852.38 542.99 986.58 541.47
00006442 00000166 794.66 105.79 370.05 560.92 835.31 364.29 979.00 365.82 869.37 470.42 856.31 540.07 991.15 539.96
00006443 00000167 798.36 110.83 368.37 558.14 839.81 364.13 984.67 366.48 873.94 474.29 861.75 540.82 998.80 541.15
00006444 00000168 800.13 107.31 366.82 565.24 841.94 366.78 985.87 369.50 876.91 479.85 864.99 543.75 1000.53 544.22
