Video ID: 	Jd8aeZQSz24
H: 	1080
W: 	1920
FPS: 	25.0

FRAME INDEX X0 Y0 W H [Landmarks (5 Points)]

00011300 00000000 801.21 345.70 389.41 516.94 916.33 514.44 1082.59 520.70 998.52 644.93 933.92 720.81 1054.44 726.20
00011301 00000001 802.83 335.22 387.66 518.81 917.65 508.22 1079.99 516.19 998.81 637.70 935.69 713.75 1052.46 720.05
00011302 00000002 806.10 322.72 383.20 522.25 917.35 498.32 1081.07 506.30 1000.72 624.13 935.99 704.96 1054.59 710.95
00011303 00000003 805.82 316.55 380.62 514.64 912.23 487.88 1080.65 492.03 1000.78 609.12 934.29 695.46 1052.45 698.33
00011304 00000004 804.81 306.37 383.29 519.60 909.73 477.30 1079.21 480.21 998.85 601.72 932.12 684.15 1052.11 685.68
00011305 00000005 802.32 286.71 385.27 527.92 909.57 466.72 1081.26 469.79 999.47 584.68 929.01 670.95 1055.07 673.25
00011306 00000006 803.39 280.91 379.82 517.57 918.98 455.67 1082.30 462.64 1001.62 571.06 934.54 655.67 1059.75 661.92
00011307 DELETE   802.31 273.75 381.26 511.20 915.80 449.75 1078.22 456.01 998.56 562.11 933.78 645.58 1056.64 651.29
00011308 00000008 804.09 254.23 381.79 523.59 914.50 441.66 1076.70 448.42 997.54 548.38 933.29 637.96 1055.47 643.61
00011309 00000009 803.51 248.57 382.40 518.75 910.52 428.94 1079.14 433.49 999.49 532.10 932.11 628.23 1059.13 631.79
00011310 00000010 802.81 241.55 382.05 517.22 908.94 421.95 1075.27 424.37 998.11 526.10 930.90 621.38 1054.56 623.47
00011311 00000011 801.17 233.37 383.68 518.45 907.30 417.15 1075.04 419.34 997.09 522.98 928.26 616.29 1052.35 617.94
00011312 00000012 800.36 228.54 384.67 519.43 907.00 411.07 1073.32 412.42 996.49 517.37 929.75 610.05 1051.92 610.85
00011313 00000013 801.97 218.37 381.50 524.79 907.55 403.02 1076.33 404.85 997.39 507.42 928.22 601.73 1054.21 603.33
00011314 00000014 803.82 214.01 379.44 517.60 913.25 392.71 1085.40 398.87 1001.84 495.12 931.62 589.81 1067.00 596.03
00011315 00000015 805.72 208.78 377.80 513.72 917.82 384.83 1086.41 390.38 1007.27 491.16 937.64 583.22 1067.77 588.70
00011316 00000016 807.57 206.99 378.60 509.34 919.88 379.63 1087.14 384.52 1010.16 485.29 940.13 578.49 1068.48 583.29
00011317 00000017 808.78 206.10 379.17 510.13 922.45 376.49 1088.03 381.95 1012.42 484.09 941.39 575.96 1069.72 581.01
00011318 00000018 811.35 199.23 379.95 513.84 923.57 376.36 1089.98 379.56 1016.34 479.61 945.00 575.37 1074.37 578.48
00011319 00000019 813.54 198.43 379.76 512.43 924.36 375.23 1089.53 377.02 1016.47 476.63 946.94 574.02 1075.11 575.81
00011320 00000020 814.33 196.08 381.67 513.61 925.77 373.41 1091.81 374.55 1018.83 473.92 949.52 573.09 1078.99 573.91
00011321 00000021 816.52 194.31 381.37 514.41 927.34 372.61 1092.98 372.73 1021.00 470.82 951.05 571.87 1081.59 571.75
00011322 00000022 818.60 191.04 380.89 517.96 931.24 370.50 1095.08 370.76 1027.11 469.81 954.86 569.92 1084.27 569.98
00011323 00000023 821.22 183.54 380.65 522.94 934.00 368.52 1095.74 368.94 1031.16 467.43 957.36 565.82 1087.21 565.95
00011324 00000024 822.10 186.10 380.03 520.81 934.96 367.63 1095.92 367.63 1031.56 465.27 957.80 564.60 1087.74 564.44
00011325 00000025 820.86 184.11 380.77 522.51 933.49 366.18 1094.39 366.12 1030.20 465.04 957.01 563.86 1085.85 563.54
00011326 00000026 820.23 184.40 378.69 521.83 931.47 365.27 1093.20 364.96 1028.09 463.16 954.89 563.21 1084.45 562.78
00011327 00000027 820.14 184.99 375.12 519.50 932.15 374.59 1088.76 375.20 1026.16 464.54 952.42 561.67 1084.48 562.31
00011328 00000028 817.17 184.58 374.20 518.23 928.27 376.04 1085.70 375.48 1021.98 464.87 950.57 563.07 1081.99 562.76
00011329 00000029 811.46 178.09 376.23 523.47 921.66 372.24 1081.82 370.59 1016.15 461.79 946.39 563.31 1077.02 562.08
00011330 00000030 805.30 177.54 379.74 525.18 914.88 369.89 1078.48 367.18 1009.78 464.43 942.00 564.38 1071.26 562.08
00011331 00000031 802.47 178.31 378.21 523.37 912.83 367.11 1075.59 365.30 1005.62 466.77 939.02 563.27 1066.10 561.70
00011332 00000032 800.67 177.02 375.40 519.48 908.03 364.40 1069.81 361.27 999.94 463.44 934.37 559.16 1060.73 556.83
00011333 00000033 798.51 176.34 374.14 517.08 904.83 359.56 1065.48 357.20 995.78 458.48 930.80 554.60 1055.05 553.27
00011334 00000034 794.79 178.68 374.45 510.50 899.79 354.66 1062.54 353.36 992.11 455.20 926.55 550.97 1050.46 550.48
00011335 00000035 791.28 174.86 375.35 510.36 896.12 350.59 1061.95 349.99 989.58 451.29 922.85 548.45 1046.96 548.38
00011336 00000036 787.91 174.25 376.98 507.81 893.88 349.26 1060.57 348.32 988.69 449.38 921.32 546.56 1046.61 546.03
00011337 00000037 783.33 170.55 379.12 511.93 891.17 348.10 1057.06 346.00 987.33 446.37 921.23 546.64 1046.16 544.94
00011338 00000038 779.68 169.82 380.82 512.73 888.39 348.70 1055.11 346.50 984.91 444.65 919.17 545.67 1045.33 543.66
00011339 00000039 776.71 170.40 381.47 511.54 885.63 347.80 1052.30 345.59 982.61 442.78 918.25 544.67 1044.30 542.40
00011340 00000040 774.07 169.46 382.43 513.68 883.97 347.46 1050.41 345.15 981.33 442.49 916.93 544.88 1043.29 542.57
00011341 00000041 772.88 168.58 382.45 515.01 882.87 347.29 1048.95 344.78 980.38 442.58 916.19 545.31 1042.90 542.72
00011342 00000042 772.11 168.06 382.21 515.80 882.82 347.39 1048.52 345.05 981.09 442.77 916.38 545.72 1043.05 543.34
00011343 00000043 771.88 169.16 382.84 515.88 882.30 347.37 1048.95 345.01 980.12 442.64 915.72 546.13 1042.68 543.69
00011344 00000044 773.23 170.24 382.08 515.39 882.89 347.28 1050.82 345.03 980.35 443.27 915.55 546.91 1043.61 544.46
00011345 00000045 773.77 171.63 382.79 514.34 883.21 348.08 1051.80 345.52 980.91 444.62 916.30 547.96 1043.99 545.25
00011346 00000046 775.19 172.10 382.07 513.24 884.69 348.97 1053.12 346.28 982.54 445.71 917.74 548.46 1044.73 545.77
00011347 00000047 778.77 173.97 381.01 510.06 887.09 351.43 1055.22 347.85 983.49 449.06 919.36 549.40 1045.25 546.09
00011348 00000048 782.58 175.30 378.58 510.87 891.01 353.83 1058.41 351.09 987.25 453.97 921.42 553.33 1046.82 550.90
00011349 00000049 788.61 179.57 374.99 509.18 897.14 360.54 1061.24 359.51 990.76 462.90 924.22 557.42 1048.24 556.95
00011350 00000050 791.90 190.01 374.98 501.27 899.80 370.14 1067.14 370.89 991.86 472.34 924.42 564.09 1052.32 565.35
00011351 00000051 793.34 195.07 376.80 504.95 904.94 376.58 1070.37 379.15 996.07 482.65 927.48 570.10 1055.56 572.96
00011352 00000052 792.34 203.17 383.03 504.95 908.23 380.50 1078.56 384.14 1001.42 487.43 930.29 574.51 1063.16 578.13
00011353 00000053 794.61 211.44 384.43 503.25 913.71 385.08 1083.40 388.27 1008.59 493.98 938.24 580.13 1068.39 583.18
00011354 00000054 798.87 212.96 384.88 509.50 917.38 390.37 1086.93 390.46 1014.71 496.56 943.72 586.66 1075.63 587.22
00011355 00000055 801.84 213.02 385.56 516.87 921.76 397.37 1090.34 396.42 1018.82 507.98 949.97 595.41 1079.82 595.05
00011356 00000056 809.26 214.52 382.25 526.61 919.92 402.61 1093.62 402.66 1022.30 522.00 945.95 605.45 1078.20 604.74
00011357 00000057 815.27 223.51 380.77 527.05 925.45 408.12 1096.16 408.26 1026.93 529.15 949.11 611.22 1082.47 610.57
00011358 00000058 815.22 232.34 380.69 523.87 929.19 416.71 1098.57 419.90 1030.63 541.35 948.77 619.37 1082.02 621.59
00011359 00000059 814.06 241.93 381.73 528.43 938.36 424.87 1093.73 431.96 1029.67 548.99 950.73 627.05 1072.66 632.30
00011360 00000060 813.05 242.90 382.68 538.19 938.21 429.34 1092.16 438.31 1027.41 551.50 949.17 632.98 1070.64 639.92
00011361 00000061 809.52 238.57 388.26 541.12 933.13 433.06 1092.11 442.93 1023.09 558.58 946.12 637.59 1068.11 645.19
00011362 00000062 809.76 251.43 387.19 531.57 930.24 437.25 1095.27 445.90 1020.86 563.19 945.76 645.29 1069.92 652.15
00011363 00000063 806.99 260.95 387.63 524.09 928.99 444.04 1095.71 452.22 1019.36 566.09 946.02 649.67 1067.32 656.53
00011364 00000064 803.60 259.24 388.92 533.42 926.82 447.19 1095.53 455.82 1017.63 570.48 945.97 656.41 1066.76 663.51
00011365 00000065 798.32 257.85 390.98 543.78 925.37 450.47 1093.62 458.40 1016.10 574.27 943.85 661.58 1064.88 667.94
00011366 00000066 795.78 262.69 391.90 545.59 923.82 452.29 1090.11 458.88 1012.16 577.08 939.82 664.68 1061.47 669.87
00011367 00000067 794.45 261.98 391.82 544.46 919.89 452.77 1086.10 458.77 1006.84 579.90 937.94 663.61 1061.23 668.13
00011368 00000068 791.89 266.85 390.37 529.83 913.16 453.26 1078.45 457.79 1000.80 581.42 934.84 660.08 1054.59 664.04
00011369 00000069 790.69 270.45 387.17 523.64 909.76 453.99 1075.03 459.20 996.87 582.09 931.42 658.25 1050.65 663.14
00011370 00000070 789.24 270.53 386.10 532.21 907.77 454.72 1071.09 460.17 992.63 584.57 928.06 661.09 1049.50 665.80
00011371 00000071 786.46 279.25 393.01 536.06 900.76 456.83 1068.33 463.43 989.22 588.17 922.60 664.45 1045.27 669.58
00011372 00000072 786.16 282.27 391.67 536.52 897.72 459.45 1065.51 466.11 987.11 593.26 921.99 668.30 1043.52 673.40
00011373 00000073 785.13 284.82 390.78 535.11 895.46 460.85 1064.50 468.55 986.00 596.65 918.78 669.96 1041.12 675.75
00011374 00000074 783.77 287.19 391.86 532.67 893.48 461.25 1063.29 471.16 984.33 598.51 914.52 669.32 1039.45 676.99
00011375 00000075 780.73 289.97 394.01 531.35 891.68 460.94 1062.74 472.50 982.84 600.14 912.75 668.69 1038.94 677.43
00011376 00000076 778.64 289.58 394.72 530.07 889.56 459.83 1061.82 472.44 980.86 599.71 910.96 667.56 1037.09 676.93
00011377 00000077 775.24 287.89 395.75 529.25 886.02 459.57 1059.98 471.32 978.21 599.80 908.64 667.45 1035.18 675.78
00011378 00000078 772.18 288.06 397.03 528.78 883.02 457.96 1058.31 470.13 976.44 598.72 906.60 666.56 1033.75 675.09
00011379 00000079 771.76 286.69 396.14 527.84 881.38 458.61 1057.59 469.46 975.00 598.22 905.80 667.32 1034.17 674.70
00011380 00000080 772.19 287.20 396.24 528.53 881.29 459.40 1056.85 469.62 974.55 598.30 906.62 668.30 1033.94 675.10
00011381 00000081 773.12 288.85 395.99 524.64 882.09 459.79 1056.46 469.38 974.65 597.48 908.18 667.61 1034.60 673.86
00011382 00000082 774.79 287.38 394.88 527.15 882.72 459.98 1056.36 469.27 974.64 597.24 909.36 668.06 1035.10 674.25
00011383 00000083 770.66 282.42 395.71 531.91 884.01 463.93 1056.06 472.82 973.21 592.95 905.47 668.37 1038.44 676.31
00011384 00000084 778.06 290.41 393.47 522.66 884.80 461.92 1058.45 470.20 976.88 598.87 912.34 668.60 1038.33 673.99
00011385 00000085 779.81 290.30 392.45 522.56 886.36 462.24 1059.61 470.24 978.32 598.26 914.21 669.15 1038.70 674.46
00011386 00000086 780.77 290.04 392.86 522.08 888.56 462.36 1060.78 469.83 980.39 596.90 915.31 667.86 1040.28 672.85
00011387 00000087 782.07 286.55 391.63 523.85 889.88 460.24 1062.13 468.01 982.28 594.85 914.94 665.43 1042.10 670.91
00011388 00000088 784.57 286.07 389.88 523.85 892.63 458.76 1063.38 466.03 982.90 591.55 915.79 663.33 1044.09 668.75
00011389 00000089 786.55 284.69 389.13 523.36 894.71 457.18 1065.99 463.87 985.23 589.56 917.37 662.32 1045.82 667.37
00011390 00000090 787.40 280.04 387.97 525.19 899.54 460.82 1067.67 467.65 986.27 586.02 920.08 661.70 1050.11 668.09
00011391 00000091 790.52 277.20 384.92 526.37 902.87 461.04 1069.14 468.70 988.46 585.47 924.36 662.32 1047.99 669.33
00011392 00000092 791.27 276.21 385.42 529.07 904.14 464.31 1071.22 470.39 991.97 590.80 929.44 667.81 1051.37 673.33
00011393 00000093 792.45 287.42 388.37 524.16 900.78 466.38 1072.23 469.32 995.72 595.46 931.13 674.55 1051.90 676.03
00011394 00000094 794.42 291.63 384.83 521.10 901.27 469.74 1073.78 473.23 996.34 600.02 930.80 678.50 1050.76 680.44
00011395 00000095 795.49 295.62 384.03 524.29 901.80 472.51 1073.45 475.57 996.10 602.52 929.55 682.86 1048.35 684.70
00011396 00000096 796.41 298.22 382.70 522.63 902.15 473.87 1073.85 477.95 996.13 602.44 928.57 684.15 1047.35 686.91
00011397 00000097 797.05 300.11 383.01 525.35 903.41 475.48 1073.38 478.65 997.03 602.24 930.37 685.58 1047.06 687.68
00011398 00000098 796.92 299.04 384.48 527.18 904.30 476.12 1074.92 478.71 998.49 602.61 929.38 685.06 1049.71 686.58
00011399 00000099 797.44 297.64 385.84 527.84 905.11 476.00 1076.17 478.37 999.10 602.51 929.11 684.26 1052.42 685.47
00011400 00000100 797.14 295.28 386.89 529.40 904.34 475.12 1076.63 477.93 998.60 601.70 926.44 682.80 1052.45 684.53
00011401 00000101 796.81 297.12 387.37 529.49 905.19 473.69 1076.95 477.70 998.61 601.31 926.42 680.96 1053.13 683.75
00011402 00000102 797.29 298.47 387.52 527.53 905.97 472.38 1076.66 477.62 997.46 599.89 925.43 677.34 1053.29 681.25
00011403 00000103 796.98 297.70 388.71 530.11 906.85 471.56 1078.24 477.90 998.76 600.33 923.72 675.59 1056.16 680.29
00011404 00000104 796.91 297.91 389.59 530.00 907.70 471.80 1078.72 478.12 999.35 599.38 924.44 676.36 1055.30 680.91
00011405 00000105 797.69 295.16 389.61 531.73 908.78 471.83 1079.85 477.84 1001.53 599.94 925.36 676.05 1056.02 680.53
00011406 00000106 798.07 295.62 389.79 530.01 909.94 472.25 1080.86 478.34 1003.35 600.87 926.44 675.95 1056.47 680.46
00011407 00000107 798.36 295.77 390.19 530.03 910.62 472.34 1081.26 478.38 1004.15 601.28 926.53 675.64 1056.81 680.17
00011408 00000108 798.40 297.25 390.21 527.45 909.84 472.42 1081.07 479.03 1003.08 602.84 925.71 676.26 1055.36 681.41
00011409 00000109 798.65 298.92 389.62 526.75 909.12 472.73 1079.84 479.21 1001.25 601.71 925.12 676.27 1054.96 681.34
00011410 00000110 797.65 302.35 389.23 524.71 906.93 472.34 1077.58 478.93 997.39 601.82 923.38 676.70 1052.21 681.74
00011411 00000111 796.59 301.11 389.03 524.89 903.83 472.01 1074.12 477.63 993.18 600.47 921.29 675.74 1050.42 679.96
00011412 00000112 794.57 298.00 389.39 526.88 902.31 468.92 1070.71 475.29 989.62 599.04 919.05 673.81 1046.54 678.96
00011413 00000113 793.15 298.32 387.74 527.86 899.95 469.14 1066.15 475.42 986.35 598.77 917.18 674.20 1042.03 679.25
00011414 00000114 789.76 295.82 388.21 527.92 895.87 469.23 1061.61 476.51 983.40 598.38 914.26 673.61 1037.05 679.53
00011415 00000115 789.54 297.95 385.73 522.86 892.80 469.13 1060.75 476.81 980.17 599.36 913.23 673.08 1037.54 679.12
00011416 00000116 786.44 297.60 388.03 522.67 890.10 469.47 1058.63 477.71 977.50 599.05 911.69 672.54 1036.39 678.76
00011417 00000117 783.01 297.80 390.14 523.54 888.11 467.64 1056.20 477.26 975.59 599.85 910.21 672.11 1034.55 679.14
00011418 00000118 779.35 299.75 393.08 525.31 885.93 466.02 1054.47 476.11 973.42 600.64 908.33 672.80 1031.89 679.95
00011419 00000119 775.76 296.56 394.80 526.65 882.17 465.13 1052.75 475.35 970.56 600.68 905.12 672.53 1029.36 679.60
00011420 00000120 772.46 295.12 392.82 523.93 878.31 465.51 1048.68 475.40 967.76 599.95 903.65 672.23 1026.85 678.70
00011421 00000121 763.55 287.19 392.31 521.32 878.67 470.42 1047.21 480.85 963.36 598.71 898.75 668.78 1028.22 678.04
00011422 00000122 761.95 281.84 391.47 528.11 876.14 470.11 1044.57 480.46 961.79 599.29 897.78 670.78 1026.85 680.07
00011423 00000123 759.43 284.29 393.36 535.21 872.77 470.17 1041.26 481.06 959.25 598.74 894.76 674.01 1025.20 683.92
00011424 00000124 767.38 294.38 386.79 535.60 870.82 471.41 1036.55 478.55 959.34 597.02 895.32 679.67 1017.42 684.38
00011425 00000125 765.89 296.92 384.38 532.94 869.44 475.61 1033.47 481.62 957.44 596.36 893.15 679.57 1014.80 683.65
00011426 00000126 765.78 295.52 385.25 535.09 868.89 471.82 1032.99 479.02 956.01 595.98 891.32 677.70 1013.56 682.69
00011427 00000127 756.95 285.41 393.02 543.00 868.85 471.88 1034.66 481.90 952.58 595.09 886.16 677.99 1017.37 687.45
00011428 00000128 757.07 284.13 391.98 543.65 867.76 470.79 1033.57 480.70 951.27 594.32 885.11 676.60 1016.18 686.06
00011429 00000129 756.83 283.04 392.00 543.52 867.17 470.19 1033.42 480.20 950.55 593.75 884.92 675.13 1016.86 684.64
00011430 00000130 757.34 283.69 391.43 540.39 866.63 470.15 1033.21 480.12 949.91 592.64 884.25 673.51 1016.89 682.93
00011431 00000131 757.93 283.95 390.43 539.32 866.76 469.83 1033.23 479.77 950.39 592.17 885.45 672.47 1018.37 681.82
00011432 00000132 758.86 282.74 389.76 536.52 868.02 469.85 1034.78 479.41 952.19 593.71 888.00 671.37 1020.64 680.39
00011433 00000133 760.29 282.81 389.14 533.72 869.50 470.43 1036.61 480.07 953.48 594.65 890.34 671.27 1022.27 680.31
00011434 00000134 760.94 283.22 389.58 531.26 870.55 470.63 1038.57 480.51 954.61 595.75 890.72 670.54 1023.73 679.65
00011435 00000135 761.78 283.13 390.07 532.78 872.11 471.68 1039.23 480.58 956.74 595.84 893.83 672.38 1025.73 680.64
00011436 00000136 761.79 283.86 393.35 531.29 873.70 473.34 1041.41 481.06 959.12 597.26 896.30 672.93 1027.49 680.09
00011437 00000137 773.80 289.89 388.31 525.68 873.42 468.94 1042.92 475.51 963.28 599.33 902.82 673.54 1026.76 677.80
00011438 00000138 776.48 291.14 388.25 523.48 875.84 468.80 1045.91 475.57 964.85 599.48 905.43 672.69 1028.81 677.15
00011439 00000139 778.73 289.88 387.06 523.14 878.34 469.89 1047.90 475.08 968.46 600.23 909.99 674.88 1030.26 678.11
00011440 00000140 779.93 290.77 387.69 520.25 879.79 470.08 1049.84 474.71 969.39 599.95 911.67 674.27 1032.05 676.95
00011441 00000141 780.49 290.18 387.54 520.92 880.66 469.79 1050.36 474.08 969.91 600.18 913.03 673.85 1033.50 676.20
00011442 00000142 781.49 292.03 387.12 524.66 881.50 471.30 1050.36 475.11 970.49 600.90 914.61 677.47 1032.26 679.66
00011443 00000143 780.68 293.69 387.26 533.49 883.05 473.28 1049.98 476.86 971.24 599.72 915.06 683.64 1029.74 685.77
00011444 00000144 781.07 294.84 387.56 535.91 883.44 473.61 1051.02 477.31 971.64 599.20 914.71 686.17 1029.47 688.43
00011445 00000145 780.56 294.48 387.73 532.38 882.39 473.31 1050.65 477.27 971.13 599.67 913.34 684.44 1029.69 686.94
00011446 00000146 778.99 294.75 388.62 531.67 880.92 473.14 1049.33 477.85 969.62 600.85 911.47 683.83 1028.21 686.75
00011447 00000147 777.75 295.66 388.35 530.44 879.45 473.50 1047.23 478.41 967.72 601.23 910.66 683.24 1026.86 686.18
00011448 00000148 777.40 295.53 386.56 535.02 878.48 474.95 1044.51 480.28 965.63 600.71 908.37 683.51 1026.57 686.94
00011449 00000149 776.09 298.05 385.97 536.75 877.13 474.95 1042.84 480.67 964.19 600.33 906.42 684.36 1025.78 687.99
00011450 00000150 775.68 301.01 386.82 529.94 875.46 475.89 1043.61 481.21 963.61 601.75 906.01 683.41 1027.61 686.64
00011451 00000151 775.02 305.44 385.39 518.50 874.64 476.88 1044.97 481.72 965.18 604.38 906.72 684.32 1025.73 686.93
00011452 00000152 776.45 312.49 383.31 513.01 875.50 478.51 1047.59 483.53 966.24 607.22 905.76 687.22 1026.32 690.04
00011453 00000153 778.68 315.28 384.14 514.63 878.18 481.80 1049.35 485.79 968.10 611.30 908.17 691.39 1028.36 693.75
00011454 00000154 781.31 316.23 383.58 517.60 880.49 483.95 1050.27 488.00 969.26 614.68 910.34 695.00 1027.85 697.62
00011455 00000155 783.39 317.75 384.09 518.83 883.61 484.78 1053.52 488.88 971.44 616.34 914.61 698.36 1028.81 700.95
00011456 00000156 785.73 314.46 384.70 526.58 887.37 485.50 1056.38 491.40 973.99 614.81 915.51 700.83 1028.62 705.21
00011457 00000157 790.28 315.72 384.65 526.41 894.40 487.78 1061.02 494.69 978.38 614.75 917.86 700.04 1031.00 705.60
00011458 00000158 796.45 319.50 383.10 523.15 901.43 491.18 1065.32 496.24 983.57 618.95 922.89 699.58 1038.34 703.46
00011459 00000159 800.51 316.58 383.27 523.18 905.35 494.62 1071.10 496.25 991.81 620.45 929.17 700.89 1048.47 701.90
00011460 00000160 804.20 315.89 383.31 524.24 912.40 493.66 1078.61 497.59 1001.34 620.70 934.72 701.23 1054.78 703.73
00011461 00000161 805.82 314.41 385.52 525.24 918.00 494.61 1083.15 499.15 1009.17 621.56 939.99 702.11 1059.44 704.94
00011462 00000162 813.79 314.29 383.87 526.01 927.32 502.34 1088.35 508.25 1017.47 623.58 946.93 702.99 1069.22 706.89
00011463 00000163 818.41 317.02 386.44 528.79 935.41 503.40 1092.68 508.96 1024.34 628.22 953.35 705.22 1076.40 708.75
00011464 00000164 824.04 316.96 387.37 529.63 940.64 504.42 1102.39 509.55 1034.97 627.55 959.08 707.35 1087.56 710.83
00011465 00000165 829.70 319.44 392.66 523.62 948.11 499.60 1120.57 508.48 1039.65 632.47 964.44 705.39 1090.69 711.99
00011466 00000166 833.87 319.39 395.38 521.64 956.34 500.18 1130.36 510.08 1047.94 633.68 969.17 706.82 1095.30 714.05
00011467 00000167 840.25 320.33 393.64 520.73 964.52 503.20 1137.33 514.10 1053.58 637.58 971.92 708.15 1097.81 716.60
