Video ID: 	AnW9Zmyb74A
H: 	1080
W: 	1920
FPS: 	25.0

FRAME INDEX X0 Y0 W H [Landmarks (5 Points)]

00000130 00000000 685.09 187.81 371.71 545.02 812.86 447.48 984.54 434.87 922.36 566.60 842.99 642.54 968.34 631.57
00000131 DELETE   684.65 187.24 372.13 546.54 812.85 445.84 985.28 433.44 922.79 566.30 842.86 642.63 968.67 631.84
00000132 DELETE   684.67 187.27 372.31 547.33 813.08 444.95 985.83 432.89 923.07 565.54 842.80 642.30 969.13 631.78
00000133 DELETE   684.80 186.94 372.41 547.84 813.90 443.23 985.76 432.29 923.39 564.58 843.17 641.90 968.50 632.37
00000134 00000004 684.97 186.88 371.95 547.55 814.36 442.52 986.17 431.82 924.13 562.65 842.42 640.40 968.64 631.14
00000135 00000005 685.74 187.91 371.43 550.00 815.49 442.12 986.17 431.79 925.13 562.81 841.98 640.04 968.74 631.11
00000136 DELETE   689.05 189.80 363.80 549.67 822.65 437.10 990.50 431.46 931.99 551.32 847.98 626.47 972.01 623.44
00000137 00000007 686.42 188.47 370.91 550.99 816.01 443.46 985.83 432.77 924.79 563.59 842.50 640.64 969.02 631.29
00000138 00000008 687.27 190.01 370.20 549.58 815.31 444.78 985.02 434.10 923.57 563.67 842.19 640.84 968.69 631.43
00000139 00000009 687.75 189.90 369.47 547.77 814.99 444.89 985.37 435.18 922.84 564.10 840.86 639.97 968.24 631.40
00000140 00000010 687.78 190.43 369.32 548.56 815.25 446.15 985.77 436.10 923.45 565.74 840.48 640.25 969.15 631.44
00000141 00000011 689.91 194.28 362.24 545.51 822.87 443.18 990.05 437.40 931.76 554.98 846.27 627.39 971.86 624.26
00000142 00000012 690.34 195.17 362.72 545.74 822.98 445.02 989.83 438.68 931.95 556.15 846.03 627.64 973.21 623.99
00000143 00000013 690.47 196.67 363.35 544.66 823.24 445.97 990.11 439.17 932.46 557.39 846.52 628.27 973.83 624.26
00000144 00000014 691.17 198.55 363.87 541.59 824.23 446.95 990.55 439.83 933.33 558.15 847.59 628.66 974.11 624.29
00000145 00000015 691.96 198.46 364.90 543.04 825.01 448.03 991.91 441.18 933.80 560.05 847.50 629.98 974.11 625.89
00000146 00000016 692.56 198.33 365.81 545.19 825.84 448.72 992.64 441.99 934.68 561.00 848.52 630.58 975.18 626.55
00000147 00000017 692.54 198.46 368.17 546.80 826.70 448.95 994.81 442.33 936.27 562.02 849.35 631.47 977.25 627.56
00000148 00000018 692.76 197.06 369.83 549.32 827.63 448.54 996.18 442.60 937.30 562.35 849.34 631.96 977.91 628.66
00000149 00000019 692.72 195.71 370.37 549.63 828.41 446.70 997.45 440.84 938.43 560.84 850.48 631.37 978.56 628.22
00000150 00000020 692.85 194.71 370.17 550.34 829.17 445.91 997.70 440.41 939.01 559.73 850.32 631.06 978.03 628.22
00000151 00000021 692.60 194.22 368.41 550.04 827.79 445.52 996.34 439.73 937.48 558.29 849.48 629.70 977.64 626.49
00000152 00000022 692.04 195.14 367.94 555.98 826.56 446.31 993.79 439.83 936.21 559.61 848.27 629.95 978.23 626.15
00000153 00000023 691.03 197.03 366.81 553.96 824.92 448.17 990.87 439.82 934.13 559.49 848.36 629.94 977.52 624.54
00000154 DELETE   690.66 200.35 364.51 555.27 816.22 461.21 980.67 448.94 920.96 569.95 839.69 644.39 970.50 633.27
00000155 00000025 685.90 204.53 362.76 552.50 813.13 467.80 974.77 454.48 916.78 573.56 833.31 643.99 965.30 632.64
00000156 DELETE   679.30 207.75 365.77 556.84 809.02 463.79 972.12 451.95 914.26 577.03 826.85 644.66 961.87 634.95
00000157 00000027 674.73 209.29 366.41 554.75 805.10 463.82 966.32 451.12 909.57 578.42 825.73 645.76 956.40 635.43
00000158 00000028 669.32 211.01 369.00 546.89 798.20 463.89 961.90 448.98 904.58 577.00 825.85 646.86 953.00 634.77
00000159 00000029 664.97 210.56 367.71 542.64 793.16 463.96 958.36 447.00 900.97 575.66 826.67 647.54 951.55 633.68
00000160 00000030 661.38 206.41 367.44 541.28 789.47 461.29 955.95 443.74 898.60 573.16 829.17 648.89 949.38 634.41
00000161 00000031 656.95 202.05 368.51 544.21 784.41 461.28 951.56 442.47 894.17 570.98 828.98 650.43 947.87 634.93
00000162 00000032 654.89 197.96 368.45 545.38 781.33 459.27 947.92 440.73 890.55 568.45 829.20 649.22 947.44 633.57
00000163 00000033 652.07 194.69 368.81 547.48 776.96 456.12 946.39 436.75 887.72 566.85 827.69 650.32 946.56 634.05
00000164 00000034 648.69 192.27 370.35 547.19 772.65 451.21 945.01 431.64 884.60 566.43 825.76 650.34 944.69 633.96
00000165 00000035 647.59 192.24 370.05 547.10 768.63 450.30 940.21 431.33 880.51 566.20 823.34 649.47 942.24 633.59
00000166 00000036 644.55 192.15 369.23 544.03 763.87 450.14 936.29 429.96 876.05 566.27 819.17 648.27 939.34 631.30
00000167 00000037 641.05 192.66 370.33 546.35 760.07 450.24 931.99 431.02 870.89 566.62 813.59 645.71 933.82 629.75
00000168 00000038 636.88 196.35 371.27 542.39 755.96 449.34 927.07 431.61 865.21 566.42 809.69 642.46 928.68 627.65
00000169 00000039 631.92 194.38 373.85 542.01 751.68 449.19 923.59 429.66 861.47 564.13 807.43 641.89 927.35 625.61
00000170 00000040 631.23 196.64 373.07 541.41 748.75 452.68 920.21 434.68 857.44 565.01 803.50 640.49 925.66 625.57
00000171 00000041 632.86 195.75 371.86 541.57 750.17 458.73 917.58 443.18 854.03 562.53 802.63 638.92 922.60 625.71
00000172 00000042 630.47 197.73 373.95 540.34 747.66 459.90 915.76 442.90 851.93 563.47 800.98 639.50 921.85 625.14
00000173 00000043 628.92 198.09 373.15 540.43 746.83 457.68 913.81 439.53 851.83 564.38 800.38 639.55 920.62 624.46
00000174 00000044 627.04 196.83 373.71 539.11 743.59 455.62 911.57 437.19 848.99 564.58 797.74 639.91 917.21 624.78
00000175 00000045 625.08 196.57 375.73 541.57 740.92 454.57 909.87 436.85 846.21 564.97 794.60 640.26 914.64 625.85
00000176 00000046 624.40 195.49 375.78 544.88 739.17 453.90 908.36 435.83 844.93 565.24 793.20 640.33 913.96 625.70
00000177 00000047 623.63 197.92 375.96 544.57 738.81 453.56 908.22 435.75 844.90 565.92 792.72 640.92 912.21 626.82
00000178 00000048 622.42 199.55 375.46 545.82 737.52 453.65 906.86 436.46 843.73 566.72 791.26 642.09 910.29 628.69
00000179 00000049 621.85 200.77 374.41 543.49 736.66 454.17 906.16 437.08 842.87 567.10 790.26 642.36 909.44 629.03
00000180 00000050 621.37 200.28 372.91 544.31 736.10 452.63 905.31 436.25 842.23 566.35 789.20 641.33 908.10 628.65
00000181 00000051 620.81 199.62 372.36 545.28 735.41 451.37 905.11 435.92 841.91 565.68 787.99 641.09 906.39 629.31
00000182 00000052 618.89 198.39 373.88 546.74 735.14 449.87 904.31 434.52 841.27 564.01 786.45 639.78 904.66 628.25
00000183 00000053 617.52 197.39 374.69 547.14 734.41 446.65 904.15 430.93 840.82 561.46 784.89 638.39 903.70 626.59
00000184 00000054 617.21 194.54 373.71 549.48 734.26 444.91 903.36 430.20 840.59 559.22 784.26 637.03 902.40 626.10
00000185 00000055 617.12 193.15 374.28 549.87 733.58 442.43 902.90 427.67 839.98 558.51 783.72 636.13 902.07 625.12
00000186 00000056 617.94 191.66 372.53 548.60 734.61 441.28 903.21 426.33 841.14 557.09 784.21 634.94 901.72 623.78
00000187 00000057 617.02 190.51 373.30 550.02 734.95 440.29 903.41 425.52 841.78 555.40 784.11 633.57 901.96 622.59
00000188 00000058 616.14 189.64 373.67 547.83 734.85 439.25 903.71 424.65 841.61 554.10 783.51 633.48 901.55 622.67
00000189 00000059 615.73 189.51 372.96 544.80 734.45 437.47 903.66 423.26 841.64 552.86 782.30 632.58 901.14 622.10
00000190 00000060 612.08 184.91 376.98 552.18 725.90 447.09 897.89 423.93 833.82 564.68 777.26 649.29 894.83 630.31
00000191 00000061 612.00 183.81 377.36 550.73 724.63 446.78 899.42 423.24 833.84 565.01 777.71 649.58 897.34 630.11
00000192 00000062 611.37 184.62 378.08 550.44 724.96 448.07 899.96 423.75 834.84 566.55 779.08 650.74 898.58 630.61
00000193 00000063 610.74 185.38 379.38 549.45 725.44 449.37 901.23 424.31 836.53 567.90 779.91 651.90 899.43 631.16
00000194 00000064 611.55 185.94 378.87 550.15 726.64 451.20 902.62 427.20 838.12 567.90 779.62 651.18 901.30 631.13
00000195 00000065 615.58 193.18 373.92 540.15 736.52 445.33 908.95 427.06 849.10 558.72 788.08 638.88 911.66 624.26
00000196 00000066 615.25 194.21 373.96 542.28 737.26 445.74 909.29 426.70 849.45 558.06 787.21 637.07 911.71 622.06
00000197 00000067 615.59 194.25 375.76 546.48 738.84 445.89 910.51 427.93 849.47 558.71 786.94 635.92 910.19 622.04
00000198 00000068 615.94 194.49 376.40 548.30 739.95 446.37 911.66 429.33 849.85 558.96 787.32 635.47 910.37 622.44
00000199 00000069 616.82 196.11 375.98 547.04 740.57 447.38 912.53 430.07 850.27 560.30 788.04 636.45 910.57 623.23
00000200 00000070 618.12 196.84 375.85 546.46 741.75 447.96 913.99 431.16 851.09 561.29 789.23 637.23 911.39 624.42
00000201 00000071 619.14 196.23 375.68 547.34 742.55 448.78 914.63 431.90 851.58 561.25 790.30 638.42 912.26 625.45
00000202 00000072 620.06 197.34 375.14 545.99 743.75 449.17 915.88 432.62 852.80 561.88 792.06 638.69 913.33 625.96
00000203 00000073 620.09 196.91 375.45 546.18 744.65 449.57 916.43 432.40 853.83 561.70 792.58 638.35 913.87 625.19
00000204 00000074 620.36 196.12 375.72 545.88 745.29 449.49 916.60 432.57 854.15 561.64 793.00 638.06 913.68 625.08
00000205 00000075 620.32 196.69 375.99 544.78 744.71 449.51 917.29 432.28 854.03 561.68 792.45 638.32 914.43 625.05
00000206 00000076 620.18 195.41 376.86 545.55 744.58 449.31 917.37 432.15 853.41 561.22 792.22 638.33 914.66 625.06
00000207 00000077 620.45 193.48 376.82 547.00 744.28 446.77 916.96 430.97 852.31 560.33 790.05 637.37 911.67 625.32
00000208 00000078 620.35 192.81 377.35 546.25 743.18 445.79 916.32 430.29 851.16 559.91 789.59 638.14 910.10 626.45
00000209 00000079 620.43 191.78 377.36 546.53 742.34 445.79 915.30 431.82 849.15 559.92 788.12 638.35 907.54 627.98
00000210 00000080 622.27 192.52 374.68 543.85 743.98 450.27 914.02 438.96 846.85 559.47 787.17 637.00 904.28 628.66
00000211 00000081 623.27 192.90 374.68 540.70 744.47 452.31 912.79 441.91 845.33 559.84 787.11 638.28 901.85 630.70
00000212 00000082 621.24 192.73 376.35 541.39 742.78 450.05 912.85 439.78 844.67 561.09 785.49 638.78 901.47 631.39
00000213 00000083 622.26 193.28 377.02 541.65 742.64 448.20 913.27 438.42 844.47 562.39 785.06 640.21 900.63 633.40
00000214 00000084 623.65 194.26 375.86 541.15 742.79 448.06 913.25 438.08 844.92 563.80 785.09 641.20 900.50 634.30
00000215 00000085 624.78 194.02 375.90 542.91 743.77 448.32 914.71 439.13 846.06 563.95 786.39 641.53 902.03 635.23
00000216 00000086 626.69 194.51 377.13 544.87 745.39 448.59 916.26 440.00 847.39 564.83 788.65 642.31 903.75 636.47
00000217 00000087 626.98 195.26 379.12 546.20 747.32 449.29 917.70 441.12 849.02 565.35 790.70 644.42 905.01 638.97
00000218 00000088 629.21 196.02 378.45 547.65 750.29 450.50 919.17 443.21 851.78 567.67 793.37 647.10 907.24 642.17
00000219 00000089 631.31 200.96 377.78 544.77 753.57 454.19 922.80 445.90 855.77 572.26 796.67 650.15 910.66 644.45
00000220 00000090 633.89 204.33 377.15 540.30 755.27 458.92 926.16 450.57 857.50 576.27 797.80 652.03 914.03 646.21
00000221 00000091 636.46 209.44 378.10 535.89 757.36 462.84 928.56 454.39 858.89 580.66 798.16 653.13 916.56 647.10
00000222 00000092 638.73 213.18 378.40 535.18 760.26 465.73 932.17 456.42 862.03 585.93 799.79 656.04 918.18 649.50
00000223 00000093 640.23 216.36 380.43 541.70 762.45 466.81 935.84 458.51 864.40 592.55 800.04 658.60 920.43 653.01
00000224 00000094 642.65 216.37 380.61 544.04 765.33 467.21 938.94 458.41 867.42 595.81 803.87 662.18 922.24 656.25
00000225 00000095 644.53 216.07 382.12 548.84 765.96 468.64 940.92 459.58 868.73 597.41 803.08 662.89 924.46 656.81
00000226 00000096 645.84 215.70 382.00 549.41 768.60 469.01 941.93 458.95 870.88 596.72 805.03 662.23 926.59 655.39
00000227 00000097 647.61 214.37 381.81 551.21 772.03 470.23 945.16 458.50 875.36 596.45 808.20 661.79 931.76 653.22
00000228 00000098 650.13 214.18 379.83 548.71 775.76 467.68 947.38 456.48 879.12 593.65 812.55 661.27 933.03 653.06
00000229 00000099 651.57 212.00 379.52 547.66 776.42 465.57 949.55 453.30 880.93 589.88 816.41 660.70 936.35 651.43
00000230 00000100 653.85 206.43 378.21 547.44 779.05 463.22 952.15 449.81 885.46 581.13 817.48 655.96 939.80 645.60
00000231 00000101 657.35 201.79 376.73 547.11 781.31 460.55 954.86 448.11 888.59 575.89 820.95 652.66 944.32 642.54
00000232 00000102 657.49 195.74 376.06 544.20 781.50 457.04 955.49 442.64 890.03 570.72 825.00 649.86 948.00 637.66
00000233 00000103 657.82 190.94 377.67 541.51 781.16 451.46 956.47 437.76 890.10 566.95 825.00 646.02 949.10 634.18
00000234 00000104 658.10 188.41 375.79 541.91 781.80 447.83 955.97 433.43 891.19 563.42 824.21 642.04 948.80 629.67
00000235 00000105 657.42 185.52 375.86 542.60 780.78 442.91 956.33 429.04 891.12 560.93 822.34 638.35 949.40 626.44
00000236 00000106 657.09 183.34 374.90 544.36 780.58 438.60 955.47 424.80 891.00 557.93 821.54 635.22 948.04 623.46
00000237 00000107 655.13 182.30 374.82 546.82 779.56 434.88 953.07 421.59 889.96 554.76 819.91 631.50 946.22 620.31
00000238 00000108 655.15 180.83 374.26 549.09 779.53 433.81 952.36 420.85 889.35 551.60 819.42 630.45 945.31 619.64
00000239 00000109 656.71 178.91 372.62 550.26 780.02 440.11 951.69 428.09 887.52 549.82 819.85 631.47 945.28 621.26
00000240 00000110 656.00 176.10 372.85 554.04 778.97 438.13 950.68 426.13 886.56 547.43 818.52 630.02 943.45 620.13
00000241 00000111 653.70 176.38 372.89 554.18 777.36 432.56 946.85 419.35 885.58 544.86 816.99 625.44 941.71 614.57
00000242 00000112 651.42 174.99 374.63 554.31 774.82 430.25 947.58 417.70 885.11 544.99 817.23 625.59 942.23 614.92
00000243 00000113 649.92 173.59 375.23 556.24 773.91 425.85 946.42 414.62 884.31 543.97 818.99 627.51 939.77 618.10
00000244 00000114 649.33 174.78 375.04 552.42 775.29 424.57 944.30 414.29 884.12 543.88 821.85 629.30 935.16 620.67
00000245 00000115 648.43 173.98 373.39 558.64 776.13 424.73 943.05 414.20 884.05 543.21 820.55 627.57 933.54 618.57
00000246 00000116 648.37 175.34 374.08 558.58 775.15 426.45 944.35 414.91 885.17 545.00 817.13 627.27 935.77 617.52
00000247 00000117 648.31 177.11 373.37 556.80 774.12 426.22 943.88 414.54 884.14 546.28 815.49 627.11 935.75 617.38
00000248 00000118 647.03 177.69 373.32 555.96 773.66 425.81 942.32 413.33 882.99 544.97 812.43 623.41 935.50 613.05
00000249 00000119 645.25 178.23 374.05 555.67 771.93 425.10 940.71 412.17 881.53 546.24 812.53 624.26 935.29 613.43
00000250 00000120 644.38 178.97 374.34 554.61 769.96 425.72 940.67 412.44 880.99 548.69 812.03 625.96 935.63 614.84
00000251 00000121 644.61 178.60 374.10 555.07 767.83 426.53 940.19 412.84 879.52 551.46 815.48 629.98 936.36 618.37
00000252 00000122 643.43 179.72 374.50 552.13 766.27 427.66 939.19 414.24 877.86 553.40 815.20 632.81 935.14 621.18
00000253 00000123 642.74 179.90 374.92 553.96 765.82 429.58 938.20 416.53 876.57 554.92 815.54 634.98 934.20 623.51
00000254 00000124 643.75 182.11 374.28 552.91 768.38 433.33 938.24 422.00 876.13 555.74 815.79 635.40 931.60 625.53
00000255 00000125 644.31 183.85 373.87 554.55 767.24 438.50 938.33 427.35 874.42 558.63 813.48 637.65 932.39 628.07
00000256 00000126 648.26 185.75 371.72 553.84 769.87 450.25 937.83 440.16 872.49 558.75 812.28 637.79 932.76 629.19
00000257 00000127 648.78 187.75 370.74 553.35 770.57 453.84 939.83 443.57 874.37 560.32 811.87 639.10 935.37 630.17
00000258 00000128 647.72 188.11 371.91 550.11 771.54 449.29 940.19 438.77 875.77 561.42 819.48 643.91 934.87 634.93
00000259 00000129 647.80 187.23 372.26 551.74 772.99 444.61 942.30 434.05 878.68 559.81 819.35 643.07 933.62 634.22
00000260 DELETE   646.60 183.91 373.99 556.52 774.98 441.15 942.98 429.49 881.18 557.33 821.93 644.02 932.63 634.35
00000261 00000131 647.27 181.89 374.09 548.89 773.05 438.52 943.92 425.04 882.16 557.35 823.36 643.44 936.25 631.94
00000262 00000132 648.28 178.68 376.08 552.71 772.53 435.28 945.77 420.18 884.39 555.89 822.49 638.26 942.70 625.11
00000263 00000133 648.45 177.90 375.48 556.61 774.58 433.81 945.34 420.52 883.93 553.89 822.10 634.97 939.82 623.40
00000264 00000134 648.87 177.31 375.31 561.20 775.30 432.98 945.70 418.94 884.24 554.58 819.64 633.87 941.00 621.83
00000265 00000135 649.75 179.60 375.09 561.09 775.95 435.87 947.48 422.14 884.64 558.17 817.49 634.88 941.99 623.08
00000266 00000136 653.07 184.82 372.94 559.93 777.66 444.62 947.20 430.94 884.76 561.31 815.08 636.83 941.41 625.41
00000267 00000137 653.78 191.63 373.04 557.35 781.63 451.00 947.86 437.83 886.79 565.71 816.29 640.57 939.95 629.90
00000268 00000138 655.78 195.94 373.86 550.04 784.20 453.67 952.02 440.95 889.43 568.67 818.59 641.69 941.82 631.31
00000269 00000139 656.55 199.08 373.08 547.41 787.59 454.60 954.56 442.19 892.76 570.62 819.77 642.32 942.34 632.25
00000270 00000140 663.94 201.23 368.32 545.06 792.33 461.58 955.75 450.14 892.82 569.40 819.86 641.49 943.14 632.34
00000271 00000141 664.55 196.41 367.82 548.81 792.71 459.15 954.82 446.07 893.79 566.78 821.92 640.78 944.29 630.35
00000272 00000142 665.26 187.47 369.59 549.85 790.36 446.36 957.52 432.86 896.68 561.64 824.60 636.91 948.57 626.31
00000273 00000143 665.95 181.93 370.85 551.97 791.42 437.67 959.52 425.09 900.06 554.99 825.48 632.51 948.64 622.59
00000274 00000144 666.60 174.08 373.65 555.07 791.87 430.34 961.34 417.67 901.94 547.95 826.28 628.37 951.39 618.44
00000275 00000145 668.39 170.32 373.17 554.33 791.90 424.77 963.88 412.68 903.72 543.96 825.96 623.40 954.36 614.10
00000276 00000146 670.21 169.22 372.07 552.93 793.23 422.08 964.85 411.50 904.52 542.81 825.98 620.00 954.90 612.00
00000277 00000147 670.95 168.04 373.44 555.80 794.61 421.26 965.85 410.55 906.19 542.58 828.15 620.15 956.35 612.03
00000278 00000148 672.33 167.97 374.69 554.85 795.65 422.39 968.76 411.94 907.71 544.38 828.78 620.64 959.07 612.62
00000279 00000149 674.30 169.59 374.71 552.80 797.10 423.97 970.13 412.58 908.76 545.71 829.84 621.82 959.78 613.16
00000280 00000150 676.31 169.23 374.81 553.89 798.25 425.14 972.21 413.16 910.24 547.35 831.58 623.71 961.66 614.44
00000281 00000151 678.61 170.12 374.28 552.60 799.64 423.81 975.10 412.12 912.35 546.75 831.32 622.45 963.96 613.48
00000282 00000152 679.33 168.84 373.95 551.22 800.19 421.40 976.09 411.50 912.69 542.98 830.37 618.98 964.45 611.45
00000283 00000153 682.03 165.35 372.41 553.89 801.62 417.06 977.25 408.99 913.94 537.85 831.40 615.74 965.35 609.80
00000284 00000154 685.30 162.12 368.77 553.05 804.76 412.79 978.59 404.80 918.74 529.73 833.52 609.59 966.92 604.14
00000285 00000155 687.55 157.92 365.86 552.96 806.75 408.89 980.19 402.17 920.99 523.72 833.88 605.57 966.95 601.41
00000286 00000156 689.79 155.74 361.64 552.18 808.79 404.79 981.17 398.89 924.27 517.00 834.31 600.37 967.98 597.14
00000287 00000157 690.24 153.77 360.43 549.48 808.57 401.25 982.20 395.86 924.95 513.14 834.69 596.53 968.80 593.78
00000288 00000158 690.78 151.96 359.38 547.97 809.26 398.72 983.52 393.69 926.56 510.46 835.32 595.21 968.57 592.92
00000289 00000159 690.66 151.51 359.15 547.15 809.13 397.84 983.07 393.75 926.34 510.54 834.54 594.31 967.64 592.81
00000290 00000160 689.98 151.93 359.40 546.25 808.58 398.40 982.24 394.52 925.21 510.99 833.55 593.60 967.06 592.27
00000291 00000161 690.03 153.70 359.19 544.89 808.56 399.68 981.24 395.75 924.33 511.88 832.74 593.34 965.72 592.04
00000292 00000162 689.59 155.41 359.65 544.71 807.98 401.85 981.19 398.14 923.12 515.16 830.32 593.46 966.02 592.23
00000293 00000163 689.08 157.31 360.34 543.56 808.39 404.26 981.20 400.79 923.38 517.77 830.02 593.98 966.08 592.86
00000294 00000164 686.96 157.34 363.35 544.42 807.13 401.42 982.65 397.28 923.66 520.46 829.39 594.88 966.92 593.40
00000295 00000165 685.57 158.16 364.31 544.92 805.82 400.35 980.54 396.38 920.96 521.92 828.99 595.84 963.92 594.57
00000296 00000166 683.09 159.78 366.14 544.42 803.32 400.73 977.92 397.76 917.15 522.57 826.02 596.75 959.84 596.40
00000297 00000167 682.25 163.44 364.15 544.53 803.16 407.59 973.28 406.44 912.15 522.01 821.75 595.84 954.81 597.31
00000298 00000168 678.40 160.99 365.07 554.01 800.53 405.39 969.25 402.41 910.13 520.56 820.42 599.06 950.71 599.06
00000299 00000169 675.04 157.19 364.66 551.98 796.71 397.99 966.65 395.70 907.77 520.53 819.93 595.92 948.67 596.03
00000300 00000170 674.35 155.40 363.34 548.42 793.16 394.70 965.71 391.54 905.53 516.42 818.22 593.30 949.42 592.50
