Video ID: 	AxapKaIzjAc
H: 	1080
W: 	1920
FPS: 	25.0

FRAME INDEX X0 Y0 W H [Landmarks (5 Points)]

00000066 00000000 771.90 221.63 442.09 639.23 865.25 455.76 1069.35 494.29 925.36 611.49 843.11 664.09 1056.75 693.90
00000067 00000001 773.09 221.49 442.59 638.38 866.70 456.19 1070.36 495.30 926.58 610.59 844.19 663.00 1058.36 693.28
00000068 00000002 773.49 220.14 442.77 639.97 867.36 456.30 1072.02 494.61 928.48 609.72 845.20 663.53 1060.02 693.15
00000069 00000003 774.40 220.66 444.43 639.98 869.27 457.57 1074.72 496.50 931.17 611.03 846.13 664.30 1062.10 694.49
00000070 00000004 774.88 222.05 447.14 640.75 870.66 459.23 1077.97 498.88 933.78 613.19 847.76 666.06 1065.65 696.90
00000071 00000005 774.79 223.26 447.92 642.17 872.05 460.51 1080.39 501.98 936.03 616.60 848.57 667.95 1066.70 700.51
00000072 00000006 774.12 224.59 446.79 646.10 872.09 461.07 1080.98 504.10 935.88 622.41 848.68 671.04 1066.37 705.10
00000073 00000007 774.85 225.94 446.16 648.17 871.99 462.37 1082.35 506.06 936.32 626.96 849.13 673.89 1068.10 708.54
00000074 00000008 775.20 225.32 445.99 650.89 872.30 461.38 1083.90 505.94 936.86 628.56 848.85 675.10 1068.51 710.57
00000075 00000009 773.66 226.36 446.86 650.81 871.67 461.78 1084.15 506.83 936.66 630.46 848.11 676.35 1067.89 712.34
00000076 00000010 771.97 228.21 446.36 648.33 869.96 462.38 1083.55 507.36 935.73 631.37 846.62 677.05 1066.75 713.08
00000077 00000011 771.66 229.03 446.60 648.77 868.80 464.03 1082.85 507.91 935.15 632.07 845.96 678.57 1066.43 713.56
00000078 DELETE   770.45 229.37 445.60 649.10 865.56 469.62 1079.88 511.35 933.52 633.34 845.11 681.11 1065.12 714.17
00000079 DELETE   770.35 228.82 445.70 650.81 864.43 477.68 1080.02 518.21 932.43 633.94 844.84 683.31 1066.20 715.09
00000080 DELETE   769.02 229.40 446.85 650.42 864.39 477.62 1080.89 518.29 933.57 634.40 844.43 683.46 1066.48 715.38
00000081 00000015 769.00 230.06 447.33 650.72 865.67 475.52 1080.55 515.40 936.31 633.33 845.07 684.01 1065.97 715.41
00000082 00000016 769.28 232.18 447.52 651.47 864.96 474.98 1082.41 514.68 936.46 635.18 843.85 685.79 1067.40 716.99
00000083 00000017 767.99 234.05 448.08 650.14 863.93 474.74 1082.05 514.10 934.95 634.89 842.11 686.36 1066.37 717.38
00000084 00000018 768.06 235.07 448.07 650.99 863.43 475.09 1080.64 514.72 934.02 635.88 841.45 687.03 1064.86 718.31
00000085 00000019 767.99 235.23 446.98 651.72 862.90 474.87 1080.78 515.46 933.05 636.72 840.63 687.80 1064.33 719.85
00000086 00000020 767.13 236.16 448.13 652.18 861.70 475.44 1079.63 515.99 931.10 638.66 839.87 689.19 1063.45 721.22
00000087 00000021 765.77 238.57 448.31 651.07 859.35 476.48 1078.70 516.36 929.41 640.44 836.93 690.02 1062.63 721.75
00000088 00000022 765.57 237.35 445.70 654.16 857.88 479.08 1077.36 517.83 928.96 641.19 836.08 692.40 1061.69 723.22
00000089 00000023 764.53 238.23 446.18 654.02 856.15 481.25 1076.42 518.53 927.98 641.68 835.21 693.49 1061.79 723.08
00000090 00000024 762.71 238.31 446.78 654.47 854.06 482.96 1074.77 519.66 926.11 643.35 833.05 694.50 1059.57 723.73
00000091 00000025 762.52 239.58 446.54 653.96 852.82 483.66 1073.47 519.81 924.46 644.31 832.12 695.13 1058.87 723.92
00000092 00000026 761.05 239.72 448.09 653.62 850.94 483.93 1071.37 519.76 921.53 645.59 831.34 695.04 1057.80 723.69
00000093 00000027 760.74 240.58 449.26 652.91 850.25 484.58 1071.10 519.66 920.63 646.20 831.37 695.59 1058.32 723.65
00000094 00000028 760.77 239.92 448.31 654.16 849.54 484.79 1069.61 520.10 919.45 647.70 831.49 696.13 1057.51 724.42
00000095 00000029 760.74 241.26 446.55 653.54 848.46 485.54 1068.22 521.08 916.93 648.87 829.90 696.00 1056.34 724.54
00000096 00000030 760.00 241.03 446.64 653.14 847.41 485.91 1067.90 521.08 916.39 648.58 829.38 696.22 1055.95 724.53
00000097 00000031 759.63 240.73 447.58 653.45 846.88 486.29 1067.40 521.06 916.05 649.32 829.61 696.55 1055.95 724.53
00000098 00000032 760.34 240.96 447.39 654.34 846.86 486.99 1067.47 521.47 915.84 650.18 829.87 697.48 1056.30 725.23
00000099 00000033 760.43 241.46 447.61 654.31 846.90 487.71 1067.95 521.88 916.55 650.69 830.57 698.71 1056.77 726.19
00000100 00000034 760.27 241.98 448.75 654.81 847.22 488.40 1068.58 522.48 917.20 651.86 831.62 699.33 1058.32 726.71
00000101 00000035 761.27 242.70 448.17 654.27 848.72 487.94 1069.53 521.83 919.13 651.80 832.96 699.18 1059.76 726.41
00000102 00000036 760.81 241.85 448.51 654.10 848.05 487.53 1068.78 521.82 917.63 651.02 832.26 698.46 1058.71 725.95
00000103 00000037 760.02 239.88 447.36 655.52 847.07 486.39 1068.03 521.29 916.60 650.41 830.49 697.36 1057.47 725.41
00000104 00000038 758.33 239.25 448.71 655.84 845.69 485.10 1067.46 520.48 915.14 650.51 828.70 696.60 1056.75 725.17
00000105 00000039 757.29 237.29 447.51 658.39 843.92 483.52 1066.91 519.88 913.79 651.13 826.12 696.10 1055.20 725.62
00000106 00000040 755.53 236.45 448.08 660.11 842.39 483.01 1065.90 520.06 911.55 651.14 824.34 695.95 1053.68 726.04
00000107 00000041 754.22 236.31 447.88 660.14 839.85 485.01 1063.04 520.54 908.81 650.70 822.93 697.23 1051.05 726.07
00000108 00000042 752.38 236.55 449.06 660.88 838.41 486.64 1061.12 520.31 908.00 649.99 822.36 697.99 1049.90 725.38
00000109 00000043 748.61 233.02 450.42 665.77 835.56 488.72 1057.70 518.66 906.24 649.86 824.29 699.66 1050.63 723.82
00000110 00000044 746.35 229.83 450.32 669.94 831.41 492.42 1052.45 515.22 905.87 648.85 826.45 701.65 1054.07 719.75
00000111 00000045 746.72 225.44 448.15 675.18 828.18 504.04 1049.32 512.76 910.14 648.77 834.39 707.08 1063.34 713.09
00000112 DELETE   745.49 231.04 451.86 670.67 825.29 512.00 1046.69 509.29 914.40 654.18 841.22 712.52 1071.26 709.24
00000113 00000047 742.18 233.79 453.08 672.69 822.55 516.62 1041.11 503.75 916.68 661.53 847.85 719.83 1076.60 708.61
00000114 00000048 737.34 235.56 456.26 678.36 819.09 518.97 1040.03 499.89 919.24 667.52 851.93 725.87 1082.53 709.92
00000115 00000049 733.97 240.62 456.40 677.58 814.94 521.62 1036.65 499.13 918.47 671.06 851.90 730.21 1082.96 711.64
00000116 00000050 732.00 242.74 455.67 676.69 813.26 523.66 1034.31 499.59 917.83 672.20 851.51 732.27 1081.67 712.48
00000117 00000051 730.07 245.19 455.49 673.24 810.97 524.31 1031.59 499.18 915.50 672.01 850.74 732.46 1080.82 711.79
00000118 00000052 728.72 243.62 454.76 674.24 810.28 523.53 1030.65 498.38 914.98 671.07 850.51 731.61 1080.61 710.85
00000119 00000053 729.20 244.15 453.86 672.11 810.33 522.24 1031.10 497.54 914.74 670.15 850.28 730.13 1080.59 709.73
00000120 00000054 729.67 242.94 453.02 671.97 810.98 521.50 1032.08 496.69 916.09 669.52 850.84 728.85 1081.82 708.35
00000121 00000055 731.20 242.30 453.26 672.51 811.88 520.88 1032.50 496.59 916.51 669.95 851.37 728.45 1081.99 708.30
00000122 00000056 730.08 242.40 453.33 673.13 811.14 520.73 1032.35 496.63 915.82 669.31 850.51 728.24 1081.93 708.21
00000123 00000057 730.11 242.88 453.43 671.70 811.21 520.41 1032.59 496.45 915.62 669.27 850.58 728.21 1081.63 708.33
00000124 00000058 730.33 242.19 453.34 671.84 811.05 520.59 1032.41 496.95 915.12 669.54 850.54 728.32 1081.26 708.70
00000125 00000059 730.81 243.73 452.80 670.49 811.35 520.88 1032.44 497.59 915.13 670.36 850.75 728.90 1080.45 709.65
00000126 00000060 730.97 243.36 453.02 670.69 811.46 521.94 1032.04 498.15 915.89 671.06 850.95 728.86 1080.35 709.30
00000127 00000061 732.68 244.82 453.82 670.15 812.88 522.26 1033.19 497.93 917.62 671.07 852.44 729.05 1082.53 709.06
00000128 00000062 732.98 244.12 455.62 670.08 813.81 522.30 1034.45 497.36 919.07 670.26 853.54 729.15 1083.24 708.59
00000129 00000063 733.95 244.63 454.43 668.32 813.73 522.27 1034.96 497.23 919.07 670.11 853.13 728.88 1083.58 708.27
00000130 00000064 734.12 245.41 453.88 667.56 813.90 521.77 1034.29 497.73 918.13 669.57 852.72 728.23 1082.48 708.39
00000131 00000065 733.41 243.61 453.92 670.12 812.53 521.40 1033.91 497.74 916.33 670.34 851.86 728.55 1082.36 709.02
00000132 00000066 734.06 245.12 453.61 668.25 812.83 522.07 1033.74 498.98 916.05 670.73 851.67 728.97 1081.43 709.92
00000133 00000067 734.16 244.95 452.89 668.24 812.42 521.79 1033.48 499.10 915.53 670.69 851.22 728.97 1081.07 710.21
00000134 00000068 734.70 244.90 452.71 667.83 812.69 522.61 1032.81 499.32 915.63 670.77 851.40 728.75 1081.13 709.49
00000135 00000069 734.76 245.16 452.51 667.18 812.20 523.19 1032.48 500.15 914.91 671.14 851.08 729.16 1080.45 710.12
00000136 00000070 734.99 245.22 452.59 667.21 812.19 523.49 1033.15 500.00 915.48 671.36 851.01 729.74 1080.80 710.38
00000137 00000071 735.66 247.09 452.69 665.11 813.03 524.03 1033.70 500.76 916.09 671.94 851.29 730.13 1080.38 711.03
00000138 00000072 736.22 248.10 453.04 663.96 813.41 524.46 1033.58 501.41 916.10 672.59 852.00 730.57 1079.99 711.66
00000139 00000073 736.54 247.80 452.32 664.00 813.38 525.79 1033.26 502.15 916.29 672.11 851.10 730.32 1079.68 710.96
00000140 00000074 736.41 249.02 449.20 661.54 813.46 536.00 1030.62 509.12 917.52 670.26 850.02 730.26 1078.68 708.16
00000141 00000075 737.18 248.85 447.78 661.95 813.72 543.11 1031.43 516.04 917.11 669.33 849.36 731.15 1080.46 708.54
00000142 DELETE   736.33 247.34 448.72 663.20 813.45 535.15 1032.53 511.49 916.06 671.71 849.37 730.16 1079.21 710.64
00000143 00000077 734.37 246.86 448.63 662.79 811.07 528.16 1028.53 505.42 912.98 671.10 847.95 728.10 1075.37 709.43
00000144 00000078 734.02 244.21 449.18 665.72 809.85 524.00 1028.62 502.19 910.56 671.00 848.01 727.94 1075.45 710.01
00000145 00000079 733.34 244.16 448.22 665.34 808.26 523.30 1027.34 501.82 907.74 670.43 846.90 728.28 1073.52 710.54
00000146 00000080 733.07 243.35 447.89 665.78 808.33 522.60 1027.42 501.66 907.54 669.64 846.57 728.02 1072.64 710.68
00000147 00000081 732.06 242.48 448.59 665.96 807.38 522.30 1026.57 501.43 906.49 669.20 845.88 727.58 1071.77 710.24
00000148 00000082 731.49 240.93 448.29 666.29 807.33 521.58 1026.78 501.24 905.86 668.07 845.22 726.84 1070.93 709.89
00000149 00000083 730.61 240.56 447.80 665.84 806.37 520.93 1025.87 501.02 904.71 667.16 843.89 726.53 1068.75 709.88
00000150 00000084 729.89 240.62 448.16 666.14 805.56 520.91 1025.69 501.27 904.02 667.67 842.89 726.88 1068.39 710.45
00000151 00000085 728.77 239.50 448.56 667.56 804.64 520.72 1024.62 501.03 903.27 667.73 842.54 727.23 1067.42 710.71
00000152 00000086 728.74 239.03 448.85 668.37 803.88 520.72 1024.14 501.45 901.81 667.91 841.81 727.47 1066.84 711.24
00000153 00000087 728.30 238.33 449.31 668.80 803.59 519.84 1024.31 500.79 901.60 666.52 840.83 726.80 1066.48 710.77
00000154 00000088 727.10 236.47 448.53 669.92 802.00 518.98 1023.52 499.87 900.16 665.15 839.83 726.32 1065.77 710.14
00000155 00000089 724.48 234.82 449.42 670.94 799.47 518.45 1021.99 499.15 898.22 664.66 837.49 726.44 1063.41 710.06
00000156 00000090 723.37 234.28 450.00 671.68 798.05 517.92 1021.90 498.51 897.28 664.03 835.90 726.65 1062.71 710.19
00000157 00000091 721.94 233.76 450.47 672.28 796.36 518.67 1020.73 498.46 895.68 663.27 834.68 727.52 1061.39 710.33
00000158 00000092 721.11 233.49 450.66 672.62 795.65 519.76 1019.94 499.18 894.90 663.31 834.77 728.28 1060.54 710.84
00000159 DELETE   721.22 237.65 449.01 668.21 797.82 529.52 1016.41 505.25 897.80 662.34 835.16 728.32 1060.02 707.95
00000160 00000094 723.58 235.62 449.23 670.40 798.30 524.50 1017.09 503.00 897.08 662.16 835.93 727.51 1060.79 709.38
00000161 00000095 724.74 235.00 450.46 671.70 799.93 521.47 1020.33 500.59 897.36 661.16 837.07 727.55 1061.89 709.86
00000162 00000096 728.07 233.57 449.34 673.96 802.55 519.45 1023.18 500.55 897.90 660.02 839.14 727.44 1063.12 711.11
00000163 00000097 729.83 231.90 448.44 675.11 803.23 517.74 1024.26 499.57 897.76 659.36 840.10 726.85 1063.46 711.06
00000164 00000098 730.11 229.22 447.72 676.33 802.95 516.58 1024.91 498.64 897.34 656.75 839.34 726.21 1062.72 710.50
00000165 00000099 727.58 227.15 449.44 677.68 800.64 514.87 1023.41 496.48 895.68 656.28 838.20 726.35 1061.83 710.27
00000166 00000100 725.73 227.53 451.01 676.94 799.34 514.02 1022.68 495.35 894.92 655.58 837.18 726.50 1060.59 710.27
00000167 00000101 723.34 227.91 452.00 676.63 796.39 513.77 1020.95 495.26 892.76 656.26 834.66 726.96 1058.50 710.84
00000168 00000102 720.14 225.68 452.52 678.92 793.42 514.50 1017.79 494.98 890.68 655.72 831.73 727.73 1055.56 710.56
00000169 00000103 715.66 227.72 454.46 678.90 789.75 515.57 1014.09 495.18 888.02 656.47 828.16 729.21 1051.79 711.05
00000170 00000104 709.71 226.20 455.51 682.38 785.46 516.62 1011.43 495.02 885.73 658.22 824.46 730.42 1049.27 711.01
00000171 00000105 705.61 230.19 455.89 677.59 782.08 517.51 1008.40 495.75 882.78 660.03 821.01 730.94 1044.99 711.39
00000172 00000106 701.35 230.11 458.56 677.44 780.01 518.37 1007.43 496.34 880.93 660.68 818.44 731.77 1042.40 712.00
00000173 00000107 694.62 237.47 462.91 672.38 777.22 523.53 997.18 500.96 877.12 661.18 812.97 731.09 1030.52 711.03
00000174 00000108 693.90 238.18 462.94 671.30 775.90 524.43 995.35 500.49 875.91 660.45 812.36 732.27 1028.25 711.16
00000175 00000109 694.10 239.01 462.84 671.18 775.75 524.73 994.78 500.62 875.75 660.66 813.36 733.93 1027.09 712.64
00000176 00000110 694.49 238.72 461.66 671.86 774.67 524.10 993.85 500.43 874.29 661.15 813.25 736.40 1024.27 715.54
00000177 00000111 693.77 236.54 460.78 673.99 772.21 523.26 991.90 500.05 871.60 662.94 814.17 742.26 1019.20 721.98
00000178 00000112 692.53 235.24 459.77 674.67 770.91 522.40 990.84 498.33 870.59 662.01 815.66 746.39 1016.48 725.54
00000179 00000113 692.34 231.78 458.91 677.09 768.80 520.15 990.09 496.75 868.39 661.74 815.24 750.56 1012.66 730.37
00000180 00000114 692.75 230.73 456.16 677.74 768.37 518.92 989.25 496.61 867.84 660.49 814.63 752.79 1009.41 733.38
00000181 00000115 692.70 229.91 455.66 678.41 768.22 519.12 989.94 498.19 867.65 659.95 814.34 754.36 1006.83 735.98
00000182 00000116 694.54 227.62 454.60 677.71 770.97 517.19 991.35 498.17 868.78 656.35 815.83 752.65 1005.07 735.84
00000183 00000117 696.00 223.19 453.51 678.68 773.13 514.37 992.69 498.36 868.46 650.33 813.31 748.71 1001.46 734.32
00000184 00000118 697.96 217.39 450.00 681.77 772.90 506.59 993.54 495.76 866.24 645.71 809.15 744.80 998.07 734.46
00000185 00000119 696.32 213.35 450.70 683.76 771.68 501.56 992.83 493.74 863.17 640.12 803.94 742.05 993.56 734.03
00000186 00000120 698.53 211.64 446.22 683.72 771.86 494.80 991.40 491.70 859.87 637.30 799.05 737.65 988.32 733.30
00000187 00000121 700.66 213.47 442.34 681.60 773.92 494.10 993.60 494.42 861.27 637.41 797.81 737.48 986.86 735.92
00000188 00000122 704.69 217.24 438.20 678.06 779.11 492.66 998.30 498.77 863.44 640.00 798.51 736.19 986.92 739.38
00000189 00000123 709.32 219.41 437.33 675.61 782.79 489.32 1004.48 498.18 866.15 638.77 800.05 736.71 988.77 742.15
00000190 00000124 714.75 214.85 438.63 674.69 791.08 483.71 1014.51 499.32 872.99 636.62 802.08 729.49 992.59 740.73
00000191 00000125 724.03 210.52 438.31 674.04 800.51 476.37 1024.33 497.33 877.45 635.51 805.52 719.21 998.99 735.05
00000192 00000126 740.42 211.06 436.27 655.73 813.20 474.69 1042.10 493.75 897.72 624.28 819.11 711.96 1005.84 727.33
CROP_BBOX: 418 0 1539 1080
