Video ID: 	-oLpnrBpBYg
H: 	1080
W: 	1920
FPS: 	25.0

FRAME INDEX X0 Y0 W H [Landmarks (5 Points)]

00021112 00000000 1100.34 258.74 401.62 572.12 1147.65 492.04 1319.67 462.05 1200.24 577.15 1189.47 697.38 1319.30 671.21
00021113 00000001 1101.98 252.92 406.41 579.16 1151.16 493.55 1317.20 464.84 1198.64 572.02 1187.11 694.34 1314.37 669.07
00021114 00000002 1103.71 249.84 408.38 582.91 1153.23 488.51 1320.40 463.04 1200.19 571.26 1188.33 692.75 1315.60 670.43
00021115 00000003 1107.35 256.42 411.07 576.66 1157.29 487.66 1322.70 465.21 1202.11 571.06 1190.13 691.92 1314.53 672.47
00021116 00000004 1112.29 255.04 409.07 577.24 1161.51 486.42 1324.13 465.67 1202.41 570.45 1192.09 690.46 1314.31 672.65
00021117 00000005 1116.01 249.01 405.57 584.45 1164.65 485.61 1326.89 464.79 1202.56 567.90 1193.01 690.16 1314.81 672.51
00021118 00000006 1120.20 242.95 401.85 588.15 1168.18 482.98 1329.52 462.93 1205.01 565.27 1193.66 688.73 1315.45 671.93
00021119 00000007 1123.80 244.27 401.38 583.00 1170.12 481.53 1330.99 461.57 1208.04 562.78 1194.38 687.97 1315.56 671.47
00021120 00000008 1124.17 238.25 397.81 584.04 1172.95 479.36 1332.84 459.78 1212.74 562.04 1198.87 684.84 1319.83 668.52
00021121 00000009 1124.57 236.34 399.27 584.93 1173.54 478.52 1335.57 457.44 1214.44 559.88 1200.13 684.43 1324.13 666.85
00021122 00000010 1122.66 234.85 401.45 588.02 1172.53 477.50 1336.82 456.57 1213.93 559.07 1199.28 684.21 1326.07 666.72
00021123 00000011 1122.75 235.58 401.40 587.70 1173.50 476.37 1337.20 456.06 1213.96 558.52 1200.18 682.21 1328.12 665.16
00021124 00000012 1124.08 237.35 399.78 586.61 1175.54 475.98 1337.49 455.89 1215.98 557.88 1201.61 681.17 1329.76 664.25
00021125 00000013 1125.73 239.05 399.27 585.57 1178.16 476.57 1340.24 457.05 1219.52 558.62 1204.24 681.40 1332.85 664.97
00021126 00000014 1129.03 238.15 399.77 586.29 1181.04 477.17 1343.56 457.34 1221.44 558.06 1206.07 681.23 1336.39 664.78
00021127 00000015 1131.53 233.49 398.60 589.72 1183.06 475.98 1347.53 456.45 1224.65 558.89 1209.14 681.34 1341.27 665.29
00021128 00000016 1129.17 243.42 403.19 579.88 1187.53 470.80 1353.97 457.86 1226.57 561.53 1211.17 679.33 1349.79 668.64
00021129 00000017 1135.86 243.84 400.50 579.79 1194.43 467.92 1358.95 457.12 1232.77 559.75 1215.83 677.17 1354.25 668.43
00021130 DELETE   1140.06 242.23 399.73 582.39 1197.42 468.77 1364.45 457.11 1238.13 562.14 1219.30 679.26 1362.16 669.84
00021131 00000019 1143.06 243.91 403.07 586.29 1199.84 471.30 1371.80 454.87 1241.21 563.27 1224.86 685.76 1371.37 672.43
00021132 00000020 1147.47 243.54 398.54 584.80 1203.34 471.83 1374.53 455.73 1242.37 563.23 1226.43 684.96 1375.09 671.87
00021133 00000021 1150.05 249.03 396.89 578.53 1203.93 474.03 1375.09 458.03 1244.01 567.06 1227.34 684.30 1378.62 671.00
00021134 DELETE   1150.66 255.45 396.64 572.29 1205.32 477.62 1371.86 465.02 1242.89 574.27 1229.62 686.78 1371.37 676.48
00021135 DELETE   1150.22 263.52 396.99 568.70 1206.41 482.63 1364.60 472.76 1240.80 583.21 1232.78 692.25 1362.96 684.50
00021136 00000024 1148.54 260.88 397.01 576.53 1205.57 488.13 1360.91 482.15 1237.80 588.59 1230.31 698.16 1356.75 693.51
00021137 00000025 1147.84 265.21 398.30 575.87 1200.85 488.09 1359.38 479.63 1231.81 588.72 1226.39 699.06 1357.84 692.19
00021138 00000026 1148.26 264.97 399.59 575.28 1201.81 487.42 1361.21 481.09 1233.92 589.64 1227.34 697.50 1360.95 692.10
00021139 00000027 1148.65 264.96 399.21 575.78 1202.73 486.86 1361.59 480.46 1234.53 590.39 1228.16 697.51 1362.33 691.83
00021140 00000028 1147.57 276.05 395.51 562.06 1200.56 491.28 1365.48 481.37 1242.13 586.00 1229.92 695.04 1367.80 687.35
00021141 00000029 1147.01 275.81 395.91 577.99 1202.54 489.15 1365.25 478.35 1242.74 585.43 1233.22 697.34 1369.86 688.42
00021142 00000030 1146.12 278.92 396.72 581.46 1201.34 490.20 1360.99 476.51 1239.41 585.87 1235.71 698.88 1371.87 686.92
00021143 00000031 1143.29 277.82 398.89 580.49 1199.77 489.76 1359.23 477.27 1238.44 585.99 1233.55 697.55 1370.37 686.41
00021144 00000032 1139.32 263.15 403.88 595.53 1195.76 486.91 1352.04 473.41 1230.42 588.94 1230.23 698.06 1371.34 685.57
00021145 00000033 1137.71 265.81 406.01 589.72 1195.38 489.98 1349.91 480.53 1228.70 590.75 1227.22 697.67 1367.72 688.51
00021146 00000034 1136.01 262.78 406.09 589.69 1193.34 489.65 1348.58 481.19 1225.77 591.94 1224.17 697.50 1364.04 689.08
00021147 00000035 1137.76 267.00 402.59 581.26 1190.73 492.62 1348.04 476.07 1227.07 593.65 1222.75 700.37 1356.45 686.70
00021148 00000036 1135.50 265.61 403.75 584.37 1188.42 494.48 1346.42 476.51 1225.19 595.59 1220.98 703.15 1355.65 688.36
00021149 00000037 1133.90 266.52 403.96 582.65 1185.80 495.83 1344.71 476.42 1223.89 596.50 1219.19 704.32 1354.95 688.28
00021150 00000038 1130.49 266.63 406.32 583.93 1183.07 497.37 1342.60 477.14 1222.00 597.25 1217.12 705.23 1353.89 688.48
00021151 00000039 1129.17 268.11 406.72 582.52 1180.46 499.46 1343.85 478.37 1221.90 597.40 1214.79 706.10 1352.51 688.59
00021152 00000040 1128.60 268.96 406.08 579.42 1180.35 502.46 1341.16 483.34 1219.10 596.25 1211.50 705.69 1347.92 689.79
00021153 00000041 1126.87 267.54 407.74 580.43 1179.18 498.43 1339.86 479.91 1218.55 594.72 1210.69 703.89 1346.26 688.43
00021154 00000042 1125.76 267.75 409.56 578.20 1177.55 497.36 1338.96 476.04 1218.91 592.87 1211.45 703.40 1346.60 685.72
00021155 00000043 1127.30 267.41 408.97 575.38 1176.83 496.61 1335.24 473.72 1216.08 590.08 1212.27 702.72 1344.65 683.73
00021156 00000044 1127.93 266.83 408.88 571.31 1177.48 493.46 1336.18 470.93 1216.79 587.96 1212.35 701.51 1343.99 682.89
00021157 00000045 1130.97 266.78 405.02 570.73 1175.80 491.19 1335.50 468.20 1212.87 586.41 1208.24 702.60 1341.93 683.55
00021158 00000046 1133.04 266.13 403.15 574.10 1174.87 490.09 1335.31 467.35 1210.78 583.04 1204.86 703.37 1336.34 684.46
00021159 00000047 1132.85 261.68 403.51 582.05 1172.64 490.57 1334.43 464.38 1207.20 579.07 1203.79 703.85 1333.71 682.19
00021160 00000048 1129.67 254.07 403.83 587.15 1169.92 491.24 1329.32 466.63 1204.96 580.34 1201.45 703.29 1328.29 682.76
00021161 00000049 1123.82 253.13 410.77 588.67 1167.01 494.27 1325.82 469.41 1201.98 582.50 1200.00 704.23 1325.27 683.41
00021162 00000050 1123.70 257.02 410.40 589.21 1166.96 497.90 1322.78 473.53 1197.40 583.24 1197.16 705.15 1322.99 684.63
00021163 00000051 1120.04 260.29 412.95 586.71 1163.60 502.65 1319.21 475.21 1194.01 583.88 1196.75 706.54 1323.14 683.60
00021164 00000052 1116.51 257.25 410.93 592.62 1165.12 502.92 1316.67 476.91 1196.34 584.99 1202.33 707.62 1320.55 685.89
00021165 00000053 1114.62 266.17 412.26 594.68 1164.46 501.04 1315.47 475.51 1196.60 585.32 1203.91 708.80 1322.38 687.13
00021166 00000054 1113.19 267.33 411.44 595.21 1164.09 500.10 1315.93 475.75 1196.67 584.80 1203.15 709.07 1321.15 688.29
00021167 00000055 1114.46 265.61 409.90 593.01 1163.27 497.54 1314.11 474.55 1194.33 583.56 1201.55 707.08 1316.26 687.33
00021168 00000056 1117.33 264.17 408.62 592.10 1163.13 495.93 1313.38 473.17 1190.61 582.76 1199.87 705.47 1314.94 685.77
00021169 00000057 1118.46 265.80 408.73 588.65 1164.00 496.39 1315.07 472.88 1191.57 581.88 1199.48 704.80 1314.92 684.62
00021170 00000058 1120.75 266.84 407.21 584.92 1164.95 496.56 1314.83 473.03 1192.40 581.13 1200.09 703.48 1315.20 683.14
00021171 00000059 1123.71 268.36 405.18 580.79 1167.34 495.13 1316.44 470.84 1193.97 578.66 1201.99 702.34 1315.57 681.58
00021172 00000060 1126.93 267.59 401.60 580.53 1170.30 493.20 1318.68 468.73 1196.42 576.53 1205.04 701.62 1317.45 680.79
00021173 00000061 1129.38 259.54 400.80 586.60 1171.13 489.33 1320.08 463.97 1196.94 573.62 1208.74 699.60 1321.37 678.03
00021174 00000062 1131.20 259.63 399.47 583.37 1174.98 484.05 1324.64 461.77 1200.19 570.42 1210.12 696.01 1322.71 677.10
00021175 00000063 1132.10 258.00 398.86 583.93 1175.94 483.62 1326.87 461.45 1201.65 570.61 1211.50 694.92 1327.20 676.10
00021176 00000064 1130.85 256.07 400.43 583.87 1176.28 488.23 1327.60 464.92 1202.82 570.65 1210.14 696.27 1327.88 676.69
00021177 00000065 1130.69 256.50 400.18 582.78 1176.09 490.07 1326.33 465.62 1201.80 571.33 1210.72 696.02 1329.09 675.54
00021178 00000066 1129.78 253.98 401.87 585.99 1173.80 490.40 1324.67 464.12 1199.83 571.24 1210.37 696.49 1330.33 674.45
00021179 00000067 1129.90 254.03 403.30 586.61 1172.87 489.93 1324.15 463.71 1199.33 571.57 1208.51 696.90 1329.88 674.94
00021180 00000068 1129.48 252.76 404.76 589.89 1171.96 489.99 1326.03 463.44 1198.77 572.49 1206.39 698.05 1330.93 675.86
00021181 00000069 1130.18 252.02 405.25 593.82 1171.33 484.91 1325.02 460.81 1196.11 573.08 1207.10 696.54 1333.48 675.98
00021182 00000070 1128.88 252.87 406.16 592.82 1169.99 486.93 1324.44 461.36 1195.23 572.53 1205.15 698.61 1330.75 676.96
00021183 00000071 1127.36 250.03 407.13 592.55 1169.52 488.13 1324.63 463.37 1196.11 571.93 1201.42 697.15 1327.01 676.46
00021184 00000072 1125.27 248.12 409.04 591.34 1168.45 489.65 1322.11 463.96 1194.55 570.38 1199.92 696.14 1324.79 674.71
00021185 00000073 1125.37 251.19 407.86 586.76 1167.33 488.18 1321.31 462.39 1193.49 569.83 1199.46 695.78 1321.94 674.40
00021186 00000074 1126.84 252.51 406.08 584.44 1168.71 488.14 1319.20 461.41 1194.28 565.36 1200.72 694.02 1317.82 671.76
00021187 00000075 1126.58 248.80 406.49 587.14 1168.94 486.79 1318.41 459.53 1194.87 562.26 1201.38 692.46 1315.49 669.81
00021188 00000076 1125.72 248.97 407.03 586.43 1168.29 486.87 1318.17 459.45 1194.04 562.14 1200.68 692.79 1314.04 670.00
00021189 00000077 1125.27 251.73 407.90 583.83 1167.83 487.47 1316.78 460.65 1193.74 564.03 1201.33 692.78 1313.96 670.36
00021190 00000078 1124.18 253.96 407.52 580.87 1167.39 488.66 1315.60 463.84 1193.49 567.85 1202.40 693.62 1314.80 672.67
00021191 00000079 1120.49 258.57 413.91 583.23 1163.25 488.87 1315.68 463.91 1191.95 575.78 1203.01 698.31 1321.07 676.76
00021192 DELETE   1115.25 256.06 411.79 601.66 1163.50 499.33 1313.02 472.20 1194.66 584.35 1207.16 705.55 1324.91 681.88
00021193 DELETE   1113.58 267.54 408.89 602.53 1161.57 506.84 1306.70 478.09 1193.48 591.57 1210.91 712.00 1330.76 686.86
00021194 00000082 1108.07 273.83 410.74 593.95 1157.93 512.09 1305.40 481.52 1192.82 594.74 1207.44 712.06 1330.12 685.45
00021195 00000083 1106.05 271.82 416.57 579.92 1153.79 506.15 1307.74 477.54 1191.59 590.33 1198.45 705.88 1321.20 681.04
00021196 00000084 1108.51 270.32 414.66 578.55 1154.41 501.44 1309.03 471.48 1189.84 582.62 1195.94 705.08 1318.50 679.12
00021197 00000085 1112.47 268.19 412.29 582.49 1155.65 494.76 1308.29 465.13 1187.15 579.79 1198.51 704.05 1318.86 678.21
00021198 00000086 1114.78 265.94 408.68 582.48 1159.92 500.22 1310.61 468.50 1192.28 577.27 1203.84 704.45 1319.38 677.21
00021199 00000087 1115.58 267.80 410.81 580.13 1160.75 500.19 1311.54 468.48 1194.66 577.08 1205.44 703.43 1322.69 676.03
00021200 00000088 1118.21 267.40 411.22 573.72 1162.81 495.80 1311.63 467.24 1194.32 575.84 1206.20 699.09 1324.97 674.20
00021201 00000089 1120.09 266.06 410.02 568.81 1163.41 496.79 1313.21 467.54 1196.03 574.55 1204.52 697.07 1326.65 671.76
00021202 00000090 1121.83 264.14 409.22 569.53 1165.80 493.47 1315.48 466.07 1197.14 570.84 1203.45 693.75 1323.68 670.32
00021203 00000091 1123.08 251.20 409.58 582.73 1166.65 490.63 1316.76 462.83 1196.56 569.83 1204.91 692.66 1325.83 669.01
00021204 00000092 1123.81 250.05 409.16 585.36 1166.98 491.11 1317.44 461.97 1196.64 569.22 1206.23 693.10 1328.37 668.30
00021205 00000093 1124.12 251.10 409.94 585.59 1165.50 488.03 1316.91 461.12 1195.10 570.88 1206.55 691.86 1329.10 668.53
00021206 00000094 1125.04 255.36 408.39 581.17 1166.52 488.65 1317.48 462.14 1196.53 572.29 1207.75 692.16 1329.96 669.02
00021207 00000095 1122.79 255.08 409.03 579.39 1166.91 491.76 1317.14 464.66 1198.59 573.27 1207.47 692.36 1329.68 669.01
00021208 00000096 1123.17 250.05 409.34 586.86 1166.50 492.21 1319.04 463.17 1198.47 571.52 1206.56 692.05 1332.41 667.21
00021209 00000097 1124.24 247.47 409.84 593.96 1165.96 492.46 1320.98 462.23 1195.73 572.32 1204.22 695.78 1335.37 670.17
00021210 00000098 1126.53 248.87 407.07 594.87 1166.81 490.39 1321.62 462.56 1194.67 571.67 1201.78 696.16 1331.07 672.67
00021211 00000099 1126.06 250.26 408.29 594.03 1166.62 489.68 1322.00 461.90 1193.85 570.61 1200.65 695.20 1330.51 671.86
00021212 00000100 1126.81 248.50 408.91 594.82 1168.36 488.73 1321.70 461.18 1194.18 569.48 1201.16 693.41 1330.57 670.32
00021213 00000101 1127.86 247.95 408.63 593.46 1167.83 489.56 1322.52 460.39 1194.50 571.07 1201.44 694.98 1333.16 670.53
00021214 00000102 1129.52 245.01 406.67 595.90 1168.62 489.24 1323.45 459.51 1194.96 570.54 1202.07 694.73 1334.78 669.77
00021215 00000103 1130.25 245.09 405.84 594.00 1169.86 488.34 1325.68 458.63 1197.20 569.07 1202.16 693.83 1335.28 668.97
00021216 00000104 1130.74 243.83 404.21 589.69 1170.95 486.37 1325.75 457.77 1200.09 568.79 1203.92 691.12 1336.01 667.14
00021217 00000105 1130.38 243.45 403.76 587.06 1171.68 486.25 1326.02 457.71 1201.20 567.75 1205.06 690.29 1335.61 666.40
00021218 00000106 1130.08 242.97 404.56 585.60 1172.04 487.21 1325.65 457.14 1201.40 566.45 1207.00 690.37 1335.33 665.28
CROP_BBOX: 738 0 1783 1080
