Video ID: 	rdjx5D8VLmA
H: 	1080
W: 	1920
FPS: 	23.974446794288266

FRAME INDEX X0 Y0 W H [Landmarks (5 Points)]

00002939 00000000 794.94 236.94 403.80 585.05 1002.27 467.16 1159.49 468.74 1152.49 557.07 1004.64 664.28 1149.31 667.68
00002940 00000001 795.30 236.38 402.72 587.76 1002.38 466.41 1159.77 468.66 1152.30 556.91 1004.22 665.01 1148.70 668.97
00002941 DELETE   797.23 237.30 402.99 585.57 1004.50 466.63 1161.84 466.84 1155.25 558.71 1007.68 665.20 1152.00 667.34
00002942 00000003 797.20 237.29 402.24 586.13 1003.57 467.06 1160.47 467.34 1154.27 557.83 1006.46 665.26 1150.75 667.54
00002943 00000004 797.25 238.77 403.17 585.31 1003.90 467.06 1161.56 465.90 1155.06 559.28 1006.57 666.13 1151.39 667.33
00002944 00000005 797.14 241.73 403.29 586.96 1003.34 467.65 1159.97 466.12 1154.15 561.12 1004.22 667.29 1150.62 668.14
00002945 00000006 790.08 241.40 406.94 578.39 993.29 465.32 1150.63 461.02 1147.39 563.63 1003.04 662.11 1149.46 660.31
00002946 00000007 789.61 242.96 408.73 576.46 994.78 465.33 1152.21 461.47 1150.32 563.15 1004.11 661.83 1150.29 660.52
00002947 00000008 798.07 240.39 405.00 585.21 1005.83 466.85 1163.45 466.81 1155.54 561.24 1007.48 666.23 1152.18 668.38
00002948 00000009 796.30 235.86 405.48 585.46 1006.15 465.92 1160.92 463.57 1157.28 558.59 1007.65 663.31 1152.11 663.63
00002949 00000010 795.78 234.72 406.05 584.78 1003.95 464.97 1158.61 461.76 1155.40 556.51 1006.35 661.34 1151.63 660.89
00002950 00000011 794.70 235.27 406.68 584.19 1003.81 464.43 1157.32 462.53 1154.16 555.62 1004.99 660.27 1149.93 660.91
00002951 00000012 794.86 233.73 408.29 584.67 1005.99 463.57 1158.34 459.35 1158.91 553.55 1007.79 658.75 1153.40 657.49
00002952 00000013 796.37 233.57 407.26 584.48 1006.42 461.53 1160.42 458.74 1161.64 550.37 1009.65 658.75 1155.54 658.63
00002953 00000014 794.56 233.35 411.11 584.98 1004.76 460.37 1158.01 456.85 1161.17 546.87 1009.36 656.87 1156.70 655.85
00002954 00000015 794.72 232.84 410.42 585.49 1004.84 459.74 1158.09 456.82 1161.23 546.43 1009.64 656.95 1156.64 656.50
00002955 00000016 796.04 232.52 409.00 583.38 1003.73 460.41 1157.64 457.35 1158.81 546.56 1009.57 656.75 1156.17 656.09
00002956 00000017 794.22 232.90 410.60 584.51 1003.11 460.92 1156.79 457.43 1157.98 548.25 1008.22 657.60 1155.04 656.63
00002957 00000018 795.61 232.98 408.49 584.69 1004.44 461.92 1158.18 458.12 1158.95 550.34 1008.16 658.28 1154.79 657.28
00002958 00000019 795.71 233.66 409.86 586.75 1004.46 462.95 1158.71 458.67 1159.29 551.70 1008.77 659.79 1156.32 658.35
00002959 00000020 794.20 231.92 411.62 591.15 1004.62 464.48 1160.14 461.06 1159.60 552.82 1008.87 662.19 1156.33 661.31
00002960 00000021 794.61 233.95 410.42 590.27 1004.83 463.55 1159.60 460.69 1158.46 554.06 1008.22 662.68 1154.60 662.35
00002961 00000022 794.33 235.56 408.59 587.16 1003.24 463.27 1157.75 460.68 1156.42 553.03 1005.95 661.04 1152.85 661.06
00002962 00000023 794.07 238.64 406.27 584.30 1001.81 464.11 1154.63 459.91 1154.25 554.22 1004.18 660.77 1151.19 659.57
00002963 00000024 793.59 236.78 401.87 582.38 1001.27 469.19 1154.02 464.00 1151.73 554.52 1003.34 661.82 1149.14 659.96
00002964 00000025 789.41 235.70 403.29 581.06 997.34 471.29 1151.74 464.81 1147.40 554.40 999.07 661.99 1146.26 659.03
00002965 00000026 787.77 234.45 400.27 580.09 991.93 466.40 1145.45 459.87 1142.34 551.73 996.47 660.29 1142.16 657.37
00002966 00000027 783.81 232.43 403.27 579.25 986.28 463.69 1140.89 456.50 1136.65 548.14 996.09 658.79 1140.87 654.68
00002967 00000028 783.72 230.53 401.03 577.85 984.05 461.68 1135.68 452.26 1133.20 545.48 998.86 657.65 1139.45 651.26
00002968 00000029 783.36 231.85 401.00 574.02 982.39 462.19 1133.59 451.73 1130.82 542.70 1003.48 657.26 1141.29 649.48
00002969 00000030 784.48 230.21 399.85 572.82 982.22 461.51 1133.42 452.46 1130.09 541.32 1009.45 657.82 1143.07 650.62
00002970 00000031 786.19 230.17 399.06 574.39 982.77 461.27 1134.18 452.28 1130.25 541.01 1012.36 659.36 1144.73 652.16
00002971 00000032 786.17 230.35 400.29 574.04 986.47 462.58 1137.62 454.42 1134.20 543.03 1016.34 660.76 1146.42 654.05
00002972 00000033 788.47 232.87 399.62 573.48 989.68 464.23 1139.86 456.08 1136.20 545.15 1018.07 662.34 1147.29 655.61
00002973 00000034 792.22 233.94 396.60 573.13 993.22 465.27 1142.94 457.77 1140.05 546.17 1020.33 662.92 1149.37 656.92
00002974 00000035 793.52 233.17 397.01 574.62 996.05 464.84 1146.07 458.31 1142.77 546.52 1022.51 663.19 1150.79 658.00
00002975 00000036 794.66 231.55 395.73 575.80 997.48 464.38 1147.81 458.89 1144.37 546.60 1022.89 662.68 1151.24 658.31
00002976 00000037 795.28 231.98 395.48 574.28 998.63 464.34 1149.11 459.17 1145.80 546.85 1023.19 661.89 1151.71 658.01
00002977 00000038 793.63 232.82 397.28 573.13 998.15 463.82 1149.51 459.20 1146.14 547.26 1022.11 660.90 1152.00 657.41
00002978 00000039 795.31 233.67 395.48 571.53 998.73 463.79 1149.71 459.75 1146.21 547.24 1020.94 659.92 1151.24 657.09
00002979 00000040 794.68 233.46 396.08 571.68 998.27 463.55 1150.17 459.55 1146.29 547.13 1020.46 659.48 1151.45 656.69
00002980 00000041 794.96 232.71 396.15 572.25 998.70 462.97 1150.01 459.12 1145.95 546.64 1020.22 658.85 1151.15 656.21
00002981 00000042 795.47 233.23 396.35 572.01 998.17 463.02 1150.43 458.93 1145.74 546.31 1020.31 658.98 1152.04 656.12
00002982 00000043 796.04 234.68 395.35 570.35 998.02 463.27 1149.72 458.42 1145.10 546.77 1020.05 659.31 1151.01 655.91
00002983 00000044 796.20 233.51 394.61 570.88 997.92 463.57 1149.73 459.35 1145.60 546.50 1019.72 659.16 1151.55 656.25
00002984 00000045 796.91 233.20 394.66 572.18 998.13 463.70 1150.71 458.88 1145.85 547.21 1018.57 659.35 1151.86 656.17
00002985 00000046 795.43 233.64 395.87 572.40 997.79 463.81 1149.64 458.96 1144.98 548.06 1017.62 659.84 1150.43 656.61
00002986 00000047 795.22 233.94 396.45 571.96 997.30 464.03 1148.58 457.83 1143.70 548.61 1017.07 660.27 1149.46 655.97
00002987 00000048 796.04 233.81 395.01 572.65 995.32 464.29 1148.32 458.06 1141.69 549.00 1014.24 660.91 1148.68 656.77
00002988 00000049 794.83 235.43 395.56 571.78 993.56 464.80 1146.84 458.22 1139.85 550.18 1012.84 661.71 1147.39 657.26
00002989 00000050 793.84 236.30 397.35 572.44 990.53 465.20 1145.34 457.19 1137.36 550.97 1011.41 662.32 1148.57 656.71
00002990 00000051 792.28 235.67 397.04 572.87 988.51 465.52 1143.18 457.36 1134.74 551.68 1010.12 662.81 1146.53 656.99
00002991 00000052 791.81 235.06 397.10 572.76 986.89 465.70 1142.04 456.84 1133.16 551.12 1010.33 663.49 1146.35 656.95
00002992 00000053 790.55 233.03 396.94 573.61 984.07 465.02 1139.59 455.58 1130.43 548.45 1009.49 662.50 1145.11 655.36
00002993 00000054 788.07 230.93 398.46 573.58 982.00 464.25 1137.93 455.04 1127.90 547.90 1009.12 662.00 1143.71 654.77
00002994 00000055 786.92 231.83 399.37 570.82 979.64 464.27 1137.14 453.44 1126.87 547.76 1008.19 661.59 1144.14 653.08
00002995 00000056 788.67 229.75 396.86 571.32 978.54 465.41 1135.87 454.10 1125.23 548.53 1007.98 661.40 1143.88 652.43
00002996 00000057 786.54 231.50 397.56 568.68 977.23 466.37 1133.58 454.46 1123.68 548.69 1006.75 661.85 1140.92 652.47
00002997 00000058 785.80 231.50 397.64 569.06 975.75 466.90 1132.53 454.78 1121.93 548.98 1006.32 663.19 1139.78 653.53
00002998 00000059 783.70 230.35 398.08 573.07 974.94 467.58 1132.62 455.22 1123.69 548.64 1006.75 664.24 1141.76 654.04
00002999 00000060 782.60 230.56 398.88 573.48 973.71 468.00 1132.09 454.63 1123.11 548.76 1006.87 665.26 1142.16 654.09
00003000 00000061 782.06 231.12 398.76 572.54 973.37 467.81 1130.91 454.74 1121.90 548.72 1004.80 664.21 1140.13 653.44
00003001 00000062 782.46 230.74 398.18 573.50 972.89 467.42 1131.64 454.40 1120.88 549.96 1003.11 664.40 1139.08 653.72
00003002 00000063 782.34 229.87 398.06 573.66 973.57 467.54 1131.22 454.36 1121.38 549.52 1003.29 664.16 1138.52 653.29
00003003 00000064 783.33 229.51 398.32 574.30 973.60 467.59 1131.06 453.57 1121.01 549.80 1002.31 662.76 1138.79 651.38
00003004 00000065 784.57 228.57 397.63 573.89 973.93 467.16 1132.02 453.96 1121.10 549.22 1002.51 661.84 1139.28 651.27
00003005 00000066 783.76 230.06 399.14 572.64 973.93 466.57 1132.45 453.52 1122.01 548.86 1001.95 661.34 1139.52 651.01
00003006 00000067 784.50 231.39 398.96 570.79 974.91 466.76 1132.73 453.78 1122.82 549.11 1001.38 660.21 1139.78 650.16
00003007 00000068 785.87 229.79 398.31 573.16 975.35 467.06 1133.24 453.31 1122.80 549.30 1002.15 660.75 1140.38 650.08
00003008 00000069 786.93 229.56 398.08 572.95 976.18 466.87 1134.27 453.44 1122.94 549.68 1002.87 660.36 1141.45 649.83
00003009 00000070 787.95 229.07 397.56 572.32 977.63 466.26 1134.93 453.07 1124.16 550.02 1003.47 660.20 1141.62 650.00
00003010 00000071 789.04 227.92 397.61 576.13 979.20 466.87 1135.82 453.34 1126.50 550.50 1003.88 660.50 1143.65 650.16
00003011 00000072 788.21 231.82 399.34 576.82 977.94 466.13 1137.65 454.15 1125.66 551.59 1001.19 662.17 1144.75 653.14
00003012 00000073 790.71 231.82 398.82 585.49 980.44 467.28 1137.21 456.24 1126.46 552.45 1000.00 665.09 1143.72 657.25
00003013 00000074 794.06 230.98 394.65 595.70 986.84 469.37 1138.84 461.06 1129.45 552.49 1000.55 669.14 1139.19 663.86
00003014 00000075 795.15 234.42 395.92 597.33 992.43 477.94 1143.92 472.12 1134.23 555.96 1001.34 672.24 1142.94 669.08
00003015 00000076 793.77 236.02 396.60 596.36 991.58 481.97 1145.94 478.84 1134.01 558.20 1000.16 674.80 1143.03 673.60
00003016 00000077 793.67 237.71 396.77 595.72 988.20 481.46 1145.01 477.88 1129.87 561.33 997.23 676.37 1142.20 675.05
00003017 00000078 791.94 239.60 396.76 595.42 983.70 479.64 1141.82 473.66 1127.45 563.33 993.95 677.95 1140.41 674.84
00003018 00000079 792.26 243.09 396.12 595.13 980.65 479.82 1139.13 473.77 1123.42 565.86 991.32 677.75 1140.44 674.41
00003019 00000080 790.38 245.92 396.89 593.89 976.48 482.21 1136.91 473.57 1119.93 571.00 986.06 678.90 1138.81 673.74
00003020 00000081 787.62 247.19 397.62 593.37 972.45 484.68 1133.24 473.02 1116.51 574.00 982.26 680.56 1135.93 673.00
00003021 00000082 781.58 245.82 401.93 597.63 964.51 486.80 1125.93 468.29 1113.49 581.07 977.16 685.62 1128.42 671.98
00003022 00000083 777.30 244.69 404.48 599.13 960.35 489.31 1122.71 467.16 1111.19 582.29 973.98 687.95 1126.07 671.45
00003023 00000084 775.46 248.98 405.23 597.87 954.86 490.35 1119.28 465.93 1106.12 582.29 969.85 688.72 1125.94 670.18
00003024 00000085 772.39 249.56 406.51 600.37 955.66 490.90 1118.82 465.59 1109.87 584.14 969.41 689.25 1126.08 670.01
00003025 00000086 771.44 251.36 407.98 602.44 956.50 493.21 1119.54 466.28 1111.93 585.57 972.26 692.00 1128.93 671.12
00003026 00000087 769.57 258.97 408.43 599.99 955.57 493.46 1116.58 469.29 1108.30 586.33 971.74 693.86 1125.37 674.72
00003027 00000088 767.86 258.21 406.78 604.32 952.12 494.97 1109.80 473.69 1101.64 587.51 966.60 693.03 1119.15 676.40
00003028 00000089 764.02 258.60 407.67 605.36 947.31 496.24 1104.66 477.30 1092.74 589.68 965.33 695.89 1113.63 680.51
00003029 00000090 762.36 258.90 406.73 605.82 942.80 498.54 1100.37 484.64 1083.72 590.59 961.70 694.83 1109.68 683.15
00003030 00000091 757.99 261.05 409.31 604.49 939.95 500.24 1099.87 489.99 1080.55 593.06 959.15 696.02 1107.05 687.01
00003031 00000092 755.80 265.33 410.02 602.13 939.00 503.47 1099.31 492.15 1080.46 596.34 956.69 698.10 1105.14 688.40
00003032 00000093 755.82 265.86 408.91 603.18 938.36 506.00 1098.30 492.81 1079.48 600.22 954.46 698.75 1104.47 687.75
00003033 00000094 755.30 266.93 409.31 602.22 937.96 507.44 1097.36 494.34 1077.99 602.40 953.96 699.50 1103.68 688.56
00003034 00000095 755.67 267.56 409.56 602.38 938.08 507.78 1098.06 494.33 1078.61 603.18 953.52 699.95 1104.07 688.81
00003035 00000096 757.49 266.24 409.03 603.90 939.71 507.97 1099.31 495.56 1079.19 603.98 954.82 700.63 1104.80 690.38
00003036 00000097 762.29 262.71 406.86 604.90 945.23 507.36 1103.28 495.90 1083.66 601.67 957.74 699.66 1107.21 690.43
00003037 00000098 768.33 251.79 406.81 608.70 953.86 507.04 1108.34 489.12 1097.21 597.01 965.64 696.38 1115.14 682.54
00003038 00000099 772.16 250.32 406.25 598.71 959.60 498.08 1117.15 470.97 1110.90 589.14 975.75 693.55 1125.45 672.52
00003039 00000100 773.45 247.84 405.24 593.59 963.23 490.07 1120.78 460.73 1116.90 581.44 981.49 690.10 1127.31 667.57
00003040 00000101 776.32 244.68 402.91 593.61 967.03 486.03 1122.41 458.05 1120.40 579.36 983.82 687.02 1127.86 665.67
00003041 00000102 776.85 246.37 402.45 591.33 969.12 483.03 1124.23 460.24 1120.19 578.23 985.68 685.72 1128.16 668.40
00003042 00000103 779.38 246.79 399.83 591.13 971.31 483.84 1125.13 460.65 1123.35 579.32 986.59 686.42 1128.32 669.06
00003043 00000104 781.14 245.84 399.70 590.63 973.40 483.49 1128.01 462.86 1124.31 579.62 989.49 685.95 1130.14 670.47
00003044 00000105 783.22 244.76 398.14 593.24 974.78 484.06 1129.07 465.09 1124.86 579.26 991.91 687.01 1131.84 672.72
00003045 00000106 783.90 245.02 399.03 594.62 975.66 484.75 1129.25 463.68 1125.51 579.90 992.82 687.84 1133.05 671.82
00003046 00000107 783.46 245.91 401.16 594.71 976.65 485.33 1130.50 462.92 1126.89 581.05 995.15 688.79 1135.25 671.49
00003047 00000108 785.52 244.44 400.54 595.28 977.13 484.31 1130.59 462.20 1125.79 579.95 997.69 689.47 1135.57 672.24
00003048 00000109 785.71 246.00 398.75 592.25 975.94 484.07 1128.21 460.42 1124.20 579.37 1000.17 691.49 1133.79 672.84
00003049 00000110 784.42 244.78 398.00 590.86 976.97 485.29 1128.06 463.05 1122.88 580.60 1003.45 693.46 1131.24 675.64
00003050 00000111 784.06 243.53 397.63 593.90 978.27 496.35 1126.47 473.75 1122.72 585.79 999.23 693.98 1130.10 676.44
00003051 00000112 781.38 241.22 397.62 598.10 975.34 495.32 1125.01 476.32 1118.46 586.28 996.36 694.87 1126.39 679.95
00003052 00000113 776.36 240.74 400.44 599.72 965.00 491.85 1118.90 473.17 1109.07 582.32 989.91 695.78 1121.34 680.73
00003053 00000114 770.20 244.92 403.21 597.68 955.80 489.72 1111.90 473.38 1096.70 581.42 984.29 695.89 1114.73 682.14
00003054 00000115 766.32 250.11 402.21 600.35 948.62 491.32 1105.99 480.15 1086.48 582.54 977.37 696.03 1109.87 686.14
00003055 DELETE   761.98 253.25 406.98 602.18 946.25 500.51 1103.14 492.01 1081.83 591.08 968.52 697.16 1107.01 689.37
00003056 DELETE   760.19 255.98 409.25 607.14 943.22 506.28 1103.07 498.49 1078.43 596.82 962.18 700.99 1104.65 693.88
00003057 00000118 756.53 263.93 408.40 609.10 938.47 512.40 1098.81 499.91 1074.33 608.21 955.33 707.87 1100.58 697.28
00003058 00000119 756.38 270.86 403.81 609.11 935.39 521.61 1093.55 509.05 1069.65 617.54 950.66 712.16 1097.78 701.61
00003059 00000120 756.30 275.00 405.01 611.48 933.31 528.57 1094.83 515.99 1067.54 630.28 946.14 720.47 1095.82 710.20
00003060 00000121 752.46 281.18 410.35 612.81 929.02 533.88 1092.87 520.33 1065.58 639.43 938.66 724.70 1094.32 714.02
00003061 00000122 752.46 282.44 409.52 615.68 922.63 536.65 1091.25 523.47 1062.58 638.76 934.10 728.19 1094.63 717.68
00003062 00000123 751.66 282.98 407.98 614.31 919.27 537.38 1089.25 525.58 1058.76 638.73 932.08 727.65 1093.36 718.18
00003063 00000124 749.86 284.95 407.13 611.30 916.74 537.61 1085.53 526.03 1054.56 640.04 929.02 727.78 1089.39 718.61
00003064 00000125 749.04 284.07 406.36 610.80 914.54 538.82 1083.03 527.04 1050.42 642.67 928.90 727.15 1089.20 717.70
00003065 00000126 750.08 285.12 405.75 609.22 912.61 538.50 1083.96 527.74 1045.73 645.98 930.71 732.10 1087.64 723.23
00003066 00000127 749.41 288.63 404.61 606.04 908.54 540.46 1082.48 529.29 1040.38 649.13 931.63 737.41 1085.93 727.79
00003067 00000128 749.04 288.90 404.10 604.43 906.30 541.27 1082.68 528.77 1039.66 651.80 931.43 739.25 1086.58 728.58
00003068 00000129 748.78 286.43 404.08 606.77 905.57 539.48 1080.72 528.91 1036.87 650.18 930.88 738.82 1083.77 729.58
00003069 00000130 747.70 286.30 404.89 605.60 904.72 538.93 1080.64 528.43 1036.44 650.09 929.01 737.00 1083.54 727.95
00003070 00000131 747.99 286.16 404.86 605.78 904.47 538.32 1080.99 529.41 1035.93 649.34 927.29 735.87 1083.13 728.18
00003071 00000132 747.09 286.75 405.61 606.14 905.51 537.57 1081.20 530.19 1036.75 648.03 926.64 735.64 1082.67 729.19
00003072 00000133 747.49 286.73 405.30 605.41 906.33 536.76 1080.50 530.45 1036.36 646.86 925.47 732.65 1081.42 727.30
00003073 00000134 746.70 285.99 406.32 606.04 905.81 537.04 1080.43 530.33 1036.17 645.77 925.78 731.72 1082.32 726.01
00003074 00000135 747.79 285.17 406.46 605.90 906.19 536.95 1080.99 530.73 1036.14 645.13 926.16 730.72 1082.60 725.49
00003075 00000136 748.55 283.65 405.68 606.32 907.01 536.27 1081.34 530.43 1035.89 643.57 927.50 730.82 1081.52 725.76
00003076 00000137 749.27 283.73 406.15 606.39 907.13 536.22 1082.12 529.72 1036.61 643.40 929.00 731.50 1082.51 725.78
00003077 00000138 749.70 283.20 406.47 607.26 908.63 535.40 1082.80 529.57 1037.46 643.55 930.57 731.86 1082.27 726.63
00003078 00000139 750.92 281.96 405.67 608.04 908.51 535.95 1083.39 529.73 1037.66 641.45 931.90 731.97 1084.07 726.26
00003079 00000140 752.00 281.32 405.81 608.03 909.78 535.52 1084.98 529.46 1039.20 641.41 933.28 732.13 1084.98 726.53
00003080 00000141 751.69 281.32 406.59 607.71 911.30 534.62 1085.36 528.94 1040.62 640.28 934.12 731.74 1084.42 726.49
00003081 00000142 751.88 281.94 407.35 606.77 912.67 533.37 1085.98 528.31 1041.85 638.11 935.51 730.91 1085.04 726.17
00003082 00000143 752.11 281.40 408.56 608.28 914.34 532.09 1086.72 527.62 1043.65 637.57 936.52 730.28 1086.09 726.00
00003083 00000144 751.83 280.67 409.24 609.76 915.01 531.72 1086.37 526.73 1044.72 636.63 936.82 729.23 1087.38 724.50
00003084 00000145 752.88 280.06 408.61 611.01 915.56 532.17 1087.46 526.09 1046.41 638.65 936.91 730.16 1088.40 724.62
00003085 00000146 752.59 280.98 408.25 609.57 916.31 531.54 1088.53 525.25 1047.65 637.35 937.97 730.12 1089.16 724.39
00003086 00000147 752.85 280.13 406.91 611.78 917.31 531.07 1088.60 525.22 1048.46 636.48 937.86 730.51 1087.93 725.07
00003087 00000148 751.14 280.26 408.76 614.62 918.25 529.44 1086.98 524.11 1049.50 635.00 938.08 730.83 1086.55 725.70
00003088 00000149 750.67 277.77 408.49 621.03 919.04 527.74 1087.19 523.60 1050.87 632.74 938.06 731.98 1085.94 727.56
00003089 00000150 750.55 278.23 405.86 622.11 918.30 524.76 1085.36 520.91 1050.16 628.20 939.47 732.54 1084.27 728.33
00003090 00000151 752.02 271.17 405.77 627.48 916.47 522.92 1087.22 517.29 1051.16 625.18 941.41 732.41 1088.53 726.53
00003091 00000152 754.57 264.09 407.85 629.53 922.97 517.89 1094.15 506.97 1061.62 622.36 950.34 730.97 1096.31 720.18
00003092 00000153 757.12 259.73 405.75 628.67 928.14 509.84 1096.05 499.53 1066.38 613.16 958.88 726.10 1099.82 715.58
00003093 00000154 756.45 255.44 409.54 631.22 929.46 503.89 1096.73 494.15 1067.50 605.57 960.93 722.63 1099.45 712.61
00003094 00000155 757.40 253.80 406.83 634.25 930.48 499.04 1096.19 491.40 1066.19 602.87 961.97 722.20 1096.88 713.77
00003095 DELETE   757.67 254.66 401.86 633.06 930.14 495.70 1093.76 490.07 1065.12 598.66 963.70 721.85 1093.47 715.34
00003096 00000157 755.89 254.82 405.47 633.31 929.80 494.47 1095.42 489.39 1067.60 596.68 963.22 722.71 1094.50 716.80
00003097 00000158 756.04 256.70 404.63 621.56 930.74 495.07 1096.50 487.69 1067.66 598.03 964.21 717.57 1096.45 709.62
00003098 00000159 753.83 258.45 406.61 609.51 930.45 493.30 1098.61 487.33 1066.58 599.56 962.05 711.03 1096.89 704.40
00003099 00000160 750.41 250.17 403.57 609.95 927.00 497.42 1091.71 489.35 1058.49 606.12 954.66 709.14 1092.51 701.67
00003100 00000161 747.50 247.29 405.68 613.71 923.38 496.02 1090.22 489.23 1056.28 606.11 948.92 708.62 1089.90 702.36
00003101 00000162 746.22 248.63 403.14 611.82 923.25 495.44 1089.02 490.52 1053.91 606.95 946.70 707.73 1086.41 703.20
00003102 00000163 746.79 247.23 404.13 613.28 922.13 495.02 1090.37 490.35 1053.72 607.58 943.34 707.14 1086.56 702.89
00003103 00000164 745.45 250.56 403.69 609.42 922.86 495.56 1090.67 492.04 1052.82 608.28 943.80 706.19 1085.87 702.93
00003104 DELETE   745.41 251.25 406.10 609.14 924.03 494.82 1093.23 492.27 1055.46 607.58 941.94 705.26 1087.03 702.93
