Video ID: 	keJViVR7PCA
H: 	2160
W: 	3840
FPS: 	24.0

FRAME INDEX X0 Y0 W H [Landmarks (5 Points)]

00008727 00000000 1627.50 441.79 438.54 652.46 1727.64 718.64 1923.35 725.50 1803.27 809.22 1728.76 931.25 1889.18 938.92
00008728 00000001 1631.18 444.10 433.98 646.46 1727.60 720.75 1920.76 721.94 1802.63 807.72 1732.74 930.36 1892.38 933.45
00008729 00000002 1633.23 446.20 432.57 645.63 1725.74 721.89 1919.72 721.14 1801.40 808.87 1733.08 933.22 1893.12 934.76
00008730 00000003 1633.77 443.00 433.88 648.52 1724.23 722.64 1917.44 720.16 1798.23 806.65 1732.24 932.78 1890.95 933.24
00008731 00000004 1633.27 445.08 435.56 644.76 1722.94 722.24 1914.57 719.45 1795.32 805.76 1731.52 931.32 1888.15 931.48
00008732 00000005 1633.97 444.63 433.62 645.11 1721.09 722.41 1910.84 718.62 1792.41 809.42 1731.66 932.77 1883.48 932.04
00008733 00000006 1632.13 443.78 436.15 644.81 1719.67 722.91 1909.62 718.85 1791.41 809.06 1732.54 933.31 1880.19 932.31
00008734 00000007 1632.39 445.23 436.29 644.66 1718.66 723.54 1908.24 719.88 1788.74 810.94 1731.40 934.98 1877.74 934.11
00008735 00000008 1629.25 454.68 436.90 639.66 1719.16 729.35 1915.15 729.62 1783.68 816.40 1731.10 935.47 1870.97 935.82
00008736 00000009 1629.80 450.39 437.68 644.27 1716.45 728.72 1906.86 727.64 1781.04 816.14 1724.07 938.85 1868.53 939.70
00008737 00000010 1621.03 446.72 442.68 647.90 1712.79 729.20 1904.85 731.85 1778.09 817.74 1716.89 936.81 1863.86 940.60
00008738 00000011 1612.25 448.24 444.57 648.99 1707.13 730.13 1901.67 735.52 1775.31 820.89 1710.64 938.93 1860.86 944.65
00008739 00000012 1605.56 450.42 443.66 648.00 1705.57 731.42 1898.15 739.69 1775.05 822.20 1707.57 940.66 1854.17 948.45
00008740 00000013 1597.41 451.09 442.83 645.97 1700.51 731.52 1892.83 740.84 1772.08 820.00 1702.74 940.84 1847.76 949.14
00008741 00000014 1589.90 463.10 436.93 636.29 1689.77 728.64 1892.58 739.01 1772.23 823.74 1697.84 943.92 1845.09 955.85
00008742 00000015 1576.94 464.71 441.12 638.49 1677.24 734.75 1882.47 743.90 1760.53 828.79 1687.33 948.28 1834.88 958.73
00008743 DELETE   1564.92 466.64 440.80 640.04 1666.87 740.09 1870.34 749.50 1751.30 832.21 1676.14 952.37 1825.53 962.11
00008744 00000017 1555.46 468.40 439.88 641.63 1656.53 742.35 1857.24 749.98 1740.88 835.77 1667.30 954.97 1813.91 963.18
00008745 00000018 1545.94 464.48 437.53 648.12 1646.87 741.19 1849.30 747.04 1734.65 837.37 1658.32 961.24 1806.68 967.89
00008746 00000019 1536.12 463.97 438.87 657.18 1638.20 745.20 1841.09 745.59 1725.75 840.61 1654.98 966.90 1802.03 969.22
00008747 00000020 1527.98 463.22 439.31 662.10 1633.94 748.53 1834.11 745.91 1721.85 846.81 1652.45 971.51 1798.66 971.17
00008748 00000021 1523.27 468.48 437.14 657.07 1630.70 751.72 1828.56 747.82 1717.11 848.61 1646.72 974.52 1797.36 973.18
00008749 00000022 1518.62 470.80 439.45 656.80 1628.10 755.79 1825.42 748.95 1715.48 850.76 1647.87 977.34 1797.97 973.61
00008750 00000023 1516.35 476.34 443.18 657.88 1627.33 760.18 1826.09 750.71 1717.48 853.52 1651.21 981.82 1800.28 975.63
00008751 00000024 1516.16 479.36 444.35 658.87 1627.51 763.68 1825.35 753.80 1717.13 856.02 1650.94 985.02 1802.37 978.51
00008752 00000025 1515.51 479.19 444.85 658.53 1627.90 765.29 1825.85 755.80 1718.07 857.71 1650.31 986.50 1802.15 980.36
00008753 00000026 1515.95 479.64 445.55 659.07 1629.10 765.65 1827.78 756.46 1719.65 858.89 1651.46 985.84 1804.16 979.84
00008754 00000027 1519.01 477.12 445.27 659.42 1630.96 764.42 1829.62 756.28 1720.81 859.66 1652.59 985.70 1805.37 980.77
00008755 00000028 1522.24 476.99 444.64 661.79 1633.29 764.51 1833.59 756.29 1725.35 860.57 1655.34 985.06 1809.18 980.05
00008756 00000029 1527.58 479.56 443.66 657.73 1636.65 763.44 1837.08 756.47 1728.38 859.39 1657.24 983.23 1811.37 979.15
00008757 00000030 1536.73 479.86 438.43 656.97 1641.44 760.77 1843.72 757.59 1735.47 853.82 1660.05 980.80 1814.01 979.98
00008758 00000031 1546.19 476.15 435.01 651.10 1650.58 753.05 1849.51 756.47 1741.81 850.39 1663.87 972.83 1815.29 977.21
00008759 00000032 1555.62 469.52 435.13 653.37 1657.08 745.20 1855.79 754.30 1743.27 844.65 1666.94 965.45 1814.20 974.30
00008760 00000033 1561.04 474.37 437.72 639.66 1664.97 738.27 1861.52 752.19 1743.68 837.99 1668.83 954.79 1814.07 967.31
00008761 00000034 1565.06 470.99 442.29 636.81 1671.68 729.30 1870.73 745.85 1751.62 826.30 1673.82 945.04 1816.90 960.46
00008762 00000035 1576.52 464.09 442.50 626.34 1681.69 720.92 1881.05 738.15 1758.66 820.89 1682.14 933.95 1820.78 950.81
00008763 DELETE   1585.88 452.95 450.89 633.64 1698.70 713.02 1886.65 736.46 1760.35 817.30 1690.69 926.34 1827.20 945.48
00008764 DELETE   1600.09 445.57 454.09 634.01 1710.94 707.54 1898.68 734.75 1768.85 812.87 1697.68 922.64 1835.41 945.25
00008765 DELETE   1619.53 445.26 457.64 636.37 1733.96 703.21 1914.99 733.91 1786.78 805.83 1714.93 914.05 1850.36 940.06
00008766 00000039 1631.62 453.49 453.48 628.08 1747.56 697.49 1931.61 728.18 1800.87 806.60 1729.51 914.47 1860.34 940.48
00008767 00000040 1649.62 447.19 450.32 641.19 1758.93 694.03 1940.52 725.11 1805.60 805.58 1738.41 918.73 1868.58 945.00
00008768 00000041 1662.75 450.93 449.20 635.07 1769.10 698.83 1949.81 729.65 1808.84 805.61 1743.31 921.80 1874.22 947.54
00008769 DELETE   1675.68 457.92 448.95 631.43 1779.55 702.91 1959.15 737.24 1818.09 808.33 1749.75 920.78 1883.52 948.90
00008770 DELETE   1691.15 466.92 449.67 633.61 1787.96 707.35 1971.09 744.59 1825.81 817.20 1756.99 928.81 1894.42 960.03
00008771 00000044 1693.65 474.75 457.07 631.88 1802.48 711.74 1986.39 754.33 1848.04 821.87 1766.95 927.39 1903.21 963.37
00008772 00000045 1700.50 479.70 460.91 631.01 1811.73 718.35 1996.18 762.28 1859.63 826.43 1776.44 931.92 1915.63 968.90
00008773 00000046 1708.90 488.14 463.56 625.53 1822.95 721.58 2008.35 770.61 1869.50 832.00 1784.46 930.48 1924.75 971.45
00008774 00000047 1716.04 493.62 467.12 620.36 1833.77 724.01 2016.85 776.62 1876.13 835.12 1790.92 928.70 1930.33 972.74
00008775 00000048 1727.15 492.33 464.00 619.20 1841.62 726.35 2026.57 781.38 1881.56 837.46 1796.91 931.12 1936.62 977.29
00008776 00000049 1727.58 497.76 470.88 616.87 1846.51 727.39 2034.65 784.21 1889.89 837.69 1802.19 933.04 1941.18 980.82
00008777 00000050 1714.38 502.98 489.53 613.53 1853.86 728.44 2038.24 788.07 1895.37 836.93 1801.68 935.30 1939.95 986.04
00008778 00000051 1713.45 507.41 491.18 610.13 1854.44 731.81 2040.37 792.31 1896.78 842.21 1802.17 936.93 1942.21 988.13
00008779 00000052 1714.56 505.00 489.67 616.32 1855.37 732.13 2040.02 796.99 1897.30 847.22 1802.11 937.99 1941.89 992.26
00008780 00000053 1715.28 502.52 485.06 620.73 1854.63 732.95 2036.27 798.21 1894.53 849.67 1800.27 939.14 1939.12 993.65
00008781 00000054 1719.08 500.42 478.05 624.66 1846.60 735.04 2036.82 799.09 1890.56 851.92 1798.77 940.50 1938.06 993.43
00008782 00000055 1711.16 500.26 477.25 625.50 1839.72 735.46 2027.09 797.91 1885.06 851.63 1792.73 942.17 1931.74 993.34
00008783 00000056 1703.06 499.35 475.00 631.90 1831.96 736.89 2016.12 794.29 1880.15 851.84 1788.01 946.17 1927.17 993.31
00008784 00000057 1672.76 322.48 728.01 1043.20 1866.65 736.95 2191.03 826.46 1991.60 956.80 1824.10 1092.56 2096.08 1168.52
00008785 00000058 1671.65 327.18 725.90 1039.54 1864.76 736.89 2186.49 825.57 1987.68 955.48 1820.52 1090.80 2091.83 1166.33
00008786 00000059 1669.74 332.90 725.09 1032.25 1863.91 735.23 2185.22 825.06 1984.94 951.40 1817.30 1087.16 2088.18 1164.18
00008787 00000060 1667.70 326.91 723.55 1039.62 1860.70 734.68 2180.45 821.06 1982.19 949.36 1816.55 1088.32 2085.33 1162.44
00008788 00000061 1671.28 326.40 715.43 1050.25 1860.00 737.91 2175.75 815.69 1980.25 947.57 1819.10 1092.89 2083.44 1160.23
00008789 00000062 1673.06 329.41 704.93 1049.13 1853.93 738.45 2169.15 812.03 1971.01 945.72 1816.14 1093.53 2080.31 1157.77
00008790 00000063 1670.76 321.94 700.36 1047.04 1845.79 733.94 2164.71 805.22 1960.47 942.26 1809.52 1089.45 2077.73 1151.70
00008791 00000064 1663.33 311.71 700.26 1037.92 1831.93 728.85 2159.80 797.39 1948.68 938.45 1797.99 1084.44 2074.37 1144.32
00008792 00000065 1658.83 302.90 697.61 1038.17 1824.28 726.26 2150.31 790.29 1941.48 935.43 1795.47 1081.76 2066.41 1137.86
00008793 00000066 1654.96 295.07 703.17 1053.99 1828.69 721.36 2144.91 796.16 1943.75 927.29 1797.24 1076.77 2045.45 1137.63
00008794 00000067 1652.39 294.62 703.11 1052.84 1825.55 721.78 2140.62 796.85 1939.81 930.70 1795.25 1077.22 2041.33 1138.22
00008795 00000068 1649.83 300.91 700.68 1046.81 1823.77 725.99 2135.16 801.04 1937.95 934.18 1793.42 1079.91 2037.59 1140.78
00008796 00000069 1655.49 309.18 684.48 1025.06 1816.36 737.48 2125.57 798.06 1928.00 944.73 1795.50 1084.33 2041.13 1137.35
00008797 00000070 1654.12 311.16 682.36 1022.12 1811.71 740.79 2121.54 801.76 1922.20 945.25 1790.70 1082.77 2043.22 1135.99
00008798 00000071 1655.93 312.00 680.27 1026.01 1811.88 741.11 2123.61 801.87 1921.02 944.78 1788.97 1084.65 2047.48 1138.06
00008799 00000072 1656.88 312.72 677.49 1026.01 1810.64 739.91 2122.56 802.03 1918.19 946.22 1787.38 1082.93 2046.07 1137.56
00008800 00000073 1646.61 304.76 691.39 1045.94 1809.37 733.95 2121.38 810.44 1921.75 937.37 1780.88 1076.87 2037.41 1138.22
00008801 00000074 1647.86 305.68 688.29 1047.70 1808.45 735.46 2118.45 811.87 1919.31 935.53 1780.27 1077.73 2035.06 1138.92
00008802 00000075 1647.43 301.91 684.97 1054.08 1806.09 736.39 2113.08 811.94 1915.52 934.29 1779.45 1077.20 2031.36 1137.77
00008803 00000076 1642.93 304.24 683.86 1047.30 1801.87 737.86 2110.22 812.82 1913.05 936.09 1772.88 1077.33 2032.33 1137.20
00008804 00000077 1655.35 315.71 665.97 1021.28 1805.51 742.40 2110.56 800.80 1912.79 944.58 1783.35 1077.98 2040.14 1130.69
00008805 00000078 1642.68 302.38 682.62 1048.85 1800.80 738.38 2107.80 811.11 1908.00 930.40 1775.89 1076.46 2031.38 1134.26
00008806 00000079 1647.89 307.12 679.25 1041.29 1803.04 737.49 2107.85 809.91 1908.69 928.82 1778.00 1072.61 2032.90 1130.01
00008807 00000080 1647.84 306.09 678.21 1035.22 1804.97 738.00 2106.23 809.40 1909.88 925.10 1780.48 1071.44 2030.56 1127.87
00008808 00000081 1648.80 306.17 669.20 1012.37 1809.55 746.57 2102.68 796.68 1904.51 922.05 1785.22 1068.12 2013.49 1110.79
00008809 00000082 1650.40 307.62 667.90 1007.96 1810.66 747.60 2104.25 797.43 1906.16 922.44 1786.80 1068.07 2015.62 1110.52
00008810 00000083 1652.69 315.06 664.85 997.38 1813.13 747.62 2106.66 798.04 1910.35 926.05 1789.37 1067.26 2020.98 1110.24
00008811 00000084 1655.65 315.21 662.54 995.77 1814.16 748.49 2107.03 798.01 1911.61 929.24 1792.37 1068.04 2021.80 1110.18
00008812 00000085 1658.88 315.07 661.04 994.99 1815.34 748.24 2106.88 798.25 1910.83 928.26 1794.58 1067.60 2020.11 1109.92
00008813 00000086 1659.36 320.51 660.31 988.63 1816.29 748.74 2108.07 798.53 1912.56 927.82 1795.28 1067.59 2021.62 1109.89
00008814 00000087 1659.82 321.72 660.22 984.76 1817.53 748.34 2108.95 798.11 1913.35 928.43 1796.20 1066.77 2021.78 1109.03
00008815 00000088 1662.32 325.08 663.99 973.88 1826.13 743.48 2124.80 793.18 1924.77 927.57 1802.60 1068.70 2028.92 1113.36
00008816 00000089 1664.52 330.63 662.03 967.16 1826.87 743.26 2126.09 793.09 1925.57 925.66 1803.07 1067.43 2029.95 1112.23
00008817 00000090 1664.95 332.08 660.73 964.70 1827.86 742.53 2125.42 792.83 1925.76 924.91 1803.24 1065.37 2029.51 1110.59
00008818 00000091 1664.76 330.52 661.19 963.91 1827.18 742.23 2125.18 791.88 1925.28 924.59 1803.10 1062.31 2030.70 1107.13
00008819 00000092 1666.19 330.81 658.39 962.50 1827.51 741.50 2124.57 790.32 1925.63 922.55 1803.99 1061.46 2029.67 1105.65
00008820 00000093 1668.46 331.88 656.32 956.38 1827.29 742.09 2124.08 790.97 1925.65 922.55 1803.96 1060.30 2029.12 1104.52
00008821 00000094 1669.81 331.46 654.78 956.50 1826.76 741.76 2123.59 789.66 1924.85 922.82 1805.03 1060.21 2029.69 1103.61
00008822 00000095 1672.54 330.62 641.19 962.05 1821.49 744.17 2109.08 793.38 1913.95 924.10 1799.85 1055.79 2024.21 1097.56
00008823 00000096 1673.23 332.13 639.03 960.17 1821.38 743.97 2108.04 793.30 1913.98 924.37 1800.29 1055.74 2022.92 1097.56
00008824 00000097 1673.53 335.99 636.21 955.67 1820.48 744.26 2105.86 793.52 1912.67 924.38 1800.26 1054.44 2020.84 1096.20
00008825 00000098 1674.21 338.33 631.95 953.30 1819.70 744.61 2103.08 793.53 1911.52 926.25 1800.39 1054.53 2020.30 1096.01
00008826 00000099 1671.54 344.61 644.79 940.27 1826.43 744.21 2114.95 789.17 1922.38 923.89 1807.64 1059.12 2020.20 1100.42
00008827 00000100 1670.87 341.55 630.81 940.40 1823.82 745.00 2104.95 788.72 1918.90 921.14 1797.48 1054.52 2018.67 1092.62
00008828 00000101 1672.34 344.86 628.17 935.44 1824.28 744.28 2105.15 787.76 1919.14 919.71 1798.90 1053.51 2018.19 1091.40
00008829 00000102 1673.81 344.92 625.50 932.89 1824.75 743.55 2104.09 787.23 1919.16 917.69 1798.45 1050.35 2012.91 1088.64
00008830 00000103 1674.51 348.44 622.24 930.15 1824.49 743.21 2102.09 786.27 1919.66 917.61 1799.68 1050.27 2011.89 1088.19
00008831 00000104 1673.71 350.70 634.20 929.52 1828.52 740.89 2109.13 784.65 1921.94 918.95 1811.65 1052.67 2009.12 1093.42
00008832 00000105 1675.11 348.19 619.33 929.49 1823.85 741.09 2099.91 782.96 1918.58 916.91 1801.67 1050.61 2010.43 1087.62
00008833 00000106 1673.73 345.89 618.51 930.68 1822.76 739.30 2097.36 781.12 1916.44 914.54 1800.93 1048.06 2009.18 1085.19
00008834 00000107 1671.28 343.14 619.24 927.05 1818.37 738.08 2094.56 780.35 1909.69 910.20 1795.66 1045.03 2007.34 1082.41
00008835 00000108 1667.57 341.05 619.76 924.69 1813.24 734.03 2089.42 778.72 1902.73 908.03 1789.59 1041.29 1999.09 1080.49
00008836 00000109 1665.65 345.71 615.03 921.06 1801.38 734.85 2076.87 781.21 1885.23 913.50 1784.74 1039.19 1992.17 1078.15
00008837 00000110 1661.92 350.46 615.50 913.32 1798.25 734.03 2073.34 781.63 1879.33 911.84 1780.02 1039.48 1986.84 1079.21
00008838 00000111 1657.70 352.42 612.92 908.96 1794.79 735.76 2066.97 782.64 1874.72 913.46 1776.11 1041.61 1979.07 1080.72
00008839 00000112 1656.58 355.49 610.46 903.36 1791.73 735.47 2063.83 782.72 1869.93 913.35 1772.37 1042.39 1973.93 1081.54
00008840 00000113 1656.24 362.00 605.68 894.51 1789.83 743.07 2059.17 787.98 1864.76 908.22 1770.04 1042.14 1969.11 1079.59
00008841 00000114 1656.11 360.17 602.06 893.48 1786.79 743.82 2056.13 788.53 1861.34 902.57 1765.60 1039.20 1965.59 1076.86
00008842 00000115 1655.82 358.24 597.48 893.66 1781.08 736.48 2050.79 779.19 1857.07 903.51 1763.07 1037.82 1962.11 1073.62
00008843 00000116 1655.46 354.47 597.48 894.78 1782.03 732.55 2050.94 776.36 1856.34 901.42 1760.15 1035.25 1958.49 1071.88
00008844 00000117 1657.19 356.82 592.37 889.35 1784.44 729.44 2053.71 773.54 1860.28 901.67 1764.51 1033.95 1961.97 1070.75
00008845 00000118 1656.26 358.43 592.83 888.51 1786.86 730.32 2055.13 774.58 1862.96 900.78 1766.44 1033.25 1965.25 1070.39
00008846 00000119 1657.42 359.70 590.39 882.99 1787.64 731.48 2055.81 775.50 1865.01 902.30 1768.73 1033.06 1966.10 1070.13
00008847 00000120 1659.61 364.61 588.49 877.41 1791.74 733.27 2055.36 777.48 1865.58 902.06 1772.45 1033.22 1964.41 1070.36
00008848 00000121 1659.70 365.40 589.55 881.15 1793.42 735.95 2058.06 777.90 1869.53 899.98 1776.64 1035.59 1970.74 1071.30
00008849 00000122 1659.75 366.70 591.49 882.58 1793.58 735.36 2062.58 778.91 1871.52 901.05 1774.87 1034.95 1976.85 1071.73
00008850 00000123 1661.33 364.69 590.89 882.30 1797.02 733.65 2062.95 777.27 1872.87 900.27 1776.66 1030.30 1980.52 1067.12
00008851 00000124 1659.78 362.92 595.36 879.12 1793.53 730.92 2062.00 774.42 1871.51 898.33 1775.05 1025.17 1982.88 1061.98
00008852 00000125 1661.69 362.49 586.63 878.02 1793.35 728.14 2057.54 771.04 1869.12 896.58 1774.90 1023.26 1978.66 1059.45
00008853 00000126 1660.26 357.23 585.45 884.49 1788.84 727.15 2055.57 768.86 1865.73 895.86 1771.28 1024.50 1978.17 1059.60
00008854 00000127 1660.18 360.91 583.78 879.61 1787.83 728.36 2054.77 770.59 1865.12 899.31 1771.32 1027.58 1975.17 1063.13
00008855 00000128 1660.31 366.17 586.19 876.24 1788.56 732.47 2055.98 775.21 1865.27 901.80 1771.44 1029.54 1975.85 1065.54
00008856 00000129 1660.42 368.93 586.32 877.82 1788.50 737.70 2056.52 781.31 1863.38 906.45 1770.48 1036.18 1973.62 1072.71
00008857 00000130 1658.87 370.04 586.81 879.67 1785.46 743.05 2049.94 787.16 1856.61 916.93 1768.59 1041.55 1969.01 1077.97
00008858 00000131 1657.77 376.67 582.20 872.82 1778.53 745.44 2037.97 787.46 1844.77 919.83 1763.09 1043.43 1954.57 1078.72
00008859 00000132 1655.88 376.85 578.26 871.05 1770.25 747.94 2028.18 788.80 1833.57 921.85 1753.08 1042.30 1948.20 1076.87
00008860 00000133 1647.31 385.58 588.46 855.30 1762.55 749.73 2021.32 784.41 1829.27 915.82 1753.71 1044.03 1950.43 1074.97
00008861 00000134 1648.75 370.62 579.71 872.72 1761.64 744.30 2020.47 784.52 1823.57 915.53 1743.21 1038.44 1938.24 1072.88
00008862 00000135 1649.82 364.21 579.24 876.88 1763.44 737.46 2021.96 777.53 1822.84 907.15 1743.69 1035.81 1936.53 1070.04
00008863 00000136 1649.38 359.32 579.87 877.04 1764.01 730.37 2022.63 771.89 1823.84 900.85 1741.03 1028.54 1934.27 1063.61
00008864 00000137 1650.50 353.58 578.99 878.67 1765.70 726.45 2024.55 766.58 1826.95 894.31 1742.66 1023.22 1936.59 1057.33
00008865 00000138 1649.32 353.09 580.15 878.61 1769.51 724.02 2028.41 764.71 1833.40 890.64 1745.56 1018.95 1941.23 1053.66
00008866 00000139 1654.24 354.87 579.69 877.41 1774.35 726.47 2033.48 767.05 1842.60 895.51 1753.50 1022.08 1948.42 1056.54
00008867 00000140 1654.04 356.85 579.66 878.77 1775.08 728.14 2037.03 768.42 1846.87 899.57 1755.90 1026.18 1951.83 1060.39
00008868 00000141 1653.93 358.98 582.86 877.80 1773.04 730.45 2034.55 770.99 1841.91 901.64 1754.79 1030.08 1949.15 1064.38
00008869 00000142 1654.53 362.49 581.16 874.41 1773.61 730.91 2035.58 772.97 1841.97 903.10 1753.62 1029.90 1948.68 1065.27
CROP_BBOX: 883 0 2653 1721
