Video ID: 	Blc08jWT484
H: 	1080
W: 	1920
FPS: 	23.976023976023978

FRAME INDEX X0 Y0 W H [Landmarks (5 Points)]

00013721 00000000 824.15 88.26 386.80 657.88 1105.30 337.80 1125.24 354.34 1216.77 456.44 1089.67 563.63 1108.69 581.28
00013722 00000001 823.75 89.86 378.89 651.02 1102.02 336.39 1121.97 340.74 1221.63 458.76 1099.65 571.26 1118.71 579.60
00013723 00000002 827.63 89.54 376.20 647.84 1103.40 332.26 1119.42 337.04 1222.63 453.29 1113.02 572.20 1126.46 579.81
00013724 00000003 824.33 88.01 379.99 650.38 1101.73 331.06 1119.75 335.13 1221.24 451.88 1113.03 572.91 1127.01 579.76
00013725 00000004 821.62 90.74 383.81 649.04 1101.75 331.88 1124.26 337.76 1221.88 454.43 1106.86 570.94 1125.79 579.68
00013726 00000005 822.29 86.46 384.53 660.96 1093.88 335.32 1117.75 339.42 1214.92 449.59 1089.68 567.94 1120.62 574.46
00013727 00000006 822.46 87.45 391.61 654.57 1102.52 327.64 1128.87 347.15 1220.45 448.11 1094.00 560.22 1115.59 580.48
00013728 00000007 822.09 82.48 385.45 668.85 1098.62 334.41 1120.62 340.72 1216.31 452.35 1084.90 568.41 1111.61 576.68
00013729 00000008 824.95 87.37 389.01 662.07 1107.39 328.07 1129.56 347.71 1218.02 453.05 1087.22 564.17 1104.43 584.44
00013730 00000009 825.80 86.42 388.66 667.00 1107.50 328.84 1131.83 351.60 1218.60 456.82 1083.33 564.61 1102.49 587.67
00013731 00000010 825.19 83.03 391.01 671.51 1108.14 327.98 1132.78 349.70 1219.04 456.64 1085.81 565.97 1104.79 588.14
00013732 00000011 826.37 85.55 389.03 660.81 1108.40 331.27 1130.41 349.07 1218.97 454.37 1092.02 564.24 1110.68 583.27
00013733 00000012 829.21 85.13 376.18 650.25 1111.38 336.36 1127.94 340.37 1227.62 463.25 1098.68 572.05 1117.20 579.81
00013734 00000013 828.14 86.42 373.48 646.19 1111.28 338.97 1128.53 343.91 1224.83 464.11 1101.47 572.94 1119.51 580.94
00013735 00000014 833.97 86.21 366.08 643.66 1115.57 341.63 1130.68 348.88 1225.25 465.30 1100.62 571.13 1120.70 580.70
00013736 00000015 835.89 90.46 365.50 636.99 1112.62 349.02 1134.52 353.62 1225.23 468.17 1102.16 574.42 1126.20 581.98
00013737 00000016 844.30 87.09 359.70 640.33 1116.31 345.09 1135.59 351.94 1225.88 469.69 1106.31 574.80 1128.32 583.50
00013738 00000017 854.01 86.28 349.79 643.21 1120.36 343.06 1136.62 352.01 1227.51 470.08 1108.10 576.18 1127.26 586.48
00013739 00000018 872.54 93.98 332.68 638.03 1122.13 345.87 1137.12 355.46 1222.78 471.29 1108.90 584.17 1125.09 594.96
00013740 00000019 876.72 96.42 324.71 634.19 1121.34 345.77 1138.66 355.73 1219.06 470.44 1112.16 585.00 1129.65 594.99
00013741 DELETE   880.51 97.56 320.06 631.68 1123.72 345.43 1141.36 353.44 1217.10 472.67 1116.04 588.32 1133.23 595.84
00013742 00000021 884.36 101.77 316.57 622.38 1123.16 344.41 1141.23 351.73 1217.54 471.47 1117.11 588.35 1134.17 595.21
00013743 00000022 886.38 102.54 313.56 619.60 1123.76 344.32 1141.08 350.50 1218.49 470.22 1117.75 586.82 1135.20 592.84
00013744 00000023 882.72 108.48 319.35 611.44 1121.21 340.51 1139.21 347.87 1219.46 465.25 1117.24 583.62 1135.51 590.81
00013745 00000024 880.36 106.39 323.23 615.48 1115.76 336.48 1133.97 344.43 1219.47 460.85 1109.55 579.39 1128.21 588.36
00013746 00000025 873.83 107.76 331.43 613.96 1111.79 335.82 1130.88 343.63 1218.04 459.36 1105.91 575.37 1124.58 584.93
00013747 00000026 859.24 100.92 342.15 629.66 1105.87 329.56 1120.68 334.59 1219.35 453.44 1099.49 573.89 1112.91 582.63
00013748 00000027 846.33 90.52 366.18 647.60 1101.76 333.50 1120.70 335.74 1209.87 449.10 1093.03 566.37 1110.53 572.47
00013749 00000028 834.96 91.20 367.19 649.76 1094.39 335.00 1114.25 335.11 1208.13 449.08 1085.82 568.15 1111.84 570.73
00013750 00000029 826.85 91.35 372.25 653.51 1086.49 337.06 1114.46 336.03 1207.85 450.23 1082.35 573.54 1110.55 575.76
00013751 00000030 823.88 91.44 373.06 648.58 1084.96 339.81 1115.24 343.25 1206.75 451.29 1079.45 570.59 1111.99 576.49
00013752 00000031 823.12 96.98 374.39 643.93 1085.53 342.11 1116.84 344.51 1209.31 453.57 1082.96 573.69 1115.91 578.62
00013753 00000032 829.02 98.85 367.09 633.05 1090.92 339.40 1124.88 342.84 1217.21 461.24 1100.88 578.56 1125.51 585.09
00013754 00000033 834.47 97.99 365.52 637.56 1098.75 341.39 1127.37 343.96 1219.98 464.10 1110.30 583.54 1131.88 588.43
00013755 00000034 840.00 97.91 359.07 641.96 1103.77 346.56 1132.26 349.42 1223.03 468.73 1113.33 589.68 1136.62 594.23
00013756 00000035 845.01 104.26 354.66 634.19 1105.05 348.04 1131.95 350.98 1222.83 470.99 1115.70 589.60 1138.06 594.30
00013757 00000036 855.67 98.95 346.48 637.87 1112.00 346.52 1131.71 350.09 1226.80 468.96 1118.17 587.70 1136.01 593.10
00013758 00000037 867.64 99.59 328.77 635.98 1115.34 347.46 1130.54 353.88 1225.78 468.58 1120.13 587.65 1137.29 595.00
00013759 00000038 867.90 101.23 327.91 643.35 1113.12 349.62 1129.44 357.45 1223.38 475.79 1108.02 590.70 1126.12 599.94
00013760 00000039 867.72 102.44 328.44 650.86 1112.48 349.00 1127.10 357.08 1223.48 477.97 1099.64 591.30 1116.85 601.89
00013761 00000040 865.78 104.44 326.45 641.74 1109.51 349.77 1124.35 356.88 1221.93 477.53 1100.62 588.81 1117.04 598.32
00013762 00000041 855.50 105.45 339.23 635.08 1104.79 349.79 1124.57 354.86 1219.95 475.29 1105.12 587.30 1124.37 594.53
00013763 00000042 846.71 101.49 348.59 640.39 1102.91 347.75 1124.30 350.91 1220.21 473.95 1097.54 584.99 1116.63 591.90
00013764 00000043 840.78 97.76 365.23 652.34 1106.10 343.54 1125.73 353.28 1218.24 464.70 1088.37 575.79 1107.48 588.17
00013765 00000044 843.63 103.70 351.37 636.66 1105.16 349.30 1123.50 350.63 1220.68 472.37 1094.52 583.42 1112.04 589.54
00013766 00000045 841.80 101.02 353.43 630.16 1105.37 350.11 1125.71 350.68 1219.51 469.52 1101.56 580.23 1122.18 584.29
00013767 00000046 841.11 100.20 354.57 632.44 1106.15 345.82 1124.84 347.82 1219.97 468.06 1104.62 581.60 1123.25 586.68
00013768 00000047 844.00 99.47 351.11 634.38 1106.27 345.87 1124.72 349.13 1218.87 469.12 1106.84 583.23 1124.62 589.03
00013769 00000048 850.07 98.36 348.20 637.83 1107.11 347.57 1127.47 350.49 1222.60 472.89 1102.69 584.59 1121.73 590.70
00013770 00000049 852.59 98.70 346.52 641.41 1109.36 348.70 1128.92 352.58 1223.55 473.49 1101.38 585.07 1120.69 592.18
00013771 00000050 855.42 98.83 349.63 645.32 1112.98 346.67 1131.09 352.18 1227.12 472.46 1103.16 585.83 1122.26 594.49
00013772 00000051 858.91 98.49 350.71 651.22 1115.07 345.58 1133.14 349.89 1232.15 472.15 1106.10 589.77 1125.02 597.57
00013773 00000052 856.82 97.57 353.68 651.05 1114.06 345.75 1134.24 351.05 1233.03 471.85 1108.30 589.00 1129.08 597.35
00013774 00000053 855.37 102.62 353.51 639.86 1113.02 348.84 1137.03 352.98 1232.48 473.29 1110.10 588.84 1133.85 595.93
00013775 00000054 853.98 104.06 357.25 642.51 1113.05 347.10 1138.02 352.67 1232.81 474.83 1105.02 588.19 1129.66 596.96
00013776 00000055 858.09 99.10 353.77 645.31 1116.36 346.99 1139.66 352.41 1234.92 473.52 1107.67 588.58 1131.22 596.96
00013777 00000056 864.24 101.26 349.33 639.61 1120.55 348.16 1140.25 352.50 1236.74 472.74 1112.20 588.29 1134.11 595.57
00013778 00000057 868.17 99.81 341.37 634.51 1126.52 345.47 1142.23 351.80 1236.43 470.05 1124.30 587.10 1143.07 594.44
00013779 00000058 869.78 99.68 337.67 628.84 1126.67 344.70 1143.78 352.49 1233.76 470.33 1124.91 585.50 1144.54 593.45
00013780 00000059 873.24 100.56 332.32 626.34 1126.37 344.68 1143.87 353.40 1231.38 474.06 1123.14 585.35 1142.12 593.92
00013781 00000060 873.00 100.85 332.21 626.57 1126.04 349.86 1145.50 356.69 1231.40 481.52 1122.80 588.40 1143.04 595.30
00013782 00000061 873.16 110.06 336.38 625.53 1126.53 354.21 1150.04 362.33 1230.91 488.15 1123.62 595.72 1143.41 603.76
00013783 00000062 880.02 112.89 332.53 639.10 1136.25 356.52 1157.86 369.64 1238.91 496.59 1120.41 601.47 1140.93 613.84
00013784 DELETE   881.25 114.56 340.49 648.79 1135.06 368.60 1156.85 373.89 1238.14 498.16 1125.15 607.23 1145.31 612.79
00013785 DELETE   883.40 114.89 342.32 651.86 1140.20 372.95 1162.05 375.68 1243.87 499.33 1127.21 608.25 1149.51 612.01
00013786 00000065 885.82 116.40 344.15 647.36 1144.89 374.12 1166.13 374.97 1248.06 500.95 1128.01 606.84 1149.47 609.66
00013787 00000066 887.63 116.79 345.24 645.00 1150.01 372.33 1169.86 373.35 1250.90 500.12 1129.65 604.88 1149.25 608.12
00013788 00000067 885.42 111.91 349.23 652.10 1148.56 365.57 1168.12 367.87 1251.93 494.55 1124.22 601.23 1143.84 606.07
00013789 00000068 888.48 111.95 347.88 650.05 1148.42 362.49 1171.96 368.10 1250.79 490.85 1116.78 596.93 1139.80 604.62
00013790 00000069 886.30 113.29 347.02 644.78 1146.35 361.84 1170.11 366.88 1250.24 489.27 1111.85 592.96 1135.89 600.67
00013791 00000070 887.21 118.66 344.92 636.87 1145.39 361.72 1166.29 364.10 1246.75 487.28 1110.74 589.89 1133.94 595.47
00013792 00000071 886.79 121.26 343.13 636.57 1148.29 348.81 1167.51 354.90 1252.05 487.21 1113.45 592.46 1135.36 601.15
00013793 00000072 892.14 123.76 334.64 632.20 1152.71 350.93 1169.79 357.50 1251.07 489.79 1117.48 592.64 1138.56 600.82
00013794 DELETE   896.23 134.83 332.52 614.27 1150.67 369.66 1166.40 367.33 1243.10 495.12 1122.05 591.81 1142.54 592.05
00013795 00000074 902.40 135.42 329.00 612.60 1153.12 372.55 1169.66 371.30 1243.98 497.40 1125.86 593.54 1146.75 594.30
00013796 DELETE   904.22 146.44 330.90 603.73 1156.34 373.11 1175.84 373.80 1247.21 497.58 1124.46 592.20 1149.30 594.75
00013797 00000076 902.04 146.77 335.43 607.21 1154.06 368.26 1180.25 375.37 1245.91 496.43 1118.60 589.97 1148.43 597.46
00013798 00000077 895.66 157.71 344.23 602.25 1151.72 364.33 1184.58 378.04 1246.65 494.27 1107.95 585.86 1144.08 599.34
00013799 00000078 893.54 156.31 348.15 609.51 1151.62 360.56 1187.78 378.62 1248.25 491.20 1105.21 586.07 1144.79 603.35
00013800 00000079 893.10 158.04 347.94 599.57 1150.84 359.98 1191.54 378.10 1248.09 491.95 1111.57 585.46 1151.53 602.24
00013801 00000080 896.49 153.25 344.96 597.57 1156.72 364.98 1193.37 382.19 1246.95 493.75 1119.22 584.48 1156.26 599.91
00013802 00000081 899.82 151.30 342.09 602.84 1158.12 368.21 1190.60 381.62 1247.12 495.00 1122.47 588.16 1157.48 600.34
00013803 00000082 902.28 153.98 337.84 595.05 1159.11 375.58 1186.97 383.47 1247.10 498.98 1128.07 590.45 1159.20 598.27
00013804 00000083 903.41 160.00 336.29 585.30 1160.18 378.77 1184.28 384.75 1246.00 500.91 1133.75 590.02 1162.55 596.15
00013805 00000084 906.60 146.18 327.78 597.18 1162.57 369.92 1172.74 382.41 1250.00 496.66 1134.11 589.22 1150.97 601.62
00013806 00000085 904.86 144.88 330.03 604.77 1158.26 371.05 1171.65 383.74 1247.77 500.79 1127.09 594.50 1144.79 607.56
00013807 DELETE   900.82 135.25 330.07 609.14 1157.30 372.86 1174.04 388.84 1248.21 499.12 1128.11 591.41 1146.41 607.32
00013808 DELETE   891.78 137.80 337.65 607.89 1153.72 377.65 1183.34 386.23 1245.84 499.97 1123.50 587.81 1156.46 596.13
00013809 00000088 880.89 137.02 349.25 604.31 1142.63 367.47 1179.69 377.49 1242.81 488.42 1113.36 579.12 1148.73 589.87
00013810 00000089 868.96 131.32 358.31 605.42 1130.04 354.22 1173.63 366.61 1239.47 475.05 1103.31 571.25 1141.83 585.16
00013811 00000090 853.60 128.50 370.39 614.46 1123.77 349.59 1167.82 369.76 1233.89 470.65 1092.40 567.09 1132.60 587.64
00013812 00000091 845.40 124.62 378.38 622.48 1116.52 347.08 1163.23 369.33 1231.30 469.27 1084.34 568.11 1125.58 590.60
00013813 00000092 834.37 126.27 388.00 622.58 1113.09 344.80 1165.38 371.72 1228.49 468.69 1083.32 568.25 1127.42 594.10
00013814 00000093 830.48 124.84 391.85 630.85 1110.49 342.88 1162.29 373.17 1228.59 467.56 1075.76 567.15 1120.78 596.17
00013815 00000094 826.22 122.51 395.74 634.78 1105.92 341.95 1157.27 369.02 1227.41 467.73 1071.18 569.07 1116.13 595.72
00013816 00000095 829.05 120.68 392.79 637.58 1104.53 342.81 1154.32 367.47 1225.83 464.25 1070.74 566.72 1115.96 591.34
00013817 00000096 819.88 110.85 404.59 650.83 1102.29 338.78 1153.18 363.45 1226.99 463.03 1070.94 569.85 1114.14 594.16
00013818 00000097 821.99 113.10 402.68 650.27 1101.79 336.16 1150.49 358.98 1229.79 464.64 1068.19 572.98 1108.75 596.74
00013819 00000098 819.22 109.93 405.29 650.80 1099.20 333.27 1150.19 353.47 1228.88 464.24 1068.69 573.68 1108.23 595.00
00013820 00000099 815.25 109.84 406.62 644.07 1097.28 336.24 1149.31 351.58 1226.99 462.02 1076.91 572.91 1115.54 589.42
00013821 00000100 812.85 106.40 404.77 638.07 1097.17 337.99 1150.48 350.21 1226.15 460.89 1088.20 573.80 1126.19 587.21
00013822 00000101 813.29 103.39 405.19 639.17 1098.61 337.63 1148.06 351.27 1227.12 460.71 1092.59 573.13 1127.75 588.06
00013823 00000102 817.52 93.79 399.36 651.63 1105.33 344.38 1150.45 360.14 1231.09 463.44 1095.92 574.72 1127.53 591.53
00013824 00000103 822.64 92.64 393.90 655.09 1111.06 349.79 1149.57 363.38 1235.08 463.59 1099.83 576.75 1128.98 591.75
00013825 00000104 824.76 95.47 389.92 652.61 1114.27 357.14 1145.39 366.07 1235.57 466.72 1101.28 579.38 1128.18 590.52
00013826 00000105 841.24 87.06 373.01 662.92 1118.65 353.02 1149.54 361.81 1235.12 478.38 1107.12 586.26 1134.97 596.88
00013827 00000106 845.43 88.74 370.15 660.45 1122.03 351.78 1149.93 362.52 1237.00 479.40 1110.19 586.20 1136.50 598.33
00013828 00000107 845.42 86.94 370.99 663.06 1122.80 349.86 1152.70 362.35 1237.26 479.84 1110.62 586.60 1137.25 600.23
00013829 00000108 842.28 90.10 375.46 661.71 1121.85 348.89 1155.09 362.37 1236.86 480.82 1108.63 587.34 1137.07 602.00
00013830 00000109 830.73 100.10 391.11 650.22 1115.27 347.49 1154.09 363.80 1234.25 467.89 1093.18 576.70 1124.93 594.55
00013831 00000110 835.14 101.28 390.59 656.92 1116.52 343.38 1156.52 363.84 1232.38 467.04 1083.41 571.51 1119.28 592.90
00013832 00000111 837.61 95.71 388.19 654.88 1120.58 344.24 1154.95 362.08 1233.99 466.36 1088.29 566.80 1120.39 586.09
00013833 00000112 851.18 97.21 372.48 650.30 1126.94 343.15 1154.03 355.54 1241.11 473.64 1099.13 574.84 1129.10 589.64
00013834 00000113 846.12 92.98 378.12 657.84 1124.53 344.48 1153.36 361.18 1231.32 466.90 1091.02 568.07 1118.38 586.13
00013835 00000114 853.57 99.97 371.74 660.79 1126.36 341.55 1153.91 359.66 1232.66 470.06 1084.46 571.51 1112.91 591.17
00013836 00000115 859.73 102.00 368.45 665.53 1126.41 339.03 1153.57 354.59 1232.15 471.08 1081.04 576.31 1109.40 593.87
00013837 00000116 864.12 103.75 366.05 664.55 1128.95 339.91 1156.74 356.24 1232.93 473.16 1078.51 575.93 1108.99 594.09
00013838 00000117 868.77 103.85 363.39 659.30 1130.62 341.53 1158.13 354.74 1234.28 473.41 1080.08 574.97 1110.57 590.69
00013839 00000118 869.40 101.23 360.54 649.19 1133.14 342.33 1157.14 351.56 1235.78 468.84 1090.74 571.54 1116.03 584.11
00013840 00000119 877.47 99.03 352.78 647.14 1140.40 332.48 1159.32 345.10 1246.91 470.80 1099.00 572.95 1118.89 589.09
00013841 00000120 878.68 104.35 353.07 640.31 1139.26 334.39 1158.22 343.13 1246.22 468.20 1102.68 574.08 1121.85 586.88
00013842 00000121 871.02 109.34 355.83 632.02 1131.20 339.21 1153.22 340.02 1235.72 462.17 1101.99 568.57 1123.49 574.14
00013843 00000122 869.24 109.81 355.57 631.91 1129.41 334.88 1149.08 337.56 1234.79 459.53 1103.50 566.13 1124.04 573.42
00013844 00000123 875.84 116.25 349.25 617.73 1130.12 329.42 1149.67 337.56 1241.95 461.96 1113.87 571.25 1129.22 582.74
00013845 00000124 874.86 115.92 348.66 611.84 1128.73 324.85 1146.47 336.13 1239.89 455.61 1114.76 563.65 1129.43 577.70
00013846 00000125 864.16 111.79 355.00 610.80 1121.32 324.89 1140.79 334.50 1237.54 452.56 1111.01 559.29 1127.68 572.13
00013847 00000126 857.90 102.94 355.48 622.09 1114.61 324.95 1135.64 334.05 1235.35 455.24 1090.66 555.25 1112.09 569.65
00013848 00000127 848.24 100.11 363.00 625.75 1110.23 325.70 1132.26 334.72 1231.87 453.82 1088.09 555.21 1109.65 569.07
00013849 00000128 838.07 103.76 370.28 622.21 1108.32 323.30 1134.34 334.51 1228.21 451.51 1086.56 554.07 1109.94 569.23
00013850 00000129 831.50 112.94 373.94 608.27 1102.54 323.08 1133.81 336.93 1224.27 451.05 1084.77 550.30 1110.32 567.21
00013851 00000130 815.22 106.82 387.45 620.46 1088.33 321.33 1120.16 332.75 1214.79 433.25 1079.96 544.56 1112.27 557.97
00013852 00000131 811.66 105.36 387.32 623.25 1088.27 323.07 1122.25 338.06 1213.79 434.50 1075.03 543.21 1109.08 559.36
00013853 00000132 814.03 103.82 387.20 636.90 1087.51 318.22 1121.85 336.38 1216.78 434.74 1064.85 545.15 1098.88 564.67
00013854 00000133 817.33 100.90 385.00 640.97 1089.00 319.32 1123.05 337.78 1217.30 438.84 1060.84 546.59 1094.59 566.60
00013855 00000134 816.42 94.17 385.51 644.85 1091.30 322.17 1123.49 339.29 1217.76 442.88 1060.75 547.74 1093.42 566.67
00013856 00000135 813.43 98.54 386.92 628.75 1089.54 329.16 1125.40 339.23 1214.81 443.92 1072.19 549.93 1107.79 562.28
00013857 00000136 812.57 106.50 388.38 603.97 1098.14 328.57 1138.79 335.86 1216.91 453.41 1086.75 553.40 1119.08 564.05
00013858 00000137 812.06 108.46 392.44 604.23 1096.83 330.68 1138.36 337.18 1218.17 454.54 1094.47 557.10 1125.98 566.71
00013859 00000138 809.74 105.82 395.56 609.04 1092.95 335.90 1140.43 339.22 1215.86 457.66 1100.31 564.92 1133.93 570.89
00013860 00000139 812.28 102.65 395.99 620.37 1093.31 338.95 1138.80 341.14 1217.95 459.93 1096.69 567.89 1131.52 573.80
00013861 00000140 809.93 104.35 403.13 631.38 1093.82 337.23 1139.23 342.63 1218.42 462.87 1086.65 569.99 1122.24 579.95
00013862 00000141 812.14 107.29 404.33 639.94 1088.34 328.58 1141.69 346.76 1212.51 453.87 1076.09 566.28 1112.67 584.44
00013863 00000142 808.07 111.49 407.41 634.68 1084.90 332.05 1141.40 351.13 1210.63 455.80 1070.64 565.88 1109.98 584.64
00013864 00000143 804.88 111.66 406.59 628.43 1086.04 335.41 1142.73 355.64 1210.44 458.98 1070.49 564.17 1109.65 583.76
00013865 00000144 805.89 112.12 402.99 626.93 1087.62 338.67 1143.16 361.21 1209.82 461.71 1068.54 562.86 1109.42 584.54
00013866 00000145 807.00 113.99 402.37 631.05 1091.44 343.13 1144.22 364.40 1213.70 465.02 1073.45 567.71 1112.94 588.23
00013867 00000146 815.60 108.17 394.45 641.62 1102.73 351.06 1146.59 370.67 1220.92 471.88 1084.67 577.18 1117.50 596.48
00013868 DELETE   824.86 98.37 386.11 656.36 1109.52 357.72 1147.96 369.65 1224.24 485.85 1100.31 590.61 1130.44 604.03
00013869 00000148 838.63 98.52 371.12 656.45 1120.13 359.77 1149.64 369.53 1228.03 488.57 1111.87 598.80 1135.74 609.49
CROP_BBOX: 462 0 1545 981
