Video ID: 	5nhUWziMwGA
H: 	1080
W: 	1920
FPS: 	25.0

FRAME INDEX X0 Y0 W H [Landmarks (5 Points)]

00005164 00000000 840.29 294.81 468.03 602.16 926.06 544.58 1115.90 515.69 1015.17 669.40 994.22 757.04 1155.62 729.41
00005165 DELETE   831.50 302.99 467.54 606.80 914.76 551.52 1096.30 519.61 997.52 678.57 989.58 769.62 1140.97 739.93
00005166 00000002 828.48 298.69 459.82 625.30 906.57 557.10 1084.95 528.43 981.64 683.56 978.31 776.63 1130.94 750.25
00005167 00000003 824.18 316.31 462.35 612.80 905.86 561.04 1088.05 538.38 984.02 694.42 971.58 778.36 1132.10 757.24
00005168 00000004 826.67 314.93 465.11 613.56 914.72 562.49 1097.37 540.02 996.04 700.73 981.70 779.28 1141.18 757.87
00005169 00000005 829.30 308.63 468.31 619.88 919.60 561.20 1101.50 535.70 1001.65 696.93 987.54 778.46 1146.74 754.17
00005170 00000006 827.49 301.95 467.40 624.61 914.97 560.29 1096.13 530.39 997.79 691.47 985.76 776.81 1146.22 748.85
00005171 00000007 824.31 304.07 463.88 616.75 907.08 558.99 1087.82 527.49 989.92 686.11 978.78 774.01 1136.70 745.35
00005172 00000008 823.63 302.17 462.06 611.02 903.01 556.59 1081.72 526.51 984.47 684.13 975.88 769.73 1131.21 741.96
00005173 00000009 826.47 301.70 462.34 602.35 907.48 550.68 1088.22 518.04 993.58 678.16 985.63 768.11 1135.19 738.20
00005174 DELETE   833.64 294.14 467.56 599.83 917.54 542.15 1103.75 511.22 1005.99 671.54 997.95 763.57 1145.77 734.03
00005175 00000011 844.24 274.42 470.14 626.42 934.50 529.92 1121.11 500.34 1020.98 660.79 1001.99 744.76 1158.16 719.39
00005176 DELETE   846.55 262.18 467.99 620.92 933.84 521.17 1119.18 492.32 1015.50 649.82 997.54 735.76 1152.03 710.74
00005177 DELETE   839.80 253.29 472.25 625.67 925.04 515.58 1106.24 489.72 999.47 646.43 988.59 729.47 1137.89 706.35
00005178 00000014 838.76 251.59 468.91 625.50 917.89 510.06 1098.88 486.36 987.99 642.72 983.07 729.02 1127.43 707.76
00005179 DELETE   839.21 240.08 470.94 633.12 923.16 505.63 1104.47 479.25 995.00 635.11 985.38 724.81 1130.99 701.13
00005180 DELETE   852.41 229.28 465.90 629.34 926.59 499.33 1108.70 468.21 1003.82 621.53 995.71 718.20 1138.15 692.39
00005181 00000017 854.76 220.88 464.65 639.77 936.96 487.74 1124.66 453.93 1017.70 601.23 999.33 713.20 1146.50 683.92
00005182 00000018 855.94 225.14 468.19 622.24 937.18 482.58 1116.24 444.95 1015.53 587.29 1011.62 702.89 1145.08 671.42
00005183 00000019 863.20 212.92 457.70 626.22 937.73 473.32 1116.85 432.11 1011.76 577.23 1005.08 694.63 1143.32 660.23
00005184 00000020 863.71 190.86 462.70 642.18 942.35 463.00 1117.95 423.30 1017.08 566.96 1008.13 682.40 1146.66 648.75
00005185 DELETE   869.67 186.07 464.56 638.42 949.64 448.14 1128.74 409.59 1029.37 552.10 1013.17 667.10 1160.76 634.66
00005186 00000022 873.36 173.69 464.13 640.80 958.85 428.78 1145.95 395.77 1037.83 530.42 1012.17 651.19 1177.37 623.56
00005187 00000023 871.55 163.39 461.70 638.32 956.58 422.45 1142.42 388.54 1035.58 520.75 1010.06 641.78 1172.04 612.96
00005188 00000024 870.01 155.34 468.86 638.60 947.51 424.89 1130.25 386.29 1019.49 512.74 1001.08 636.89 1152.48 604.67
00005189 00000025 870.29 158.12 464.95 631.05 943.60 423.46 1122.68 381.40 1010.28 504.19 995.63 632.78 1146.92 597.79
00005190 00000026 871.62 150.51 464.51 628.94 942.64 414.81 1124.83 374.74 1010.05 495.65 995.35 625.69 1148.16 592.21
00005191 00000027 874.62 145.39 459.19 624.30 947.24 406.13 1129.71 367.26 1017.52 486.65 999.72 616.93 1150.98 584.39
00005192 00000028 873.36 137.67 460.58 627.36 944.49 403.41 1130.31 355.39 1018.57 476.30 999.32 612.40 1154.44 572.16
00005193 00000029 870.76 138.67 460.64 620.84 940.76 403.30 1124.91 355.27 1011.64 470.49 992.74 606.37 1150.40 565.71
00005194 00000030 868.48 136.91 460.37 618.97 937.37 403.97 1118.62 357.25 1002.56 469.62 987.01 603.96 1142.82 564.37
00005195 00000031 867.77 134.06 459.61 615.87 934.80 402.66 1113.22 357.11 993.90 466.79 981.89 599.51 1135.80 560.70
00005196 00000032 866.43 131.96 458.89 614.69 933.20 400.46 1109.05 356.11 989.76 465.74 980.17 597.76 1130.11 559.97
00005197 00000033 863.13 128.76 458.05 619.77 931.40 400.48 1106.58 357.20 986.54 463.61 976.74 598.13 1125.32 561.34
00005198 00000034 860.30 131.73 456.34 615.54 928.05 400.79 1104.98 359.34 984.66 463.98 972.27 600.11 1120.03 564.96
00005199 00000035 859.52 133.67 456.39 618.06 925.34 400.81 1102.81 359.42 979.36 463.55 967.58 602.05 1117.38 566.78
00005200 00000036 856.79 140.55 457.67 618.62 921.53 398.76 1100.67 357.19 973.96 465.96 957.91 602.92 1111.74 567.17
00005201 DELETE   855.28 143.49 457.53 619.30 915.92 407.57 1096.75 362.91 970.89 473.58 961.26 615.15 1112.22 578.84
00005202 00000038 857.91 143.80 451.49 617.93 917.74 403.29 1100.22 367.95 968.59 465.49 955.02 610.02 1103.87 579.94
00005203 00000039 857.68 144.65 451.24 617.65 915.62 407.32 1096.70 368.64 963.70 466.24 954.20 613.97 1101.30 581.14
00005204 00000040 854.60 146.90 461.91 620.80 918.01 414.71 1095.99 372.58 969.04 477.14 957.85 618.22 1107.14 584.51
00005205 00000041 856.41 142.27 463.98 624.59 919.97 412.53 1096.80 371.43 969.59 476.00 960.64 618.04 1108.65 584.81
00005206 00000042 861.96 141.05 461.97 625.21 924.98 412.38 1098.21 370.74 972.09 476.06 967.26 618.10 1110.46 584.35
00005207 00000043 867.50 137.99 460.53 631.40 929.07 410.96 1103.42 370.58 974.27 476.74 971.20 619.35 1114.49 586.23
00005208 00000044 871.31 138.03 458.66 629.84 933.40 409.34 1107.71 373.42 975.90 473.40 972.63 618.20 1112.54 587.92
00005209 00000045 874.99 138.25 461.15 636.39 936.76 412.78 1109.22 373.89 979.28 481.55 978.23 623.03 1118.66 591.10
00005210 00000046 879.51 140.38 458.89 632.39 940.68 412.83 1111.88 372.64 983.90 481.74 982.88 623.99 1121.65 591.15
00005211 00000047 885.31 140.90 455.78 631.64 944.93 413.95 1115.82 371.90 987.08 481.00 986.68 625.57 1124.56 591.44
00005212 00000048 887.67 143.64 454.79 628.15 947.22 414.29 1117.42 372.54 989.91 481.29 988.75 624.30 1127.98 590.38
00005213 00000049 892.47 145.53 450.74 625.22 951.21 413.43 1120.18 371.96 992.05 479.94 992.24 623.27 1129.63 589.70
00005214 00000050 893.20 142.42 450.93 627.61 951.94 412.83 1121.94 370.82 994.24 479.92 993.44 622.47 1132.08 588.41
00005215 00000051 894.61 142.83 450.24 623.81 953.41 412.24 1123.37 371.48 996.18 479.44 994.91 621.27 1132.86 588.26
00005216 00000052 895.93 143.11 450.45 624.84 954.56 411.85 1125.67 372.02 998.04 479.66 994.89 621.70 1133.08 589.46
00005217 00000053 896.29 145.63 449.45 622.61 954.97 411.96 1127.28 374.14 1000.81 482.22 995.39 621.63 1136.16 590.91
00005218 00000054 895.59 145.66 449.91 622.53 955.06 411.67 1126.95 374.65 1001.79 484.24 996.12 622.40 1135.94 592.33
00005219 00000055 895.67 145.65 449.87 624.24 954.20 412.77 1126.61 374.57 1000.23 484.74 995.30 623.86 1134.99 592.93
00005220 00000056 892.08 142.88 451.51 627.39 952.18 413.84 1124.47 375.44 997.77 484.44 993.35 624.38 1130.87 593.39
00005221 00000057 890.93 143.72 451.30 628.01 950.96 414.37 1123.34 375.32 994.89 484.46 991.34 625.68 1129.67 594.26
00005222 00000058 888.60 145.92 453.22 624.83 948.91 414.12 1120.99 374.74 994.34 483.51 989.79 625.04 1127.76 593.30
00005223 00000059 885.41 145.40 455.84 625.08 946.75 414.91 1120.74 374.52 994.43 483.96 988.74 625.68 1128.45 593.10
00005224 00000060 881.56 146.58 458.75 626.06 944.85 417.23 1117.59 375.47 992.63 485.72 988.26 628.34 1126.41 594.61
00005225 00000061 881.60 143.35 458.43 630.23 943.54 417.22 1116.29 374.77 991.41 486.32 987.44 628.70 1125.71 594.43
00005226 00000062 877.72 145.02 462.33 631.41 942.97 416.88 1114.84 375.15 990.04 486.99 988.46 629.77 1125.20 595.88
00005227 00000063 876.78 144.21 462.28 636.55 943.60 418.42 1113.65 374.63 990.78 486.78 992.20 631.51 1126.94 595.68
00005228 00000064 877.03 147.24 463.09 634.21 943.68 420.70 1115.02 375.50 993.63 488.98 993.83 632.82 1130.93 595.95
00005229 00000065 874.28 147.52 465.19 634.96 943.89 421.72 1115.81 375.86 998.64 491.11 995.78 632.13 1135.20 594.28
00005230 00000066 876.77 150.09 461.99 632.89 946.72 421.09 1118.93 377.19 1004.75 494.94 999.41 631.18 1140.56 594.73
00005231 00000067 879.24 148.58 462.02 635.03 949.08 421.08 1123.64 378.56 1010.11 496.86 1000.80 629.32 1147.38 593.90
00005232 00000068 877.55 154.17 464.58 629.59 949.67 426.37 1125.40 383.19 1015.10 501.34 1002.91 630.78 1150.53 594.81
00005233 00000069 877.38 151.92 464.59 631.02 949.53 427.59 1123.01 387.57 1011.01 506.59 1002.54 632.64 1148.93 599.30
00005234 00000070 877.17 153.74 462.12 635.17 949.27 427.96 1120.68 391.98 1007.28 510.05 997.32 637.28 1139.03 607.71
00005235 00000071 882.86 150.87 456.50 644.09 952.98 427.92 1125.93 397.07 1012.57 518.76 998.76 639.63 1143.03 614.17
00005236 DELETE   890.29 156.77 455.91 648.27 963.25 434.62 1137.19 407.44 1022.41 531.04 1009.54 645.98 1159.27 622.94
00005237 DELETE   890.78 171.83 447.36 637.33 968.61 433.52 1146.15 409.20 1034.18 534.55 1014.44 650.37 1171.18 629.60
00005238 DELETE   885.95 179.23 448.37 628.63 961.58 443.11 1142.75 419.07 1028.71 545.14 1006.33 653.90 1165.22 633.54
00005239 00000075 884.00 173.28 454.66 641.14 957.04 455.08 1131.06 430.82 1019.50 557.48 1004.64 660.22 1150.53 639.54
00005240 00000076 882.85 178.12 450.54 640.64 957.43 451.86 1137.98 429.60 1024.29 559.13 1000.84 661.03 1161.11 642.22
00005241 00000077 886.29 180.37 448.74 643.32 959.09 450.21 1137.99 427.84 1025.66 560.44 1006.73 666.34 1163.13 647.60
00005242 00000078 886.21 182.78 450.80 642.65 959.44 450.77 1138.35 427.06 1026.04 561.93 1009.59 669.95 1163.07 650.19
00005243 00000079 887.46 178.76 447.88 641.46 959.15 448.25 1137.49 427.36 1023.69 560.43 1006.73 665.97 1159.53 648.45
00005244 00000080 886.45 178.12 446.74 636.91 958.85 446.13 1135.07 426.89 1021.89 557.20 1005.02 662.15 1154.69 645.97
00005245 00000081 886.47 174.12 447.54 635.81 957.91 442.37 1135.04 421.92 1020.64 550.18 1003.76 658.26 1153.45 641.08
00005246 00000082 885.15 172.54 449.21 631.39 956.87 435.07 1133.46 414.83 1018.28 543.29 1003.27 653.09 1149.64 635.84
00005247 00000083 885.31 165.50 448.63 633.45 955.17 430.50 1132.39 410.40 1012.92 535.68 997.53 648.59 1141.02 631.44
00005248 00000084 884.73 156.50 449.20 637.44 954.78 426.73 1133.83 405.53 1015.08 530.07 995.21 644.88 1137.86 626.98
00005249 00000085 883.90 148.51 458.09 641.92 954.37 427.89 1126.85 402.81 1009.79 522.52 999.66 639.76 1134.45 619.74
00005250 00000086 884.43 148.69 456.75 645.88 956.09 424.42 1125.56 397.04 1009.45 514.78 1001.02 640.41 1129.29 618.66
00005251 00000087 886.78 149.67 458.67 655.10 956.47 425.65 1126.35 391.25 1008.80 513.22 1006.01 643.27 1147.11 614.65
00005252 00000088 888.76 148.33 457.55 651.11 956.93 422.91 1127.88 388.21 1010.49 511.97 1007.39 638.90 1152.37 609.84
00005253 00000089 888.06 147.94 458.46 643.20 956.35 421.75 1127.99 387.09 1011.02 509.43 1004.68 634.82 1148.33 606.12
00005254 00000090 885.03 150.86 455.20 639.05 955.79 414.33 1134.89 382.16 1015.76 508.14 1000.60 634.84 1149.06 606.73
00005255 00000091 888.52 147.14 458.21 634.17 956.06 418.78 1127.45 384.18 1010.86 502.99 1004.28 630.07 1141.66 601.61
00005256 00000092 888.79 149.35 457.01 624.60 955.94 415.55 1130.82 383.54 1013.06 502.27 1003.88 627.65 1139.10 601.54
00005257 00000093 890.46 145.70 453.29 623.61 957.54 413.66 1131.42 382.34 1014.22 500.29 1004.95 624.25 1137.26 598.74
00005258 00000094 891.70 143.60 451.25 624.70 959.72 411.03 1131.13 379.72 1015.07 497.23 1007.51 624.05 1135.65 598.62
00005259 00000095 891.56 143.91 450.53 622.25 959.87 410.55 1131.83 379.38 1015.55 495.71 1008.11 623.41 1135.53 598.08
00005260 00000096 893.29 141.37 449.16 621.37 960.60 409.53 1132.32 379.55 1016.47 495.71 1008.15 622.13 1136.52 597.64
00005261 00000097 891.98 139.31 450.31 624.76 962.05 408.75 1132.96 378.50 1017.39 493.35 1009.70 622.52 1134.98 597.82
00005262 00000098 893.20 136.58 449.03 627.58 964.54 406.96 1133.48 377.04 1019.27 493.09 1012.77 622.47 1135.75 598.00
00005263 00000099 892.29 137.33 450.26 628.18 964.41 406.47 1133.44 376.73 1018.93 492.09 1012.38 622.88 1134.43 598.62
00005264 00000100 891.50 138.54 450.51 626.30 963.27 406.55 1132.38 377.23 1016.81 490.75 1010.88 622.54 1131.04 598.58
00005265 00000101 888.45 138.73 452.84 622.89 958.02 409.12 1130.15 376.39 1014.43 491.37 1006.92 622.67 1132.71 595.81
00005266 00000102 886.92 138.62 453.30 625.06 955.92 408.92 1128.23 375.79 1011.66 490.84 1003.95 620.75 1131.76 593.54
00005267 00000103 884.32 137.11 453.88 627.43 953.97 410.28 1125.22 375.62 1010.44 491.12 1004.30 622.82 1129.60 594.30
00005268 00000104 884.48 140.58 452.93 624.08 954.33 410.24 1124.46 376.09 1009.63 491.25 1005.92 624.26 1126.31 596.26
00005269 00000105 884.32 140.95 453.47 624.23 953.51 411.38 1124.98 376.70 1009.35 492.87 1005.60 625.45 1128.31 597.11
00005270 00000106 883.66 140.34 453.87 622.31 951.46 412.17 1125.02 377.68 1008.20 493.53 1002.01 625.58 1127.59 597.50
00005271 00000107 881.10 137.90 457.81 620.98 950.57 406.90 1125.84 375.13 1009.58 492.06 999.64 625.80 1120.79 600.59
00005272 00000108 880.26 139.71 457.93 630.78 950.64 409.03 1121.85 374.72 1006.59 491.74 1001.44 626.80 1123.85 598.91
00005273 00000109 879.53 139.56 457.97 629.99 950.36 408.27 1123.68 374.13 1009.50 492.90 1002.44 627.50 1128.26 599.56
00005274 00000110 878.67 136.68 458.54 632.85 950.26 408.20 1123.37 373.67 1009.87 492.28 1002.64 626.85 1128.46 598.59
00005275 00000111 879.66 139.64 457.89 629.03 950.92 407.56 1124.28 373.69 1010.79 493.02 1003.42 626.73 1130.90 599.02
00005276 00000112 882.03 137.83 456.07 630.29 952.06 408.17 1125.27 374.41 1011.86 493.17 1003.44 626.41 1131.61 598.75
00005277 00000113 882.53 137.93 455.32 628.67 953.99 406.78 1126.79 374.34 1014.26 492.40 1005.13 625.25 1133.08 598.63
00005278 00000114 882.41 138.06 456.35 628.39 954.75 406.74 1126.96 374.53 1014.75 492.48 1005.74 624.51 1132.94 598.01
00005279 00000115 882.78 137.28 455.83 628.38 954.97 406.67 1127.17 374.26 1015.11 492.17 1006.07 624.66 1133.58 597.97
00005280 00000116 883.34 139.79 455.74 625.97 955.33 406.02 1128.04 374.70 1014.35 492.14 1005.88 623.97 1133.02 598.23
00005281 00000117 883.58 138.45 455.33 627.23 955.53 405.44 1127.83 374.32 1014.56 492.43 1006.33 623.64 1133.34 598.03
00005282 00000118 883.29 137.43 455.17 627.60 955.12 405.81 1127.20 374.18 1013.83 491.82 1005.91 623.19 1132.78 597.18
00005283 00000119 882.86 137.76 454.40 625.22 954.74 405.98 1126.46 373.95 1013.81 491.58 1005.94 623.08 1132.13 596.74
00005284 00000120 882.14 136.21 454.41 625.52 953.84 405.56 1126.71 372.18 1013.63 489.96 1005.14 620.89 1134.20 593.36
00005285 00000121 881.48 135.64 454.73 622.83 952.74 398.48 1137.27 372.22 1014.79 487.89 992.53 612.31 1138.81 590.93
00005286 00000122 882.36 134.11 453.88 623.43 954.15 400.26 1139.43 374.84 1015.65 489.05 992.04 612.67 1139.35 592.05
00005287 00000123 882.27 132.40 454.13 624.23 954.16 398.81 1139.75 373.83 1016.25 488.74 991.08 609.58 1141.25 589.34
00005288 00000124 882.17 134.97 454.67 623.89 953.90 397.15 1140.19 371.41 1015.84 487.20 990.69 608.20 1143.23 587.31
00005289 00000125 881.82 135.14 454.85 620.95 953.96 396.44 1139.44 371.03 1016.11 486.40 991.11 605.38 1143.27 584.71
00005290 00000126 881.77 129.51 453.57 625.98 953.75 395.78 1138.36 371.73 1015.29 486.64 989.81 604.09 1141.75 584.63
00005291 00000127 882.66 127.35 457.17 626.98 949.98 401.11 1128.04 371.08 1013.44 491.37 995.99 609.98 1135.48 585.39
00005292 00000128 884.47 123.98 454.16 631.36 950.89 400.04 1125.20 368.44 1010.78 488.27 998.66 611.64 1132.60 585.73
00005293 00000129 884.22 125.16 449.63 626.10 954.68 388.48 1135.87 362.24 1014.93 479.03 994.14 602.16 1141.50 580.96
00005294 00000130 890.47 114.52 448.04 628.04 957.16 386.06 1135.82 357.00 1020.35 470.11 1002.85 598.26 1140.86 574.75
00005295 00000131 893.63 116.79 448.31 629.00 968.42 377.26 1144.78 346.29 1031.47 457.61 1018.36 596.01 1145.63 571.06
00005296 00000132 895.60 121.15 452.91 638.61 980.18 375.69 1155.02 344.30 1044.91 452.22 1031.85 601.52 1150.24 575.62
00005297 00000133 892.25 128.73 448.22 633.38 980.17 374.72 1164.22 342.67 1061.80 452.80 1040.68 613.33 1163.42 586.46
00005298 00000134 899.06 131.74 448.41 629.25 982.45 374.41 1164.39 344.75 1058.45 458.44 1039.13 609.57 1170.46 584.20
00005299 00000135 900.45 128.29 445.92 626.65 981.61 374.91 1163.86 345.62 1057.33 461.62 1036.97 607.95 1170.51 582.92
00005300 00000136 897.77 136.85 444.09 618.30 983.98 379.58 1161.46 351.84 1058.44 462.37 1037.66 605.06 1168.82 581.43
00005301 00000137 898.76 138.51 442.90 618.62 984.80 383.43 1162.49 355.32 1057.06 463.44 1035.84 607.09 1167.31 583.55
00005302 00000138 896.77 136.05 445.84 625.54 984.29 382.13 1165.27 355.07 1057.95 468.95 1035.77 609.47 1170.69 586.68
00005303 00000139 895.09 143.78 445.10 624.51 979.22 392.28 1162.39 364.91 1055.59 481.93 1031.04 620.48 1164.89 597.41
00005304 DELETE   886.99 144.75 453.39 636.31 975.00 402.84 1159.14 372.33 1054.37 497.54 1031.70 630.18 1170.89 603.98
CROP_BBOX: 520 0 1721 1080
