Video ID: 	eN_LqdKe6mk
H: 	1080
W: 	1920
FPS: 	29.97002997002997

FRAME INDEX X0 Y0 W H [Landmarks (5 Points)]

00075435 00000000 647.82 185.05 438.59 615.27 786.54 420.99 963.27 446.07 865.73 526.87 784.29 625.02 921.91 647.06
00075436 00000001 651.69 181.08 429.27 614.34 780.45 420.20 958.32 442.09 859.58 524.79 781.94 624.87 919.39 644.20
00075437 DELETE   652.10 180.70 428.67 614.84 780.46 420.27 958.22 442.27 859.69 524.74 781.85 624.88 919.57 644.28
00075438 00000003 643.88 180.08 422.98 603.54 774.62 418.29 947.11 439.12 851.15 525.28 779.44 621.65 919.95 638.21
00075439 00000004 641.99 178.45 418.14 599.69 770.10 416.84 942.02 434.71 847.18 520.80 776.48 618.21 917.48 632.57
00075440 00000005 640.86 167.24 416.99 611.31 769.67 415.19 939.33 433.76 847.57 517.62 775.43 615.89 915.87 630.56
00075441 00000006 637.67 168.80 419.87 609.00 768.45 414.24 939.07 431.71 847.59 514.75 774.40 614.27 916.50 627.97
00075442 00000007 637.81 169.18 419.80 607.73 768.47 414.13 939.05 431.49 847.49 514.57 774.50 614.04 916.12 627.70
00075443 00000008 637.49 167.61 419.62 609.19 768.22 413.52 938.04 429.74 846.96 514.67 774.56 614.33 915.27 627.04
00075444 00000009 636.95 167.86 420.50 609.74 767.98 413.83 938.77 429.97 847.31 514.30 774.21 614.70 915.92 627.32
00075445 00000010 637.49 167.34 419.92 610.68 768.55 414.78 939.93 431.46 848.84 515.24 775.48 615.73 917.44 628.78
00075446 00000011 638.66 167.41 419.78 616.31 769.85 415.17 940.33 431.62 848.65 515.86 776.22 619.46 916.91 632.64
00075447 00000012 638.56 167.86 419.65 616.13 769.70 415.43 939.97 431.48 848.75 515.96 776.27 619.83 916.71 632.65
00075448 00000013 640.78 171.17 421.19 620.57 772.47 416.05 944.34 432.99 851.46 520.57 777.76 622.85 922.10 636.35
00075449 00000014 640.93 177.39 425.23 621.81 780.06 417.86 951.77 434.68 860.63 524.31 783.76 627.38 929.14 640.42
00075450 00000015 643.82 175.05 432.98 637.14 782.07 419.02 960.54 436.62 873.05 524.66 785.73 631.52 933.72 647.23
00075451 00000016 641.56 170.72 426.64 643.70 785.17 420.91 960.54 434.89 873.87 529.87 789.73 636.55 941.06 647.30
00075452 00000017 641.87 170.67 426.15 643.75 785.20 420.71 960.33 434.83 873.85 529.68 789.57 636.35 940.75 647.26
00075453 00000018 641.06 170.59 427.57 643.89 785.40 418.89 961.19 431.64 874.86 526.12 790.22 633.71 943.51 643.19
00075454 00000019 639.72 168.81 428.63 640.26 782.66 418.05 959.67 429.19 873.82 520.23 787.97 627.17 946.41 635.00
00075455 00000020 637.42 170.32 433.03 635.78 775.48 419.01 954.95 426.98 867.66 518.47 784.48 628.07 944.33 632.99
00075456 00000021 626.80 173.69 437.55 640.26 759.73 429.81 941.17 427.06 857.94 529.16 784.73 640.02 942.38 636.05
00075457 DELETE   626.98 173.90 437.66 639.56 759.77 429.89 941.33 427.07 857.82 529.01 784.65 639.97 942.31 635.96
00075458 00000023 619.57 188.97 433.41 635.72 750.39 444.92 923.87 432.93 856.55 532.51 789.35 651.15 939.44 638.26
00075459 00000024 616.54 192.37 430.75 636.71 742.96 449.57 915.21 432.89 849.99 534.69 787.91 656.05 936.08 639.41
00075460 00000025 614.08 190.90 436.76 634.20 743.26 440.90 917.67 425.07 849.48 527.75 788.12 651.76 933.69 635.85
00075461 00000026 617.59 184.39 435.13 628.72 747.26 433.22 916.62 416.83 850.00 514.85 791.83 641.79 930.89 625.58
00075462 00000027 617.52 184.76 435.41 628.23 747.25 433.03 916.67 416.71 849.92 515.11 791.75 641.79 930.71 625.64
00075463 00000028 618.14 166.20 434.80 632.47 751.77 423.95 920.07 412.20 847.45 509.23 787.83 630.12 927.47 620.01
00075464 00000029 621.68 162.36 430.58 623.30 754.63 421.96 921.29 410.77 851.17 507.29 791.53 623.92 926.49 614.13
00075465 00000030 622.05 163.34 430.40 612.29 754.97 423.60 920.96 412.79 850.94 507.79 792.96 620.54 924.96 610.92
00075466 00000031 619.57 168.14 434.53 598.63 750.88 427.84 919.97 418.28 846.35 513.92 789.38 619.08 921.82 610.47
00075467 00000032 619.74 167.69 434.59 599.14 750.85 428.05 919.75 418.23 846.23 513.96 789.51 619.28 921.79 610.43
00075468 00000033 619.87 170.18 436.63 595.23 749.44 429.28 920.52 420.64 843.24 517.77 788.00 619.50 921.64 611.55
00075469 00000034 619.16 175.63 441.21 591.41 746.98 430.03 923.39 422.48 841.06 521.86 785.42 621.87 922.64 614.95
00075470 00000035 621.40 176.55 437.79 592.98 744.94 431.45 922.01 425.34 837.52 524.16 782.51 624.00 920.63 618.39
00075471 00000036 621.88 175.70 438.52 593.68 744.12 430.78 922.12 425.95 836.37 524.60 781.56 624.31 919.84 619.86
00075472 00000037 621.64 175.22 438.14 594.62 743.87 430.27 921.77 425.55 836.14 524.48 781.25 624.16 919.77 619.81
00075473 00000038 623.01 175.94 434.73 597.95 744.11 429.68 919.73 426.03 834.27 524.09 779.76 624.79 916.81 621.44
00075474 00000039 623.36 170.65 434.45 612.58 744.00 426.38 918.89 424.97 832.30 521.34 776.69 625.83 916.33 624.33
00075475 00000040 623.13 167.30 433.38 622.50 743.79 425.66 918.84 423.19 833.07 520.34 775.98 627.50 918.78 625.02
00075476 00000041 621.85 167.27 433.79 624.10 744.12 425.16 918.68 423.40 833.39 520.10 775.27 628.47 916.62 626.75
00075477 00000042 621.30 166.97 434.59 625.03 744.28 425.19 919.22 423.27 833.75 520.03 775.37 628.57 916.96 626.69
00075478 00000043 620.74 166.09 433.76 626.75 743.77 427.14 918.88 425.18 834.46 521.25 776.30 630.00 917.50 628.05
00075479 00000044 619.41 166.34 433.83 617.70 742.94 429.44 917.64 426.28 834.41 522.00 777.15 625.97 916.91 622.81
00075480 00000045 618.73 169.02 434.18 609.90 741.26 431.72 916.71 427.00 832.47 522.72 776.90 623.61 917.02 619.16
00075481 00000046 619.25 171.71 432.74 607.20 739.36 432.86 917.04 427.61 830.84 525.91 772.98 621.68 919.97 616.75
00075482 00000047 618.59 170.91 433.46 607.14 739.23 432.69 917.11 427.66 830.98 525.91 772.90 621.46 919.41 616.70
00075483 00000048 617.23 169.13 434.65 612.76 738.20 434.85 917.12 429.13 830.75 526.04 768.99 621.15 920.32 615.87
00075484 00000049 617.55 171.55 435.43 610.06 737.30 436.31 917.43 430.05 830.45 527.87 768.18 622.04 920.89 616.47
00075485 00000050 616.69 173.85 436.52 613.19 737.01 437.01 915.98 428.92 830.33 529.09 770.84 626.44 921.36 619.22
00075486 00000051 614.23 173.16 437.50 620.36 737.11 436.51 914.22 428.79 830.93 528.84 771.43 628.24 920.87 621.35
00075487 00000052 614.12 173.61 438.27 620.54 737.08 435.75 914.50 427.86 830.89 528.75 771.57 628.38 920.88 621.37
00075488 00000053 619.80 179.91 436.54 616.63 735.85 438.77 913.88 430.17 833.01 528.81 773.32 630.93 920.28 620.94
00075489 00000054 619.49 178.77 435.57 616.35 735.11 438.09 912.91 429.49 832.69 528.63 772.46 629.48 920.60 619.44
00075490 00000055 615.03 172.77 435.28 612.78 735.27 433.34 913.05 427.00 828.08 526.14 767.82 624.02 916.89 618.58
00075491 00000056 613.38 174.87 436.07 600.87 733.64 431.68 911.54 426.77 825.59 525.25 766.24 620.39 911.99 616.36
00075492 00000057 613.23 174.91 436.38 600.97 733.53 431.62 911.45 426.71 825.45 525.16 766.26 620.45 911.99 616.36
00075493 00000058 611.58 175.38 437.45 593.95 733.47 430.88 910.43 425.76 824.36 523.53 767.10 617.85 909.41 613.70
00075494 00000059 610.97 176.42 437.36 591.51 732.73 431.10 910.08 425.50 823.61 523.16 767.01 618.07 908.64 613.42
00075495 00000060 611.48 176.17 434.29 593.58 732.59 431.12 909.02 426.21 823.16 523.79 766.00 619.15 906.73 615.24
00075496 00000061 610.46 176.65 434.13 601.55 732.08 431.57 908.70 425.23 824.36 524.09 766.90 623.33 908.31 618.40
00075497 00000062 610.04 179.71 434.26 598.73 731.71 431.50 908.69 425.13 824.20 524.39 766.26 623.62 908.05 618.79
00075498 00000063 615.17 183.62 432.15 608.78 730.78 436.39 909.12 427.31 828.45 525.55 769.70 632.15 912.48 622.56
00075499 00000064 615.23 183.91 431.74 612.83 730.00 435.90 907.97 426.71 827.64 524.44 769.31 632.65 913.71 622.82
00075500 00000065 615.20 182.41 431.96 614.77 730.16 435.87 907.81 426.69 827.93 524.19 768.92 632.29 914.38 622.52
00075501 00000066 615.19 182.59 431.83 612.75 730.21 436.07 907.96 426.98 828.02 524.02 768.41 630.74 914.51 621.00
00075502 00000067 615.01 182.49 432.18 612.68 730.40 435.94 908.40 426.95 828.33 523.87 768.47 630.65 914.54 620.98
00075503 00000068 614.10 183.69 432.38 608.47 729.73 436.68 907.62 427.49 826.99 524.95 767.74 629.94 912.79 620.14
00075504 00000069 609.49 179.94 434.04 603.56 729.81 434.18 906.94 426.24 822.87 525.76 764.25 625.29 910.15 619.10
00075505 00000070 609.72 180.60 433.10 599.91 730.61 434.50 906.20 427.27 822.12 525.82 764.38 625.07 906.45 619.68
00075506 00000071 609.91 182.43 432.99 596.03 729.99 435.91 905.67 428.50 821.37 526.85 764.57 625.56 905.89 620.07
00075507 00000072 609.81 182.24 433.22 596.18 729.93 436.06 905.68 428.69 821.14 526.93 764.51 625.60 905.90 620.12
00075508 00000073 609.34 187.42 431.95 593.46 729.89 438.66 904.31 430.68 820.85 529.55 764.06 626.35 906.46 620.42
00075509 00000074 613.64 193.61 429.59 592.68 729.06 445.71 902.09 435.29 824.30 531.96 767.85 633.66 904.71 623.33
00075510 00000075 613.95 191.70 429.49 599.22 729.61 449.45 900.81 438.94 825.30 537.04 768.47 637.34 905.94 626.84
00075511 00000076 613.69 194.71 428.71 602.07 729.40 449.16 899.87 439.06 825.68 538.52 769.31 640.86 904.24 630.93
00075512 00000077 613.67 194.37 428.85 602.59 729.56 449.00 900.21 438.91 825.81 538.50 769.44 641.14 904.20 631.26
00075513 00000078 613.60 191.52 427.16 606.14 729.34 446.13 898.62 437.12 824.76 535.27 770.95 642.05 899.89 633.27
00075514 00000079 611.58 189.14 428.04 606.92 726.17 438.34 899.43 431.85 821.14 528.27 768.24 638.95 892.86 632.31
00075515 00000080 608.55 177.02 431.31 606.64 729.81 432.47 899.57 425.38 817.86 524.68 766.13 630.26 895.00 625.57
00075516 00000081 606.42 176.31 433.76 608.15 728.86 430.25 901.29 423.64 817.84 522.27 764.32 626.57 897.85 622.13
00075517 00000082 606.60 177.08 433.72 606.85 728.70 430.14 901.06 423.61 817.62 522.31 764.26 626.68 897.43 622.34
00075518 00000083 605.74 176.11 434.19 609.90 728.37 430.66 899.95 422.35 817.86 522.21 765.79 628.95 897.21 623.28
00075519 00000084 605.97 177.92 434.15 614.12 729.18 433.59 898.26 422.70 819.68 525.50 769.64 635.78 898.15 627.94
00075520 00000085 605.85 181.60 435.16 619.35 729.68 437.94 899.13 425.44 821.63 527.74 769.57 641.82 900.34 632.73
00075521 00000086 609.40 186.57 430.47 626.32 724.47 438.07 898.46 426.09 823.69 525.79 768.51 646.33 898.89 634.99
00075522 00000087 609.35 185.18 430.36 627.37 724.41 438.25 898.65 426.34 823.81 525.93 768.34 646.31 898.94 635.06
00075523 00000088 608.70 184.60 432.58 626.82 724.40 436.43 900.55 426.32 823.55 524.10 766.39 643.12 902.08 633.15
00075524 00000089 609.07 183.01 434.70 620.33 724.93 434.89 901.21 425.15 822.75 523.98 766.19 636.17 905.41 626.11
00075525 00000090 609.57 180.23 434.55 619.00 725.50 434.93 901.94 424.77 822.77 523.42 764.29 632.08 909.50 621.49
00075526 00000091 609.20 180.78 435.30 618.11 725.92 434.37 903.12 424.54 823.18 522.51 764.51 631.02 910.13 620.68
00075527 00000092 609.26 181.66 435.65 617.16 725.98 434.47 902.98 424.53 823.13 522.27 764.54 630.86 910.30 620.44
00075528 00000093 608.94 181.08 435.29 618.34 725.61 435.21 902.11 424.41 823.28 522.67 764.59 631.09 911.45 619.92
00075529 00000094 608.95 181.24 435.47 617.72 725.25 436.24 901.14 424.86 822.69 522.85 764.01 631.06 911.26 619.39
00075530 00000095 606.95 181.30 437.33 618.25 724.70 436.70 900.26 425.03 821.94 522.95 763.63 631.10 910.99 619.21
00075531 00000096 605.97 181.64 437.96 614.80 724.04 437.57 899.97 425.94 821.35 524.67 763.14 631.13 909.48 619.28
00075532 00000097 605.84 180.76 438.39 615.84 723.98 437.50 900.10 426.00 821.25 524.95 763.00 631.11 909.29 619.37
00075533 00000098 602.65 177.89 437.61 611.94 723.69 435.59 901.03 423.64 819.19 524.37 760.08 629.73 908.87 620.45
00075534 00000099 602.52 177.45 438.41 605.31 722.79 436.65 902.71 423.14 819.68 524.48 760.39 630.57 907.56 620.23
00075535 00000100 603.62 175.76 437.56 605.50 724.49 434.84 903.16 424.67 820.14 524.17 759.89 628.97 904.67 621.21
00075536 00000101 604.65 175.00 436.54 606.88 724.29 433.67 902.52 422.51 820.20 523.86 761.24 629.83 905.41 621.30
00075537 00000102 604.65 175.65 436.71 605.98 724.43 433.70 902.63 422.55 820.32 523.92 761.47 629.92 905.45 621.41
00075538 00000103 605.64 175.56 436.17 606.01 724.34 432.89 903.08 421.89 819.72 523.85 762.13 630.47 905.23 622.14
00075539 00000104 605.82 176.33 434.91 607.52 724.96 436.83 902.93 424.15 820.68 525.49 763.10 632.58 906.73 622.88
00075540 00000105 606.93 177.11 433.26 607.19 725.51 437.28 902.02 425.09 820.23 526.32 763.79 632.87 905.90 623.72
00075541 00000106 607.31 179.08 433.59 605.78 725.94 436.68 901.86 424.73 820.35 525.99 764.21 632.82 905.65 623.90
00075542 00000107 607.25 179.37 433.57 605.57 725.89 436.90 901.78 424.76 820.45 526.36 764.54 633.10 905.75 624.01
00075543 00000108 607.22 178.67 433.49 606.27 726.31 436.15 900.86 424.33 820.67 525.77 765.76 632.63 905.99 623.73
00075544 00000109 607.68 177.34 434.03 607.17 726.99 434.37 901.37 423.82 820.54 524.36 765.58 631.28 905.15 623.30
00075545 00000110 607.54 176.38 434.72 608.82 726.71 433.79 901.53 423.50 820.52 523.21 765.67 630.70 905.73 622.79
00075546 00000111 607.19 177.02 435.14 609.23 726.55 432.48 901.73 422.35 820.88 522.50 765.56 630.41 906.26 622.65
00075547 00000112 607.87 176.74 434.45 609.10 726.75 432.38 901.71 422.14 821.07 522.18 765.98 630.32 906.39 622.46
00075548 00000113 607.55 176.73 434.72 608.94 727.11 432.10 902.44 421.90 821.79 521.85 766.25 630.38 906.67 622.58
00075549 00000114 607.47 176.77 434.93 609.82 727.52 431.49 901.95 421.40 821.90 520.99 766.56 630.38 906.19 622.67
00075550 00000115 607.87 176.54 435.03 610.83 727.66 431.19 901.92 421.05 821.75 521.20 766.78 630.49 906.45 622.72
00075551 00000116 607.65 176.07 435.28 611.25 727.75 430.94 901.83 421.04 821.64 521.30 766.76 630.47 906.25 622.89
00075552 00000117 608.03 176.99 434.98 610.60 727.59 430.92 901.86 420.81 821.40 521.42 766.45 630.44 906.22 622.70
00075553 00000118 607.55 175.91 434.71 612.03 727.50 431.03 901.01 420.59 821.39 521.09 766.92 630.86 905.82 622.85
00075554 00000119 607.31 174.09 435.03 613.77 727.47 430.73 900.70 420.58 821.05 520.51 767.05 630.83 905.08 623.08
00075555 00000120 606.83 173.52 435.78 615.21 727.51 430.58 900.99 420.51 821.05 520.17 766.72 630.94 904.68 623.25
00075556 00000121 606.03 172.32 436.07 616.66 727.19 431.08 899.82 420.70 820.42 519.57 766.66 631.01 904.30 623.04
00075557 00000122 606.29 170.97 435.69 617.37 727.07 430.83 899.46 420.64 820.01 519.38 766.53 630.96 903.42 623.16
00075558 00000123 606.29 172.97 433.94 615.61 726.25 430.50 898.16 420.18 819.13 519.55 765.97 631.18 903.17 623.30
00075559 00000124 605.14 174.23 435.16 617.04 725.01 430.93 897.50 419.47 818.15 519.59 765.43 632.99 903.15 624.26
00075560 00000125 604.77 173.00 434.95 621.40 724.70 431.21 897.11 419.45 817.75 519.78 765.17 634.54 903.43 625.60
00075561 00000126 604.16 175.26 435.39 621.13 723.84 432.15 896.46 419.97 817.70 520.29 765.03 636.44 904.41 627.26
00075562 00000127 604.61 174.58 434.99 621.28 723.75 432.07 896.37 419.62 817.57 520.15 765.11 636.35 904.18 626.96
00075563 00000128 606.12 181.89 431.41 623.84 723.34 433.68 896.59 423.10 822.02 519.87 767.36 640.22 903.74 629.62
00075564 00000129 605.17 181.37 431.29 628.06 722.82 433.76 895.94 423.27 821.42 520.55 766.08 641.35 903.90 630.80
00075565 00000130 604.85 180.05 432.37 629.21 722.86 434.41 896.60 423.09 822.03 521.36 766.03 640.66 907.51 629.28
00075566 00000131 604.71 179.24 433.81 626.76 722.72 434.36 896.28 423.08 821.71 521.84 764.78 637.01 909.22 625.48
00075567 00000132 604.77 179.49 434.11 626.60 722.66 434.67 896.54 423.03 821.71 521.77 764.76 637.30 909.46 625.47
00075568 00000133 605.96 179.02 434.10 626.37 724.09 435.06 896.86 423.21 822.06 520.67 763.44 632.15 911.59 619.98
00075569 00000134 606.26 178.49 434.98 620.92 726.15 434.28 899.11 423.67 821.55 519.57 762.98 625.25 909.92 613.92
00075570 00000135 604.47 170.57 434.07 615.88 726.09 433.08 899.40 423.32 818.76 520.41 760.00 623.16 907.53 614.95
00075571 00000136 604.91 170.00 433.96 617.70 725.43 433.32 899.58 423.28 819.56 520.80 759.14 622.33 910.35 613.78
00075572 00000137 604.76 170.12 434.23 616.91 725.46 433.33 899.79 423.15 819.67 520.55 759.42 622.25 910.39 613.53
00075573 00000138 604.82 170.33 434.15 616.88 725.85 433.24 900.69 422.89 820.82 520.01 758.46 620.59 912.63 611.80
00075574 00000139 605.91 169.62 433.02 615.48 726.62 432.70 901.28 422.45 821.15 519.48 758.29 618.11 913.48 609.47
00075575 00000140 605.96 168.80 431.68 613.08 726.70 432.53 901.54 422.07 821.71 519.42 758.40 616.09 914.09 607.21
00075576 00000141 606.12 169.00 431.03 611.38 726.78 433.31 901.51 422.70 821.77 518.99 758.99 615.81 914.21 606.88
00075577 00000142 606.75 167.21 430.28 612.64 726.71 433.54 901.21 422.77 821.72 519.20 759.00 615.82 914.31 606.83
00075578 00000143 606.82 170.19 429.45 606.60 726.70 433.71 902.20 422.94 822.06 519.89 758.94 614.15 915.55 605.04
00075579 00000144 606.87 170.23 429.40 603.79 726.08 434.20 901.80 422.40 821.67 520.00 758.85 612.93 915.80 602.94
00075580 00000145 605.89 171.78 430.57 601.37 725.81 435.05 902.51 422.68 821.83 519.86 757.42 611.35 917.00 600.78
00075581 00000146 605.88 169.71 431.06 601.18 725.85 435.46 902.17 422.27 821.65 518.50 757.76 609.98 917.22 598.59
00075582 00000147 605.93 170.22 431.03 600.86 725.80 435.59 902.33 422.55 821.69 518.71 757.27 609.90 917.30 598.78
00075583 00000148 606.23 171.30 430.38 599.85 725.83 435.31 902.47 422.88 821.57 518.84 756.37 609.32 917.34 598.63
00075584 00000149 606.71 172.11 429.86 598.38 725.92 435.56 903.22 423.00 822.48 519.75 756.30 608.92 918.60 598.17
00075585 00000150 606.06 172.25 430.73 599.36 725.92 436.33 903.46 422.91 823.29 520.24 755.95 609.02 919.96 597.49
00075586 00000151 606.73 173.26 431.22 597.27 726.51 435.72 904.73 422.57 823.93 520.60 755.64 608.82 919.52 597.60
00075587 00000152 606.90 172.25 431.46 597.65 727.29 436.20 904.92 422.78 824.68 520.29 756.59 608.53 919.70 596.99
00075588 00000153 607.52 172.85 430.72 596.11 727.84 436.14 904.58 423.11 824.50 520.54 757.42 608.56 918.86 597.33
00075589 00000154 608.44 172.26 428.86 594.63 728.15 436.04 904.59 423.07 824.92 521.07 757.78 607.84 918.74 596.70
00075590 00000155 608.44 175.49 429.41 589.41 727.99 435.86 905.49 423.20 824.63 521.88 757.23 607.48 918.90 596.46
00075591 00000156 608.68 175.42 429.65 589.27 728.59 435.26 905.72 422.55 825.16 521.32 758.15 607.81 918.14 596.76
00075592 00000157 608.76 174.38 429.44 589.33 728.78 435.38 905.79 422.38 825.62 521.31 759.00 608.09 918.10 596.82
00075593 00000158 609.30 172.91 429.60 591.78 728.98 435.00 905.88 422.40 825.48 521.50 759.19 608.45 917.79 597.44
00075594 00000159 608.93 174.48 430.13 593.67 728.76 434.38 906.63 421.85 825.64 522.19 758.52 610.19 917.80 599.48
00075595 00000160 609.32 173.25 429.64 595.10 728.49 434.23 907.11 422.16 825.55 522.79 758.25 610.93 917.70 600.53
00075596 00000161 609.30 173.75 430.11 593.62 728.96 434.23 907.68 421.95 826.13 522.97 759.16 611.70 916.94 601.18
00075597 00000162 609.45 173.51 430.06 594.91 728.84 434.34 907.63 422.02 826.04 522.96 758.79 612.03 917.05 601.58
00075598 00000163 609.57 173.79 431.59 592.28 728.09 434.00 908.43 422.20 825.36 522.87 761.17 614.85 915.23 604.71
00075599 00000164 608.98 172.81 432.87 596.69 728.54 432.60 907.25 421.72 824.26 522.26 763.32 618.51 911.62 609.55
00075600 00000165 609.13 173.92 433.47 601.48 729.49 430.97 906.33 420.95 824.15 521.87 765.04 622.32 909.67 614.35
00075601 00000166 606.16 183.67 439.09 596.03 729.95 429.95 908.68 418.83 827.38 524.93 767.17 625.61 911.89 616.84
00075602 00000167 605.55 186.13 439.83 594.10 729.69 429.85 908.97 418.48 827.42 525.18 767.08 625.72 912.53 616.75
00075603 00000168 608.26 186.89 431.86 604.60 734.91 439.15 908.16 425.98 833.51 533.11 772.91 635.08 913.96 625.21
CROP_BBOX: 327 0 1365 1032
