Video ID: 	pt6LLNHnIfg
H: 	1080
W: 	1920
FPS: 	23.976023976023978

FRAME INDEX X0 Y0 W H [Landmarks (5 Points)]

00030891 00000000 966.68 124.04 365.71 528.78 999.50 316.88 1148.84 313.28 1019.16 399.43 1011.89 507.92 1141.73 507.55
00030892 00000001 966.92 121.19 370.82 527.53 997.01 314.87 1149.73 309.81 1019.03 401.07 1015.29 508.43 1145.17 507.07
00030893 DELETE   965.89 116.65 362.01 528.65 990.91 320.59 1135.70 309.01 1005.69 396.00 1009.50 510.10 1130.52 503.68
00030894 00000003 950.35 117.69 366.57 528.85 987.46 318.37 1110.27 313.87 981.44 387.68 991.85 500.64 1099.42 497.23
00030895 00000004 946.35 121.44 349.63 528.81 984.37 310.67 1098.68 313.97 966.80 381.48 983.50 497.06 1084.52 499.53
00030896 00000005 946.59 118.51 347.00 534.66 986.16 307.72 1099.34 312.32 965.30 379.50 980.16 501.78 1073.27 505.66
00030897 00000006 948.29 107.17 362.58 539.14 985.68 311.94 1112.71 309.18 979.29 379.00 980.12 503.11 1076.05 502.23
00030898 00000007 955.14 99.98 370.12 536.94 992.46 309.31 1131.79 301.79 997.05 372.74 990.43 498.13 1097.25 493.77
00030899 00000008 961.96 101.39 362.42 528.87 996.43 300.38 1142.54 293.88 1004.64 362.92 992.32 494.26 1110.17 492.48
00030900 00000009 960.71 100.59 368.44 540.11 1006.63 292.68 1136.36 291.56 1005.22 360.91 1000.89 492.80 1104.25 494.87
00030901 00000010 951.57 105.72 364.63 538.97 999.41 296.13 1123.93 296.89 988.73 367.37 989.77 494.33 1093.12 497.02
00030902 00000011 941.22 106.08 357.79 543.64 987.08 304.50 1116.32 308.29 978.42 367.50 974.98 491.11 1081.11 495.45
00030903 00000012 941.14 109.27 349.57 551.32 987.48 293.95 1099.32 302.96 966.24 371.67 974.77 501.51 1073.02 509.49
00030904 00000013 940.39 110.39 352.95 552.91 991.12 295.07 1100.32 304.41 965.71 373.51 976.15 500.32 1075.69 508.37
00030905 00000014 945.29 110.66 354.19 552.09 993.76 295.66 1109.66 301.76 977.98 374.27 982.30 504.32 1084.77 510.33
00030906 00000015 943.62 106.59 364.48 555.14 991.03 304.51 1124.24 308.54 990.07 369.26 978.85 502.98 1079.07 507.83
00030907 00000016 942.16 104.58 369.88 547.17 989.18 307.48 1124.35 310.14 990.51 372.98 976.65 501.71 1074.49 505.84
00030908 00000017 941.97 106.39 366.35 536.08 986.38 309.54 1119.66 314.00 982.30 376.21 970.44 497.83 1071.86 503.45
00030909 00000018 933.25 112.17 363.92 530.34 981.19 313.32 1110.08 319.11 972.87 378.60 963.30 495.30 1062.86 501.57
00030910 00000019 924.94 117.97 361.21 535.08 977.07 312.05 1101.40 320.86 962.71 380.29 959.23 497.10 1057.66 505.11
00030911 00000020 920.73 121.55 361.45 532.52 965.75 315.85 1089.66 326.27 946.65 393.83 944.80 504.60 1056.36 516.21
00030912 00000021 917.70 119.72 354.84 536.94 954.04 317.44 1078.51 325.85 936.54 396.17 937.87 508.05 1051.64 517.94
00030913 00000022 914.29 120.92 346.97 536.29 948.47 316.27 1073.63 321.68 928.51 391.22 929.14 509.42 1046.53 516.38
00030914 00000023 908.39 119.27 341.66 534.04 943.32 309.84 1068.84 317.24 924.35 387.80 922.57 507.77 1035.80 516.63
00030915 00000024 908.15 115.35 341.57 534.49 955.20 303.00 1060.26 317.28 928.04 377.74 938.38 496.30 1023.24 507.80
00030916 00000025 907.30 110.78 345.83 531.30 956.59 297.87 1060.02 316.41 924.52 373.50 936.13 486.58 1020.49 501.36
00030917 00000026 905.30 107.66 349.58 525.31 950.33 299.03 1070.77 311.46 925.83 368.90 917.47 489.08 1023.67 502.09
00030918 00000027 904.92 109.09 356.21 514.95 962.68 297.32 1084.85 316.37 940.06 367.04 936.39 475.87 1037.65 492.17
00030919 00000028 907.14 110.36 362.02 513.92 964.24 297.38 1091.09 313.97 948.81 365.15 940.56 474.74 1046.94 489.00
00030920 00000029 914.65 104.16 359.50 529.31 963.45 289.41 1083.30 298.19 948.88 364.96 945.66 476.40 1057.50 487.15
00030921 00000030 915.48 107.29 357.61 529.76 966.38 291.21 1083.13 299.05 949.79 364.56 948.64 477.28 1060.47 487.33
00030922 00000031 917.08 113.08 354.05 531.83 969.07 289.70 1080.42 297.00 947.42 364.39 951.49 479.05 1061.51 488.47
00030923 00000032 915.09 114.79 353.59 534.11 968.86 289.32 1079.42 298.24 946.94 365.73 950.86 481.74 1059.00 492.43
00030924 00000033 912.87 113.66 351.44 535.77 969.75 288.68 1073.40 297.67 944.30 364.86 951.54 480.95 1054.66 491.19
00030925 00000034 912.97 113.50 344.70 535.44 968.61 289.65 1069.83 301.53 942.00 368.78 951.67 481.75 1051.58 494.10
00030926 00000035 912.66 116.33 339.69 531.65 968.45 290.44 1065.94 303.57 937.76 370.84 951.09 482.76 1047.07 495.99
00030927 00000036 909.24 116.41 335.81 537.63 974.22 290.85 1074.13 316.61 927.28 370.01 947.80 482.02 1044.57 502.06
00030928 00000037 909.11 116.45 334.20 536.88 973.37 290.91 1073.54 317.27 925.78 371.50 947.96 481.34 1046.11 501.64
00030929 00000038 909.14 117.80 335.47 538.60 973.21 289.92 1074.33 317.21 926.48 372.02 949.54 482.82 1048.05 503.75
00030930 00000039 913.02 118.36 339.33 537.09 969.32 290.04 1064.18 304.38 933.38 374.34 955.42 487.37 1051.06 500.78
00030931 00000040 915.01 120.62 337.34 541.02 968.52 290.88 1066.88 304.25 934.60 377.62 957.15 491.16 1055.06 503.23
00030932 00000041 917.20 119.48 338.95 551.87 966.10 294.60 1070.33 302.78 936.81 381.75 959.55 499.96 1062.39 507.46
00030933 00000042 913.61 122.57 343.58 542.35 969.40 298.90 1075.91 321.60 932.21 380.38 956.40 490.52 1055.62 507.08
00030934 00000043 911.14 120.09 349.87 538.76 963.47 305.48 1079.87 326.22 931.66 385.70 946.25 492.98 1048.74 508.89
00030935 00000044 914.13 118.48 349.68 537.25 950.01 309.22 1075.97 328.52 928.21 393.08 930.04 499.07 1049.67 516.19
00030936 00000045 913.61 121.69 343.91 535.16 949.89 310.17 1075.78 329.22 929.33 392.47 929.83 500.13 1048.43 517.16
00030937 00000046 911.17 128.36 338.83 527.61 962.75 308.03 1076.09 331.42 931.14 390.60 944.05 496.51 1042.94 514.83
00030938 00000047 912.26 129.07 334.81 524.30 962.23 308.73 1074.92 333.34 929.90 392.57 941.98 497.06 1041.69 516.60
00030939 00000048 914.03 130.43 331.99 521.47 959.61 312.39 1071.71 336.09 927.24 395.66 939.56 499.16 1036.36 518.08
00030940 00000049 914.07 132.70 330.03 524.21 960.39 312.89 1070.24 336.22 925.58 395.55 939.55 501.54 1034.85 519.87
00030941 00000050 914.73 131.62 338.45 535.48 953.66 322.39 1063.42 333.22 930.02 396.36 944.35 515.60 1036.95 523.60
00030942 00000051 914.14 132.83 336.56 524.95 951.91 323.50 1064.41 335.74 929.45 399.54 942.00 514.64 1035.23 523.91
00030943 00000052 904.08 132.47 341.27 505.95 945.64 324.52 1064.02 345.65 920.36 409.61 933.52 511.03 1027.74 526.19
00030944 00000053 914.24 136.39 334.07 513.97 948.42 327.91 1058.74 341.26 923.94 405.46 937.94 513.45 1031.24 523.28
00030945 00000054 911.89 136.38 337.87 521.84 946.29 331.58 1058.11 344.92 921.80 409.56 935.93 516.96 1030.85 526.82
00030946 00000055 912.39 138.09 338.79 525.28 945.74 334.95 1058.97 347.61 921.23 412.97 936.41 520.29 1032.54 529.56
00030947 00000056 912.64 137.70 337.11 519.49 944.77 332.58 1058.82 347.64 920.07 413.44 935.77 517.22 1034.17 528.39
00030948 00000057 904.05 139.54 340.35 500.69 943.71 332.12 1059.70 354.61 919.30 421.53 936.06 515.35 1031.72 531.30
00030949 00000058 913.48 134.28 338.68 513.06 944.30 336.34 1061.27 353.19 922.95 418.99 934.40 516.75 1040.35 529.03
00030950 00000059 915.35 136.60 337.07 513.50 937.09 342.33 1062.65 358.85 921.36 421.29 931.24 517.24 1046.03 532.89
00030951 00000060 915.15 138.55 337.97 511.84 938.36 343.87 1063.15 359.44 925.34 423.92 935.36 517.54 1048.06 532.41
00030952 00000061 917.06 138.83 338.00 513.07 940.42 343.55 1065.58 359.90 928.05 426.33 938.06 518.97 1049.80 534.26
00030953 00000062 914.06 145.32 342.31 489.40 949.57 340.04 1070.18 361.94 934.40 426.85 943.11 517.69 1043.25 532.90
00030954 00000063 920.73 146.23 336.16 501.49 953.96 335.18 1071.73 359.06 932.69 424.36 943.32 510.83 1045.47 529.63
00030955 00000064 920.06 146.39 339.99 512.14 954.59 338.14 1071.40 359.98 934.03 425.40 946.13 515.04 1046.07 531.81
00030956 00000065 919.88 146.68 342.75 512.75 954.68 339.85 1071.92 361.38 935.22 426.43 946.82 515.55 1046.89 532.02
00030957 00000066 919.69 147.64 342.50 513.26 954.75 340.51 1071.82 361.71 935.81 426.89 947.22 516.68 1046.93 532.94
00030958 00000067 920.54 145.98 342.40 514.21 955.52 340.10 1072.11 361.56 936.73 426.42 947.59 516.53 1046.46 533.00
00030959 00000068 921.25 138.86 340.91 521.05 946.49 343.08 1068.87 361.68 930.77 431.41 944.65 519.79 1055.72 536.46
00030960 DELETE   922.28 141.08 334.69 523.02 948.94 342.01 1061.83 362.12 925.56 430.29 946.66 519.41 1052.76 536.66
00030961 00000070 919.19 142.74 333.91 525.18 947.62 335.34 1060.76 356.64 919.83 424.12 940.96 517.44 1050.23 535.37
00030962 00000071 917.82 139.30 332.15 533.99 948.65 331.25 1063.27 351.04 918.69 419.85 935.75 523.48 1043.44 540.11
00030963 00000072 922.59 133.70 329.87 532.89 963.68 323.02 1072.25 357.01 930.45 411.81 938.95 513.01 1028.96 539.63
00030964 DELETE   923.02 133.54 336.80 531.16 963.74 319.83 1078.31 356.39 934.33 409.91 936.39 508.27 1033.82 537.28
00030965 00000074 920.23 128.05 339.79 534.94 964.63 313.85 1079.61 354.72 932.28 405.92 932.66 503.14 1030.66 535.60
00030966 00000075 915.70 123.89 342.54 537.91 965.02 306.29 1080.81 355.59 929.90 402.49 926.76 497.23 1025.91 536.42
00030967 00000076 911.15 122.88 346.76 539.05 963.42 303.22 1081.64 355.59 928.86 397.52 923.67 491.67 1025.91 533.34
00030968 00000077 911.45 121.87 342.79 527.45 962.72 301.94 1080.31 352.88 928.03 393.92 923.24 488.72 1023.62 529.28
00030969 00000078 909.29 124.25 344.26 540.41 963.81 303.13 1083.50 348.83 931.43 391.89 933.46 494.54 1038.77 530.30
00030970 00000079 906.55 121.04 353.58 550.36 964.53 301.76 1086.29 346.36 930.73 392.21 937.30 492.11 1048.26 526.92
00030971 00000080 904.26 120.28 356.51 544.06 965.84 299.44 1088.77 346.13 932.92 388.92 937.49 484.02 1051.79 520.78
00030972 00000081 906.62 120.62 357.42 549.98 966.47 299.83 1089.23 344.09 932.69 389.13 939.72 487.57 1053.93 522.13
00030973 00000082 909.82 126.87 357.47 552.34 966.11 303.32 1091.07 343.60 935.84 392.08 943.44 493.38 1061.08 524.63
00030974 00000083 913.43 122.23 358.80 550.65 969.93 303.25 1089.41 329.75 951.48 395.73 952.59 495.84 1066.52 518.91
00030975 00000084 913.65 116.82 356.90 555.58 969.32 303.02 1088.60 330.45 951.13 396.06 953.18 495.25 1066.96 518.84
00030976 00000085 911.15 125.75 358.20 552.39 958.98 308.00 1085.22 340.73 930.52 397.50 935.42 500.70 1063.89 526.80
00030977 00000086 911.42 119.13 352.27 547.29 967.01 299.47 1082.67 327.41 947.39 394.80 951.31 491.14 1064.37 515.43
00030978 00000087 909.70 118.60 351.47 554.90 968.90 299.49 1076.61 325.89 942.44 394.80 952.34 496.38 1056.47 518.88
00030979 00000088 906.05 120.27 348.65 565.79 967.30 304.56 1079.43 339.70 931.30 385.68 939.09 501.96 1037.96 529.04
00030980 00000089 912.36 114.42 345.33 556.91 961.79 310.78 1067.90 336.44 933.21 384.11 941.59 509.17 1023.00 529.54
00030981 00000090 908.10 120.83 350.54 545.65 964.10 312.31 1077.74 344.67 930.42 390.32 929.23 503.28 1020.47 528.94
00030982 00000091 907.48 119.35 355.08 542.09 965.39 309.06 1081.59 345.09 934.26 391.60 930.11 498.23 1025.36 527.15
00030983 00000092 907.66 120.69 355.27 535.84 966.55 310.23 1082.72 344.76 936.80 391.73 931.89 497.56 1025.78 525.30
00030984 00000093 907.46 118.21 356.52 539.19 967.40 310.12 1083.53 343.93 937.44 392.22 933.46 498.45 1026.82 525.67
00030985 00000094 910.11 119.04 353.26 536.37 968.47 310.60 1081.44 344.06 936.67 393.27 934.12 498.49 1024.68 525.25
00030986 00000095 909.61 116.82 353.15 540.67 966.82 310.94 1080.63 343.93 935.27 394.42 932.22 499.99 1022.52 526.49
00030987 00000096 907.45 114.77 353.47 537.31 965.84 309.72 1081.09 342.56 934.12 392.04 930.07 497.63 1019.61 524.35
00030988 00000097 907.07 113.65 353.31 536.01 965.32 310.68 1080.52 342.52 933.22 391.55 929.17 498.31 1016.96 524.26
00030989 00000098 908.68 115.79 354.40 534.62 965.63 311.42 1081.90 343.38 936.09 392.25 930.70 499.15 1021.40 525.19
00030990 00000099 912.57 117.47 354.96 537.19 964.99 311.88 1085.26 348.14 940.24 395.44 932.37 500.36 1028.58 529.58
00030991 00000100 917.23 120.16 354.69 534.00 973.38 309.50 1095.07 346.26 949.09 394.26 940.29 494.80 1041.83 524.42
00030992 00000101 922.49 112.68 359.59 544.39 980.00 295.86 1104.10 333.20 962.81 388.04 947.52 489.73 1052.89 520.60
00030993 00000102 926.57 107.66 361.25 551.72 991.76 281.06 1114.22 324.26 972.77 376.41 956.73 479.34 1062.85 515.43
00030994 00000103 926.48 109.08 358.87 544.94 997.58 271.92 1118.33 318.44 973.49 363.33 957.44 470.66 1066.11 508.67
00030995 00000104 926.22 107.15 362.25 545.12 999.47 269.11 1121.61 316.16 975.10 359.06 956.87 465.17 1068.86 503.58
00030996 00000105 927.01 104.06 361.05 546.13 999.52 268.30 1123.87 313.49 976.75 356.16 956.55 465.21 1067.27 502.35
00030997 00000106 928.96 104.90 358.55 540.62 1001.32 271.38 1122.86 315.98 979.46 356.42 955.67 464.60 1061.00 500.96
00030998 00000107 929.81 104.90 355.41 535.17 1003.44 273.34 1122.32 320.43 982.33 356.91 953.23 463.48 1054.80 501.62
00030999 00000108 929.53 105.53 353.99 524.22 1004.07 277.52 1121.10 322.58 985.74 358.25 951.21 462.51 1045.96 498.80
00031000 00000109 927.68 109.63 355.01 513.14 1004.78 278.88 1119.14 322.48 987.24 358.37 949.41 462.71 1039.20 497.54
00031001 00000110 926.88 108.94 356.38 516.71 1003.45 278.35 1117.88 321.42 987.06 358.09 949.60 463.68 1038.50 498.56
00031002 00000111 927.09 107.83 357.39 523.34 1005.86 278.90 1118.66 323.44 989.53 360.13 953.49 466.70 1038.54 502.57
00031003 00000112 928.20 109.12 362.52 526.54 1004.06 279.19 1119.83 325.04 988.90 363.34 952.58 471.38 1037.88 508.15
00031004 00000113 930.73 110.02 363.47 522.70 1005.00 284.08 1121.07 328.57 989.44 370.24 953.88 473.34 1038.54 509.29
00031005 00000114 932.12 106.69 363.94 522.47 1005.28 280.90 1121.40 326.94 989.33 367.53 953.77 468.92 1038.41 505.90
00031006 00000115 932.11 102.82 360.06 528.95 1006.59 280.74 1116.59 321.32 985.14 359.63 954.43 470.96 1034.11 503.38
00031007 00000116 931.77 102.27 359.77 529.46 1006.91 282.75 1116.73 321.33 988.05 359.77 955.11 473.76 1033.34 504.74
00031008 00000117 931.53 104.07 364.22 528.33 1010.37 280.95 1121.26 323.22 988.08 361.46 954.80 472.29 1035.44 505.96
00031009 00000118 932.84 106.95 367.49 515.42 1012.02 278.21 1126.08 323.64 989.59 360.12 954.44 465.02 1040.55 500.43
00031010 00000119 936.36 112.17 369.80 509.20 1016.92 275.48 1130.11 324.99 989.43 359.34 954.87 461.17 1042.50 499.37
00031011 00000120 940.88 120.44 366.23 499.86 1020.84 275.75 1134.18 327.60 992.79 362.74 959.03 461.16 1046.65 501.16
00031012 00000121 938.66 122.00 366.20 505.69 1019.45 275.69 1134.87 327.08 993.38 363.08 960.14 462.49 1050.60 502.40
00031013 00000122 939.28 119.05 365.19 507.76 1014.62 275.49 1135.83 328.07 994.84 365.49 960.45 461.30 1055.93 502.55
00031014 00000123 942.09 118.18 365.04 520.46 1015.08 274.11 1139.41 326.56 994.81 368.09 964.88 464.34 1066.21 505.85
00031015 00000124 943.39 119.17 362.99 532.67 1016.63 271.46 1137.20 324.93 993.76 372.01 971.54 469.69 1074.49 512.23
00031016 00000125 943.10 116.90 365.28 529.93 1018.89 272.69 1137.15 326.11 995.59 371.70 970.45 468.98 1067.18 511.37
00031017 00000126 941.53 115.85 368.46 528.15 1017.87 273.43 1137.24 327.21 995.87 368.79 968.97 468.17 1063.24 510.55
00031018 00000127 941.99 115.82 368.85 527.18 1017.15 274.71 1137.41 329.01 995.82 370.28 968.99 467.97 1064.12 510.81
00031019 00000128 943.11 116.05 365.33 521.08 1018.64 275.99 1136.72 330.85 997.22 371.09 969.75 466.39 1062.26 509.38
00031020 00000129 942.02 117.02 364.14 517.61 1018.77 277.43 1137.62 332.94 998.52 372.74 968.68 466.09 1062.21 509.83
00031021 00000130 940.70 119.39 366.12 509.87 1017.94 278.69 1137.66 334.72 999.10 373.05 966.07 464.08 1060.85 508.26
00031022 00000131 939.49 119.65 367.43 510.31 1017.12 278.83 1137.55 333.99 997.93 371.85 964.10 464.13 1059.14 507.72
00031023 00000132 940.17 118.62 364.54 513.44 1017.89 279.02 1136.14 334.19 997.69 372.93 965.74 465.92 1058.49 509.52
00031024 00000133 942.01 116.79 363.72 519.25 1018.16 278.90 1134.03 331.49 997.00 371.87 968.37 469.30 1058.29 510.74
00031025 00000134 942.05 116.41 361.31 522.41 1017.44 278.41 1133.74 331.31 996.32 373.69 968.12 469.95 1058.68 511.84
00031026 00000135 943.04 117.01 361.26 525.08 1017.69 277.10 1134.66 328.01 995.60 373.26 971.70 472.73 1064.64 512.83
00031027 00000136 943.47 118.13 363.01 530.21 1016.85 274.59 1135.51 326.92 994.36 374.20 971.92 472.08 1072.64 513.58
00031028 00000137 942.13 119.22 362.58 525.76 1014.29 276.46 1137.16 329.77 996.82 377.06 967.33 469.57 1071.00 512.12
00031029 00000138 942.96 120.59 363.25 522.17 1014.68 278.76 1137.91 331.78 994.91 379.45 967.40 469.98 1070.65 512.06
00031030 00000139 942.45 126.38 360.08 514.54 1012.42 281.28 1134.77 332.57 993.39 381.24 966.83 470.61 1071.25 511.22
00031031 00000140 942.24 121.98 360.50 519.45 1012.70 282.24 1133.10 331.93 991.48 380.91 966.56 471.66 1068.39 511.24
00031032 00000141 941.56 119.99 359.64 516.78 1011.70 284.57 1131.83 332.49 993.36 378.52 966.17 472.48 1064.61 510.72
00031033 00000142 941.72 114.71 360.27 515.88 1009.78 285.34 1131.33 333.20 993.94 377.30 966.37 471.53 1064.03 509.88
00031034 00000143 942.55 114.13 355.77 514.14 1010.15 284.76 1128.47 331.30 993.04 375.63 967.62 471.14 1060.98 508.65
00031035 00000144 943.23 112.94 354.33 514.60 1008.89 283.85 1127.70 330.07 992.83 374.45 967.74 470.54 1060.46 507.87
00031036 00000145 943.17 110.34 353.35 518.23 1008.30 283.10 1125.91 329.20 991.84 372.27 967.19 470.42 1058.07 507.86
00031037 00000146 943.53 107.85 349.06 528.90 1008.10 283.92 1122.63 327.86 990.27 371.97 968.77 475.37 1057.08 511.45
00031038 00000147 942.81 107.05 348.56 529.35 1007.15 285.92 1120.61 326.20 988.90 371.74 966.49 478.03 1052.96 511.45
00031039 00000148 942.06 106.55 349.84 524.00 1005.75 286.27 1120.12 324.02 990.24 369.71 964.93 476.02 1051.02 507.24
00031040 00000149 944.47 104.64 350.76 524.10 1004.18 285.97 1120.87 319.71 989.22 367.26 966.34 476.73 1053.88 504.95
00031041 00000150 946.77 104.17 351.17 524.49 1003.30 285.30 1120.37 315.33 989.16 365.91 969.51 477.86 1058.58 503.15
00031042 00000151 950.47 102.95 349.88 523.49 1004.57 285.24 1118.36 309.08 989.05 363.87 974.10 478.52 1061.70 498.99
00031043 00000152 951.75 101.68 347.24 521.60 1001.90 288.10 1113.34 300.04 985.34 359.24 975.14 481.07 1060.74 492.27
00031044 00000153 938.64 97.19 356.89 526.06 977.14 297.85 1106.97 293.73 977.61 354.73 962.46 484.98 1058.92 481.64
00031045 00000154 931.03 91.89 355.86 511.71 969.58 293.60 1088.97 278.38 960.71 337.30 956.98 472.90 1044.63 460.86
00031046 00000155 939.86 84.18 352.10 497.38 985.23 271.99 1093.38 261.79 959.58 319.96 963.71 447.27 1046.45 439.17
00031047 00000156 945.49 70.21 353.75 506.74 1008.28 253.71 1108.33 258.84 975.41 301.91 971.90 433.32 1051.19 438.05
CROP_BBOX: 653 0 1528 820
