Video ID: 	wEkomdwH888
H: 	2160
W: 	3840
FPS: 	23.976023976023978

FRAME INDEX X0 Y0 W H [Landmarks (5 Points)]

00006174 00000000 1930.22 300.69 752.23 955.01 2078.46 664.28 2395.08 698.51 2152.17 797.52 2055.06 964.50 2339.40 995.71
00006175 00000001 1935.00 297.93 744.44 950.05 2080.72 659.38 2392.77 696.63 2150.95 792.26 2053.53 957.45 2334.58 991.58
00006176 00000002 1946.31 323.20 721.32 901.77 2081.82 667.34 2398.40 692.70 2157.68 793.28 2052.95 955.47 2327.13 979.18
00006177 DELETE   1942.17 275.50 741.60 959.81 2083.84 641.62 2394.25 682.50 2151.39 773.17 2055.15 944.56 2334.64 981.52
00006178 00000004 1944.09 273.38 746.88 961.49 2081.76 640.33 2395.39 679.51 2149.78 766.51 2052.38 942.74 2337.93 978.14
00006179 00000005 1948.73 264.04 741.61 959.77 2081.51 636.78 2395.26 673.52 2150.16 759.01 2054.39 938.02 2338.04 971.24
00006180 00000006 1951.08 289.54 721.68 912.43 2094.67 640.20 2410.55 671.07 2163.02 760.35 2052.67 929.04 2324.86 958.65
00006181 00000007 1953.41 291.47 720.78 905.41 2095.76 635.98 2411.48 667.74 2162.95 757.07 2053.96 924.16 2322.66 954.86
00006182 00000008 1953.07 292.91 720.02 903.90 2096.45 636.34 2411.53 668.75 2163.65 758.22 2054.74 924.58 2322.38 955.79
00006183 00000009 1950.04 257.35 737.65 967.43 2084.94 629.62 2399.21 668.09 2154.39 753.91 2054.13 934.23 2338.90 969.14
00006184 00000010 1946.06 254.33 742.88 970.57 2080.40 632.75 2396.00 671.58 2150.09 756.19 2053.74 936.01 2337.63 970.35
00006185 00000011 1943.19 258.15 748.05 979.75 2080.16 646.25 2393.28 677.39 2148.20 764.09 2057.02 943.59 2344.28 970.99
00006186 00000012 1937.58 264.35 746.41 968.98 2081.03 643.74 2395.23 687.84 2150.08 768.35 2053.73 937.93 2340.56 975.35
00006187 00000013 1937.11 273.59 745.04 962.93 2081.85 645.80 2394.66 689.94 2149.95 770.39 2052.37 940.92 2337.42 979.11
00006188 00000014 1938.52 277.42 745.01 955.57 2081.58 644.95 2394.13 688.62 2149.39 768.59 2050.83 939.72 2336.07 977.91
00006189 00000015 1941.96 265.21 744.30 968.54 2080.65 640.29 2393.97 682.89 2146.98 764.75 2050.82 939.37 2337.04 976.54
00006190 00000016 1945.57 254.35 745.58 968.13 2080.33 634.25 2396.69 675.52 2151.24 760.20 2055.13 937.47 2341.08 973.18
00006191 00000017 1948.59 260.15 747.42 961.12 2088.94 627.24 2405.90 674.95 2157.38 754.95 2053.19 930.05 2340.01 971.86
00006192 00000018 1951.06 263.09 742.94 953.23 2096.72 619.49 2408.54 668.29 2164.35 746.94 2058.16 920.18 2343.36 963.85
00006193 00000019 1952.11 256.72 751.18 959.08 2097.86 617.25 2415.07 659.40 2164.75 739.82 2059.36 921.37 2349.06 959.59
00006194 00000020 1954.72 255.69 748.05 956.68 2097.36 617.70 2415.40 652.97 2163.94 734.76 2060.46 922.55 2351.38 955.58
00006195 00000021 1953.88 256.23 748.06 955.93 2096.65 617.77 2415.23 652.47 2163.05 733.73 2059.61 922.84 2350.35 955.36
00006196 00000022 1953.31 253.53 744.87 960.83 2097.12 615.55 2413.47 653.75 2163.57 735.97 2060.19 921.52 2348.07 956.93
00006197 00000023 1950.83 254.31 746.75 960.02 2095.08 614.38 2411.32 659.61 2160.86 740.90 2055.57 920.66 2343.30 961.71
00006198 00000024 1949.20 259.97 745.47 953.77 2094.38 616.29 2409.04 665.99 2160.67 745.89 2054.06 920.47 2340.38 964.90
00006199 00000025 1947.68 261.09 746.70 959.60 2092.09 619.26 2407.34 668.72 2158.58 748.65 2052.26 924.44 2339.21 968.60
00006200 00000026 1946.50 262.65 752.53 965.40 2092.27 622.37 2409.22 670.99 2157.31 750.52 2051.48 928.42 2338.78 971.75
00006201 00000027 1946.87 264.87 751.71 963.52 2092.46 622.03 2408.46 672.45 2157.26 752.13 2051.74 928.15 2338.50 973.08
00006202 00000028 1948.53 265.55 748.68 963.23 2093.54 622.39 2410.08 673.16 2158.05 751.60 2052.40 928.01 2339.43 973.07
00006203 00000029 1949.76 266.93 745.63 954.34 2092.89 621.49 2407.73 670.94 2159.27 750.34 2053.09 924.87 2339.62 969.11
00006204 00000030 1949.72 262.17 746.15 953.49 2093.54 616.30 2409.42 668.01 2158.22 746.95 2050.79 920.67 2338.66 966.83
00006205 00000031 1949.90 263.30 747.74 955.76 2097.92 614.41 2409.80 660.62 2159.90 740.46 2053.68 918.77 2340.40 961.26
00006206 00000032 1953.60 261.75 742.59 954.32 2100.87 612.54 2412.27 656.36 2163.02 737.29 2056.74 916.34 2343.13 956.75
00006207 00000033 1951.65 263.93 742.95 949.03 2098.90 615.53 2412.50 653.99 2163.21 734.50 2056.44 918.56 2345.78 954.89
00006208 00000034 1952.94 257.83 751.73 958.15 2097.78 616.02 2413.40 652.40 2160.66 733.68 2057.40 921.15 2347.52 955.39
00006209 00000035 1952.34 259.23 751.80 954.78 2098.04 615.46 2413.44 653.98 2159.99 734.73 2055.36 920.82 2345.48 956.94
00006210 00000036 1953.98 257.90 741.92 957.43 2099.67 612.76 2411.52 654.07 2162.17 736.71 2057.67 917.60 2345.20 956.07
00006211 00000037 1953.52 253.37 740.69 960.34 2095.95 614.54 2409.51 655.04 2160.33 738.16 2056.33 920.62 2343.84 958.16
00006212 00000038 1952.63 252.97 741.32 958.78 2094.96 613.18 2408.13 656.66 2158.66 739.35 2054.92 919.46 2341.63 959.35
00006213 00000039 1950.27 253.82 743.85 959.90 2095.40 612.58 2408.48 658.28 2159.01 739.68 2054.02 917.75 2341.35 959.31
00006214 00000040 1950.73 256.27 744.01 955.64 2095.80 612.55 2408.26 657.72 2159.62 738.82 2054.82 917.72 2341.34 959.02
00006215 00000041 1952.49 254.44 741.84 960.15 2095.42 614.23 2410.59 654.85 2160.83 736.92 2055.87 920.72 2344.15 958.40
00006216 00000042 1953.20 260.28 743.79 953.67 2099.03 612.57 2413.04 653.91 2163.24 735.37 2057.22 919.15 2345.77 957.77
00006217 00000043 1951.52 260.88 749.18 952.33 2098.29 614.05 2414.21 653.31 2164.06 733.77 2056.75 920.79 2346.76 957.81
00006218 00000044 1951.74 258.11 752.40 956.37 2097.91 615.59 2416.07 653.01 2163.94 732.95 2057.22 922.31 2348.75 957.51
00006219 00000045 1951.52 258.26 752.76 955.06 2097.69 615.15 2415.52 653.15 2163.64 732.85 2056.95 921.54 2348.03 957.15
00006220 00000046 1951.13 258.35 749.40 954.69 2097.93 614.71 2414.01 653.31 2164.19 733.99 2057.05 920.81 2347.32 957.08
00006221 00000047 1952.48 261.16 746.58 950.38 2098.85 612.84 2414.10 655.11 2163.91 735.72 2057.15 918.52 2346.17 957.54
00006222 00000048 1953.67 254.93 742.38 957.87 2097.85 611.68 2411.82 653.85 2163.35 735.93 2057.96 916.95 2345.85 955.63
00006223 00000049 1953.86 254.94 743.02 959.23 2097.09 610.36 2412.71 655.15 2161.15 736.53 2055.42 917.83 2344.14 958.89
00006224 00000050 1953.89 261.86 743.40 955.03 2098.99 609.82 2414.15 655.59 2162.77 735.77 2056.54 918.25 2345.61 960.12
00006225 00000051 1951.93 255.02 746.86 958.92 2098.12 611.15 2415.57 655.04 2162.39 734.64 2055.04 919.95 2344.44 960.32
00006226 00000052 1954.49 252.26 751.93 962.13 2099.90 612.09 2417.65 652.13 2163.04 731.99 2057.53 919.50 2347.43 956.55
00006227 00000053 1958.53 256.64 750.21 955.08 2101.42 614.08 2420.13 651.16 2164.29 731.19 2059.60 921.65 2349.51 956.57
00006228 00000054 1959.42 252.64 749.29 956.56 2102.14 611.75 2424.08 651.07 2167.38 727.39 2059.31 919.85 2351.31 956.82
00006229 00000055 1957.13 251.18 755.53 956.77 2103.83 610.85 2426.96 652.83 2168.98 727.69 2059.47 918.78 2351.87 957.74
00006230 00000056 1959.17 261.12 756.20 949.51 2107.61 610.13 2429.59 654.99 2171.38 726.77 2058.11 918.43 2349.89 960.67
00006231 00000057 1960.60 258.41 753.36 950.79 2108.03 608.89 2431.27 654.48 2172.30 726.50 2058.95 918.42 2350.85 961.35
00006232 00000058 1961.95 253.17 760.08 957.56 2109.57 606.94 2435.31 653.64 2174.22 725.38 2060.84 917.48 2354.66 960.84
00006233 00000059 1960.98 258.44 759.62 952.93 2110.64 607.80 2436.17 656.23 2176.55 724.68 2060.33 917.17 2353.59 962.18
00006234 00000060 1959.99 252.54 762.83 958.95 2108.60 608.95 2435.28 654.44 2174.95 725.66 2060.37 919.55 2354.09 961.86
00006235 00000061 1961.12 252.53 757.15 958.67 2109.41 608.63 2434.78 653.43 2177.30 726.51 2062.44 918.79 2356.13 960.43
00006236 00000062 1960.73 251.69 755.60 960.06 2108.75 609.13 2435.42 654.11 2177.30 726.78 2062.49 919.31 2357.83 960.99
00006237 00000063 1960.29 251.17 754.23 959.89 2107.93 609.29 2434.20 654.11 2176.77 726.41 2062.61 920.00 2356.98 961.60
00006238 00000064 1959.63 248.72 753.12 962.50 2107.85 608.35 2434.96 654.77 2176.80 726.53 2062.93 920.09 2357.39 962.81
00006239 00000065 1960.81 246.02 752.51 965.33 2107.08 609.09 2434.64 654.92 2175.99 728.30 2063.55 920.73 2358.19 962.70
00006240 00000066 1960.11 245.43 753.33 965.54 2105.17 609.72 2433.68 654.71 2174.35 728.58 2062.39 921.28 2358.31 962.42
00006241 00000067 1960.74 244.60 750.64 966.98 2105.13 609.53 2431.86 653.23 2172.63 729.26 2062.64 920.57 2358.19 960.73
00006242 00000068 1961.16 245.20 748.21 964.72 2104.76 610.48 2431.06 654.64 2172.70 730.55 2062.00 922.43 2355.09 963.10
00006243 00000069 1959.72 243.52 748.26 966.33 2102.90 610.70 2430.02 655.27 2171.89 730.57 2061.07 923.28 2354.17 964.02
00006244 00000070 1959.40 244.38 749.14 964.59 2103.81 609.74 2430.65 656.04 2171.65 730.13 2060.05 922.11 2352.86 964.38
00006245 00000071 1959.24 244.75 748.90 964.18 2103.87 610.06 2431.20 657.08 2171.55 730.39 2059.36 922.54 2352.41 965.44
00006246 00000072 1958.72 247.02 748.33 961.06 2104.39 610.41 2430.53 657.64 2171.75 730.83 2058.87 922.21 2351.60 965.55
00006247 00000073 1956.60 245.05 751.90 965.51 2104.05 609.49 2430.24 657.72 2171.79 729.34 2058.42 922.35 2350.30 966.40
00006248 00000074 1956.01 235.40 750.20 972.77 2099.82 611.71 2425.66 660.68 2166.56 731.37 2059.40 921.95 2350.81 965.59
00006249 00000075 1954.55 230.23 752.67 978.87 2100.00 615.07 2424.70 662.55 2170.71 732.60 2065.45 920.36 2357.45 961.72
00006250 00000076 1954.30 232.68 754.47 977.37 2101.32 613.61 2426.59 660.64 2171.17 730.30 2063.57 920.47 2355.89 961.63
00006251 00000077 1953.72 238.52 756.75 972.55 2102.72 611.98 2429.97 663.18 2170.92 730.68 2059.47 920.61 2352.41 965.75
00006252 00000078 1956.56 240.53 753.73 970.50 2103.59 611.06 2431.19 662.94 2170.60 731.43 2058.61 920.80 2351.81 966.72
00006253 00000079 1954.86 241.12 755.63 971.88 2103.78 610.89 2432.05 662.75 2170.79 732.67 2057.74 921.78 2352.05 967.79
00006254 00000080 1955.83 240.50 757.89 971.65 2104.64 610.11 2431.75 663.32 2169.69 734.52 2057.88 920.93 2350.05 968.06
00006255 00000081 1956.64 242.12 756.48 970.53 2106.04 610.45 2431.39 663.73 2169.06 735.16 2058.40 920.97 2349.62 968.28
00006256 00000082 1956.00 237.23 757.78 978.73 2105.22 609.64 2430.87 661.92 2168.49 734.56 2058.40 920.89 2350.62 967.32
00006257 00000083 1955.64 241.91 754.13 970.00 2104.08 610.38 2429.39 663.32 2168.95 735.12 2056.95 920.45 2348.56 967.62
00006258 00000084 1955.58 243.31 751.95 970.19 2104.89 610.30 2428.81 662.48 2168.93 734.73 2057.41 921.03 2348.67 967.88
00006259 00000085 1954.38 243.85 754.14 969.35 2104.89 610.30 2428.84 663.15 2168.64 734.73 2055.89 920.81 2347.38 968.13
00006260 00000086 1954.42 244.07 755.49 970.78 2104.95 609.36 2430.08 661.80 2169.30 732.57 2056.13 920.33 2349.43 967.38
00006261 00000087 1953.49 245.32 758.17 969.57 2103.37 609.81 2430.20 662.19 2168.47 732.29 2054.76 921.19 2349.17 968.23
00006262 00000088 1954.61 245.52 754.24 970.39 2103.79 610.34 2429.79 661.29 2168.93 732.59 2056.01 921.58 2350.00 967.55
00006263 00000089 1954.53 242.17 753.77 971.14 2103.53 609.60 2428.50 661.19 2168.41 733.25 2056.87 920.64 2348.67 966.85
00006264 00000090 1955.29 242.21 756.21 968.02 2102.79 609.35 2427.66 662.72 2166.69 735.20 2056.16 921.13 2345.48 968.85
00006265 00000091 1955.40 242.00 755.61 967.76 2102.29 609.83 2427.38 662.55 2166.91 735.16 2056.68 921.29 2346.02 968.35
00006266 00000092 1955.61 243.51 754.48 968.49 2103.53 609.70 2428.66 661.47 2168.12 733.41 2055.93 921.49 2346.35 968.13
00006267 00000093 1955.32 246.36 754.06 966.44 2103.24 611.06 2429.19 662.22 2167.99 732.81 2054.88 921.86 2347.18 968.15
00006268 00000094 1956.02 243.64 753.61 969.03 2102.39 610.10 2430.21 661.29 2167.82 731.39 2054.69 922.00 2348.48 968.07
00006269 00000095 1955.22 242.82 753.34 970.30 2102.11 610.74 2430.53 660.42 2167.98 730.96 2054.62 923.01 2349.37 967.92
00006270 00000096 1955.99 243.56 753.44 971.44 2102.57 611.27 2430.51 660.19 2167.53 731.06 2054.80 923.33 2349.43 967.72
00006271 00000097 1955.52 242.29 752.54 970.11 2101.92 610.97 2430.03 660.15 2168.02 730.48 2054.91 922.59 2349.45 967.08
00006272 00000098 1955.79 242.65 752.88 970.45 2102.51 609.39 2430.70 660.68 2167.51 730.26 2053.99 922.00 2348.52 968.26
00006273 00000099 1956.05 244.79 751.55 969.95 2103.82 609.31 2431.13 661.26 2168.71 731.12 2054.73 921.99 2348.46 968.86
00006274 00000100 1955.87 243.98 751.73 969.75 2103.58 608.96 2431.34 660.78 2168.89 731.65 2054.37 921.99 2349.00 968.82
00006275 00000101 1956.65 241.66 751.83 972.00 2103.32 609.54 2430.18 659.92 2167.64 730.55 2054.84 921.97 2348.97 967.38
00006276 00000102 1957.10 243.93 753.91 968.16 2104.37 609.86 2429.87 659.07 2169.50 730.07 2056.58 921.99 2348.13 966.72
00006277 00000103 1956.12 240.24 753.99 970.94 2103.69 608.29 2430.21 657.23 2169.96 728.70 2056.73 921.72 2348.21 966.13
00006278 00000104 1955.74 240.27 758.95 968.49 2102.93 607.87 2430.41 657.36 2167.77 728.06 2055.39 921.59 2346.46 966.39
00006279 00000105 1956.45 242.45 755.15 967.15 2103.34 608.41 2430.30 657.90 2169.34 727.94 2055.77 922.31 2346.56 967.43
00006280 00000106 1955.75 239.85 755.60 968.73 2102.31 608.78 2430.12 657.57 2169.45 727.70 2056.11 922.62 2346.88 966.82
00006281 00000107 1956.28 240.95 755.39 968.10 2104.04 608.21 2430.27 657.68 2170.21 727.36 2056.77 921.30 2346.77 966.18
00006282 00000108 1956.34 241.48 757.92 970.32 2104.27 608.81 2430.24 657.87 2169.92 727.58 2056.57 921.49 2347.46 965.99
00006283 00000109 1957.26 242.20 756.93 970.26 2104.66 608.68 2430.88 658.24 2169.55 728.31 2057.09 921.63 2348.30 966.49
00006284 00000110 1957.16 242.89 756.82 968.38 2104.50 609.40 2430.91 658.29 2169.78 728.59 2056.79 921.73 2348.13 966.11
00006285 00000111 1957.55 243.33 757.60 967.69 2104.46 609.43 2430.86 658.53 2169.70 728.30 2057.15 922.02 2347.79 966.57
00006286 00000112 1957.39 243.09 757.79 967.67 2104.98 609.14 2430.82 658.66 2170.02 728.76 2057.22 922.18 2347.27 967.10
00006287 00000113 1956.86 242.11 759.93 967.67 2104.14 609.00 2430.83 658.52 2169.09 728.87 2056.52 922.04 2346.98 966.87
00006288 00000114 1956.44 243.79 759.48 967.40 2102.20 611.38 2429.32 659.35 2167.43 729.94 2055.73 923.28 2347.92 966.85
00006289 00000115 1956.71 246.17 758.62 965.18 2102.42 611.56 2429.79 660.35 2167.58 731.07 2055.46 923.41 2348.58 967.82
00006290 00000116 1957.23 241.02 759.93 969.41 2102.26 609.98 2429.37 657.77 2166.90 729.12 2055.65 922.54 2347.30 965.96
CROP_BBOX: 1470 0 3120 1625
