Video ID: 	wFQsUOImpIw
H: 	1080
W: 	1920
FPS: 	25.0

FRAME INDEX X0 Y0 W H [Landmarks (5 Points)]

00016506 00000000 661.49 210.51 409.36 623.45 870.89 435.89 1033.21 432.99 1025.24 564.94 865.23 670.49 1006.54 671.28
00016507 DELETE   662.81 214.08 407.46 618.64 871.71 433.86 1033.08 432.96 1024.88 564.81 866.64 669.92 1005.16 672.08
00016508 00000002 661.63 214.74 406.12 614.56 871.58 432.45 1032.47 432.74 1023.74 565.14 866.27 669.45 1002.26 672.54
00016509 00000003 658.84 214.35 406.77 615.23 870.09 432.66 1029.93 432.83 1022.79 565.46 862.97 668.92 998.63 671.99
00016510 00000004 652.38 211.37 410.54 618.91 866.88 434.95 1027.30 433.52 1020.78 566.93 860.52 670.82 995.64 672.58
00016511 00000005 650.46 214.93 410.20 615.90 864.45 436.06 1026.34 434.18 1018.88 570.04 857.71 671.54 994.22 672.89
00016512 00000006 649.05 216.07 408.28 618.69 862.37 439.08 1025.12 434.43 1020.33 575.87 854.14 675.67 991.22 675.10
00016513 00000007 646.52 214.53 407.83 619.31 856.30 439.57 1022.09 435.91 1015.25 574.43 849.76 676.99 988.42 677.14
00016514 DELETE   643.07 211.66 411.06 618.43 840.61 433.75 1015.66 429.04 998.35 566.32 841.35 676.32 983.87 674.88
00016515 00000009 632.48 212.33 416.90 611.62 819.09 433.22 1003.92 428.46 977.57 562.13 829.68 672.31 981.12 669.77
00016516 00000010 619.80 197.88 427.09 615.59 802.66 434.34 991.00 420.83 964.55 563.68 817.30 670.13 970.94 660.93
00016517 00000011 615.40 198.72 431.63 616.65 794.28 437.52 987.29 424.86 950.18 567.24 814.40 673.01 968.66 663.04
00016518 00000012 614.44 200.51 429.43 622.39 789.00 440.99 981.54 431.65 940.37 571.69 818.50 679.95 964.73 671.30
00016519 00000013 614.10 207.97 429.02 622.51 790.61 442.59 974.62 437.74 932.47 572.88 826.72 686.58 956.42 681.16
00016520 00000014 614.54 210.03 431.03 624.67 794.08 447.44 976.09 440.57 936.03 577.37 830.99 692.15 960.89 684.86
00016521 00000015 618.40 205.94 425.17 639.67 806.89 456.78 981.60 445.84 949.99 581.17 836.92 699.82 965.27 689.86
00016522 DELETE   627.10 212.72 423.38 643.39 819.69 458.87 998.06 445.49 975.75 581.53 833.96 699.62 975.59 689.36
00016523 DELETE   640.37 219.59 421.45 642.05 840.69 456.21 1016.01 447.04 998.63 585.58 839.99 697.34 985.35 692.16
00016524 00000018 645.55 215.55 418.95 651.80 857.78 451.25 1018.36 445.26 1011.25 593.08 848.48 696.88 980.05 694.29
00016525 DELETE   653.94 230.11 419.23 634.69 864.89 453.32 1027.31 450.34 1021.93 593.12 857.36 695.74 996.90 697.21
00016526 00000020 667.47 242.78 409.04 624.46 874.56 451.34 1035.13 450.16 1030.61 589.88 868.61 698.20 995.98 699.28
00016527 DELETE   673.04 232.89 403.62 634.06 881.00 454.61 1042.38 451.58 1039.22 596.47 869.04 696.09 1008.43 698.32
00016528 DELETE   674.88 237.33 408.61 629.49 891.11 454.67 1044.82 447.70 1053.10 596.24 873.09 695.39 1010.08 695.09
00016529 00000023 682.93 245.75 410.72 618.54 891.78 451.24 1045.74 444.60 1055.76 586.81 882.45 693.44 1008.98 692.05
00016530 00000024 688.13 237.73 410.11 623.29 897.78 450.40 1051.27 448.85 1058.30 587.63 882.57 688.12 1011.10 691.57
00016531 00000025 690.08 241.52 410.28 614.56 901.32 450.61 1055.30 451.07 1058.68 589.30 883.19 685.77 1012.73 691.06
00016532 00000026 682.35 231.21 411.45 625.21 906.43 453.09 1053.30 449.92 1063.60 597.26 877.33 688.77 1011.09 691.00
00016533 DELETE   669.84 229.29 420.69 630.15 882.74 457.93 1047.25 445.70 1051.35 592.49 870.71 693.73 1010.55 686.72
00016534 00000028 662.21 228.76 425.09 630.97 870.12 456.21 1041.73 447.93 1031.36 597.68 853.37 691.14 1002.95 687.51
00016535 00000029 646.50 227.09 431.89 625.54 858.28 458.63 1025.45 451.13 1010.51 598.01 839.53 689.45 983.42 686.78
00016536 00000030 633.48 218.11 441.50 627.24 835.40 454.84 1018.23 446.34 987.43 597.10 823.30 680.98 975.74 679.84
00016537 DELETE   625.17 216.43 438.05 621.96 810.39 463.83 998.81 450.59 959.03 602.96 800.38 677.90 962.27 672.63
00016538 00000032 608.05 222.54 439.39 620.62 778.86 464.65 975.39 454.94 920.09 606.74 777.78 681.87 959.44 675.90
00016539 00000033 593.52 205.78 439.22 627.16 757.40 464.59 955.91 454.38 894.78 596.58 762.95 675.66 933.95 669.92
00016540 00000034 583.40 211.81 438.95 619.89 737.43 469.60 938.60 460.24 870.35 600.23 745.36 674.25 917.83 669.44
00016541 00000035 573.13 204.15 437.17 625.71 719.32 471.69 925.50 463.18 844.97 601.00 727.14 673.04 905.82 668.93
00016542 00000036 557.87 223.53 447.83 603.12 704.57 472.52 910.00 466.73 832.01 600.52 716.99 674.63 905.74 670.09
00016543 00000037 548.80 216.30 450.23 612.89 694.03 470.94 898.19 464.52 822.64 599.46 708.20 674.31 898.13 668.87
00016544 00000038 544.99 203.55 440.36 626.64 685.05 472.87 891.16 462.81 811.69 600.87 697.33 676.25 881.97 668.77
00016545 00000039 536.86 199.27 444.01 631.76 676.91 473.97 886.12 464.02 804.90 601.79 689.63 675.71 877.20 668.60
00016546 DELETE   534.28 200.65 444.58 632.13 672.82 478.39 879.05 467.16 799.03 600.74 687.20 676.79 871.21 668.40
00016547 00000041 533.39 204.17 441.53 629.06 672.81 483.87 871.46 472.54 794.16 599.39 687.43 678.34 864.96 669.36
00016548 DELETE   526.99 201.08 445.79 630.99 670.80 481.23 871.60 470.34 794.10 598.70 685.88 678.62 861.34 670.70
00016549 00000043 524.11 196.21 444.34 629.68 663.90 476.09 871.78 463.86 791.09 597.78 684.39 680.30 857.53 671.93
00016550 00000044 523.25 196.42 443.69 625.03 661.35 469.92 872.03 458.54 790.15 598.01 683.08 679.88 854.79 672.74
00016551 00000045 522.75 198.71 440.71 619.50 658.83 465.07 869.09 453.05 786.92 596.56 683.55 678.75 852.37 671.49
00016552 00000046 520.30 200.09 441.56 623.02 656.23 461.90 867.04 450.32 785.39 594.49 682.27 679.57 852.18 672.53
00016553 00000047 519.71 198.43 436.65 624.71 656.04 459.20 863.39 447.81 783.88 591.21 684.15 678.67 848.75 672.08
00016554 00000048 520.76 197.14 432.04 623.51 657.09 456.23 863.27 444.83 785.46 587.38 688.13 678.09 848.43 671.64
00016555 00000049 523.36 190.09 429.51 628.83 660.70 456.61 866.59 443.04 794.20 584.01 695.47 678.94 857.17 670.23
00016556 00000050 521.44 193.81 432.16 624.61 665.89 455.06 870.07 441.59 801.33 584.08 699.88 677.46 860.67 668.66
00016557 00000051 525.24 191.76 432.83 631.82 672.87 449.62 877.10 435.85 812.04 578.89 707.98 676.46 870.95 666.73
00016558 00000052 529.20 187.85 434.05 630.24 687.59 450.08 884.98 434.80 826.03 570.50 722.48 674.01 877.53 662.78
00016559 00000053 542.79 196.29 429.78 622.63 706.00 446.03 898.36 437.44 846.19 571.57 739.96 672.96 890.32 664.20
00016560 00000054 553.40 193.94 428.96 630.90 732.39 445.44 916.40 432.48 881.54 572.13 745.75 675.13 898.45 665.95
00016561 00000055 569.73 201.64 425.43 626.03 758.98 445.16 941.47 435.26 907.84 574.45 766.06 670.92 912.04 667.45
00016562 DELETE   574.48 213.38 433.13 616.55 787.55 445.98 956.12 440.48 933.95 579.74 784.20 674.34 922.40 671.91
00016563 DELETE   586.78 217.32 428.42 613.26 797.92 446.45 967.02 440.68 950.74 576.87 798.31 674.21 933.35 671.50
00016564 00000058 599.91 213.44 427.93 622.20 805.51 447.26 979.08 437.48 962.72 577.79 805.40 678.37 948.40 672.17
00016565 DELETE   604.67 214.16 423.37 622.08 814.66 449.16 984.41 440.51 971.16 578.15 817.60 685.61 953.43 679.94
00016566 DELETE   609.04 218.19 421.13 618.10 819.88 464.09 989.36 447.57 978.61 585.84 827.84 692.09 962.38 680.50
00016567 DELETE   614.37 218.92 421.32 618.31 824.69 469.71 996.10 454.05 981.41 590.65 823.66 688.04 969.41 678.11
00016568 00000062 612.40 219.62 425.17 612.98 825.52 465.38 998.86 447.95 984.31 590.85 827.05 686.17 971.95 674.58
00016569 00000063 618.21 219.87 420.15 614.98 823.53 455.07 997.77 443.27 981.67 582.37 828.89 684.95 971.37 677.08
00016570 00000064 618.33 221.08 419.68 611.39 823.50 447.29 996.93 442.09 978.91 576.76 831.28 685.13 965.18 682.01
00016571 00000065 617.20 219.09 420.93 613.65 822.56 446.82 997.63 440.00 978.38 578.43 831.92 685.97 966.99 681.30
00016572 00000066 618.69 220.42 422.17 613.18 820.60 447.93 998.26 437.90 976.52 579.83 832.28 687.75 969.42 680.43
00016573 00000067 618.17 222.42 424.70 611.28 821.77 448.94 999.66 438.70 977.19 581.15 836.04 689.59 972.05 682.06
00016574 00000068 625.82 220.20 418.85 615.06 828.15 451.84 1006.43 441.32 984.47 585.00 840.91 692.32 975.87 684.72
00016575 00000069 631.21 221.30 417.60 616.60 836.15 455.62 1010.76 447.01 988.17 588.98 845.56 693.02 979.54 687.33
00016576 00000070 631.97 219.66 418.49 623.20 845.15 464.55 1015.47 459.46 991.87 594.80 844.15 694.20 977.87 692.25
00016577 00000071 636.18 220.61 417.88 624.97 851.34 462.01 1018.93 456.89 998.94 597.26 845.73 694.90 978.78 693.68
00016578 00000072 642.24 226.12 414.26 617.19 857.55 460.21 1022.08 453.12 1008.04 598.13 848.69 690.63 983.63 688.54
00016579 00000073 642.70 222.48 417.23 620.28 863.78 457.50 1025.90 448.79 1018.24 599.56 852.82 690.18 985.77 687.01
00016580 00000074 643.34 226.85 418.30 626.01 869.37 456.81 1026.32 451.38 1021.88 602.51 853.26 693.32 982.87 692.99
00016581 00000075 639.02 225.10 422.65 639.51 871.70 456.12 1021.00 458.39 1013.66 604.30 850.80 696.24 969.98 700.65
00016582 00000076 643.37 224.22 421.07 640.89 870.56 456.37 1023.51 459.56 1013.22 604.09 852.35 698.68 972.59 703.68
00016583 00000077 645.08 227.34 422.27 633.55 871.78 461.11 1026.51 460.76 1017.14 604.70 858.33 701.35 978.95 703.61
00016584 00000078 646.53 232.26 422.79 628.34 875.00 464.00 1026.92 463.59 1020.84 606.88 861.10 702.78 979.07 705.53
00016585 00000079 661.45 246.86 416.67 614.26 884.27 459.96 1039.73 472.33 1024.88 606.19 867.48 705.09 979.67 717.69
00016586 00000080 659.94 250.51 418.80 609.29 896.19 467.75 1038.69 477.81 1033.65 617.32 860.50 699.55 981.58 713.26
00016587 00000081 664.84 247.70 418.61 614.32 900.75 471.28 1040.21 477.93 1040.78 617.82 864.24 700.54 983.72 711.66
00016588 00000082 666.46 251.29 420.86 612.26 897.68 480.29 1043.47 485.50 1041.96 615.12 867.72 703.65 989.27 713.32
00016589 00000083 667.26 245.93 419.41 614.42 897.76 480.28 1044.24 486.23 1040.70 612.63 869.36 702.12 991.66 712.05
00016590 00000084 665.89 242.89 421.58 615.94 898.61 472.62 1045.44 480.79 1040.83 611.86 871.49 701.35 993.30 712.82
00016591 00000085 670.06 243.00 417.60 614.84 903.90 466.96 1046.31 472.24 1046.73 614.09 875.67 700.61 995.52 710.33
00016592 00000086 673.03 243.28 418.41 613.52 911.26 464.25 1049.21 472.63 1052.04 612.11 887.37 700.48 998.56 712.43
00016593 00000087 675.19 244.43 416.77 610.57 912.64 461.68 1050.18 469.99 1056.82 609.16 887.54 698.34 999.23 710.41
00016594 00000088 672.68 232.18 418.61 625.46 912.17 458.05 1046.25 465.81 1054.04 607.22 881.47 695.95 995.38 707.05
00016595 00000089 672.33 230.60 419.41 630.53 911.66 455.74 1044.72 465.78 1053.20 606.38 878.88 693.64 993.98 706.51
00016596 00000090 671.69 227.51 421.93 633.83 910.65 453.23 1046.50 461.65 1053.77 604.31 874.34 691.36 994.24 703.11
00016597 00000091 672.98 228.66 417.99 629.69 911.27 450.78 1046.53 460.17 1056.39 601.16 877.00 690.49 994.43 702.94
00016598 00000092 675.51 226.82 414.11 630.95 912.49 447.99 1048.86 459.29 1056.67 600.34 880.08 690.52 995.85 704.10
00016599 00000093 676.25 228.54 414.10 631.07 911.75 448.24 1049.50 458.74 1056.97 601.10 879.37 691.57 996.83 704.60
00016600 00000094 677.82 229.66 414.58 628.94 912.14 449.85 1050.64 460.71 1056.48 601.52 880.68 692.04 997.76 705.38
00016601 00000095 679.05 231.43 416.45 631.19 913.94 452.66 1051.15 462.60 1058.53 603.98 882.91 696.42 997.18 709.36
00016602 00000096 680.61 240.98 418.75 624.91 918.53 457.38 1056.56 466.17 1062.36 610.81 887.29 701.34 999.81 714.01
00016603 00000097 689.52 262.58 420.39 604.47 917.36 464.66 1058.16 474.40 1059.24 612.33 891.51 705.22 999.43 717.88
00016604 00000098 691.85 263.88 421.30 605.20 923.30 470.75 1057.79 478.93 1061.93 619.45 893.90 708.39 995.76 719.90
00016605 00000099 696.21 262.84 419.65 606.35 928.00 475.79 1061.36 482.30 1065.68 624.58 896.67 710.48 999.88 720.69
00016606 00000100 701.37 267.48 417.96 605.52 927.84 476.03 1066.41 483.00 1065.29 628.08 893.52 712.58 1003.38 723.10
00016607 00000101 703.45 269.42 416.55 609.17 929.85 475.87 1068.22 483.96 1067.98 627.42 894.75 713.23 1006.37 724.76
00016608 00000102 704.69 269.26 417.07 609.19 932.37 475.64 1068.91 482.67 1071.15 628.62 896.21 714.02 1007.07 724.98
00016609 00000103 702.52 262.32 420.36 613.68 929.91 474.96 1071.40 480.15 1070.57 626.69 902.60 718.98 1012.62 727.98
00016610 00000104 702.83 258.96 417.84 608.73 929.32 477.98 1075.52 480.76 1072.62 626.31 920.03 725.32 1025.59 731.09
00016611 00000105 705.01 258.46 415.44 606.46 929.16 479.03 1076.80 479.80 1074.57 627.30 924.33 727.50 1029.42 731.33
00016612 00000106 701.68 258.16 420.23 614.35 929.13 475.74 1075.26 479.08 1072.44 623.72 917.94 722.36 1026.96 728.41
00016613 00000107 695.08 262.85 423.72 615.08 923.06 472.63 1068.89 479.04 1065.47 619.98 906.20 718.81 1017.21 727.34
00016614 DELETE   688.29 262.65 420.09 617.23 910.06 480.35 1058.30 487.96 1052.47 621.61 887.96 718.84 1006.54 728.33
00016615 DELETE   676.67 253.28 424.35 620.02 892.52 480.65 1051.90 485.33 1041.10 616.36 878.47 717.88 1000.96 724.25
00016616 DELETE   660.41 253.20 426.57 616.38 875.63 474.32 1044.31 479.12 1025.27 612.19 867.79 716.16 993.34 721.89
00016617 00000111 644.68 248.20 425.86 623.13 853.54 477.35 1024.29 472.95 1003.31 620.17 849.32 718.95 978.61 719.24
00016618 00000112 635.53 258.03 428.08 601.40 831.01 483.01 1011.33 471.77 986.32 627.94 832.00 722.75 972.17 716.08
00016619 00000113 617.33 269.71 437.23 600.98 817.93 487.12 1001.09 477.76 970.96 639.71 819.27 734.56 952.19 729.01
00016620 00000114 606.30 273.26 432.90 606.66 804.80 495.90 982.61 489.84 954.41 640.37 805.96 740.61 931.74 737.06
00016621 00000115 588.07 288.27 435.69 586.63 792.70 511.00 976.20 506.90 935.53 659.73 791.58 738.26 925.83 740.07
00016622 00000116 573.15 279.16 434.95 595.83 776.74 514.19 963.40 503.08 922.69 658.64 791.10 748.18 916.13 743.89
00016623 00000117 563.63 284.98 436.23 588.03 758.92 524.62 955.92 511.86 904.55 672.77 768.28 754.70 900.66 749.37
00016624 00000118 543.97 296.73 444.04 584.67 733.87 535.26 928.82 519.11 881.79 678.96 750.22 769.19 884.84 756.72
00016625 00000119 533.64 307.53 442.82 567.95 718.06 535.71 915.09 525.55 856.07 689.96 730.87 769.29 864.63 761.97
00016626 DELETE   523.07 317.18 440.03 565.86 710.44 542.36 903.28 527.71 848.97 688.28 717.74 767.77 851.23 758.84
00016627 00000121 512.20 307.28 447.52 569.54 699.46 547.19 896.36 526.04 841.30 694.21 702.22 764.16 835.77 752.50
00016628 00000122 506.62 316.49 441.24 551.39 691.43 543.84 891.59 525.90 832.32 690.60 694.41 759.10 832.57 750.01
00016629 00000123 499.90 305.67 449.04 561.26 685.17 539.96 889.94 524.38 824.92 687.01 688.00 754.85 828.50 747.92
00016630 00000124 498.81 296.00 443.27 565.38 681.59 531.55 887.02 517.73 823.64 676.69 689.11 748.35 832.80 742.57
00016631 00000125 498.26 284.78 438.62 577.06 678.19 524.18 881.54 507.77 828.09 665.19 689.77 741.89 839.27 733.71
00016632 00000126 492.64 270.46 435.03 588.95 674.36 516.78 873.04 501.34 824.02 653.22 683.10 735.96 833.10 728.22
00016633 DELETE   485.18 261.56 433.64 594.58 672.92 526.17 866.45 502.50 824.83 648.05 679.91 734.63 830.28 720.45
00016634 DELETE   479.82 258.44 434.91 596.13 669.88 521.55 862.91 495.39 824.77 642.52 675.53 731.90 828.14 715.74
00016635 DELETE   475.84 249.66 433.63 601.78 658.70 513.17 854.97 491.15 810.08 632.68 668.26 725.52 826.93 711.56
00016636 00000130 472.09 247.46 426.63 605.57 644.65 507.00 840.65 480.16 796.80 640.66 667.68 733.50 817.43 713.61
00016637 00000131 466.72 244.42 430.49 607.99 636.99 500.28 832.44 476.89 784.53 635.93 660.83 729.99 809.73 712.77
00016638 00000132 461.08 237.35 431.71 614.32 625.44 495.30 818.38 470.79 771.11 622.77 656.49 725.83 805.37 706.86
00016639 00000133 454.15 230.39 434.93 615.11 611.61 489.53 807.57 468.56 752.85 614.66 647.07 716.96 801.21 700.61
00016640 00000134 449.56 228.31 432.50 614.64 600.23 487.12 798.99 466.68 740.14 615.16 633.60 712.12 792.91 696.65
00016641 00000135 444.06 222.54 431.00 614.48 589.25 483.06 789.62 462.78 727.26 609.12 624.61 706.66 786.63 691.04
00016642 DELETE   441.69 211.96 422.10 621.99 574.87 490.58 777.63 475.36 705.60 604.10 608.91 697.12 771.42 685.80
00016643 DELETE   418.93 219.17 436.39 609.08 560.04 491.68 758.70 470.11 694.56 597.79 599.22 702.91 760.45 685.09
00016644 DELETE   405.04 209.97 438.57 622.34 541.67 482.43 743.30 454.10 681.44 593.09 586.33 702.09 751.56 679.24
CROP_BBOX: 240 0 1269 1050
