Video ID: 	tK-BNiGSDz4
H: 	1080
W: 	1920
FPS: 	29.97002997002997

FRAME INDEX X0 Y0 W H [Landmarks (5 Points)]

00050318 00000000 643.48 120.18 433.47 622.73 860.73 409.05 1037.22 416.90 1007.14 484.73 891.71 598.47 1021.62 603.65
00050319 00000001 652.82 112.12 427.21 626.19 860.24 406.86 1042.72 409.74 1005.49 483.65 889.98 601.43 1028.96 603.78
00050320 00000002 654.32 113.09 429.58 625.67 860.16 409.15 1045.33 409.52 1006.96 484.80 891.31 604.00 1033.89 604.17
00050321 00000003 655.59 117.37 430.42 623.34 860.36 411.73 1046.18 409.46 1007.98 487.47 895.06 608.40 1037.53 606.32
00050322 00000004 648.27 120.65 441.35 620.67 857.88 416.79 1048.24 418.12 1010.55 491.31 894.86 611.82 1035.26 610.84
00050323 00000005 650.69 121.65 438.99 627.91 859.28 418.32 1048.21 421.76 1010.14 496.59 894.75 615.57 1034.07 616.38
00050324 00000006 654.57 128.31 432.95 624.50 862.19 422.12 1043.81 424.25 1007.89 501.13 894.94 618.09 1028.44 618.63
00050325 00000007 657.18 131.47 433.32 623.74 862.87 425.45 1047.40 425.93 1009.48 506.30 894.78 622.96 1030.72 622.28
00050326 00000008 656.92 130.85 434.82 625.82 861.91 428.56 1049.19 428.29 1008.66 512.08 892.13 627.05 1030.42 625.62
00050327 00000009 654.52 135.38 437.22 624.51 858.15 430.68 1046.32 432.90 1003.97 515.89 888.95 628.93 1029.00 629.24
00050328 00000010 650.69 141.68 439.36 624.67 852.63 435.78 1044.84 439.31 997.53 524.21 880.52 632.39 1025.73 633.98
00050329 00000011 650.15 138.90 441.65 634.63 844.00 434.55 1043.62 439.88 986.88 526.39 869.09 635.63 1021.40 638.82
00050330 DELETE   650.80 141.59 439.32 643.82 838.08 432.58 1037.10 438.19 978.67 528.29 860.62 638.48 1017.69 642.09
00050331 00000013 650.62 138.43 438.80 656.67 834.74 427.23 1028.06 431.69 973.72 522.44 856.72 639.47 1012.25 642.14
00050332 00000014 649.99 129.45 442.05 668.28 832.53 419.36 1027.80 426.86 971.16 518.65 852.65 636.77 1011.50 641.84
00050333 00000015 646.97 125.34 444.95 669.80 828.37 409.10 1024.62 422.40 964.11 509.13 847.03 629.34 1005.89 638.93
00050334 00000016 644.34 115.72 449.42 669.80 822.94 403.99 1028.08 412.34 960.57 500.76 845.73 620.23 1012.34 626.86
00050335 00000017 643.03 111.00 449.62 668.79 819.64 401.29 1023.97 410.30 956.18 495.63 842.72 615.88 1008.88 622.83
00050336 00000018 642.22 112.23 449.34 665.18 818.56 407.37 1022.01 416.74 953.06 493.45 840.17 615.60 1006.44 622.69
00050337 00000019 643.78 119.13 443.94 658.89 815.63 418.07 1018.79 426.04 947.66 497.77 838.35 621.09 1004.91 626.79
00050338 00000020 642.04 128.53 442.87 655.92 815.30 420.54 1014.14 433.84 943.53 504.58 834.60 626.49 994.11 636.14
00050339 00000021 641.57 131.84 440.89 653.04 812.64 424.41 1011.51 435.13 941.48 509.42 833.14 630.35 993.68 638.07
00050340 DELETE   637.78 128.38 444.20 645.32 811.56 431.01 1008.49 436.10 948.07 512.41 839.13 639.11 996.16 641.80
00050341 00000023 640.83 130.00 442.71 636.51 805.59 432.99 1011.03 434.13 937.55 513.32 833.05 632.02 995.77 632.71
00050342 00000024 639.64 131.29 442.92 636.47 804.57 434.04 1010.59 434.25 937.26 512.47 833.50 633.16 996.11 633.04
00050343 00000025 634.19 132.09 445.17 638.83 806.16 431.91 1004.52 434.52 942.70 512.65 838.07 642.69 992.16 643.39
00050344 00000026 632.75 133.95 443.97 634.91 800.93 432.83 999.90 434.35 935.98 514.57 833.20 642.15 988.65 641.82
00050345 00000027 630.64 135.57 445.06 629.72 797.12 434.77 999.27 435.34 933.30 515.28 833.72 643.75 990.43 642.36
00050346 00000028 628.48 136.49 447.49 624.64 794.09 435.58 998.96 435.49 931.00 516.35 831.98 643.02 990.68 640.96
00050347 00000029 627.03 138.64 447.26 620.82 791.01 437.00 997.94 436.28 927.91 518.36 830.24 644.05 989.98 641.29
00050348 00000030 627.28 140.76 446.83 619.58 790.97 438.35 997.84 437.40 927.14 519.46 832.25 646.40 989.40 643.50
00050349 00000031 626.11 141.36 447.39 619.09 790.18 440.14 997.37 438.40 926.57 520.59 832.57 647.89 988.75 644.32
00050350 00000032 625.58 141.61 447.84 621.01 791.03 441.77 997.20 440.92 926.98 522.33 833.02 648.99 988.51 646.19
00050351 00000033 626.72 143.57 446.92 625.80 795.03 441.79 995.28 442.39 928.55 523.50 837.25 655.27 983.53 654.12
00050352 00000034 633.24 145.16 438.49 640.62 802.58 441.20 993.33 443.66 927.71 516.11 836.33 652.12 973.50 654.01
00050353 00000035 635.21 147.28 437.97 644.35 804.64 444.52 993.64 445.64 930.21 518.81 840.42 656.29 974.91 657.27
00050354 00000036 635.07 149.50 439.63 638.41 805.03 444.49 997.31 445.84 932.37 522.25 839.22 656.47 978.63 657.42
00050355 00000037 636.24 153.78 438.81 634.50 805.70 446.25 999.85 447.88 934.07 526.02 838.40 657.61 980.63 658.89
00050356 00000038 638.72 156.40 438.71 635.37 807.46 448.50 1005.16 450.57 936.96 528.28 838.48 657.95 984.61 659.77
00050357 00000039 643.43 157.85 437.98 630.89 810.87 451.99 1010.26 451.40 940.55 532.27 842.18 658.42 990.84 658.12
00050358 00000040 647.76 160.83 438.07 623.72 815.26 450.67 1016.30 451.81 946.36 534.27 845.60 657.94 997.04 658.98
00050359 00000041 652.34 162.23 436.46 613.84 820.67 450.09 1020.75 449.56 953.64 534.85 852.23 658.18 1003.49 657.70
00050360 00000042 654.02 160.40 437.18 615.98 823.75 447.66 1023.20 445.44 957.70 536.05 857.47 657.79 1006.59 656.04
00050361 00000043 654.91 159.90 438.57 616.27 827.45 445.91 1026.26 443.98 962.57 536.01 862.03 657.43 1009.78 655.86
00050362 00000044 657.02 157.52 437.68 616.29 830.23 444.86 1028.14 443.48 965.33 534.65 865.79 658.02 1011.26 656.64
00050363 00000045 659.72 154.56 435.83 622.34 833.32 445.16 1029.06 441.50 968.70 534.87 870.86 658.53 1014.84 655.15
00050364 00000046 663.38 154.66 435.54 626.59 837.13 444.31 1032.07 441.67 971.56 534.26 874.51 660.26 1016.34 657.90
00050365 00000047 668.65 151.04 435.87 635.74 839.16 442.49 1035.93 442.56 972.94 533.06 875.73 661.45 1020.28 661.07
00050366 00000048 671.45 150.37 437.09 638.98 841.31 440.77 1039.93 442.88 975.09 532.20 875.14 660.71 1022.44 662.11
00050367 00000049 672.50 148.13 439.70 641.64 842.97 439.92 1044.15 442.89 978.16 533.60 874.41 659.91 1026.16 661.76
00050368 00000050 674.78 150.24 439.48 637.41 846.02 440.24 1046.90 442.54 981.38 532.86 878.92 659.40 1030.29 660.81
00050369 00000051 676.75 148.11 440.03 634.90 848.60 440.87 1049.05 441.46 983.53 533.31 883.32 659.39 1032.07 659.55
00050370 00000052 679.38 147.34 440.66 630.82 851.06 441.81 1051.90 439.35 988.02 533.77 891.58 660.56 1038.07 658.09
00050371 00000053 683.49 145.99 441.44 629.66 854.46 440.87 1055.38 437.07 991.81 531.23 898.30 660.49 1044.22 656.79
00050372 00000054 686.58 146.79 441.17 630.31 857.41 440.34 1058.21 436.69 994.37 530.39 901.44 660.93 1047.31 657.32
00050373 00000055 687.57 145.98 442.36 633.33 859.39 439.81 1058.12 438.37 993.72 527.39 901.52 660.33 1044.31 658.65
00050374 00000056 688.70 145.31 438.94 635.57 862.20 439.89 1057.68 438.53 994.52 525.67 903.61 660.32 1043.99 658.53
00050375 00000057 690.19 147.06 440.32 634.27 864.90 439.92 1061.75 439.95 997.50 526.00 903.45 659.65 1046.72 658.87
00050376 00000058 690.44 144.82 442.18 635.07 867.70 439.07 1062.41 438.02 1001.97 526.90 905.87 657.12 1049.96 655.26
00050377 00000059 693.88 144.02 443.90 633.86 869.42 435.95 1067.03 434.17 1005.56 527.43 907.43 655.97 1053.98 653.51
00050378 00000060 696.04 144.77 443.22 629.26 873.41 434.04 1070.28 433.42 1010.04 524.63 912.29 652.83 1057.95 651.14
00050379 00000061 699.34 144.17 443.77 626.44 877.15 432.72 1074.12 431.85 1015.15 522.61 917.62 651.61 1062.95 649.59
00050380 00000062 703.58 146.22 441.72 618.45 880.03 432.51 1078.38 431.66 1019.02 521.98 922.48 650.00 1067.32 647.74
00050381 00000063 706.21 141.36 443.19 624.96 883.94 432.13 1085.24 431.19 1026.64 522.66 926.66 650.61 1074.97 647.89
00050382 00000064 708.83 149.55 441.85 616.09 887.90 431.53 1088.09 429.08 1028.17 519.32 924.81 647.23 1075.63 644.43
00050383 00000065 710.64 149.16 442.39 619.80 889.01 431.25 1091.87 429.45 1030.65 520.67 926.46 646.06 1079.92 643.70
00050384 00000066 710.76 148.38 442.82 618.26 889.79 428.83 1092.61 427.71 1032.17 519.29 927.60 645.11 1081.27 643.13
00050385 00000067 711.01 148.66 442.02 616.19 889.43 427.45 1091.60 425.70 1031.90 518.79 927.85 644.95 1080.85 642.47
00050386 00000068 711.68 147.06 442.24 619.76 889.35 428.51 1092.30 425.64 1032.38 519.78 928.58 646.03 1082.65 642.53
00050387 00000069 714.00 149.54 442.65 631.13 889.06 430.95 1093.26 429.27 1030.93 522.89 925.74 648.05 1082.17 645.95
00050388 00000070 713.25 149.89 440.85 647.91 888.55 433.01 1089.54 432.92 1028.78 524.84 919.78 653.87 1075.34 653.71
00050389 00000071 713.40 150.87 439.51 654.52 888.26 433.99 1087.85 435.67 1027.30 525.17 916.24 656.17 1072.58 657.62
00050390 00000072 711.76 151.47 440.48 651.74 888.05 434.34 1088.16 436.73 1026.76 526.50 915.50 655.14 1071.90 657.27
00050391 00000073 711.56 150.46 440.37 643.78 888.49 434.34 1090.06 437.04 1027.71 528.29 916.00 651.93 1073.56 654.15
00050392 00000074 712.18 149.44 440.06 634.81 888.63 432.02 1091.49 435.06 1026.87 526.28 916.37 646.19 1073.82 648.54
00050393 00000075 711.87 150.61 440.36 630.08 889.87 432.30 1093.68 435.90 1029.09 525.10 918.25 644.94 1075.60 647.64
00050394 00000076 711.17 149.64 439.54 629.96 890.35 433.10 1093.51 436.42 1029.90 525.61 919.27 645.93 1075.12 648.41
00050395 00000077 710.90 150.77 438.48 631.20 889.29 433.84 1092.61 436.52 1029.06 526.41 918.78 647.36 1074.82 649.43
00050396 00000078 710.36 151.04 438.50 631.37 889.70 434.11 1091.91 436.38 1029.70 526.81 920.27 648.15 1074.27 649.99
00050397 00000079 711.27 151.04 439.13 630.68 890.58 434.11 1092.92 434.66 1031.72 526.81 922.71 648.78 1076.41 649.24
00050398 00000080 712.03 149.46 439.11 629.71 891.89 433.18 1094.18 433.36 1033.31 526.00 924.66 647.77 1078.39 647.72
00050399 00000081 712.10 150.53 439.22 623.73 892.59 433.25 1095.19 433.17 1034.55 525.70 926.05 647.94 1079.53 647.52
00050400 00000082 711.53 151.50 440.30 619.71 894.07 432.99 1095.96 432.09 1036.99 525.97 928.39 648.96 1081.04 647.83
00050401 00000083 713.54 152.37 439.47 614.48 896.56 434.19 1097.51 430.70 1040.68 527.70 932.76 651.84 1084.60 648.52
00050402 00000084 715.51 152.28 440.68 617.49 900.05 433.32 1099.87 431.15 1044.05 529.19 936.10 652.17 1086.43 649.92
00050403 00000085 716.21 151.17 441.13 629.72 899.88 431.59 1101.84 431.57 1044.45 531.29 933.30 650.41 1088.05 650.05
00050404 00000086 715.10 149.65 441.37 647.52 900.69 430.03 1098.50 433.32 1042.98 531.59 929.40 652.79 1082.52 655.56
00050405 00000087 716.23 151.23 440.02 655.16 900.91 431.81 1097.80 433.63 1044.87 530.86 928.79 656.06 1084.30 657.71
00050406 00000088 719.07 151.20 441.96 656.81 905.40 432.91 1101.72 435.94 1049.46 531.63 931.82 657.20 1088.10 659.85
00050407 00000089 722.54 156.58 440.21 645.76 909.60 435.75 1104.29 437.53 1054.02 533.57 936.11 655.18 1091.19 656.88
00050408 00000090 723.34 155.33 441.12 636.04 914.20 433.16 1107.56 435.12 1058.89 531.27 943.00 649.52 1096.10 651.21
00050409 00000091 723.41 149.43 443.00 631.84 916.38 431.71 1110.54 432.96 1063.04 527.17 949.96 643.95 1100.89 644.31
00050410 00000092 724.49 151.95 441.99 621.87 917.69 428.20 1111.86 429.23 1065.58 522.85 956.18 640.22 1105.05 640.16
00050411 00000093 726.78 153.13 440.75 617.24 919.65 428.40 1113.03 429.33 1067.31 522.09 960.21 640.45 1106.78 640.20
00050412 00000094 727.24 156.28 440.80 615.83 920.75 430.64 1114.93 431.54 1069.01 523.93 960.56 642.15 1107.27 642.25
00050413 00000095 726.68 157.69 439.71 617.84 920.73 435.66 1114.68 434.41 1069.50 528.03 959.04 646.21 1106.01 644.81
00050414 00000096 725.04 161.85 439.10 615.54 921.71 438.10 1112.51 435.99 1070.11 529.66 959.58 648.60 1102.59 646.89
00050415 00000097 724.42 159.61 438.89 619.92 921.48 438.48 1111.67 436.09 1069.27 530.84 958.82 650.15 1101.40 648.19
00050416 00000098 723.15 157.32 440.13 620.43 921.76 437.63 1112.12 434.69 1070.58 529.97 959.64 649.48 1102.26 646.94
00050417 00000099 722.99 157.25 440.48 618.32 922.56 435.84 1113.76 432.63 1072.48 528.96 961.01 647.85 1104.52 645.00
00050418 00000100 723.23 156.96 440.13 617.75 923.17 436.10 1114.11 433.08 1073.13 529.11 961.41 647.76 1104.67 645.06
00050419 00000101 725.19 158.85 437.75 615.77 923.66 438.40 1113.12 432.95 1072.98 530.61 963.31 648.89 1105.25 644.40
00050420 00000102 726.75 162.09 436.50 612.41 925.23 439.04 1113.84 432.89 1074.33 530.20 966.14 649.30 1105.78 644.57
00050421 00000103 726.14 161.35 437.09 612.32 926.21 438.54 1114.37 432.55 1076.05 530.04 967.82 649.15 1107.06 644.32
00050422 00000104 725.48 159.96 437.13 612.93 927.07 437.23 1115.15 430.16 1077.84 531.18 967.73 647.84 1107.57 641.99
00050423 00000105 726.11 160.25 437.00 609.49 927.35 435.88 1116.79 428.67 1079.51 530.41 970.01 647.35 1110.22 641.33
00050424 00000106 726.73 161.23 436.17 608.22 927.65 437.12 1116.10 428.56 1080.38 529.26 972.64 647.84 1111.51 640.68
00050425 00000107 727.17 161.66 435.23 608.69 928.01 438.50 1115.79 430.07 1080.29 528.48 972.26 648.16 1110.73 641.12
00050426 00000108 725.82 161.50 435.97 608.86 926.75 439.15 1113.86 430.54 1077.88 529.56 971.35 648.14 1108.95 640.94
00050427 00000109 725.25 161.74 435.96 608.88 925.59 439.56 1113.42 430.64 1077.28 529.46 970.78 648.45 1108.89 641.01
00050428 00000110 724.73 158.06 437.38 610.92 925.04 439.18 1112.76 429.79 1076.71 528.46 971.25 647.27 1108.99 639.39
00050429 00000111 725.55 158.26 436.57 609.88 924.54 439.28 1113.08 429.27 1076.44 527.95 971.68 646.93 1109.58 638.49
00050430 00000112 724.53 158.18 436.72 610.71 923.79 440.22 1112.02 429.73 1076.28 527.23 971.21 647.00 1109.13 638.18
00050431 00000113 724.80 158.47 436.79 610.58 923.60 439.99 1112.32 430.45 1075.58 527.72 970.19 646.46 1108.77 638.39
00050432 00000114 724.59 163.35 437.11 606.40 923.88 441.93 1111.75 431.84 1075.88 528.14 971.98 648.92 1109.20 640.50
00050433 00000115 724.67 162.98 437.08 609.44 923.61 441.95 1110.88 431.95 1074.59 529.70 970.99 650.02 1107.25 641.98
00050434 00000116 725.31 162.66 435.59 609.98 923.43 442.85 1108.26 431.78 1072.86 529.64 971.42 650.10 1104.95 641.26
00050435 00000117 725.30 164.26 434.85 609.53 924.56 445.18 1107.43 434.98 1072.35 530.06 971.51 650.54 1102.94 642.49
00050436 00000118 725.14 165.35 431.90 609.10 925.26 449.59 1107.01 438.68 1071.24 533.85 970.80 654.91 1100.08 646.29
00050437 00000119 724.99 168.11 430.42 608.03 924.14 451.40 1107.68 439.76 1069.40 536.31 967.68 659.11 1097.07 650.14
00050438 00000120 727.04 169.68 426.55 608.71 924.46 453.23 1105.36 441.64 1069.06 538.76 968.85 661.64 1096.58 652.49
00050439 00000121 727.08 168.27 428.40 610.88 922.30 451.86 1104.33 438.45 1066.95 539.17 967.75 661.67 1096.66 651.14
00050440 00000122 726.07 166.26 429.92 611.76 920.04 450.21 1103.28 435.43 1065.41 539.09 966.44 660.74 1096.74 649.12
00050441 00000123 723.54 162.54 433.47 613.84 919.86 448.16 1104.25 433.66 1066.31 538.29 966.28 659.59 1097.71 647.95
00050442 00000124 723.94 162.60 433.28 614.10 919.88 447.80 1104.70 434.17 1066.06 538.09 965.68 659.42 1097.63 648.51
00050443 00000125 724.22 164.26 432.21 616.11 919.13 448.77 1103.61 435.32 1064.13 539.20 962.96 660.05 1094.80 649.59
00050444 00000126 724.36 166.01 431.30 620.79 917.78 449.27 1103.80 438.10 1062.69 541.93 959.43 663.92 1092.15 655.53
00050445 00000127 721.99 167.13 434.57 630.57 914.86 451.65 1103.77 443.39 1060.85 543.62 952.00 666.15 1090.09 660.05
00050446 00000128 721.94 166.08 435.81 638.10 912.70 450.69 1104.09 445.22 1059.12 544.62 945.05 665.50 1089.54 661.64
00050447 00000129 720.95 163.88 438.04 638.25 910.80 449.04 1103.99 443.96 1056.79 544.78 942.11 663.55 1089.60 659.85
00050448 00000130 720.18 165.18 438.53 633.30 908.99 448.65 1103.50 444.13 1054.29 544.72 940.73 661.62 1088.51 658.48
00050449 00000131 720.24 166.26 437.97 631.21 907.59 449.13 1102.53 444.43 1052.57 544.70 940.81 662.72 1087.94 659.45
00050450 00000132 719.01 166.98 438.42 629.28 905.68 450.62 1101.70 444.38 1051.21 546.11 941.02 664.39 1087.39 659.96
00050451 00000133 719.27 167.38 436.06 630.76 906.80 450.94 1098.16 443.86 1049.66 545.34 946.36 666.88 1085.39 662.01
00050452 00000134 718.74 167.39 433.65 630.90 907.05 450.05 1092.74 441.81 1046.95 542.22 950.38 669.00 1080.84 663.40
00050453 00000135 716.18 165.39 433.24 636.35 906.40 447.73 1088.38 440.56 1044.04 537.69 953.16 670.79 1076.58 666.11
00050454 00000136 714.13 164.88 434.49 640.27 903.64 446.96 1085.16 439.68 1041.59 534.18 952.03 671.07 1074.86 666.20
00050455 00000137 713.67 163.79 436.54 637.98 901.49 445.38 1086.28 438.12 1040.65 533.81 947.99 668.26 1076.16 663.45
00050456 00000138 712.93 159.91 438.13 635.78 899.80 444.46 1090.50 435.78 1043.96 535.32 944.25 663.95 1081.64 657.77
00050457 00000139 712.71 159.59 437.82 627.13 899.37 446.19 1092.37 438.32 1045.38 533.70 941.20 657.61 1084.50 651.69
00050458 00000140 707.91 156.10 440.65 624.96 896.32 449.68 1095.59 443.42 1044.05 528.56 939.48 655.24 1085.97 650.12
00050459 00000141 704.58 153.35 443.40 623.37 895.12 449.76 1095.81 441.95 1044.01 523.41 939.86 651.33 1087.45 644.69
00050460 00000142 701.83 151.32 444.90 621.62 891.96 447.51 1093.08 438.47 1041.49 521.05 936.91 647.34 1086.86 639.35
00050461 00000143 698.33 150.59 441.27 621.97 887.99 444.62 1084.94 435.48 1037.74 519.52 932.90 645.65 1082.31 637.55
00050462 00000144 699.05 150.21 434.47 626.78 889.81 439.15 1079.41 435.60 1035.68 515.92 930.81 647.98 1075.98 643.14
00050463 00000145 695.07 151.56 435.32 632.19 882.83 433.30 1069.56 430.93 1031.12 514.08 923.65 648.17 1070.26 642.79
00050464 00000146 693.08 149.70 436.25 642.78 880.98 430.30 1065.65 428.46 1027.23 508.30 919.63 645.39 1067.56 640.62
00050465 00000147 688.67 149.68 437.83 643.10 880.08 426.59 1063.05 425.62 1026.14 506.67 914.21 640.99 1063.85 637.18
00050466 00000148 686.92 148.99 438.26 636.74 878.07 423.97 1064.16 425.33 1025.62 505.32 909.97 635.64 1063.47 633.58
00050467 00000149 685.97 148.03 439.85 627.29 877.27 422.98 1065.10 423.03 1025.48 505.19 914.17 634.23 1064.93 630.75
00050468 00000150 688.59 150.08 433.95 615.77 879.53 424.56 1069.75 418.49 1028.41 502.66 923.72 636.02 1069.21 629.51
00050469 00000151 689.96 150.93 433.23 612.13 880.96 429.17 1070.71 420.83 1029.40 506.68 927.30 638.43 1070.37 630.13
00050470 00000152 690.45 150.99 433.31 614.06 882.36 432.16 1072.13 424.35 1030.39 509.80 929.81 641.77 1070.54 633.84
00050471 00000153 691.98 149.82 432.57 620.47 883.39 434.39 1073.64 429.01 1029.99 513.16 927.46 643.94 1070.07 638.01
00050472 00000154 692.93 154.75 432.65 619.22 883.41 435.67 1072.04 432.13 1027.95 515.11 925.21 644.73 1068.92 640.25
00050473 00000155 695.01 158.15 433.67 613.86 881.65 437.43 1071.29 434.79 1027.80 523.14 919.49 647.32 1068.98 641.26
00050474 00000156 695.67 160.31 435.59 613.38 882.95 439.53 1073.30 437.12 1027.80 525.04 920.20 649.65 1069.23 643.80
00050475 00000157 698.14 164.62 434.93 611.85 884.84 442.34 1076.83 440.27 1029.83 530.84 921.73 655.07 1071.02 649.54
00050476 00000158 700.92 164.07 435.90 619.42 890.52 445.24 1082.30 442.66 1036.53 536.84 925.58 659.80 1074.05 654.22
00050477 00000159 706.31 166.92 439.56 626.13 891.90 451.48 1088.50 444.56 1036.28 541.21 930.35 661.41 1077.71 656.68
00050478 00000160 712.35 171.95 438.42 629.64 897.74 453.10 1096.13 452.20 1039.93 550.64 930.46 667.89 1077.16 668.20
00050479 00000161 719.21 181.60 440.26 628.88 905.96 460.04 1105.90 468.96 1044.08 563.61 930.84 673.61 1078.67 681.84
CROP_BBOX: 460 0 1577 1068
