Video ID: 	jrQR1UMHlas
H: 	1080
W: 	1920
FPS: 	30.0

FRAME INDEX X0 Y0 W H [Landmarks (5 Points)]

00002016 00000000 869.96 160.61 525.42 695.42 934.46 446.42 1135.01 425.64 984.67 578.91 986.42 693.46 1146.87 675.54
00002017 00000001 872.35 170.15 527.20 690.73 937.83 447.83 1136.20 426.08 985.23 578.77 992.68 695.91 1153.05 677.00
00002018 00000002 871.32 168.49 526.99 691.91 937.64 446.47 1136.32 426.24 985.30 579.60 991.59 695.88 1150.50 678.30
00002019 00000003 872.35 168.86 525.41 690.72 937.07 447.71 1137.29 427.55 985.63 581.50 991.36 696.62 1151.71 679.19
00002020 00000004 871.96 171.53 521.18 673.66 933.78 443.92 1136.41 428.55 983.83 581.34 984.41 687.93 1146.67 674.40
00002021 00000005 868.06 170.49 525.70 668.14 940.68 440.46 1136.76 434.66 988.98 574.40 977.90 676.17 1138.54 671.14
00002022 00000006 869.94 178.47 525.30 659.27 942.61 441.35 1138.72 435.68 989.99 573.32 977.96 673.66 1138.86 668.69
00002023 00000007 869.30 175.24 525.58 662.15 942.04 441.49 1137.97 435.78 989.28 572.88 976.81 673.56 1138.55 668.61
00002024 00000008 870.41 172.57 525.37 670.67 943.11 440.90 1138.56 433.99 990.53 572.05 980.22 677.54 1141.59 671.45
00002025 00000009 871.03 169.30 524.26 682.78 936.52 442.87 1138.48 429.50 984.19 581.96 985.77 686.88 1151.72 674.67
00002026 00000010 869.77 171.45 522.48 684.16 932.38 444.22 1131.03 429.57 977.12 581.48 982.78 687.14 1149.69 673.48
00002027 00000011 863.91 161.50 525.95 693.31 934.26 434.88 1126.98 427.30 977.80 571.59 974.13 679.95 1138.51 672.58
00002028 00000012 864.14 162.86 525.68 692.26 934.18 435.32 1126.81 427.57 977.64 571.64 974.12 680.00 1138.36 672.50
00002029 00000013 868.85 163.82 518.31 685.99 925.50 438.84 1120.06 425.41 965.70 575.50 972.07 683.55 1133.26 671.06
00002030 00000014 864.34 168.45 517.63 680.82 924.04 436.57 1112.20 425.98 961.81 573.07 966.18 681.42 1126.64 672.03
00002031 00000015 861.23 160.81 514.85 685.25 915.42 436.61 1102.63 423.49 952.04 574.56 960.28 683.48 1116.95 672.33
00002032 DELETE   860.83 159.01 520.81 682.14 910.94 439.30 1098.01 432.50 942.84 580.38 959.96 686.72 1109.90 679.85
00002033 00000017 860.56 158.53 521.90 682.82 910.70 438.58 1098.28 432.40 942.47 580.17 959.76 686.52 1110.18 680.12
00002034 DELETE   854.47 165.28 524.26 673.93 904.97 439.15 1096.40 434.69 938.35 580.48 951.94 686.15 1103.59 681.58
00002035 00000019 852.41 168.78 522.69 668.03 901.42 438.89 1091.79 435.62 933.47 580.59 949.53 684.84 1099.92 681.23
00002036 00000020 851.22 173.68 525.15 664.81 900.27 438.99 1091.69 435.86 932.49 581.39 950.55 685.23 1102.46 681.34
00002037 00000021 848.45 174.80 525.50 665.15 902.61 435.43 1095.65 427.83 936.85 580.20 949.81 681.94 1105.16 675.17
00002038 00000022 852.27 171.19 529.02 671.48 902.81 439.52 1095.60 437.56 936.44 586.79 954.54 687.30 1108.14 684.24
00002039 00000023 851.96 172.41 528.46 670.49 902.61 441.08 1094.91 438.70 938.29 589.43 956.58 689.27 1108.33 685.98
00002040 00000024 852.15 175.12 526.96 666.78 902.22 442.36 1093.73 438.98 937.20 588.34 955.71 689.16 1107.09 684.90
00002041 00000025 847.04 166.80 526.76 675.08 899.47 437.88 1091.22 425.40 935.90 578.73 948.45 684.34 1102.66 673.67
00002042 00000026 845.44 169.69 526.10 670.82 896.25 437.98 1087.34 423.45 932.55 578.34 947.87 685.65 1100.50 673.28
00002043 00000027 844.56 167.15 527.25 674.34 896.16 438.28 1087.12 424.20 932.07 577.73 946.76 685.73 1099.43 673.80
00002044 00000028 844.50 174.31 526.14 667.00 895.43 437.22 1086.18 425.00 929.14 580.38 947.15 684.04 1099.40 673.35
00002045 00000029 844.37 170.25 525.55 671.16 895.06 437.38 1085.39 424.70 928.39 578.44 946.43 683.21 1098.86 672.22
00002046 00000030 844.56 173.79 524.54 668.94 895.81 436.63 1085.29 424.76 928.53 579.27 947.44 681.43 1098.82 670.94
00002047 00000031 843.45 171.45 524.33 674.21 894.97 438.01 1083.43 423.37 928.86 579.49 948.44 682.83 1100.87 669.92
00002048 00000032 842.63 170.51 525.63 675.00 894.83 437.90 1083.57 423.34 928.94 579.53 948.32 682.67 1100.69 669.86
00002049 00000033 840.87 171.08 525.43 672.23 893.58 438.62 1082.48 422.69 930.42 579.74 948.08 684.87 1097.99 671.16
00002050 00000034 846.05 166.67 525.27 680.23 896.09 444.66 1081.13 434.93 927.70 585.68 954.20 691.36 1099.55 681.73
00002051 00000035 846.24 165.35 528.08 690.75 896.90 445.28 1081.56 434.07 925.76 584.08 954.62 692.76 1103.97 681.58
00002052 00000036 839.26 162.32 531.23 697.13 894.11 438.50 1079.75 418.80 925.58 571.45 947.65 693.72 1096.07 677.01
00002053 00000037 839.34 162.54 530.61 697.48 894.34 438.21 1079.56 418.67 925.33 571.61 948.04 694.02 1095.86 677.43
00002054 00000038 839.62 168.61 525.90 679.99 893.19 436.67 1081.96 419.50 925.82 570.39 943.72 689.99 1091.26 675.55
00002055 00000039 838.77 171.58 522.50 672.87 890.61 437.03 1080.63 420.05 925.58 571.04 940.11 687.49 1087.55 673.50
00002056 DELETE   838.50 173.21 519.13 667.52 889.29 437.52 1079.65 420.44 924.95 572.08 938.49 686.46 1087.07 672.54
00002057 00000041 838.80 171.30 516.71 667.98 889.17 436.05 1079.50 419.67 924.49 572.23 937.32 684.97 1086.54 671.57
00002058 00000042 839.73 172.28 515.03 665.82 889.81 437.02 1079.90 420.33 925.10 572.21 938.04 685.57 1086.03 672.05
00002059 00000043 846.38 168.65 514.25 669.79 893.32 439.38 1074.47 430.66 920.12 581.15 946.11 680.88 1094.40 672.14
00002060 00000044 844.11 159.22 518.94 684.68 891.75 436.86 1071.69 430.50 916.70 582.14 942.74 681.57 1091.40 674.74
00002061 00000045 841.25 158.17 517.40 686.45 890.88 442.00 1073.42 432.85 920.91 581.95 946.12 688.47 1089.07 680.12
00002062 00000046 841.38 146.33 513.15 703.70 891.55 443.35 1072.85 431.86 914.98 580.30 945.03 688.30 1093.99 677.58
00002063 00000047 841.42 142.79 512.24 707.54 892.07 443.22 1072.40 431.83 915.41 579.12 945.23 687.70 1093.84 677.02
00002064 00000048 835.94 149.48 519.65 694.67 885.55 438.45 1071.06 419.57 917.32 576.87 939.82 690.61 1086.86 674.93
00002065 00000049 835.69 161.33 519.80 682.50 883.87 438.39 1068.16 419.50 914.19 577.14 940.63 687.27 1087.95 671.05
00002066 00000050 837.00 166.67 518.10 679.20 881.35 439.68 1065.47 420.99 908.44 576.85 935.72 682.95 1090.96 666.58
00002067 00000051 841.08 165.73 510.18 682.73 886.86 443.31 1062.33 431.09 907.98 581.59 943.34 679.17 1093.00 666.85
00002068 00000052 837.10 167.15 515.74 678.38 881.07 438.99 1064.26 421.93 908.05 579.03 934.77 681.13 1090.13 666.01
00002069 00000053 841.71 163.94 511.06 686.37 887.00 443.55 1062.05 430.94 908.53 583.89 944.86 682.29 1093.39 669.65
00002070 00000054 841.43 163.49 513.73 688.68 886.41 444.28 1063.11 431.28 909.14 586.23 946.30 687.16 1094.12 674.25
00002071 00000055 840.75 164.80 514.55 692.51 887.56 445.18 1062.40 429.70 911.04 585.33 950.44 694.48 1089.86 679.93
00002072 00000056 840.16 165.75 514.39 691.22 887.25 446.10 1064.02 427.81 911.46 582.15 949.98 699.82 1087.66 683.03
00002073 00000057 839.91 167.52 513.13 689.33 886.72 447.66 1063.50 427.52 912.13 582.01 950.51 700.55 1087.69 682.24
00002074 00000058 838.71 168.29 516.28 687.15 885.24 447.41 1063.54 428.07 912.14 583.99 950.88 701.04 1089.19 683.38
00002075 00000059 839.14 167.81 515.97 685.74 885.76 447.63 1063.71 428.38 912.70 582.92 950.52 700.79 1088.98 683.16
00002076 00000060 840.50 169.38 515.28 683.90 886.28 448.07 1063.92 429.19 912.57 583.90 950.60 700.19 1089.31 682.73
00002077 00000061 840.85 166.23 515.30 687.27 886.72 447.94 1064.04 428.96 913.08 584.06 951.58 700.55 1090.07 683.08
00002078 00000062 841.03 166.71 515.90 687.15 886.77 447.40 1064.21 428.33 912.74 583.35 951.42 700.48 1089.58 682.95
00002079 00000063 841.05 163.60 517.54 690.60 887.16 446.92 1065.36 427.79 913.65 582.80 951.48 700.72 1089.75 683.38
00002080 00000064 841.65 157.63 516.81 698.85 888.33 445.82 1063.95 426.22 912.91 581.71 953.07 700.26 1090.80 682.42
00002081 00000065 842.57 154.93 515.55 702.10 888.99 446.18 1063.17 424.86 912.95 580.06 953.81 700.55 1090.90 681.22
00002082 00000066 838.71 152.50 520.44 700.20 887.73 438.75 1067.71 414.71 917.85 575.39 948.24 695.76 1088.73 675.55
00002083 00000067 838.61 151.74 520.48 701.37 887.41 438.35 1067.69 414.47 917.24 575.27 947.80 695.86 1088.58 675.78
00002084 00000068 839.93 149.73 520.56 702.57 888.30 435.33 1069.44 412.44 917.62 573.04 947.04 694.69 1087.50 675.54
00002085 00000069 843.56 160.03 521.16 691.48 891.83 432.97 1069.34 410.88 916.88 567.93 948.59 691.13 1086.02 672.74
00002086 00000070 847.54 162.66 519.42 692.38 894.98 431.95 1072.51 409.29 918.34 559.91 948.65 688.56 1089.10 669.72
00002087 00000071 851.56 164.94 517.01 688.15 900.20 427.59 1075.74 408.35 918.33 552.88 948.83 681.46 1087.48 665.56
00002088 00000072 851.34 165.38 517.24 687.93 900.19 427.75 1075.65 408.37 918.39 552.97 948.98 681.58 1087.55 665.55
00002089 00000073 853.80 153.89 513.18 675.52 901.33 425.24 1078.51 408.74 920.09 549.22 944.35 670.38 1083.72 656.80
00002090 00000074 857.10 147.05 513.35 684.56 908.05 422.67 1076.14 418.79 920.02 555.30 945.66 659.97 1088.04 656.01
00002091 00000075 859.04 144.52 514.06 685.03 909.30 420.99 1078.70 416.24 925.18 554.91 946.84 658.58 1091.55 654.11
00002092 00000076 861.49 140.14 514.85 692.78 909.81 425.59 1081.13 414.86 927.68 555.81 949.69 668.37 1091.73 659.24
00002093 00000077 861.18 139.50 514.69 693.69 909.37 425.48 1081.65 414.58 928.08 555.79 949.42 668.74 1091.87 659.51
00002094 00000078 857.26 148.56 512.69 690.21 904.04 426.68 1084.20 409.27 929.65 554.02 946.51 673.12 1093.08 658.84
00002095 00000079 858.49 153.17 513.86 694.94 909.49 423.78 1088.14 409.28 932.51 553.05 949.91 672.31 1096.14 660.18
00002096 00000080 859.72 153.81 520.55 695.93 913.21 424.15 1092.96 407.10 937.87 546.90 954.88 677.04 1096.92 663.54
00002097 00000081 862.39 155.74 519.68 689.19 916.37 421.67 1100.19 406.89 943.77 545.56 954.23 673.25 1100.42 661.57
00002098 00000082 862.09 155.76 521.27 688.50 915.92 420.72 1101.38 406.83 944.48 545.92 954.63 672.10 1101.97 661.13
00002099 00000083 867.98 152.76 515.90 678.10 920.40 416.47 1104.59 406.93 946.30 547.68 955.73 662.81 1108.72 655.30
00002100 00000084 868.72 161.85 515.32 669.50 918.50 424.45 1104.28 410.50 948.22 552.28 955.23 667.83 1113.17 656.51
00002101 00000085 867.44 168.41 514.29 667.35 917.37 432.04 1100.48 418.30 945.77 559.72 956.18 673.99 1108.50 662.19
00002102 00000086 865.79 154.73 520.04 687.31 916.61 430.96 1098.72 421.14 941.06 565.67 959.12 679.76 1102.99 671.06
00002103 00000087 865.57 156.51 521.54 688.31 917.02 430.96 1099.55 420.90 941.39 565.13 959.25 680.78 1103.05 671.89
00002104 00000088 860.97 154.18 528.82 711.43 919.23 434.44 1095.43 420.80 939.60 563.84 963.43 690.89 1100.22 679.23
00002105 00000089 857.85 156.30 530.35 710.67 917.99 434.32 1098.49 420.36 943.53 563.45 963.10 692.54 1104.43 680.66
00002106 00000090 855.43 160.02 526.44 700.70 915.19 432.86 1098.10 417.72 944.87 562.11 960.91 689.48 1107.26 676.62
00002107 00000091 857.70 159.23 524.23 690.46 912.22 430.61 1099.85 416.13 942.09 557.98 953.53 681.90 1107.53 669.92
00002108 00000092 858.00 159.94 524.52 690.69 912.39 430.56 1099.72 416.16 941.40 557.65 953.29 681.89 1107.22 669.93
00002109 00000093 857.95 168.63 516.21 665.49 908.66 427.30 1098.49 412.81 940.98 550.47 944.32 673.73 1099.08 662.65
00002110 DELETE   854.73 156.98 516.13 668.96 907.67 421.15 1098.03 408.73 940.40 545.05 941.74 666.07 1094.18 657.21
00002111 00000095 854.04 155.48 513.80 666.70 906.66 417.08 1093.64 405.53 936.59 542.37 939.67 658.97 1092.86 651.38
00002112 00000096 854.46 159.85 511.77 661.59 906.18 416.61 1092.54 405.05 935.09 538.51 937.14 656.39 1092.13 648.87
00002113 00000097 854.35 162.16 511.04 659.03 906.14 416.72 1092.62 404.85 935.83 538.72 937.18 656.49 1092.57 648.68
00002114 00000098 854.29 164.62 511.72 659.38 905.46 417.87 1090.27 404.47 932.69 537.70 937.40 658.44 1092.20 649.22
00002115 DELETE   853.51 165.96 511.92 664.51 902.68 418.24 1087.54 402.16 929.33 540.44 940.64 666.20 1088.70 653.90
00002116 00000100 853.13 154.87 514.86 686.26 900.38 416.20 1082.07 398.01 924.96 542.90 944.12 673.79 1091.18 659.21
00002117 00000101 851.44 157.35 512.08 680.49 895.31 417.42 1077.73 396.03 921.68 544.35 942.62 676.02 1088.06 658.67
00002118 00000102 852.14 159.71 510.13 677.12 896.47 417.65 1078.51 396.43 923.42 545.89 943.39 676.43 1088.80 659.22
00002119 00000103 850.47 154.96 510.05 677.04 893.46 414.69 1073.34 395.88 916.54 546.29 941.75 672.53 1083.27 657.41
00002120 00000104 850.02 149.40 505.41 682.85 891.46 415.43 1068.81 393.86 914.53 548.85 942.61 674.78 1082.67 657.41
00002121 00000105 847.87 146.88 509.15 689.17 888.69 416.04 1065.54 391.37 911.12 548.37 942.01 677.31 1081.56 657.47
00002122 00000106 846.13 146.08 509.48 693.30 886.46 418.50 1063.91 389.50 909.60 546.74 940.59 680.60 1080.84 657.34
00002123 00000107 845.16 145.09 510.74 694.25 886.53 418.13 1064.47 390.24 910.57 546.74 940.27 679.89 1080.99 657.49
00002124 00000108 844.73 144.42 510.00 695.55 886.15 418.54 1063.92 390.28 909.92 547.32 940.06 680.79 1080.54 658.09
00002125 00000109 843.62 148.26 511.60 690.50 884.16 420.85 1063.29 392.35 908.18 547.78 938.19 680.55 1080.68 657.54
00002126 00000110 840.67 157.96 508.29 676.58 881.06 423.85 1062.15 396.33 908.58 551.23 934.40 677.98 1078.77 655.68
00002127 00000111 836.48 165.32 512.63 673.35 877.86 426.48 1061.72 400.80 907.56 554.43 930.62 678.45 1078.51 657.45
00002128 00000112 836.97 165.32 511.70 672.10 879.27 426.21 1062.28 401.64 907.90 554.78 930.60 677.10 1077.80 657.05
00002129 00000113 836.32 167.41 511.14 672.83 880.48 427.29 1063.29 402.46 910.00 556.77 933.18 679.23 1077.50 658.90
00002130 00000114 837.40 166.39 512.04 677.11 881.65 428.85 1062.52 403.05 909.84 556.90 936.76 679.69 1079.52 658.23
00002131 00000115 837.92 167.58 511.87 674.49 882.79 428.63 1064.06 401.74 910.22 554.72 937.61 682.42 1075.97 660.38
00002132 00000116 838.56 164.22 511.96 676.38 882.42 429.13 1063.80 400.92 911.13 554.56 938.03 683.20 1078.35 660.04
00002133 00000117 838.83 163.54 511.28 677.01 882.38 429.42 1063.62 400.77 911.12 554.51 937.86 683.49 1078.33 660.00
00002134 00000118 839.56 163.71 510.41 673.79 881.60 429.25 1065.46 401.80 911.12 558.35 935.22 683.84 1079.84 661.55
00002135 00000119 839.88 161.71 506.88 670.73 882.36 428.34 1064.86 403.09 912.97 560.32 935.46 679.04 1082.54 658.74
00002136 00000120 840.07 163.71 505.56 667.27 881.73 429.29 1064.01 403.54 912.39 560.66 935.50 678.52 1082.52 657.85
00002137 00000121 840.12 162.27 506.02 669.21 881.91 429.78 1063.14 403.48 912.19 561.20 936.83 678.82 1084.13 657.58
00002138 00000122 840.30 164.08 506.54 667.44 882.16 429.43 1063.65 403.51 912.09 561.36 937.03 678.55 1083.72 657.66
00002139 00000123 840.32 163.06 506.01 668.58 881.56 429.94 1063.06 403.47 911.68 562.28 937.32 678.95 1085.05 657.50
00002140 00000124 840.14 167.23 506.28 664.71 882.10 430.21 1063.70 405.17 912.63 563.25 937.69 678.03 1084.47 657.65
00002141 00000125 840.43 162.86 507.46 671.83 882.46 429.41 1063.92 405.72 911.88 564.40 938.31 678.48 1084.41 659.02
00002142 00000126 840.02 161.86 509.99 677.46 884.04 429.29 1063.53 406.57 911.17 566.75 941.57 680.17 1084.83 661.06
00002143 00000127 840.43 161.75 510.56 677.88 884.44 429.15 1063.16 406.81 910.79 566.27 941.51 679.95 1084.02 661.18
00002144 00000128 842.21 160.80 510.98 680.71 885.36 429.05 1063.04 407.98 910.42 569.24 944.40 681.58 1086.74 663.49
00002145 00000129 842.91 161.21 510.90 674.96 885.75 429.21 1065.08 409.05 912.63 569.57 942.89 680.04 1087.39 663.10
00002146 00000130 845.41 169.42 513.53 671.51 887.42 429.13 1066.25 410.30 912.34 569.89 945.28 681.86 1087.66 665.74
00002147 00000131 844.99 167.09 515.85 683.80 890.36 429.93 1066.23 408.03 913.47 565.47 948.57 684.84 1087.78 666.27
00002148 00000132 845.20 167.09 516.26 683.97 890.30 429.73 1066.00 407.81 913.01 565.55 948.66 684.97 1087.74 666.37
00002149 00000133 845.24 167.28 516.30 684.62 890.53 429.20 1066.71 405.96 913.71 564.49 949.09 687.25 1085.38 667.80
00002150 00000134 845.54 164.68 516.02 683.46 888.91 428.20 1065.06 404.68 911.99 561.68 947.35 685.51 1084.44 665.78
00002151 00000135 844.84 168.47 513.91 672.87 887.78 426.16 1065.66 405.47 911.64 561.80 944.54 680.34 1083.39 662.88
00002152 00000136 844.53 167.17 511.79 672.17 886.99 425.86 1065.33 405.22 910.40 560.59 941.20 678.29 1080.82 661.10
00002153 00000137 843.89 165.39 512.44 674.07 886.28 425.62 1065.17 404.87 909.94 559.89 940.44 678.09 1080.85 660.80
00002154 00000138 841.31 162.94 512.44 678.81 884.62 426.52 1063.73 406.06 909.24 562.28 939.74 678.90 1081.15 661.59
00002155 00000139 839.18 167.88 511.21 675.10 881.61 429.23 1061.49 408.39 908.37 569.32 939.65 682.46 1081.79 664.67
00002156 00000140 838.34 168.83 511.47 679.51 881.64 431.22 1061.84 408.84 908.48 569.16 940.15 686.50 1079.88 667.59
00002157 00000141 837.56 167.18 514.75 685.59 882.99 431.65 1062.84 407.50 909.26 566.70 942.32 690.05 1076.92 669.94
00002158 00000142 837.81 166.84 513.52 683.41 882.95 430.63 1063.66 407.07 909.96 566.95 942.00 689.66 1076.60 670.09
00002159 00000143 838.49 167.17 511.66 680.04 881.81 430.58 1061.52 407.23 908.92 567.44 941.63 687.16 1080.18 667.42
00002160 00000144 838.06 168.28 512.65 679.07 881.26 430.61 1061.45 408.18 909.20 568.36 939.48 685.15 1082.18 666.17
00002161 00000145 840.01 170.87 514.62 679.81 883.96 430.70 1061.88 407.58 909.15 567.38 944.43 686.60 1083.76 666.88
00002162 00000146 841.31 166.81 517.40 686.10 887.47 429.09 1064.81 406.80 910.75 563.70 945.37 687.62 1081.78 668.77
00002163 00000147 840.79 163.68 518.25 689.98 887.19 428.79 1064.43 406.28 910.27 564.05 945.22 687.92 1081.80 668.92
00002164 00000148 842.24 162.58 518.55 691.45 888.54 429.20 1065.18 406.69 911.00 564.78 947.11 690.25 1079.55 671.52
00002165 00000149 841.45 163.45 518.57 691.23 889.18 429.65 1066.03 406.66 912.75 564.43 947.20 691.15 1077.91 672.15
00002166 00000150 841.99 160.42 518.72 693.67 890.09 428.75 1065.57 406.29 912.56 563.95 947.21 690.19 1078.50 671.55
00002167 00000151 842.87 162.51 518.87 692.57 890.38 429.18 1065.89 406.63 912.59 564.77 947.95 690.50 1080.13 671.68
00002168 00000152 843.09 164.73 519.43 689.99 890.46 429.29 1066.17 407.04 912.64 565.19 948.08 690.24 1079.98 671.64
00002169 00000153 845.12 161.15 519.15 692.33 892.78 429.54 1067.94 407.22 914.96 562.54 949.22 688.91 1081.41 670.30
00002170 00000154 850.83 160.39 518.67 690.95 895.17 430.38 1069.91 408.36 916.07 562.37 951.09 687.71 1086.16 669.22
00002171 00000155 852.15 167.11 517.86 682.39 898.29 431.91 1073.80 412.19 919.47 562.72 950.45 685.04 1090.47 668.27
00002172 00000156 854.53 171.60 516.54 673.19 902.05 431.33 1078.32 414.90 923.64 564.53 951.20 681.25 1091.81 667.07
00002173 00000157 854.18 169.31 515.93 675.74 901.94 431.22 1078.16 414.37 924.05 564.21 951.08 681.44 1091.75 666.93
00002174 00000158 856.32 173.49 516.15 673.22 903.12 431.85 1080.17 415.01 924.98 563.50 951.28 681.36 1092.57 666.91
00002175 00000159 857.55 165.66 519.84 682.54 907.54 432.31 1085.49 414.55 929.34 559.15 952.79 681.00 1093.71 666.11
00002176 00000160 857.22 162.17 520.07 685.44 909.62 434.03 1090.14 413.36 936.30 555.85 955.92 683.25 1093.21 666.52
00002177 00000161 858.14 156.57 518.62 688.11 911.39 434.88 1092.69 413.54 940.56 554.42 957.36 683.06 1094.71 665.91
00002178 00000162 858.60 160.55 519.22 685.19 911.77 434.96 1093.77 414.37 940.98 555.18 957.18 683.06 1095.55 666.54
00002179 00000163 861.04 159.35 519.80 684.23 912.35 436.23 1095.46 416.11 941.00 556.62 957.16 682.71 1098.22 666.43
00002180 00000164 862.06 163.18 516.32 671.22 909.93 436.11 1091.38 417.93 936.48 561.20 956.28 679.69 1101.40 664.70
00002181 DELETE   859.22 162.15 517.31 677.29 906.15 434.54 1088.84 415.22 932.80 560.53 953.24 680.67 1100.47 664.50
00002182 00000166 856.57 157.67 524.80 691.22 908.70 433.79 1090.21 413.63 933.32 555.07 953.38 682.30 1096.65 665.87
00002183 00000167 857.10 162.91 523.85 687.19 909.21 433.72 1090.07 414.40 932.89 555.10 953.68 682.26 1096.68 666.51
