Video ID: 	5Dh7JFKnsgM
H: 	1080
W: 	1920
FPS: 	25.0

FRAME INDEX X0 Y0 W H [Landmarks (5 Points)]

00007530 00000000 1056.19 299.16 414.06 590.45 1139.07 504.37 1329.22 520.42 1204.48 627.45 1140.11 729.62 1288.04 744.09
00007531 DELETE   1055.69 293.57 419.96 596.93 1144.10 504.51 1335.56 521.55 1214.41 623.80 1144.98 727.24 1292.78 742.45
00007532 00000002 1060.15 293.91 421.87 598.16 1150.60 502.71 1341.78 520.81 1220.36 620.41 1147.44 725.53 1297.16 741.44
00007533 00000003 1063.27 296.23 425.49 599.00 1155.41 500.21 1348.36 518.82 1224.39 619.81 1149.51 724.99 1303.53 740.75
00007534 00000004 1066.07 295.44 425.88 602.38 1158.08 498.85 1354.49 515.96 1227.78 619.51 1153.04 727.61 1310.29 741.58
00007535 00000005 1066.75 297.75 428.41 603.60 1161.65 495.78 1359.75 514.72 1230.98 618.91 1154.53 726.62 1313.97 741.47
00007536 00000006 1068.85 305.53 428.34 596.23 1165.72 491.57 1363.96 513.80 1233.43 618.02 1155.52 724.31 1314.55 741.44
00007537 00000007 1064.59 318.60 443.33 591.09 1172.72 487.45 1374.23 519.36 1245.35 621.71 1157.56 717.28 1320.53 743.59
00007538 00000008 1068.51 315.61 442.25 593.73 1177.73 487.64 1376.99 520.64 1247.53 617.59 1160.37 715.16 1322.27 742.54
00007539 00000009 1069.07 321.52 445.49 584.88 1182.23 486.66 1381.23 522.38 1250.88 616.67 1161.87 713.79 1320.16 743.95
00007540 00000010 1075.39 315.50 435.77 575.58 1180.16 483.25 1378.39 516.05 1242.29 615.74 1162.68 713.97 1310.86 740.70
00007541 00000011 1080.96 309.30 435.65 575.35 1185.96 481.72 1384.49 515.44 1248.62 614.39 1168.81 712.36 1315.92 739.71
00007542 00000012 1079.95 303.65 445.21 581.78 1195.72 489.16 1390.18 519.48 1267.80 618.20 1183.74 715.14 1325.33 742.04
00007543 DELETE   1083.16 304.87 445.30 581.58 1202.06 488.13 1396.03 518.72 1273.31 616.94 1187.15 716.19 1330.13 743.38
00007544 00000014 1086.29 307.39 445.35 579.18 1205.68 487.16 1399.24 519.03 1276.55 617.03 1189.81 715.13 1332.72 743.22
00007545 00000015 1088.33 306.40 445.14 576.29 1209.20 487.97 1401.41 521.25 1279.52 615.85 1191.13 711.69 1334.29 740.79
00007546 00000016 1092.05 299.34 444.17 580.71 1212.89 487.08 1402.96 521.56 1280.40 613.26 1194.47 707.91 1335.86 738.01
00007547 00000017 1092.28 300.23 447.88 578.64 1215.02 486.23 1404.80 522.80 1280.26 611.59 1194.24 704.53 1337.02 736.21
00007548 00000018 1092.61 304.87 451.27 572.71 1216.33 484.11 1407.22 522.03 1280.77 610.29 1193.67 701.62 1338.37 734.07
00007549 00000019 1093.03 301.55 453.41 574.09 1217.59 484.28 1407.93 523.47 1280.82 609.58 1193.49 699.25 1339.83 732.79
00007550 00000020 1103.98 310.41 446.72 566.96 1219.06 483.64 1413.58 522.05 1280.21 605.11 1193.57 694.45 1346.68 726.46
00007551 00000021 1104.61 313.54 448.59 563.49 1220.54 482.44 1415.28 521.61 1280.55 604.99 1193.42 693.40 1347.14 726.00
00007552 00000022 1105.19 313.07 449.27 561.48 1221.69 482.58 1415.45 521.55 1281.78 606.12 1194.40 693.30 1346.21 725.82
00007553 00000023 1106.48 313.93 449.29 560.01 1221.76 483.07 1416.62 520.72 1282.87 606.40 1195.45 694.57 1347.40 726.01
00007554 00000024 1107.54 315.71 447.32 559.11 1222.28 482.57 1417.82 520.44 1284.19 607.00 1195.72 695.97 1348.17 727.50
00007555 00000025 1107.99 316.10 447.74 559.89 1222.55 481.92 1418.78 520.44 1284.28 607.24 1195.98 696.46 1348.98 728.45
00007556 00000026 1106.80 317.72 449.48 558.82 1222.14 481.47 1418.90 521.12 1283.43 606.78 1194.55 695.31 1350.61 728.12
00007557 00000027 1106.52 319.33 450.99 559.27 1221.32 480.46 1418.94 520.33 1282.57 606.81 1193.85 695.76 1350.78 728.68
00007558 00000028 1107.39 318.57 450.87 561.53 1221.96 478.97 1420.47 518.71 1283.96 607.26 1194.55 697.47 1350.01 730.39
00007559 00000029 1107.70 316.01 450.36 565.11 1223.41 476.75 1420.76 517.28 1284.80 606.98 1194.91 697.03 1349.72 730.71
00007560 00000030 1107.48 315.27 451.36 566.12 1224.29 475.20 1421.30 516.11 1286.62 605.95 1194.98 695.46 1350.05 729.36
00007561 00000031 1106.59 315.90 453.53 568.05 1225.13 474.13 1421.38 515.53 1286.64 606.53 1195.03 695.00 1349.34 729.41
00007562 00000032 1107.20 317.24 452.88 566.95 1225.51 473.80 1422.27 515.09 1287.72 606.85 1195.58 695.45 1350.39 729.71
00007563 00000033 1108.29 319.13 451.82 564.96 1225.64 474.22 1422.98 514.80 1289.02 606.94 1196.25 696.39 1351.63 729.99
00007564 00000034 1107.93 318.75 452.21 567.77 1225.86 474.14 1424.09 514.69 1290.58 607.09 1197.25 697.92 1354.11 731.33
00007565 00000035 1106.20 318.66 454.35 570.20 1225.85 473.34 1423.92 515.24 1290.29 607.34 1196.34 697.03 1354.63 731.61
00007566 00000036 1105.59 316.84 454.94 572.53 1226.70 473.89 1425.03 516.91 1291.68 608.33 1196.30 696.25 1355.53 731.82
00007567 00000037 1106.09 317.12 454.55 570.75 1226.72 474.29 1424.52 517.24 1290.41 607.94 1195.89 694.94 1354.05 730.56
00007568 00000038 1106.81 314.56 454.26 570.42 1226.65 467.27 1425.10 512.21 1289.17 605.41 1193.60 690.90 1351.23 728.31
00007569 00000039 1107.44 315.64 453.13 565.76 1226.59 471.70 1423.61 516.84 1286.75 604.29 1194.26 690.31 1351.73 727.68
00007570 00000040 1105.53 320.38 454.98 558.70 1223.75 471.52 1423.06 516.96 1285.67 605.29 1192.58 688.75 1354.01 726.10
00007571 00000041 1105.75 322.90 454.14 555.64 1223.64 475.37 1421.85 518.94 1285.60 605.55 1193.68 690.53 1352.52 726.25
00007572 00000042 1106.22 322.50 454.45 555.59 1225.48 477.64 1423.56 520.95 1287.58 608.16 1197.13 694.32 1350.92 729.73
00007573 00000043 1106.69 322.01 453.29 556.49 1226.57 478.49 1424.30 521.30 1289.21 610.42 1198.60 696.73 1350.81 731.77
00007574 00000044 1107.06 322.84 451.95 554.75 1226.90 479.11 1422.62 521.73 1288.36 610.34 1198.69 696.12 1349.30 731.04
00007575 00000045 1107.41 321.72 451.72 556.44 1226.97 480.81 1421.53 522.60 1287.89 611.39 1200.80 697.79 1347.38 732.10
00007576 00000046 1108.91 319.14 449.57 558.34 1227.15 481.61 1421.83 522.86 1287.91 612.01 1201.37 700.15 1346.55 734.00
00007577 00000047 1108.83 319.09 450.08 559.42 1227.07 483.27 1421.10 522.99 1287.07 612.74 1202.81 702.10 1345.45 734.83
00007578 00000048 1109.58 318.75 448.99 560.67 1227.03 484.04 1421.11 522.89 1287.40 613.25 1203.74 703.89 1345.24 736.03
00007579 00000049 1109.71 317.59 448.40 563.23 1226.65 485.01 1420.94 522.38 1288.49 614.37 1204.65 707.01 1344.86 738.05
00007580 00000050 1109.57 317.40 448.81 563.77 1225.98 485.43 1420.63 521.41 1288.71 613.30 1206.01 709.15 1344.37 739.03
00007581 00000051 1108.98 315.63 450.09 569.07 1225.69 484.88 1420.85 521.55 1287.72 613.10 1203.59 709.91 1344.38 740.52
00007582 00000052 1108.99 316.49 450.07 567.82 1225.31 485.12 1421.27 521.44 1288.08 613.59 1203.14 710.77 1344.69 741.07
00007583 00000053 1108.67 314.66 450.77 570.44 1225.13 485.41 1420.91 521.54 1287.86 613.96 1204.09 710.24 1344.57 740.52
00007584 00000054 1108.84 314.15 450.13 570.92 1225.48 485.59 1420.85 522.07 1287.97 614.37 1204.25 709.90 1344.68 740.52
00007585 00000055 1108.90 315.41 450.01 570.81 1225.04 484.97 1420.25 520.77 1286.86 614.85 1202.52 710.61 1343.42 740.67
00007586 00000056 1110.12 312.32 448.75 578.66 1224.48 484.67 1420.28 519.85 1286.18 616.67 1201.12 713.71 1341.45 743.28
00007587 00000057 1111.82 314.62 447.17 580.51 1224.97 484.51 1422.54 520.31 1287.23 617.47 1199.44 715.67 1344.46 745.83
00007588 00000058 1112.36 312.76 445.83 579.26 1225.42 484.53 1422.17 521.02 1286.99 617.06 1199.43 714.32 1343.98 745.03
00007589 00000059 1113.47 312.78 444.37 577.32 1225.07 483.84 1422.69 519.94 1287.31 616.07 1200.24 712.52 1346.61 742.81
00007590 00000060 1113.18 312.86 444.91 576.31 1224.91 481.98 1422.49 518.99 1286.80 614.34 1199.20 709.03 1348.71 740.01
00007591 00000061 1113.13 312.54 445.08 575.31 1225.36 481.22 1422.52 519.19 1286.68 613.76 1199.03 707.13 1347.93 738.84
00007592 00000062 1112.21 313.52 445.84 574.79 1225.32 481.47 1422.82 519.54 1287.15 614.65 1198.48 706.88 1348.38 738.66
00007593 00000063 1111.43 313.60 446.64 575.76 1225.53 481.83 1423.78 519.29 1288.77 614.83 1198.99 707.56 1350.08 738.83
00007594 00000064 1110.06 313.27 447.72 578.53 1225.60 482.15 1424.92 519.22 1290.24 615.73 1198.88 709.52 1351.18 740.45
00007595 00000065 1108.51 314.22 448.89 580.49 1225.78 482.74 1424.74 519.57 1291.47 616.55 1198.10 710.31 1351.26 741.11
00007596 00000066 1107.45 315.40 449.93 578.66 1225.59 482.57 1424.58 519.19 1291.81 616.22 1198.80 709.69 1352.18 740.17
00007597 00000067 1106.67 316.10 450.40 579.76 1226.05 483.26 1424.36 520.36 1291.55 616.84 1198.18 709.67 1351.58 740.61
00007598 00000068 1107.35 317.56 449.25 578.45 1225.56 483.00 1424.21 519.40 1291.26 616.90 1197.99 710.35 1351.61 740.71
00007599 00000069 1107.36 315.32 449.33 581.19 1225.83 482.46 1424.05 519.94 1290.87 616.51 1197.62 709.90 1351.14 741.18
00007600 00000070 1107.30 313.28 449.76 583.30 1225.76 482.81 1424.19 520.55 1290.31 616.44 1197.65 710.23 1350.74 741.78
00007601 00000071 1106.02 313.71 451.03 583.24 1225.59 483.75 1423.89 521.43 1290.47 616.64 1197.49 710.34 1351.03 741.84
00007602 00000072 1104.89 312.30 452.33 584.34 1225.30 483.98 1423.09 521.87 1289.37 616.16 1196.63 709.21 1350.33 740.92
00007603 00000073 1103.89 314.43 453.45 581.47 1224.33 484.03 1422.71 521.83 1288.32 615.90 1195.68 709.02 1350.15 740.55
00007604 00000074 1103.20 314.18 453.79 580.04 1223.75 484.10 1421.91 522.00 1287.32 615.25 1195.40 707.89 1349.66 739.50
00007605 00000075 1102.05 314.69 454.81 577.64 1223.97 483.80 1421.48 522.85 1286.74 614.18 1193.95 705.30 1349.44 737.81
00007606 00000076 1100.11 314.12 457.42 577.47 1223.68 483.64 1420.80 524.00 1285.81 613.61 1193.30 703.18 1349.22 736.74
00007607 00000077 1099.48 313.84 458.50 577.48 1223.98 483.63 1421.20 525.25 1285.33 614.07 1192.94 701.82 1349.41 736.43
00007608 00000078 1098.60 313.64 459.33 575.26 1223.75 484.20 1421.49 526.40 1284.82 613.83 1192.46 700.74 1349.63 735.76
00007609 00000079 1099.97 314.47 457.68 569.52 1224.02 483.22 1421.61 525.41 1285.34 613.11 1193.81 698.87 1349.29 733.77
00007610 00000080 1099.79 313.92 456.72 568.60 1224.15 483.54 1421.61 525.73 1286.18 612.50 1194.58 698.12 1350.30 732.94
00007611 00000081 1099.14 314.15 457.01 566.69 1224.04 483.84 1421.44 526.44 1286.28 612.11 1194.31 696.79 1350.36 731.95
00007612 00000082 1090.08 309.40 462.73 570.03 1224.14 485.31 1414.75 528.59 1288.84 616.25 1195.83 700.10 1346.68 737.16
00007613 00000083 1090.25 307.08 461.88 572.61 1224.19 485.05 1414.84 529.10 1288.90 616.44 1195.04 699.54 1346.81 737.28
00007614 00000084 1090.06 305.85 460.66 572.80 1223.20 485.73 1414.42 528.77 1288.50 616.74 1195.34 700.21 1346.76 737.13
00007615 00000085 1090.14 308.34 461.46 570.18 1223.52 485.46 1414.93 528.65 1288.28 616.72 1195.01 699.94 1346.72 736.96
00007616 00000086 1090.41 307.45 460.68 571.14 1223.48 485.53 1414.67 528.81 1288.30 616.66 1194.91 699.92 1346.75 737.06
00007617 00000087 1091.90 308.21 458.86 567.65 1223.27 485.97 1414.89 528.26 1288.37 616.96 1195.73 700.26 1346.01 736.60
00007618 00000088 1092.72 308.49 458.34 565.36 1222.59 486.37 1415.19 527.86 1288.27 617.18 1195.94 700.74 1345.51 736.40
00007619 00000089 1093.16 309.45 458.27 565.14 1222.85 486.64 1415.22 527.75 1288.08 617.39 1196.41 701.44 1345.37 736.78
00007620 00000090 1092.20 312.61 458.67 563.20 1222.63 486.68 1415.86 527.68 1288.73 618.49 1195.71 702.59 1345.71 737.89
00007621 00000091 1090.78 313.53 459.07 567.69 1222.70 486.70 1415.81 528.54 1289.25 618.53 1194.74 703.97 1347.12 739.92
00007622 00000092 1090.25 313.32 459.60 568.47 1222.74 486.47 1415.32 528.54 1288.62 618.43 1194.38 703.74 1346.56 739.89
00007623 00000093 1089.38 312.95 459.49 568.97 1222.75 486.57 1414.82 528.91 1288.64 617.90 1194.22 702.83 1347.18 739.17
00007624 00000094 1088.84 314.79 459.51 567.46 1222.90 485.73 1414.78 528.59 1288.38 617.40 1193.37 702.10 1347.10 738.85
00007625 00000095 1089.01 315.35 460.27 565.73 1222.79 485.06 1414.65 527.91 1287.61 616.57 1192.94 701.08 1346.82 737.79
00007626 00000096 1088.63 311.49 460.47 569.58 1222.28 484.40 1414.09 527.46 1287.55 615.98 1192.83 700.44 1347.25 737.36
00007627 00000097 1087.95 312.46 461.27 569.50 1222.08 484.28 1414.72 527.98 1287.59 616.30 1192.49 700.78 1347.35 738.20
00007628 00000098 1088.49 314.03 459.91 568.06 1221.71 486.60 1414.30 528.48 1287.98 617.55 1194.03 703.31 1347.24 739.22
00007629 00000099 1087.60 314.01 460.36 569.59 1220.89 487.62 1413.86 529.81 1287.14 619.27 1192.74 704.33 1346.49 740.60
00007630 00000100 1087.80 314.93 460.20 568.46 1221.38 488.41 1413.90 530.35 1287.73 619.86 1193.55 704.91 1346.43 740.94
00007631 00000101 1099.80 318.06 450.78 563.67 1220.14 487.04 1418.52 527.02 1283.22 615.07 1193.44 701.00 1350.73 733.79
00007632 00000102 1088.83 311.04 460.12 570.50 1219.77 486.35 1413.76 527.06 1287.29 617.58 1194.31 704.03 1347.25 738.99
00007633 00000103 1088.94 309.05 459.37 572.70 1220.02 486.07 1413.63 527.23 1287.37 617.28 1194.46 703.44 1347.69 738.81
00007634 00000104 1088.39 313.43 459.22 569.66 1219.29 487.15 1413.70 527.76 1286.95 619.03 1193.45 705.06 1347.07 740.06
00007635 00000105 1087.11 311.47 460.00 574.15 1216.76 485.16 1413.64 526.67 1285.30 618.94 1188.27 704.42 1343.89 740.23
00007636 00000106 1085.69 310.84 458.63 576.26 1214.90 486.69 1410.42 527.59 1283.02 621.42 1187.08 706.97 1342.30 742.43
00007637 00000107 1093.49 315.24 450.31 572.56 1212.53 490.69 1412.39 532.29 1275.09 623.99 1184.78 708.32 1342.27 742.80
00007638 00000108 1088.41 321.48 458.83 569.95 1211.56 497.74 1412.05 542.54 1274.04 633.25 1182.94 713.23 1340.69 750.31
00007639 00000109 1084.48 337.39 455.47 568.91 1203.94 509.15 1407.22 553.63 1267.03 648.08 1173.96 726.52 1338.93 763.47
00007640 00000110 1083.48 359.89 456.83 560.84 1199.11 522.63 1403.83 564.08 1266.19 666.71 1174.06 741.46 1341.45 775.75
00007641 00000111 1081.93 368.96 456.96 556.27 1198.40 528.24 1401.29 571.78 1264.16 674.65 1174.82 747.94 1337.41 784.08
00007642 00000112 1080.67 369.99 456.75 554.71 1197.21 528.63 1399.83 573.02 1262.88 674.40 1172.17 746.89 1335.71 783.70
00007643 00000113 1079.68 368.75 456.24 552.70 1195.72 525.81 1399.20 569.28 1262.39 669.99 1170.18 742.96 1336.72 779.06
00007644 00000114 1079.73 362.34 452.15 553.60 1192.75 523.89 1398.48 566.72 1261.44 664.39 1167.20 739.20 1335.01 774.63
00007645 00000115 1077.11 350.11 452.44 560.80 1192.51 520.84 1398.46 565.10 1260.83 656.66 1164.62 733.14 1334.27 769.71
00007646 00000116 1078.45 341.70 438.93 564.39 1192.31 511.63 1393.23 553.27 1256.83 647.42 1165.45 729.22 1335.09 764.91
00007647 00000117 1076.62 335.80 439.09 567.52 1190.59 512.34 1389.48 550.00 1256.12 643.91 1165.56 727.69 1334.49 759.86
00007648 00000118 1075.96 337.20 441.03 566.59 1189.22 510.35 1389.40 548.95 1254.13 643.44 1163.60 726.92 1332.68 759.68
00007649 00000119 1077.01 336.63 439.65 567.78 1189.75 512.11 1389.42 550.42 1254.44 644.37 1163.66 727.14 1334.61 759.78
00007650 00000120 1076.38 338.66 440.86 568.48 1190.50 514.22 1390.36 553.24 1255.59 645.95 1164.56 729.29 1335.75 762.56
00007651 00000121 1076.55 334.42 441.61 571.40 1192.38 514.24 1392.82 553.62 1257.46 645.06 1165.85 728.34 1337.29 761.83
00007652 00000122 1078.71 330.32 444.60 570.44 1194.23 509.90 1395.71 550.62 1257.75 640.83 1168.10 725.09 1337.71 759.51
00007653 00000123 1079.48 330.76 446.63 568.09 1196.95 507.81 1399.12 548.44 1260.94 636.92 1171.95 723.51 1340.67 757.65
00007654 00000124 1081.56 326.53 446.94 571.33 1199.86 504.54 1401.65 545.13 1264.03 635.83 1174.29 723.22 1340.90 757.25
00007655 00000125 1082.37 330.35 454.12 568.82 1202.02 507.09 1404.05 547.71 1268.38 636.88 1175.70 722.18 1340.61 755.46
00007656 00000126 1081.89 332.50 454.63 567.10 1200.87 507.06 1403.25 548.26 1267.01 638.04 1174.08 722.32 1339.78 756.00
00007657 00000127 1081.01 328.70 446.36 570.70 1198.28 503.15 1401.30 544.53 1262.67 636.99 1172.19 723.50 1340.26 758.04
00007658 00000128 1079.37 325.15 444.81 570.63 1199.48 500.98 1401.08 542.10 1264.03 633.90 1173.20 720.72 1338.43 754.91
00007659 00000129 1078.98 321.97 445.29 571.69 1201.30 498.22 1401.56 538.47 1265.87 631.52 1175.40 718.85 1338.40 752.06
00007660 00000130 1079.78 327.68 445.31 565.11 1202.67 493.93 1400.50 534.83 1264.39 631.81 1175.76 716.36 1334.94 750.20
00007661 00000131 1077.10 329.15 446.50 567.95 1198.06 499.23 1398.18 537.93 1264.13 633.63 1173.50 719.65 1337.82 751.72
00007662 00000132 1078.10 330.94 445.26 568.77 1195.31 502.38 1396.65 541.78 1260.72 637.50 1170.31 721.72 1337.94 754.76
00007663 00000133 1077.76 332.59 444.52 568.85 1195.12 501.63 1396.29 541.76 1259.87 639.30 1168.57 721.71 1337.15 755.32
00007664 00000134 1077.56 325.87 443.31 570.38 1196.49 501.21 1399.01 540.91 1262.54 633.96 1170.84 721.72 1337.14 754.73
00007665 00000135 1075.75 317.27 445.07 571.72 1199.72 495.13 1400.35 535.88 1264.49 627.08 1173.87 714.51 1336.16 748.01
00007666 00000136 1079.86 311.19 442.88 570.88 1199.52 491.07 1399.53 530.62 1262.20 622.26 1175.57 711.51 1333.87 743.91
00007667 00000137 1079.69 316.84 441.88 565.18 1198.34 488.60 1397.58 526.41 1262.83 622.10 1175.63 710.88 1332.22 741.98
00007668 00000138 1077.12 318.43 441.83 566.56 1196.46 491.45 1394.62 528.47 1261.59 623.15 1173.76 711.87 1332.27 742.32
00007669 00000139 1073.66 323.29 442.02 569.61 1194.39 499.43 1392.97 535.59 1261.28 631.88 1169.66 717.65 1334.13 747.74
00007670 00000140 1074.87 328.57 442.38 572.86 1191.24 505.57 1391.60 541.63 1259.94 641.63 1166.78 723.54 1338.80 753.74
00007671 00000141 1076.05 340.25 439.97 568.09 1192.94 511.75 1390.75 552.16 1256.50 647.72 1163.91 728.27 1334.96 762.44
00007672 00000142 1076.40 349.53 446.68 561.15 1191.90 515.11 1391.79 557.99 1256.90 658.10 1165.96 729.88 1334.15 765.68
00007673 00000143 1077.39 347.58 446.00 562.99 1190.90 518.01 1392.77 559.17 1256.75 658.04 1166.26 731.33 1335.67 765.68
00007674 00000144 1077.22 351.06 444.14 554.19 1192.17 516.42 1394.20 558.60 1257.60 652.89 1167.47 728.54 1335.66 764.02
00007675 00000145 1074.46 337.70 442.87 565.25 1191.01 512.18 1392.40 551.93 1258.15 641.68 1164.62 724.39 1338.81 758.33
00007676 00000146 1073.84 328.80 442.08 570.24 1190.56 506.93 1390.16 544.09 1257.55 637.76 1166.83 722.48 1335.08 753.65
00007677 00000147 1072.57 325.98 441.39 569.22 1189.35 504.96 1388.97 541.53 1255.38 636.00 1167.35 722.76 1331.13 753.38
00007678 00000148 1072.92 326.04 441.00 569.56 1188.07 504.98 1387.57 542.78 1252.83 635.73 1164.29 721.77 1329.57 753.40
00007679 00000149 1073.25 320.50 440.71 576.99 1185.61 508.79 1384.67 545.61 1250.65 638.21 1161.21 723.28 1329.56 754.22
00007680 00000150 1073.74 324.19 440.42 573.64 1185.40 510.57 1385.04 546.94 1250.95 638.81 1161.24 724.52 1330.55 755.23
00007681 00000151 1073.90 324.65 440.59 573.61 1187.21 508.28 1388.19 545.57 1252.75 637.26 1163.61 723.95 1332.71 755.19
00007682 00000152 1075.45 321.74 439.21 571.06 1191.27 507.15 1391.00 543.17 1257.59 633.55 1169.63 723.51 1333.57 753.49
00007683 00000153 1076.13 321.41 440.51 571.76 1193.43 506.07 1393.67 542.38 1261.29 632.69 1171.51 722.04 1336.86 752.16
00007684 00000154 1076.32 323.13 440.36 572.32 1193.07 507.09 1393.10 543.39 1260.70 633.69 1170.66 722.51 1337.53 752.78
00007685 00000155 1077.31 321.34 441.12 577.20 1193.78 503.19 1393.68 541.29 1260.31 636.22 1168.94 721.42 1336.74 753.01
00007686 00000156 1078.23 322.63 440.17 579.57 1193.60 502.98 1394.14 541.94 1259.78 637.34 1167.32 722.14 1336.94 754.39
00007687 00000157 1079.23 320.43 441.43 582.94 1195.16 501.61 1395.48 542.12 1259.14 637.07 1167.12 721.40 1335.78 754.93
00007688 00000158 1079.14 320.07 442.63 582.48 1195.31 500.16 1395.15 541.07 1258.46 637.54 1167.08 721.51 1333.55 755.40
00007689 00000159 1079.27 318.80 441.36 579.78 1194.83 500.22 1393.90 539.71 1257.53 637.11 1167.72 720.68 1331.78 753.30
00007690 00000160 1079.31 319.46 439.80 578.09 1194.31 500.75 1392.43 539.44 1257.01 637.12 1169.30 723.51 1328.29 755.51
00007691 00000161 1079.89 318.56 438.53 578.54 1193.96 500.95 1391.92 539.83 1256.62 637.55 1170.24 725.90 1325.60 758.11
00007692 00000162 1080.38 320.28 437.97 577.15 1193.46 501.16 1391.37 540.33 1256.18 638.14 1170.76 726.62 1324.31 759.16
