Video ID: 	GDt-BbOkQxM
H: 	1080
W: 	1920
FPS: 	23.976023976023978

FRAME INDEX X0 Y0 W H [Landmarks (5 Points)]

00002943 00000000 442.11 38.59 295.31 416.65
00002944 00000001 445.02 34.06 295.55 415.89
00002945 00000002 872.03 79.33 441.87 653.30 944.29 320.29 1151.46 313.76 1004.00 422.04 954.63 565.92 1122.34 561.88
00002946 00000003 885.17 84.23 436.13 644.98 955.75 321.58 1162.92 318.31 1015.29 424.78 960.92 563.15 1131.78 562.02
00002947 00000004 889.84 87.56 435.31 636.21 966.12 315.23 1171.13 315.88 1028.17 421.46 966.58 553.17 1143.21 553.90
00002948 00000005 898.86 84.77 434.71 626.93 969.95 310.15 1178.80 312.05 1032.16 414.30 970.14 545.15 1151.17 546.46
00002949 00000006 901.39 82.24 436.34 619.51 976.32 306.43 1185.41 310.57 1041.31 406.68 972.14 537.63 1154.54 540.70
00002950 00000007 907.75 86.76 434.47 608.28 981.84 305.50 1191.85 310.80 1048.43 405.26 974.25 532.73 1156.35 536.93
00002951 00000008 910.32 87.17 432.80 610.58 983.80 308.96 1193.87 313.22 1049.12 408.18 975.80 538.26 1154.12 541.83
00002952 00000009 912.28 87.01 431.16 619.03 982.64 314.90 1189.42 316.01 1043.83 416.18 982.00 549.39 1153.18 550.05
00002953 00000010 908.99 91.22 432.14 625.51 978.38 318.37 1183.73 319.49 1039.47 426.82 980.98 552.16 1157.28 552.59
00002954 00000011 904.59 85.62 433.89 665.12 972.52 320.14 1178.83 321.66 1031.95 437.80 977.21 562.56 1155.60 565.16
00002955 00000012 892.27 106.00 429.66 674.24 975.19 324.45 1176.26 327.49 1038.42 435.40 979.11 565.23 1163.03 567.09
00002956 00000013 887.35 107.22 434.02 683.99 969.67 326.23 1170.62 328.93 1033.44 442.42 975.97 573.55 1160.60 575.01
00002957 00000014 887.78 109.94 433.02 682.46 966.37 327.24 1168.62 330.82 1029.79 445.45 973.62 576.07 1160.77 577.93
00002958 00000015 891.66 103.02 433.31 681.02 962.22 332.09 1170.92 329.90 1025.75 445.41 965.60 578.47 1154.62 578.19
00002959 00000016 888.22 106.99 439.38 652.53 957.27 336.73 1167.60 336.32 1022.50 450.96 959.08 571.31 1146.88 572.77
00002960 00000017 885.74 107.47 442.14 636.05 955.87 341.27 1166.26 341.36 1021.78 458.82 957.72 567.24 1148.24 569.13
00002961 00000018 883.92 112.45 441.76 631.54 952.02 347.71 1162.11 346.33 1017.35 467.14 958.01 572.27 1147.26 572.69
00002962 DELETE   882.16 110.44 441.37 641.55 951.94 360.03 1155.83 364.76 1008.29 477.21 959.33 581.10 1137.56 585.72
00002963 DELETE   879.25 113.83 442.19 644.02 946.36 364.59 1147.16 371.08 997.35 481.92 955.38 589.86 1123.21 596.14
00002964 DELETE   873.06 115.40 444.11 646.35 938.52 368.92 1144.71 370.48 992.02 482.35 949.02 597.91 1116.87 600.10
00002965 00000022 867.00 112.57 446.93 653.18 930.96 367.64 1139.78 369.74 985.22 483.45 941.30 599.49 1107.89 602.55
00002966 00000023 859.26 114.18 446.18 652.87 927.31 368.68 1132.68 374.13 978.91 486.52 934.82 603.51 1087.34 609.75
00002967 00000024 847.82 124.67 450.54 653.14 910.52 372.47 1116.00 378.07 960.15 495.76 919.71 619.41 1071.06 624.58
00002968 DELETE   841.42 124.42 446.93 675.39 899.46 377.16 1098.14 387.55 942.44 504.02 905.23 633.70 1039.83 645.52
00002969 00000026 838.74 140.07 445.80 671.28 895.56 382.46 1096.47 395.01 937.90 518.76 900.84 647.92 1037.70 661.15
00002970 00000027 835.34 144.32 448.18 668.13 891.38 385.98 1094.96 397.73 939.80 523.49 895.89 651.46 1038.54 664.11
00002971 00000028 829.52 151.66 454.42 655.78 893.19 383.92 1100.09 399.69 942.79 518.72 897.19 643.11 1044.82 656.79
00002972 00000029 825.68 139.71 460.12 656.72 897.46 373.72 1106.52 393.12 949.29 509.86 898.95 628.05 1050.74 644.78
00002973 00000030 836.20 124.95 450.43 660.46 903.39 367.86 1108.02 384.74 953.65 494.02 903.37 617.19 1050.87 633.80
00002974 00000031 829.40 124.92 460.09 656.45 902.23 356.15 1114.19 371.13 952.44 483.76 900.66 608.80 1054.54 622.14
00002975 00000032 829.21 121.35 456.52 652.91 898.79 351.01 1113.55 364.56 952.51 477.08 899.41 601.61 1057.05 613.76
00002976 00000033 828.88 118.08 457.51 656.03 895.48 351.49 1110.72 365.32 948.58 479.50 896.83 603.44 1061.49 615.33
00002977 00000034 836.22 114.71 441.55 675.84 893.73 360.58 1093.72 374.20 940.42 489.36 898.01 612.94 1054.59 626.38
00002978 DELETE   830.03 121.48 442.92 699.45 887.49 370.72 1080.41 379.53 925.17 503.99 897.64 634.33 1052.46 643.78
00002979 DELETE   821.21 136.78 445.84 702.85 875.17 384.44 1069.38 390.32 909.87 518.18 886.62 660.08 1023.85 667.78
00002980 00000037 817.73 146.71 445.77 680.67 867.05 390.58 1064.44 402.23 907.10 524.17 870.51 661.40 1001.39 673.99
00002981 00000038 813.92 147.78 450.35 669.92 868.56 394.89 1067.81 408.81 910.93 530.03 871.68 659.26 1007.64 673.36
00002982 00000039 814.59 143.54 452.76 669.92 871.94 394.42 1076.56 405.61 919.95 529.28 875.62 655.05 1020.75 667.29
00002983 00000040 821.57 139.55 450.30 667.07 878.91 387.80 1084.40 398.96 933.86 526.55 885.17 647.95 1031.91 660.24
00002984 00000041 825.36 132.43 448.54 666.29 885.62 380.96 1089.41 395.04 935.91 515.64 887.43 633.59 1039.18 648.19
00002985 00000042 826.43 131.60 449.81 662.35 887.54 383.80 1088.16 396.29 936.69 514.43 889.81 627.41 1043.88 640.55
00002986 00000043 827.23 135.42 451.29 671.90 891.47 393.78 1081.23 411.21 931.73 521.32 889.83 632.44 1041.20 649.23
00002987 00000044 825.27 140.22 455.17 672.20 884.42 398.09 1077.85 405.33 925.67 530.56 892.01 644.63 1047.26 652.84
00002988 00000045 828.35 142.66 456.27 672.57 881.78 397.12 1076.39 399.53 924.63 532.77 895.24 647.28 1054.64 651.08
00002989 00000046 831.56 145.27 455.61 673.65 886.11 394.31 1082.68 396.55 931.83 531.77 903.00 648.83 1063.64 651.97
00002990 00000047 838.44 144.40 451.83 673.20 890.00 392.40 1085.02 393.14 934.89 528.77 909.07 646.77 1068.58 648.39
00002991 00000048 840.29 141.17 451.19 671.31 892.21 389.11 1085.38 390.54 934.37 523.88 909.59 642.60 1062.65 645.15
00002992 00000049 843.33 137.97 446.91 668.48 890.87 392.51 1085.51 392.30 936.00 524.03 909.87 647.98 1051.97 649.74
00002993 00000050 847.51 140.93 439.99 664.04 894.68 398.65 1086.87 397.47 941.03 527.01 915.08 655.00 1044.26 656.37
00002994 00000051 852.28 142.88 437.31 657.21 895.73 401.74 1088.50 401.25 939.93 532.33 916.13 655.85 1043.96 657.47
00002995 00000052 855.51 148.26 437.93 660.50 896.46 404.64 1086.66 404.09 938.01 536.50 919.08 664.89 1039.73 666.28
00002996 00000053 854.99 149.32 439.00 675.38 897.58 404.13 1085.24 400.86 937.98 536.30 925.18 673.04 1041.25 672.52
00002997 00000054 851.88 149.44 440.01 678.40 897.93 403.57 1085.51 397.81 940.19 532.00 927.26 674.10 1044.67 671.52
00002998 00000055 851.20 147.05 439.99 683.34 898.30 401.64 1086.15 395.57 942.11 529.91 927.29 672.42 1047.09 669.51
00002999 00000056 850.10 148.81 437.91 677.51 897.65 400.44 1086.29 395.70 942.27 530.07 924.16 671.09 1046.28 669.35
00003000 00000057 849.07 149.22 436.59 668.25 895.63 401.54 1085.08 397.03 942.53 529.39 920.36 667.32 1045.11 665.83
00003001 00000058 847.32 149.04 434.82 659.87 894.16 401.44 1084.52 397.49 943.50 529.82 918.86 662.64 1047.22 661.62
00003002 00000059 842.77 146.24 439.29 662.21 896.83 404.66 1087.23 401.24 946.16 527.81 917.45 657.69 1052.04 657.10
00003003 00000060 836.25 152.44 442.16 653.91 900.86 408.80 1096.31 407.23 957.14 522.23 915.88 653.84 1064.81 652.83
00003004 00000061 839.73 150.62 435.23 654.94 906.26 406.91 1101.25 405.04 966.17 521.51 920.51 649.88 1072.66 648.67
00003005 00000062 842.91 142.33 436.04 659.47 919.00 398.04 1112.08 402.50 977.82 518.53 932.58 637.95 1087.72 641.68
00003006 00000063 837.03 141.80 441.76 657.88 914.18 398.73 1120.57 391.60 989.31 513.23 935.60 640.32 1102.10 634.56
00003007 00000064 838.87 138.73 434.13 654.80 918.64 387.47 1126.69 378.73 1001.24 504.77 941.12 633.43 1107.73 625.55
00003008 00000065 835.89 141.05 429.68 640.30 915.92 381.28 1129.27 370.04 1009.44 497.82 942.22 626.22 1115.16 616.11
00003009 00000066 835.16 138.37 427.41 636.44 916.47 378.70 1129.07 368.02 1010.03 496.45 942.04 621.28 1114.88 611.43
00003010 00000067 833.27 139.89 423.85 628.54 915.64 377.01 1128.18 366.59 1012.72 495.11 941.02 618.30 1111.39 608.72
00003011 DELETE   828.96 141.08 425.91 628.17 913.40 377.45 1125.76 366.42 1012.34 497.47 941.14 620.73 1107.01 610.89
00003012 00000069 826.64 144.01 424.08 630.37 910.78 380.73 1121.56 369.68 1008.25 503.30 940.58 625.91 1103.06 616.26
00003013 00000070 821.19 145.44 427.13 633.71 904.10 386.01 1117.20 372.65 1003.57 511.13 940.23 632.61 1104.83 620.74
00003014 00000071 816.21 149.36 430.54 638.14 901.62 391.16 1113.61 376.24 1003.24 514.45 937.40 636.26 1104.29 623.71
00003015 00000072 816.56 147.41 427.39 639.31 902.02 388.62 1115.17 373.68 1006.27 513.27 936.83 634.45 1109.05 621.60
00003016 00000073 820.40 137.39 422.59 642.80 909.04 381.11 1120.28 368.92 1012.57 502.60 938.35 622.11 1115.22 611.16
00003017 00000074 820.94 127.18 423.02 626.90 911.06 364.65 1121.28 351.13 1017.11 480.46 941.32 597.16 1118.62 586.46
00003018 00000075 827.41 122.46 415.91 621.79 921.17 348.15 1128.40 341.60 1028.78 464.65 946.90 583.10 1120.76 576.45
00003019 00000076 827.75 107.25 416.87 623.25 919.82 339.80 1124.67 330.07 1023.04 451.80 948.76 573.58 1118.99 565.99
00003020 00000077 827.02 105.56 417.68 624.37 919.03 336.98 1125.33 328.00 1019.96 445.63 945.77 571.21 1119.50 563.89
00003021 00000078 825.56 107.89 416.46 626.78 915.59 339.26 1123.92 330.08 1015.56 445.81 940.32 571.35 1120.73 563.67
00003022 00000079 822.03 112.34 414.62 619.03 912.13 343.13 1117.50 332.01 1011.48 448.46 940.40 574.09 1113.53 565.28
00003023 00000080 810.72 126.00 420.14 604.13 904.93 350.44 1114.17 335.70 1011.02 456.41 934.89 577.34 1110.45 563.85
00003024 00000081 800.77 123.99 416.58 607.99 894.97 356.07 1103.31 342.09 1001.53 462.07 926.56 582.23 1101.50 569.56
00003025 00000082 785.84 134.38 418.41 611.72 882.36 364.34 1091.81 351.49 993.22 481.02 918.36 596.63 1088.62 584.13
00003026 00000083 776.98 141.42 416.36 624.72 865.45 379.05 1075.73 364.07 977.23 496.22 901.56 613.01 1077.99 599.54
00003027 00000084 763.00 145.53 414.59 641.97 850.24 390.85 1060.75 370.92 964.87 518.14 888.62 633.22 1065.34 616.57
00003028 00000085 744.20 149.88 422.19 645.99 835.67 399.11 1044.89 378.80 947.16 528.40 871.86 636.55 1052.10 619.93
00003029 DELETE   720.69 172.76 434.17 634.23 821.28 407.84 1036.00 383.30 941.38 535.22 862.52 640.44 1044.92 617.38
00003030 DELETE   711.62 174.88 426.37 626.36 809.48 410.00 1021.53 387.59 926.98 537.98 848.26 642.42 1026.15 621.83
00003031 00000088 700.59 171.73 425.51 639.32 799.77 404.04 1010.03 385.49 917.49 536.75 842.52 652.47 1005.44 635.21
00003032 00000089 694.02 173.15 422.42 646.81 794.56 403.01 1002.86 388.95 910.40 539.52 839.77 663.72 988.03 649.73
00003033 00000090 687.65 177.75 420.90 644.73 790.60 405.42 998.49 391.99 908.72 544.26 835.81 667.88 982.68 655.00
00003034 00000091 685.19 169.88 421.53 647.56 791.06 403.31 989.29 391.57 904.70 546.68 833.15 661.33 979.68 651.41
00003035 00000092 686.98 179.67 418.20 636.91 790.58 405.55 995.19 393.30 906.46 543.93 830.97 665.08 978.35 653.51
00003036 00000093 690.44 185.95 413.91 625.25 793.18 404.06 997.63 393.94 907.64 543.55 831.97 659.91 979.70 650.29
00003037 00000094 694.45 189.46 411.45 617.22 795.75 406.82 1001.06 400.16 908.46 546.51 829.54 658.29 982.26 651.54
00003038 00000095 694.91 192.31 415.18 610.92 797.50 404.93 1003.82 398.19 911.24 546.10 832.88 654.31 986.18 646.71
00003039 00000096 695.37 191.92 416.04 609.33 797.72 404.25 1003.94 396.91 911.12 546.06 832.30 651.63 987.25 643.54
00003040 00000097 696.87 191.32 415.32 613.53 797.53 404.37 1002.90 396.23 910.06 544.99 829.79 650.94 988.32 642.43
00003041 00000098 696.85 196.82 413.23 610.11 797.88 403.88 1001.45 397.94 908.09 545.26 827.54 651.03 985.87 644.27
00003042 00000099 697.60 194.25 413.14 613.02 796.25 405.17 999.05 401.16 903.63 548.49 826.19 655.01 979.53 649.93
00003043 00000100 696.40 190.45 417.14 613.91 790.75 404.69 994.53 400.42 896.54 551.01 823.95 655.78 973.89 650.87
00003044 00000101 695.79 186.74 416.86 618.18 786.56 400.54 990.83 394.42 891.66 550.20 825.09 660.45 970.92 654.39
00003045 00000102 696.71 182.20 417.45 621.65 785.21 397.34 985.22 393.31 884.29 545.68 823.68 659.75 961.83 655.83
00003046 00000103 696.99 177.79 415.73 624.84 787.25 393.11 979.06 386.79 876.01 543.47 824.64 654.41 959.06 648.90
00003047 00000104 698.28 175.89 415.38 627.37 786.56 393.65 977.49 386.52 873.90 541.68 823.35 655.45 956.98 649.28
00003048 00000105 696.96 174.57 416.46 627.08 785.09 394.03 976.36 385.49 872.45 542.59 825.40 656.62 957.18 649.39
00003049 00000106 695.06 178.26 416.34 622.76 781.88 396.66 970.98 383.77 870.02 540.18 825.39 658.17 953.68 647.79
00003050 00000107 688.68 179.35 418.78 622.30 776.44 393.58 966.88 378.57 864.20 534.97 824.78 655.94 953.98 643.96
00003051 00000108 683.97 170.23 423.64 630.78 769.44 390.89 963.54 374.28 858.18 531.02 819.70 653.30 954.15 640.00
00003052 00000109 678.63 164.79 427.53 630.65 766.16 388.62 960.72 369.75 857.05 526.01 819.03 646.45 955.91 631.20
00003053 00000110 676.68 157.52 428.55 632.78 759.06 392.20 955.75 370.07 850.68 527.24 813.65 645.68 958.24 627.45
00003054 00000111 675.12 159.79 430.45 629.54 753.33 397.31 951.13 372.02 844.94 529.21 807.47 644.99 960.84 623.99
00003055 00000112 673.50 164.58 432.39 626.11 750.22 400.98 949.15 374.11 841.51 529.79 803.97 645.11 961.27 622.89
00003056 00000113 670.88 163.74 434.79 628.10 748.28 402.41 946.87 374.67 839.26 532.18 805.36 645.06 963.49 621.95
00003057 00000114 667.90 163.01 439.37 630.45 744.39 403.54 942.18 373.31 833.80 533.20 803.80 646.41 963.89 620.94
00003058 00000115 668.65 163.52 438.94 628.40 741.35 406.38 938.74 373.46 832.22 533.71 804.68 648.02 961.38 620.65
00003059 00000116 671.33 166.31 434.74 620.44 739.13 407.21 935.51 376.52 827.08 534.76 800.15 644.79 956.92 619.18
00003060 00000117 670.10 166.24 436.50 620.70 737.24 406.80 932.93 376.39 824.12 536.05 798.38 645.65 954.34 620.18
00003061 00000118 670.46 163.76 435.11 621.50 735.20 406.73 927.73 376.76 818.26 534.76 796.74 645.18 949.06 620.02
00003062 00000119 668.65 162.94 435.31 618.82 731.04 410.03 924.46 379.43 815.21 531.64 790.96 643.47 942.60 618.08
00003063 00000120 666.73 157.29 436.05 624.32 730.47 410.96 925.31 384.24 812.03 528.37 783.49 641.82 937.19 619.21
00003064 00000121 660.13 153.14 445.05 627.00 730.72 410.15 926.68 387.16 806.54 530.39 779.37 638.50 931.18 620.19
00003065 00000122 661.06 151.32 442.44 632.86 732.09 402.73 926.27 382.16 805.21 528.28 776.15 637.85 926.79 621.57
00003066 00000123 656.93 150.59 441.95 635.08 725.21 399.81 922.38 377.10 799.18 527.86 773.92 642.10 922.48 624.07
00003067 00000124 651.55 149.24 444.92 641.72 720.67 398.17 919.78 377.87 793.30 526.98 763.91 640.64 918.87 624.50
00003068 00000125 650.52 148.95 442.50 639.43 717.33 395.67 917.24 380.57 786.30 527.11 753.11 635.73 912.41 623.86
00003069 00000126 647.83 155.10 440.70 632.58 715.95 398.19 914.21 386.79 781.99 526.72 744.46 633.67 902.45 624.81
00003070 00000127 645.53 155.85 440.78 632.25 713.94 400.23 910.69 391.95 777.40 530.60 738.13 634.61 895.68 628.29
00003071 00000128 644.01 156.13 427.53 627.03 706.34 397.49 890.80 396.63 761.30 532.98 734.47 632.98 891.03 630.20
00003072 00000129 643.61 157.73 426.75 626.56 702.50 398.47 888.52 396.77 758.45 535.12 728.88 633.39 887.56 630.25
CROP_BBOX: 392 0 1501 1024
