Video ID: 	qr1hQ6GR010
H: 	1080
W: 	1920
FPS: 	25.0

FRAME INDEX X0 Y0 W H [Landmarks (5 Points)]

00021250 00000000 941.73 295.93 420.45 538.20 1032.87 559.82 1206.48 552.99 1112.00 669.62 1090.24 720.23 1224.35 714.40
00021251 00000001 941.71 332.13 427.30 523.60 1037.76 586.90 1220.56 575.43 1125.78 704.58 1090.84 749.05 1238.17 737.64
00021252 00000002 947.69 360.72 426.07 499.21 1048.71 600.55 1228.98 603.28 1125.64 719.11 1099.97 753.20 1233.47 753.74
00021253 00000003 952.97 350.50 423.05 515.34 1050.58 604.85 1231.47 606.85 1127.88 721.49 1103.84 760.97 1234.25 761.20
00021254 00000004 954.09 346.63 425.84 510.47 1054.83 598.39 1231.52 600.18 1128.64 709.01 1100.48 749.80 1233.38 749.76
00021255 00000005 959.01 327.26 419.58 523.66 1051.17 578.95 1223.11 576.03 1125.36 688.34 1099.96 728.57 1241.36 725.48
00021256 00000006 962.32 290.78 416.34 526.42 1045.80 552.95 1212.34 548.39 1112.54 658.33 1100.96 711.13 1227.19 706.58
00021257 DELETE   961.70 253.49 412.48 535.97 1036.62 513.05 1199.90 508.57 1105.40 624.45 1084.52 680.05 1211.09 674.10
00021258 DELETE   968.06 237.84 404.22 524.59 1036.56 478.33 1198.26 481.64 1089.89 582.53 1077.29 642.12 1205.18 643.21
00021259 DELETE   975.12 220.05 408.49 525.29 1037.63 442.03 1202.62 444.89 1097.65 560.26 1071.06 619.95 1208.85 619.72
00021260 00000010 974.52 188.77 420.43 542.60 1036.97 424.93 1200.68 425.50 1095.17 537.39 1073.18 607.16 1203.17 605.55
00021261 00000011 973.42 186.31 419.26 539.71 1036.53 418.62 1196.36 415.25 1091.25 525.34 1073.55 599.38 1199.87 594.70
00021262 00000012 969.59 173.84 422.92 544.91 1031.67 408.58 1193.51 402.29 1084.82 516.69 1069.91 589.50 1200.97 582.80
00021263 00000013 969.73 166.52 414.34 538.65 1030.55 407.30 1187.98 400.32 1078.59 501.95 1058.75 574.53 1193.92 567.62
00021264 00000014 966.84 168.13 409.81 535.57 1027.31 405.12 1184.04 401.29 1074.18 503.65 1053.81 572.68 1190.16 568.24
00021265 00000015 965.93 167.83 409.61 534.64 1024.70 403.47 1177.73 399.58 1066.48 500.45 1052.13 571.65 1185.54 567.07
00021266 00000016 964.20 161.70 412.93 536.76 1024.29 395.24 1177.15 389.62 1065.36 491.59 1052.48 567.97 1183.57 562.19
00021267 00000017 969.02 148.07 412.95 540.86 1017.51 390.43 1173.74 384.63 1064.37 486.85 1046.91 563.55 1175.41 557.14
00021268 00000018 966.95 144.58 413.50 540.93 1016.16 384.36 1171.81 381.49 1062.13 486.10 1047.05 559.36 1173.79 555.22
00021269 00000019 966.24 154.12 410.12 528.79 1013.54 386.55 1170.36 382.44 1061.06 486.45 1046.62 560.88 1171.16 555.60
00021270 00000020 964.32 139.15 413.74 543.27 1012.78 378.60 1168.68 375.03 1057.97 479.95 1045.30 558.24 1169.79 553.75
00021271 00000021 961.92 130.13 419.33 541.17 1009.61 366.72 1164.97 363.30 1050.19 464.27 1038.65 546.98 1164.47 542.84
00021272 00000022 963.74 135.31 412.68 522.80 1010.96 359.99 1161.40 353.62 1047.59 446.57 1040.70 536.79 1160.60 530.47
00021273 00000023 966.11 132.04 404.85 519.99 1014.63 352.71 1161.89 342.39 1046.97 431.15 1040.47 525.21 1161.99 515.59
00021274 00000024 965.54 119.50 404.09 530.76 1015.27 345.68 1164.20 335.78 1046.16 425.98 1037.72 519.55 1163.72 510.48
00021275 00000025 963.45 123.44 406.07 529.54 1010.94 341.52 1161.69 330.81 1043.17 423.36 1036.39 520.72 1161.14 510.72
00021276 00000026 960.20 120.84 406.98 533.94 1007.35 342.59 1159.51 330.70 1040.99 424.13 1034.72 522.99 1159.65 511.91
00021277 00000027 957.12 117.00 408.39 535.82 1004.75 344.50 1159.14 331.46 1040.45 426.11 1031.59 522.23 1160.62 510.20
00021278 00000028 957.15 123.16 406.91 521.94 1003.74 347.24 1158.02 333.57 1041.23 427.85 1031.22 520.56 1158.52 507.99
00021279 00000029 952.76 118.23 411.42 531.32 1001.42 348.35 1157.22 334.75 1038.99 429.72 1029.12 522.65 1156.51 510.20
00021280 00000030 946.07 124.03 414.37 532.32 999.16 351.91 1152.40 337.66 1036.96 430.28 1030.62 529.40 1149.47 516.32
00021281 00000031 944.66 132.57 409.96 519.58 994.63 356.04 1148.13 344.06 1033.93 440.43 1026.96 533.99 1145.95 522.81
00021282 00000032 942.96 134.52 403.75 523.21 990.48 358.17 1144.13 344.89 1032.14 445.54 1023.92 542.59 1145.62 530.01
00021283 00000033 939.05 149.45 400.77 513.73 988.18 364.59 1138.51 350.84 1031.66 451.90 1025.98 546.23 1145.08 532.85
00021284 00000034 935.13 155.89 398.51 517.17 985.94 365.47 1139.20 355.13 1031.34 456.98 1021.74 548.98 1143.66 538.16
00021285 00000035 933.46 157.21 398.12 520.05 983.65 371.26 1137.93 360.81 1029.25 464.38 1018.58 552.36 1144.43 541.54
00021286 00000036 931.66 156.88 399.49 524.33 984.43 380.52 1134.77 368.32 1031.27 475.07 1020.55 555.01 1148.74 542.47
00021287 00000037 922.22 161.54 407.90 533.11 984.11 392.92 1145.61 384.53 1041.73 492.89 1015.48 570.18 1154.83 562.59
00021288 00000038 918.98 165.86 416.46 541.78 995.34 414.35 1161.18 401.84 1065.09 508.26 1032.70 583.11 1176.16 571.11
00021289 DELETE   925.22 189.69 414.94 539.94 1007.54 431.68 1170.41 415.23 1081.14 526.49 1052.18 600.69 1191.17 585.26
00021290 DELETE   921.05 195.97 419.15 546.20 1011.89 452.83 1181.01 429.38 1097.23 544.79 1064.68 621.05 1204.20 599.69
00021291 00000041 921.52 208.65 424.36 551.49 1020.50 469.03 1196.63 444.36 1111.90 569.11 1071.90 632.65 1221.86 610.87
00021292 00000042 922.40 213.32 425.44 549.72 1024.86 484.70 1197.70 455.98 1118.19 579.27 1079.44 641.74 1224.24 616.04
00021293 00000043 922.79 224.37 426.18 541.58 1024.48 490.59 1200.06 454.73 1129.24 594.10 1084.73 653.03 1239.14 621.69
00021294 00000044 926.24 222.61 426.39 547.81 1027.03 488.63 1201.03 454.85 1129.12 594.39 1084.32 651.31 1241.32 621.32
00021295 00000045 929.83 223.62 424.92 548.23 1029.94 485.62 1199.72 452.84 1128.92 593.87 1085.24 645.34 1242.28 616.32
00021296 00000046 935.15 214.15 421.62 560.50 1032.35 486.74 1204.53 456.04 1121.94 576.14 1085.07 637.91 1236.03 612.29
00021297 00000047 926.18 213.80 432.33 553.31 1029.04 471.54 1200.02 447.28 1116.16 568.19 1076.67 629.68 1226.77 607.72
00021298 DELETE   925.90 214.26 429.26 542.20 1021.18 459.29 1192.52 439.86 1102.40 555.62 1065.53 622.00 1213.17 604.59
00021299 DELETE   925.73 208.06 418.90 537.63 1009.28 448.10 1172.80 430.24 1081.83 540.69 1052.03 612.50 1193.22 595.87
00021300 00000050 924.29 197.96 421.67 537.56 999.89 431.72 1166.41 419.74 1067.15 533.04 1038.56 601.81 1184.22 590.19
00021301 00000051 923.09 198.58 418.29 530.61 994.22 425.96 1155.38 412.59 1056.17 526.27 1034.81 597.57 1175.96 585.06
00021302 00000052 922.74 187.64 418.89 540.76 992.82 417.56 1150.05 406.64 1049.20 519.93 1032.54 593.25 1170.93 582.77
00021303 00000053 922.57 182.44 416.92 538.27 990.64 414.40 1145.95 403.44 1045.33 514.93 1028.68 589.01 1165.25 578.61
00021304 00000054 926.34 179.85 411.85 524.09 988.86 409.74 1148.67 400.28 1044.54 508.58 1024.01 585.23 1159.40 576.51
00021305 00000055 929.62 175.93 408.89 524.75 990.99 405.73 1151.40 395.69 1048.39 505.52 1026.22 585.57 1162.65 576.38
00021306 00000056 931.18 172.35 409.48 530.14 992.82 404.57 1154.27 393.05 1050.42 501.89 1028.56 582.79 1169.00 572.39
00021307 00000057 933.83 171.21 409.58 536.04 998.03 401.24 1155.84 388.04 1055.79 494.90 1034.86 577.41 1174.49 565.66
00021308 00000058 938.19 165.82 406.92 537.59 1002.23 397.79 1160.38 383.12 1061.32 489.41 1040.81 572.43 1182.59 559.04
00021309 00000059 940.90 170.77 407.79 522.29 1007.05 393.48 1166.12 378.30 1069.21 483.23 1044.33 564.53 1187.04 550.74
00021310 00000060 947.28 159.31 404.54 523.69 1012.14 388.48 1171.05 368.68 1074.51 471.66 1048.85 558.27 1191.09 540.80
00021311 00000061 951.52 148.16 410.16 524.54 1012.23 381.73 1175.74 361.73 1079.99 463.03 1056.63 552.39 1192.20 534.04
00021312 00000062 957.72 150.33 404.99 510.67 1017.69 375.41 1183.69 355.26 1086.73 453.68 1063.33 547.42 1197.44 529.11
00021313 00000063 961.69 151.71 404.98 504.90 1024.27 361.36 1189.14 349.61 1087.94 445.85 1068.27 530.68 1200.51 519.11
00021314 00000064 967.42 148.55 405.35 505.33 1038.66 348.94 1201.36 337.57 1106.65 444.52 1082.87 526.75 1207.98 515.78
00021315 00000065 972.50 134.30 406.18 519.85 1043.87 347.84 1207.22 329.21 1106.22 434.99 1086.86 525.65 1212.79 510.38
00021316 00000066 974.19 127.41 411.45 529.41 1049.26 342.73 1216.13 321.60 1115.64 426.40 1091.30 522.58 1223.03 505.50
00021317 00000067 975.37 134.48 409.62 519.01 1051.61 344.27 1219.96 322.07 1119.67 423.08 1092.00 520.55 1228.46 502.40
00021318 00000068 974.37 139.03 408.39 509.36 1049.98 350.04 1222.07 324.28 1120.14 423.23 1090.91 523.19 1231.98 501.79
00021319 00000069 974.51 134.93 405.62 509.27 1048.72 346.01 1223.75 318.74 1122.02 421.79 1091.07 525.25 1231.06 502.91
00021320 00000070 973.51 128.24 402.25 509.76 1046.97 342.07 1223.32 314.44 1121.95 417.12 1087.64 523.62 1227.96 501.25
00021321 00000071 969.47 110.03 404.84 527.14 1044.81 335.20 1217.04 311.87 1114.13 414.22 1085.25 515.48 1220.68 496.25
00021322 00000072 967.54 118.09 403.49 517.12 1041.12 336.14 1212.61 309.72 1110.91 417.65 1080.81 518.04 1223.55 495.52
00021323 00000073 960.86 115.93 405.30 525.41 1037.79 335.12 1206.90 309.35 1107.75 418.39 1076.49 514.62 1221.44 492.47
00021324 00000074 958.08 114.24 402.60 533.41 1034.45 336.62 1202.04 312.37 1103.57 421.09 1070.76 515.58 1216.91 495.05
00021325 00000075 952.91 116.92 401.93 535.68 1029.87 341.06 1195.88 316.62 1100.66 422.40 1067.62 520.69 1210.89 500.37
00021326 00000076 946.57 124.42 404.09 533.89 1027.08 344.03 1191.57 320.77 1100.10 424.01 1065.76 524.49 1205.49 505.32
00021327 00000077 939.28 127.06 404.94 536.25 1021.87 346.24 1189.13 324.02 1098.81 426.11 1061.41 528.55 1201.68 510.02
00021328 00000078 934.68 133.64 402.60 525.43 1013.85 351.43 1182.44 328.67 1090.68 428.19 1055.13 530.91 1195.35 512.10
00021329 00000079 925.02 133.63 411.22 521.74 1005.41 354.39 1176.50 333.74 1079.57 431.76 1044.84 532.28 1183.61 515.37
00021330 00000080 916.61 136.37 417.03 525.15 997.01 358.25 1171.15 335.37 1071.58 437.22 1038.28 539.43 1179.68 520.18
00021331 00000081 910.84 142.21 415.46 522.25 994.64 358.59 1163.65 339.45 1066.03 444.02 1035.35 541.13 1169.47 525.11
00021332 00000082 911.15 141.67 409.98 521.22 989.57 361.85 1160.50 342.86 1059.06 446.58 1029.61 542.49 1167.57 526.38
00021333 00000083 913.92 141.43 407.50 523.73 986.94 365.09 1155.76 344.38 1063.83 449.06 1033.74 549.65 1161.02 530.62
00021334 00000084 914.69 142.32 406.80 527.88 986.15 366.03 1154.94 346.21 1061.51 450.06 1032.38 550.45 1159.60 532.10
00021335 00000085 914.23 148.21 406.67 525.09 986.05 367.71 1157.60 350.11 1063.40 453.10 1030.23 551.68 1160.54 535.24
00021336 00000086 912.04 154.94 405.53 521.32 986.27 372.25 1157.37 355.96 1060.34 459.15 1022.84 550.19 1158.61 536.61
00021337 00000087 913.60 155.71 405.48 521.98 988.94 373.54 1159.31 359.40 1063.82 462.09 1025.64 552.44 1160.48 540.70
00021338 00000088 914.54 160.75 405.55 520.06 990.69 377.84 1160.71 363.60 1065.37 464.50 1027.17 554.84 1161.94 543.12
00021339 00000089 916.05 158.24 406.72 529.12 993.16 378.12 1161.79 365.92 1066.25 467.01 1029.37 555.99 1162.64 546.28
00021340 00000090 914.15 150.81 414.62 537.37 991.72 383.23 1161.83 367.36 1058.89 468.36 1028.41 558.62 1169.15 545.39
00021341 00000091 915.27 164.93 409.91 519.43 991.81 388.88 1162.22 371.59 1066.43 474.41 1029.49 564.35 1169.53 550.36
00021342 00000092 914.68 164.99 412.63 523.53 991.04 390.31 1161.09 372.36 1057.35 472.68 1027.49 562.30 1169.84 547.11
00021343 00000093 916.70 173.77 406.98 515.50 994.42 390.99 1161.98 376.40 1066.40 477.31 1030.35 566.34 1167.39 554.43
00021344 00000094 914.39 179.88 410.01 512.17 993.71 392.42 1161.69 377.71 1065.49 476.85 1029.62 567.39 1165.14 555.33
00021345 00000095 913.34 181.16 411.03 516.35 992.80 394.57 1162.47 380.37 1065.15 479.58 1027.42 571.19 1164.06 559.78
00021346 00000096 911.86 183.78 414.50 526.26 992.44 396.29 1162.36 380.93 1066.17 483.99 1031.00 575.06 1169.65 562.50
00021347 00000097 910.34 177.91 422.75 552.32 989.35 395.89 1158.38 378.27 1062.53 488.21 1034.60 585.02 1176.06 569.98
00021348 00000098 909.93 180.11 424.91 553.10 989.05 398.13 1160.68 381.19 1062.32 490.70 1034.20 587.60 1176.17 573.03
00021349 00000099 910.72 181.22 426.25 554.35 990.70 399.28 1164.16 383.26 1064.46 492.57 1034.76 589.28 1178.27 575.51
00021350 00000100 913.61 183.07 425.15 554.05 993.40 402.19 1166.36 386.98 1066.10 495.04 1036.09 590.47 1179.62 577.30
00021351 00000101 916.82 182.86 421.55 551.83 997.51 405.11 1166.49 392.21 1068.72 498.27 1037.84 588.74 1179.26 577.37
00021352 00000102 917.18 189.92 418.17 539.90 998.07 409.24 1168.15 397.19 1069.60 500.45 1036.05 589.54 1177.63 579.10
00021353 00000103 919.28 191.87 415.84 533.66 999.26 414.64 1168.80 401.17 1070.43 504.95 1037.75 594.17 1177.36 582.85
00021354 00000104 922.57 192.80 412.26 531.22 1002.60 416.62 1170.58 405.36 1072.98 506.59 1037.72 593.45 1179.02 583.90
00021355 00000105 925.19 197.60 410.29 523.68 1004.87 419.15 1172.48 406.68 1075.03 507.99 1039.78 594.98 1180.40 584.44
00021356 00000106 928.04 193.95 409.70 529.73 1007.45 418.84 1174.52 407.09 1077.56 509.55 1043.07 595.85 1182.17 585.74
00021357 00000107 931.29 197.78 408.91 525.77 1009.94 421.89 1175.82 409.50 1079.74 512.32 1047.31 598.18 1183.72 587.57
00021358 00000108 932.58 198.75 408.81 527.06 1010.55 424.38 1177.15 410.95 1080.72 513.57 1050.36 601.32 1186.27 589.80
00021359 00000109 933.18 199.47 410.23 528.21 1011.03 424.99 1177.10 411.94 1080.47 514.81 1051.13 601.02 1187.80 589.53
00021360 00000110 934.14 199.63 410.12 530.50 1011.59 424.54 1176.83 412.32 1079.84 515.58 1051.00 601.05 1187.20 590.18
00021361 00000111 934.49 200.08 409.69 530.48 1011.85 424.43 1176.12 412.34 1079.47 515.14 1051.25 600.67 1186.83 589.91
00021362 00000112 933.95 198.48 410.90 531.40 1011.94 423.55 1176.86 412.00 1080.17 514.40 1050.60 599.86 1186.46 589.56
00021363 00000113 933.75 198.69 410.55 528.48 1012.26 423.24 1177.04 412.09 1080.94 514.10 1050.76 598.57 1185.84 588.65
00021364 00000114 933.54 198.59 409.09 524.03 1012.30 422.28 1178.01 411.88 1081.69 514.02 1049.18 595.89 1185.62 586.71
00021365 00000115 933.61 198.02 407.07 521.87 1012.24 421.15 1178.76 411.46 1081.27 511.20 1046.54 592.97 1185.25 584.48
00021366 00000116 931.92 196.04 407.81 525.22 1011.21 420.14 1177.56 410.56 1080.11 510.01 1044.99 592.22 1184.34 583.90
00021367 00000117 930.67 196.24 409.81 529.44 1010.06 418.73 1175.31 409.38 1078.07 509.73 1044.46 593.31 1182.67 585.07
00021368 00000118 930.87 198.51 409.67 526.62 1009.41 419.23 1174.64 409.15 1077.46 511.13 1044.77 594.09 1182.70 585.24
00021369 00000119 930.02 197.66 407.35 525.05 1008.48 419.63 1175.26 409.78 1077.62 511.40 1043.15 594.10 1182.61 585.64
00021370 00000120 929.19 196.82 408.19 527.76 1007.53 419.02 1174.45 410.19 1076.10 511.94 1041.09 594.53 1180.88 586.90
00021371 00000121 928.22 197.27 410.48 531.13 1006.69 419.41 1171.94 410.41 1073.43 513.24 1040.80 596.73 1178.50 588.95
00021372 00000122 924.81 187.56 414.66 538.51 998.41 420.63 1166.07 406.98 1067.43 512.98 1036.06 599.74 1170.26 586.97
00021373 00000123 924.84 188.99 412.68 531.20 997.33 421.65 1163.09 408.81 1064.30 513.69 1035.52 598.86 1165.56 586.69
00021374 00000124 924.66 186.58 413.15 534.43 997.24 421.06 1162.19 408.93 1062.89 513.06 1035.42 599.26 1161.64 587.68
00021375 00000125 924.57 185.54 413.40 535.07 997.34 421.15 1162.22 408.97 1062.92 512.69 1035.30 599.14 1161.10 587.54
00021376 00000126 924.24 185.48 413.37 532.62 996.89 420.11 1163.07 408.23 1063.30 513.14 1033.85 598.83 1161.31 587.54
00021377 00000127 924.37 185.08 413.73 533.47 998.00 419.23 1163.89 407.93 1063.94 511.60 1034.25 597.78 1161.33 586.98
00021378 00000128 925.65 187.21 413.79 531.17 998.34 419.93 1164.68 408.69 1064.53 511.79 1034.55 597.97 1161.64 587.27
00021379 00000129 926.99 187.37 412.32 529.73 998.73 420.21 1165.10 408.79 1065.06 512.30 1034.83 597.68 1162.40 586.80
00021380 00000130 926.68 185.58 412.75 532.07 999.02 420.14 1166.57 408.22 1066.44 512.17 1035.62 598.13 1164.62 586.82
00021381 00000131 928.32 194.74 409.23 528.40 1007.14 418.37 1171.60 410.54 1073.38 511.61 1040.50 596.75 1173.50 590.37
00021382 00000132 929.34 196.52 408.99 528.61 1007.89 418.79 1171.66 409.30 1074.84 511.30 1044.33 597.93 1176.46 590.01
00021383 00000133 929.07 196.43 409.74 529.24 1008.20 419.23 1171.93 408.90 1075.81 510.46 1045.14 598.64 1176.79 590.07
00021384 00000134 927.58 195.03 412.42 531.06 1007.88 418.01 1172.44 407.51 1075.80 507.96 1044.41 597.23 1177.32 588.46
00021385 00000135 926.47 194.25 413.93 532.94 1006.43 417.51 1171.17 406.57 1073.77 507.13 1042.16 596.46 1176.72 587.24
00021386 00000136 927.18 192.77 413.70 538.17 1004.72 415.09 1170.91 403.95 1070.88 505.25 1039.68 594.87 1177.46 585.34
00021387 00000137 925.74 192.56 415.02 538.38 1003.14 414.87 1170.31 403.16 1069.32 504.38 1037.93 594.71 1177.31 584.63
00021388 00000138 926.03 192.60 411.57 528.81 1002.67 417.54 1171.18 406.50 1068.37 505.68 1033.87 594.73 1174.47 585.58
00021389 00000139 925.17 195.50 411.05 523.88 1002.26 417.78 1171.08 407.10 1068.03 506.66 1034.05 596.03 1174.24 587.18
00021390 00000140 925.17 198.95 411.91 524.09 1002.59 418.91 1171.95 408.53 1068.34 509.00 1035.30 597.39 1175.77 588.73
00021391 00000141 925.67 199.91 411.60 525.64 1002.64 418.27 1172.74 409.50 1067.75 509.95 1034.17 597.64 1173.68 590.61
00021392 00000142 926.44 195.40 411.28 526.95 998.07 419.70 1166.02 409.49 1063.07 512.35 1031.95 599.97 1162.51 590.20
00021393 00000143 926.48 196.85 411.70 528.54 997.67 420.33 1165.89 409.52 1063.98 515.00 1033.81 602.11 1163.98 591.87
00021394 00000144 927.76 201.30 410.01 522.48 998.39 421.63 1165.76 410.56 1065.60 516.99 1035.98 603.19 1163.53 592.67
00021395 00000145 929.39 198.62 408.41 526.43 1000.33 422.89 1167.95 412.36 1068.54 517.60 1037.04 604.13 1165.00 594.05
00021396 00000146 929.90 203.93 409.56 526.36 1002.78 424.67 1170.23 414.30 1072.88 518.53 1040.72 606.45 1167.96 596.40
00021397 00000147 935.34 207.75 401.19 531.90 1002.71 427.41 1169.87 413.28 1071.26 523.24 1042.79 610.98 1175.14 599.40
00021398 00000148 935.57 208.61 404.89 537.05 1005.64 429.22 1173.48 414.55 1075.06 525.50 1045.34 613.98 1179.20 601.45
00021399 00000149 936.38 201.23 412.08 546.56 1015.90 432.33 1178.25 423.22 1079.34 524.46 1052.96 613.42 1183.79 605.20
00021400 00000150 940.17 197.44 409.63 551.07 1019.93 432.97 1182.59 425.03 1082.43 524.87 1055.30 613.07 1186.35 606.04
00021401 00000151 941.28 197.39 412.48 554.24 1021.08 437.08 1184.11 425.45 1083.93 526.32 1058.70 617.24 1188.42 607.25
00021402 00000152 941.55 197.99 414.08 556.60 1022.76 440.65 1185.60 428.26 1086.61 529.66 1060.96 620.03 1190.84 609.56
00021403 00000153 941.56 210.07 412.03 548.04 1014.48 443.33 1184.66 426.26 1086.27 535.31 1055.39 626.16 1193.50 610.51
00021404 00000154 941.37 210.17 412.45 548.09 1014.83 445.97 1182.99 429.51 1086.01 537.77 1055.79 628.14 1192.52 613.01
00021405 00000155 942.56 214.36 410.87 545.07 1015.21 448.11 1181.98 431.53 1085.41 539.77 1055.89 629.33 1192.44 614.18
00021406 00000156 941.99 216.43 410.90 542.86 1014.41 452.00 1180.60 435.06 1084.50 543.20 1055.05 631.08 1193.33 615.53
00021407 00000157 940.57 218.38 410.29 538.08 1013.17 456.88 1179.39 439.66 1086.33 550.36 1055.45 635.15 1194.44 619.22
00021408 00000158 941.43 222.12 409.05 532.27 1012.63 461.46 1181.48 444.76 1086.74 554.51 1053.09 638.21 1196.00 622.74
00021409 00000159 942.16 229.77 408.50 528.38 1013.85 462.91 1182.78 447.79 1087.42 556.96 1053.13 639.28 1197.05 625.47
00021410 00000160 941.75 232.04 409.40 530.06 1013.75 464.63 1181.43 450.30 1086.01 558.16 1052.77 641.29 1195.55 628.34
00021411 00000161 938.24 221.29 409.78 542.69 1011.84 464.76 1180.52 451.28 1085.79 559.22 1052.28 641.73 1196.72 629.07
00021412 00000162 938.16 221.65 407.29 540.77 1012.51 464.99 1177.93 453.14 1083.51 557.60 1050.30 641.12 1192.56 630.06
00021413 00000163 935.00 230.06 407.71 531.91 1009.49 462.74 1172.97 453.54 1079.46 558.25 1046.11 638.74 1184.26 630.35
