Video ID: 	WbliHNs4q14
H: 	2080
W: 	3840
FPS: 	23.976023976023978

FRAME INDEX X0 Y0 W H [Landmarks (5 Points)]

00003813 00000000 2019.29 582.71 939.68 1240.96 2322.35 970.59 2703.16 1106.37 2451.44 1341.21 2232.66 1427.48 2527.07 1543.02
00003814 DELETE   2007.42 587.81 937.70 1229.60 2301.93 962.23 2690.87 1086.15 2435.46 1332.60 2222.28 1429.33 2521.94 1535.86
00003815 DELETE   1989.32 548.34 929.07 1256.61 2290.59 941.95 2688.56 1068.98 2428.06 1313.88 2186.13 1414.04 2503.42 1524.16
00003816 DELETE   1976.20 556.48 932.05 1219.79 2271.98 927.44 2676.15 1046.36 2417.62 1297.17 2174.59 1396.05 2490.59 1499.82
00003817 00000004 1969.75 520.71 928.47 1240.41 2260.18 919.52 2668.29 1035.08 2406.84 1290.92 2170.78 1388.51 2487.67 1489.35
00003818 00000005 1973.62 544.12 933.88 1227.05 2268.42 925.13 2674.10 1040.82 2413.38 1296.05 2177.39 1394.83 2488.09 1495.87
00003819 00000006 1981.88 563.24 927.90 1206.82 2282.63 924.79 2684.26 1042.65 2429.71 1297.08 2184.28 1393.78 2491.54 1497.12
00003820 00000007 1989.95 533.47 918.92 1227.55 2286.28 912.57 2688.21 1031.78 2433.84 1281.45 2190.95 1386.80 2501.48 1490.18
00003821 00000008 1977.36 519.26 934.04 1237.42 2275.51 891.62 2682.18 1008.79 2427.82 1267.09 2191.85 1375.07 2509.20 1476.23
00003822 00000009 1968.36 474.65 937.64 1268.29 2267.89 880.27 2672.29 997.10 2423.14 1252.43 2188.69 1360.65 2501.16 1460.94
00003823 00000010 1968.34 472.21 934.28 1251.27 2261.80 879.31 2671.05 995.17 2419.07 1255.55 2184.01 1355.92 2507.72 1455.42
00003824 00000011 1967.89 498.08 933.19 1225.39 2259.35 888.81 2671.15 1001.79 2416.37 1261.91 2184.36 1363.10 2507.71 1460.30
00003825 00000012 1966.45 501.64 928.56 1226.58 2255.96 891.71 2664.50 1004.72 2411.77 1266.33 2180.69 1364.26 2504.85 1461.59
00003826 00000013 1961.21 490.45 930.31 1226.67 2251.23 888.23 2661.90 997.30 2410.71 1261.23 2179.75 1358.46 2502.59 1452.67
00003827 00000014 1950.22 473.01 937.81 1241.46 2259.89 880.51 2664.37 989.17 2411.90 1255.29 2169.60 1354.69 2486.52 1449.60
00003828 00000015 1950.40 483.00 934.48 1225.36 2256.44 876.94 2663.00 984.51 2408.88 1254.29 2167.35 1350.44 2482.83 1444.76
00003829 00000016 1951.24 487.91 935.44 1217.71 2257.69 879.70 2662.03 984.86 2408.80 1255.46 2170.77 1352.48 2481.52 1444.85
00003830 00000017 1945.53 483.73 938.71 1223.24 2256.00 887.35 2657.08 988.27 2409.74 1257.40 2169.89 1354.73 2481.10 1443.34
00003831 00000018 1942.68 491.31 937.37 1218.13 2251.24 886.68 2653.63 984.91 2406.51 1254.98 2168.02 1356.63 2477.29 1442.79
00003832 00000019 1945.02 481.39 934.64 1221.35 2245.95 880.55 2650.58 976.26 2401.85 1243.60 2168.75 1352.63 2478.49 1435.51
00003833 00000020 1941.86 473.16 936.19 1227.89 2247.42 877.18 2653.07 975.74 2404.91 1242.99 2167.33 1345.47 2483.92 1430.88
00003834 00000021 1951.15 470.25 936.67 1238.06 2264.94 879.75 2667.43 982.24 2418.89 1247.57 2183.98 1352.35 2497.48 1441.62
00003835 00000022 1971.98 489.59 945.87 1230.01 2268.21 885.01 2687.97 994.76 2430.31 1264.13 2195.91 1360.16 2530.63 1454.65
00003836 00000023 1988.42 525.78 938.54 1199.53 2288.11 888.63 2700.59 1004.46 2440.37 1270.28 2205.08 1360.77 2531.09 1460.86
00003837 00000024 1994.35 501.79 939.92 1213.48 2285.56 886.64 2704.64 995.94 2445.17 1261.98 2210.89 1357.51 2541.62 1451.79
00003838 00000025 1994.08 471.60 935.23 1221.38 2282.90 873.56 2700.45 985.06 2441.80 1243.57 2210.99 1341.08 2538.39 1436.94
00003839 00000026 1957.83 468.06 962.06 1226.58 2289.19 865.00 2695.50 969.61 2440.95 1237.35 2204.90 1331.34 2529.63 1422.51
00003840 00000027 1961.40 470.92 964.62 1223.98 2287.58 855.21 2697.86 955.57 2438.63 1231.33 2207.19 1334.95 2527.02 1421.86
00003841 00000028 1974.36 465.25 962.31 1222.06 2282.96 858.54 2698.96 974.16 2442.84 1232.14 2214.21 1327.15 2539.05 1425.88
00003842 00000029 1975.32 478.88 971.18 1227.33 2285.19 863.27 2705.23 977.70 2449.72 1243.34 2214.41 1337.28 2546.44 1435.15
00003843 00000030 1983.79 470.79 964.83 1253.41 2290.58 865.97 2705.20 974.66 2455.45 1240.95 2223.22 1349.02 2547.64 1442.16
00003844 00000031 1988.27 464.59 961.43 1274.40 2298.32 858.10 2711.34 972.10 2464.26 1233.67 2224.15 1349.80 2547.40 1447.55
00003845 00000032 1990.56 434.95 976.95 1273.38 2307.29 838.04 2728.04 953.52 2479.43 1224.31 2233.69 1325.04 2566.39 1423.12
00003846 00000033 1994.86 416.86 972.46 1276.73 2327.92 829.27 2732.17 937.70 2486.54 1194.85 2233.42 1307.52 2563.80 1402.39
00003847 00000034 1992.63 403.84 977.49 1291.49 2332.83 811.16 2741.60 912.84 2502.95 1175.76 2237.61 1296.89 2576.04 1385.96
00003848 00000035 2011.25 405.38 974.18 1293.13 2340.52 801.19 2753.83 905.92 2511.72 1167.57 2251.63 1298.83 2587.46 1389.07
00003849 DELETE   2042.08 427.27 980.24 1305.24 2355.67 810.63 2788.94 906.99 2545.07 1202.69 2297.27 1322.79 2610.36 1403.92
00003850 DELETE   2045.37 415.07 984.06 1293.87 2385.52 841.11 2799.72 957.92 2548.73 1231.27 2293.97 1325.12 2618.03 1424.48
00003851 00000038 2077.18 452.92 959.29 1253.73 2401.87 864.59 2804.98 978.91 2556.10 1244.59 2303.84 1329.00 2631.59 1428.03
00003852 00000039 2074.03 450.92 969.58 1244.71 2411.22 856.37 2815.51 966.88 2567.05 1234.60 2317.08 1324.82 2638.77 1420.57
00003853 00000040 2090.75 413.01 968.97 1281.79 2414.41 831.71 2820.95 943.48 2569.61 1195.39 2332.46 1311.76 2649.44 1408.72
00003854 00000041 2103.69 410.72 969.03 1310.40 2419.04 815.41 2835.14 928.46 2577.00 1184.05 2340.30 1322.41 2655.41 1420.76
00003855 00000042 2105.96 418.22 978.31 1291.77 2425.01 817.75 2848.00 927.97 2593.18 1188.87 2353.73 1331.89 2669.53 1428.28
00003856 DELETE   2110.15 431.22 995.67 1281.15 2446.11 834.97 2863.82 946.56 2615.61 1217.81 2384.89 1341.22 2696.05 1435.49
00003857 00000044 2120.73 436.53 986.12 1285.38 2458.62 848.40 2868.23 963.66 2626.58 1236.97 2383.06 1330.72 2704.17 1428.47
00003858 00000045 2128.93 438.33 986.07 1263.74 2455.81 844.46 2873.22 965.14 2619.98 1232.09 2378.17 1322.71 2698.13 1424.63
00003859 00000046 2118.29 431.54 986.75 1262.20 2448.90 834.40 2857.98 954.46 2600.42 1203.58 2351.37 1308.71 2681.85 1412.68
00003860 00000047 2118.13 427.80 981.23 1254.71 2449.64 829.93 2858.66 943.32 2604.03 1196.85 2357.14 1305.49 2684.63 1404.37
00003861 00000048 2116.78 431.92 989.44 1253.03 2455.39 833.21 2867.18 942.93 2615.69 1205.70 2364.09 1306.79 2693.68 1402.94
00003862 00000049 2120.70 432.51 989.14 1257.45 2458.61 833.69 2872.69 945.06 2620.39 1206.49 2366.60 1310.19 2698.84 1407.63
00003863 00000050 2134.70 431.86 972.21 1251.45 2461.58 830.55 2875.49 944.58 2624.65 1203.29 2366.04 1306.31 2700.75 1405.85
00003864 00000051 2143.88 430.39 976.45 1248.28 2470.15 831.18 2885.97 941.49 2635.75 1206.66 2376.83 1306.35 2710.92 1402.19
00003865 00000052 2147.18 437.73 984.08 1241.40 2477.75 838.18 2889.17 952.04 2634.85 1212.25 2384.56 1305.36 2715.22 1403.63
00003866 00000053 2150.55 438.47 984.36 1242.11 2481.35 840.73 2892.88 957.75 2635.52 1218.71 2382.72 1301.56 2721.08 1402.66
00003867 00000054 2149.97 430.73 992.63 1254.67 2486.83 834.79 2900.95 946.73 2647.42 1209.19 2391.70 1306.17 2728.63 1402.56
00003868 00000055 2147.73 422.35 1000.48 1289.91 2489.72 823.26 2905.47 928.58 2659.93 1192.84 2409.67 1314.28 2740.98 1404.13
00003869 00000056 2148.30 425.85 1006.97 1279.32 2492.00 818.73 2912.48 918.16 2668.98 1191.25 2420.01 1313.42 2749.16 1399.06
00003870 00000057 2156.12 419.89 1009.70 1272.90 2497.72 826.06 2918.87 927.08 2668.92 1201.23 2425.58 1314.50 2751.69 1401.80
00003871 00000058 2167.05 430.39 995.83 1261.71 2500.83 825.11 2917.26 937.42 2661.60 1202.99 2422.13 1311.70 2745.56 1408.72
00003872 00000059 2193.28 419.07 958.88 1255.04 2501.43 818.66 2909.95 940.05 2655.63 1205.58 2418.92 1294.02 2743.91 1400.18
00003873 00000060 2177.32 390.05 997.33 1298.96 2515.82 831.57 2931.27 940.81 2678.53 1206.53 2429.84 1312.50 2755.36 1406.48
00003874 00000061 2169.07 407.06 1015.68 1286.05 2520.91 839.55 2944.12 943.35 2696.59 1209.71 2439.74 1322.52 2770.41 1413.16
00003875 00000062 2183.74 414.37 983.78 1293.01 2525.48 824.88 2934.77 937.42 2689.47 1202.34 2437.86 1307.59 2767.26 1406.57
00003876 00000063 2209.29 419.61 965.77 1283.47 2520.76 825.51 2928.59 938.15 2690.68 1210.55 2455.82 1314.82 2775.66 1411.31
00003877 DELETE   2185.03 365.29 999.18 1339.42 2528.34 811.67 2950.55 925.29 2698.50 1186.08 2439.57 1304.37 2779.84 1403.29
00003878 DELETE   2167.53 329.32 1012.40 1326.23 2529.85 778.81 2948.44 878.70 2716.33 1130.44 2442.50 1264.21 2778.53 1350.55
00003879 DELETE   2165.26 301.01 976.38 1303.33 2517.34 734.49 2931.74 832.80 2709.74 1094.42 2437.14 1216.90 2771.06 1301.39
00003880 00000067 2171.22 307.69 965.86 1288.07 2504.53 718.39 2919.48 813.56 2690.28 1082.05 2430.32 1209.28 2763.90 1291.08
00003881 DELETE   2158.06 314.30 988.18 1296.76 2523.40 730.77 2931.90 832.67 2706.41 1093.22 2441.11 1210.52 2772.87 1298.17
00003882 DELETE   2200.73 288.72 980.25 1339.53 2546.39 761.03 2959.45 869.48 2725.07 1131.59 2465.97 1242.75 2792.91 1336.07
00003883 00000070 2219.55 387.36 981.29 1307.19 2557.71 790.44 2974.73 905.89 2725.95 1165.83 2465.78 1286.37 2789.33 1386.54
00003884 00000071 2224.43 403.59 983.32 1311.55 2564.03 792.72 2980.12 908.92 2731.66 1168.19 2473.90 1302.47 2791.37 1403.88
00003885 00000072 2219.65 398.48 993.19 1288.91 2567.39 780.44 2984.57 897.66 2736.22 1156.62 2472.61 1280.47 2793.72 1382.04
00003886 00000073 2212.32 361.53 988.11 1277.42 2556.64 771.28 2981.87 885.06 2732.38 1149.92 2465.77 1256.46 2797.02 1354.95
00003887 00000074 2220.29 375.04 975.39 1253.67 2555.28 774.55 2977.27 888.72 2726.45 1151.01 2462.84 1252.48 2794.39 1351.28
00003888 00000075 2205.66 382.13 994.18 1257.46 2553.12 778.82 2979.80 894.47 2727.61 1158.02 2459.65 1255.93 2797.16 1355.90
00003889 00000076 2216.18 372.78 986.53 1263.92 2556.49 776.56 2982.29 890.64 2729.69 1152.34 2465.22 1254.86 2804.12 1353.38
00003890 00000077 2224.67 359.22 979.85 1274.24 2559.78 773.43 2986.31 879.27 2740.05 1147.26 2474.73 1255.31 2816.62 1346.82
00003891 00000078 2224.93 359.80 985.24 1277.23 2565.58 773.28 2992.38 873.88 2750.63 1152.19 2486.16 1259.48 2822.44 1347.01
00003892 00000079 2220.70 363.35 989.90 1274.48 2578.91 784.87 3000.44 875.70 2774.90 1152.88 2505.27 1267.30 2839.64 1346.93
00003893 00000080 2221.17 370.03 993.37 1286.67 2587.09 785.46 3008.53 879.60 2788.93 1157.75 2508.46 1273.67 2848.22 1355.73
00003894 00000081 2229.16 365.55 990.93 1300.06 2593.53 790.47 3013.46 879.81 2798.62 1162.76 2518.05 1283.76 2855.51 1361.75
00003895 00000082 2235.44 362.82 990.44 1311.82 2599.10 794.54 3018.27 882.42 2804.02 1164.46 2520.26 1287.08 2860.58 1363.73
00003896 00000083 2239.51 358.58 986.79 1317.03 2598.89 793.00 3016.54 880.07 2803.24 1162.13 2521.79 1288.85 2860.01 1364.93
00003897 00000084 2237.02 359.92 989.71 1320.03 2596.18 794.45 3015.66 881.97 2800.73 1163.23 2521.13 1290.05 2859.75 1366.36
00003898 00000085 2233.98 363.06 993.58 1323.05 2600.15 799.66 3019.65 884.78 2808.86 1164.46 2526.60 1297.66 2863.30 1372.13
00003899 00000086 2238.79 376.48 990.72 1311.54 2599.66 802.64 3021.89 883.23 2813.73 1168.57 2527.61 1300.53 2866.96 1371.21
00003900 00000087 2241.42 356.44 992.74 1327.15 2600.37 799.04 3020.64 879.93 2809.56 1167.06 2527.94 1298.28 2867.16 1369.09
00003901 00000088 2243.17 355.96 993.22 1328.95 2602.21 798.43 3022.28 880.65 2810.02 1166.86 2527.86 1296.06 2869.62 1367.77
00003902 00000089 2251.32 366.00 990.25 1315.85 2603.90 795.08 3028.36 879.01 2811.93 1167.54 2527.43 1295.14 2871.25 1368.33
00003903 00000090 2247.64 360.92 996.02 1311.62 2602.89 794.17 3026.17 878.46 2808.49 1161.32 2525.99 1287.27 2875.76 1360.27
00003904 00000091 2243.57 365.27 1000.43 1300.20 2602.92 791.28 3029.07 880.29 2807.07 1161.94 2522.12 1281.56 2872.08 1358.80
00003905 00000092 2242.61 367.76 1006.96 1299.64 2607.35 795.17 3034.77 885.23 2811.39 1167.01 2526.02 1284.58 2876.37 1362.56
00003906 00000093 2237.71 357.23 1014.84 1308.55 2609.49 799.18 3037.24 886.09 2816.96 1167.51 2531.35 1285.67 2881.22 1360.87
00003907 00000094 2237.80 355.03 1007.71 1284.53 2606.24 794.54 3030.08 880.86 2807.62 1163.47 2527.73 1270.46 2874.36 1345.60
00003908 00000095 2240.33 361.71 994.52 1269.44 2594.09 784.99 3017.32 877.02 2786.71 1156.75 2514.98 1256.29 2864.16 1336.19
00003909 00000096 2247.20 361.98 989.18 1298.66 2604.51 784.70 3020.51 873.67 2798.20 1153.93 2521.56 1266.50 2866.96 1344.13
00003910 00000097 2249.71 355.83 992.61 1338.71 2605.52 784.69 3018.92 869.87 2803.26 1146.47 2524.74 1279.93 2871.89 1353.78
00003911 00000098 2234.38 347.43 999.33 1319.93 2592.25 775.94 3014.91 864.35 2791.91 1146.25 2516.96 1269.35 2864.32 1346.24
00003912 00000099 2233.88 352.27 997.13 1306.18 2587.83 778.45 3011.55 867.42 2783.67 1150.95 2513.10 1266.10 2859.12 1343.74
00003913 00000100 2246.94 368.68 994.01 1306.68 2599.99 785.53 3020.52 875.13 2796.16 1157.79 2516.36 1275.07 2866.00 1353.21
00003914 00000101 2237.03 362.50 996.77 1288.93 2593.18 784.25 3017.19 868.80 2795.84 1156.83 2512.90 1265.41 2868.47 1339.60
00003915 00000102 2242.50 351.92 982.36 1283.48 2573.33 775.63 3005.51 863.90 2768.75 1151.09 2501.77 1255.62 2861.05 1332.77
00003916 00000103 2241.54 362.96 983.83 1281.21 2570.98 776.33 3003.62 866.44 2764.62 1151.94 2497.50 1258.42 2855.80 1337.39
00003917 00000104 2240.18 379.50 995.55 1269.22 2585.01 786.23 3016.58 871.69 2783.95 1165.36 2512.31 1269.99 2864.63 1345.34
00003918 00000105 2252.06 369.67 989.64 1266.15 2584.02 790.78 3014.59 873.91 2778.27 1167.35 2516.71 1269.43 2864.90 1342.72
00003919 00000106 2247.96 359.81 994.11 1285.69 2578.21 786.43 3009.75 871.99 2769.31 1166.11 2513.16 1273.05 2860.95 1348.58
00003920 00000107 2246.21 378.84 997.25 1301.67 2588.10 787.66 3014.90 880.36 2777.15 1163.50 2511.06 1278.69 2854.35 1360.09
00003921 00000108 2248.22 371.65 1002.24 1307.27 2598.53 786.49 3021.02 877.62 2789.23 1162.20 2518.15 1274.36 2867.69 1353.80
00003922 00000109 2254.35 365.40 991.84 1292.68 2593.09 784.34 3017.40 872.64 2783.08 1158.34 2516.91 1263.57 2871.19 1340.66
00003923 00000110 2249.48 348.99 992.75 1298.67 2590.72 776.70 3011.72 869.24 2776.25 1148.13 2514.78 1252.92 2868.36 1332.89
00003924 00000111 2246.59 347.29 997.59 1301.40 2592.48 769.17 3015.08 862.71 2780.50 1143.44 2518.42 1249.03 2871.26 1329.66
00003925 00000112 2246.43 323.46 1006.57 1324.86 2600.86 774.57 3023.45 862.69 2795.66 1139.35 2523.87 1250.67 2879.40 1326.63
00003926 00000113 2250.41 355.63 1001.70 1296.38 2600.35 781.77 3022.01 871.28 2789.61 1152.46 2521.49 1257.95 2873.58 1335.77
00003927 00000114 2254.32 363.70 991.49 1273.52 2591.48 780.17 3011.52 870.97 2774.36 1149.55 2518.32 1254.76 2860.31 1333.84
00003928 DELETE   2255.49 281.58 989.07 1335.67 2593.00 756.67 3007.92 856.91 2774.61 1125.41 2526.97 1241.47 2853.17 1327.09
00003929 00000116 2253.61 275.03 982.03 1319.45 2585.86 730.62 3004.75 831.44 2772.62 1105.13 2523.56 1214.49 2855.55 1300.29
00003930 00000117 2252.23 282.19 982.54 1305.67 2582.29 726.45 2998.34 820.09 2767.03 1096.83 2525.80 1208.73 2856.41 1288.74
00003931 00000118 2250.32 260.63 982.95 1343.92 2588.75 737.04 3003.48 837.61 2775.49 1113.71 2525.08 1226.88 2848.70 1312.73
00003932 00000119 2248.52 286.17 1003.27 1349.66 2606.51 759.86 3015.84 866.31 2784.30 1138.60 2535.53 1249.37 2854.01 1340.29
00003933 00000120 2255.44 348.17 1010.28 1329.65 2608.75 787.43 3027.75 887.38 2788.65 1158.29 2530.28 1288.96 2858.16 1375.68
00003934 00000121 2261.19 347.08 1008.92 1324.66 2609.51 787.82 3029.40 889.75 2785.63 1157.51 2531.60 1291.70 2855.38 1379.82
00003935 00000122 2256.08 324.51 998.41 1311.33 2601.57 768.43 3016.05 870.21 2778.78 1137.59 2528.37 1260.36 2850.05 1348.03
00003936 00000123 2255.74 308.20 988.72 1319.36 2588.83 754.79 3002.69 857.89 2764.08 1124.44 2524.03 1245.44 2844.43 1333.76
00003937 00000124 2253.60 317.88 988.51 1317.18 2584.01 759.47 3000.76 861.73 2760.73 1131.13 2516.89 1253.83 2840.38 1342.02
00003938 00000125 2249.22 345.41 1001.22 1306.13 2585.73 770.53 3010.18 872.98 2765.77 1148.54 2515.58 1270.34 2844.71 1359.04
00003939 00000126 2254.71 340.97 996.03 1309.62 2590.97 774.63 3010.30 874.13 2768.86 1150.36 2522.25 1272.59 2846.83 1359.10
00003940 00000127 2249.75 350.73 994.87 1274.73 2586.42 768.24 3011.94 871.71 2765.18 1148.52 2513.51 1256.95 2843.94 1346.77
00003941 00000128 2244.37 346.52 992.79 1272.71 2580.94 760.57 3005.87 868.92 2757.12 1144.33 2509.80 1247.73 2842.43 1341.60
00003942 00000129 2254.15 341.91 978.21 1279.70 2574.54 754.53 2996.55 866.41 2743.08 1140.76 2499.39 1243.02 2833.73 1339.95
00003943 00000130 2261.68 349.29 963.60 1290.51 2568.55 761.60 2987.91 875.35 2730.39 1146.81 2486.99 1248.60 2824.61 1347.31
00003944 DELETE   2274.09 374.64 961.82 1295.61 2574.48 784.63 2994.04 897.40 2733.24 1173.34 2486.92 1281.93 2821.99 1380.56
00003945 00000132 2284.42 380.01 968.48 1314.02 2585.08 815.35 2999.83 925.75 2736.69 1191.55 2495.05 1305.40 2829.11 1400.85
00003946 DELETE   2293.70 406.38 977.42 1300.10 2585.38 809.11 3010.04 920.71 2746.63 1194.35 2521.17 1305.51 2832.16 1400.13
00003947 DELETE   2287.69 386.39 948.21 1295.47 2592.16 780.70 2997.70 900.15 2737.31 1158.93 2487.17 1272.42 2817.75 1376.25
00003948 00000135 2294.53 373.75 945.22 1276.60 2601.79 760.60 2997.66 901.29 2727.19 1136.86 2479.30 1230.65 2806.07 1351.53
00003949 00000136 2278.68 362.34 952.99 1283.31 2585.23 762.17 2989.94 888.42 2727.83 1139.89 2480.64 1239.72 2812.43 1349.01
00003950 00000137 2282.58 372.91 959.14 1282.21 2589.13 772.90 2998.57 896.71 2734.61 1152.02 2489.47 1257.15 2818.78 1364.69
00003951 00000138 2282.86 392.47 960.97 1260.83 2589.33 772.35 2996.47 899.78 2725.35 1145.92 2482.20 1252.38 2810.21 1363.18
00003952 00000139 2276.87 380.84 964.84 1260.63 2587.27 760.11 2998.15 889.13 2726.69 1135.36 2482.63 1237.97 2811.50 1349.50
00003953 00000140 2270.87 357.27 971.41 1281.46 2582.78 752.85 2998.06 871.24 2737.79 1122.40 2491.48 1240.57 2819.61 1342.43
00003954 00000141 2274.96 352.89 961.66 1277.34 2582.51 754.12 2996.33 868.41 2738.90 1125.92 2493.75 1238.97 2823.92 1337.75
00003955 00000142 2273.81 374.39 960.26 1245.24 2579.11 758.29 2994.14 877.97 2727.92 1136.36 2484.72 1233.78 2815.52 1337.66
00003956 00000143 2277.59 366.11 960.99 1246.25 2580.53 751.59 2990.09 876.28 2721.22 1126.07 2484.26 1224.45 2806.31 1332.36
00003957 00000144 2278.85 339.54 953.67 1261.76 2572.67 750.39 2982.69 872.51 2719.66 1121.86 2488.16 1217.92 2811.95 1322.19
00003958 00000145 2278.41 356.04 968.82 1271.37 2581.83 744.37 2992.28 866.07 2726.79 1122.00 2489.25 1226.47 2812.43 1330.54
00003959 00000146 2275.80 342.88 963.42 1295.14 2575.41 747.93 2988.56 869.61 2724.02 1123.48 2485.98 1239.26 2808.71 1343.47
00003960 00000147 2274.66 365.75 961.94 1263.40 2572.74 750.20 2990.95 872.69 2722.67 1123.29 2477.66 1236.97 2804.26 1342.48
00003961 00000148 2281.79 344.53 956.81 1257.68 2568.14 745.58 2990.10 862.37 2722.76 1114.96 2487.44 1228.62 2815.64 1329.00
00003962 00000149 2272.87 323.65 971.90 1279.87 2565.98 737.95 2991.92 864.59 2719.29 1112.11 2484.91 1225.61 2814.20 1333.58
00003963 00000150 2267.64 363.86 969.71 1254.45 2568.91 742.78 2990.17 871.12 2716.23 1126.28 2472.06 1228.64 2800.95 1339.57
00003964 00000151 2268.22 366.15 973.79 1283.71 2574.70 749.06 2990.96 884.08 2711.21 1138.36 2467.38 1243.66 2793.73 1360.74
00003965 00000152 2263.40 368.26 977.26 1289.13 2570.61 744.35 2987.93 880.30 2706.96 1137.66 2462.65 1239.67 2796.83 1357.70
00003966 00000153 2259.04 324.60 976.29 1303.36 2559.85 730.79 2978.39 869.32 2703.20 1115.17 2464.02 1220.98 2796.26 1340.13
00003967 00000154 2251.97 345.57 975.72 1271.10 2550.16 717.06 2969.67 851.17 2695.66 1107.43 2455.03 1209.69 2788.86 1325.60
00003968 00000155 2252.53 334.88 968.31 1276.10 2544.36 714.30 2963.07 847.62 2689.01 1110.11 2454.38 1205.92 2786.72 1321.06
00003969 00000156 2246.39 328.09 976.29 1279.84 2541.90 721.42 2965.63 856.43 2689.90 1117.53 2452.88 1210.52 2791.02 1326.61
