Video ID: 	plPVzt6I9HI
H: 	2160
W: 	3840
FPS: 	29.97002997002997

FRAME INDEX X0 Y0 W H [Landmarks (5 Points)]

00007370 00000000 1099.89 638.58 546.76 795.73 1299.22 994.13 1555.76 977.76 1477.89 1130.06 1339.73 1262.97 1542.85 1250.37
00007371 00000001 1091.45 643.24 544.35 784.90 1282.80 1000.75 1536.61 979.89 1457.75 1142.59 1324.34 1262.96 1531.07 1245.96
00007372 00000002 1086.19 642.56 544.30 782.86 1276.00 1000.75 1531.56 978.80 1450.24 1140.17 1316.39 1259.71 1525.67 1242.15
00007373 00000003 1085.80 639.36 543.12 776.16 1277.57 997.28 1533.33 974.52 1453.13 1135.59 1318.44 1254.82 1527.38 1236.47
00007374 00000004 1091.66 635.94 540.53 772.59 1292.35 989.00 1542.61 970.64 1467.93 1121.30 1330.65 1247.01 1535.29 1232.31
00007375 DELETE   1100.01 640.44 538.13 763.28 1315.06 987.79 1562.20 975.46 1495.63 1107.17 1345.42 1239.36 1548.63 1231.39
00007376 DELETE   1111.29 647.76 534.38 750.08 1328.19 984.50 1574.84 971.82 1512.70 1100.61 1361.92 1236.63 1562.26 1228.20
00007377 DELETE   1123.53 641.76 533.10 753.67 1342.89 980.93 1588.24 967.50 1531.50 1099.21 1379.82 1235.39 1578.97 1226.71
00007378 00000008 1129.08 642.84 536.66 754.89 1361.53 977.48 1600.74 967.20 1554.30 1099.02 1400.68 1235.15 1590.69 1228.49
00007379 00000009 1139.91 647.71 534.82 762.27 1375.73 982.55 1609.06 975.69 1565.28 1105.93 1414.96 1240.53 1592.18 1237.23
00007380 00000010 1148.56 656.31 532.83 764.62 1389.06 989.97 1615.01 983.09 1574.16 1118.46 1428.64 1247.99 1595.46 1244.39
00007381 00000011 1153.52 663.25 533.15 761.65 1393.83 997.39 1626.51 990.18 1582.62 1131.08 1437.93 1261.64 1604.46 1257.47
00007382 00000012 1159.98 672.32 533.78 763.76 1401.55 1004.63 1632.64 996.65 1589.24 1145.03 1440.96 1276.19 1607.50 1271.44
00007383 00000013 1167.20 684.46 527.00 765.48 1416.25 1008.79 1637.98 1000.52 1597.26 1157.81 1438.25 1285.84 1607.88 1279.35
00007384 00000014 1170.91 696.50 534.40 759.72 1420.40 1020.92 1646.24 1012.66 1602.57 1169.47 1437.66 1291.81 1612.67 1286.13
00007385 00000015 1175.66 706.84 537.44 760.68 1423.19 1032.34 1650.46 1025.78 1601.66 1184.06 1439.48 1304.06 1613.40 1299.59
00007386 00000016 1186.20 719.78 535.06 756.51 1430.61 1038.76 1658.66 1032.83 1612.30 1198.20 1439.53 1312.73 1622.30 1309.41
00007387 00000017 1192.57 725.72 536.43 749.26 1438.63 1045.27 1666.87 1037.28 1621.08 1206.69 1447.90 1317.02 1632.92 1312.00
00007388 00000018 1201.63 722.25 534.32 749.03 1448.10 1049.25 1673.21 1039.32 1630.45 1212.52 1455.31 1316.37 1638.98 1310.10
00007389 00000019 1209.29 724.91 533.45 744.75 1453.88 1049.20 1679.38 1038.84 1636.79 1207.96 1461.76 1311.21 1646.05 1304.59
00007390 00000020 1214.11 722.28 534.39 745.12 1456.48 1045.26 1686.03 1036.90 1640.97 1198.91 1464.95 1307.32 1651.97 1302.47
00007391 00000021 1221.04 715.05 532.43 753.23 1461.03 1043.08 1692.16 1036.47 1644.90 1196.40 1472.75 1306.97 1654.86 1303.40
00007392 00000022 1226.75 713.10 529.13 757.78 1464.33 1038.69 1696.30 1035.36 1648.43 1190.10 1475.58 1306.21 1655.76 1305.13
00007393 00000023 1230.81 708.55 530.01 771.33 1466.84 1036.24 1699.04 1034.69 1648.40 1187.20 1480.34 1306.17 1656.79 1306.18
00007394 00000024 1233.00 710.90 530.33 768.10 1464.03 1035.00 1700.54 1031.67 1647.59 1183.71 1485.04 1303.12 1666.22 1301.45
00007395 00000025 1236.30 710.46 528.89 763.87 1466.31 1032.36 1702.69 1028.68 1649.42 1182.50 1488.35 1300.46 1669.45 1298.40
00007396 00000026 1239.98 713.36 527.24 758.40 1467.29 1031.28 1702.41 1027.17 1649.31 1179.73 1492.08 1300.38 1670.92 1297.82
00007397 00000027 1239.61 703.23 528.97 764.70 1472.85 1024.82 1702.10 1018.71 1652.86 1171.80 1496.56 1301.09 1671.94 1296.14
00007398 00000028 1246.55 701.52 524.12 764.88 1471.59 1020.53 1701.67 1014.35 1649.71 1167.28 1498.74 1299.71 1673.82 1293.98
00007399 00000029 1247.91 700.80 525.90 760.29 1472.06 1016.44 1701.53 1010.77 1645.82 1162.79 1501.49 1294.70 1673.78 1288.84
00007400 00000030 1252.83 690.26 525.60 761.08 1469.60 1014.00 1704.85 1006.52 1642.91 1157.10 1500.33 1288.47 1679.83 1281.88
00007401 00000031 1260.88 681.62 520.77 756.07 1473.96 1014.08 1711.74 1008.82 1644.21 1145.58 1510.64 1278.61 1686.46 1273.94
00007402 DELETE   1268.67 681.17 521.20 746.26 1483.73 1012.33 1723.51 1001.28 1661.42 1136.67 1511.67 1261.58 1704.73 1255.33
00007403 DELETE   1274.07 670.24 524.27 743.53 1490.95 1005.48 1731.03 989.06 1672.73 1130.01 1517.97 1247.42 1719.60 1236.86
00007404 00000034 1288.90 663.77 523.17 742.11 1506.62 990.10 1741.88 980.04 1681.80 1120.25 1532.13 1236.21 1726.59 1229.99
00007405 00000035 1303.07 662.42 523.81 740.74 1522.17 977.20 1756.90 975.13 1694.18 1107.94 1549.36 1233.40 1735.67 1232.10
00007406 00000036 1321.10 664.58 516.79 732.39 1543.30 967.95 1770.78 972.94 1711.71 1097.50 1565.44 1230.36 1743.63 1232.72
00007407 00000037 1332.28 654.40 521.46 747.88 1553.55 963.53 1789.40 968.88 1725.15 1098.52 1577.97 1229.62 1759.64 1232.68
00007408 00000038 1343.97 651.00 523.56 751.80 1567.24 960.60 1803.70 968.40 1738.88 1097.70 1592.76 1227.23 1775.18 1232.22
00007409 00000039 1362.93 649.03 520.04 754.06 1579.75 958.94 1816.46 969.40 1753.06 1094.76 1609.13 1226.46 1789.48 1233.51
00007410 00000040 1374.15 652.03 518.52 756.72 1592.38 957.77 1826.30 970.65 1763.91 1092.16 1626.66 1228.53 1794.69 1236.66
00007411 00000041 1382.56 652.75 516.99 755.69 1598.13 960.30 1832.84 971.29 1768.86 1092.67 1627.94 1224.79 1803.14 1232.75
00007412 00000042 1393.90 656.01 513.73 744.89 1604.66 961.27 1838.46 970.67 1772.57 1093.89 1622.86 1221.31 1810.23 1228.12
00007413 00000043 1402.02 660.17 512.04 736.55 1612.61 964.40 1847.04 972.67 1780.26 1094.96 1634.88 1220.74 1818.82 1226.61
00007414 00000044 1408.29 666.51 512.73 728.53 1619.74 964.58 1856.49 969.70 1790.56 1098.86 1650.41 1226.60 1827.64 1229.14
00007415 00000045 1416.95 672.31 512.98 726.03 1629.15 964.80 1865.05 970.23 1798.02 1103.02 1662.48 1232.10 1835.04 1234.32
00007416 00000046 1427.61 671.31 510.80 729.60 1640.50 964.95 1875.66 970.51 1812.72 1101.50 1671.09 1231.43 1848.87 1234.51
00007417 00000047 1438.49 668.01 510.18 726.41 1654.20 964.33 1886.36 965.93 1830.31 1099.43 1689.15 1230.25 1864.09 1230.21
00007418 00000048 1447.93 669.89 509.78 722.89 1664.85 963.59 1895.35 964.64 1840.58 1096.20 1700.02 1229.59 1874.35 1229.15
00007419 00000049 1456.98 672.00 508.83 721.15 1673.91 962.72 1902.05 965.06 1846.59 1092.39 1711.30 1230.61 1879.44 1230.87
00007420 00000050 1464.28 671.67 509.42 722.37 1679.95 961.41 1906.92 964.01 1848.76 1088.22 1718.34 1230.60 1881.72 1230.98
00007421 00000051 1471.84 672.54 504.94 717.95 1690.17 953.71 1909.77 960.60 1856.18 1078.02 1720.90 1225.70 1882.04 1227.46
00007422 00000052 1478.39 669.97 501.81 719.39 1693.62 951.70 1913.89 957.64 1859.86 1075.04 1725.16 1223.08 1886.37 1224.29
00007423 00000053 1485.34 669.14 500.28 716.47 1695.88 950.66 1919.68 956.28 1863.21 1075.84 1729.39 1221.89 1894.96 1222.75
00007424 00000054 1492.03 667.42 499.38 718.16 1699.29 953.25 1924.43 957.75 1864.95 1076.64 1736.93 1221.47 1902.44 1221.58
00007425 00000055 1496.91 658.11 502.99 727.82 1699.84 955.82 1928.96 958.65 1864.00 1079.55 1738.49 1221.48 1907.32 1220.91
00007426 00000056 1502.09 649.80 505.12 736.65 1700.75 953.69 1930.95 956.57 1862.26 1077.91 1740.98 1219.72 1908.30 1219.45
00007427 00000057 1510.64 644.78 505.31 738.04 1702.54 949.07 1937.20 951.42 1865.11 1069.54 1746.04 1215.41 1916.23 1214.81
00007428 00000058 1521.25 639.54 505.05 744.70 1711.23 946.70 1945.14 946.94 1873.49 1059.80 1761.62 1213.19 1925.33 1211.04
00007429 00000059 1539.01 644.97 504.01 735.52 1726.35 937.21 1957.92 937.16 1885.48 1053.84 1769.59 1210.20 1936.73 1207.17
00007430 00000060 1546.80 646.35 507.89 729.93 1735.30 937.91 1965.41 937.32 1892.93 1053.18 1779.13 1206.74 1945.84 1203.04
00007431 00000061 1551.23 649.21 507.85 723.24 1737.76 940.00 1970.25 939.38 1893.94 1055.80 1779.03 1205.94 1950.27 1202.22
00007432 00000062 1555.08 646.66 504.86 726.68 1740.20 942.37 1972.00 942.48 1894.52 1065.10 1777.87 1209.39 1949.88 1206.48
00007433 00000063 1557.90 649.78 502.81 729.28 1741.20 944.19 1973.43 945.56 1895.17 1074.61 1777.08 1214.18 1950.91 1212.11
00007434 00000064 1563.65 655.57 500.99 728.27 1744.84 949.35 1976.87 948.05 1899.55 1083.36 1779.07 1216.85 1957.32 1213.36
00007435 00000065 1568.25 664.42 501.93 721.89 1748.19 952.55 1983.96 953.91 1903.91 1088.83 1777.72 1216.91 1963.06 1216.23
00007436 00000066 1573.11 664.11 501.90 723.77 1749.99 951.36 1986.83 953.55 1903.81 1089.82 1774.89 1213.40 1967.07 1214.18
00007437 00000067 1579.70 668.17 504.22 718.39 1754.84 948.94 1991.66 955.48 1902.56 1088.79 1777.55 1208.31 1966.83 1212.57
00007438 00000068 1590.21 669.37 502.95 706.27 1759.97 949.50 1997.90 957.07 1906.37 1086.85 1788.90 1209.75 1967.99 1214.24
00007439 00000069 1599.12 665.98 501.78 704.90 1768.76 950.61 2004.51 959.15 1914.48 1077.76 1801.29 1207.16 1972.95 1212.58
00007440 00000070 1608.88 661.16 503.52 702.40 1775.98 947.06 2013.10 955.22 1918.07 1068.49 1803.68 1203.61 1975.38 1208.85
00007441 00000071 1613.11 658.73 508.30 701.69 1783.59 942.55 2020.17 954.45 1923.28 1064.58 1810.80 1199.17 1980.42 1207.34
00007442 00000072 1618.82 660.63 505.72 696.97 1790.50 943.29 2027.29 956.15 1929.87 1066.29 1816.31 1197.64 1989.66 1206.26
00007443 00000073 1623.77 662.46 501.71 694.87 1795.92 946.35 2033.34 959.36 1936.31 1073.94 1818.58 1199.52 1998.70 1208.06
00007444 00000074 1627.82 668.54 497.81 691.24 1796.96 953.37 2036.02 963.68 1940.08 1086.30 1817.85 1205.07 2006.41 1211.39
00007445 00000075 1630.12 673.62 496.82 693.44 1798.82 961.48 2035.76 971.66 1941.41 1095.43 1816.82 1210.03 2008.43 1216.49
00007446 00000076 1634.10 678.75 497.22 702.01 1803.41 971.47 2036.76 979.41 1945.88 1108.45 1824.54 1218.55 2011.71 1222.88
00007447 00000077 1638.17 689.86 493.37 711.23 1812.71 988.19 2037.49 996.21 1957.46 1119.32 1829.60 1228.28 2014.01 1233.65
00007448 00000078 1642.55 697.41 498.44 715.28 1820.24 996.16 2053.71 1003.71 1966.21 1133.11 1844.88 1243.87 2017.42 1249.59
00007449 00000079 1646.46 704.64 498.54 717.10 1827.80 999.33 2061.91 1006.01 1977.06 1141.30 1852.72 1253.07 2027.31 1257.61
00007450 00000080 1653.31 710.07 496.05 718.35 1837.03 1005.44 2064.04 1011.15 1985.80 1147.58 1862.58 1259.82 2035.20 1263.06
00007451 00000081 1658.40 716.32 494.36 716.44 1845.55 1010.77 2069.14 1015.01 1998.26 1154.36 1874.07 1268.22 2043.69 1270.05
00007452 00000082 1661.07 725.86 496.30 709.64 1852.77 1016.93 2075.44 1021.00 2009.13 1164.17 1879.68 1276.61 2048.04 1278.30
00007453 00000083 1662.63 732.60 500.41 708.89 1858.78 1027.00 2082.17 1025.93 2017.65 1175.52 1885.62 1288.92 2055.66 1287.06
00007454 00000084 1664.16 737.48 501.46 712.21 1861.88 1034.81 2085.45 1030.42 2023.70 1181.79 1884.45 1295.00 2061.33 1291.73
00007455 00000085 1663.71 740.70 501.29 722.37 1861.99 1045.44 2083.98 1036.99 2029.07 1195.32 1877.13 1299.82 2062.56 1294.24
00007456 00000086 1658.61 734.31 499.25 736.25 1857.67 1053.10 2082.14 1044.11 2026.30 1201.90 1874.76 1309.28 2058.16 1303.55
00007457 00000087 1654.84 722.85 492.88 760.89 1848.35 1060.89 2079.37 1046.88 2016.80 1205.74 1875.03 1320.67 2054.65 1311.35
00007458 00000088 1646.56 727.58 495.81 754.64 1842.47 1058.96 2071.04 1048.04 2011.70 1203.52 1874.17 1323.46 2048.89 1314.84
00007459 00000089 1634.14 727.33 499.89 750.43 1831.49 1057.60 2061.80 1044.90 2001.73 1200.17 1870.98 1325.52 2041.17 1314.11
00007460 00000090 1624.82 730.29 500.68 738.52 1821.28 1052.45 2046.97 1037.85 1988.70 1188.37 1862.79 1316.00 2030.65 1302.32
00007461 00000091 1609.61 727.71 505.96 723.84 1805.74 1044.15 2032.93 1025.43 1970.29 1176.13 1852.62 1304.15 2023.27 1286.34
00007462 00000092 1591.53 727.69 508.05 711.81 1780.20 1041.43 2013.36 1013.56 1950.49 1164.57 1837.31 1292.45 2012.44 1269.62
00007463 DELETE   1582.36 716.04 509.12 705.96 1765.85 1030.84 1993.78 1002.64 1929.86 1147.10 1823.92 1274.22 2000.67 1250.90
00007464 00000094 1577.27 701.39 508.76 710.65 1757.20 1021.03 1990.24 992.11 1920.41 1136.00 1817.15 1265.29 1996.57 1241.44
00007465 00000095 1575.71 694.80 505.51 709.64 1753.91 1008.77 1989.93 981.88 1918.88 1122.81 1814.57 1258.68 1992.51 1236.39
00007466 00000096 1575.06 690.61 508.04 698.42 1759.23 997.20 1991.03 971.86 1925.16 1109.87 1819.99 1250.62 1991.87 1227.70
00007467 00000097 1578.18 686.20 505.50 689.45 1761.19 989.52 1993.38 966.18 1927.00 1100.99 1817.42 1240.25 1994.05 1219.27
00007468 00000098 1581.19 681.29 502.96 683.70 1762.41 984.37 1995.14 962.08 1926.07 1097.55 1815.72 1232.30 1994.15 1212.54
00007469 00000099 1583.77 675.61 502.42 688.67 1764.41 981.31 1998.75 961.55 1927.94 1094.89 1816.36 1229.41 1994.84 1211.92
00007470 00000100 1586.97 675.52 500.44 691.65 1768.75 979.18 2003.51 963.61 1930.71 1095.93 1819.02 1229.84 1994.05 1215.51
00007471 00000101 1590.15 677.67 499.48 694.97 1772.50 978.69 2005.93 965.83 1934.12 1097.53 1822.49 1232.31 1994.69 1219.77
00007472 00000102 1593.82 677.13 503.16 696.39 1776.86 977.33 2012.73 967.19 1938.12 1099.81 1824.17 1232.83 1997.58 1222.70
00007473 00000103 1594.17 679.79 504.61 697.55 1783.58 976.84 2017.01 970.40 1943.35 1102.23 1825.85 1233.15 1997.52 1226.13
00007474 00000104 1596.29 678.89 505.81 702.45 1788.44 975.39 2022.40 973.29 1948.74 1105.53 1826.46 1235.00 1998.41 1231.56
00007475 00000105 1603.08 674.83 504.09 712.58 1804.75 968.51 2030.73 971.83 1966.31 1107.39 1831.00 1234.48 2005.65 1233.76
00007476 DELETE   1613.53 675.09 502.92 714.66 1829.61 966.59 2046.69 971.14 1992.98 1100.40 1850.74 1231.51 2014.41 1232.57
00007477 DELETE   1623.62 667.53 500.88 727.62 1852.39 963.39 2063.46 966.31 2018.53 1094.50 1878.26 1229.26 2035.28 1228.96
00007478 DELETE   1636.75 665.27 500.51 733.16 1876.32 964.37 2085.01 964.47 2056.66 1096.68 1899.32 1226.27 2065.64 1226.00
CROP_BBOX: 865 119 2410 1819
