Video ID: 	qi7APGihOVA
H: 	1080
W: 	1920
FPS: 	25.0

FRAME INDEX X0 Y0 W H [Landmarks (5 Points)]

00004830 00000000 656.81 199.78 426.14 540.78 821.25 387.46 997.08 433.16 901.15 503.80 785.93 576.13 930.93 614.43
00004831 00000001 656.48 198.89 426.04 540.94 820.99 387.08 997.22 432.78 901.02 504.11 786.08 574.90 931.53 613.10
00004832 00000002 657.45 199.32 425.26 540.64 821.94 386.61 997.94 432.09 902.04 503.22 786.41 574.95 932.79 613.05
00004833 00000003 657.80 200.59 424.16 540.26 824.76 388.60 999.53 432.74 906.41 505.88 789.33 576.40 937.10 613.57
00004834 00000004 657.57 207.93 426.39 534.64 826.16 392.00 1000.86 435.81 908.62 513.00 790.74 579.25 938.26 616.35
00004835 00000005 657.92 210.48 430.07 540.54 827.54 395.41 1001.54 439.65 908.38 518.52 790.18 581.80 937.97 619.81
00004836 00000006 658.12 210.82 430.33 540.83 827.78 395.86 1000.75 441.68 907.23 518.90 792.17 581.90 935.47 621.21
00004837 00000007 658.79 210.02 430.20 535.99 826.03 396.97 999.49 442.43 905.29 516.33 790.55 579.86 934.73 618.44
00004838 00000008 661.46 212.49 428.62 534.16 826.95 397.07 998.64 439.22 904.05 514.59 788.10 578.69 932.03 614.71
00004839 00000009 662.15 212.81 428.52 534.74 828.80 398.00 1000.13 440.93 905.15 515.48 788.08 579.39 932.61 616.15
00004840 00000010 664.47 206.94 428.03 539.88 832.95 397.23 1005.67 442.53 912.01 517.97 794.40 580.72 940.36 619.53
00004841 00000011 673.05 214.94 425.43 534.46 843.01 398.43 1017.49 447.86 922.77 522.10 801.46 580.50 947.36 623.08
00004842 DELETE   673.96 212.85 428.27 542.72 855.06 401.39 1026.04 449.18 941.21 528.68 816.50 583.75 960.20 625.00
00004843 00000013 682.12 210.93 425.84 549.01 872.80 401.52 1037.75 451.39 960.21 530.12 832.28 587.06 970.78 629.69
00004844 00000014 684.89 213.97 426.42 545.63 876.71 400.43 1041.85 450.12 964.31 528.84 836.21 587.36 973.72 629.71
00004845 00000015 682.53 211.82 428.30 547.87 872.89 399.19 1037.34 452.35 957.09 530.21 828.72 585.15 966.94 630.72
00004846 00000016 678.20 208.92 431.57 545.95 863.69 400.37 1032.26 451.10 947.15 528.24 823.76 586.18 960.93 629.49
00004847 00000017 677.39 209.09 432.11 545.64 861.27 402.37 1032.76 452.87 946.36 528.09 824.53 588.95 961.68 632.04
00004848 00000018 682.26 213.25 428.32 548.74 869.45 406.67 1036.88 456.58 954.61 532.62 834.23 595.78 965.91 638.09
00004849 00000019 691.91 231.24 424.60 537.56 881.56 409.42 1039.79 456.09 960.58 536.49 850.14 610.37 955.18 647.97
00004850 00000020 692.69 231.43 424.29 538.51 883.67 410.73 1043.00 456.65 964.81 536.75 854.36 613.72 959.77 650.49
00004851 00000021 691.56 232.90 424.19 534.04 880.13 410.14 1039.21 458.59 958.49 536.12 847.50 608.14 956.88 647.20
00004852 00000022 686.77 228.87 428.21 535.55 870.04 409.03 1033.99 460.39 948.01 532.64 834.25 602.66 950.95 644.54
00004853 00000023 685.01 229.54 427.21 536.46 865.74 408.51 1029.61 460.22 942.15 532.64 825.64 600.14 946.56 642.76
00004854 00000024 686.17 227.98 426.68 538.63 868.96 409.78 1031.94 463.20 946.21 535.82 826.57 597.48 952.01 641.80
00004855 00000025 690.79 228.61 423.06 533.48 876.66 408.28 1037.59 463.46 954.52 539.47 833.90 595.03 962.46 640.81
00004856 00000026 692.76 231.04 424.89 536.25 881.52 407.34 1040.86 464.18 958.80 540.95 835.93 595.62 964.90 642.89
00004857 00000027 692.75 229.72 425.77 537.74 882.87 404.92 1041.59 463.82 958.78 541.06 833.57 592.94 963.66 642.10
00004858 00000028 687.11 216.65 427.04 547.90 875.77 401.50 1038.07 460.33 953.79 537.01 828.19 589.10 964.11 639.35
00004859 00000029 691.07 214.16 429.52 550.50 876.48 401.52 1034.59 459.30 951.42 531.91 830.81 588.84 962.05 638.43
00004860 00000030 693.56 231.39 429.79 538.01 884.64 401.36 1043.99 459.11 960.36 538.64 836.12 591.76 963.80 639.68
00004861 00000031 696.72 235.89 430.15 536.43 888.22 406.91 1049.37 453.92 967.99 537.52 855.40 612.07 960.21 649.52
00004862 00000032 697.93 230.88 430.85 537.19 886.89 411.37 1052.83 456.27 970.75 536.32 859.75 619.96 967.81 655.22
00004863 00000033 691.93 215.65 436.86 564.26 896.26 404.19 1048.75 456.27 971.32 540.30 857.03 618.30 959.27 662.23
00004864 00000034 693.91 231.31 431.07 542.67 880.15 398.82 1045.06 445.25 962.30 531.14 850.00 623.48 947.82 660.90
00004865 00000035 693.09 226.16 424.47 541.69 870.93 386.90 1043.19 433.76 957.55 517.18 846.82 614.80 950.84 652.51
00004866 00000036 695.43 209.09 417.25 561.83 872.68 376.35 1040.11 421.75 960.84 499.68 852.20 603.66 952.75 640.77
00004867 00000037 685.39 177.62 420.24 583.26 875.97 370.63 1034.88 416.58 962.87 486.72 847.26 587.91 955.24 626.02
00004868 00000038 681.73 175.09 421.19 579.02 873.93 365.65 1034.77 410.55 961.36 484.85 847.64 585.56 952.88 622.64
00004869 00000039 681.51 174.20 420.04 579.18 868.06 368.20 1031.76 412.17 954.16 487.29 842.12 587.30 949.23 623.69
00004870 00000040 677.90 177.92 421.23 580.90 862.62 378.05 1028.15 422.76 949.17 491.93 834.64 590.12 949.25 627.38
00004871 00000041 680.21 186.27 419.62 582.14 868.03 384.59 1029.00 428.73 952.93 503.64 836.46 598.00 948.86 635.00
00004872 00000042 689.69 219.94 419.06 544.66 868.96 385.97 1035.24 429.64 956.46 515.24 848.85 607.64 947.86 642.54
00004873 00000043 694.01 226.87 423.16 540.01 876.15 394.04 1038.61 440.05 957.26 520.00 846.82 611.54 947.91 648.73
00004874 00000044 694.56 226.42 422.33 541.70 879.94 394.80 1039.06 444.47 958.91 519.21 841.93 599.43 951.79 640.53
00004875 00000045 686.88 205.33 430.49 556.35 874.84 389.52 1040.25 445.90 954.86 516.88 829.74 585.58 962.82 633.26
00004876 00000046 685.71 204.46 432.86 549.98 861.25 387.94 1038.76 446.70 941.66 510.43 818.94 579.99 963.38 629.39
00004877 00000047 686.37 205.22 432.10 547.16 860.38 388.87 1035.65 447.04 936.80 513.88 817.33 580.25 959.44 629.19
00004878 00000048 688.53 211.45 435.57 542.59 865.49 390.40 1036.24 448.75 938.48 523.02 818.08 579.84 958.66 629.38
00004879 00000049 691.64 215.36 430.85 538.68 872.82 391.97 1038.47 452.44 945.50 530.28 822.46 576.76 963.38 628.53
00004880 00000050 698.36 226.97 424.91 524.85 876.38 391.58 1041.82 452.34 950.73 533.26 830.24 578.30 967.11 628.69
00004881 00000051 698.49 227.75 425.33 524.16 876.38 391.70 1042.32 451.90 951.24 532.13 830.71 577.99 968.60 627.84
00004882 00000052 692.92 215.13 428.45 537.26 872.31 391.73 1039.50 451.64 946.85 530.41 823.29 575.04 967.91 626.60
00004883 00000053 690.71 216.60 429.44 534.21 870.74 391.32 1037.40 450.48 944.44 530.09 819.94 573.50 964.92 624.36
00004884 00000054 688.21 216.03 431.82 535.33 866.41 391.83 1035.25 450.42 940.04 530.91 815.50 573.87 962.09 624.42
00004885 00000055 688.22 214.72 431.29 538.02 866.45 391.89 1035.14 451.88 939.47 531.66 814.81 573.83 961.50 625.45
00004886 00000056 688.80 216.82 430.23 539.90 866.74 392.32 1036.14 452.37 940.50 532.05 816.00 576.76 962.37 628.36
00004887 00000057 689.34 215.75 430.35 547.25 868.07 393.71 1036.19 453.68 942.08 530.76 818.29 581.75 961.75 633.27
00004888 00000058 690.49 230.50 428.89 531.13 868.96 398.53 1033.64 453.51 943.06 532.09 826.91 589.08 954.08 634.39
00004889 00000059 686.47 214.45 432.90 548.23 864.85 399.65 1038.28 454.35 943.12 527.47 825.23 596.87 960.36 643.32
00004890 00000060 686.19 212.86 432.78 553.06 864.89 399.84 1037.83 452.64 943.96 527.41 828.24 600.13 960.88 645.02
00004891 00000061 685.63 210.46 432.70 558.90 868.96 400.42 1039.46 451.63 948.91 527.34 833.98 605.15 961.12 648.46
00004892 00000062 686.37 211.09 430.81 563.22 873.67 403.00 1036.48 451.42 951.69 528.72 838.04 608.40 957.16 649.45
00004893 00000063 693.24 231.67 433.11 534.68 874.05 399.96 1037.27 444.22 952.35 529.11 846.56 612.44 945.35 648.26
00004894 00000064 693.30 233.26 431.85 533.37 874.67 399.90 1037.00 441.91 952.74 529.86 846.94 613.63 943.93 647.45
00004895 00000065 689.05 230.40 431.69 536.34 869.02 398.80 1033.51 442.75 948.36 526.11 841.42 610.62 943.65 646.30
00004896 00000066 683.16 206.90 429.49 557.61 865.38 398.79 1030.02 445.35 941.70 522.47 827.88 601.36 946.77 641.21
00004897 00000067 684.58 201.69 428.09 553.62 869.40 396.49 1031.45 444.50 944.34 518.55 830.96 595.96 946.06 636.69
00004898 00000068 688.58 198.74 423.98 554.98 874.78 392.24 1035.72 441.36 951.58 511.83 835.67 589.15 952.98 630.60
00004899 00000069 693.04 193.60 418.19 544.34 879.51 387.48 1039.24 433.32 960.51 500.38 847.48 581.19 960.95 619.07
00004900 00000070 693.91 182.62 421.70 545.15 878.40 378.63 1040.73 420.77 964.03 481.67 853.38 572.16 971.20 606.56
00004901 00000071 697.70 182.34 420.22 531.94 880.13 369.05 1043.62 412.57 962.24 471.86 853.41 561.75 971.45 596.64
00004902 00000072 697.84 178.84 418.21 536.54 876.95 366.64 1042.94 411.58 960.61 466.67 848.52 559.51 971.86 595.97
00004903 00000073 694.79 178.42 418.39 543.63 871.74 366.96 1042.43 413.53 957.74 468.19 843.50 562.25 973.35 600.22
00004904 00000074 694.50 180.96 416.35 542.36 870.02 367.00 1037.86 415.30 949.65 474.06 835.65 561.70 964.44 601.45
00004905 00000075 691.38 187.49 419.04 541.37 868.13 370.79 1034.57 420.00 947.91 482.95 832.31 563.37 964.02 603.94
00004906 00000076 689.88 192.41 420.99 540.40 866.56 373.76 1034.95 424.64 946.22 488.90 828.14 566.27 963.25 608.48
00004907 00000077 689.06 194.54 422.64 540.19 866.30 377.06 1035.51 428.02 947.32 491.11 827.81 568.58 964.02 611.00
00004908 00000078 688.57 195.25 423.05 540.12 865.02 378.20 1035.44 430.11 946.37 492.48 826.61 568.95 963.76 612.18
00004909 00000079 685.91 199.31 426.85 538.48 862.11 379.44 1035.47 431.12 943.70 494.69 823.48 571.29 962.42 614.26
00004910 00000080 685.63 201.67 428.49 538.20 861.71 381.52 1035.92 433.72 942.93 497.68 822.50 572.93 961.50 616.31
00004911 00000081 687.15 201.85 429.63 541.07 865.22 383.42 1038.02 437.20 945.51 501.28 823.08 575.64 960.56 620.64
00004912 00000082 688.93 202.64 430.78 542.79 869.23 385.17 1040.41 439.34 948.93 504.08 828.00 578.64 962.53 623.90
00004913 00000083 688.67 202.88 432.53 545.16 871.42 387.54 1042.89 440.59 952.85 507.58 833.64 582.58 966.54 626.88
00004914 00000084 691.01 205.30 431.27 544.02 874.23 387.98 1043.48 441.15 955.12 510.22 836.02 582.93 968.57 627.53
00004915 00000085 690.36 205.48 432.28 545.54 875.39 387.90 1043.21 441.50 955.31 510.82 835.11 583.31 966.33 628.31
00004916 00000086 689.54 205.92 435.54 545.77 874.92 386.30 1043.58 442.06 952.49 512.35 830.63 582.24 962.83 629.07
00004917 00000087 693.68 218.92 432.85 532.18 874.41 384.13 1041.53 444.54 949.70 516.64 828.69 577.99 958.27 628.02
00004918 00000088 698.48 224.72 428.13 534.96 882.14 387.21 1045.61 449.57 955.34 524.79 829.93 581.74 961.59 633.83
00004919 00000089 699.15 231.69 428.78 535.11 890.75 392.21 1048.14 454.18 965.12 531.94 836.23 588.39 962.05 640.51
00004920 00000090 702.08 229.28 431.86 539.66 893.33 396.48 1051.72 456.52 966.90 530.78 845.15 591.89 969.55 642.85
00004921 00000091 702.61 230.68 433.23 538.59 893.14 398.42 1053.01 458.14 968.15 534.29 847.50 594.37 972.70 644.97
00004922 00000092 702.57 232.28 430.99 538.56 893.16 399.60 1049.98 460.13 965.85 535.54 845.94 596.00 969.10 647.28
00004923 00000093 702.68 234.81 429.47 531.68 892.51 398.62 1047.48 460.13 962.28 537.32 842.01 595.33 963.11 647.26
00004924 00000094 703.32 236.90 427.85 527.25 891.41 398.20 1047.78 461.08 962.15 536.36 839.59 592.58 964.70 645.63
00004925 00000095 703.46 234.12 427.34 527.76 891.86 396.95 1049.39 459.47 963.76 535.17 840.13 591.59 966.10 644.40
00004926 00000096 702.59 233.76 427.98 528.58 891.57 396.66 1049.16 459.50 963.87 534.57 839.41 591.33 965.83 644.40
00004927 00000097 701.31 235.10 428.26 527.34 889.59 397.57 1046.88 460.09 961.88 533.97 838.14 589.89 965.92 642.67
00004928 00000098 698.85 234.14 431.11 531.41 888.23 397.36 1045.66 459.34 961.02 535.07 836.49 591.22 964.20 643.57
00004929 00000099 699.64 237.55 429.89 527.70 888.01 398.11 1045.32 460.29 960.09 535.92 835.07 592.18 962.95 644.65
00004930 00000100 701.95 237.93 428.50 526.52 890.66 398.45 1046.35 459.41 961.45 536.20 840.52 594.22 963.89 645.59
00004931 00000101 702.12 234.13 429.45 528.18 893.72 400.76 1051.16 456.51 966.47 537.27 849.48 605.58 962.08 652.18
00004932 00000102 703.00 232.30 429.03 534.21 896.39 403.24 1052.16 457.18 968.69 539.59 855.85 612.03 963.17 656.92
00004933 00000103 703.19 234.02 429.51 535.67 895.47 405.32 1052.36 459.78 967.74 541.80 854.59 613.84 963.66 659.16
00004934 00000104 703.89 235.82 429.60 535.23 894.92 405.11 1053.00 460.58 967.47 543.26 853.38 613.07 965.51 659.38
00004935 00000105 702.70 239.19 432.64 535.84 891.52 405.77 1053.97 462.58 965.86 543.40 848.53 614.47 967.93 661.95
00004936 00000106 702.23 238.22 432.27 537.48 891.25 406.86 1053.66 464.41 965.76 544.75 847.90 614.99 967.72 663.18
00004937 00000107 701.01 242.69 430.78 526.60 887.59 411.01 1049.61 465.93 963.28 541.65 851.64 615.79 960.24 659.68
00004938 00000108 700.67 245.07 431.28 524.01 887.31 412.84 1048.70 464.40 962.88 541.68 852.03 618.04 958.47 658.99
00004939 00000109 699.87 245.26 432.55 523.12 886.40 412.93 1047.91 464.96 961.77 542.01 849.91 617.99 957.03 659.28
00004940 00000110 698.51 247.89 434.53 521.03 885.12 413.72 1047.21 465.28 960.02 542.21 848.28 617.91 956.95 658.76
00004941 00000111 697.66 246.93 434.80 523.89 884.89 414.61 1045.94 467.18 959.43 542.96 846.71 617.61 956.36 659.50
00004942 00000112 697.07 248.68 435.88 522.24 883.92 414.30 1045.54 466.72 958.13 543.23 844.78 617.71 955.69 659.54
00004943 00000113 696.97 248.56 435.12 521.28 882.38 414.06 1044.15 468.36 955.83 543.98 842.25 614.70 955.86 658.24
00004944 00000114 696.58 246.89 435.06 521.70 882.20 413.43 1043.13 469.57 954.70 543.82 840.53 612.07 954.85 657.42
00004945 00000115 696.47 247.50 434.59 520.51 881.18 413.37 1042.74 469.37 953.37 543.46 838.61 610.84 954.41 656.16
00004946 00000116 695.97 246.76 435.36 522.13 879.99 412.17 1041.43 467.96 951.41 544.03 836.54 610.52 951.81 655.70
00004947 00000117 695.48 246.85 435.36 522.58 880.52 411.57 1041.00 465.95 952.13 543.83 836.29 611.25 949.78 655.21
00004948 00000118 694.49 245.85 435.71 523.48 879.65 410.48 1040.59 464.87 951.09 543.52 835.43 611.03 948.96 655.07
00004949 00000119 694.46 242.48 435.90 526.11 878.56 408.61 1040.98 462.86 950.30 544.20 834.53 610.13 949.16 654.13
00004950 00000120 692.90 240.15 434.04 528.75 878.58 407.20 1039.19 462.10 950.80 542.43 833.05 607.36 948.35 652.36
00004951 00000121 692.69 239.19 432.37 525.74 876.71 405.43 1039.32 459.57 950.24 540.09 833.08 603.09 949.81 647.46
00004952 00000122 692.04 237.43 431.11 525.90 874.69 403.25 1037.49 456.55 948.47 537.57 832.45 600.41 948.90 644.11
00004953 00000123 691.49 237.65 429.31 523.75 873.15 401.48 1035.97 454.24 947.47 534.18 831.75 597.19 949.33 640.53
00004954 00000124 690.16 234.09 429.86 525.72 872.23 398.85 1035.77 451.28 947.85 533.84 831.43 595.33 950.56 638.33
00004955 00000125 689.19 232.27 430.41 525.27 871.81 396.76 1036.08 449.83 947.96 532.45 831.64 593.68 951.41 637.10
00004956 00000126 688.55 232.97 430.09 524.19 871.34 396.38 1035.34 448.46 947.76 531.47 832.55 594.15 951.03 636.66
00004957 00000127 688.89 232.12 430.38 524.90 871.27 396.14 1035.92 448.89 947.86 531.18 832.58 594.42 952.25 637.56
00004958 00000128 689.65 230.05 430.31 523.84 870.98 396.27 1036.97 449.43 948.22 530.63 832.69 593.85 954.86 637.29
00004959 00000129 689.86 232.74 429.82 519.98 871.47 396.62 1038.27 448.36 949.23 530.16 834.34 593.78 955.85 635.84
00004960 00000130 693.36 227.73 429.79 524.76 877.53 397.27 1042.54 451.24 955.91 530.48 838.23 592.93 960.16 637.14
00004961 00000131 697.27 220.71 433.77 538.82 893.26 395.75 1051.57 454.28 970.54 527.09 848.91 593.82 968.44 643.39
00004962 00000132 705.62 216.49 431.36 544.67 902.43 397.52 1059.28 453.54 980.64 525.91 859.40 592.72 980.08 640.01
00004963 00000133 715.73 224.31 427.24 538.38 919.30 402.46 1072.73 458.42 995.54 538.77 871.22 598.48 989.97 645.82
00004964 00000134 724.84 225.25 427.19 541.14 929.65 407.78 1085.24 459.40 1011.44 541.14 887.08 609.25 1002.71 653.43
00004965 00000135 730.24 225.75 429.41 547.54 936.68 413.89 1092.94 466.26 1020.34 546.20 895.39 616.44 1009.46 661.52
00004966 00000136 735.65 226.02 436.78 548.80 945.01 413.35 1095.27 469.38 1024.78 546.75 902.36 625.69 1002.21 672.94
00004967 00000137 737.01 229.20 438.00 548.15 945.06 414.81 1097.66 470.31 1024.42 552.80 902.53 631.49 1002.49 678.27
00004968 00000138 740.34 229.59 437.49 549.46 949.78 417.08 1100.17 474.92 1026.56 556.53 905.04 632.22 1005.71 680.83
00004969 00000139 744.15 232.49 434.65 546.45 951.56 419.97 1102.30 478.23 1027.98 559.41 906.14 633.35 1007.93 682.27
00004970 00000140 745.16 243.54 429.92 533.28 952.97 428.70 1100.93 479.81 1028.86 559.21 913.40 635.93 1005.92 677.04
00004971 00000141 742.43 243.90 428.20 538.40 952.23 428.90 1097.27 480.46 1027.46 560.33 908.21 632.55 1003.78 674.66
00004972 00000142 743.79 247.16 425.62 538.95 950.60 427.82 1094.45 477.99 1023.94 563.31 900.50 627.47 1000.66 669.21
00004973 00000143 739.25 249.52 427.14 535.00 943.28 428.75 1088.73 480.03 1015.90 560.41 894.80 622.39 999.74 664.91
00004974 00000144 736.10 249.32 425.10 531.47 938.49 428.78 1085.85 480.40 1011.84 558.82 892.67 619.88 1000.18 662.64
00004975 00000145 730.69 242.92 428.26 539.35 934.11 424.85 1084.63 475.02 1010.90 554.75 894.09 624.69 994.53 666.13
00004976 00000146 724.33 241.56 433.66 546.95 929.20 422.09 1082.49 471.90 1007.71 553.28 893.48 628.71 989.70 669.77
00004977 00000147 721.15 239.69 433.24 543.95 924.67 419.46 1078.08 471.35 1002.96 551.34 889.34 627.33 983.59 669.96
00004978 00000148 717.96 234.34 436.69 541.09 922.42 413.44 1080.44 466.30 999.33 552.90 877.99 620.85 990.62 665.66
00004979 00000149 723.22 242.62 428.75 536.99 921.29 418.42 1076.30 465.13 998.76 549.98 885.19 624.15 986.51 662.55
00004980 00000150 722.52 239.52 430.59 545.65 919.87 419.92 1076.61 466.12 998.45 553.04 884.94 628.73 986.67 666.97
00004981 00000151 721.18 241.42 431.98 547.43 918.59 421.65 1077.48 466.21 998.04 559.85 886.35 637.95 986.40 674.52
00004982 00000152 718.59 236.92 433.14 555.51 916.40 423.74 1074.31 468.25 996.28 561.03 883.08 637.52 985.54 674.22
00004983 00000153 715.22 238.67 435.19 552.51 912.69 423.72 1071.71 470.65 993.55 557.72 875.97 633.07 984.20 671.62
00004984 00000154 715.10 241.11 434.40 546.88 912.00 421.58 1069.15 466.99 990.44 556.63 874.72 630.95 981.20 668.19
00004985 00000155 716.68 242.50 433.18 544.66 911.96 421.48 1067.75 466.75 987.86 558.30 871.71 629.45 978.52 666.64
00004986 00000156 717.33 245.86 432.14 538.56 911.14 422.87 1067.24 468.10 984.87 559.03 868.14 626.73 977.43 663.82
00004987 00000157 715.64 245.52 432.66 538.23 909.15 424.01 1064.80 469.43 983.07 558.07 868.38 624.50 978.24 661.67
00004988 00000158 714.47 240.39 433.77 538.02 906.41 418.95 1066.75 471.82 981.83 560.09 861.36 620.03 982.15 665.07
00004989 00000159 713.93 240.65 434.28 537.58 903.73 419.25 1065.38 472.98 980.06 559.90 860.07 618.53 983.33 664.28
00004990 00000160 713.80 241.78 434.59 539.43 901.90 418.35 1063.83 472.74 976.59 560.16 857.39 617.30 982.00 663.75
00004991 00000161 713.00 240.89 433.52 543.88 901.07 418.12 1061.77 474.25 973.93 560.44 854.07 617.23 979.08 665.14
00004992 00000162 717.71 248.84 430.12 537.68 900.57 424.33 1058.55 472.96 971.35 562.16 856.50 617.61 975.37 658.06
00004993 00000163 717.95 247.29 430.47 540.15 900.70 424.97 1058.82 473.67 971.14 564.48 855.06 619.27 974.08 659.89
00004994 00000164 719.04 246.83 430.20 540.89 901.09 425.56 1059.45 473.89 971.05 565.63 854.70 620.09 973.54 660.44
00004995 00000165 718.36 248.94 429.94 537.82 900.73 426.13 1060.16 474.42 970.80 566.95 854.57 619.83 974.18 660.06
00004996 00000166 715.86 245.69 432.74 540.33 900.23 419.00 1062.40 475.82 970.55 565.56 850.19 616.50 977.85 665.29
00004997 00000167 714.83 250.46 432.63 534.75 899.35 420.48 1062.55 478.10 969.83 566.21 848.73 617.46 977.19 666.86
00004998 00000168 715.60 248.28 430.29 536.35 898.15 422.20 1062.22 479.65 968.99 567.04 847.94 618.61 976.36 667.92
