Video ID: 	jYndfVSihr0
H: 	1080
W: 	1920
FPS: 	25.0

FRAME INDEX X0 Y0 W H [Landmarks (5 Points)]

00082076 00000000 1001.17 307.88 368.81 537.30 1152.17 534.13 1306.09 528.82 1259.58 636.36 1155.24 694.91 1302.23 692.79
00082077 00000001 1004.44 299.57 364.30 535.40 1156.73 531.09 1307.92 522.36 1269.57 627.75 1163.78 691.93 1306.69 687.54
00082078 00000002 1003.19 284.18 365.68 544.59 1159.03 524.35 1308.12 513.45 1274.62 619.57 1171.12 690.26 1308.38 683.80
00082079 DELETE   1003.00 282.86 359.93 534.90 1154.61 528.01 1308.15 517.39 1270.58 613.81 1172.02 686.40 1304.70 677.28
00082080 00000004 1000.83 273.86 360.76 539.80 1154.65 520.64 1307.79 510.13 1271.82 605.62 1172.23 680.15 1304.65 671.43
00082081 DELETE   997.60 272.03 362.82 536.86 1155.36 512.88 1306.69 502.29 1273.29 598.59 1174.07 675.15 1303.26 666.71
00082082 00000006 998.47 263.87 361.18 537.36 1156.50 503.57 1306.72 493.30 1273.60 587.62 1178.66 669.15 1303.67 661.19
00082083 00000007 1002.56 255.15 357.67 539.70 1159.09 490.11 1306.56 478.51 1275.38 578.49 1181.24 660.84 1303.88 652.06
00082084 00000008 1002.27 244.21 359.22 545.33 1160.78 478.11 1309.65 468.76 1279.81 565.67 1185.71 652.79 1306.84 645.16
00082085 00000009 1001.21 238.66 360.85 546.81 1160.42 471.34 1307.17 462.46 1279.60 554.91 1185.58 644.65 1307.94 637.20
00082086 00000010 1001.86 234.72 357.96 541.61 1158.85 461.56 1302.57 451.65 1276.80 546.50 1186.44 638.77 1303.74 630.59
00082087 00000011 998.25 226.85 357.86 542.61 1155.82 455.83 1294.83 444.69 1271.59 537.55 1188.74 634.96 1299.18 626.00
00082088 00000012 995.31 229.14 359.63 533.40 1153.18 448.99 1290.46 438.12 1267.20 530.75 1187.95 629.67 1295.21 621.17
00082089 00000013 989.79 227.53 365.19 532.65 1146.10 443.72 1289.59 433.32 1262.90 527.76 1180.22 626.05 1293.55 618.13
00082090 00000014 983.86 207.30 366.45 547.59 1136.30 445.03 1291.55 435.81 1258.23 528.09 1172.75 621.05 1300.29 612.62
00082091 00000015 979.83 210.44 369.80 541.01 1128.90 436.12 1288.85 425.95 1253.51 522.08 1164.51 614.12 1299.42 605.21
00082092 00000016 978.46 211.35 367.96 537.60 1121.47 434.12 1283.79 423.74 1244.41 517.84 1157.68 610.03 1297.37 601.10
00082093 00000017 976.08 210.46 367.49 537.65 1114.20 433.02 1277.49 420.97 1236.19 515.92 1153.19 609.75 1294.73 599.58
00082094 00000018 976.28 218.01 362.17 526.83 1107.82 436.40 1271.95 415.06 1234.79 507.07 1140.29 618.05 1282.58 600.84
00082095 00000019 968.09 219.62 363.56 533.69 1088.70 439.21 1255.52 421.76 1212.09 516.53 1123.24 620.53 1268.52 606.26
00082096 DELETE   950.89 226.07 367.88 546.27 1073.38 450.34 1229.93 431.46 1188.79 528.48 1110.27 631.93 1243.72 616.04
00082097 00000021 934.15 235.12 372.76 553.08 1049.68 463.15 1213.17 445.91 1159.01 555.29 1083.25 645.05 1227.94 630.03
00082098 DELETE   919.14 253.19 372.80 539.02 1028.81 477.39 1196.66 464.76 1134.16 575.38 1063.18 653.23 1215.37 642.26
00082099 DELETE   906.15 262.65 377.11 536.23 1011.18 488.81 1177.92 476.13 1109.40 599.35 1045.77 663.50 1199.59 652.43
00082100 DELETE   898.30 285.18 372.86 526.74 994.44 507.62 1153.42 486.12 1087.83 614.19 1027.33 676.35 1173.15 660.14
00082101 00000025 895.69 294.97 369.58 519.30 987.59 512.07 1148.65 497.21 1076.52 619.87 1023.35 685.22 1161.50 673.61
00082102 00000026 890.57 292.02 370.09 522.60 971.78 513.88 1137.00 495.15 1063.51 621.36 1014.68 696.06 1151.75 679.79
00082103 00000027 885.80 293.83 373.95 521.39 967.58 509.75 1133.40 490.98 1057.41 615.69 1009.39 692.88 1146.75 676.48
00082104 00000028 882.40 288.67 376.42 521.87 974.30 502.86 1137.89 488.77 1061.70 609.65 1011.88 682.96 1147.80 671.85
00082105 00000029 881.48 284.14 380.04 523.15 975.37 497.95 1140.70 480.37 1066.77 601.09 1011.72 674.77 1155.18 660.75
00082106 00000030 885.51 265.10 379.56 536.10 977.00 490.09 1145.64 472.73 1067.76 591.79 1007.20 662.68 1164.94 649.29
00082107 00000031 889.22 258.76 381.72 545.05 986.20 477.55 1153.82 463.56 1079.52 573.64 1013.62 652.78 1173.20 641.99
00082108 00000032 889.58 243.17 381.99 558.07 987.92 465.86 1152.41 450.75 1081.04 559.82 1014.21 643.17 1175.43 630.85
00082109 00000033 897.05 227.10 373.91 556.81 989.80 454.55 1154.11 435.49 1086.80 537.91 1023.06 632.93 1178.84 617.09
00082110 DELETE   904.50 220.57 365.95 543.35 991.35 442.28 1161.55 420.64 1089.85 519.35 1027.34 622.32 1183.51 603.94
00082111 00000035 907.49 213.38 367.63 534.51 1000.41 428.28 1172.82 414.09 1093.84 509.16 1028.87 604.00 1186.75 593.02
00082112 DELETE   909.27 210.53 369.98 528.24 1003.18 420.59 1174.00 405.25 1094.37 488.38 1030.74 591.76 1188.68 579.47
00082113 00000037 909.27 203.30 370.26 521.44 1002.71 415.32 1174.01 398.43 1094.95 480.39 1029.35 580.56 1190.15 567.44
00082114 00000038 909.81 198.54 370.51 521.88 1003.25 413.40 1174.54 395.63 1095.86 478.06 1029.70 577.06 1191.33 563.36
00082115 00000039 910.23 201.08 368.82 523.89 1004.17 414.42 1176.00 398.69 1097.64 480.23 1030.79 580.16 1192.02 568.00
00082116 00000040 913.07 213.82 365.18 525.70 1007.90 422.79 1178.75 406.74 1102.60 493.10 1036.40 593.08 1195.69 580.19
00082117 00000041 912.78 214.11 365.17 535.58 1008.99 429.35 1180.07 412.75 1106.21 506.07 1038.28 604.47 1196.79 591.05
00082118 00000042 914.51 216.16 363.88 535.30 1011.42 430.66 1182.15 413.53 1110.20 508.41 1041.17 606.45 1199.12 592.46
00082119 00000043 913.92 213.62 365.35 534.93 1014.61 429.34 1184.92 414.66 1115.14 506.15 1044.08 604.32 1199.80 592.25
00082120 00000044 909.64 204.11 371.99 537.86 1016.05 422.86 1186.95 414.34 1116.93 505.59 1051.25 596.96 1204.41 589.75
00082121 00000045 912.08 203.08 370.70 532.26 1016.98 421.40 1189.61 412.88 1119.37 502.45 1052.57 593.70 1206.69 586.46
00082122 00000046 911.47 203.01 368.05 523.85 1017.33 420.67 1191.95 411.48 1122.75 499.80 1052.36 590.09 1208.88 582.34
00082123 00000047 912.83 210.17 363.76 513.40 1016.66 424.07 1188.09 409.59 1120.29 497.04 1045.53 586.65 1203.76 575.42
00082124 00000048 912.20 211.48 364.47 508.37 1014.88 421.23 1187.16 404.52 1118.30 493.06 1044.99 584.20 1203.96 571.21
00082125 00000049 912.86 208.34 364.84 511.91 1015.47 418.64 1187.50 402.16 1118.30 488.98 1045.80 582.89 1204.36 570.06
00082126 00000050 913.26 198.83 366.59 525.12 1020.04 409.29 1191.03 400.67 1123.64 486.75 1054.48 580.63 1208.63 573.62
00082127 00000051 915.82 193.38 366.86 539.16 1024.53 408.60 1192.28 401.01 1127.79 487.29 1058.34 582.45 1211.89 575.81
00082128 00000052 919.88 196.11 365.47 533.36 1031.17 411.61 1194.74 401.93 1134.71 488.32 1068.40 583.60 1214.28 575.46
00082129 00000053 925.11 197.36 364.40 529.29 1038.72 415.74 1202.21 401.35 1144.14 489.05 1074.62 583.63 1221.34 571.75
00082130 00000054 930.91 199.00 363.09 525.01 1047.70 415.21 1207.05 398.84 1155.01 490.54 1086.39 584.92 1226.22 571.57
00082131 00000055 940.60 193.18 365.25 528.38 1054.86 415.30 1216.49 398.20 1163.48 488.86 1093.48 586.51 1234.62 572.41
00082132 00000056 950.74 190.42 364.41 531.41 1065.45 415.29 1227.50 398.39 1174.70 486.15 1097.72 584.90 1243.26 571.02
00082133 00000057 956.57 193.39 363.99 526.83 1073.99 414.82 1237.23 400.03 1183.21 484.13 1103.16 583.26 1249.11 571.17
00082134 00000058 958.03 189.92 364.16 531.41 1078.16 415.07 1241.56 402.29 1188.60 484.95 1104.84 582.45 1252.40 572.04
00082135 00000059 957.47 190.82 363.61 530.47 1076.93 414.13 1239.89 401.71 1187.52 485.27 1103.85 582.66 1250.72 572.70
00082136 00000060 952.85 190.22 363.80 533.07 1070.49 414.06 1233.31 401.88 1179.13 485.47 1099.72 586.57 1242.74 576.97
00082137 00000061 946.50 193.60 364.40 532.19 1063.50 412.70 1226.91 400.95 1172.92 487.90 1093.35 585.54 1238.35 576.25
00082138 00000062 938.65 192.38 363.68 531.45 1055.45 413.01 1218.95 402.02 1164.48 489.45 1088.76 585.74 1232.06 576.69
00082139 DELETE   929.98 193.89 365.05 533.13 1049.47 413.68 1211.31 402.16 1157.98 490.36 1084.01 584.41 1227.17 574.67
00082140 00000064 924.78 197.29 365.48 530.57 1045.51 413.01 1207.20 401.06 1154.11 490.08 1079.22 583.30 1222.56 573.54
00082141 00000065 920.69 198.25 365.80 527.16 1041.94 411.60 1205.30 400.34 1151.49 488.92 1077.77 583.89 1220.01 574.80
00082142 00000066 922.08 198.14 364.59 525.49 1040.84 412.80 1205.47 400.71 1150.07 489.23 1077.78 585.52 1219.87 575.95
00082143 00000067 923.62 200.25 363.41 520.81 1041.58 414.13 1207.43 400.51 1152.50 489.70 1078.04 585.47 1222.15 574.79
00082144 00000068 927.06 199.53 363.74 521.74 1045.77 412.60 1208.49 398.78 1156.41 489.40 1083.21 584.80 1224.67 573.79
00082145 00000069 933.17 194.47 362.54 524.80 1052.32 412.52 1210.61 397.06 1160.75 489.34 1094.15 587.08 1226.56 574.64
00082146 00000070 942.70 193.33 359.12 523.42 1060.40 411.55 1217.41 395.32 1168.67 486.44 1100.34 586.94 1230.15 574.15
00082147 00000071 947.92 190.44 362.79 526.24 1066.07 409.02 1225.23 391.93 1176.27 482.01 1105.93 586.51 1238.70 572.74
00082148 00000072 953.20 188.71 363.01 522.49 1070.64 406.64 1232.45 389.80 1182.30 476.28 1109.25 582.10 1245.86 568.31
00082149 00000073 955.98 181.84 364.13 528.37 1073.88 403.52 1237.81 386.14 1187.44 472.86 1111.20 579.52 1251.55 565.11
00082150 00000074 958.12 180.35 363.23 527.82 1075.77 401.53 1239.44 383.84 1190.33 468.81 1112.09 576.40 1254.59 561.85
00082151 00000075 957.11 178.68 362.78 531.21 1075.02 399.94 1237.44 382.79 1189.30 468.54 1110.99 576.73 1251.84 562.78
00082152 00000076 955.50 173.80 362.22 537.35 1073.16 397.90 1235.23 381.67 1188.16 467.34 1109.05 576.07 1249.52 562.85
00082153 00000077 952.44 172.94 364.09 535.74 1070.32 395.52 1231.52 378.07 1184.55 464.12 1109.35 574.89 1246.52 560.25
00082154 00000078 948.52 173.86 363.87 534.34 1064.52 394.68 1225.69 376.74 1177.73 463.37 1105.23 572.36 1243.70 556.96
00082155 00000079 942.90 171.23 362.89 533.01 1059.83 393.77 1218.88 377.24 1172.23 463.44 1100.94 570.78 1236.19 556.90
00082156 00000080 938.49 173.54 361.61 528.95 1055.22 393.22 1214.03 376.98 1167.36 461.62 1096.02 569.42 1231.03 556.11
00082157 00000081 936.33 176.77 361.60 523.82 1053.00 391.47 1211.00 376.44 1162.28 460.19 1090.17 565.49 1226.43 553.53
00082158 00000082 934.45 178.71 362.82 521.91 1051.19 391.90 1210.12 377.11 1160.39 460.78 1085.99 563.94 1226.25 552.33
00082159 00000083 935.45 177.50 363.25 522.66 1051.77 390.98 1210.26 375.60 1160.61 458.66 1086.37 562.05 1226.98 549.83
00082160 00000084 937.46 176.17 363.33 524.42 1054.51 389.84 1212.76 374.06 1164.71 457.89 1090.30 562.78 1229.40 550.17
00082161 00000085 939.80 176.55 364.59 527.69 1056.83 390.73 1216.56 376.23 1167.77 459.34 1092.74 565.01 1233.17 553.21
00082162 00000086 944.27 172.87 366.11 530.79 1058.93 393.70 1221.34 377.57 1171.43 461.00 1093.23 565.74 1239.83 552.33
00082163 00000087 948.26 173.30 365.30 529.55 1062.17 393.84 1227.14 379.31 1176.11 459.94 1094.66 565.60 1244.46 553.49
00082164 00000088 951.58 174.30 366.55 529.67 1067.09 393.56 1231.10 379.67 1180.80 458.14 1099.37 564.77 1247.73 553.16
00082165 00000089 953.76 174.39 367.51 535.75 1070.90 395.60 1233.91 381.13 1185.96 459.75 1101.54 566.86 1250.39 554.89
00082166 00000090 956.67 173.81 367.46 538.64 1074.69 395.38 1236.99 381.53 1189.36 461.81 1104.80 568.37 1252.28 557.08
00082167 00000091 958.66 174.88 368.12 537.55 1076.39 398.16 1240.12 382.26 1192.08 464.99 1108.35 570.14 1257.45 556.95
00082168 00000092 959.73 176.76 366.95 533.89 1077.30 398.97 1241.36 383.92 1192.34 465.25 1109.15 570.18 1257.65 557.65
00082169 00000093 959.52 176.64 366.50 532.53 1076.65 400.34 1241.25 385.03 1191.76 466.63 1108.39 570.23 1257.34 557.51
00082170 00000094 957.96 179.14 365.97 530.06 1074.34 403.50 1239.19 386.16 1188.78 468.66 1107.07 572.36 1256.25 557.94
00082171 00000095 955.46 180.41 365.01 528.33 1071.58 402.65 1235.53 386.35 1184.63 469.18 1104.59 571.91 1252.20 558.41
00082172 00000096 951.69 182.98 367.13 528.56 1068.26 401.47 1232.94 386.89 1180.35 471.53 1102.33 574.91 1246.84 562.81
00082173 00000097 947.90 187.15 368.04 528.16 1064.43 402.81 1230.04 390.92 1175.48 472.70 1094.98 575.33 1242.57 565.59
00082174 00000098 944.41 187.31 367.94 526.94 1059.11 401.23 1225.37 390.39 1168.29 471.46 1090.66 573.21 1239.36 564.03
00082175 00000099 940.88 183.78 368.81 530.11 1054.71 401.15 1221.58 389.42 1164.17 471.35 1086.94 572.18 1238.29 562.03
00082176 00000100 938.27 185.27 368.92 531.21 1053.07 400.18 1220.53 388.46 1162.87 472.02 1084.14 572.12 1236.83 562.08
00082177 00000101 936.58 184.61 368.13 537.55 1052.96 400.25 1219.74 389.79 1162.82 474.23 1081.70 573.18 1234.55 564.33
00082178 00000102 937.07 184.42 369.32 539.61 1053.43 402.10 1221.97 391.76 1164.98 475.03 1081.62 574.96 1237.05 566.11
00082179 00000103 939.05 186.70 369.43 534.88 1054.76 402.71 1222.92 392.52 1165.12 474.72 1083.06 574.87 1236.76 566.23
00082180 00000104 939.68 186.58 369.65 532.98 1055.58 402.92 1224.14 393.66 1165.33 474.50 1083.85 574.41 1237.06 566.49
00082181 00000105 940.69 187.36 369.61 529.66 1055.59 403.63 1225.32 393.89 1165.62 474.36 1083.57 573.95 1238.20 565.61
00082182 00000106 942.23 187.41 369.48 527.40 1056.47 402.43 1225.82 392.82 1166.35 472.22 1084.41 571.72 1239.82 563.50
00082183 00000107 944.10 189.89 369.37 524.78 1058.08 401.96 1227.62 393.32 1167.56 471.94 1084.58 570.82 1241.11 563.47
00082184 00000108 945.31 191.59 369.37 526.19 1059.87 404.21 1228.69 395.55 1169.04 473.67 1086.49 573.20 1241.17 565.93
00082185 00000109 946.51 192.78 367.73 527.96 1060.58 405.75 1229.19 397.01 1169.74 476.19 1086.59 576.04 1240.51 568.97
00082186 00000110 945.88 193.58 366.94 530.49 1059.16 406.96 1228.47 398.72 1168.02 479.41 1084.94 578.52 1239.17 571.96
00082187 00000111 942.96 192.58 367.05 534.75 1055.78 407.51 1223.78 399.86 1163.01 481.19 1080.28 578.45 1234.99 572.41
CROP_BBOX: 615 0 1614 1027
