Video ID: 	WSGW-7gHS6A
H: 	1080
W: 	1920
FPS: 	25.0

FRAME INDEX X0 Y0 W H [Landmarks (5 Points)]

00002552 00000000 635.57 170.79 359.01 535.45 789.23 376.72 932.49 412.46 872.17 493.22 764.75 559.85 886.52 590.67
00002553 DELETE   635.11 170.19 359.82 536.06 789.93 375.37 932.99 411.67 872.61 492.24 765.11 558.64 886.84 589.88
00002554 00000002 633.81 169.21 361.51 540.35 789.88 374.46 932.92 411.41 872.70 492.94 764.17 559.59 886.08 591.35
00002555 00000003 630.50 170.06 363.70 542.31 788.90 372.71 931.77 411.52 870.93 493.51 760.84 559.03 883.78 592.48
00002556 00000004 629.79 168.89 362.42 541.97 788.41 371.23 930.22 411.08 870.54 491.72 760.02 556.52 883.30 590.89
00002557 00000005 628.92 167.06 361.69 540.14 788.67 369.45 930.39 408.22 871.55 489.63 762.14 555.66 883.34 589.05
00002558 00000006 628.14 166.04 360.26 539.69 786.65 368.59 928.22 406.76 871.52 486.89 762.27 554.13 884.32 586.93
00002559 00000007 626.80 164.93 359.54 541.06 784.56 367.15 925.91 403.98 869.90 484.63 762.43 553.64 883.71 585.36
00002560 00000008 626.92 160.53 357.62 544.31 784.27 362.69 923.23 399.99 869.74 481.12 763.75 551.03 881.94 583.25
00002561 00000009 625.68 160.17 356.35 543.28 781.22 359.46 920.86 395.28 868.30 476.63 762.70 549.31 881.07 580.40
00002562 00000010 625.47 157.43 355.57 545.50 779.88 354.64 919.77 390.74 867.95 471.84 763.41 547.24 880.15 578.52
00002563 00000011 626.79 154.67 356.08 554.50 781.40 350.81 919.89 387.91 869.29 470.71 765.47 548.52 878.73 580.31
00002564 00000012 630.11 152.82 355.79 564.31 786.59 347.30 924.27 386.13 873.70 470.31 770.15 552.73 879.39 585.39
00002565 00000013 637.21 150.43 354.50 566.35 792.30 347.41 927.00 384.49 878.54 466.34 776.72 554.16 881.63 585.38
00002566 DELETE   639.71 150.36 358.20 543.47 793.20 341.93 930.42 371.63 878.74 450.45 788.31 539.13 885.17 564.65
00002567 DELETE   639.78 129.74 353.95 537.98 797.90 342.97 933.46 374.99 889.39 441.56 798.02 528.31 901.11 555.34
00002568 DELETE   643.18 131.30 350.01 521.16 801.62 336.22 939.04 370.47 893.75 429.31 803.71 517.20 907.60 545.97
00002569 00000017 647.65 135.92 348.59 505.29 801.45 330.34 946.00 366.49 894.70 416.91 799.50 505.33 911.36 536.00
00002570 DELETE   648.40 136.07 348.25 503.41 803.83 327.98 948.41 366.99 896.61 415.60 798.74 502.16 912.89 535.36
00002571 00000019 649.57 136.64 349.14 505.21 807.20 329.58 950.72 370.47 899.96 421.05 799.69 504.89 912.51 539.73
00002572 00000020 649.99 138.99 350.22 507.39 806.18 335.14 951.05 373.66 902.27 432.04 802.74 513.11 914.42 546.06
00002573 00000021 649.25 138.44 350.18 513.03 797.81 342.50 948.17 374.52 897.46 438.99 800.36 521.23 916.52 549.18
00002574 00000022 646.07 138.92 353.93 520.09 797.48 343.74 946.37 377.35 894.58 444.86 795.76 525.56 910.94 554.67
00002575 00000023 645.86 141.24 356.84 523.55 801.85 343.68 946.32 377.74 895.62 449.28 798.08 529.70 907.27 558.99
00002576 00000024 650.37 144.26 357.76 528.33 805.94 340.18 948.88 374.56 900.62 446.99 800.82 530.90 911.92 560.78
00002577 00000025 658.23 143.39 355.69 535.92 810.69 338.83 953.01 372.21 907.51 442.01 806.18 529.81 921.42 558.94
00002578 00000026 667.47 144.60 354.90 531.67 817.14 335.72 964.21 372.45 914.60 438.96 810.53 523.28 931.19 555.33
00002579 DELETE   673.60 138.68 358.80 531.36 820.69 334.86 974.50 373.22 920.50 436.99 816.85 520.51 943.02 553.82
00002580 00000028 678.62 138.27 360.89 529.10 824.88 334.90 982.86 372.22 925.19 440.14 820.07 522.23 949.43 554.53
00002581 00000029 683.36 141.32 359.46 529.56 830.57 336.11 985.86 372.46 929.40 440.58 823.54 524.05 951.97 555.72
00002582 00000030 687.57 144.26 358.10 529.46 834.46 338.19 985.73 374.96 930.32 444.57 821.79 523.84 951.38 555.99
00002583 00000031 683.43 139.55 359.68 535.96 838.18 331.65 984.64 374.04 929.50 446.97 816.26 521.58 940.76 558.61
00002584 00000032 686.84 145.37 360.55 531.22 833.94 342.25 988.22 380.77 930.11 449.60 824.32 527.36 955.65 560.14
00002585 00000033 681.47 140.35 362.65 533.26 836.99 337.29 984.63 377.91 927.56 452.52 821.71 526.04 942.23 561.40
00002586 00000034 680.27 142.81 364.62 534.28 836.67 340.88 984.36 381.92 926.82 455.51 823.01 529.92 943.18 565.44
00002587 00000035 682.62 147.10 364.72 530.05 839.08 345.10 983.98 384.37 928.02 457.76 828.24 533.45 943.37 567.41
00002588 00000036 685.14 148.76 363.40 531.64 844.37 347.57 985.64 390.23 928.22 462.01 828.49 532.70 942.58 569.34
00002589 00000037 685.57 149.50 364.22 529.70 844.54 347.77 985.12 390.70 926.91 461.81 829.00 532.72 942.09 569.55
00002590 00000038 684.35 150.94 365.35 527.18 842.91 348.00 983.34 390.61 923.60 462.61 827.21 532.75 939.18 569.21
00002591 00000039 682.00 151.67 366.59 533.92 842.80 348.76 980.67 392.97 920.42 464.22 821.08 534.82 932.54 572.76
00002592 00000040 681.29 156.78 366.43 536.86 837.83 349.55 980.53 389.33 921.23 461.55 813.07 538.45 926.89 572.13
00002593 00000041 685.24 155.45 363.65 527.91 836.41 351.24 986.55 400.07 924.16 461.60 816.26 532.80 944.29 573.93
00002594 00000042 681.74 154.20 364.61 524.23 831.66 347.83 983.00 396.03 919.80 460.18 816.13 529.80 942.25 570.41
00002595 00000043 675.54 151.78 368.16 523.11 828.08 345.34 980.88 394.14 919.12 458.17 815.05 528.07 939.33 569.29
00002596 00000044 673.33 153.64 368.03 521.87 827.77 342.31 980.80 392.20 919.09 455.91 812.40 526.57 937.28 568.94
00002597 00000045 670.93 154.16 366.30 520.80 828.44 340.65 975.72 389.43 916.55 453.32 813.13 525.83 930.63 567.30
00002598 00000046 669.35 154.41 364.76 521.38 826.47 340.07 971.00 389.86 913.96 452.85 809.88 525.11 924.77 567.67
00002599 00000047 665.49 152.79 365.29 523.78 823.45 338.11 966.05 387.19 910.57 449.83 806.84 522.43 921.43 564.50
00002600 00000048 662.61 150.24 365.40 523.86 822.02 337.15 965.76 385.94 910.89 447.94 805.80 519.95 921.68 561.68
00002601 00000049 661.15 147.18 364.73 527.05 820.10 337.52 963.39 384.91 908.97 446.44 804.95 520.70 920.20 561.29
00002602 00000050 660.68 146.01 363.91 527.62 818.96 336.64 962.23 382.73 908.29 445.61 803.71 521.52 918.74 561.14
00002603 00000051 659.66 146.83 363.03 528.07 816.96 337.09 960.00 382.61 906.68 445.21 802.57 522.77 917.33 561.91
00002604 00000052 658.69 148.29 362.32 526.96 815.51 336.83 958.36 381.92 905.83 445.33 800.64 523.59 914.19 562.57
00002605 00000053 657.98 148.05 362.02 526.57 814.52 336.28 956.63 380.71 903.73 445.11 799.59 523.42 912.48 562.00
00002606 00000054 656.53 148.50 361.50 525.40 813.32 336.27 955.38 379.81 902.33 444.58 798.63 523.24 911.54 560.96
00002607 00000055 654.56 143.68 363.18 528.43 815.36 343.52 953.41 384.79 902.46 447.18 800.15 524.88 909.95 560.68
00002608 DELETE   657.49 144.27 361.78 528.29 818.09 343.68 955.69 387.17 903.88 445.41 798.98 521.32 911.24 559.35
00002609 00000057 655.98 141.07 361.75 529.53 812.31 342.33 952.55 383.15 899.65 446.24 796.76 522.91 910.07 558.81
00002610 00000058 654.88 143.60 361.48 526.23 807.61 338.42 951.05 377.68 897.32 443.34 794.96 522.43 910.06 556.87
00002611 00000059 654.56 142.91 361.86 527.39 807.40 335.85 951.77 375.98 897.66 442.20 794.30 521.75 909.98 556.88
00002612 00000060 654.25 143.77 362.35 526.82 807.04 335.06 951.46 375.56 896.76 441.68 793.61 521.44 909.21 556.85
00002613 00000061 654.29 143.79 362.48 527.55 807.18 335.00 951.24 375.69 896.43 441.67 793.34 521.44 908.69 556.99
00002614 00000062 654.11 144.21 362.59 528.84 809.00 336.03 951.63 378.45 897.12 442.44 793.10 521.37 908.03 558.36
00002615 00000063 654.75 144.25 362.23 532.34 810.63 336.14 951.50 378.20 898.87 443.53 794.30 523.39 907.77 560.19
00002616 00000064 655.81 147.20 359.74 536.03 811.98 337.18 950.72 378.99 899.76 444.85 794.13 527.24 905.80 563.82
00002617 00000065 659.49 154.53 362.52 531.20 811.12 334.98 951.54 372.12 894.77 445.49 788.63 530.49 900.32 563.27
00002618 00000066 659.32 153.23 361.96 535.56 812.67 335.70 951.68 373.32 896.66 445.86 790.33 532.88 900.23 565.98
00002619 00000067 655.31 146.29 362.66 539.45 815.68 342.04 952.42 386.10 902.15 451.51 798.47 531.41 906.62 569.40
00002620 00000068 657.43 149.45 363.12 533.11 815.33 348.58 962.26 397.53 907.51 458.19 800.52 531.85 920.32 573.60
00002621 DELETE   663.60 153.83 366.11 536.13 817.93 353.95 961.39 396.68 906.18 469.70 803.30 542.74 918.98 578.90
00002622 00000070 666.28 160.89 367.46 538.24 823.90 367.37 964.27 411.97 910.86 485.84 805.80 548.95 922.48 587.20
00002623 00000071 668.49 172.00 368.61 527.19 827.79 374.13 970.11 419.21 915.57 489.50 808.21 550.78 926.31 589.79
00002624 DELETE   672.46 170.91 364.77 522.92 826.90 374.53 975.84 419.89 920.27 490.41 810.65 550.71 932.91 590.14
00002625 DELETE   677.09 168.02 360.59 524.09 827.44 373.46 978.93 419.22 922.86 489.40 811.30 548.45 938.17 588.47
00002626 00000074 681.72 166.98 359.05 529.34 836.98 372.01 981.55 418.79 928.84 484.95 817.58 548.92 938.63 589.71
00002627 00000075 686.44 172.33 356.94 524.77 844.87 370.48 988.06 419.91 934.67 482.45 817.80 544.83 942.57 588.61
00002628 00000076 685.62 175.04 358.51 525.18 849.95 371.94 989.28 417.99 938.52 488.07 824.64 549.59 945.00 590.36
00002629 00000077 684.47 175.08 358.54 522.93 845.30 373.70 987.15 416.01 934.78 488.91 827.25 553.40 945.92 590.61
00002630 00000078 679.22 172.45 361.94 525.21 837.36 373.48 981.26 416.60 926.25 488.10 820.94 552.62 939.01 589.94
00002631 00000079 665.33 168.69 370.51 533.92 831.28 373.19 970.75 416.57 919.74 488.65 814.08 553.56 928.57 590.70
00002632 00000080 661.15 166.51 369.01 536.84 824.52 370.12 960.69 415.97 908.90 485.78 803.70 550.43 917.29 589.76
00002633 00000081 660.13 166.95 366.95 535.61 823.02 366.88 959.63 413.25 907.92 482.97 799.42 548.02 916.18 588.02
00002634 00000082 662.83 164.45 367.80 537.75 825.79 369.36 965.92 413.75 916.11 483.48 804.53 548.49 925.84 586.94
00002635 DELETE   672.91 170.26 363.26 532.85 838.28 372.99 979.10 419.41 931.80 485.34 814.19 548.28 938.49 589.22
00002636 DELETE   680.84 171.76 361.96 534.68 858.07 376.97 996.22 420.66 957.15 489.78 829.95 552.73 953.31 591.90
00002637 DELETE   680.23 170.88 360.00 534.57 868.75 376.45 998.20 413.51 962.37 486.61 842.93 558.30 952.04 590.00
00002638 00000086 685.76 175.69 360.41 531.62 876.21 380.71 1004.06 417.40 966.70 494.17 849.81 563.36 954.33 594.70
00002639 00000087 686.05 176.63 361.00 530.55 876.36 382.25 1004.10 419.77 964.72 495.74 848.84 564.76 952.46 596.80
00002640 DELETE   683.84 175.85 360.71 530.21 871.69 382.86 1002.29 420.45 959.47 494.15 842.96 564.38 948.80 596.18
00002641 DELETE   683.55 175.12 359.57 533.88 864.29 384.90 998.68 422.34 952.28 491.41 837.96 563.80 947.92 595.62
00002642 DELETE   681.26 172.97 359.21 535.77 856.19 382.61 990.57 421.71 943.06 490.33 830.96 562.78 942.21 596.09
00002643 00000091 677.01 169.94 362.92 540.23 852.83 377.93 987.85 414.84 940.96 492.15 828.05 564.56 938.91 596.13
00002644 00000092 679.43 176.69 364.76 532.93 846.39 376.45 985.13 415.36 938.30 490.41 826.33 559.49 943.91 593.81
00002645 00000093 678.25 171.05 364.33 538.60 843.00 374.47 982.09 414.30 934.77 487.02 823.82 556.91 942.55 592.07
00002646 00000094 677.96 168.53 363.34 532.29 837.74 373.04 980.18 414.73 931.64 484.83 822.41 554.56 939.00 591.20
00002647 00000095 679.01 162.23 361.07 528.09 834.32 373.56 983.00 416.38 932.39 486.52 824.51 553.67 942.80 590.87
00002648 00000096 679.19 162.72 358.72 521.29 832.39 373.66 983.05 416.49 930.53 483.80 823.32 550.97 942.88 588.14
00002649 00000097 672.58 164.10 360.25 524.91 833.80 378.51 978.95 418.50 929.08 484.60 822.19 550.28 943.06 583.79
00002650 00000098 673.08 160.63 361.55 528.64 827.10 371.26 975.44 413.50 924.13 482.93 817.43 550.46 937.75 587.07
00002651 00000099 668.73 161.92 364.58 534.71 826.22 370.92 969.92 413.00 920.21 484.35 813.67 552.25 931.28 588.60
00002652 00000100 665.47 163.24 367.48 539.21 826.08 373.09 967.52 416.21 917.88 486.52 810.97 553.36 929.13 590.37
00002653 00000101 663.48 165.96 366.76 537.19 824.65 374.60 965.20 417.01 916.53 485.89 809.05 553.64 927.02 590.31
00002654 00000102 662.32 165.14 365.82 538.73 823.90 373.47 963.30 415.40 915.28 486.26 807.02 553.30 924.76 589.67
00002655 00000103 661.45 166.06 364.19 537.26 822.18 372.71 962.02 413.26 913.74 484.97 806.99 553.96 922.84 589.10
00002656 00000104 660.43 166.36 361.16 533.36 817.93 375.23 961.46 413.13 911.71 483.17 808.71 556.64 924.10 589.08
00002657 00000105 658.17 166.11 360.41 532.10 814.63 375.23 961.36 412.42 909.23 483.74 806.03 557.38 923.91 589.05
00002658 00000106 654.13 165.32 363.36 543.45 816.85 373.45 956.97 410.64 909.08 482.78 805.26 559.47 917.66 591.11
00002659 00000107 653.20 165.10 362.46 547.36 819.29 370.12 953.22 409.65 908.47 478.57 802.78 557.10 911.28 591.03
00002660 00000108 654.10 161.47 359.74 543.75 817.43 369.19 950.91 406.86 907.03 477.75 804.72 554.55 912.87 586.86
00002661 00000109 655.44 159.01 356.60 535.08 813.80 369.97 952.23 407.37 906.67 475.10 804.47 549.94 919.41 582.11
00002662 DELETE   650.90 159.59 357.09 531.53 812.42 374.59 956.41 411.70 907.71 476.41 803.48 546.54 925.70 577.90
00002663 00000111 652.76 162.48 357.47 531.75 811.74 371.43 949.05 406.33 903.47 474.15 805.43 550.88 916.86 580.57
00002664 00000112 652.02 166.51 357.15 529.93 807.88 374.13 948.90 407.41 899.88 478.00 802.19 556.66 914.69 584.68
00002665 00000113 649.36 169.13 358.97 531.32 806.01 376.82 949.86 410.89 899.68 485.38 795.85 561.27 911.69 590.17
00002666 00000114 647.73 174.31 361.62 537.89 807.17 382.50 950.48 418.72 899.85 491.10 794.02 567.52 909.66 598.45
00002667 00000115 647.08 172.47 366.91 551.65 813.69 385.23 949.40 423.31 900.64 501.73 795.46 574.23 901.79 606.94
00002668 00000116 647.89 171.04 370.62 562.00 815.73 387.47 950.45 427.39 902.08 505.57 793.66 577.28 902.60 611.67
CROP_BBOX: 350 0 1225 880
