Video ID: 	3S7MXGCd0tE
H: 	1080
W: 	1080
FPS: 	25.0

FRAME INDEX X0 Y0 W H [Landmarks (5 Points)]

00003049 00000000 344.60 148.19 351.91 531.94 430.12 371.62 598.39 346.96 529.15 470.07 484.53 573.36 607.13 550.71
00003050 00000001 342.80 154.64 353.37 530.36 428.11 379.71 597.00 355.78 526.86 481.62 482.84 578.96 607.71 557.45
00003051 00000002 342.80 154.44 351.87 532.41 426.20 383.96 594.29 359.67 523.19 486.64 480.58 582.41 606.08 560.62
00003052 00000003 341.28 156.65 352.88 530.78 423.86 383.13 592.75 358.69 520.55 484.75 478.57 581.20 604.65 559.25
00003053 00000004 342.09 160.63 351.16 525.68 423.72 378.66 590.24 355.24 517.87 480.80 476.62 577.38 600.82 556.62
00003054 00000005 346.03 157.83 350.03 525.29 424.00 373.96 586.27 352.49 513.43 473.09 473.80 572.96 594.02 555.01
00003055 DELETE   344.05 149.22 350.27 529.47 417.47 368.66 582.53 348.52 503.93 469.85 464.38 567.63 590.76 550.67
00003056 00000007 336.54 145.50 352.45 533.99 406.86 367.46 572.54 345.69 488.52 467.66 453.90 565.06 581.81 547.19
00003057 00000008 331.91 142.27 352.63 540.76 397.73 369.69 564.34 347.74 477.32 471.44 444.91 568.83 572.54 551.16
00003058 00000009 328.70 146.11 352.42 549.69 393.27 376.23 556.31 353.29 471.38 482.16 445.84 578.07 568.30 559.82
00003059 DELETE   328.04 155.38 355.67 549.81 391.48 389.68 556.65 365.74 473.23 506.87 448.27 593.18 573.98 573.71
00003060 00000011 324.80 174.60 360.94 543.98 391.45 402.82 558.70 379.06 477.52 523.73 450.34 605.34 578.04 585.53
00003061 00000012 318.56 197.32 362.29 522.51 391.58 415.07 557.12 390.56 479.59 531.15 454.33 609.56 577.80 588.26
00003062 00000013 317.86 198.88 362.57 524.39 391.18 413.42 556.37 389.41 478.52 527.94 453.45 610.10 574.20 589.45
00003063 00000014 315.59 179.52 367.37 546.10 395.15 406.65 556.66 384.34 479.60 519.79 455.60 608.79 575.74 589.09
00003064 00000015 318.19 175.04 359.75 546.77 391.22 399.42 554.43 375.96 476.27 512.34 454.41 602.73 571.55 582.13
00003065 00000016 319.32 170.79 361.26 548.06 391.82 396.01 557.69 372.60 476.71 510.48 454.79 600.38 574.35 579.57
00003066 00000017 319.12 175.98 361.88 541.50 391.37 399.25 557.87 376.33 477.48 513.16 454.01 600.93 574.47 580.74
00003067 00000018 318.50 178.83 361.06 541.23 391.08 401.89 556.29 379.87 476.81 514.66 450.51 600.09 572.64 580.71
00003068 00000019 319.07 179.61 359.32 536.99 389.86 401.39 555.89 381.05 473.65 513.60 446.45 598.30 569.07 580.23
00003069 00000020 326.20 172.76 357.29 545.08 390.08 397.21 559.91 377.94 473.17 516.21 438.23 599.21 570.03 583.45
00003070 00000021 326.38 169.17 355.84 546.64 389.13 392.89 560.50 376.54 470.39 513.63 432.09 594.88 566.41 581.55
00003071 00000022 330.32 162.56 349.86 549.95 389.03 388.54 559.50 375.30 463.87 508.93 427.11 590.81 562.06 580.13
00003072 00000023 332.34 158.83 345.92 548.83 389.27 381.81 559.92 371.58 461.81 501.91 423.51 585.54 557.71 577.40
00003073 00000024 335.03 160.06 346.01 549.06 390.97 374.63 560.18 366.47 459.38 493.03 425.57 584.31 553.59 578.07
00003074 00000025 336.95 158.27 340.17 549.50 395.27 368.88 563.17 365.24 459.84 488.38 427.49 580.38 548.51 576.96
00003075 00000026 344.10 156.52 339.90 538.96 400.25 365.46 567.99 365.93 461.44 484.66 423.66 571.41 552.04 571.79
00003076 00000027 348.43 152.69 339.81 542.08 403.47 365.48 570.58 366.88 461.30 483.39 421.53 568.31 554.49 569.70
00003077 00000028 352.36 149.96 339.62 542.98 408.40 365.94 572.19 368.55 465.02 482.88 424.02 567.63 554.53 569.88
00003078 00000029 361.42 150.49 334.88 542.61 411.45 365.27 573.89 368.89 469.78 483.86 430.47 567.10 553.53 571.50
00003079 00000030 363.92 155.22 335.22 547.36 415.47 368.04 576.80 370.89 474.99 487.40 438.05 576.11 554.92 579.93
00003080 00000031 366.00 159.12 335.73 548.13 416.89 372.57 580.18 374.70 477.67 492.85 440.44 582.84 556.50 586.18
00003081 00000032 358.37 171.95 339.40 533.15 415.32 379.24 579.31 383.30 474.66 500.01 435.80 583.83 557.82 586.23
00003082 00000033 358.86 175.38 342.01 539.76 415.26 388.82 576.95 394.56 471.84 512.58 437.05 594.98 554.48 599.12
00003083 00000034 357.63 178.62 339.66 547.21 408.86 400.42 577.04 407.16 470.83 530.21 432.07 608.37 549.07 615.07
00003084 DELETE   356.85 197.37 342.28 544.84 408.26 415.24 575.92 423.32 465.65 550.86 431.08 625.82 548.36 633.95
00003085 00000036 358.09 210.87 341.24 542.63 408.58 419.17 576.97 426.11 467.60 557.52 433.68 634.10 551.15 641.26
00003086 00000037 358.61 206.53 343.29 538.29 411.81 416.08 578.99 420.60 474.17 546.98 439.07 627.11 556.31 632.05
00003087 00000038 358.08 198.91 343.67 533.30 412.71 407.53 579.78 412.29 477.30 536.75 440.62 614.95 557.39 619.90
00003088 00000039 357.85 201.24 342.06 525.85 415.55 405.96 578.10 407.71 475.29 530.53 440.67 611.26 560.31 611.47
00003089 00000040 358.82 199.68 342.08 524.05 416.40 402.54 579.69 403.76 476.52 526.16 440.83 608.28 561.40 608.01
00003090 00000041 359.38 197.34 342.17 523.38 417.81 406.90 580.45 407.68 478.19 523.80 441.44 606.69 564.79 606.13
00003091 00000042 360.08 196.80 340.96 523.07 422.45 411.82 580.52 413.37 481.97 522.15 444.38 605.86 566.84 605.84
00003092 DELETE   359.35 193.16 342.43 525.02 422.62 410.75 583.43 411.09 485.24 520.21 446.75 605.73 570.80 604.89
00003093 00000044 357.81 194.95 341.90 521.82 419.31 404.33 584.42 401.25 485.50 519.91 448.41 605.87 573.09 602.37
00003094 00000045 355.60 187.89 343.25 525.18 417.97 400.20 583.12 395.04 486.76 516.37 450.49 602.84 574.10 597.73
00003095 00000046 352.71 183.36 345.91 526.05 416.25 395.73 582.67 388.46 488.25 513.19 454.42 599.87 576.42 592.79
00003096 00000047 348.88 175.59 348.31 530.47 415.93 393.35 582.13 384.28 491.22 512.06 458.03 598.17 577.81 589.55
00003097 00000048 347.54 178.27 347.76 527.75 415.32 391.95 580.66 381.62 491.53 511.06 459.22 597.87 577.50 588.09
00003098 00000049 345.59 175.37 348.16 530.20 413.58 391.03 579.60 380.64 490.30 510.58 457.99 596.58 576.88 586.83
00003099 00000050 342.77 174.12 348.96 531.48 412.66 389.18 578.96 378.87 489.76 508.94 457.27 594.60 576.66 584.80
00003100 00000051 341.02 171.05 348.10 535.88 412.78 386.55 578.96 376.41 490.05 505.58 455.65 591.94 575.84 582.29
00003101 00000052 339.58 168.87 348.13 535.10 412.02 384.15 580.20 374.02 491.23 503.26 454.18 589.15 577.47 579.25
00003102 00000053 338.22 167.36 348.40 531.32 411.13 383.32 581.00 374.16 491.84 501.66 452.22 585.96 576.99 576.92
00003103 00000054 337.42 166.90 349.15 531.64 410.47 382.93 580.94 373.94 491.40 500.65 450.54 585.24 576.33 576.33
00003104 00000055 336.42 166.19 349.79 534.30 410.16 382.92 580.35 373.56 490.83 500.17 450.77 586.24 575.81 577.03
00003105 00000056 335.43 167.40 349.96 531.47 408.80 383.19 580.92 374.32 491.00 501.09 448.30 584.69 574.94 575.97
00003106 00000057 335.12 168.11 349.78 531.67 408.29 383.94 580.64 373.93 490.87 501.99 448.42 585.35 575.19 575.77
00003107 00000058 333.45 171.25 351.46 532.86 407.02 385.09 578.76 373.27 490.00 503.89 451.53 589.72 575.46 578.50
00003108 00000059 332.68 169.59 352.90 538.23 406.90 387.17 577.94 375.47 490.28 506.18 451.96 593.09 573.87 582.14
00003109 00000060 333.10 173.52 352.81 533.77 406.46 389.67 578.10 377.93 490.01 508.82 451.01 593.92 574.76 582.88
00003110 00000061 332.82 174.87 353.44 532.02 406.15 391.19 578.01 378.89 490.20 510.58 451.35 594.82 575.91 583.34
00003111 00000062 332.64 176.20 354.25 535.22 406.84 392.75 577.91 379.75 490.74 512.22 453.44 598.16 575.73 586.26
00003112 00000063 333.33 175.93 354.02 538.19 408.03 394.41 577.68 380.61 491.99 513.85 455.31 601.28 575.92 589.01
00003113 00000064 334.13 180.36 355.08 532.42 408.37 395.89 578.67 381.60 491.35 516.65 456.08 602.00 577.82 589.19
00003114 00000065 334.55 184.53 356.25 527.51 408.78 396.67 580.06 382.96 491.98 518.10 455.48 601.77 579.30 589.34
00003115 00000066 335.71 188.24 355.49 523.08 408.78 397.64 579.59 384.18 490.94 519.22 454.84 601.49 579.29 589.18
00003116 00000067 335.93 187.95 355.66 523.10 408.75 397.66 579.32 384.07 490.37 519.03 454.73 600.90 579.32 588.46
00003117 00000068 336.24 191.24 355.61 520.82 408.31 398.23 578.71 384.05 489.40 519.56 454.96 601.75 579.82 588.76
00003118 00000069 336.50 193.26 355.65 520.22 408.21 399.15 578.34 384.69 489.18 521.44 456.54 603.95 580.57 590.64
00003119 00000070 337.60 191.69 355.41 523.52 409.79 400.09 579.73 385.85 490.81 522.68 457.44 605.30 581.40 592.23
00003120 00000071 340.38 189.11 354.25 525.34 412.14 400.46 581.52 386.43 494.27 522.20 459.41 605.72 582.73 592.96
00003121 00000072 342.82 187.20 353.15 526.21 415.12 400.03 583.65 386.58 497.15 521.31 461.34 604.96 583.36 592.67
00003122 00000073 344.80 184.63 351.62 529.12 417.20 399.88 584.99 386.14 499.68 520.06 462.95 604.61 585.04 592.11
00003123 00000074 345.66 186.42 352.00 524.99 417.88 398.40 585.62 385.03 499.72 518.98 462.81 602.67 585.72 590.19
00003124 00000075 345.45 184.18 352.77 523.17 418.13 397.02 585.45 383.14 499.61 517.29 464.03 600.35 586.13 587.43
00003125 00000076 344.92 179.31 352.89 524.65 418.16 395.98 585.17 381.62 500.11 514.46 463.53 597.05 586.77 584.02
00003126 00000077 344.45 174.02 351.54 526.83 416.37 394.61 584.13 380.17 499.16 510.89 462.16 594.09 586.21 581.33
00003127 00000078 343.22 175.02 350.75 524.57 415.46 390.95 583.19 376.06 498.18 507.31 462.33 592.08 585.58 578.62
00003128 00000079 343.88 172.93 348.80 525.80 415.70 387.97 582.91 373.20 498.39 504.67 462.64 591.25 584.53 577.83
00003129 00000080 342.77 171.08 349.52 529.68 416.05 388.28 583.09 372.58 499.93 504.93 464.75 592.76 585.35 578.62
00003130 00000081 341.74 173.89 350.77 529.83 416.77 390.85 582.94 374.52 500.39 506.04 465.77 594.28 586.05 579.46
00003131 00000082 340.57 174.11 353.28 532.04 416.39 393.10 583.36 376.78 500.90 506.77 464.86 595.73 585.75 581.27
00003132 00000083 338.89 174.09 354.65 534.03 415.29 394.11 582.56 378.19 500.06 508.73 463.11 596.92 584.17 583.00
00003133 00000084 336.85 176.15 355.95 538.86 414.53 395.39 582.01 379.00 499.19 512.12 463.21 600.52 585.03 586.16
00003134 00000085 335.59 180.97 357.17 534.30 412.98 396.44 581.03 379.28 497.25 514.21 463.74 602.69 584.49 587.45
00003135 00000086 334.26 179.99 357.49 536.07 411.38 397.35 580.05 380.04 496.87 515.70 462.41 603.27 584.17 588.00
00003136 00000087 332.66 182.30 357.49 534.10 408.73 397.34 578.40 379.40 494.24 516.58 460.09 603.77 582.87 587.91
00003137 00000088 330.95 182.82 359.08 534.09 406.95 397.59 577.16 380.45 492.25 517.32 458.57 604.08 581.09 588.96
00003138 00000089 329.82 181.30 360.84 537.20 405.76 398.57 576.83 381.33 491.55 519.12 457.96 605.89 581.18 590.59
00003139 00000090 329.78 185.56 360.99 531.15 405.71 400.07 577.04 382.22 492.32 520.79 459.47 606.43 581.88 590.56
00003140 00000091 331.15 186.78 359.62 530.05 407.29 399.79 577.81 382.11 493.49 520.55 460.24 606.70 580.98 591.18
00003141 00000092 331.56 185.26 359.58 529.51 407.81 397.87 577.69 380.90 493.00 518.96 461.05 605.17 579.78 590.25
00003142 00000093 333.14 181.96 356.59 529.02 408.60 396.03 577.16 380.16 492.41 516.49 459.93 602.54 577.42 588.44
00003143 00000094 333.45 173.35 355.12 535.47 408.61 393.90 576.50 379.82 492.03 513.95 458.26 599.87 575.11 587.23
00003144 00000095 332.32 170.39 354.31 537.38 406.96 392.26 576.15 378.87 491.11 511.90 455.85 597.74 574.46 585.56
00003145 00000096 335.49 163.97 359.77 547.62 406.83 394.35 575.63 380.47 486.71 518.06 451.30 603.10 571.28 591.79
00003146 00000097 328.10 164.94 356.74 548.35 402.67 390.92 572.34 377.12 486.43 508.86 450.20 598.40 570.28 585.93
00003147 00000098 327.83 163.83 354.27 550.38 401.33 389.77 569.33 375.81 482.63 505.85 448.07 596.88 567.17 584.35
00003148 00000099 324.78 167.28 354.25 547.57 397.75 389.34 567.47 375.38 479.90 504.92 445.11 595.49 565.08 582.98
00003149 00000100 327.51 164.21 356.94 557.75 396.50 388.46 567.65 374.04 480.75 508.59 441.76 599.15 568.41 587.90
00003150 00000101 327.44 165.10 356.47 555.89 396.37 388.45 567.55 373.44 480.93 508.65 442.45 598.92 569.19 587.22
00003151 00000102 327.48 165.06 357.49 551.79 396.90 386.79 567.98 371.11 481.55 507.27 444.49 596.98 570.06 584.74
00003152 00000103 329.55 162.79 356.72 552.95 399.16 385.40 569.05 369.45 482.48 502.76 445.12 595.04 570.24 582.51
00003153 00000104 326.95 167.71 352.44 539.36 402.42 383.86 569.30 367.42 484.66 495.92 453.04 589.53 569.80 574.80
00003154 00000105 329.93 162.69 348.88 541.60 405.00 384.18 570.32 366.28 488.12 493.54 457.17 588.95 572.55 573.14
00003155 00000106 332.98 162.00 347.00 539.58 408.28 382.16 572.22 364.75 490.98 492.09 462.31 587.27 576.01 571.53
00003156 00000107 336.18 156.15 345.16 545.46 411.26 380.81 573.01 361.90 493.47 489.86 464.81 586.83 578.99 569.82
00003157 00000108 340.64 157.63 344.34 540.74 415.13 380.76 576.41 360.56 498.01 487.76 467.55 586.13 583.79 567.97
00003158 00000109 345.25 158.09 343.43 536.67 419.33 381.05 580.02 360.24 503.68 487.00 472.68 585.35 587.06 566.78
00003159 00000110 348.96 157.39 342.45 536.01 423.94 380.96 582.69 360.97 507.95 487.72 475.47 584.44 589.23 566.52
00003160 00000111 350.66 157.95 344.56 535.01 427.49 381.97 586.56 362.41 511.93 487.83 478.03 583.40 592.62 565.88
00003161 00000112 351.21 157.69 345.68 533.81 429.39 382.22 588.32 362.92 513.71 487.80 480.91 583.11 594.66 565.53
00003162 00000113 351.65 158.64 346.91 532.18 430.24 382.45 589.93 363.35 514.42 489.23 482.34 583.08 596.17 565.39
00003163 00000114 351.54 159.59 347.40 531.76 431.04 382.89 590.25 364.05 515.17 489.59 483.26 583.33 596.14 565.80
00003164 00000115 351.17 159.45 348.07 531.90 430.57 382.70 590.31 363.81 514.84 489.44 482.64 583.34 596.15 565.80
00003165 00000116 350.86 159.78 347.85 532.71 429.31 383.42 589.62 364.09 513.70 490.11 480.85 584.26 596.13 566.55
00003166 00000117 349.39 163.99 346.23 528.52 427.54 384.94 587.33 364.66 512.64 491.30 479.91 585.40 594.78 567.22
00003167 00000118 348.62 161.97 345.82 531.99 424.83 386.44 586.02 365.72 510.79 493.86 477.52 587.88 593.60 569.56
00003168 00000119 347.28 164.23 344.81 530.68 421.41 387.57 584.93 365.67 508.54 497.54 475.94 590.47 593.91 571.21
00003169 00000120 344.84 165.28 345.21 531.15 419.33 388.50 583.80 366.67 507.08 499.08 474.66 591.72 592.88 572.52
00003170 00000121 341.73 163.39 346.95 534.60 417.56 389.47 582.51 367.53 506.09 500.00 473.27 592.58 591.95 573.39
00003171 00000122 339.34 163.36 349.69 535.22 414.84 390.96 580.75 367.42 504.34 501.38 472.11 593.62 592.57 573.20
00003172 00000123 337.93 164.73 349.82 534.11 412.80 391.11 579.23 367.54 502.47 502.59 470.91 594.00 591.83 573.53
00003173 00000124 336.43 165.68 350.45 532.78 411.14 390.66 578.29 367.75 500.24 502.85 469.39 593.74 590.63 573.74
00003174 00000125 336.07 164.55 350.21 533.46 409.11 390.99 576.92 368.01 498.29 503.40 467.45 593.43 590.42 573.49
00003175 00000126 337.98 160.76 355.32 540.81 410.67 390.85 576.92 368.61 497.26 503.74 464.58 590.99 589.38 572.57
00003176 00000127 337.61 161.32 355.95 541.44 410.57 390.99 577.16 368.92 497.59 504.62 464.23 591.16 589.60 572.91
00003177 00000128 336.90 163.17 357.09 539.84 410.47 391.27 577.42 368.94 497.76 506.08 464.77 591.33 590.28 572.88
00003178 00000129 335.06 166.75 351.82 532.53 408.94 392.01 577.62 369.38 499.18 506.02 468.83 594.15 591.36 574.41
00003179 00000130 334.72 167.02 353.28 533.23 410.36 392.78 578.00 369.06 500.79 506.05 471.59 595.36 592.58 574.60
00003180 00000131 336.11 168.08 352.99 531.56 412.88 393.88 579.54 368.79 504.51 506.26 475.40 595.91 595.38 574.15
00003181 00000132 340.43 170.83 350.93 528.58 417.65 393.64 582.06 369.52 508.18 507.95 479.13 596.06 596.57 574.97
00003182 00000133 343.73 168.64 349.47 530.27 420.48 393.05 584.17 369.25 510.50 507.09 480.55 595.96 597.28 575.23
00003183 00000134 346.21 170.79 349.57 526.47 423.61 392.23 587.06 367.86 513.00 504.67 483.50 593.67 599.98 572.25
00003184 00000135 349.69 168.87 349.69 527.43 426.47 389.22 589.44 366.68 513.55 502.13 484.25 591.10 600.53 570.89
00003185 00000136 352.35 165.12 349.54 528.54 430.46 387.15 592.58 365.87 516.96 499.88 486.72 588.20 602.95 568.59
00003186 00000137 362.25 154.04 350.57 544.46 434.66 386.45 600.32 365.71 522.92 499.08 486.77 586.06 612.31 569.56
00003187 00000138 364.44 154.29 348.93 544.78 437.11 387.26 602.47 366.55 525.84 499.00 488.85 586.82 614.30 570.34
00003188 00000139 364.65 155.18 349.00 545.86 437.10 388.67 603.11 367.53 525.90 500.09 489.00 587.92 615.31 571.07
00003189 00000140 363.99 155.74 349.56 547.19 436.72 388.57 602.95 367.77 525.46 500.40 487.86 588.43 614.82 571.88
00003190 00000141 363.18 156.42 349.85 544.58 435.43 387.06 601.38 366.68 523.16 498.67 486.32 586.58 612.64 570.44
00003191 00000142 355.08 163.29 348.39 529.94 433.35 384.80 594.40 364.46 518.11 495.74 489.31 586.14 603.27 567.13
00003192 00000143 353.81 162.02 349.04 532.05 432.71 383.90 592.97 363.67 517.30 492.30 487.40 584.92 600.97 566.25
00003193 00000144 351.66 163.82 349.84 532.17 431.34 384.73 591.04 364.52 515.90 492.18 486.02 585.83 598.61 567.41
00003194 00000145 350.22 160.93 349.40 535.40 429.46 385.80 588.51 364.80 513.73 492.79 483.69 586.69 597.04 567.89
00003195 00000146 350.25 162.70 347.17 533.00 427.88 387.06 586.92 365.26 512.25 492.96 481.92 587.55 595.68 568.39
00003196 00000147 348.88 163.53 346.15 532.86 425.50 388.20 584.93 364.84 510.41 493.65 480.71 588.86 595.17 568.59
00003197 00000148 346.75 164.73 347.05 531.63 422.80 388.53 583.97 364.91 509.06 495.68 479.19 589.61 594.63 569.20
00003198 00000149 346.83 166.43 345.58 529.24 421.13 388.67 583.39 365.27 507.52 497.46 477.77 590.44 594.32 570.13
00003199 00000150 346.21 167.10 344.74 528.83 420.43 389.10 582.85 366.31 506.70 498.62 476.64 591.06 593.09 571.28
00003200 00000151 344.90 165.25 344.95 532.62 419.76 389.63 581.66 366.22 506.04 499.27 477.06 592.49 592.37 572.19
00003201 00000152 344.24 163.61 345.69 535.77 419.60 389.51 581.79 366.39 506.05 500.05 477.31 593.60 592.25 573.51
00003202 00000153 344.22 164.91 345.91 535.32 418.93 389.71 581.57 366.27 505.45 501.77 478.31 595.60 592.51 575.22
00003203 00000154 344.31 165.56 345.26 535.24 418.64 389.96 580.93 367.82 504.54 502.99 477.48 596.67 590.34 577.35
00003204 00000155 341.64 166.35 348.71 537.03 415.94 393.18 580.24 370.36 502.49 507.39 475.51 598.58 591.93 578.63
00003205 00000156 341.88 171.00 354.77 543.21 415.15 397.97 579.69 378.78 498.89 519.98 468.14 603.25 588.21 587.04
00003206 00000157 332.11 182.35 356.81 534.48 405.38 404.93 574.48 388.06 489.37 528.79 460.54 609.04 582.77 594.13
00003207 00000158 330.44 177.27 358.58 551.39 398.94 405.51 569.09 386.82 485.22 530.49 451.85 615.07 579.06 599.48
00003208 00000159 322.03 180.46 358.90 543.92 394.75 405.08 564.39 386.10 482.10 523.84 453.71 612.15 572.32 595.87
00003209 00000160 325.49 179.37 358.80 545.53 393.48 403.43 563.57 381.61 481.76 522.45 448.79 612.54 572.69 594.81
00003210 00000161 325.38 180.02 359.57 540.23 392.20 401.68 563.43 381.49 479.74 522.40 445.26 609.21 570.81 592.83
00003211 00000162 326.01 181.53 359.93 538.21 392.68 400.92 564.00 381.62 479.47 522.89 444.39 607.91 570.84 592.27
00003212 00000163 326.65 178.50 360.61 542.36 393.61 402.49 564.41 382.70 480.48 523.97 446.03 609.44 572.25 593.36
00003213 00000164 326.87 180.65 361.41 542.03 395.23 404.80 565.48 384.48 482.02 525.76 447.88 610.93 574.02 594.36
00003214 00000165 327.21 180.83 360.47 543.04 394.82 405.90 565.92 385.55 482.16 528.99 448.48 613.41 574.99 596.64
00003215 00000166 326.59 180.38 361.74 544.28 394.72 405.99 565.93 385.68 481.85 529.33 447.92 612.41 575.82 595.55
00003216 00000167 327.18 182.53 361.67 542.30 395.10 404.56 565.58 385.40 480.44 527.46 445.84 608.96 575.49 593.02
00003217 00000168 328.38 180.48 360.48 544.02 395.57 404.42 565.63 385.24 480.63 527.30 446.28 609.33 575.88 593.31
00003218 00000169 329.28 181.10 360.63 544.42 396.76 404.93 566.44 385.49 481.43 527.69 448.94 612.49 574.97 596.29
00003219 00000170 330.37 181.96 360.10 541.76 396.95 404.21 566.41 384.86 481.02 525.78 448.82 610.72 574.73 594.70
