Video ID: 	0H5hQCiVQpw
H: 	1080
W: 	1920
FPS: 	24.975024975024976

FRAME INDEX X0 Y0 W H [Landmarks (5 Points)]

00000162 00000000 1078.59 270.69 405.66 592.81 1188.16 504.40 1382.02 518.44 1274.60 603.65 1188.19 701.87 1360.29 713.94
00000163 00000001 1084.56 267.06 403.29 597.25 1192.25 501.46 1386.28 514.01 1280.33 603.41 1195.18 704.36 1365.51 715.08
00000164 DELETE   1089.41 264.93 401.62 601.47 1194.77 497.27 1390.70 508.33 1284.94 602.04 1200.33 705.78 1370.99 715.20
00000165 DELETE   1093.18 265.57 400.34 593.18 1197.28 492.62 1394.49 504.47 1287.12 596.96 1202.78 698.85 1375.65 708.97
00000166 00000004 1095.94 264.79 397.24 576.23 1199.41 486.22 1397.41 499.18 1289.94 588.78 1203.81 687.26 1377.11 698.67
00000167 00000005 1094.97 257.81 398.96 579.56 1199.17 480.03 1397.69 493.76 1290.02 584.75 1203.62 683.50 1376.93 695.48
00000168 00000006 1095.30 256.09 398.30 578.36 1199.86 477.39 1395.69 491.12 1288.98 581.09 1203.83 679.94 1375.09 691.99
00000169 00000007 1094.94 255.40 398.59 579.60 1199.46 477.41 1396.33 490.99 1289.48 582.37 1203.56 681.43 1375.40 693.32
00000170 00000008 1094.54 256.33 399.38 585.47 1198.89 478.91 1394.50 492.10 1288.13 583.18 1203.92 685.16 1372.98 696.47
00000171 00000009 1094.87 261.20 399.43 587.50 1200.93 480.08 1393.22 493.86 1289.79 584.64 1206.94 686.99 1372.59 698.81
00000172 00000010 1092.64 260.64 401.80 593.35 1200.84 480.65 1391.41 495.64 1288.28 583.55 1204.05 685.97 1370.49 698.62
00000173 00000011 1091.20 262.90 405.24 589.14 1196.72 483.80 1388.03 492.76 1285.81 584.24 1204.50 687.71 1365.64 693.54
00000174 00000012 1089.07 263.67 405.33 588.37 1194.84 484.42 1386.94 491.20 1285.23 584.85 1205.67 691.90 1362.91 695.86
00000175 00000013 1085.64 260.92 405.51 593.38 1197.29 480.95 1387.05 495.66 1285.32 584.88 1202.69 688.81 1364.18 701.45
00000176 00000014 1085.31 258.50 405.04 598.74 1196.38 480.35 1384.42 494.81 1283.50 584.05 1202.40 690.68 1361.25 702.97
00000177 00000015 1085.09 264.00 406.70 596.80 1193.46 481.50 1381.87 488.27 1283.20 585.63 1206.79 697.57 1354.47 701.69
00000178 00000016 1084.27 263.81 407.00 597.50 1191.56 481.77 1380.77 488.66 1280.17 586.12 1204.62 699.26 1350.28 703.72
00000179 00000017 1083.34 265.97 405.28 591.11 1189.62 480.80 1377.52 488.68 1274.83 582.33 1200.60 695.85 1344.53 701.21
00000180 00000018 1077.59 254.68 407.45 601.46 1186.85 476.53 1371.04 494.98 1263.98 579.78 1187.34 687.69 1340.70 703.66
00000181 00000019 1073.92 249.65 410.08 602.50 1174.80 475.20 1362.70 494.84 1246.61 580.85 1172.90 685.34 1332.55 702.48
00000182 00000020 1072.81 254.18 409.45 595.35 1165.70 473.69 1354.91 497.49 1229.46 585.44 1157.27 682.43 1320.33 703.21
00000183 00000021 1073.19 257.92 406.72 595.54 1162.04 474.75 1345.93 500.10 1216.97 585.47 1148.94 685.25 1303.48 707.61
00000184 00000022 1075.12 259.85 404.41 592.00 1162.01 477.61 1342.83 502.12 1213.69 585.98 1149.40 686.98 1297.28 709.05
00000185 00000023 1081.26 267.04 399.49 583.27 1157.90 481.68 1341.94 502.64 1216.31 584.56 1156.33 692.50 1295.41 711.31
00000186 00000024 1076.02 262.98 406.40 591.76 1159.37 480.34 1346.00 504.98 1212.82 591.93 1146.55 691.55 1302.28 713.35
00000187 00000025 1075.86 264.09 407.80 591.04 1159.72 482.03 1348.27 506.82 1214.26 594.46 1145.89 687.94 1309.62 709.44
00000188 00000026 1078.35 272.89 403.83 582.94 1157.19 489.25 1345.91 508.95 1219.98 593.03 1154.19 690.76 1309.80 707.87
00000189 00000027 1076.58 275.06 402.11 583.59 1156.29 489.78 1346.34 509.84 1220.35 593.76 1152.35 694.11 1308.38 711.46
00000190 00000028 1072.69 275.29 401.57 582.64 1152.44 490.44 1344.09 510.46 1216.60 593.93 1147.84 694.74 1307.94 711.87
00000191 00000029 1070.99 273.98 395.62 587.20 1150.88 487.89 1342.12 509.68 1214.67 593.53 1144.93 694.43 1304.44 712.76
00000192 00000030 1060.37 260.30 404.26 600.80 1146.85 482.32 1336.54 506.42 1205.85 594.47 1136.25 693.64 1297.69 714.45
00000193 00000031 1055.47 259.95 404.73 590.34 1143.45 479.37 1333.96 503.19 1203.90 591.84 1135.94 686.00 1299.87 705.65
00000194 00000032 1052.04 257.53 406.87 586.61 1141.86 475.07 1333.07 498.74 1204.33 585.62 1134.32 680.40 1299.96 699.67
00000195 00000033 1051.43 257.92 405.10 580.19 1143.27 472.60 1329.33 492.82 1206.50 579.13 1141.48 677.71 1295.37 694.84
00000196 00000034 1051.91 250.84 403.40 588.38 1146.06 471.44 1329.51 489.63 1211.10 570.75 1145.15 677.96 1292.77 693.88
00000197 00000035 1052.03 247.83 403.61 586.78 1150.33 468.73 1331.43 486.50 1217.50 561.39 1149.07 673.33 1291.90 689.14
00000198 00000036 1053.51 244.10 404.38 587.73 1153.14 468.19 1336.43 484.68 1223.37 554.51 1153.73 668.76 1297.69 683.19
00000199 00000037 1056.88 243.27 404.87 588.83 1155.05 463.76 1341.65 481.37 1224.61 551.38 1152.74 662.94 1307.02 677.61
00000200 00000038 1057.53 242.87 405.80 589.64 1156.92 462.30 1343.95 480.24 1228.59 553.52 1156.89 663.98 1310.01 678.80
00000201 00000039 1057.91 241.02 405.82 595.41 1157.98 461.85 1346.54 476.30 1233.42 550.44 1160.61 669.98 1312.87 682.20
00000202 00000040 1060.09 236.28 407.93 598.05 1158.97 457.78 1351.44 472.63 1235.90 547.44 1160.22 664.37 1322.41 676.03
00000203 00000041 1059.48 235.96 409.71 591.05 1161.98 451.13 1353.49 469.10 1240.33 542.75 1161.98 656.47 1323.50 670.55
00000204 00000042 1059.11 238.18 409.45 579.30 1161.20 446.17 1354.04 465.14 1242.13 536.17 1161.38 648.95 1323.85 664.07
00000205 00000043 1062.01 238.18 406.75 568.80 1161.22 444.29 1352.69 462.59 1240.97 530.44 1160.05 641.88 1324.26 656.91
00000206 00000044 1064.22 237.81 406.03 565.89 1163.11 442.46 1355.48 462.27 1242.34 527.13 1160.03 638.61 1327.98 654.85
00000207 00000045 1063.62 239.32 406.83 564.53 1163.82 442.28 1356.18 462.54 1243.80 527.86 1161.13 639.21 1327.91 655.86
00000208 00000046 1064.49 238.18 407.46 567.64 1165.15 444.30 1357.79 463.66 1246.34 529.29 1163.28 641.12 1331.78 656.89
00000209 00000047 1064.57 237.39 408.37 573.26 1165.63 445.53 1360.62 465.04 1248.08 533.13 1162.54 644.51 1335.82 660.13
00000210 00000048 1063.00 237.38 410.13 576.27 1165.36 447.96 1360.82 466.70 1248.65 536.03 1162.38 647.17 1336.95 661.89
00000211 00000049 1061.60 234.72 410.11 584.69 1164.41 449.95 1360.96 468.91 1248.77 539.22 1161.35 652.20 1337.15 666.78
00000212 00000050 1059.93 234.11 411.30 593.68 1162.51 452.01 1360.69 470.39 1247.70 544.90 1160.06 656.79 1337.96 670.69
00000213 00000051 1058.08 240.38 412.42 594.77 1162.22 455.73 1359.46 476.40 1244.02 554.28 1157.60 663.23 1331.95 679.28
00000214 00000052 1057.41 247.78 410.53 586.80 1161.47 464.96 1356.48 485.07 1243.47 565.47 1160.38 667.65 1331.26 683.45
00000215 00000053 1056.35 251.11 408.40 589.06 1161.35 471.24 1355.41 492.02 1243.09 578.32 1159.29 673.08 1332.22 689.68
00000216 00000054 1055.46 259.29 406.85 588.41 1159.16 481.25 1351.67 500.71 1239.51 592.37 1157.43 682.54 1327.65 698.58
00000217 00000055 1052.56 261.86 408.95 594.01 1155.85 487.83 1349.95 506.52 1235.78 600.46 1153.67 691.35 1324.89 706.65
00000218 00000056 1059.92 272.66 401.44 595.81 1157.55 495.07 1349.12 513.61 1242.25 602.35 1159.34 700.12 1321.20 714.78
00000219 00000057 1058.03 274.07 400.17 593.57 1157.60 497.17 1346.78 516.44 1242.52 603.75 1160.53 702.47 1317.55 718.01
00000220 00000058 1056.33 277.04 400.21 589.87 1156.29 497.09 1345.12 517.07 1240.82 603.33 1157.66 700.24 1316.11 716.43
00000221 00000059 1055.21 277.89 401.00 589.29 1157.11 496.09 1343.45 516.79 1240.88 600.69 1158.94 697.74 1312.92 714.69
00000222 00000060 1053.92 276.60 401.26 586.66 1155.75 495.01 1341.88 516.53 1239.82 600.67 1157.34 694.12 1310.39 711.95
00000223 00000061 1051.98 277.79 399.59 589.54 1153.48 498.35 1338.46 518.68 1237.98 604.04 1153.84 694.94 1311.94 711.74
00000224 00000062 1050.67 280.30 399.43 597.96 1152.22 503.30 1335.73 523.88 1235.86 612.86 1151.47 705.77 1307.05 722.70
00000225 00000063 1047.75 279.91 401.09 606.09 1151.20 508.60 1336.13 528.17 1237.25 619.43 1155.39 719.04 1302.35 735.18
00000226 00000064 1046.88 282.77 400.49 606.13 1149.94 514.05 1335.35 533.93 1234.52 624.81 1151.59 724.49 1302.43 741.09
00000227 00000065 1044.14 282.25 402.93 608.79 1149.35 516.65 1333.63 537.37 1233.84 629.93 1152.10 728.05 1298.18 745.34
00000228 00000066 1044.60 281.73 402.33 610.46 1148.26 517.92 1333.23 537.53 1234.04 630.51 1151.87 726.15 1303.57 742.12
00000229 00000067 1045.02 282.03 403.35 609.95 1148.05 516.16 1334.18 535.77 1233.35 629.33 1151.41 726.23 1302.77 742.22
00000230 00000068 1045.95 281.10 402.68 610.31 1147.82 514.08 1334.51 533.49 1233.37 626.54 1151.56 724.16 1303.77 740.01
00000231 00000069 1045.97 281.18 402.04 610.59 1147.50 513.76 1334.29 531.63 1233.68 623.19 1151.53 723.96 1304.94 738.57
00000232 00000070 1047.49 279.54 398.84 613.85 1150.30 518.82 1333.12 535.07 1235.16 620.38 1155.82 723.67 1307.56 736.96
00000233 00000071 1046.41 276.46 398.88 614.61 1148.05 521.59 1328.44 533.95 1232.80 617.82 1158.01 722.94 1306.58 732.86
00000234 00000072 1046.04 274.34 399.26 616.92 1147.44 514.88 1329.72 528.83 1233.43 615.34 1156.41 720.72 1306.05 732.09
00000235 00000073 1045.88 274.53 400.16 611.90 1147.77 508.77 1331.52 524.71 1233.20 611.03 1156.44 715.39 1304.93 728.39
00000236 00000074 1044.99 275.40 401.89 608.33 1146.88 504.38 1331.68 520.40 1233.01 606.93 1155.30 712.83 1302.04 726.21
00000237 00000075 1044.28 273.18 401.45 609.27 1146.26 498.37 1331.42 513.74 1232.04 602.04 1154.29 708.49 1299.33 721.60
00000238 00000076 1042.85 275.98 402.37 600.26 1146.80 492.20 1331.44 507.07 1232.96 594.75 1155.72 702.65 1297.82 715.51
00000239 00000077 1042.94 269.53 401.51 599.97 1149.60 483.80 1331.10 497.20 1235.68 586.02 1158.27 695.90 1295.13 707.43
00000240 00000078 1042.73 269.86 400.13 596.58 1150.82 476.74 1334.18 489.93 1236.72 574.97 1158.15 688.89 1295.86 700.39
00000241 00000079 1038.92 254.45 405.20 590.96 1153.27 473.21 1337.74 487.25 1240.84 566.80 1163.08 679.81 1308.89 692.21
00000242 00000080 1039.46 250.84 405.22 593.19 1149.26 470.81 1343.87 484.08 1242.84 566.91 1156.68 673.82 1331.96 683.94
00000243 00000081 1037.81 252.94 405.46 593.21 1148.66 471.02 1342.05 482.18 1243.66 565.69 1158.65 676.17 1330.92 684.67
00000244 00000082 1034.96 255.66 405.13 594.16 1151.91 474.75 1335.57 484.88 1244.26 565.58 1166.58 682.38 1310.83 691.53
00000245 00000083 1037.55 269.72 403.34 584.74 1148.52 478.47 1333.26 476.39 1241.21 562.29 1160.11 688.38 1310.20 686.54
00000246 00000084 1037.14 268.53 402.77 586.49 1146.61 479.97 1333.30 478.19 1238.72 563.67 1157.94 692.72 1307.59 691.68
00000247 00000085 1036.19 269.02 401.57 585.85 1145.06 478.92 1331.59 478.03 1235.72 562.90 1155.53 692.22 1304.02 692.11
00000248 00000086 1035.66 268.56 401.59 585.65 1143.98 478.08 1330.53 477.12 1233.87 563.20 1153.54 691.87 1301.25 691.65
00000249 00000087 1034.92 269.38 403.52 586.22 1142.86 475.46 1329.57 475.66 1231.66 564.16 1152.35 690.95 1299.16 691.27
00000250 00000088 1034.54 267.44 404.47 579.10 1141.61 477.08 1328.73 480.57 1230.28 565.94 1150.04 685.64 1302.31 687.94
00000251 00000089 1033.57 266.78 401.57 568.47 1138.11 481.06 1328.26 487.10 1228.11 572.48 1146.54 682.64 1306.99 686.87
00000252 00000090 1033.28 266.76 401.35 571.93 1136.91 482.29 1329.02 490.58 1226.36 576.34 1142.45 681.86 1309.21 688.16
00000253 00000091 1033.14 268.80 401.10 576.43 1134.23 485.45 1329.60 494.41 1224.44 583.95 1138.13 684.79 1312.04 691.69
00000254 00000092 1032.04 268.30 402.80 589.75 1131.88 492.02 1328.14 500.07 1221.80 588.91 1134.76 692.67 1313.23 699.11
00000255 00000093 1032.74 274.34 404.93 598.65 1133.70 498.30 1327.82 507.44 1221.38 596.49 1136.30 707.13 1307.04 714.62
00000256 00000094 1032.84 271.89 404.39 604.24 1134.04 505.03 1326.65 513.87 1223.22 605.96 1139.65 713.48 1308.66 720.80
00000257 00000095 1031.88 278.21 403.77 606.24 1135.63 509.61 1325.45 519.87 1225.48 614.29 1141.68 717.72 1309.68 725.83
00000258 00000096 1030.35 281.51 403.92 603.53 1133.85 512.88 1325.50 522.30 1224.94 618.42 1142.44 722.42 1309.63 729.57
00000259 00000097 1028.34 280.56 404.61 602.80 1131.57 514.57 1326.87 522.65 1225.68 620.53 1143.07 726.14 1311.25 732.02
00000260 00000098 1028.71 277.21 403.22 594.43 1129.45 514.16 1323.59 521.83 1223.49 617.11 1141.44 718.53 1312.36 724.71
00000261 00000099 1028.66 276.43 400.64 593.43 1130.26 520.61 1318.78 526.40 1221.88 616.90 1142.76 717.29 1309.82 721.73
00000262 00000100 1023.93 278.29 401.07 593.49 1132.45 523.22 1321.51 526.63 1220.31 618.90 1143.94 720.98 1307.51 722.96
00000263 00000101 1028.45 277.14 402.11 605.08 1132.69 520.00 1319.84 523.89 1225.97 616.35 1148.73 724.05 1310.94 726.47
00000264 00000102 1028.36 278.97 402.30 609.33 1132.61 517.87 1322.32 522.34 1226.04 616.31 1147.56 726.77 1311.97 729.51
00000265 00000103 1028.19 279.40 402.58 606.57 1131.40 517.85 1322.48 522.64 1224.60 616.81 1146.53 727.64 1309.86 730.74
00000266 00000104 1026.78 280.89 403.75 602.19 1131.17 514.89 1321.68 519.68 1224.90 615.07 1147.18 725.86 1308.19 728.78
00000267 00000105 1025.96 281.29 405.40 595.36 1130.81 511.91 1318.90 520.07 1223.62 613.97 1141.91 718.23 1303.35 724.16
00000268 00000106 1026.34 277.27 403.64 592.98 1128.35 510.62 1318.90 518.80 1221.08 611.99 1139.38 715.75 1303.68 721.93
00000269 00000107 1025.82 279.07 404.81 593.38 1130.26 506.41 1317.27 515.28 1221.44 606.65 1141.30 712.30 1300.37 718.58
00000270 00000108 1024.75 276.71 404.54 594.54 1130.33 503.87 1315.44 511.88 1221.02 602.35 1142.62 710.10 1296.60 715.57
00000271 00000109 1023.46 277.06 404.03 594.60 1126.84 500.88 1316.62 511.92 1216.09 600.51 1133.35 707.68 1295.85 715.76
00000272 00000110 1021.81 276.19 403.86 595.21 1124.10 498.75 1318.73 507.25 1215.75 598.95 1133.21 709.06 1298.41 714.75
00000273 00000111 1021.36 273.78 403.38 595.68 1124.98 492.40 1316.47 499.98 1213.88 590.64 1134.12 704.31 1292.60 709.59
00000274 00000112 1022.50 270.65 402.08 592.64 1124.21 489.16 1319.03 496.69 1211.53 585.74 1130.10 700.70 1292.55 706.02
00000275 00000113 1025.06 265.23 397.44 584.53 1127.39 479.32 1322.56 496.84 1212.10 579.55 1128.44 683.80 1299.24 698.82
00000276 00000114 1025.62 262.35 396.67 574.47 1129.70 476.24 1320.98 493.45 1213.20 571.90 1132.61 676.38 1297.05 691.29
00000277 00000115 1025.08 266.17 400.66 578.68 1126.74 484.09 1314.76 489.29 1211.98 573.84 1135.77 682.70 1296.17 685.61
00000278 00000116 1027.35 265.35 397.14 586.69 1126.67 486.92 1317.43 491.02 1213.92 578.68 1138.04 692.31 1296.57 694.41
00000279 00000117 1027.75 269.83 395.77 585.21 1128.67 494.82 1315.77 498.39 1218.59 592.64 1146.40 705.42 1293.39 707.58
00000280 00000118 1027.11 271.05 401.45 599.24 1131.05 502.35 1322.67 505.95 1228.71 604.55 1147.63 713.52 1307.11 715.74
00000281 00000119 1026.64 278.97 401.96 599.79 1135.19 515.23 1324.97 516.33 1236.55 620.88 1155.46 726.06 1315.78 726.37
00000282 00000120 1028.42 287.13 401.32 596.95 1139.89 527.35 1329.03 525.99 1244.62 633.63 1163.63 736.60 1323.49 734.79
00000283 00000121 1028.60 293.73 400.48 592.82 1141.09 532.19 1330.54 531.68 1245.97 638.62 1163.93 741.11 1324.47 740.12
00000284 00000122 1027.54 294.22 399.06 591.77 1139.75 531.24 1329.06 531.26 1244.06 639.53 1162.29 741.89 1321.96 741.26
00000285 00000123 1026.35 290.88 398.85 603.08 1139.03 527.20 1327.38 529.56 1241.68 636.87 1158.95 742.37 1316.93 743.62
00000286 00000124 1023.15 288.97 402.13 611.68 1136.60 521.84 1325.22 524.23 1238.10 634.38 1157.70 743.81 1313.05 744.53
00000287 00000125 1019.31 285.28 403.17 606.45 1129.62 520.76 1319.14 523.03 1230.26 631.76 1151.71 738.80 1305.67 739.26
00000288 00000126 1016.53 284.82 407.71 603.89 1124.45 518.78 1317.18 522.69 1225.46 628.32 1142.00 730.26 1308.25 731.95
00000289 00000127 1016.68 285.26 407.48 600.56 1121.12 521.18 1314.02 524.53 1220.51 627.81 1138.42 729.29 1305.75 730.84
00000290 00000128 1018.19 282.61 405.36 598.01 1121.15 522.04 1314.86 524.64 1220.02 629.34 1142.78 734.41 1302.53 735.11
00000291 00000129 1019.63 280.89 405.42 603.27 1121.55 521.79 1318.03 523.96 1221.55 629.84 1142.22 734.70 1307.56 735.30
00000292 00000130 1020.93 279.18 405.30 603.27 1123.21 519.48 1319.46 522.80 1222.90 629.54 1143.74 732.58 1309.30 734.20
00000293 00000131 1021.79 279.39 404.37 599.36 1124.05 517.68 1319.28 521.05 1222.95 628.20 1143.92 730.42 1308.58 732.15
00000294 00000132 1022.10 278.33 405.58 599.93 1125.58 516.56 1319.04 519.49 1224.51 625.54 1144.92 726.95 1310.49 728.13
00000295 00000133 1023.08 276.23 405.12 601.89 1127.55 516.56 1319.80 519.40 1226.33 625.12 1147.33 726.57 1311.61 727.61
00000296 00000134 1024.33 276.54 404.42 602.47 1129.36 515.88 1321.39 517.61 1228.34 624.78 1149.41 728.51 1310.63 728.84
00000297 00000135 1025.04 274.33 404.44 604.32 1130.54 515.03 1322.19 516.68 1229.72 624.27 1151.92 728.92 1310.79 729.18
00000298 00000136 1025.51 271.90 404.62 603.57 1129.41 515.14 1323.00 517.18 1229.68 625.12 1148.50 726.77 1312.65 728.11
00000299 00000137 1026.40 271.36 403.53 598.65 1129.86 511.54 1322.09 516.39 1227.56 620.87 1146.19 720.63 1309.12 724.00
00000300 00000138 1026.44 271.73 403.06 589.50 1130.06 508.71 1320.52 511.67 1226.40 611.69 1148.02 714.85 1309.02 716.28
00000301 00000139 1026.83 268.99 403.61 592.12 1130.22 504.19 1320.05 507.09 1226.39 607.42 1149.59 713.10 1306.64 714.42
00000302 00000140 1025.22 265.27 403.43 596.43 1128.57 500.17 1320.08 502.91 1225.34 603.19 1147.77 711.21 1305.35 712.58
00000303 00000141 1025.46 267.34 401.35 600.67 1131.24 492.38 1321.32 501.19 1221.11 600.20 1142.70 706.68 1303.79 714.21
00000304 00000142 1025.84 263.12 404.11 593.72 1126.19 490.34 1321.09 493.25 1219.06 593.54 1143.19 703.94 1300.03 705.39
00000305 00000143 1026.41 258.99 400.93 591.52 1125.30 486.10 1321.07 488.09 1216.61 587.09 1140.85 701.24 1295.11 702.07
00000306 00000144 1025.90 257.21 399.70 592.22 1127.58 480.13 1323.44 492.96 1215.88 586.71 1135.98 691.25 1302.68 702.41
00000307 00000145 1024.60 259.29 399.21 580.37 1128.63 481.82 1319.79 494.89 1215.36 586.67 1138.76 689.06 1296.33 700.85
00000308 00000146 1024.81 260.80 400.12 581.66 1132.12 485.34 1316.63 493.42 1220.93 588.79 1151.29 694.04 1298.33 701.32
00000309 00000147 1023.86 264.92 399.58 588.48 1132.89 488.30 1311.22 496.73 1218.65 591.88 1154.11 700.93 1292.60 708.54
00000310 00000148 1023.71 265.26 399.05 590.99 1132.79 489.51 1310.60 498.13 1218.28 593.41 1153.69 702.73 1292.11 710.45
00000311 00000149 1023.66 266.61 399.74 581.20 1127.55 495.21 1309.17 493.98 1216.88 592.61 1152.84 705.08 1285.00 703.34
00000312 00000150 1023.76 263.00 401.81 589.67 1125.45 492.16 1314.75 491.92 1217.79 593.93 1147.46 706.30 1290.85 705.28
00000313 00000151 1025.48 258.71 400.73 593.77 1128.61 485.37 1322.46 496.05 1217.13 592.25 1140.27 696.63 1302.66 706.03
00000314 00000152 1025.07 258.57 399.17 575.68 1126.09 479.63 1323.66 492.08 1214.94 586.62 1135.32 684.95 1304.32 696.07
00000315 00000153 1022.90 249.85 403.42 587.87 1126.30 474.32 1322.67 490.67 1211.78 581.84 1128.63 678.35 1301.58 692.61
00000316 00000154 1022.06 247.54 402.93 583.56 1123.26 471.31 1317.00 487.67 1203.29 573.86 1124.72 672.22 1294.99 686.53
00000317 00000155 1018.34 245.43 407.13 589.68 1117.51 471.02 1312.32 489.14 1194.10 574.94 1116.43 672.25 1288.90 687.73
00000318 00000156 1014.82 250.34 407.62 589.03 1110.47 472.29 1305.53 493.60 1181.74 578.00 1105.62 673.95 1277.19 692.22
00000319 00000157 1012.09 257.84 407.89 585.99 1103.72 479.51 1298.65 499.73 1171.69 586.73 1098.00 679.66 1269.57 697.27
00000320 00000158 1017.26 263.78 401.79 590.97 1098.47 490.22 1292.14 505.58 1165.32 597.40 1099.00 698.94 1255.92 711.71
00000321 00000159 1014.25 270.66 405.50 592.33 1097.96 491.64 1287.46 508.23 1164.65 598.81 1100.17 701.86 1251.82 715.85
00000322 00000160 1011.45 268.87 408.18 599.38 1094.33 496.62 1287.76 513.11 1163.75 602.05 1093.64 700.33 1263.25 713.20
00000323 00000161 1006.64 265.67 411.84 605.49 1096.98 492.34 1291.28 510.00 1164.06 604.78 1092.25 697.38 1266.86 712.48
00000324 00000162 1010.88 270.27 406.24 594.49 1095.47 494.91 1287.26 512.71 1164.69 600.32 1094.98 700.34 1257.84 714.75
