Video ID: 	iVDNiyiBRxw
H: 	1080
W: 	1920
FPS: 	23.976023976023978

FRAME INDEX X0 Y0 W H [Landmarks (5 Points)]

00001748 00000000 778.96 211.86 446.83 591.80 917.40 413.81 1122.69 407.93 1045.16 550.74 945.29 646.95 1104.21 641.12
00001749 DELETE   773.33 200.29 452.92 602.07 915.96 408.34 1119.07 402.01 1041.75 543.20 941.65 637.79 1102.04 631.37
00001750 DELETE   768.39 178.52 456.28 612.11 910.17 401.28 1116.72 394.97 1033.66 532.66 940.80 631.84 1096.63 624.58
00001751 DELETE   760.22 161.39 451.74 617.79 900.29 401.72 1102.72 395.23 1020.94 521.35 931.83 624.89 1094.90 618.73
00001752 00000004 758.35 153.00 442.18 614.67 892.56 398.95 1093.00 391.13 1016.44 507.68 929.11 616.70 1092.28 609.16
00001753 00000005 755.91 153.86 439.78 608.79 885.13 393.03 1087.48 384.78 1010.50 499.75 926.56 611.73 1089.25 603.76
00001754 DELETE   751.63 148.41 435.87 609.58 878.55 380.71 1079.52 372.33 1005.69 492.76 923.07 606.03 1080.32 598.19
00001755 00000007 748.65 153.37 429.05 595.51 868.64 370.56 1074.49 359.65 993.74 481.88 915.58 600.12 1070.92 590.45
00001756 00000008 742.96 155.28 425.77 588.05 861.05 363.35 1068.16 353.30 984.51 474.69 903.92 593.45 1059.60 585.08
00001757 00000009 738.05 155.10 428.23 586.24 856.77 357.92 1064.09 348.98 978.24 466.26 900.62 587.75 1055.29 579.83
00001758 00000010 731.95 153.77 430.82 586.51 855.54 351.40 1057.51 344.29 975.86 462.21 900.05 582.53 1048.42 575.74
00001759 00000011 727.78 146.45 429.53 591.45 853.16 350.88 1052.71 342.67 973.86 456.98 902.95 582.76 1045.41 575.22
00001760 00000012 716.49 136.24 438.14 599.69 848.86 362.82 1046.62 338.24 976.74 451.06 903.06 590.74 1048.04 568.03
00001761 00000013 711.36 135.62 436.68 601.40 844.59 361.42 1041.77 335.16 974.25 449.42 901.13 592.95 1041.85 569.20
00001762 00000014 706.94 131.59 437.30 615.03 840.61 361.59 1038.22 332.41 971.46 448.63 902.12 600.90 1039.31 575.28
00001763 00000015 706.89 138.03 431.07 622.26 839.51 361.75 1035.07 334.76 969.99 451.32 901.55 610.86 1035.42 587.13
00001764 00000016 703.95 141.57 431.79 611.51 836.67 360.44 1033.81 338.35 965.27 462.87 894.45 606.14 1029.23 586.18
00001765 00000017 701.24 145.33 434.91 600.95 834.24 363.84 1030.29 345.97 960.12 470.63 885.58 597.72 1025.39 581.05
00001766 00000018 698.93 142.33 436.30 602.65 831.59 366.11 1026.25 346.37 957.53 476.43 884.29 596.83 1026.96 578.31
00001767 00000019 696.17 144.29 437.62 601.56 831.12 369.55 1027.17 349.85 957.99 480.04 883.36 598.11 1028.90 579.54
00001768 00000020 694.54 138.84 440.01 612.58 829.41 374.26 1026.88 352.32 958.21 483.50 881.81 601.35 1032.04 580.85
00001769 00000021 694.22 136.20 438.68 617.77 828.70 375.80 1026.71 355.13 958.07 484.95 879.26 603.37 1031.22 584.05
00001770 00000022 694.26 142.11 440.70 614.68 827.81 378.62 1030.99 358.39 958.96 484.67 876.91 603.08 1039.78 584.06
00001771 00000023 695.32 141.88 439.21 614.39 827.77 380.49 1032.96 362.72 958.89 485.05 873.17 603.44 1042.59 586.57
00001772 00000024 695.27 142.79 441.33 613.82 829.05 382.28 1034.32 363.16 962.42 487.79 875.00 604.24 1045.26 586.26
00001773 00000025 694.10 144.89 445.05 614.28 831.68 383.00 1030.48 364.88 960.59 492.02 876.30 604.27 1036.68 587.64
00001774 00000026 694.05 144.30 447.09 619.08 834.00 383.55 1031.30 367.62 961.58 493.45 874.98 605.48 1034.91 590.72
00001775 00000027 699.93 143.92 440.47 615.03 833.37 383.76 1036.37 366.16 963.39 491.76 878.76 609.06 1042.75 592.61
00001776 00000028 701.27 143.65 442.21 617.41 836.97 383.18 1040.52 365.27 968.39 493.81 882.72 609.26 1046.39 592.52
00001777 00000029 702.28 141.79 442.72 622.19 839.79 382.23 1042.51 365.03 972.22 493.72 885.26 609.42 1047.76 593.29
00001778 00000030 705.87 142.01 438.26 614.55 843.79 383.00 1044.26 367.62 974.42 492.56 887.35 606.68 1047.05 592.46
00001779 00000031 707.58 144.04 435.60 609.59 843.80 382.57 1044.79 367.25 974.56 491.38 887.60 606.16 1047.04 591.96
00001780 00000032 708.26 145.14 435.27 605.29 843.33 381.59 1043.89 367.09 972.48 490.23 886.67 603.34 1046.26 589.91
00001781 00000033 707.49 147.00 436.72 604.04 842.00 381.20 1042.45 365.66 971.02 490.04 885.71 603.16 1045.01 588.70
00001782 00000034 707.73 145.33 435.56 604.31 841.88 380.87 1041.38 365.68 970.11 489.78 885.34 602.52 1043.42 588.28
00001783 00000035 709.21 147.89 434.80 601.92 843.86 381.24 1043.44 366.19 972.68 488.82 887.02 601.99 1045.95 588.02
00001784 00000036 708.62 147.07 436.77 600.19 844.98 382.23 1042.47 366.04 972.79 488.57 892.68 604.23 1043.66 589.28
00001785 00000037 710.80 146.49 438.34 605.32 848.68 384.60 1045.69 370.44 977.32 490.31 892.53 606.50 1045.69 593.57
00001786 00000038 711.34 152.04 441.81 604.70 852.45 384.95 1049.34 370.07 981.65 491.13 891.81 605.99 1049.26 592.46
00001787 00000039 718.74 146.37 436.69 615.06 854.29 378.80 1049.13 371.05 977.00 487.84 890.26 602.34 1046.28 595.03
00001788 00000040 724.78 148.19 433.58 611.20 857.22 378.45 1052.37 371.02 980.08 487.48 893.62 600.06 1050.69 593.05
00001789 00000041 728.75 144.46 432.51 616.75 861.15 378.15 1055.11 371.20 983.88 487.54 895.85 599.58 1053.66 592.92
00001790 00000042 732.53 145.29 431.15 620.23 864.74 379.04 1057.66 370.89 988.61 490.15 897.84 602.26 1057.21 594.99
00001791 00000043 733.94 146.29 436.18 625.03 867.93 380.70 1064.12 371.30 995.13 495.19 902.92 606.52 1066.85 597.89
00001792 00000044 736.47 145.10 439.00 629.61 871.17 383.02 1068.14 373.42 999.61 499.15 909.81 610.55 1072.12 601.60
00001793 00000045 738.13 151.64 440.68 626.47 873.01 386.70 1071.73 375.19 1003.82 502.66 910.59 613.53 1077.38 603.13
00001794 00000046 740.98 152.35 440.18 626.36 875.94 386.36 1074.14 375.27 1006.20 503.90 910.57 611.23 1079.58 601.10
00001795 00000047 742.84 144.48 440.01 631.08 880.60 382.45 1078.48 376.04 1010.83 496.22 910.09 604.44 1082.27 597.70
00001796 00000048 740.53 149.74 442.05 627.00 880.21 370.72 1078.30 367.02 1007.82 491.68 909.73 602.88 1074.79 598.49
00001797 00000049 742.35 147.11 439.54 633.10 879.99 366.89 1079.36 368.58 1004.40 489.59 909.10 609.01 1063.80 609.73
00001798 00000050 739.47 150.17 441.96 635.95 878.34 370.60 1076.06 371.53 1002.02 494.37 907.49 614.72 1058.32 615.25
00001799 DELETE   738.79 152.07 441.54 638.87 879.41 386.71 1074.51 384.75 1003.56 507.89 913.53 627.08 1057.70 625.93
00001800 00000052 739.88 162.08 445.38 630.90 877.21 400.34 1078.02 393.52 1005.63 522.37 913.81 636.94 1067.39 632.21
00001801 00000053 740.90 162.42 446.43 629.42 878.90 397.25 1083.28 391.49 1010.67 518.85 915.55 633.84 1074.22 629.35
00001802 00000054 738.59 146.75 441.01 634.16 880.45 381.86 1080.68 381.14 1010.82 498.53 912.47 612.79 1074.72 611.39
00001803 00000055 731.30 147.73 438.66 618.84 870.23 367.53 1071.56 366.70 997.65 481.97 906.68 598.66 1063.56 596.96
00001804 00000056 725.09 145.72 437.21 621.07 861.98 366.35 1064.39 366.96 985.17 483.83 896.15 600.20 1047.68 600.38
00001805 00000057 722.82 148.31 436.28 632.51 859.55 379.94 1057.77 376.24 983.73 492.93 893.58 613.10 1052.88 609.78
00001806 00000058 722.29 153.80 438.34 630.02 862.78 388.74 1059.65 381.27 989.18 503.20 891.87 614.58 1059.78 608.33
00001807 00000059 723.55 149.98 436.29 620.20 866.08 387.70 1062.59 382.72 991.99 498.19 892.36 604.20 1062.17 599.63
00001808 00000060 722.11 150.19 434.22 615.51 861.63 382.53 1059.81 380.32 986.03 492.81 886.84 599.19 1056.49 596.83
00001809 00000061 712.16 158.32 441.07 602.83 857.22 386.46 1056.18 377.73 986.49 494.43 884.16 600.20 1053.51 592.20
00001810 00000062 707.49 157.88 444.42 605.10 855.19 386.94 1048.99 380.10 980.79 494.42 880.77 599.06 1046.68 592.44
00001811 00000063 705.42 154.91 444.55 607.55 853.26 386.65 1046.53 378.91 979.24 493.86 879.32 598.33 1044.94 590.78
00001812 00000064 704.28 150.63 443.46 610.29 849.70 383.77 1042.98 375.31 974.78 492.26 877.99 597.67 1042.12 589.27
00001813 00000065 700.72 149.75 444.62 611.64 844.52 380.13 1038.39 371.31 967.19 491.71 874.49 596.99 1038.21 588.25
00001814 00000066 694.21 150.66 446.93 606.48 837.78 378.23 1033.38 367.06 963.05 488.80 872.81 596.47 1034.82 585.73
00001815 00000067 693.14 144.95 442.30 609.90 833.67 376.83 1030.01 364.36 959.92 484.18 871.07 595.46 1032.86 583.78
00001816 00000068 691.29 146.15 442.62 604.12 828.26 373.34 1028.92 360.29 957.53 479.54 871.61 593.19 1033.49 580.47
00001817 00000069 689.05 142.50 442.20 604.20 824.73 369.49 1025.24 355.89 954.99 471.85 868.99 588.65 1031.52 575.14
00001818 00000070 686.91 138.31 443.31 608.84 819.38 368.72 1020.52 355.28 948.29 470.02 864.32 587.72 1027.89 574.25
00001819 00000071 685.40 143.76 441.98 606.02 815.60 366.96 1016.29 355.70 942.86 466.97 863.38 592.38 1018.11 580.94
00001820 00000072 685.40 143.84 437.32 604.11 815.22 364.35 1013.70 355.50 940.36 465.13 861.90 593.89 1008.61 585.03
00001821 00000073 682.39 139.42 439.76 606.41 811.90 359.19 1010.83 348.38 937.20 459.44 857.63 588.46 1006.65 578.00
00001822 00000074 680.75 139.78 440.51 595.63 813.02 356.35 1009.88 346.15 936.59 454.43 852.47 576.18 1007.80 566.27
00001823 00000075 680.44 140.38 439.88 592.22 810.61 357.09 1009.06 346.61 934.38 455.60 849.85 574.73 1008.70 564.57
00001824 00000076 682.60 141.60 436.59 598.63 810.20 366.19 1010.34 352.74 934.53 461.17 849.75 584.27 1011.94 571.95
00001825 00000077 685.43 143.60 433.09 600.65 812.01 372.88 1013.75 362.10 938.49 472.80 849.23 589.43 1017.20 579.42
00001826 00000078 686.35 145.52 437.08 602.16 811.71 374.91 1014.51 363.81 937.33 479.01 849.82 590.21 1019.07 579.67
00001827 00000079 685.53 147.93 438.13 601.97 810.90 371.37 1013.85 362.14 935.34 477.92 848.08 592.71 1013.27 583.58
00001828 00000080 685.99 150.50 437.53 599.33 810.03 368.74 1013.16 361.67 932.35 477.41 847.17 593.84 1008.23 586.63
00001829 00000081 687.25 148.14 436.23 601.36 809.71 368.73 1015.06 361.33 933.03 476.73 845.65 591.68 1013.32 583.85
00001830 00000082 687.58 148.28 436.04 597.55 809.85 368.06 1015.96 361.82 933.17 474.89 844.76 587.68 1017.51 580.69
00001831 00000083 687.72 146.48 436.65 601.17 810.15 367.36 1016.86 361.27 934.01 475.18 844.31 586.72 1018.04 579.97
00001832 00000084 688.05 147.77 436.44 600.23 810.30 366.97 1016.75 361.04 934.08 476.06 844.19 587.32 1017.53 580.80
00001833 00000085 688.06 147.82 436.52 603.56 810.49 367.34 1016.41 361.79 933.13 476.43 844.24 588.68 1016.57 582.39
00001834 00000086 688.98 144.73 436.27 607.62 811.19 367.74 1015.52 362.35 932.34 476.61 847.84 591.52 1012.74 585.20
00001835 00000087 688.81 145.66 435.03 607.98 811.99 366.92 1011.67 360.46 931.80 477.59 852.33 596.09 1004.75 589.19
00001836 00000088 687.95 145.25 436.32 612.51 811.51 369.37 1010.74 362.39 931.74 480.31 851.54 598.96 1005.74 591.74
00001837 00000089 687.43 145.98 437.52 613.45 811.40 370.89 1010.36 363.31 933.00 482.27 850.98 599.43 1007.45 591.63
00001838 00000090 687.15 147.55 438.91 612.50 812.06 372.78 1010.87 365.55 933.25 484.33 851.83 600.60 1008.38 593.02
00001839 00000091 686.88 147.22 439.18 614.32 812.45 374.05 1011.67 367.96 933.93 484.83 849.99 600.83 1008.48 594.13
00001840 00000092 687.15 149.73 438.71 613.26 811.23 374.87 1012.05 368.48 933.54 487.37 848.50 603.04 1009.62 596.17
00001841 00000093 687.24 147.92 438.53 614.64 811.60 377.10 1014.25 371.36 934.88 488.41 848.02 603.66 1012.63 597.21
00001842 00000094 687.53 144.04 437.83 621.65 812.65 378.82 1016.38 374.31 936.93 488.80 846.26 604.91 1014.88 599.45
00001843 00000095 688.09 144.53 437.78 624.54 812.61 380.93 1017.75 376.24 937.16 489.38 845.53 607.53 1018.78 601.72
00001844 00000096 688.35 145.48 438.94 628.81 813.06 382.03 1018.52 377.26 937.19 490.85 841.58 607.35 1022.45 601.67
00001845 00000097 689.49 147.06 437.99 626.82 813.70 382.39 1020.05 377.38 937.23 490.63 840.23 606.64 1024.00 600.89
00001846 00000098 688.47 144.60 440.59 632.65 814.79 381.83 1019.42 377.97 936.53 491.48 839.25 605.43 1022.36 600.73
00001847 00000099 688.79 145.65 439.20 623.96 814.00 381.95 1021.14 376.46 938.38 490.65 842.18 604.38 1025.14 598.21
00001848 00000100 689.93 146.37 438.75 619.51 814.41 381.89 1020.78 376.28 937.91 490.52 843.73 603.13 1024.25 596.95
00001849 00000101 691.09 143.97 438.59 617.55 815.95 381.26 1019.10 374.33 938.49 490.73 851.47 604.16 1020.27 596.79
00001850 00000102 691.50 143.77 437.57 621.03 821.10 379.43 1016.12 372.55 939.23 488.55 861.59 606.73 1013.68 599.61
00001851 00000103 691.77 141.50 441.67 632.48 823.74 377.46 1017.25 372.72 939.21 487.15 856.46 604.66 1014.56 599.05
00001852 00000104 692.17 140.92 441.10 637.58 824.21 376.99 1018.44 372.48 939.68 487.18 856.94 606.70 1015.42 601.18
00001853 00000105 692.05 142.81 441.67 636.13 824.17 376.20 1019.56 371.49 939.98 486.68 856.90 607.33 1015.86 601.56
00001854 00000106 692.59 144.32 440.71 637.21 825.97 375.25 1020.65 371.43 941.55 487.76 857.13 609.42 1015.04 604.35
00001855 00000107 692.50 143.43 440.94 641.95 828.73 375.90 1021.03 372.41 944.50 489.01 859.32 610.72 1016.67 605.85
00001856 00000108 692.44 141.27 441.11 639.73 830.51 378.00 1021.80 374.69 947.01 488.88 859.81 607.24 1017.80 602.54
00001857 00000109 692.76 141.26 440.20 635.67 829.10 377.67 1023.05 371.17 948.84 487.25 863.01 608.99 1020.06 601.64
00001858 00000110 694.43 138.84 437.54 624.59 832.55 376.20 1024.48 369.10 953.58 481.66 871.48 605.95 1017.92 598.50
00001859 00000111 693.34 141.23 438.93 622.15 829.83 374.46 1025.80 365.26 952.43 479.36 870.81 602.22 1024.45 592.56
00001860 00000112 692.61 141.39 440.39 624.20 830.09 371.92 1026.49 363.51 951.71 477.56 873.08 602.98 1022.91 593.95
00001861 00000113 692.62 135.80 438.30 626.74 830.21 372.97 1024.31 363.90 952.39 478.41 874.04 603.46 1019.11 594.03
00001862 00000114 693.57 139.76 436.79 609.72 827.72 374.87 1021.32 363.29 950.64 479.91 873.20 597.30 1020.33 585.83
00001863 00000115 693.03 136.93 437.77 613.31 825.31 374.36 1023.17 362.94 950.00 478.01 868.19 595.52 1025.29 584.22
00001864 00000116 692.50 139.67 438.10 613.20 824.88 374.89 1023.19 363.46 949.79 478.92 866.22 596.04 1025.54 584.76
00001865 00000117 692.88 142.78 438.45 609.37 823.95 376.70 1023.31 364.42 949.35 481.31 865.57 596.59 1027.19 584.65
00001866 00000118 692.30 139.76 438.01 612.99 823.94 379.67 1023.95 368.11 951.20 484.90 864.60 599.36 1027.34 588.22
00001867 00000119 692.34 141.82 437.18 615.79 826.37 382.75 1023.67 372.00 952.72 489.58 864.51 602.67 1025.61 592.46
00001868 00000120 689.39 139.54 442.42 628.45 827.71 384.44 1022.54 374.20 954.08 490.62 860.87 601.71 1027.43 592.03
00001869 00000121 688.77 138.88 443.55 638.99 828.66 385.48 1023.00 375.84 954.92 494.17 857.41 604.64 1028.61 595.35
00001870 00000122 688.35 137.82 444.33 641.20 828.32 385.86 1023.47 377.45 955.23 493.76 857.95 606.08 1028.71 597.84
00001871 00000123 690.32 138.47 442.87 633.70 830.34 386.88 1022.62 377.60 955.48 491.26 863.55 605.11 1027.28 596.06
00001872 00000124 691.54 138.97 441.01 628.44 830.03 385.31 1022.47 375.15 955.21 488.56 875.52 611.50 1024.18 601.40
00001873 00000125 691.05 138.43 440.76 633.57 828.72 385.17 1023.86 375.25 955.22 490.55 873.21 613.15 1024.78 603.18
00001874 00000126 691.52 139.70 439.97 626.24 828.05 385.36 1023.90 375.25 955.78 490.58 875.04 612.66 1024.35 602.54
00001875 00000127 689.60 138.38 442.55 635.31 828.29 383.81 1020.99 374.68 954.81 490.50 873.10 614.76 1020.86 605.83
00001876 00000128 688.13 138.65 442.58 642.10 825.46 384.65 1020.13 377.01 951.50 491.33 863.63 613.01 1022.34 605.15
00001877 00000129 687.11 138.72 442.20 635.91 822.57 384.60 1017.22 375.25 948.54 490.57 862.38 610.17 1020.57 600.78
00001878 00000130 687.70 144.68 439.73 622.21 818.01 384.59 1017.56 376.06 943.90 490.04 855.35 607.40 1020.80 598.82
00001879 00000131 688.66 145.13 438.76 618.59 817.41 386.96 1018.48 377.99 943.55 490.77 852.36 604.84 1023.63 595.93
00001880 00000132 689.27 144.33 439.12 621.98 821.14 389.12 1020.83 378.91 948.44 489.67 859.12 608.57 1025.58 598.50
00001881 00000133 691.93 141.11 438.86 627.10 826.96 389.14 1024.29 377.74 954.06 489.94 866.85 610.87 1028.19 599.87
00001882 00000134 693.61 140.01 439.59 625.41 831.04 388.86 1032.30 373.27 963.42 491.46 872.06 608.54 1042.18 594.10
00001883 00000135 696.26 142.75 440.24 615.99 839.53 384.88 1036.88 366.16 973.31 484.80 888.79 606.53 1047.98 589.01
00001884 00000136 698.95 139.22 438.54 621.52 846.46 384.28 1036.97 366.72 978.77 483.24 892.22 604.78 1045.99 588.21
00001885 00000137 697.54 135.96 440.60 634.06 849.89 389.90 1038.81 372.81 985.62 489.54 896.35 611.50 1049.99 595.45
00001886 DELETE   696.08 149.61 443.62 636.15 848.86 403.01 1041.21 384.25 984.29 511.93 897.92 632.57 1051.28 615.54
00001887 00000139 694.82 163.17 443.41 627.51 845.39 414.65 1040.38 387.48 983.85 523.41 892.64 640.71 1046.93 616.25
00001888 00000140 695.80 156.25 440.63 633.05 848.01 413.73 1039.17 391.02 981.72 524.23 894.26 640.42 1049.58 620.58
00001889 00000141 687.72 148.48 446.66 629.70 837.26 403.86 1032.76 383.34 973.23 510.33 887.04 625.70 1046.55 607.23
00001890 DELETE   682.27 147.90 448.14 626.19 823.35 394.41 1022.07 375.72 957.54 496.94 870.70 612.90 1037.30 595.94
00001891 00000143 680.75 149.04 443.72 627.12 814.80 388.24 1007.94 374.18 941.38 494.21 861.75 612.75 1019.59 599.84
00001892 00000144 680.08 152.19 444.10 635.14 810.92 392.30 1006.98 380.87 937.51 500.94 850.81 619.24 1017.27 608.81
00001893 00000145 681.11 160.43 447.66 623.50 812.94 395.96 1012.01 382.17 940.69 507.11 852.18 620.90 1020.46 608.75
00001894 00000146 684.14 155.49 446.03 622.83 822.98 399.78 1018.06 383.12 951.47 508.91 865.59 621.27 1027.86 606.35
00001895 00000147 684.98 150.44 445.49 625.03 827.08 396.18 1020.12 380.36 954.75 509.18 871.38 620.24 1027.35 605.72
00001896 00000148 683.62 153.83 444.93 620.16 824.46 394.80 1016.79 378.74 950.61 509.91 867.71 618.13 1024.76 603.55
00001897 00000149 680.68 159.89 445.73 617.34 818.10 396.82 1012.71 380.64 945.38 510.23 860.23 618.18 1023.70 603.95
00001898 00000150 680.28 152.11 441.81 620.77 815.21 396.06 1009.02 379.30 944.40 506.09 858.09 614.59 1022.78 599.54
00001899 00000151 680.79 136.87 437.14 626.95 813.49 389.02 1006.49 370.39 945.43 491.54 860.79 607.66 1023.47 590.54
00001900 00000152 675.65 138.38 437.48 615.97 807.08 379.61 1000.91 361.60 936.85 480.46 855.48 598.23 1017.45 581.73
00001901 00000153 671.70 127.84 434.64 621.39 802.12 375.05 996.55 356.27 931.29 473.09 851.31 594.77 1012.20 578.22
00001902 00000154 667.49 132.81 438.02 617.60 797.13 372.20 991.11 352.87 924.70 471.28 847.28 593.01 1006.22 575.86
00001903 00000155 668.06 135.25 437.67 613.53 797.26 372.84 990.68 352.45 924.31 470.85 848.11 592.29 1006.21 574.53
00001904 00000156 669.40 132.63 437.08 616.40 799.10 372.26 992.17 351.74 926.71 470.48 850.69 593.09 1007.58 574.99
00001905 00000157 673.54 131.95 436.02 617.79 801.96 370.40 995.32 352.03 927.80 470.72 852.60 594.27 1007.31 577.90
00001906 00000158 676.76 133.88 434.37 613.58 804.98 370.47 1000.44 354.23 930.72 470.36 853.35 594.64 1007.41 579.96
00001907 00000159 677.97 137.43 436.42 607.47 805.61 371.58 1003.94 353.31 932.95 471.52 854.94 592.93 1013.97 576.39
00001908 00000160 678.26 137.03 436.58 607.33 805.59 371.52 1003.79 352.34 933.10 470.18 854.40 590.83 1015.66 573.49
00001909 00000161 678.35 134.88 438.37 615.42 807.02 370.27 1002.09 353.44 932.12 470.95 858.87 595.46 1011.39 579.83
00001910 00000162 679.82 138.30 435.88 620.76 809.80 371.81 1000.09 356.24 934.81 473.26 865.22 604.76 1006.66 590.29
00001911 00000163 678.77 133.99 439.26 637.84 812.84 376.20 1002.10 359.89 941.30 479.86 869.57 613.59 1009.04 598.10
00001912 00000164 678.96 137.26 443.28 633.84 814.60 379.55 1009.22 362.07 945.91 481.26 869.68 612.75 1017.96 596.14
CROP_BBOX: 434 0 1446 971
