Video ID: 	236aB8qRwV8
H: 	1080
W: 	1920
FPS: 	25.0

FRAME INDEX X0 Y0 W H [Landmarks (5 Points)]

00106319 00000000 847.32 257.39 397.57 509.58 920.09 451.80 1099.75 474.69 978.26 591.15 929.84 645.38 1075.85 664.05
00106320 DELETE   848.04 246.56 396.21 512.34 918.08 444.96 1098.46 462.14 986.22 579.01 933.19 638.15 1079.09 650.65
00106321 00000002 852.41 235.24 390.92 510.80 916.82 437.54 1094.05 450.42 986.01 567.88 934.46 629.82 1080.85 639.54
00106322 00000003 853.35 220.43 390.54 520.52 916.52 425.24 1093.03 440.01 982.33 559.92 931.82 621.36 1080.13 633.29
00106323 00000004 853.20 211.07 388.44 527.38 918.93 419.64 1092.92 432.68 985.39 551.97 935.18 618.24 1080.70 628.91
00106324 00000005 851.42 199.13 392.55 533.48 920.99 416.50 1094.66 427.91 987.56 542.77 936.94 613.54 1079.69 623.11
00106325 00000006 851.77 193.99 392.50 533.73 922.46 415.72 1096.24 425.74 990.89 540.84 938.64 612.76 1081.62 621.29
00106326 00000007 851.21 190.78 394.75 534.27 922.70 413.54 1096.28 422.62 991.86 538.10 941.68 607.12 1085.76 614.48
00106327 00000008 850.25 187.83 396.98 533.93 923.89 407.84 1099.01 418.10 991.72 532.76 940.72 601.12 1084.31 609.50
00106328 00000009 850.77 184.80 398.51 532.24 925.72 402.29 1102.68 414.56 992.30 526.65 938.36 595.71 1084.31 606.03
00106329 00000010 843.24 188.97 398.16 531.63 929.50 403.78 1109.06 411.22 997.28 513.37 943.17 600.76 1087.65 606.97
00106330 00000011 842.51 186.00 398.44 541.37 931.53 398.82 1109.51 406.03 1000.53 507.29 945.33 599.60 1086.94 605.80
00106331 00000012 843.53 181.13 396.86 540.34 933.28 394.14 1110.82 401.51 1003.75 500.12 943.91 594.85 1085.55 601.62
00106332 00000013 845.11 169.50 403.56 548.24 928.82 391.66 1108.67 399.86 995.63 505.72 943.49 595.45 1077.00 602.72
00106333 00000014 846.48 168.63 401.65 545.34 929.10 390.53 1109.94 398.99 995.73 505.53 943.23 593.18 1079.38 600.53
00106334 00000015 846.98 170.27 400.65 541.06 929.85 392.19 1110.83 400.59 997.72 506.24 943.12 591.41 1082.20 598.68
00106335 00000016 845.48 170.86 402.09 539.50 928.65 393.33 1109.73 401.64 996.93 506.10 941.69 592.06 1080.64 599.20
00106336 00000017 844.30 169.32 403.73 540.77 928.07 391.63 1110.40 399.63 997.84 506.12 941.78 591.60 1081.22 598.62
00106337 00000018 840.43 167.66 405.69 544.97 928.53 391.32 1110.92 397.62 1002.31 506.47 944.93 592.48 1083.83 598.20
00106338 00000019 835.89 172.63 400.13 535.63 936.58 390.26 1114.56 394.85 1020.19 490.29 951.13 582.56 1094.27 586.49
00106339 00000020 836.37 166.60 402.84 533.66 937.36 384.49 1117.22 385.34 1018.19 487.10 954.57 573.62 1096.10 576.06
00106340 00000021 831.13 161.21 408.38 529.59 936.57 378.54 1118.97 374.75 1024.47 482.92 964.18 570.49 1104.42 568.34
00106341 00000022 828.61 157.48 407.56 528.31 935.02 373.83 1117.93 368.87 1025.05 476.78 964.81 567.25 1104.35 563.89
00106342 00000023 827.35 154.25 407.13 532.42 933.92 370.88 1115.33 366.25 1024.76 473.89 965.02 566.64 1102.43 563.45
00106343 00000024 827.70 150.19 404.59 534.69 933.46 370.23 1114.48 364.74 1025.24 473.01 966.04 567.10 1102.25 563.18
00106344 00000025 828.54 148.82 404.06 536.40 934.74 369.07 1114.85 363.62 1026.44 470.34 967.60 564.99 1104.41 561.18
00106345 00000026 830.89 148.81 405.31 538.74 937.53 369.22 1117.38 363.66 1029.30 469.56 971.05 565.07 1108.02 561.35
00106346 00000027 840.77 157.53 401.70 527.89 943.68 371.71 1122.23 365.58 1035.22 472.76 970.74 571.42 1106.03 565.84
00106347 00000028 834.93 158.40 407.69 529.37 940.44 376.57 1122.41 370.08 1031.24 479.94 972.17 569.38 1110.65 565.03
00106348 00000029 829.29 159.32 410.56 528.45 933.43 380.19 1115.72 372.83 1022.68 482.32 965.90 572.30 1103.67 566.97
00106349 00000030 830.35 154.50 408.65 529.98 924.97 383.48 1104.51 379.83 1012.57 484.50 953.98 577.42 1089.85 573.67
00106350 00000031 822.00 156.15 405.68 527.45 912.06 388.13 1091.49 382.60 997.35 490.84 942.52 579.44 1077.59 575.03
00106351 00000032 814.11 159.97 403.41 523.84 901.99 389.77 1082.68 384.45 986.68 492.72 931.35 580.22 1070.18 576.48
00106352 00000033 804.80 159.49 397.99 532.32 889.04 388.17 1068.42 384.81 967.77 491.86 916.10 585.00 1056.12 581.94
00106353 00000034 794.23 168.27 398.20 534.72 879.56 391.01 1055.18 388.08 954.35 493.89 903.64 588.49 1040.59 586.35
00106354 00000035 782.72 173.57 401.46 528.83 871.76 391.21 1048.94 392.95 946.67 493.32 890.22 589.50 1028.35 591.33
00106355 00000036 777.63 167.67 405.04 535.68 857.58 394.58 1044.22 393.21 938.31 502.94 879.65 592.45 1020.50 590.73
00106356 00000037 770.57 166.42 403.87 534.31 852.92 394.99 1036.99 394.94 933.45 505.50 875.92 594.33 1011.69 593.88
00106357 00000038 756.41 172.51 405.10 526.80 838.71 400.01 1019.99 398.86 911.42 505.27 863.40 592.34 1001.16 591.27
00106358 00000039 744.36 176.61 407.16 532.06 831.02 404.86 1011.18 404.56 907.30 507.20 854.86 592.34 997.54 590.95
00106359 00000040 732.92 183.27 401.73 524.10 817.11 408.81 1000.63 400.95 899.07 514.85 850.22 605.79 991.03 599.12
00106360 00000041 721.37 191.50 401.67 518.57 805.62 418.85 987.91 409.08 887.46 520.33 840.15 608.36 982.72 600.38
00106361 00000042 712.93 193.95 404.20 518.64 797.88 422.49 976.55 413.45 876.22 524.06 833.56 613.00 974.12 605.44
00106362 00000043 705.21 200.48 404.53 513.26 792.01 424.82 972.25 418.32 872.50 528.20 824.19 613.92 966.57 608.00
00106363 00000044 698.94 205.04 406.46 518.20 788.70 427.43 969.45 419.41 870.17 530.78 822.58 617.81 964.62 610.77
00106364 00000045 694.21 205.65 410.09 527.43 785.49 429.86 968.71 420.89 870.23 538.45 821.32 625.03 963.77 617.06
00106365 00000046 698.31 205.39 408.27 535.13 782.96 433.91 963.94 424.47 871.23 547.74 819.42 632.32 962.31 624.01
00106366 00000047 696.43 208.61 408.55 529.49 783.68 435.97 964.91 426.28 874.72 547.74 818.29 630.89 963.01 622.55
00106367 00000048 687.64 218.03 413.79 524.82 785.92 436.37 974.00 425.85 877.88 545.60 824.24 628.04 971.17 618.64
00106368 00000049 684.27 217.22 417.63 528.50 785.40 436.11 975.21 425.83 878.38 546.92 822.77 626.39 973.08 617.29
00106369 00000050 682.36 217.66 417.53 533.55 783.99 436.49 973.99 426.49 876.73 548.70 819.86 627.48 973.63 618.59
00106370 00000051 677.66 219.20 419.12 535.70 780.82 437.81 972.42 426.32 875.90 550.24 820.17 630.53 974.33 620.41
00106371 00000052 673.40 216.02 420.11 544.35 778.41 436.63 966.70 426.13 872.89 550.82 817.25 631.01 969.52 622.13
00106372 00000053 670.75 217.23 421.07 537.28 774.35 438.87 963.71 426.66 868.86 554.61 814.53 632.31 965.71 621.85
00106373 00000054 676.80 208.35 418.40 545.72 770.15 443.12 957.00 430.92 869.03 561.74 811.53 636.40 961.96 625.50
00106374 00000055 672.49 218.14 420.60 534.93 774.76 439.98 964.86 427.67 868.68 554.46 814.25 633.58 966.19 622.87
00106375 00000056 678.64 219.79 420.38 533.85 781.12 441.26 973.03 427.48 876.95 552.54 822.20 632.65 975.81 620.45
00106376 00000057 691.42 221.02 417.21 531.81 789.72 440.74 979.13 426.62 883.88 548.85 832.70 631.55 982.76 619.45
00106377 00000058 698.83 218.32 418.22 532.04 800.30 440.28 985.07 425.72 895.78 549.29 847.12 629.23 992.62 616.82
00106378 00000059 708.18 214.32 415.94 533.67 808.87 437.57 993.93 423.90 904.68 548.79 854.37 627.67 1000.40 616.07
00106379 00000060 731.26 202.85 412.43 544.10 824.80 433.32 1008.33 422.86 923.18 546.15 864.62 624.96 1017.22 615.41
00106380 00000061 740.42 201.29 413.70 541.84 831.69 433.91 1015.80 422.06 931.57 549.27 874.27 624.27 1025.46 613.53
00106381 00000062 748.37 205.43 411.25 527.10 846.53 427.98 1034.16 417.57 936.87 539.56 882.95 615.45 1037.45 606.61
00106382 00000063 757.15 203.87 415.22 530.42 855.77 425.38 1040.83 414.26 945.29 531.18 892.47 612.63 1045.68 603.06
00106383 00000064 767.09 201.92 414.16 525.69 867.46 422.99 1048.17 412.10 955.82 523.99 905.01 606.76 1052.03 597.70
00106384 00000065 778.52 197.44 408.04 521.12 875.51 420.57 1054.93 407.65 965.77 519.68 916.00 604.76 1058.89 594.10
00106385 00000066 786.79 193.15 408.82 524.50 880.51 416.71 1061.77 404.36 969.89 520.78 922.18 604.62 1064.97 594.20
00106386 00000067 794.39 186.75 407.80 530.88 885.75 413.34 1068.31 399.87 974.55 519.48 926.82 605.00 1070.20 593.61
00106387 00000068 801.22 183.80 407.16 535.48 893.89 408.72 1074.80 397.40 981.24 513.68 930.69 602.18 1073.30 592.99
00106388 00000069 805.73 181.03 407.29 534.46 898.00 406.27 1079.40 395.44 984.88 510.43 934.64 600.57 1076.96 591.69
00106389 00000070 806.84 182.71 411.08 531.06 899.17 407.30 1081.03 395.82 984.74 508.53 933.64 597.66 1078.27 588.31
00106390 00000071 813.84 178.08 411.04 533.66 903.61 405.25 1086.09 400.07 984.80 507.08 935.79 595.14 1077.35 589.40
00106391 00000072 818.18 176.83 410.62 527.65 908.60 403.77 1086.31 396.17 986.85 507.58 939.18 591.16 1080.57 583.63
00106392 00000073 821.04 171.65 408.99 528.48 911.74 401.50 1088.28 393.54 989.91 505.68 942.09 586.41 1083.34 578.53
00106393 00000074 824.92 171.56 407.70 526.85 914.09 400.74 1090.92 393.66 991.19 503.54 943.96 586.95 1083.18 579.77
00106394 00000075 829.73 166.79 409.08 525.49 915.06 398.30 1092.32 389.52 997.62 502.87 949.76 589.16 1082.46 581.44
00106395 00000076 832.44 167.10 407.37 528.63 918.28 396.76 1097.03 389.18 1002.98 504.20 951.97 589.88 1084.89 583.18
00106396 00000077 833.85 165.11 407.47 538.29 921.96 394.25 1099.00 388.42 1005.33 501.82 954.10 588.24 1086.31 582.53
00106397 00000078 833.44 164.51 409.04 544.70 922.81 395.05 1100.54 389.00 1005.74 501.54 954.94 593.69 1084.44 588.00
00106398 00000079 835.50 163.91 407.04 538.52 923.01 394.42 1100.29 389.23 1004.77 501.47 954.50 592.10 1082.38 587.37
00106399 00000080 836.11 165.05 406.13 534.82 922.62 394.62 1100.47 388.41 1005.67 501.72 954.18 590.25 1084.64 584.69
00106400 00000081 836.75 165.00 404.00 529.66 920.82 394.21 1098.86 387.73 1003.11 501.08 951.11 587.80 1084.73 582.05
00106401 00000082 838.33 163.47 403.59 527.88 919.96 392.49 1095.90 385.67 1000.01 498.11 949.67 585.11 1082.32 579.25
00106402 00000083 838.14 162.32 402.93 529.11 919.59 392.06 1093.79 385.25 997.67 496.35 949.68 584.51 1080.96 578.63
00106403 00000084 838.29 159.62 404.28 544.43 921.71 391.16 1095.70 386.41 998.12 496.30 948.08 586.79 1078.54 582.51
00106404 00000085 832.45 161.09 408.71 550.05 916.93 389.45 1092.20 388.61 986.35 500.32 943.58 587.01 1081.61 586.08
00106405 00000086 832.83 162.23 409.17 550.37 915.22 391.56 1090.75 389.65 984.54 502.02 943.21 587.64 1084.37 585.60
00106406 00000087 833.92 164.14 408.50 542.23 913.77 392.48 1090.42 390.69 981.80 502.52 940.24 585.73 1085.09 583.62
00106407 00000088 833.81 166.04 408.65 536.51 913.11 391.84 1090.04 390.20 980.62 501.76 939.68 583.09 1085.62 581.08
00106408 00000089 833.69 164.96 408.69 534.28 912.86 390.10 1090.02 389.42 979.95 501.37 939.03 581.27 1082.70 580.14
00106409 00000090 841.36 162.15 404.06 534.34 917.74 390.05 1090.64 387.45 990.11 499.33 943.62 577.33 1085.69 573.71
00106410 00000091 843.51 160.96 403.60 535.31 918.71 389.00 1090.68 387.02 989.75 498.89 944.30 576.87 1085.81 573.70
00106411 00000092 844.28 160.69 403.71 536.52 919.12 388.81 1090.62 386.85 989.48 497.59 944.86 577.63 1085.28 574.52
00106412 00000093 845.05 161.13 402.37 535.75 918.61 388.76 1090.21 387.17 987.74 497.52 943.23 576.80 1084.72 573.86
00106413 00000094 845.25 160.70 404.79 537.03 919.33 388.87 1092.24 387.73 989.57 499.99 944.78 577.73 1087.53 574.86
00106414 00000095 847.51 160.01 405.19 540.66 922.99 389.59 1097.97 388.91 994.89 501.14 947.49 578.06 1092.54 575.50
00106415 00000096 845.99 169.54 404.12 530.22 923.86 391.55 1102.94 389.10 990.27 496.30 948.51 575.37 1095.23 573.93
00106416 00000097 854.71 170.02 397.32 521.64 934.39 394.27 1109.57 393.56 1004.12 495.66 951.70 578.68 1103.20 577.62
00106417 00000098 861.72 172.38 398.32 525.13 939.55 395.13 1115.77 392.16 1010.43 495.80 959.49 577.55 1114.88 574.95
00106418 00000099 873.82 169.62 390.67 528.19 945.41 397.61 1120.20 392.20 1015.33 498.29 966.71 578.92 1120.91 574.89
00106419 00000100 881.01 165.23 389.57 529.06 951.22 397.23 1125.32 390.64 1020.54 500.36 974.20 579.36 1126.66 574.54
00106420 00000101 887.23 161.40 401.20 530.69 953.90 382.51 1135.51 385.10 1022.12 502.55 983.69 578.53 1129.94 580.76
00106421 00000102 895.41 157.07 404.43 536.45 967.85 385.53 1142.73 385.58 1035.26 496.51 994.58 574.33 1142.76 572.76
00106422 00000103 908.86 160.02 401.54 528.64 978.90 384.79 1154.24 385.35 1046.11 497.02 1003.86 577.09 1145.57 576.51
00106423 00000104 915.34 158.61 401.00 532.31 985.66 384.78 1159.17 386.99 1051.31 497.49 1007.02 576.52 1150.21 577.17
00106424 00000105 920.07 158.33 399.60 533.46 989.41 386.39 1161.38 388.87 1053.62 497.98 1009.26 576.06 1151.11 576.74
00106425 00000106 923.65 158.88 398.87 534.06 991.25 386.10 1164.89 388.62 1055.31 497.39 1010.31 576.14 1153.92 576.57
00106426 00000107 925.33 160.22 399.81 532.78 992.97 385.50 1166.16 388.92 1056.69 498.06 1012.37 575.99 1155.46 576.94
00106427 00000108 926.61 160.38 399.29 532.39 994.44 385.73 1167.07 389.48 1057.27 497.07 1013.04 575.82 1155.92 576.97
00106428 00000109 927.37 159.85 400.60 534.91 994.70 385.92 1168.15 389.71 1057.70 497.60 1013.37 576.12 1158.12 577.18
00106429 00000110 928.73 161.02 398.78 533.51 995.31 386.23 1168.40 389.80 1058.20 497.72 1014.18 576.95 1157.47 577.94
00106430 00000111 928.72 162.16 400.46 531.52 995.25 386.99 1169.12 390.23 1058.39 497.40 1014.55 577.88 1158.28 578.57
00106431 00000112 929.52 161.89 400.68 532.12 995.38 387.26 1169.87 390.24 1059.15 498.04 1014.68 578.15 1158.47 578.66
00106432 00000113 929.00 161.56 400.94 533.39 996.30 387.88 1171.19 389.67 1061.86 498.79 1017.21 579.06 1161.34 578.66
00106433 00000114 926.70 167.86 395.04 525.14 1002.55 390.10 1175.00 392.47 1067.34 494.19 1018.54 580.87 1165.47 582.14
00106434 00000115 928.40 168.81 395.32 526.05 1007.44 390.81 1181.98 391.51 1077.07 493.07 1023.84 579.21 1174.84 579.29
00106435 00000116 928.40 169.15 400.48 526.94 1011.05 391.94 1188.37 390.58 1085.05 492.92 1029.01 576.89 1184.69 575.42
00106436 00000117 929.96 168.23 400.85 526.85 1012.36 391.32 1190.16 389.65 1086.90 494.62 1032.50 576.39 1187.91 574.82
00106437 00000118 930.30 167.28 398.48 524.78 1010.39 390.81 1187.55 390.16 1083.19 495.24 1029.24 577.33 1184.02 576.41
00106438 00000119 930.09 168.27 395.32 525.12 1007.83 390.99 1181.67 390.45 1076.69 494.22 1026.05 580.38 1176.20 579.36
00106439 00000120 928.95 169.11 394.43 522.14 1004.65 391.89 1176.90 393.83 1069.93 494.36 1020.89 581.27 1167.71 582.11
00106440 00000121 926.43 170.61 393.65 522.80 1002.37 392.02 1172.32 395.35 1065.77 495.11 1017.24 581.85 1160.88 584.02
00106441 00000122 930.75 164.01 399.65 536.94 996.70 388.18 1168.97 389.52 1059.89 497.49 1017.50 579.79 1157.51 578.99
00106442 00000123 931.26 163.50 398.58 543.72 997.55 384.84 1166.62 386.82 1055.99 490.96 1017.34 580.48 1150.38 580.48
00106443 00000124 929.68 159.56 398.82 550.99 996.93 383.45 1165.33 385.65 1053.87 488.40 1017.14 581.43 1149.92 581.61
00106444 00000125 923.61 166.37 394.77 542.69 996.07 381.12 1159.93 387.89 1050.56 485.69 1010.31 579.45 1147.14 585.18
00106445 00000126 924.01 167.02 394.60 543.35 995.47 381.64 1159.37 387.64 1049.56 486.89 1011.23 581.86 1148.29 586.87
00106446 00000127 925.31 167.00 395.74 541.44 998.12 382.98 1162.22 388.81 1052.94 486.63 1012.38 580.42 1150.99 585.27
00106447 00000128 928.31 168.34 394.68 540.85 999.48 383.56 1163.24 388.39 1052.89 487.90 1013.96 580.84 1152.50 585.06
00106448 00000129 932.78 168.43 391.01 537.09 1001.32 385.02 1164.91 389.85 1052.61 490.49 1015.46 580.68 1154.56 584.75
00106449 00000130 937.07 169.52 390.25 532.50 1003.63 389.82 1169.15 393.52 1055.88 492.20 1017.83 580.80 1160.83 583.64
00106450 00000131 941.55 171.83 388.94 529.86 1007.14 392.94 1176.06 396.15 1059.97 495.13 1020.54 584.06 1164.37 586.70
00106451 00000132 946.08 175.53 385.87 527.00 1007.92 397.71 1176.89 399.21 1058.80 499.30 1021.24 588.48 1165.41 589.83
00106452 00000133 951.45 177.57 385.84 531.16 999.10 396.92 1175.43 403.26 1054.77 515.92 1023.57 591.02 1171.23 597.85
00106453 00000134 948.85 182.26 386.88 523.22 1010.55 404.11 1179.74 405.68 1064.40 511.29 1026.35 593.70 1169.45 594.82
00106454 00000135 952.90 180.52 386.32 525.84 1015.17 404.37 1187.40 403.80 1071.48 509.52 1031.31 590.50 1179.10 590.13
00106455 00000136 957.33 181.59 383.85 522.39 1020.31 405.12 1191.54 403.09 1077.65 509.84 1035.28 588.51 1184.74 587.00
00106456 00000137 959.27 182.73 386.85 521.86 1027.12 406.25 1200.31 403.91 1089.01 511.34 1042.40 588.50 1192.49 587.29
00106457 00000138 968.42 178.76 388.83 527.54 1036.46 395.68 1216.58 410.03 1103.26 520.09 1053.05 588.60 1202.45 600.90
00106458 00000139 971.07 180.29 395.50 518.83 1048.86 397.37 1227.95 409.08 1116.89 514.36 1064.70 585.21 1211.03 594.75
00106459 00000140 974.66 170.87 400.26 527.54 1061.04 389.47 1239.22 402.89 1127.19 504.75 1071.25 578.84 1215.42 589.89
00106460 00000141 978.26 165.50 402.75 534.58 1068.53 387.77 1248.32 400.32 1137.01 500.42 1078.91 580.67 1217.31 591.29
00106461 00000142 984.04 160.90 401.12 540.97 1073.41 384.48 1254.00 394.89 1147.80 497.52 1082.56 580.37 1220.92 588.63
00106462 00000143 979.56 165.07 402.62 541.61 1068.85 387.41 1249.76 402.89 1134.98 499.11 1074.81 580.88 1215.67 593.91
00106463 00000144 974.25 171.03 401.77 537.22 1062.50 391.52 1241.28 406.17 1127.94 502.00 1070.91 583.46 1212.02 595.39
00106464 00000145 969.59 178.24 397.23 532.25 1051.49 396.84 1232.37 410.75 1120.30 509.55 1061.50 586.39 1211.18 597.75
00106465 00000146 957.79 181.89 397.78 526.96 1037.19 406.95 1221.50 408.76 1110.89 520.32 1056.33 596.68 1208.23 598.92
00106466 00000147 948.77 185.78 399.69 524.98 1027.54 412.89 1210.54 412.02 1101.43 521.88 1050.48 601.13 1200.21 600.29
00106467 00000148 940.85 195.41 397.20 524.36 1020.93 421.50 1197.68 421.18 1090.31 528.92 1042.77 606.38 1187.04 606.31
00106468 00000149 934.10 200.31 396.67 521.32 1014.53 421.19 1192.71 423.00 1085.20 527.85 1033.47 609.36 1178.42 610.98
00106469 00000150 930.00 200.98 395.18 530.51 1010.16 421.80 1187.88 425.47 1079.97 531.27 1026.88 610.11 1174.95 613.18
00106470 00000151 925.19 203.64 398.46 535.55 1007.07 421.82 1184.58 427.52 1077.13 532.11 1021.78 611.15 1171.74 615.61
00106471 00000152 928.70 195.69 398.53 549.18 1003.03 418.68 1179.07 425.37 1071.93 538.32 1015.59 613.40 1167.76 618.39
00106472 00000153 923.55 196.02 401.45 547.64 998.52 420.29 1172.79 426.58 1067.96 540.00 1015.83 616.83 1161.41 621.44
00106473 00000154 922.42 194.39 398.77 546.42 993.02 421.76 1164.85 426.70 1059.72 541.13 1013.86 616.61 1158.00 619.99
00106474 00000155 919.40 192.28 400.07 548.54 990.03 422.86 1162.92 427.23 1056.51 541.72 1009.66 617.87 1155.33 621.07
00106475 00000156 919.33 192.40 400.27 546.73 992.57 422.93 1165.13 425.93 1063.28 542.45 1014.49 617.70 1159.84 619.68
00106476 00000157 919.23 197.60 402.61 534.54 1003.04 424.97 1180.72 426.72 1082.54 539.91 1021.82 613.92 1171.16 615.40
00106477 DELETE   919.23 204.76 400.91 519.63 1022.93 426.67 1207.25 422.28 1114.48 534.11 1049.57 607.13 1200.13 604.60
00106478 DELETE   933.13 198.38 396.97 527.97 1047.90 422.33 1229.64 415.86 1148.83 530.61 1072.29 605.16 1224.22 601.16
00106479 00000160 940.27 197.76 393.77 528.50 1061.61 421.32 1243.87 414.07 1167.92 529.67 1085.35 606.69 1236.49 602.29
00106480 00000161 945.29 199.75 392.63 538.95 1072.66 420.39 1252.50 416.41 1178.70 527.65 1090.99 609.83 1241.34 608.18
00106481 00000162 945.09 201.05 393.36 540.93 1075.09 420.81 1253.89 416.01 1182.95 528.32 1093.14 611.55 1242.96 609.26
00106482 00000163 942.42 199.34 393.44 539.81 1071.83 420.96 1250.91 414.75 1180.42 527.72 1094.21 613.32 1240.65 609.42
00106483 00000164 939.92 199.79 392.34 533.46 1066.87 421.49 1246.09 413.33 1175.90 528.69 1094.06 614.27 1235.94 608.59
00106484 00000165 936.80 199.43 392.01 525.42 1063.45 420.79 1243.56 410.93 1172.79 527.23 1095.53 613.39 1233.02 606.15
00106485 00000166 936.07 199.43 390.63 521.06 1062.56 419.42 1242.22 410.01 1171.14 524.92 1094.82 611.26 1230.32 604.39
