Video ID: 	nNGf0_c3U_s
H: 	1080
W: 	1920
FPS: 	23.976023976023978

FRAME INDEX X0 Y0 W H [Landmarks (5 Points)]

00025301 00000000 458.87 186.81 413.21 507.09 654.00 365.36 802.51 317.16 834.92 447.04 759.04 586.84 853.76 545.37
00025302 DELETE   459.25 149.09 409.77 542.57 655.50 355.90 808.27 310.36 838.42 440.02 751.26 581.75 851.06 541.76
00025303 DELETE   457.48 127.24 406.20 554.67 657.20 334.10 812.26 299.40 844.15 422.16 733.84 566.14 838.59 536.75
00025304 DELETE   449.06 98.35 405.92 574.86 648.47 318.39 807.85 299.31 839.10 400.98 715.59 535.72 836.77 520.26
00025305 00000004 445.72 97.02 416.05 568.30 650.84 304.57 812.15 295.87 833.77 390.30 713.21 523.49 837.85 515.74
00025306 00000005 449.11 88.91 416.80 574.00 656.02 296.82 826.02 298.56 834.25 387.75 717.06 519.47 846.22 518.68
00025307 00000006 452.90 103.94 419.51 559.86 667.99 300.19 834.92 305.95 841.88 393.87 719.56 520.25 848.43 523.07
00025308 00000007 462.52 120.61 412.64 544.53 676.11 299.57 844.87 304.36 853.74 398.51 724.80 522.50 855.86 525.34
00025309 00000008 474.78 131.61 406.17 535.47 691.56 300.46 859.98 309.87 870.34 402.58 735.32 522.87 865.99 529.71
00025310 00000009 486.75 123.48 403.16 541.94 708.86 300.74 874.80 316.94 881.42 403.49 744.64 522.12 874.21 533.51
00025311 00000010 488.03 113.81 414.30 556.11 726.11 297.90 885.94 319.66 894.65 401.95 754.84 518.24 879.61 533.96
00025312 00000011 489.91 117.96 418.43 553.79 738.40 293.90 873.34 323.08 900.52 396.11 766.25 500.39 872.17 524.26
00025313 00000012 500.00 126.84 418.75 537.66 761.64 295.19 893.52 332.88 921.57 399.78 783.66 501.17 883.74 531.19
00025314 00000013 518.32 132.09 417.99 548.88 790.22 289.14 917.84 342.30 942.06 421.73 793.55 524.83 895.17 568.86
00025315 00000014 530.50 147.05 420.41 546.19 816.21 301.46 929.04 354.91 963.05 432.75 816.93 530.49 902.46 576.05
00025316 00000015 536.21 170.44 426.11 535.97 821.11 300.26 939.13 354.18 968.30 440.03 817.56 534.96 903.95 581.59
00025317 00000016 536.42 164.52 425.65 542.55 819.74 301.58 936.00 351.34 968.47 436.48 817.66 533.86 903.52 577.16
00025318 DELETE   531.09 150.69 422.77 551.60 812.08 300.49 931.47 349.80 963.78 428.73 812.47 528.11 905.77 571.01
00025319 00000018 523.43 134.33 419.97 556.80 785.10 291.47 916.11 332.01 945.22 418.59 797.40 527.37 902.10 561.91
00025320 00000019 516.23 139.21 412.38 547.67 763.42 292.68 900.56 324.09 932.80 412.46 787.55 531.70 892.57 559.05
00025321 00000020 509.09 141.38 405.41 545.91 745.15 304.16 889.95 312.73 920.23 420.94 780.21 545.34 885.95 554.89
00025322 00000021 515.91 148.63 396.92 527.28 739.06 312.70 881.57 308.77 911.37 417.77 778.75 541.15 883.90 536.76
00025323 00000022 503.37 156.25 403.55 530.71 731.71 316.43 866.18 306.65 920.41 423.76 777.37 539.03 870.29 534.78
00025324 00000023 519.62 145.58 394.95 531.06 741.81 312.87 884.40 308.74 908.59 420.77 778.58 541.12 883.57 536.56
00025325 00000024 509.74 156.53 408.43 533.33 749.76 306.70 888.31 315.95 921.39 422.22 783.03 545.48 883.14 556.14
00025326 00000025 514.84 152.97 410.98 540.76 762.39 298.98 896.75 326.33 932.19 416.88 789.93 535.53 891.20 560.18
00025327 00000026 519.75 157.01 419.67 539.18 786.26 299.34 908.29 333.08 942.78 426.84 796.16 533.81 890.45 564.07
00025328 00000027 525.96 156.84 420.58 548.99 800.03 301.47 919.73 343.13 954.58 438.58 802.84 541.89 892.61 578.89
00025329 00000028 533.78 156.68 420.76 550.70 802.67 302.98 923.64 345.82 956.22 441.78 806.19 544.29 895.04 582.37
00025330 00000029 532.28 155.59 421.13 547.21 804.74 302.17 922.99 344.09 956.54 438.44 806.16 539.28 894.29 576.48
00025331 00000030 525.25 160.19 420.78 539.78 795.48 299.49 921.05 341.14 950.91 429.90 804.75 534.28 899.15 570.64
00025332 00000031 521.49 154.51 415.04 540.06 773.79 294.36 913.99 331.21 940.86 418.28 791.38 530.70 900.15 563.12
00025333 00000032 514.57 150.24 407.67 544.36 758.44 301.13 896.42 320.60 929.07 420.34 786.36 541.22 889.52 559.70
00025334 00000033 514.93 132.23 398.82 560.28 746.86 309.21 896.24 315.63 918.20 433.59 776.83 555.29 883.52 563.13
00025335 00000034 503.03 143.06 406.50 537.58 742.47 314.87 883.76 320.39 915.28 429.57 781.32 530.79 878.16 537.32
00025336 00000035 504.93 143.61 404.54 534.45 740.99 315.75 884.26 320.06 914.03 430.82 780.53 530.73 878.33 536.26
00025337 00000036 505.25 139.30 403.98 543.95 740.31 313.66 883.38 320.07 914.25 426.44 776.33 530.95 876.03 538.16
00025338 00000037 511.26 141.82 399.28 550.35 744.25 309.28 894.53 317.76 914.97 435.49 774.07 554.17 884.18 563.97
00025339 00000038 507.61 145.85 402.93 547.56 744.89 308.75 895.69 318.95 916.22 434.53 777.60 554.38 888.13 565.45
00025340 00000039 507.56 141.42 403.14 550.94 746.61 307.98 895.58 319.59 916.78 432.35 782.52 553.53 889.41 565.52
00025341 00000040 505.79 142.20 407.47 547.90 752.22 303.54 897.27 320.93 921.61 428.03 786.12 547.99 890.16 564.30
00025342 00000041 504.87 141.89 413.06 550.31 753.24 303.65 896.83 323.71 921.40 426.30 786.09 544.02 892.35 562.67
00025343 00000042 507.66 135.24 411.44 554.94 756.75 299.34 899.03 326.25 921.20 425.26 781.23 539.28 889.30 563.45
00025344 00000043 508.55 136.58 412.63 556.48 762.67 297.86 904.04 332.27 926.55 426.34 781.06 538.51 889.52 568.71
00025345 00000044 513.05 143.08 413.34 549.03 773.04 296.29 907.55 336.03 932.09 424.90 784.57 534.21 889.85 568.70
00025346 00000045 518.22 146.72 413.02 545.10 777.54 297.78 910.65 339.77 934.08 426.53 788.70 534.24 892.64 570.30
00025347 00000046 522.89 143.78 411.58 543.54 782.69 296.15 914.70 339.54 938.11 427.79 792.06 531.64 895.60 568.61
00025348 00000047 522.41 142.54 415.43 540.19 786.77 294.51 917.70 338.24 941.29 425.28 795.25 529.14 897.97 565.69
00025349 00000048 525.61 140.20 415.30 540.50 789.14 295.79 917.62 338.58 943.35 424.18 797.47 528.63 898.14 564.18
00025350 00000049 525.41 143.16 418.05 536.70 792.16 295.09 919.26 339.89 946.53 424.31 799.69 528.82 900.33 566.32
00025351 00000050 526.14 141.82 418.71 539.08 794.88 295.89 919.00 341.73 948.62 424.43 803.28 529.45 901.30 568.46
00025352 00000051 529.19 140.26 416.38 538.31 799.56 296.26 922.28 344.49 951.07 423.60 806.78 527.23 903.33 568.42
00025353 00000052 534.99 140.31 413.99 542.32 803.76 295.65 924.94 346.71 953.41 422.59 809.52 524.91 906.18 568.73
00025354 00000053 533.68 147.52 419.03 550.46 810.33 298.04 919.92 353.05 953.14 422.48 810.66 521.41 895.89 568.98
00025355 00000054 544.09 136.28 405.07 520.12 819.32 302.97 927.89 357.77 958.31 408.63 840.69 510.49 924.42 554.56
00025356 00000055 552.78 145.07 394.87 507.36 816.11 306.81 936.33 363.14 961.05 420.25 829.68 507.32 915.36 552.24
00025357 00000056 558.08 141.16 394.75 520.40 835.35 294.01 925.06 359.28 960.23 421.07 819.26 506.74 891.68 560.74
00025358 00000057 561.02 139.62 398.94 540.76 838.87 293.77 925.47 354.97 961.08 427.94 819.61 510.71 887.42 562.19
00025359 00000058 557.56 139.92 404.53 556.80 840.61 293.47 927.16 357.77 963.85 429.12 817.59 511.33 885.34 566.21
00025360 00000059 553.36 141.03 407.71 563.05 835.57 295.50 927.66 358.78 964.03 424.88 817.25 512.71 892.14 566.84
00025361 00000060 553.07 143.14 404.18 560.04 832.95 294.26 926.05 358.34 961.69 428.62 812.99 513.52 888.35 568.53
00025362 00000061 550.98 142.84 400.05 551.34 826.31 290.13 923.50 357.87 954.99 423.45 810.18 513.27 886.49 570.43
00025363 00000062 544.60 128.83 396.57 520.76 813.32 307.01 921.72 359.89 953.54 410.71 832.45 499.51 914.00 542.02
00025364 00000063 544.05 123.76 402.13 562.77 818.61 295.67 923.81 358.46 955.39 410.51 829.95 515.00 908.54 566.65
00025365 00000064 540.91 122.68 406.89 556.23 811.00 290.99 922.38 354.37 951.46 413.05 805.93 513.70 897.65 567.15
00025366 00000065 541.98 114.48 405.56 568.29 805.64 283.72 920.73 343.01 950.47 413.76 797.34 515.29 892.86 565.77
00025367 00000066 548.14 118.11 398.20 561.22 805.79 284.46 919.78 340.71 952.75 413.89 796.77 513.80 891.57 562.45
00025368 00000067 541.01 95.68 404.06 577.08 807.22 290.49 923.26 348.22 945.46 411.28 803.39 511.56 896.18 558.78
00025369 00000068 544.55 94.58 402.43 572.82 808.48 304.46 935.71 350.49 952.74 411.71 807.80 509.88 905.41 546.73
00025370 00000069 548.98 93.26 402.37 570.46 809.81 301.67 943.65 345.62 952.25 412.35 809.89 507.35 913.26 542.28
00025371 00000070 543.29 99.16 412.43 570.67 817.35 294.25 940.59 344.86 955.14 409.37 817.18 500.92 914.11 542.61
00025372 00000071 545.03 102.76 415.03 571.39 817.00 293.33 938.55 342.13 956.45 409.89 820.12 503.42 914.09 543.35
00025373 00000072 563.73 103.84 396.37 547.29 814.97 299.05 956.89 331.54 966.20 418.25 826.32 514.26 928.42 540.85
00025374 00000073 549.57 101.33 416.92 562.90 815.04 299.04 938.56 337.22 961.44 408.59 829.36 505.65 925.43 536.29
00025375 00000074 550.74 103.26 417.23 564.78 816.82 297.11 934.25 334.10 962.54 410.84 826.12 509.96 915.97 540.19
00025376 00000075 554.63 112.11 413.95 558.48 819.47 295.03 933.95 338.22 964.55 411.48 829.96 514.28 914.24 549.53
00025377 00000076 551.79 119.91 418.83 560.58 819.17 297.77 936.54 341.18 967.96 411.95 829.30 515.64 916.80 551.49
00025378 00000077 551.27 115.70 418.26 560.76 818.76 302.46 941.72 341.85 969.01 413.03 829.09 513.06 922.73 545.60
00025379 00000078 550.42 117.65 416.15 558.18 817.28 303.48 944.22 345.98 965.83 411.54 826.95 507.64 925.99 542.47
00025380 00000079 548.54 119.96 417.36 550.66 818.30 299.56 940.20 344.73 965.58 411.28 826.28 508.86 921.14 546.08
00025381 00000080 545.16 122.99 420.61 560.05 815.72 295.88 934.70 343.56 963.10 408.76 825.58 512.30 917.05 551.75
00025382 00000081 544.44 119.73 422.03 556.44 816.70 296.44 935.40 344.61 963.00 406.43 826.79 509.88 917.52 549.40
00025383 00000082 547.53 122.08 418.01 547.03 821.02 296.10 936.39 346.19 968.36 403.80 834.09 506.91 921.29 547.61
00025384 00000083 552.39 122.84 414.71 550.68 822.16 296.47 934.81 342.39 970.06 404.14 835.65 506.07 922.05 543.63
00025385 00000084 549.84 124.83 418.79 553.83 822.74 298.48 934.75 338.71 970.86 406.95 838.85 509.24 924.70 542.19
00025386 00000085 551.84 123.73 412.31 563.90 823.19 296.69 933.56 340.73 969.32 409.32 828.39 510.44 914.66 546.97
00025387 00000086 553.62 125.02 411.44 556.40 823.69 297.87 934.50 345.49 969.59 407.47 829.87 508.60 914.78 547.79
00025388 00000087 552.71 119.52 407.00 535.84 830.45 303.75 936.54 345.58 966.55 403.58 847.95 502.30 924.29 535.53
00025389 00000088 561.24 117.17 394.16 547.52 820.80 306.49 946.17 342.01 967.20 411.38 839.85 516.76 927.71 545.10
00025390 00000089 553.01 120.45 405.73 566.81 819.22 295.38 934.03 344.16 963.89 412.03 817.45 510.62 909.32 551.60
00025391 00000090 546.18 118.36 407.07 568.35 814.76 297.26 937.19 355.01 955.17 415.52 810.47 513.06 907.61 561.11
00025392 00000091 546.91 125.83 396.85 514.86 805.05 312.36 935.81 356.82 948.45 410.11 820.80 508.37 910.66 543.03
00025393 00000092 540.63 129.49 397.86 510.62 802.68 309.74 927.83 351.29 943.40 409.86 820.06 505.20 905.86 536.96
00025394 00000093 539.25 136.13 400.00 501.12 796.12 312.38 919.16 350.73 939.46 408.51 822.35 504.01 908.77 533.71
00025395 00000094 531.88 139.88 413.90 542.01 799.82 300.39 920.20 349.65 946.78 420.05 809.71 524.52 900.25 566.04
00025396 00000095 529.44 141.82 414.34 534.35 797.40 298.15 917.35 346.76 943.95 422.93 800.78 526.81 893.89 567.72
00025397 00000096 534.99 141.93 410.15 539.32 797.50 296.55 922.24 347.25 944.67 426.89 796.07 527.12 892.13 570.17
00025398 00000097 529.22 143.99 418.63 540.30 796.73 298.18 926.50 348.94 946.76 427.52 795.51 528.77 897.58 571.65
00025399 00000098 532.20 135.57 418.06 549.83 803.09 300.37 929.68 349.68 952.33 428.08 805.85 529.10 902.86 570.60
00025400 00000099 537.39 134.21 416.44 559.67 805.49 301.08 934.61 350.67 957.61 428.69 811.72 531.63 908.22 573.90
00025401 00000100 537.35 130.50 419.86 566.76 806.32 302.44 935.37 350.08 960.24 429.89 814.58 533.64 910.28 574.16
00025402 00000101 542.13 130.29 417.36 569.37 810.34 303.27 934.47 350.89 960.28 430.25 815.80 533.01 908.66 573.80
00025403 00000102 542.84 137.17 417.21 562.25 812.52 302.34 933.46 349.84 963.23 430.36 818.48 533.41 907.76 574.45
00025404 00000103 543.34 140.00 417.55 560.72 813.54 302.60 933.31 349.15 963.42 430.75 819.61 533.41 907.29 573.62
00025405 00000104 542.74 141.12 419.46 562.65 813.45 303.25 933.83 347.79 964.51 432.39 818.73 535.54 906.63 574.35
00025406 00000105 542.91 146.88 418.69 559.22 809.97 302.53 933.38 347.40 963.60 432.14 817.71 537.40 907.87 576.43
00025407 00000106 542.32 148.53 418.38 559.03 810.24 300.70 931.16 344.68 964.58 432.97 816.49 538.99 904.52 577.57
00025408 00000107 544.60 144.75 415.86 563.53 806.76 299.65 932.88 345.24 962.82 433.28 814.02 539.68 905.92 579.52
00025409 00000108 541.47 143.29 418.84 563.53 803.17 299.39 931.54 345.48 962.10 431.83 815.73 541.44 908.87 581.31
00025410 00000109 541.85 140.50 415.18 554.08 804.33 301.08 930.86 346.18 961.70 430.74 817.10 539.01 909.46 577.68
00025411 00000110 539.80 137.36 416.17 556.11 804.27 301.73 929.77 345.64 961.03 430.11 818.25 539.74 910.32 577.25
00025412 00000111 538.08 138.41 416.98 552.29 804.40 302.02 929.76 346.71 961.11 430.25 817.58 539.56 909.13 577.75
00025413 00000112 537.19 137.92 417.26 558.37 802.48 302.08 928.91 346.78 959.93 431.19 815.53 540.80 906.83 579.32
00025414 00000113 539.89 141.17 416.43 564.07 799.20 299.80 932.56 347.59 958.16 431.91 811.47 541.57 906.55 582.90
00025415 00000114 542.39 136.76 414.96 570.54 801.37 301.01 931.14 346.79 957.97 433.40 811.64 542.43 905.49 582.28
00025416 00000115 542.61 139.15 415.76 568.42 803.48 300.59 930.86 345.54 959.13 433.76 813.76 543.76 904.36 582.83
00025417 00000116 541.30 140.21 417.15 560.88 806.05 300.78 930.58 344.70 960.66 432.72 817.79 542.02 906.28 579.99
00025418 00000117 544.26 140.28 414.03 559.68 808.93 299.78 932.19 345.33 961.61 432.27 818.29 540.00 904.82 579.30
00025419 00000118 542.42 140.52 415.46 550.79 808.67 303.17 932.37 344.14 964.53 431.63 821.53 538.51 910.98 573.76
00025420 00000119 545.12 139.04 412.88 555.82 810.03 302.53 932.40 343.48 966.04 430.06 821.66 536.36 910.57 571.65
00025421 00000120 545.18 136.67 414.44 553.07 812.03 300.80 935.01 346.20 965.13 430.44 819.58 533.50 909.94 572.20
00025422 00000121 546.80 137.53 413.89 553.45 814.12 298.20 936.70 346.41 967.52 428.10 821.27 530.99 911.01 572.07
00025423 00000122 547.96 134.37 413.30 558.06 813.81 298.24 935.23 343.69 966.14 428.27 820.55 529.02 910.33 567.75
00025424 00000123 548.80 136.37 413.90 555.16 816.53 298.44 936.20 342.57 967.17 428.84 821.57 527.52 910.18 565.27
00025425 00000124 549.59 136.19 412.09 553.96 818.20 299.09 936.27 340.51 968.61 429.39 824.04 528.52 909.47 564.08
00025426 00000125 549.48 135.65 412.20 550.98 820.51 299.17 937.30 340.93 968.47 429.09 828.05 528.58 910.01 564.02
00025427 00000126 547.90 137.06 412.74 544.10 820.15 300.85 935.38 341.46 967.79 428.02 833.29 530.48 913.14 564.52
CROP_BBOX: 187 0 1188 923
