Video ID: 	cxfMO5bNgHc
H: 	1080
W: 	1920
FPS: 	25.0

FRAME INDEX X0 Y0 W H [Landmarks (5 Points)]

00006103 00000000 885.60 185.98 384.60 512.04 985.91 414.76 1150.17 391.18 1071.13 482.43 1028.81 586.65 1161.33 566.77
00006104 DELETE   874.14 191.85 389.22 510.72 978.77 412.49 1145.61 393.64 1066.37 486.05 1023.01 591.45 1152.16 575.84
00006105 DELETE   869.31 199.20 386.96 498.46 968.96 417.21 1128.41 396.68 1050.50 483.96 1011.44 588.09 1136.68 571.49
00006106 DELETE   857.75 200.37 390.40 499.85 954.51 416.16 1116.36 398.77 1032.07 482.06 990.81 585.02 1120.07 570.92
00006107 00000004 838.40 207.70 395.57 493.40 929.24 421.89 1098.09 400.94 1007.81 487.03 967.44 589.65 1098.03 572.26
00006108 00000005 830.18 208.57 387.60 491.12 910.88 423.13 1070.88 404.40 978.05 494.41 949.55 595.99 1066.15 579.43
00006109 00000006 820.86 212.54 387.56 486.91 897.75 426.74 1050.09 406.47 960.33 500.04 939.91 600.59 1054.99 582.56
00006110 00000007 818.57 210.01 385.85 489.13 891.23 427.30 1038.15 407.57 949.08 502.22 933.75 601.94 1043.37 584.61
00006111 00000008 817.80 206.47 384.92 490.54 892.07 425.96 1037.45 405.04 950.29 501.78 936.38 601.94 1042.44 583.50
00006112 00000009 817.88 208.95 387.10 487.74 896.69 426.14 1044.71 406.28 957.55 498.06 936.92 598.09 1049.37 580.31
00006113 00000010 823.86 210.31 382.64 487.47 905.05 425.26 1056.82 403.06 971.58 494.75 945.03 596.90 1061.32 577.02
00006114 00000011 830.77 208.65 388.97 490.17 909.89 417.98 1078.82 401.57 984.57 491.25 948.04 589.06 1072.21 575.01
00006115 00000012 835.74 207.70 392.33 491.27 919.00 421.26 1089.52 402.87 996.63 493.11 958.77 588.84 1086.79 573.36
00006116 00000013 842.21 203.83 391.47 498.44 931.81 417.38 1099.03 402.61 1009.34 486.10 968.87 585.86 1097.37 573.89
00006117 00000014 847.65 201.61 392.40 500.09 940.59 412.51 1103.89 397.86 1016.85 481.33 977.06 582.57 1103.24 570.78
00006118 00000015 856.52 204.60 389.10 497.00 949.46 412.09 1110.88 399.56 1024.54 481.83 982.38 581.81 1110.68 571.80
00006119 00000016 863.71 204.60 384.59 495.02 955.06 412.04 1115.96 399.92 1028.33 482.09 986.90 582.52 1113.64 572.88
00006120 00000017 866.99 205.11 386.84 496.70 957.08 415.35 1116.79 396.88 1029.97 482.78 991.99 585.52 1118.96 570.49
00006121 00000018 868.71 204.07 389.25 502.14 959.10 417.51 1118.61 395.60 1032.66 483.81 995.10 587.67 1124.10 569.88
00006122 00000019 872.29 202.75 387.58 503.51 961.04 419.23 1119.64 397.51 1033.63 488.09 998.72 590.67 1125.59 573.07
00006123 00000020 873.03 201.45 386.72 504.87 960.62 420.20 1120.35 397.51 1033.74 489.92 1001.07 594.32 1127.59 576.08
00006124 00000021 872.67 201.27 386.16 502.08 959.81 417.58 1119.90 396.26 1033.13 488.62 999.42 592.77 1124.91 575.82
00006125 00000022 869.07 201.32 387.21 502.55 957.37 417.16 1118.54 397.23 1032.27 488.14 997.20 593.23 1122.13 577.52
00006126 00000023 867.40 203.67 384.17 499.93 956.29 416.06 1116.74 397.95 1030.08 486.83 993.07 591.06 1116.98 577.04
00006127 00000024 862.29 202.31 383.84 503.17 953.13 415.07 1114.89 399.10 1028.83 486.23 989.69 592.13 1114.04 579.84
00006128 00000025 854.65 204.68 389.55 503.72 949.86 416.36 1109.50 400.03 1025.99 485.45 987.66 592.12 1111.08 579.44
00006129 00000026 846.46 202.34 394.95 507.21 943.12 415.37 1105.51 397.38 1021.62 485.11 985.76 592.73 1108.55 578.49
00006130 00000027 841.48 202.87 396.05 504.36 938.16 415.12 1099.57 394.58 1017.03 484.87 983.65 591.26 1105.67 574.64
00006131 00000028 838.18 203.26 397.19 502.96 933.16 416.72 1097.83 394.00 1013.76 485.74 979.26 593.12 1101.80 574.76
00006132 00000029 837.21 202.35 395.91 504.40 929.05 417.79 1095.27 393.05 1009.91 485.69 974.46 594.29 1099.34 574.47
00006133 00000030 835.23 201.14 395.07 507.82 926.97 418.17 1092.91 393.78 1008.15 486.55 972.84 596.19 1096.52 576.78
00006134 00000031 835.09 200.23 395.63 511.32 926.98 416.83 1094.47 394.53 1008.94 485.73 971.93 594.65 1097.60 577.02
00006135 00000032 836.03 198.27 395.96 512.45 928.00 415.64 1096.98 395.88 1009.69 486.04 971.47 592.64 1098.79 576.82
00006136 00000033 839.54 200.30 393.84 508.31 930.39 415.44 1099.41 394.59 1011.63 483.94 972.29 590.47 1102.48 573.75
00006137 00000034 842.77 202.83 390.69 504.78 934.12 415.09 1102.36 393.23 1013.19 480.52 975.37 589.67 1105.47 572.14
00006138 00000035 843.42 203.57 392.94 499.52 940.12 416.47 1108.15 397.07 1020.57 481.77 979.72 587.66 1109.63 571.58
00006139 00000036 846.26 198.64 393.70 506.00 946.34 416.31 1112.22 399.82 1027.93 482.08 984.89 588.05 1114.69 574.35
00006140 00000037 849.85 201.01 393.59 507.07 950.15 415.06 1115.07 398.28 1030.75 480.35 988.49 587.11 1118.42 573.42
00006141 00000038 854.94 200.99 390.48 506.65 954.05 415.06 1115.46 398.99 1032.50 480.79 991.41 587.47 1118.74 574.67
00006142 00000039 857.65 199.90 389.95 509.83 955.56 415.19 1116.13 398.96 1033.85 481.46 993.21 589.14 1119.09 576.48
00006143 00000040 860.43 201.06 390.05 509.67 956.59 417.28 1117.62 398.83 1034.87 482.70 995.58 590.99 1122.02 576.65
00006144 00000041 863.71 200.36 388.10 506.82 960.14 417.26 1119.83 400.22 1037.42 483.97 996.75 590.02 1121.78 577.09
00006145 00000042 864.53 198.44 389.11 508.64 962.26 418.24 1121.91 402.27 1040.45 485.81 998.43 590.20 1124.03 577.98
00006146 00000043 868.34 199.61 385.94 507.53 965.10 416.34 1125.24 400.00 1041.74 484.47 999.68 589.73 1125.66 577.42
00006147 00000044 870.27 200.55 384.53 508.22 966.21 415.94 1125.13 400.57 1040.47 484.47 999.03 588.34 1125.90 576.69
00006148 00000045 870.32 199.23 383.95 507.58 967.74 414.66 1126.71 398.94 1043.25 482.42 1000.61 587.23 1127.72 575.31
00006149 00000046 872.72 197.99 382.47 508.27 969.08 412.34 1128.29 395.70 1045.12 480.33 1001.63 585.74 1129.82 573.11
00006150 00000047 873.80 198.19 383.42 508.91 971.38 410.94 1131.01 395.52 1047.81 479.17 1003.60 585.50 1131.69 573.95
00006151 00000048 875.32 197.39 382.86 508.63 973.86 410.40 1134.39 396.51 1052.22 480.08 1005.87 585.32 1133.87 574.97
00006152 00000049 874.80 197.75 383.59 509.95 975.51 411.66 1138.01 397.83 1056.68 481.14 1009.64 587.66 1137.22 577.25
00006153 00000050 875.01 197.84 384.41 511.64 977.15 413.68 1140.48 399.27 1058.78 482.56 1011.45 589.55 1139.00 578.57
00006154 00000051 875.42 194.26 385.59 513.76 977.83 412.10 1142.26 399.00 1060.12 482.83 1012.05 588.95 1140.53 578.90
00006155 00000052 876.26 193.49 385.23 514.43 978.08 411.13 1142.59 397.90 1060.00 482.92 1012.71 589.08 1140.65 578.92
00006156 00000053 876.00 192.79 386.11 515.89 977.91 410.62 1143.39 397.35 1060.48 483.00 1012.53 589.23 1141.31 579.04
00006157 00000054 876.09 193.69 386.41 514.72 977.91 412.08 1143.17 398.22 1060.26 483.78 1012.66 589.26 1141.75 578.55
00006158 00000055 875.96 194.08 386.48 514.08 977.80 412.01 1142.90 397.69 1060.16 484.05 1013.01 589.17 1141.95 578.01
00006159 00000056 875.95 193.55 386.69 514.64 977.35 413.21 1141.67 397.89 1059.63 485.34 1013.79 590.07 1141.76 578.10
00006160 00000057 876.35 193.63 386.57 514.32 977.65 411.35 1143.37 396.53 1060.22 483.46 1013.32 589.40 1142.26 577.83
00006161 00000058 876.90 193.05 386.24 513.43 978.04 411.78 1144.79 397.06 1060.85 482.80 1013.91 589.52 1143.33 577.90
00006162 00000059 877.82 192.57 384.78 511.72 977.89 410.38 1145.04 395.57 1060.94 482.37 1014.01 589.01 1143.29 577.27
00006163 00000060 877.69 193.09 384.70 510.67 978.13 411.28 1144.44 396.38 1061.31 482.34 1014.84 589.01 1143.59 577.17
00006164 00000061 876.67 193.72 385.20 511.22 977.71 411.72 1143.79 396.51 1061.09 482.43 1014.89 590.04 1143.07 577.98
00006165 00000062 876.40 193.66 385.70 512.15 977.20 411.65 1142.84 395.99 1060.71 482.69 1015.01 590.16 1143.17 577.77
00006166 00000063 875.95 193.28 386.12 513.77 977.16 411.20 1142.20 395.73 1060.73 482.27 1014.72 589.70 1143.28 577.50
00006167 00000064 875.74 194.20 386.49 513.88 977.24 412.14 1141.44 396.38 1060.31 482.54 1014.53 589.80 1143.05 577.45
00006168 00000065 875.76 194.84 386.80 513.68 977.61 411.99 1142.85 396.61 1060.77 482.28 1014.18 589.02 1143.97 576.96
00006169 00000066 875.87 193.31 387.10 514.89 977.84 411.42 1143.52 396.23 1061.50 482.06 1014.31 588.87 1144.70 576.90
00006170 00000067 876.64 193.83 386.46 513.57 977.98 411.02 1144.31 395.58 1061.31 482.09 1014.44 589.22 1144.87 577.05
00006171 00000068 876.60 193.37 386.32 514.85 978.17 412.38 1143.05 396.56 1060.98 483.19 1015.06 590.18 1144.67 577.73
00006172 00000069 876.58 194.25 386.94 513.94 978.39 413.22 1143.81 397.65 1061.50 484.94 1015.61 591.53 1144.92 579.33
00006173 00000070 876.47 195.09 385.95 511.58 978.21 412.69 1143.29 397.52 1061.25 483.15 1014.90 589.15 1144.67 577.17
00006174 00000071 876.17 192.53 385.36 513.23 976.97 411.40 1141.31 396.63 1060.18 481.93 1014.30 587.39 1144.22 575.65
00006175 00000072 876.25 192.95 384.03 511.96 976.46 409.77 1139.84 395.81 1059.14 480.52 1012.55 585.67 1142.06 574.63
00006176 00000073 874.43 192.54 385.21 511.60 974.50 411.18 1137.76 395.47 1057.23 480.48 1011.05 586.55 1140.89 573.98
00006177 00000074 871.47 192.83 386.41 511.54 972.49 411.64 1132.74 396.39 1054.07 478.47 1007.58 584.71 1136.55 572.74
00006178 00000075 869.16 196.09 384.33 507.41 969.14 413.26 1127.00 395.00 1049.61 477.96 1004.84 584.94 1132.44 570.69
00006179 00000076 866.28 197.18 386.58 506.06 966.48 416.93 1124.26 397.93 1047.64 481.72 1004.06 587.93 1130.53 573.12
00006180 00000077 863.30 197.33 387.61 508.43 963.66 416.87 1121.33 398.79 1044.84 481.56 1001.78 587.42 1128.38 573.41
00006181 00000078 863.50 195.70 386.10 511.92 962.00 417.18 1119.09 399.00 1042.69 482.18 999.81 588.20 1127.36 574.12
00006182 00000079 863.15 195.56 387.19 512.33 961.64 417.36 1120.22 399.92 1042.81 482.48 999.65 588.68 1128.04 575.12
00006183 00000080 864.77 199.33 386.78 508.20 962.95 418.07 1121.70 400.73 1042.64 482.56 999.05 588.34 1127.66 574.90
00006184 00000081 866.07 198.24 387.95 508.59 965.39 417.68 1122.72 398.97 1044.74 481.26 1001.17 587.14 1129.47 572.40
00006185 00000082 867.38 198.62 385.33 507.71 967.95 418.25 1123.34 400.51 1047.85 482.81 1004.33 586.83 1130.36 572.86
00006186 00000083 868.18 200.22 385.21 504.86 969.67 417.93 1125.10 401.52 1048.80 482.92 1004.51 585.53 1129.88 572.64
00006187 00000084 866.19 196.77 385.66 508.67 967.64 417.93 1124.40 401.17 1047.61 482.16 1002.85 586.29 1129.34 573.21
00006188 00000085 861.87 196.93 382.49 505.64 962.30 417.73 1119.96 402.13 1044.57 483.74 1000.65 586.45 1127.90 574.31
00006189 00000086 847.34 198.57 388.37 500.01 952.66 420.43 1116.21 400.92 1039.23 482.81 995.67 588.59 1125.49 572.33
00006190 00000087 831.29 198.96 395.37 497.70 935.77 421.29 1099.27 392.24 1022.53 481.80 987.15 590.46 1111.68 566.48
00006191 00000088 814.19 197.60 397.13 503.05 911.01 432.20 1072.59 390.52 997.74 493.60 971.13 601.14 1096.98 566.17
00006192 00000089 800.74 206.30 395.79 497.40 899.43 428.98 1062.98 395.69 985.92 498.28 958.65 603.79 1079.99 576.01
00006193 00000090 792.53 216.66 395.73 491.60 893.37 435.32 1052.31 399.84 982.36 499.27 955.62 607.87 1072.50 578.69
00006194 00000091 785.31 215.60 398.37 490.97 887.86 435.72 1046.89 399.15 978.60 499.40 953.03 609.17 1067.93 579.46
00006195 00000092 782.59 216.75 399.27 493.79 885.31 437.48 1046.60 399.22 976.99 501.54 950.33 611.12 1067.95 579.93
00006196 00000093 783.99 216.62 398.81 494.30 886.09 437.15 1048.08 400.11 978.58 501.20 948.84 609.93 1068.80 579.58
00006197 00000094 785.87 219.54 398.70 493.52 889.28 436.55 1048.99 402.21 979.72 503.81 948.90 608.69 1068.11 580.60
00006198 00000095 788.09 217.30 397.39 495.39 892.01 435.91 1051.85 403.62 982.37 503.65 951.53 608.35 1070.54 581.76
00006199 00000096 788.86 218.36 397.46 494.17 894.03 436.06 1053.14 404.08 983.03 503.76 952.90 608.14 1070.91 581.90
00006200 00000097 791.00 218.42 395.58 493.97 894.85 435.10 1054.42 405.93 981.96 504.70 951.86 607.94 1069.60 583.93
00006201 00000098 792.56 216.87 394.11 494.96 895.19 434.44 1054.92 404.95 982.22 504.90 952.21 607.02 1071.34 582.48
00006202 00000099 793.37 214.27 395.91 496.46 895.88 433.23 1056.66 402.44 982.93 503.84 953.47 606.11 1074.19 580.31
00006203 00000100 796.42 213.18 395.42 498.10 899.56 432.89 1060.99 401.63 986.61 504.13 956.64 605.80 1077.85 579.48
00006204 00000101 799.45 210.05 394.78 500.48 901.72 432.05 1063.73 399.69 989.54 503.46 959.58 605.23 1081.35 577.94
00006205 00000102 803.21 213.37 395.55 496.55 905.27 432.32 1066.66 398.20 992.01 502.96 961.95 604.93 1084.06 576.21
00006206 00000103 808.84 211.28 396.06 498.08 910.15 431.79 1070.96 395.82 998.24 500.42 966.97 605.57 1089.87 575.39
00006207 00000104 811.15 209.12 398.03 502.08 912.18 432.04 1074.93 396.27 999.48 499.59 968.06 606.09 1093.76 576.17
00006208 00000105 814.02 211.70 396.99 501.81 914.62 432.33 1078.39 396.06 1000.86 500.19 969.25 608.00 1095.76 577.64
00006209 00000106 821.19 205.65 394.01 500.62 919.98 422.73 1088.12 396.38 1008.36 491.22 975.96 597.31 1097.72 575.19
00006210 00000107 822.24 209.35 394.29 497.59 922.52 423.08 1089.81 397.21 1010.64 493.41 978.54 596.98 1099.82 575.29
00006211 00000108 822.93 209.53 394.51 497.55 923.61 424.07 1090.61 397.81 1011.53 494.46 979.62 597.77 1100.94 575.73
00006212 00000109 822.58 208.46 395.39 499.33 923.41 423.27 1091.04 397.14 1011.13 493.35 979.51 597.46 1101.45 575.50
00006213 00000110 822.30 209.06 395.65 498.60 923.05 423.61 1090.13 396.98 1010.64 493.10 979.31 597.84 1100.94 575.47
00006214 00000111 821.37 209.47 395.20 499.14 922.11 423.71 1089.27 396.45 1010.53 492.74 979.99 598.29 1101.19 575.30
00006215 00000112 821.69 205.18 393.16 501.23 921.33 422.46 1088.63 395.68 1009.68 490.26 977.18 597.06 1098.99 574.58
00006216 00000113 821.04 204.22 392.52 501.88 919.40 422.29 1087.32 396.21 1008.26 490.60 974.05 597.86 1095.66 576.06
00006217 00000114 814.71 208.89 395.84 502.15 915.76 431.39 1079.91 395.04 1003.21 500.51 970.50 606.48 1097.05 576.04
00006218 00000115 814.02 210.49 395.72 498.35 914.16 430.41 1078.57 395.71 1001.89 502.43 969.81 605.56 1096.01 576.36
00006219 00000116 812.84 207.53 396.28 502.15 913.35 430.33 1077.98 395.43 1000.63 501.71 968.68 605.78 1095.48 576.37
00006220 00000117 811.30 209.01 396.76 501.07 912.70 430.87 1076.24 395.26 1000.72 499.53 968.08 604.88 1094.50 574.86
00006221 00000118 809.20 209.99 396.59 500.82 911.47 432.16 1072.46 395.95 998.38 499.62 967.07 605.17 1091.08 574.80
00006222 00000119 808.58 210.24 394.53 499.59 910.02 431.65 1070.93 396.61 996.69 500.43 966.22 605.47 1088.25 576.06
00006223 00000120 806.54 211.64 395.17 498.94 907.27 430.92 1069.28 396.01 993.12 501.00 963.17 605.10 1085.73 575.73
00006224 00000121 805.85 208.20 394.67 502.47 905.23 432.67 1066.98 398.25 989.90 501.35 960.07 606.71 1083.22 578.10
00006225 00000122 806.05 209.94 389.69 502.95 903.80 433.57 1063.55 400.56 983.95 502.14 955.40 606.22 1077.73 579.00
00006226 00000123 805.19 212.97 389.17 498.99 901.58 433.68 1060.06 398.59 981.08 500.33 954.22 606.42 1075.87 577.50
00006227 00000124 805.44 215.97 386.79 495.89 897.03 436.98 1054.96 399.34 974.35 502.20 951.27 609.49 1072.45 578.70
00006228 00000125 801.99 215.19 388.19 495.14 892.43 436.05 1049.71 399.18 970.91 501.54 950.28 609.16 1069.86 578.92
00006229 00000126 799.20 212.17 389.89 496.37 886.85 434.15 1045.58 396.87 966.33 499.95 945.67 607.66 1067.67 576.94
00006230 00000127 794.11 213.27 388.91 496.54 880.93 436.43 1041.84 395.66 964.36 499.10 942.67 612.94 1064.08 579.70
00006231 00000128 784.83 211.87 398.30 502.46 875.82 434.79 1037.34 395.80 957.78 496.09 933.36 610.11 1055.30 578.22
00006232 00000129 776.47 211.95 403.95 504.49 871.07 434.57 1032.84 394.85 954.29 495.93 929.91 611.43 1049.60 579.39
00006233 00000130 770.31 213.56 408.13 501.93 865.67 434.66 1027.34 394.63 948.90 498.26 927.07 611.07 1045.44 578.73
00006234 00000131 766.97 217.72 408.36 498.14 860.38 435.24 1022.77 397.48 941.49 502.58 921.25 611.22 1038.14 580.47
00006235 00000132 763.49 215.99 410.57 498.92 857.26 435.04 1018.59 398.86 937.83 505.14 919.23 612.19 1033.08 582.73
00006236 00000133 761.74 217.48 412.91 502.73 854.24 435.67 1013.88 399.31 932.05 505.65 916.27 613.60 1028.23 583.93
00006237 00000134 762.15 217.38 413.52 504.83 853.98 435.30 1013.26 400.11 931.57 507.52 915.96 614.12 1027.18 585.46
00006238 00000135 764.38 216.52 412.14 503.52 858.25 433.91 1017.65 400.61 936.94 507.81 918.61 612.67 1031.38 585.57
00006239 00000136 769.38 217.96 406.43 500.82 864.60 434.68 1021.87 400.55 942.92 503.74 921.21 610.45 1034.44 582.73
00006240 00000137 775.04 216.81 403.21 501.08 868.73 435.24 1026.18 400.15 949.10 502.09 924.51 610.97 1039.93 582.70
00006241 00000138 778.88 215.72 403.11 497.24 872.19 434.14 1034.11 399.74 953.56 498.92 927.20 610.80 1045.34 583.08
00006242 00000139 785.49 217.88 396.57 494.35 874.41 432.31 1038.12 397.79 955.59 497.12 928.56 610.47 1048.32 582.51
00006243 00000140 789.43 216.65 394.31 494.20 878.13 434.65 1039.55 395.68 960.54 496.64 935.73 610.58 1056.69 578.65
00006244 00000141 792.64 215.33 390.14 493.83 880.58 432.67 1041.65 395.19 963.05 496.57 939.25 609.41 1060.22 578.65
00006245 00000142 796.26 212.13 388.55 496.70 883.21 430.70 1045.17 393.83 964.73 496.93 942.14 609.59 1063.74 579.31
00006246 00000143 799.80 211.64 387.91 495.36 885.46 429.29 1046.94 393.58 965.33 497.16 943.92 608.22 1065.52 578.73
00006247 00000144 801.88 211.05 388.34 495.76 886.85 431.12 1049.17 393.20 965.84 496.71 945.03 608.02 1069.45 576.53
00006248 00000145 804.52 209.08 387.81 493.37 888.39 428.98 1050.17 393.08 966.13 496.02 946.00 606.47 1069.41 576.70
00006249 00000146 808.76 205.79 385.69 494.79 890.07 428.43 1051.50 393.63 965.58 496.59 944.61 604.36 1069.32 575.41
00006250 00000147 810.06 204.86 386.30 495.95 892.80 427.16 1053.95 393.02 968.26 495.84 946.35 602.80 1071.30 574.52
00006251 00000148 811.91 207.01 386.41 495.98 894.57 428.93 1057.47 392.57 969.94 494.62 945.40 603.63 1072.37 573.69
00006252 00000149 815.92 206.67 383.01 496.98 898.63 428.82 1060.44 392.49 972.21 493.43 947.03 601.65 1074.45 571.75
00006253 00000150 817.52 208.05 384.18 497.01 902.52 427.91 1064.39 393.25 976.95 494.35 949.67 600.99 1076.72 572.30
00006254 00000151 821.09 209.06 384.22 497.01 905.82 427.54 1068.78 394.13 979.67 492.68 950.96 601.13 1079.08 573.54
00006255 00000152 823.86 211.24 385.62 494.22 909.63 426.13 1073.75 393.34 983.93 491.68 954.39 600.96 1082.36 573.60
00006256 00000153 829.45 203.95 387.56 495.68 913.42 416.70 1083.23 392.51 994.71 483.93 958.78 589.64 1084.63 569.54
00006257 00000154 830.55 203.91 391.54 500.60 918.31 417.04 1087.29 393.90 998.51 487.46 962.92 594.06 1087.85 574.85
00006258 00000155 833.20 200.72 390.78 500.59 923.55 416.43 1091.21 396.41 1004.49 489.43 967.87 592.40 1091.67 576.03
00006259 00000156 835.90 199.26 391.24 503.54 928.30 415.98 1095.58 397.22 1009.49 486.43 970.92 588.59 1095.86 573.33
00006260 00000157 840.99 201.86 389.16 502.46 933.89 414.95 1101.62 397.70 1014.33 484.33 973.83 586.02 1102.10 572.06
00006261 00000158 845.98 201.39 386.98 501.48 941.13 414.12 1109.56 399.77 1020.74 482.62 975.94 583.77 1105.91 572.25
00006262 00000159 849.50 200.22 385.12 506.68 946.22 415.77 1113.05 402.70 1025.91 483.92 979.30 585.38 1109.70 575.19
00006263 00000160 851.66 199.03 384.45 508.00 949.00 416.04 1113.17 402.45 1028.13 483.48 981.67 585.20 1112.09 574.58
00006264 00000161 853.12 197.62 384.03 508.28 951.65 416.61 1115.01 403.02 1031.29 483.33 985.21 585.96 1115.22 575.24
00006265 00000162 854.70 197.62 383.34 507.07 954.11 416.84 1116.13 403.85 1033.79 484.27 986.46 585.32 1116.48 575.08
00006266 00000163 852.89 197.86 386.06 507.97 953.26 418.73 1116.99 403.86 1034.86 484.00 988.69 587.05 1120.02 575.10
00006267 00000164 854.05 201.33 386.35 505.94 953.96 420.27 1116.51 403.37 1036.30 486.83 991.46 589.62 1121.58 576.11
00006268 00000165 854.84 200.25 389.63 508.93 955.53 419.52 1117.87 403.63 1037.16 488.18 994.05 591.58 1122.08 579.17
00006269 00000166 855.19 198.79 390.06 510.65 956.44 420.36 1118.64 403.93 1038.77 488.95 997.00 593.15 1124.11 580.33
