Video ID: 	HkNKm06Dh68
H: 	1080
W: 	1920
FPS: 	23.976023976023978

FRAME INDEX X0 Y0 W H [Landmarks (5 Points)]

00007782 00000000 566.23 126.16 421.90 678.95 807.43 348.49 971.56 405.77 955.48 469.61 796.23 602.30 933.52 649.28
00007783 00000001 571.94 128.45 424.06 670.02 811.94 346.50 975.94 402.66 958.21 466.54 801.30 597.06 938.96 643.01
00007784 00000002 576.30 127.96 424.61 664.48 817.27 347.34 980.57 401.91 960.39 469.27 804.34 594.74 939.33 639.87
00007785 DELETE   581.50 127.65 423.77 667.30 823.91 348.32 986.41 402.05 967.36 472.09 808.98 597.45 941.76 641.99
00007786 00000004 582.06 127.18 425.29 670.31 826.18 348.76 987.84 403.44 967.91 474.84 810.78 600.14 941.88 645.55
00007787 00000005 584.12 127.27 422.14 672.19 827.16 349.62 988.40 402.96 969.84 475.04 811.20 600.63 943.14 644.85
00007788 00000006 582.81 125.26 422.19 674.53 826.05 348.99 988.71 403.16 971.27 472.93 811.40 600.52 944.85 645.17
00007789 00000007 580.77 125.14 425.04 673.68 824.91 347.25 988.73 401.24 970.42 473.07 810.42 600.24 943.31 644.81
00007790 00000008 579.41 125.40 427.69 672.64 824.89 347.31 988.56 401.57 967.61 476.14 808.59 599.61 940.99 644.54
00007791 00000009 576.49 118.05 428.42 679.18 818.67 350.99 984.76 426.10 961.85 476.90 799.28 583.66 934.18 644.53
00007792 00000010 582.66 127.59 424.04 671.75 823.96 351.37 988.76 405.73 965.84 481.84 804.06 601.93 938.60 647.49
00007793 00000011 578.62 127.20 424.45 672.00 820.79 350.94 985.23 405.99 962.87 481.05 801.40 601.59 935.87 647.70
00007794 00000012 572.59 126.23 426.13 673.88 816.13 349.43 981.31 407.76 959.55 477.21 795.69 598.60 934.11 647.18
00007795 00000013 566.69 127.27 428.88 674.62 809.05 349.69 977.74 410.11 952.08 476.52 787.45 599.14 929.82 649.42
00007796 00000014 562.50 122.97 430.96 688.42 808.55 354.48 975.65 414.39 949.90 483.18 782.38 605.55 924.78 655.64
00007797 00000015 549.67 125.67 446.90 687.96 802.73 364.77 971.52 417.18 947.63 495.29 782.07 612.53 922.13 657.85
00007798 DELETE   553.08 145.80 445.22 683.71 799.17 383.14 968.72 436.14 936.60 519.12 780.91 636.03 916.51 681.10
00007799 DELETE   554.94 170.55 441.84 671.43 803.48 395.05 970.45 446.78 944.79 533.47 786.79 649.75 918.44 693.45
00007800 DELETE   564.70 171.55 437.28 677.43 811.58 394.59 978.26 450.04 950.44 533.78 789.91 654.00 921.57 701.24
00007801 00000019 558.89 163.40 444.41 688.22 814.03 388.34 981.99 447.19 954.67 530.79 793.36 654.36 924.67 704.46
00007802 00000020 560.87 160.54 441.36 692.40 813.16 388.51 977.98 444.89 957.09 527.06 797.25 653.58 925.28 701.78
00007803 DELETE   555.52 163.93 444.51 685.80 807.55 391.26 972.80 446.68 955.83 524.80 795.50 651.37 923.78 698.57
00007804 DELETE   551.03 157.16 446.15 690.18 803.14 388.68 967.43 441.82 952.48 521.05 792.92 646.45 922.68 691.82
00007805 00000023 548.78 151.95 450.02 689.69 799.53 385.33 968.52 437.11 949.90 516.26 789.85 640.35 924.18 684.33
00007806 00000024 546.76 146.02 452.09 689.36 803.17 383.98 972.15 440.50 953.35 510.74 790.94 634.72 927.47 682.43
00007807 00000025 545.68 136.65 452.32 696.98 802.97 380.60 970.44 437.59 954.05 507.67 791.19 631.14 925.22 679.32
00007808 00000026 545.38 133.19 449.89 696.91 802.20 376.70 968.99 433.13 955.08 502.83 791.68 628.65 925.39 676.39
00007809 00000027 545.18 130.57 448.02 697.78 801.14 373.01 967.47 426.68 955.37 498.69 790.57 625.13 925.43 670.68
00007810 00000028 547.58 130.95 442.80 693.40 799.43 369.70 967.56 421.52 955.80 493.82 786.73 620.62 925.41 664.80
00007811 00000029 546.96 133.18 443.58 688.33 800.42 366.17 968.80 418.75 952.74 492.19 784.12 614.56 926.21 659.16
00007812 00000030 543.66 128.36 442.24 691.08 799.89 361.57 967.20 415.30 953.74 485.37 785.77 610.74 926.35 656.32
00007813 00000031 549.42 118.76 430.96 695.38 800.89 359.04 962.94 405.96 952.37 479.00 793.00 606.92 928.33 647.29
00007814 00000032 556.44 120.67 418.74 685.10 793.60 351.85 963.21 405.59 943.25 470.92 787.03 600.91 931.87 644.41
00007815 00000033 545.10 116.49 426.38 683.62 788.23 349.11 958.59 401.45 940.99 465.62 783.94 595.23 930.60 637.03
00007816 00000034 540.49 110.20 422.87 686.44 781.42 345.21 954.91 402.88 937.75 458.38 778.75 589.37 925.49 634.88
00007817 00000035 531.58 106.44 423.42 690.83 769.35 341.67 945.90 403.75 931.41 453.13 770.95 586.39 917.98 635.41
00007818 00000036 523.46 104.68 426.30 687.01 759.50 335.63 936.66 401.24 921.60 444.26 764.51 580.17 909.15 632.14
00007819 00000037 529.53 98.85 415.38 696.06 751.07 332.84 931.91 396.54 911.85 439.88 754.39 578.37 904.08 628.82
00007820 00000038 522.25 101.43 417.15 692.79 741.91 328.72 923.00 392.81 903.93 437.19 746.00 575.10 896.72 625.87
00007821 00000039 514.96 97.36 418.60 695.72 736.18 325.94 919.07 393.34 898.82 436.08 741.26 573.91 891.24 627.22
00007822 00000040 512.28 94.37 414.76 693.73 739.85 330.15 905.88 372.18 897.85 441.80 743.96 588.83 883.01 624.31
00007823 00000041 503.63 92.25 421.17 692.75 733.42 329.41 903.92 369.64 894.01 441.97 740.72 588.28 882.56 622.01
00007824 00000042 499.69 91.82 420.90 696.73 730.93 326.48 900.60 372.32 893.42 437.35 737.25 585.93 879.57 623.99
00007825 00000043 497.26 91.26 420.50 697.07 724.94 325.77 898.88 372.91 890.20 435.27 732.91 584.91 879.00 623.95
00007826 00000044 493.50 89.52 421.83 697.29 722.63 325.57 897.39 373.15 887.96 434.06 732.70 583.92 878.55 622.95
00007827 00000045 492.95 90.42 420.59 695.81 720.98 325.61 895.17 373.40 884.10 434.99 729.99 582.75 875.96 621.89
00007828 00000046 492.07 87.92 420.62 696.24 719.39 326.35 894.94 371.88 884.33 434.79 732.20 583.91 878.18 621.09
00007829 00000047 491.13 86.98 420.69 699.56 718.10 326.69 893.22 371.04 883.02 434.84 731.54 585.08 877.48 621.35
00007830 00000048 493.63 88.40 418.47 696.81 718.04 327.15 893.52 371.00 882.95 434.62 731.71 585.22 877.56 621.13
00007831 00000049 493.32 90.54 418.78 694.84 717.66 327.66 893.57 371.49 882.26 434.99 730.88 584.86 877.53 620.63
00007832 00000050 492.20 89.14 420.78 696.11 717.64 328.28 892.88 370.59 882.78 435.47 732.39 586.18 878.41 620.75
00007833 00000051 492.67 89.39 420.71 698.04 719.42 327.43 893.02 369.96 886.31 435.15 734.37 586.48 879.26 621.34
00007834 00000052 494.34 91.37 420.37 696.94 720.52 326.47 895.14 368.24 889.22 434.44 736.79 588.09 882.27 622.19
00007835 00000053 494.26 92.20 422.81 695.26 722.32 326.58 895.87 368.88 891.10 432.75 740.13 588.46 883.83 623.07
00007836 00000054 496.70 90.90 420.77 697.30 724.66 326.68 896.79 368.23 894.70 432.63 742.04 588.55 885.18 622.54
00007837 00000055 492.77 90.51 426.02 698.59 725.34 325.74 898.53 368.01 895.93 432.15 741.90 587.63 886.68 622.15
00007838 00000056 492.42 89.16 428.26 699.59 726.73 325.70 898.69 366.26 896.32 431.60 744.63 587.35 888.33 620.36
00007839 00000057 493.92 88.26 428.49 699.87 728.28 324.25 899.62 365.19 897.45 430.66 746.18 586.40 888.86 619.54
00007840 00000058 500.79 87.79 422.93 700.85 730.29 324.28 900.26 363.03 897.90 430.22 747.36 586.72 888.57 618.36
00007841 00000059 498.90 87.03 425.42 700.92 729.93 323.92 900.21 362.29 899.49 430.71 749.29 587.60 889.64 618.78
00007842 00000060 499.03 85.73 426.19 704.26 731.77 323.36 901.37 362.14 900.73 430.58 751.13 588.42 891.31 619.87
00007843 00000061 498.02 87.80 427.69 702.50 731.54 324.10 901.71 362.64 899.53 431.39 750.29 588.78 890.70 620.00
00007844 00000062 503.51 85.91 422.78 705.05 734.74 324.50 902.40 362.87 899.99 431.13 751.05 587.76 890.05 619.13
00007845 00000063 504.67 85.21 422.83 706.46 738.10 324.81 904.32 363.26 902.35 432.23 752.81 587.94 890.64 619.47
00007846 00000064 503.07 85.84 425.02 705.72 739.58 324.09 906.21 363.99 903.43 432.87 754.21 588.56 891.91 621.18
00007847 00000065 504.88 87.37 424.54 705.59 740.69 323.84 908.08 364.45 904.83 433.02 754.76 588.81 892.49 622.00
00007848 00000066 505.30 90.48 425.63 701.34 741.07 323.58 909.95 363.71 904.65 433.69 755.15 590.14 894.17 623.08
00007849 00000067 505.55 88.61 426.30 704.49 742.37 323.94 911.60 364.55 905.69 434.73 755.12 590.65 894.53 623.97
00007850 00000068 512.74 89.53 420.98 712.78 735.52 322.29 913.20 384.16 900.89 426.05 753.16 575.73 897.69 623.81
00007851 00000069 510.75 92.90 427.00 711.00 739.95 323.71 915.40 384.04 904.05 428.87 755.98 577.92 900.81 624.72
00007852 00000070 516.22 91.22 423.09 712.76 744.20 326.38 918.11 383.62 905.67 432.65 760.96 580.84 902.85 625.40
00007853 00000071 521.43 94.30 419.55 709.56 747.38 327.72 922.69 386.24 908.82 434.53 760.58 581.58 904.66 627.37
00007854 00000072 519.76 93.17 422.55 708.19 747.15 328.10 923.83 386.36 909.01 435.41 761.10 581.03 905.62 626.53
00007855 00000073 520.75 94.56 422.80 704.46 747.10 328.81 924.67 386.96 909.80 434.39 760.09 579.71 906.24 625.05
00007856 00000074 518.71 96.41 424.66 698.32 745.27 328.01 924.05 385.82 908.61 434.17 758.94 578.01 906.31 622.91
00007857 00000075 519.19 96.34 424.49 696.59 745.16 328.48 923.91 386.40 908.55 434.82 758.41 577.26 905.98 622.30
00007858 00000076 520.07 94.66 423.30 695.32 746.17 328.49 925.16 385.69 909.96 435.08 759.43 575.91 907.35 620.45
00007859 00000077 520.79 94.71 422.62 691.08 745.73 328.89 926.55 387.30 909.75 434.53 758.36 573.15 907.47 618.73
00007860 00000078 521.84 94.71 422.97 690.43 746.46 329.43 927.69 390.09 910.89 433.64 757.50 571.54 907.73 618.82
00007861 00000079 523.44 94.03 421.18 691.23 747.66 330.12 928.91 390.59 911.13 434.54 757.68 572.09 907.98 619.36
00007862 00000080 521.82 94.49 423.15 688.98 747.79 330.30 928.73 390.39 910.33 434.84 758.38 571.69 908.34 618.55
00007863 00000081 521.27 94.44 423.60 686.31 747.29 329.91 928.61 389.61 910.47 434.53 759.68 571.34 908.43 617.92
00007864 00000082 520.78 94.41 423.78 685.86 747.54 330.04 928.53 389.93 910.14 434.85 759.59 571.23 908.21 617.99
00007865 00000083 520.91 93.90 423.52 686.98 747.66 329.70 928.23 389.66 909.82 434.48 759.48 571.15 907.91 618.03
00007866 00000084 518.51 93.19 425.44 689.13 748.25 329.65 927.45 390.18 911.41 434.84 760.00 570.92 907.56 618.14
00007867 00000085 518.67 93.45 425.26 688.21 747.26 329.89 927.01 390.29 910.69 434.46 759.50 570.58 907.39 617.62
00007868 00000086 520.38 93.51 423.22 689.93 747.09 330.09 926.79 391.25 910.07 434.36 758.61 570.76 906.62 618.59
00007869 00000087 521.96 92.51 421.79 691.30 747.18 330.22 926.56 391.06 909.44 434.33 757.79 569.93 905.69 617.48
00007870 00000088 523.06 92.89 420.40 690.51 746.30 329.88 925.98 390.55 908.46 433.86 757.04 569.52 904.75 616.92
00007871 00000089 520.60 92.08 422.45 690.65 747.34 329.40 925.46 391.32 908.85 433.70 758.04 568.63 904.12 617.05
00007872 00000090 521.11 92.87 421.84 690.71 746.70 329.31 925.86 391.57 908.93 433.55 757.14 569.17 904.12 617.84
00007873 00000091 519.88 92.45 422.56 690.22 746.38 328.88 925.29 391.16 908.99 433.47 757.61 569.07 903.90 617.77
00007874 00000092 520.42 91.96 421.56 690.27 746.68 329.44 924.88 391.02 909.14 433.71 758.46 568.78 904.54 616.87
00007875 00000093 518.43 91.99 423.30 689.80 746.41 328.87 924.63 391.34 909.62 432.97 758.74 568.26 904.58 617.00
00007876 00000094 517.90 92.14 423.65 689.42 746.62 328.68 924.83 391.21 910.00 433.08 758.90 568.03 904.75 616.85
00007877 00000095 518.31 92.00 423.55 693.18 746.78 329.18 924.46 391.30 909.00 434.45 756.96 568.77 903.68 617.23
00007878 00000096 517.49 96.29 423.71 702.22 746.33 327.71 924.58 391.52 909.56 435.96 751.07 573.96 901.83 624.05
00007879 00000097 518.03 99.86 420.01 705.15 744.20 323.98 921.24 392.20 907.88 435.93 746.20 579.23 893.10 633.89
00007880 00000098 528.74 103.08 407.99 715.57 743.08 320.13 916.77 387.45 904.60 431.10 741.83 584.23 885.42 639.18
00007881 00000099 531.60 103.27 406.75 715.44 747.84 322.82 920.83 385.62 907.70 431.54 747.09 585.43 893.18 636.74
00007882 00000100 530.64 100.20 413.79 708.97 752.86 329.53 932.43 395.66 916.37 436.53 754.27 584.04 905.18 637.61
00007883 00000101 526.89 97.48 425.05 707.70 758.85 341.49 938.63 402.60 922.65 443.16 760.88 582.51 915.25 630.88
00007884 DELETE   532.60 103.06 421.29 695.66 761.23 346.23 943.24 406.26 922.15 444.78 761.48 581.46 919.87 628.92
00007885 00000103 536.68 101.39 416.96 688.39 764.52 341.79 945.23 401.21 925.72 441.91 766.60 577.35 921.64 624.10
00007886 00000104 537.65 101.17 413.97 683.32 763.15 335.49 945.15 393.26 925.51 439.11 768.49 575.49 922.28 620.88
00007887 00000105 538.17 101.07 414.77 681.54 765.35 334.75 946.65 393.81 924.72 439.61 769.00 574.10 922.57 620.64
00007888 00000106 533.75 103.24 420.23 679.90 766.99 334.02 948.37 393.81 927.19 440.82 770.28 575.41 924.11 622.26
00007889 00000107 534.43 104.54 421.36 681.48 769.04 334.29 949.94 395.72 928.58 442.44 770.19 576.87 923.87 625.14
00007890 00000108 537.11 106.07 420.83 681.76 771.64 335.52 951.09 395.92 930.61 445.14 771.05 578.46 923.93 626.14
00007891 00000109 542.45 106.17 417.27 685.26 773.76 337.81 951.39 397.05 931.34 447.83 770.45 581.52 922.27 628.46
CROP_BBOX: 92 0 1210 1012
