Video ID: 	XOL3ToXe_mk
H: 	1080
W: 	1920
FPS: 	59.94005994005994

FRAME INDEX X0 Y0 W H [Landmarks (5 Points)]

00004556 00000000 552.02 194.04 464.77 739.07 671.75 467.31 894.65 472.40 783.15 608.81 681.23 732.51 885.31 737.18
00004557 00000001 551.72 194.03 465.19 739.13 671.81 467.26 894.59 472.39 783.06 608.77 681.28 732.48 885.24 737.20
00004558 00000002 546.25 188.94 469.22 744.59 671.06 465.15 892.11 469.82 782.24 603.95 680.97 728.72 882.80 732.96
00004559 DELETE   547.05 188.28 468.77 744.55 671.34 463.84 892.20 469.04 782.26 604.81 681.20 728.91 881.17 733.71
00004560 00000004 544.39 193.60 474.81 727.04 666.60 462.53 896.83 465.63 787.63 597.19 684.41 728.63 881.11 729.29
00004561 00000005 544.56 193.63 474.63 726.98 666.69 462.54 896.72 465.68 787.54 597.05 684.40 728.66 881.01 729.36
00004562 DELETE   543.42 189.98 470.93 718.36 662.40 458.42 892.04 455.62 783.60 591.88 687.47 725.93 878.80 721.44
00004563 00000007 542.77 189.51 471.56 721.04 664.10 458.40 893.33 457.29 785.40 592.24 686.99 725.51 878.99 722.50
00004564 00000008 542.35 182.41 468.83 719.39 659.13 453.50 886.98 445.86 778.38 585.41 693.89 726.98 872.27 718.85
00004565 00000009 542.45 182.65 468.59 719.02 659.16 453.75 886.76 446.06 778.38 585.34 693.75 726.87 872.07 718.71
00004566 00000010 541.25 181.61 466.21 711.77 655.38 449.22 882.83 440.95 771.99 576.15 693.12 724.22 863.71 716.07
00004567 00000011 541.53 182.81 467.19 711.62 655.46 449.09 883.63 440.83 773.30 576.53 693.05 725.30 864.34 717.09
00004568 00000012 539.67 181.11 463.54 705.19 654.47 447.75 879.30 437.23 771.43 570.52 693.25 718.97 861.38 708.94
00004569 00000013 539.31 180.94 464.11 705.55 654.54 447.10 879.66 436.79 771.59 570.54 693.76 719.04 861.53 709.17
00004570 00000014 538.47 181.98 461.72 692.78 652.67 444.34 876.95 434.09 769.26 565.19 691.54 709.61 859.70 699.72
00004571 00000015 538.63 182.04 461.30 692.46 652.49 444.00 876.83 433.78 768.84 564.90 691.41 709.47 859.05 699.64
00004572 00000016 536.78 178.58 460.70 688.30 651.93 440.67 876.16 432.45 767.91 559.03 689.47 702.89 857.53 694.62
00004573 00000017 536.78 178.56 460.70 688.32 651.94 440.68 876.16 432.47 767.93 559.03 689.48 702.89 857.51 694.63
00004574 00000018 536.00 175.90 460.81 686.82 650.73 437.79 876.86 430.91 767.18 556.31 687.20 698.34 857.55 691.05
00004575 00000019 536.19 177.54 460.82 685.21 650.99 437.76 876.64 430.94 766.65 556.34 687.12 697.82 857.41 690.60
00004576 00000020 536.42 175.25 461.53 685.01 649.98 434.74 876.80 427.62 765.13 552.58 685.70 695.38 856.15 687.80
00004577 00000021 536.53 175.31 461.62 685.88 649.60 434.78 876.97 427.45 764.60 552.05 685.31 696.16 856.82 688.38
00004578 00000022 537.14 173.51 458.93 688.55 651.64 431.20 877.16 422.38 765.70 545.20 687.01 694.66 853.90 685.62
00004579 00000023 537.00 173.52 459.02 688.62 651.66 431.39 877.16 422.40 765.82 545.18 687.04 694.74 853.98 685.56
00004580 00000024 535.98 176.44 460.34 695.83 653.79 427.13 877.21 416.83 766.35 536.07 688.27 695.54 855.60 685.25
00004581 00000025 535.90 175.32 460.76 698.28 653.71 427.15 877.23 416.37 766.17 536.70 688.55 696.10 855.65 685.36
00004582 00000026 535.64 177.49 460.01 702.47 652.89 425.37 880.62 415.62 768.74 533.03 685.09 699.19 860.85 689.26
00004583 00000027 535.19 177.03 460.47 703.05 652.95 425.43 880.74 415.68 768.87 533.04 685.00 699.21 860.85 689.29
00004584 00000028 536.48 178.95 461.50 706.31 655.31 425.49 883.16 419.00 773.00 530.24 680.74 696.01 866.69 688.87
00004585 00000029 536.16 176.46 460.06 708.89 655.46 425.46 883.15 418.84 773.32 530.09 680.32 695.85 866.53 688.67
00004586 00000030 537.20 183.96 460.23 702.29 659.57 429.17 882.34 424.75 772.38 529.76 679.05 692.03 870.56 686.46
00004587 00000031 537.57 184.04 459.75 702.11 659.63 429.37 882.34 424.88 772.22 529.85 678.82 691.91 870.37 686.30
00004588 00000032 538.97 182.46 455.11 705.64 660.58 433.23 880.75 428.53 775.60 527.42 677.88 691.62 872.07 686.54
00004589 00000033 539.12 182.39 454.91 705.12 660.37 432.97 880.65 427.91 774.97 527.14 677.99 691.75 871.90 686.36
00004590 00000034 539.24 184.09 453.72 704.70 661.51 431.31 880.32 426.52 776.03 527.82 678.60 690.78 872.70 685.33
00004591 00000035 539.16 183.99 453.70 704.85 661.50 431.48 880.30 426.53 776.06 527.93 678.50 690.82 872.69 685.25
00004592 00000036 537.71 179.08 455.87 706.47 661.43 427.90 881.82 422.26 778.02 526.89 678.18 687.66 873.40 681.24
00004593 00000037 538.26 179.43 455.96 705.37 661.23 428.02 882.10 422.09 777.77 526.87 678.83 688.44 873.73 681.87
00004594 00000038 538.36 175.17 456.98 703.82 660.16 425.29 884.22 420.06 778.53 523.40 676.19 683.28 875.56 677.23
00004595 00000039 538.61 176.73 457.13 703.77 660.17 424.85 884.29 419.93 778.16 524.23 675.84 683.38 875.89 677.49
00004596 00000040 538.95 175.57 459.02 695.44 661.88 424.68 887.22 417.41 780.81 520.69 678.57 676.49 880.06 668.76
00004597 00000041 538.94 175.42 458.91 695.65 661.82 424.69 887.22 417.41 780.90 520.61 678.56 676.61 880.11 668.85
00004598 00000042 539.56 175.82 458.47 685.73 665.27 426.21 886.88 415.22 785.66 521.62 686.42 669.09 884.33 658.15
00004599 00000043 539.14 176.08 459.02 686.97 665.32 426.30 886.64 415.42 785.30 521.50 686.37 669.52 884.14 658.56
00004600 00000044 541.84 177.75 457.13 672.34 667.67 428.97 887.37 416.03 789.36 519.42 692.73 665.82 886.71 653.22
00004601 00000045 542.04 177.98 456.91 672.01 667.66 428.97 887.36 416.05 789.25 519.41 692.77 665.69 886.85 653.08
00004602 00000046 543.66 177.76 455.44 668.93 671.42 434.30 889.13 422.95 792.98 526.25 696.01 666.58 888.99 655.60
00004603 00000047 543.19 177.80 456.32 669.61 671.05 434.55 889.12 423.48 792.76 526.41 695.07 666.56 888.88 655.82
00004604 00000048 547.84 173.34 454.50 675.07 671.11 437.46 894.62 428.44 792.69 532.97 696.21 674.73 889.52 665.84
00004605 00000049 547.35 173.40 455.02 675.14 670.96 437.52 894.47 428.29 792.89 532.80 696.28 674.88 889.43 665.81
00004606 00000050 547.80 174.76 456.05 680.10 671.43 440.95 895.55 431.00 794.07 539.48 698.16 682.70 890.89 672.93
00004607 00000051 546.59 174.31 457.47 681.88 671.79 440.95 895.01 431.16 794.74 539.77 697.76 682.41 890.36 672.70
00004608 00000052 546.59 175.41 457.15 694.10 678.50 440.86 895.89 432.65 800.68 546.78 707.15 691.48 886.41 682.61
00004609 00000053 546.36 175.24 457.32 694.33 678.49 440.85 895.85 432.65 800.81 546.76 707.10 691.44 886.49 682.59
00004610 DELETE   547.93 175.88 458.49 698.11 681.05 443.80 899.37 433.78 803.98 547.30 714.88 698.66 887.58 688.42
00004611 00000055 547.52 175.07 457.54 699.47 680.74 444.59 898.91 433.61 804.70 548.01 715.43 699.78 887.96 688.71
00004612 00000056 557.04 181.85 454.90 694.22 690.88 444.94 904.85 436.63 807.94 549.24 722.07 700.53 890.42 691.18
00004613 00000057 557.07 181.79 455.10 694.22 691.01 444.82 904.99 436.65 807.97 549.16 722.12 700.45 890.32 691.21
00004614 DELETE   561.75 182.81 451.01 693.48 695.74 444.74 905.90 438.87 808.64 549.89 724.74 699.09 888.84 691.96
00004615 DELETE   561.02 183.90 450.99 692.41 695.98 445.55 905.93 439.65 810.24 550.22 725.58 698.95 890.52 691.83
00004616 00000060 563.69 180.65 448.49 700.26 695.86 443.04 906.87 434.14 809.66 547.23 723.33 701.06 891.53 691.73
00004617 00000061 563.85 180.49 448.25 700.35 695.81 442.96 906.84 434.15 809.55 547.33 723.24 701.02 891.54 691.69
00004618 00000062 567.03 180.08 444.00 701.66 695.02 439.12 907.35 430.39 809.62 544.73 718.41 698.54 892.22 689.66
00004619 00000063 566.41 181.18 444.78 701.23 695.10 438.08 907.20 430.19 809.08 544.64 718.09 697.42 891.57 689.15
00004620 00000064 568.18 178.10 447.88 715.24 696.48 436.57 910.83 431.00 809.52 545.20 719.84 692.11 898.57 686.02
00004621 00000065 568.18 178.10 447.88 715.24 696.48 436.57 910.83 431.00 809.52 545.20 719.84 692.11 898.57 686.02
00004622 00000066 570.28 176.73 439.96 703.63 691.40 435.01 905.67 432.66 809.64 545.44 710.42 686.01 896.57 684.97
00004623 00000067 570.04 177.49 440.14 703.81 691.42 435.36 905.86 432.84 809.30 545.37 710.21 686.30 896.69 685.10
00004624 00000068 569.17 178.72 440.77 701.60 690.21 436.94 905.62 433.37 808.99 547.61 710.00 686.93 898.58 684.82
00004625 00000069 568.90 179.45 441.08 700.83 689.60 437.15 905.60 433.37 808.69 547.11 709.60 687.07 898.81 684.79
00004626 00000070 564.47 181.68 452.26 704.50 691.29 441.74 909.96 437.19 808.27 551.77 707.33 694.23 897.93 688.94
00004627 00000071 564.34 181.47 452.40 704.82 691.33 441.63 909.86 437.16 808.26 551.64 707.41 694.23 897.88 689.02
00004628 00000072 563.84 180.93 455.91 719.93 689.60 443.74 906.77 436.41 803.69 555.24 713.19 697.22 897.89 689.38
00004629 00000073 560.38 180.57 454.15 712.76 688.51 444.31 900.53 441.83 802.23 560.79 700.94 694.92 894.17 692.77
00004630 00000074 560.55 185.20 461.65 724.35 689.43 446.80 905.43 439.31 805.24 560.40 711.75 702.02 896.55 694.55
00004631 00000075 560.59 185.28 461.54 724.26 689.46 446.74 905.42 439.24 805.22 560.40 711.77 701.98 896.56 694.52
00004632 00000076 553.69 184.03 464.35 726.77 686.38 448.33 899.25 446.03 802.06 569.26 701.22 708.21 890.78 706.19
00004633 00000077 553.84 183.80 464.66 726.86 686.22 448.27 899.10 445.98 801.93 569.58 701.58 708.20 890.30 706.18
00004634 00000078 552.92 184.81 466.25 724.30 685.41 452.71 901.12 452.37 801.82 575.78 700.00 710.65 889.27 710.54
00004635 00000079 553.08 185.07 466.20 722.86 685.06 452.38 901.26 452.33 801.23 576.12 699.82 710.28 888.30 710.39
00004636 00000080 557.23 184.92 461.61 724.95 685.50 454.04 904.08 449.33 808.82 574.75 713.10 714.19 895.96 710.78
00004637 00000081 557.25 184.88 461.86 724.81 685.82 453.84 904.19 449.44 808.93 574.80 713.24 714.05 895.76 710.88
00004638 00000082 558.27 186.27 460.36 719.31 685.29 454.29 904.39 451.29 808.15 575.92 712.72 714.53 893.84 712.53
00004639 00000083 558.78 185.54 459.81 717.68 684.82 454.62 904.37 450.37 807.63 576.02 713.46 714.25 894.71 711.29
00004640 00000084 555.34 183.75 464.52 720.53 684.79 454.59 903.78 453.57 801.91 578.04 702.52 712.06 889.62 711.17
00004641 00000085 555.06 183.72 464.85 720.59 684.73 454.51 903.75 453.56 801.90 578.05 702.52 712.03 889.60 711.20
00004642 00000086 552.23 183.83 466.75 727.32 683.41 453.85 901.34 453.76 799.83 576.10 697.27 712.12 890.07 711.79
00004643 00000087 552.25 184.22 466.99 727.37 683.60 453.86 901.24 453.89 799.85 576.07 697.20 711.89 889.88 711.66
00004644 00000088 551.37 184.16 467.40 730.03 683.21 453.77 901.64 453.64 800.46 577.23 695.03 712.51 893.25 712.19
00004645 00000089 550.63 184.67 468.66 732.07 683.31 453.45 901.12 453.58 799.74 577.14 694.92 712.76 892.81 712.60
00004646 00000090 550.28 183.38 468.79 736.75 684.05 455.24 902.19 455.92 800.40 579.16 694.11 715.01 892.83 715.42
00004647 00000091 550.37 183.40 468.61 736.84 684.07 455.27 902.25 455.97 800.49 579.14 694.14 715.08 892.92 715.50
00004648 00000092 550.31 184.94 468.66 736.99 683.42 456.62 901.75 456.39 801.13 582.50 694.20 717.14 893.93 716.77
00004649 00000093 550.46 182.55 469.05 739.76 683.49 456.54 901.83 456.58 800.10 582.42 693.83 717.30 893.60 717.14
00004650 00000094 551.79 188.81 467.29 733.07 684.73 457.67 903.25 457.93 802.47 585.64 694.91 717.81 894.67 717.94
00004651 00000095 551.81 188.87 467.26 733.02 684.77 457.66 903.28 457.89 802.51 585.59 694.94 717.84 894.67 717.95
00004652 00000096 553.15 191.31 466.33 727.49 684.80 460.99 904.27 460.68 802.05 586.20 696.13 718.70 895.99 718.43
00004653 00000097 552.96 191.85 466.72 726.35 684.65 460.83 904.11 460.60 801.96 585.69 695.95 718.26 895.74 718.02
00004654 00000098 553.33 191.73 466.32 726.64 684.54 460.39 902.16 459.82 799.77 582.99 695.62 717.24 894.86 716.66
00004655 00000099 553.64 190.45 465.85 728.18 685.10 460.74 903.11 460.54 800.20 582.43 695.16 717.19 895.42 716.89
00004656 00000100 555.28 191.40 463.97 726.02 685.10 458.11 901.60 458.87 797.22 579.19 693.65 714.80 892.72 715.30
00004657 00000101 555.65 191.51 463.56 725.80 685.12 458.17 901.49 458.95 797.14 579.25 693.62 714.70 892.58 715.24
00004658 00000102 554.45 185.67 463.75 732.01 682.79 455.82 898.43 455.11 795.19 576.07 692.26 712.96 891.88 712.08
00004659 00000103 554.55 186.87 464.02 729.31 683.21 455.44 898.51 455.16 796.10 576.55 692.91 712.57 891.40 712.11
00004660 00000104 553.74 187.40 464.81 725.66 680.51 454.23 894.98 452.25 792.34 574.60 691.97 710.61 890.39 708.62
00004661 00000105 553.88 187.45 464.66 725.50 680.53 454.22 895.08 452.26 792.34 574.62 691.96 710.53 890.39 708.57
00004662 00000106 553.12 186.61 465.22 726.02 679.26 454.70 892.59 453.23 788.90 574.38 690.19 709.70 887.71 708.10
00004663 00000107 552.24 186.80 466.06 726.19 678.67 454.42 892.68 452.61 789.94 574.92 690.83 709.84 888.19 707.94
00004664 00000108 553.09 185.94 464.65 724.19 677.68 455.33 891.17 453.39 786.39 575.36 690.01 710.14 885.75 708.18
00004665 00000109 552.35 187.04 465.76 723.40 677.30 455.42 890.36 452.56 786.63 574.68 690.25 710.42 885.91 707.71
00004666 00000110 552.93 186.78 464.72 726.77 677.42 456.11 888.75 452.60 785.50 573.91 689.64 710.94 885.10 707.71
00004667 00000111 552.48 186.78 465.29 726.89 677.38 456.04 888.64 452.53 785.45 573.56 689.58 710.99 885.11 707.76
00004668 00000112 552.99 186.83 464.35 728.85 677.78 455.34 888.42 452.25 784.95 573.37 689.15 710.61 885.30 707.71
00004669 00000113 553.22 187.69 464.36 727.32 677.54 455.47 888.24 452.18 784.69 573.54 689.20 710.79 885.03 707.73
00004670 00000114 553.92 188.45 472.30 732.11 682.08 454.74 901.30 452.74 789.70 577.12 699.65 714.68 891.42 709.95
00004671 00000115 554.01 188.54 472.24 732.04 682.09 454.73 901.35 452.72 789.76 577.14 699.66 714.70 891.50 709.95
00004672 00000116 553.67 188.49 472.38 732.67 682.68 455.03 900.57 452.30 791.40 577.10 700.43 714.84 890.28 709.59
00004673 00000117 553.58 188.44 472.79 733.24 682.79 455.17 900.72 452.36 791.59 577.38 700.43 714.88 890.70 709.57
00004674 00000118 553.59 185.52 463.94 725.53 676.76 456.23 889.09 452.03 786.48 574.92 693.18 712.37 884.01 708.59
00004675 00000119 553.75 185.67 463.26 724.24 676.95 455.99 888.99 452.03 786.45 574.66 693.36 712.32 883.22 708.79
00004676 00000120 555.59 192.14 465.19 712.09 678.50 455.94 898.05 454.52 791.08 577.23 700.30 713.77 884.98 709.73
00004677 00000121 555.95 192.20 464.46 711.94 678.72 456.39 898.09 455.23 790.93 577.04 700.07 713.61 885.02 709.77
00004678 00000122 555.10 193.00 464.55 704.06 676.08 457.45 897.50 453.70 790.25 574.29 701.74 712.54 885.43 706.40
00004679 00000123 555.78 193.39 463.45 702.98 676.77 457.51 897.12 453.93 790.25 574.60 702.18 712.17 884.46 706.25
00004680 00000124 556.43 193.46 463.81 706.02 678.54 457.93 896.95 454.54 791.89 575.30 703.38 711.04 887.93 705.15
00004681 00000125 556.22 193.31 463.85 706.22 678.59 457.90 897.01 454.51 791.88 575.34 703.35 711.02 887.80 705.16
00004682 00000126 557.28 192.54 464.30 710.39 679.21 456.14 899.62 454.64 792.43 575.29 699.55 710.22 889.70 706.16
00004683 00000127 556.85 193.06 464.82 710.50 679.38 455.94 900.13 455.06 793.17 575.40 699.22 710.38 889.90 706.91
00004684 00000128 558.28 191.33 463.74 715.90 681.68 454.42 901.46 453.60 793.86 574.05 699.78 709.25 891.99 705.68
00004685 00000129 558.00 191.66 463.93 714.89 680.99 454.80 901.76 453.72 793.68 573.78 699.31 709.25 892.50 705.45
00004686 00000130 559.84 191.63 461.26 715.73 682.88 453.51 901.81 452.28 794.58 572.91 700.08 709.76 892.04 705.76
00004687 00000131 559.87 191.74 461.30 715.48 682.88 453.42 901.84 452.30 794.49 572.92 699.98 709.68 892.03 705.75
00004688 00000132 564.71 191.58 457.29 719.47 685.25 454.77 899.68 448.06 794.29 571.63 708.01 705.11 893.18 697.94
00004689 00000133 557.33 193.18 470.07 710.91 682.17 451.81 898.69 446.86 790.02 569.77 698.55 703.03 890.20 698.46
00004690 00000134 565.30 192.10 456.40 719.28 686.01 454.01 899.95 448.21 795.07 570.05 708.77 705.45 892.59 699.12
00004691 00000135 565.21 192.07 456.52 719.35 686.04 453.93 899.98 448.20 795.01 570.08 708.77 705.42 892.59 699.17
00004692 00000136 566.61 192.70 454.92 721.88 687.28 454.69 900.14 448.81 795.31 570.81 710.60 707.56 892.12 701.09
00004693 00000137 561.74 187.69 456.06 722.36 683.42 453.99 894.07 450.56 792.65 572.51 695.44 707.24 888.86 704.20
00004694 00000138 564.43 192.26 458.04 724.00 686.48 454.93 899.81 448.86 794.37 573.18 711.01 709.78 891.30 703.04
00004695 00000139 564.57 192.14 458.00 724.53 686.74 454.66 899.79 448.32 794.74 573.59 710.96 710.22 891.28 703.26
00004696 00000140 562.76 191.83 458.81 723.95 685.35 455.87 899.02 450.14 792.70 573.83 709.99 710.85 890.66 704.43
00004697 00000141 562.62 191.52 458.84 724.19 685.43 455.87 899.05 450.20 792.73 573.89 710.08 710.83 890.66 704.45
00004698 00000142 557.19 187.69 470.13 729.09 682.90 455.77 902.99 451.28 792.06 577.79 703.75 717.48 892.59 710.63
00004699 00000143 555.55 187.57 462.09 726.38 678.62 455.52 891.42 450.90 788.03 574.60 693.59 712.01 886.89 707.99
00004700 00000144 555.68 187.35 461.82 726.87 677.77 457.01 889.79 451.99 786.56 576.19 692.15 713.04 886.73 708.62
00004701 00000145 555.61 187.27 461.87 726.90 677.74 456.99 889.79 451.99 786.53 576.19 692.11 713.01 886.72 708.60
00004702 00000146 557.32 187.89 459.43 727.11 678.91 458.47 892.84 454.47 788.33 577.71 691.50 713.51 888.04 709.96
00004703 00000147 557.53 188.57 459.07 726.13 679.20 458.44 892.39 454.50 787.99 577.95 691.78 713.52 887.47 710.09
00004704 00000148 557.09 193.61 460.04 727.35 682.81 459.47 897.58 457.84 791.34 580.15 691.37 714.98 890.09 713.52
00004705 00000149 556.42 192.90 461.17 728.63 682.95 460.20 896.91 458.75 791.23 580.46 691.73 715.30 889.65 713.93
00004706 00000150 557.60 195.07 458.50 728.34 684.39 463.84 898.39 461.37 796.72 581.67 693.28 716.81 893.17 714.64
00004707 00000151 557.66 195.14 458.40 728.30 684.41 463.83 898.41 461.33 796.73 581.69 693.31 716.84 893.23 714.66
00004708 00000152 558.28 197.03 458.73 726.75 686.21 464.53 901.78 459.91 802.22 583.65 698.08 718.60 899.27 714.80
00004709 00000153 557.36 197.11 459.57 728.14 685.87 464.07 901.39 459.43 801.69 583.11 697.62 718.85 898.55 715.05
00004710 00000154 558.51 197.39 457.83 717.77 689.22 466.37 904.45 459.61 810.31 584.89 704.70 718.57 902.94 713.21
00004711 00000155 558.49 197.41 457.85 717.83 689.19 466.50 904.41 459.66 810.32 584.90 704.66 718.63 902.98 713.20
00004712 00000156 560.61 199.17 456.33 706.71 691.86 466.75 910.91 457.72 817.80 585.61 712.42 716.40 911.38 708.89
00004713 DELETE   560.30 197.47 457.07 708.95 692.98 466.45 909.37 457.87 817.96 585.54 712.34 715.38 910.06 708.31
00004714 00000158 564.01 200.59 454.92 691.83 695.40 465.92 915.00 456.40 823.19 584.94 722.27 714.23 913.69 706.22
00004715 00000159 563.98 200.55 454.94 691.91 695.42 465.88 915.04 456.41 823.18 584.96 722.23 714.23 913.69 706.25
00004716 00000160 569.30 199.24 448.18 690.50 697.91 465.95 912.33 451.83 826.52 581.25 733.25 711.51 912.92 700.32
00004717 00000161 568.35 199.21 449.41 691.03 697.98 466.40 912.48 452.34 826.56 580.92 732.92 711.64 913.11 700.47
00004718 00000162 569.85 196.45 447.40 694.17 697.05 465.18 911.24 450.44 825.24 578.19 731.86 710.58 913.13 698.79
CROP_BBOX: 244 0 1355 1080
