Video ID: 	alp7pNgPFqo
H: 	1080
W: 	1920
FPS: 	25.0

FRAME INDEX X0 Y0 W H [Landmarks (5 Points)]

00003740 00000000 393.71 170.60 439.24 653.43 487.95 460.13 675.04 427.02 591.24 586.29 548.56 659.15 726.67 629.93
00003741 00000001 390.97 168.02 441.90 654.75 484.56 458.55 671.28 426.16 586.56 584.74 550.97 666.66 718.79 638.13
00003742 00000002 390.05 168.21 442.74 652.77 483.17 459.28 671.63 426.74 586.73 586.08 551.09 669.56 717.46 641.09
00003743 00000003 389.13 170.16 443.86 656.13 487.85 467.03 674.68 432.82 593.49 589.42 557.22 674.61 723.82 642.47
00003744 00000004 389.37 172.80 444.90 655.75 491.48 470.50 675.49 435.05 597.19 591.63 563.35 677.80 724.48 644.75
00003745 00000005 393.88 177.47 441.29 651.58 494.84 475.76 680.21 442.47 601.01 601.17 563.10 679.95 729.30 648.94
00003746 00000006 396.82 182.46 441.97 644.18 496.75 474.54 684.39 442.55 603.77 602.80 565.28 681.66 729.77 651.91
00003747 DELETE   397.38 172.54 445.51 655.47 501.07 474.97 692.08 443.55 608.43 598.41 568.57 681.01 731.62 652.87
00003748 DELETE   401.75 170.97 444.40 658.20 505.86 472.33 700.09 441.70 613.84 596.72 570.17 680.59 735.51 653.26
00003749 DELETE   413.59 170.73 437.62 655.53 513.72 468.73 708.60 437.35 621.22 594.07 573.30 675.89 743.39 647.87
00003750 00000010 421.63 176.96 436.04 651.40 524.77 467.07 715.13 436.33 631.64 587.85 579.63 671.46 748.65 643.85
00003751 00000011 424.27 176.94 434.15 647.95 528.77 466.37 720.04 436.30 638.29 591.85 578.98 663.97 760.88 635.77
00003752 00000012 431.66 163.07 433.25 667.64 531.10 458.39 722.17 427.53 640.09 582.88 579.10 655.05 768.74 629.19
00003753 00000013 424.45 172.18 433.42 652.20 527.22 459.36 719.22 430.48 635.45 585.03 571.04 653.64 761.53 626.38
00003754 00000014 419.47 162.12 438.71 660.23 525.72 451.37 714.15 419.86 632.59 569.13 573.97 655.41 747.41 627.57
00003755 00000015 416.44 149.58 438.54 659.60 522.37 442.29 711.35 410.89 630.10 558.52 574.60 651.04 743.67 623.37
00003756 00000016 415.61 138.84 440.67 667.02 521.49 434.81 711.32 403.68 629.56 550.30 575.34 649.80 741.61 622.17
00003757 00000017 416.63 137.69 441.22 667.79 523.23 433.14 713.65 402.36 631.61 547.81 577.31 648.19 744.33 620.60
00003758 00000018 416.04 137.48 442.74 670.84 523.71 434.76 714.55 403.38 633.41 551.01 577.44 649.87 745.27 621.77
00003759 00000019 415.21 142.47 444.15 666.88 524.14 440.34 716.46 407.99 636.01 560.47 578.88 654.83 746.92 626.13
00003760 00000020 416.18 154.70 445.41 662.22 525.08 448.46 718.48 416.02 638.22 569.41 579.15 660.86 748.68 632.30
00003761 00000021 423.72 146.95 443.41 683.02 524.65 449.54 724.93 418.54 639.09 580.52 576.83 664.56 764.04 638.61
00003762 00000022 425.74 155.88 440.88 678.24 525.40 456.58 724.86 424.12 639.77 587.33 576.41 661.45 770.63 634.25
00003763 00000023 425.02 158.05 441.40 680.24 524.35 463.14 724.68 429.59 638.86 596.41 575.45 660.86 776.19 632.82
00003764 00000024 427.07 164.59 440.31 676.16 526.07 467.18 723.74 434.47 638.69 601.87 574.53 659.24 778.21 632.15
00003765 00000025 426.99 168.16 439.92 672.18 525.58 467.78 723.48 435.37 637.80 603.00 572.46 657.34 779.16 630.52
00003766 00000026 427.83 168.38 439.45 668.12 525.60 467.07 722.51 434.64 636.85 601.20 573.73 656.96 776.92 630.17
00003767 00000027 428.48 167.87 437.49 666.02 524.39 465.51 722.50 435.43 634.69 601.95 573.12 659.21 771.55 634.46
00003768 00000028 428.15 162.23 436.04 670.38 526.09 462.54 724.14 432.18 638.20 595.15 576.00 661.26 768.77 635.97
00003769 00000029 428.64 157.21 434.79 672.59 529.20 457.21 724.55 427.44 641.17 585.77 579.50 661.08 765.00 636.21
00003770 00000030 427.58 149.95 435.68 678.43 531.05 450.62 725.17 424.48 640.53 577.86 576.28 659.41 756.95 637.58
00003771 00000031 420.58 163.22 438.25 661.78 529.82 451.99 717.77 423.41 637.73 569.43 578.39 661.44 744.22 636.07
00003772 00000032 417.02 158.23 442.96 666.04 528.39 446.96 716.04 417.88 636.92 562.76 578.45 658.82 743.29 633.07
00003773 00000033 415.74 157.86 443.12 665.90 527.86 446.90 715.15 415.83 638.29 561.89 580.38 659.90 743.69 632.43
00003774 00000034 415.97 159.25 443.37 667.89 527.52 449.57 717.60 419.18 638.50 566.40 578.25 662.26 744.80 635.44
00003775 00000035 415.63 162.14 442.88 668.20 525.73 453.76 717.55 420.52 637.61 570.66 575.10 660.78 751.20 631.45
00003776 00000036 416.15 164.22 442.81 666.94 525.41 454.29 718.31 421.46 636.01 572.66 568.97 654.44 755.79 625.43
00003777 00000037 421.50 150.20 439.37 680.31 526.05 450.19 723.59 417.28 640.61 574.44 568.91 648.67 770.98 620.50
00003778 00000038 423.32 155.40 438.86 675.38 527.27 453.60 725.67 419.48 642.61 576.42 568.53 646.96 775.41 618.05
00003779 00000039 426.29 157.34 437.18 671.24 528.08 457.34 727.50 422.60 643.26 578.53 566.21 644.28 778.08 615.00
00003780 00000040 430.20 163.39 432.71 662.99 529.98 459.37 729.36 424.41 645.46 583.65 566.56 641.70 782.61 612.43
00003781 00000041 432.63 168.28 430.89 655.11 532.27 459.63 730.37 425.35 647.04 585.14 567.88 639.57 784.92 611.24
00003782 00000042 434.67 170.66 429.44 651.52 534.61 461.01 730.35 426.50 648.72 586.08 567.56 636.68 786.71 608.41
00003783 00000043 435.13 171.04 429.93 650.55 535.24 461.55 730.88 427.65 649.14 588.15 566.15 634.90 787.09 607.38
00003784 00000044 435.43 171.56 429.30 649.79 535.14 462.94 731.22 428.56 649.72 590.00 564.76 634.25 787.80 606.44
00003785 00000045 433.83 173.44 429.19 649.05 533.57 464.26 730.48 429.22 648.74 592.08 562.78 634.58 787.94 606.25
00003786 00000046 432.38 175.12 429.30 647.44 531.21 464.33 728.44 429.10 645.72 592.62 560.38 635.03 785.98 606.45
00003787 00000047 430.43 174.98 430.12 648.54 528.93 465.41 726.12 428.77 643.54 591.93 558.90 635.50 785.50 605.48
00003788 00000048 428.79 174.76 430.26 650.15 527.50 465.44 724.63 428.57 642.16 592.89 557.40 635.39 784.38 605.03
00003789 00000049 428.40 174.90 428.86 650.36 526.98 466.45 723.99 428.47 641.87 593.07 556.54 635.99 783.55 604.73
00003790 00000050 428.35 175.81 429.32 649.74 527.34 467.16 723.48 429.55 641.65 592.84 557.81 637.39 782.41 606.48
00003791 00000051 428.66 176.41 428.97 650.60 528.13 467.85 723.14 429.59 642.46 592.74 561.62 639.92 782.32 608.34
00003792 00000052 426.70 173.39 432.12 656.53 529.46 464.96 722.42 425.94 645.50 589.67 574.07 646.94 780.64 614.40
00003793 00000053 424.30 164.45 435.79 665.67 528.48 462.12 721.70 423.45 645.15 584.57 581.90 656.22 774.40 623.60
00003794 00000054 418.72 174.30 432.86 642.23 527.86 461.57 717.36 423.36 642.18 579.46 581.23 661.59 753.89 628.44
00003795 00000055 416.54 165.25 435.58 648.55 526.61 455.52 715.82 417.59 641.83 574.24 580.99 658.31 752.63 625.41
00003796 00000056 416.59 164.14 437.01 648.22 526.37 453.88 716.30 416.32 640.94 571.90 577.75 653.57 753.62 621.05
00003797 00000057 416.58 164.00 439.30 652.37 526.32 452.58 716.41 415.21 639.44 568.88 573.30 647.72 756.46 615.54
00003798 00000058 415.74 162.83 440.56 658.69 526.79 453.00 714.56 414.34 639.92 566.22 576.24 650.26 756.27 616.91
00003799 00000059 414.30 160.15 439.20 655.84 526.06 451.79 714.04 412.29 640.97 565.50 576.11 649.26 755.14 615.40
00003800 00000060 413.43 156.74 440.01 660.24 525.99 449.35 712.89 408.11 642.44 562.14 578.13 648.78 756.81 613.37
00003801 00000061 411.47 150.19 441.38 666.37 524.91 445.85 712.49 404.08 642.84 558.92 578.21 648.69 756.93 612.83
00003802 00000062 409.46 148.30 441.36 666.25 523.80 445.21 709.62 402.14 642.79 555.56 579.09 648.14 755.48 610.98
00003803 00000063 408.50 147.76 440.39 665.73 522.52 444.19 708.36 400.97 641.99 554.08 577.93 647.30 755.03 609.87
00003804 00000064 406.59 146.86 440.80 665.77 520.15 443.43 707.07 398.77 640.31 551.48 574.69 644.52 756.05 605.82
00003805 00000065 404.93 146.29 444.08 668.17 520.01 441.99 708.14 397.47 641.17 550.31 572.66 641.72 758.23 603.10
00003806 00000066 405.57 147.40 442.84 665.98 521.13 443.91 708.35 398.83 643.17 550.79 572.28 639.50 759.00 600.46
00003807 00000067 406.57 149.69 443.33 666.07 522.27 446.97 710.12 400.58 645.97 554.67 573.05 640.53 762.39 600.60
00003808 00000068 409.20 154.45 442.60 666.63 525.23 449.71 713.04 403.66 647.86 557.62 575.48 644.19 764.05 604.62
00003809 00000069 411.81 160.45 441.29 665.72 528.40 453.27 714.02 407.76 650.30 560.16 583.38 652.65 762.46 613.17
00003810 00000070 412.50 162.28 442.69 659.04 530.91 455.69 717.19 410.18 653.62 562.30 589.06 659.75 758.99 620.40
00003811 00000071 414.69 160.62 441.32 654.20 533.41 455.75 719.70 408.61 657.51 560.12 591.81 657.82 761.64 617.25
00003812 00000072 415.35 155.87 441.13 654.57 534.68 450.28 722.36 404.26 660.84 558.03 593.38 657.51 760.98 618.25
00003813 00000073 416.42 151.84 440.95 659.90 536.70 447.76 722.43 403.22 661.69 552.98 593.70 656.05 758.11 617.96
00003814 00000074 416.52 148.04 442.41 666.65 536.88 444.80 724.32 400.62 661.07 549.86 591.99 653.13 761.18 615.19
00003815 00000075 417.48 148.85 441.99 667.64 537.33 445.15 725.24 400.53 661.29 550.67 589.61 649.99 764.62 611.65
00003816 00000076 425.84 135.62 436.77 679.03 538.78 438.84 725.86 398.25 662.70 551.84 590.17 641.74 779.06 607.25
00003817 00000077 419.31 155.65 440.83 662.53 537.58 450.34 726.44 405.50 662.21 557.97 587.62 650.66 766.80 612.23
00003818 00000078 427.57 141.39 438.06 673.18 539.16 444.19 729.08 404.32 661.06 558.62 590.38 645.16 777.62 611.73
00003819 00000079 429.72 143.92 437.39 669.99 540.64 445.45 729.73 406.97 660.98 559.78 591.73 645.17 776.94 613.02
00003820 00000080 431.04 145.99 436.99 666.06 541.08 446.05 730.66 407.83 660.63 559.42 591.13 643.70 777.47 611.73
00003821 00000081 432.26 144.39 436.23 665.94 540.82 444.93 730.55 407.55 659.18 556.70 589.67 641.59 777.61 610.25
00003822 00000082 432.97 141.89 435.62 666.69 541.58 443.06 730.96 406.20 660.08 552.75 589.82 638.04 779.41 606.92
00003823 00000083 432.87 140.75 436.53 665.30 542.56 439.48 731.86 403.78 660.60 549.40 588.72 633.00 780.79 602.62
00003824 00000084 432.08 139.43 437.46 666.01 542.75 437.45 731.54 401.78 660.83 546.11 586.58 628.83 782.90 598.09
00003825 00000085 432.28 139.66 437.87 665.90 542.80 436.92 731.35 401.62 660.31 545.62 585.74 627.18 784.09 596.54
00003826 00000086 432.09 140.01 438.55 667.42 542.76 437.36 731.36 401.56 660.58 545.51 586.02 627.09 785.77 596.03
00003827 00000087 432.23 141.39 439.28 668.21 542.95 438.66 732.10 402.73 660.62 547.28 585.74 627.74 787.20 596.55
00003828 00000088 432.45 135.93 437.92 672.92 543.31 442.34 733.72 406.48 661.73 550.02 586.40 629.63 787.35 598.34
00003829 00000089 434.18 141.70 435.62 667.64 541.91 445.96 735.28 409.71 661.26 555.14 587.19 634.63 787.57 603.43
00003830 00000090 428.40 167.68 441.34 635.32 542.67 443.91 737.81 409.78 660.69 556.99 591.64 634.77 782.55 605.89
00003831 00000091 566.81 140.63 415.60 639.85 733.87 403.11 914.74 403.42 861.89 525.86 750.36 625.24 900.03 624.76
00003832 DELETE   555.57 133.69 411.17 649.13 721.03 403.98 897.36 399.45 855.40 523.50 744.65 629.52 894.31 624.44
00003833 00000093 544.61 129.32 409.94 666.75 709.36 403.24 880.73 395.80 848.47 519.26 731.96 629.69 883.07 622.70
00003834 00000094 537.68 131.17 408.41 670.58 695.86 402.11 869.52 393.55 836.59 519.03 718.03 627.42 878.75 620.09
00003835 00000095 531.29 133.07 409.37 666.70 683.53 402.20 857.50 389.18 821.72 520.59 708.79 627.46 873.04 616.50
00003836 00000096 527.18 129.14 409.97 668.42 676.49 399.69 851.77 384.67 816.72 515.81 703.19 625.01 869.34 612.28
00003837 00000097 527.72 126.78 409.68 665.41 674.96 395.88 851.27 378.93 815.38 509.22 702.08 616.85 870.97 602.65
00003838 00000098 528.59 123.85 412.30 666.29 676.95 390.70 855.16 375.98 817.75 501.14 702.03 609.78 874.60 597.07
00003839 00000099 529.54 121.78 415.47 669.35 680.71 388.38 859.26 375.18 820.89 498.82 703.68 606.67 877.69 594.62
00003840 00000100 531.81 122.29 413.57 672.58 683.54 388.90 860.51 377.20 822.52 500.30 703.66 608.14 876.99 597.65
00003841 00000101 530.14 126.79 415.13 668.46 682.05 391.63 858.96 379.93 821.52 505.30 704.04 611.92 875.65 601.44
00003842 00000102 531.70 127.00 413.30 663.55 683.99 393.45 859.27 383.57 819.18 508.68 712.19 615.72 873.65 606.20
00003843 00000103 535.44 126.27 409.77 657.82 687.77 394.47 863.10 382.84 820.85 507.59 722.19 619.33 872.07 608.30
00003844 00000104 540.47 124.75 405.99 650.84 693.70 395.70 867.82 383.65 827.73 504.18 731.52 617.57 875.76 605.89
00003845 00000105 543.37 123.61 405.28 650.39 697.03 396.48 873.72 383.98 834.74 505.47 735.15 617.41 883.08 605.29
00003846 00000106 543.33 125.02 406.29 654.75 697.21 396.56 874.80 384.74 836.41 505.92 735.24 620.02 885.23 608.46
00003847 00000107 541.20 126.90 407.25 650.73 692.02 397.34 871.20 385.55 830.22 507.75 731.97 621.89 882.18 610.42
00003848 00000108 540.66 124.77 408.73 654.88 686.66 398.56 870.81 387.01 824.73 510.69 724.35 623.15 881.95 612.26
00003849 00000109 540.51 125.53 409.06 657.57 689.21 397.02 868.81 383.66 827.09 507.89 730.11 626.03 880.96 613.22
00003850 00000110 543.35 125.05 408.45 660.22 699.37 395.60 875.12 380.98 841.69 504.10 742.09 627.52 886.46 613.39
00003851 00000111 550.73 122.11 407.08 663.74 715.30 394.70 887.56 378.79 865.17 495.62 761.34 627.44 900.66 612.59
00003852 00000112 561.58 121.66 405.05 653.19 731.13 390.44 906.27 374.03 882.62 489.06 777.01 622.80 919.64 608.09
00003853 00000113 569.35 120.75 403.57 646.77 745.99 392.71 917.43 379.02 900.57 483.71 786.69 618.69 929.17 606.69
00003854 00000114 570.48 118.68 401.25 640.47 748.67 394.28 919.76 379.71 901.01 478.40 788.52 613.70 930.19 600.81
00003855 DELETE   565.74 118.73 400.58 636.35 739.48 389.30 909.27 374.02 886.74 476.55 783.26 609.82 921.00 596.02
00003856 00000116 558.69 118.05 404.46 639.79 721.42 387.98 898.89 372.16 867.38 483.29 768.94 610.91 909.62 595.78
00003857 00000117 551.10 117.99 405.91 648.23 709.78 385.06 890.01 368.59 855.77 486.93 757.31 613.04 900.57 597.11
00003858 00000118 545.87 118.14 408.43 648.05 701.92 385.42 881.13 368.60 843.99 487.37 745.27 609.09 890.50 593.19
00003859 00000119 544.47 118.58 408.14 649.15 695.11 383.56 873.64 369.78 833.16 488.38 735.00 606.57 884.55 593.14
00003860 00000120 543.26 117.53 409.44 651.15 691.23 383.41 871.06 370.07 828.01 488.42 732.16 607.78 882.51 594.69
00003861 00000121 543.72 116.89 409.34 648.31 691.26 383.87 870.78 367.99 827.74 487.25 735.81 607.80 884.12 592.48
00003862 00000122 545.41 115.11 407.46 645.73 690.80 383.27 875.04 364.64 831.98 486.30 739.94 608.09 890.07 590.20
00003863 00000123 544.77 116.74 406.66 644.62 689.72 383.74 875.81 364.22 833.58 488.35 739.80 610.23 890.38 591.61
00003864 00000124 540.67 119.22 407.33 646.09 686.49 386.13 868.45 367.07 827.58 492.82 733.31 612.16 881.53 594.49
00003865 00000125 537.55 121.38 410.23 645.26 684.34 387.75 862.28 370.14 820.83 493.23 729.93 611.18 876.29 594.81
00003866 00000126 535.67 120.01 409.15 646.33 682.62 387.95 858.36 369.46 818.54 491.91 729.33 611.06 873.47 594.13
00003867 00000127 535.55 119.70 409.11 645.79 682.91 387.24 858.46 367.86 819.09 490.69 728.95 610.50 873.53 592.92
00003868 00000128 534.09 119.79 409.73 646.36 680.73 387.49 857.38 368.23 817.47 491.57 726.26 609.86 873.23 592.42
00003869 00000129 530.96 121.59 410.35 646.82 675.69 390.23 852.94 371.80 812.30 493.74 719.97 610.81 870.53 594.01
00003870 00000130 529.06 122.36 408.34 647.46 670.24 394.60 847.22 376.32 806.01 496.32 712.86 611.33 868.20 594.60
00003871 00000131 527.21 125.04 408.63 644.90 663.76 400.25 841.74 381.68 798.41 501.18 704.33 612.96 864.47 596.82
00003872 00000132 525.80 129.33 409.84 640.97 658.87 402.16 835.44 382.73 789.53 504.50 696.88 609.86 862.79 593.30
00003873 00000133 522.30 129.56 414.82 642.35 655.24 402.27 831.77 385.13 782.16 503.73 689.91 605.88 860.57 590.91
00003874 00000134 520.10 131.36 415.54 639.16 652.61 403.54 829.93 387.83 777.21 505.43 682.03 602.35 857.97 588.85
00003875 00000135 518.70 135.19 414.51 636.20 650.15 407.25 829.06 391.85 772.34 510.40 675.94 601.83 856.48 588.54
00003876 00000136 516.59 135.41 414.22 645.08 647.22 411.01 827.62 394.19 768.78 514.14 670.56 604.35 857.09 589.85
00003877 00000137 511.61 143.32 416.04 647.42 642.24 419.74 828.84 399.51 770.73 512.48 662.80 609.66 854.48 592.04
00003878 00000138 509.25 144.42 416.83 648.44 640.37 422.28 828.23 399.75 770.03 515.68 661.11 612.65 853.88 593.10
00003879 00000139 508.74 146.78 415.84 645.74 640.21 425.48 825.92 401.74 768.15 520.04 660.31 613.50 852.32 592.92
00003880 00000140 507.45 146.13 415.96 646.19 639.68 426.63 824.61 401.53 768.00 521.89 658.87 613.28 851.69 591.57
00003881 00000141 507.00 146.66 415.38 646.99 639.44 426.29 823.53 401.97 766.46 522.30 655.79 611.88 849.56 590.88
00003882 00000142 506.22 146.55 415.71 649.59 638.76 426.02 823.24 401.39 765.96 522.48 653.87 611.93 849.29 590.64
00003883 00000143 505.91 146.19 416.16 650.88 638.25 426.16 823.35 401.14 765.92 522.93 653.08 612.78 849.06 591.22
00003884 00000144 504.97 144.60 417.15 651.81 637.62 427.29 822.16 401.64 765.26 521.75 656.22 616.33 847.59 594.26
00003885 00000145 508.48 141.04 413.47 641.83 639.12 425.17 823.20 402.77 767.25 516.62 672.05 621.72 844.95 602.14
00003886 00000146 511.27 134.52 410.31 640.37 642.96 419.86 827.96 399.19 774.58 512.78 686.07 628.12 843.39 610.23
00003887 00000147 513.33 130.92 410.15 645.72 647.37 412.76 831.29 393.41 780.42 509.64 693.93 630.52 844.16 613.73
00003888 00000148 521.45 122.46 403.48 658.86 657.50 404.90 826.12 390.50 780.78 508.17 702.33 630.71 834.97 618.73
00003889 00000149 522.46 128.42 402.04 659.92 659.16 411.21 825.84 397.14 781.22 515.92 704.68 636.33 837.36 625.16
00003890 00000150 521.25 137.75 401.18 662.08 656.90 421.85 827.65 405.64 782.68 526.75 705.06 648.26 840.54 635.69
00003891 00000151 520.06 145.90 402.13 662.23 655.65 429.88 832.42 412.18 785.87 538.70 702.25 652.74 847.13 639.01
00003892 00000152 518.38 153.13 406.25 664.11 654.87 439.52 834.30 416.75 787.97 549.21 702.04 659.30 852.33 641.30
00003893 00000153 518.38 165.17 407.52 659.35 655.18 450.97 838.24 425.67 790.91 558.30 699.21 664.36 857.18 644.37
00003894 00000154 521.42 172.83 406.60 663.84 655.74 464.25 843.13 432.41 796.42 569.49 698.09 670.17 869.19 644.02
00003895 00000155 518.04 172.43 411.53 668.37 659.50 459.60 836.33 438.95 793.09 574.77 695.11 674.64 861.23 655.24
00003896 00000156 521.89 171.29 405.26 661.92 656.24 467.29 844.69 432.01 799.04 571.24 704.04 672.78 873.13 643.52
00003897 00000157 520.49 166.32 404.74 653.52 654.64 460.78 843.66 422.60 798.03 564.51 711.06 668.73 877.20 636.68
00003898 00000158 516.88 161.11 405.17 655.83 653.62 452.45 837.19 414.50 796.67 555.32 713.28 664.31 873.92 632.51
00003899 00000159 513.60 151.08 407.36 663.05 650.91 437.51 832.02 402.00 794.13 540.61 713.13 658.98 870.73 629.41
00003900 00000160 513.32 144.66 409.76 667.16 653.27 434.28 833.74 396.56 799.59 537.49 719.62 659.64 875.51 627.74
00003901 00000161 517.99 147.80 407.30 669.99 660.38 439.96 836.97 401.02 806.32 543.32 727.47 666.02 876.55 633.28
00003902 00000162 525.23 160.06 401.16 662.46 666.04 449.47 847.97 410.02 814.78 555.24 735.96 676.47 882.52 643.35
00003903 00000163 526.34 167.80 401.33 653.32 674.20 454.95 849.40 416.41 818.43 559.19 744.75 677.85 882.73 645.72
00003904 00000164 523.00 157.92 404.96 654.56 670.95 447.41 845.74 403.54 817.66 549.51 742.96 668.68 885.39 631.74
00003905 00000165 518.70 147.07 410.19 656.48 664.19 441.37 837.40 393.67 814.84 536.27 737.14 658.79 886.49 618.64
00003906 00000166 510.95 137.66 410.70 658.86 656.21 435.50 833.58 388.22 809.52 527.24 729.84 651.74 883.54 611.88
00003907 00000167 507.07 136.80 410.04 658.11 654.21 432.22 825.35 386.04 805.67 522.11 725.51 646.63 877.19 607.51
00003908 00000168 493.37 136.79 421.37 652.21 654.52 433.43 826.30 379.95 807.22 520.83 722.54 654.41 863.87 608.85
00003909 00000169 491.32 140.64 420.50 645.78 647.97 434.08 824.15 380.54 801.41 522.10 718.75 654.41 862.06 608.59
00003910 00000170 488.90 136.87 423.34 650.08 648.81 435.99 818.19 377.34 797.20 513.22 713.66 646.76 855.62 596.07
