Video ID: 	WbRtz5Trnbo
H: 	2160
W: 	3840
FPS: 	23.976023976023978

FRAME INDEX X0 Y0 W H [Landmarks (5 Points)]

00020466 00000000 1918.70 325.54 423.90 593.69 2112.68 559.51 2271.35 604.72 2211.68 687.04 2081.77 762.96 2196.43 797.05
00020467 00000001 1928.85 334.58 421.54 594.60 2120.53 571.87 2278.63 617.70 2220.60 705.60 2084.02 773.20 2202.63 808.95
00020468 DELETE   1935.75 343.85 427.23 594.90 2128.10 582.51 2286.70 631.76 2224.33 721.98 2085.78 779.49 2208.59 818.41
00020469 00000003 1942.36 341.22 428.01 607.76 2139.52 590.67 2293.35 634.71 2228.81 732.99 2096.16 793.41 2209.68 828.50
00020470 00000004 1947.98 341.75 432.37 608.84 2146.41 593.14 2297.03 639.53 2230.21 739.63 2100.64 795.56 2208.46 832.09
00020471 00000005 1951.73 339.35 434.75 606.96 2144.35 588.24 2299.87 639.83 2233.52 735.88 2098.71 787.06 2214.80 827.54
00020472 00000006 1953.11 340.87 432.59 600.35 2145.09 581.49 2300.92 632.30 2237.32 724.84 2098.98 777.61 2219.15 817.69
00020473 00000007 1952.79 332.36 431.87 603.58 2145.54 572.86 2301.82 626.92 2239.40 712.12 2101.60 772.50 2218.60 813.90
00020474 00000008 1953.39 327.44 430.47 602.80 2147.35 566.96 2301.18 620.69 2240.18 704.27 2104.65 768.80 2217.41 809.49
00020475 00000009 1954.27 326.15 428.57 601.48 2148.26 565.34 2300.49 617.75 2242.73 699.65 2106.19 765.05 2220.51 804.93
00020476 00000010 1956.00 326.57 424.80 600.06 2150.42 566.84 2301.38 618.41 2245.62 698.19 2109.65 764.81 2224.53 803.76
00020477 00000011 1956.79 329.57 421.93 596.11 2151.79 570.12 2301.35 619.56 2247.98 702.07 2113.02 767.96 2226.27 805.05
00020478 00000012 1960.57 335.01 414.78 591.85 2156.80 575.52 2303.67 620.05 2254.47 707.06 2116.84 768.64 2231.93 802.96
00020479 00000013 1961.68 338.00 409.83 588.88 2157.20 580.32 2302.62 620.58 2257.40 709.42 2119.90 771.19 2233.70 802.36
00020480 00000014 1959.94 337.36 410.53 591.38 2156.19 580.17 2302.62 619.98 2258.34 709.52 2117.38 771.03 2233.73 802.42
00020481 00000015 1958.51 337.64 406.86 586.11 2153.54 581.77 2297.38 619.63 2253.89 711.23 2117.68 771.54 2229.08 801.12
00020482 00000016 1955.40 335.94 407.77 588.45 2151.37 579.44 2295.12 620.93 2250.67 707.97 2112.73 769.41 2224.17 801.78
00020483 00000017 1949.73 335.15 409.53 587.69 2142.04 573.86 2290.58 619.00 2241.16 703.80 2104.89 769.70 2217.82 804.42
00020484 00000018 1948.66 334.26 403.84 583.10 2134.37 568.59 2281.83 608.92 2230.64 694.18 2101.61 765.29 2212.76 796.25
00020485 00000019 1937.42 328.13 412.62 581.37 2121.85 558.76 2277.42 600.97 2216.59 685.43 2091.23 758.41 2204.27 790.36
00020486 00000020 1923.92 325.31 424.56 581.69 2111.74 551.88 2270.34 600.44 2201.69 678.98 2078.63 749.52 2191.86 786.27
00020487 00000021 1910.04 318.38 431.14 588.80 2106.38 547.74 2254.04 600.54 2186.61 677.00 2070.04 743.19 2178.48 783.09
00020488 00000022 1904.07 313.88 430.95 591.30 2097.75 542.16 2243.92 598.72 2176.50 671.81 2061.79 735.78 2168.40 778.97
00020489 00000023 1900.94 312.05 428.60 589.13 2091.23 538.83 2237.98 593.31 2169.62 666.57 2055.38 732.25 2164.09 774.14
00020490 00000024 1900.63 305.00 425.58 593.07 2087.89 536.94 2233.99 589.58 2166.26 662.95 2051.87 729.86 2159.96 770.44
00020491 00000025 1898.11 305.74 425.08 594.57 2085.57 535.17 2231.59 586.67 2164.14 660.95 2049.56 727.72 2158.54 767.50
00020492 00000026 1896.08 305.57 424.13 592.99 2082.83 534.65 2229.08 583.70 2162.12 659.72 2050.09 729.25 2157.95 766.73
00020493 00000027 1894.94 305.46 421.15 589.91 2080.31 533.74 2226.99 581.88 2160.43 658.39 2046.87 727.30 2157.18 764.33
00020494 00000028 1897.31 306.80 413.15 590.12 2072.04 531.67 2229.94 583.64 2158.59 659.03 2040.91 728.48 2156.34 769.23
00020495 00000029 1894.62 304.07 413.95 594.53 2069.97 532.15 2227.32 584.96 2156.74 657.81 2036.45 727.09 2154.02 768.82
00020496 00000030 1891.67 307.60 415.11 590.58 2066.10 534.59 2223.37 586.05 2152.00 660.27 2033.78 729.47 2150.27 770.28
00020497 00000031 1889.79 305.79 415.72 594.31 2062.89 534.58 2220.65 586.68 2149.58 659.29 2028.73 728.73 2147.42 770.52
00020498 00000032 1887.28 304.85 415.75 594.87 2058.58 534.89 2216.75 586.31 2144.75 660.30 2025.66 731.03 2143.80 772.29
00020499 00000033 1885.74 308.59 415.05 590.90 2056.00 536.43 2214.23 585.88 2141.47 661.92 2025.31 732.07 2143.39 771.71
00020500 00000034 1884.45 307.91 415.46 592.41 2052.95 536.13 2212.63 585.11 2138.53 662.90 2022.58 734.39 2141.03 773.65
00020501 00000035 1883.75 309.73 414.28 591.02 2052.37 536.32 2211.59 586.05 2137.90 662.15 2020.63 733.24 2139.96 773.20
00020502 00000036 1882.98 304.79 413.20 593.99 2050.24 533.68 2210.36 583.35 2136.72 657.37 2020.70 732.16 2139.20 771.88
00020503 00000037 1880.36 304.89 414.37 588.88 2045.85 528.39 2208.97 579.05 2132.11 651.39 2016.20 726.73 2137.16 767.61
00020504 00000038 1881.40 296.39 409.72 592.96 2040.96 520.48 2202.35 564.13 2129.48 640.79 2015.78 717.01 2137.42 754.04
00020505 00000039 1876.68 290.15 410.53 594.82 2034.64 509.37 2194.41 555.18 2122.84 625.09 2012.85 704.99 2130.13 744.51
00020506 00000040 1871.53 285.53 406.32 582.13 2033.49 502.09 2192.31 554.31 2115.90 609.99 2015.19 692.72 2129.31 733.53
00020507 00000041 1873.59 278.37 402.71 580.82 2019.41 498.13 2185.88 541.11 2108.00 603.52 2007.59 691.04 2130.46 728.18
00020508 00000042 1868.54 270.99 398.75 574.27 2014.58 491.22 2180.42 532.53 2105.64 593.47 2006.01 681.98 2126.79 717.46
00020509 00000043 1861.59 265.42 397.44 574.34 2010.21 484.01 2174.83 525.56 2102.76 585.28 2000.63 673.11 2122.08 708.87
00020510 00000044 1856.85 257.85 396.85 576.46 2006.62 478.68 2170.43 517.28 2102.16 578.76 2000.72 669.46 2120.21 702.04
00020511 00000045 1846.30 257.05 405.97 571.23 2012.53 475.66 2164.65 513.65 2098.96 567.61 2000.48 660.19 2118.23 688.98
00020512 00000046 1847.02 250.30 402.62 573.02 2007.46 474.28 2160.12 506.76 2093.44 564.61 1996.14 658.94 2115.81 683.12
00020513 00000047 1846.24 248.62 397.43 575.61 1994.31 471.72 2157.30 502.40 2082.20 563.88 1986.74 656.34 2112.44 680.22
00020514 00000048 1841.73 251.68 397.72 573.34 1991.12 472.39 2153.39 501.89 2078.62 564.75 1985.52 658.54 2109.25 681.39
00020515 00000049 1837.84 255.86 398.90 571.01 1986.16 474.82 2148.37 501.83 2074.62 569.49 1982.38 661.93 2104.99 683.03
00020516 00000050 1833.28 256.80 399.60 572.29 1980.71 478.26 2145.32 505.17 2069.62 576.31 1977.32 665.93 2101.79 687.14
00020517 00000051 1826.86 258.33 403.96 577.39 1974.71 483.46 2141.79 511.81 2063.86 580.49 1971.76 670.29 2095.98 692.89
00020518 00000052 1823.86 263.58 405.19 577.48 1972.86 488.35 2140.74 517.14 2063.36 586.32 1969.40 675.16 2094.52 698.20
00020519 00000053 1821.41 268.79 407.04 576.28 1970.19 492.82 2139.29 521.87 2060.20 592.84 1964.42 681.77 2090.12 705.31
00020520 00000054 1815.72 272.94 412.82 580.85 1968.24 500.03 2138.93 526.93 2059.54 599.05 1962.86 690.44 2089.66 712.68
00020521 00000055 1814.64 277.14 415.75 584.75 1963.84 506.43 2138.45 533.02 2055.37 611.87 1958.89 699.29 2087.86 721.13
00020522 00000056 1812.55 278.64 420.15 591.06 1962.11 513.08 2136.87 540.01 2054.24 621.16 1956.13 706.89 2086.62 729.14
00020523 00000057 1816.64 289.08 421.88 584.47 1954.84 517.60 2134.23 546.21 2044.96 631.21 1955.40 712.79 2081.26 736.47
00020524 00000058 1814.67 299.38 423.27 586.75 1954.82 530.70 2133.06 556.59 2044.69 649.95 1956.71 732.57 2079.12 753.16
00020525 00000059 1810.63 308.89 427.43 593.87 1951.78 547.41 2128.70 573.30 2038.53 671.69 1951.17 751.39 2071.89 771.06
00020526 00000060 1810.33 321.68 433.77 593.26 1949.85 557.67 2122.43 584.84 2031.32 685.60 1947.38 763.67 2067.54 782.67
00020527 00000061 1810.33 329.49 430.63 599.06 1944.34 570.65 2118.70 597.73 2025.32 702.75 1939.57 775.65 2065.60 795.00
00020528 00000062 1806.51 336.67 436.66 607.50 1938.01 583.20 2118.73 609.74 2022.19 723.94 1933.31 789.25 2064.28 809.13
00020529 00000063 1805.12 338.56 435.48 616.90 1941.84 591.11 2120.20 622.52 2020.55 734.84 1931.95 796.73 2062.43 821.53
00020530 00000064 1802.05 346.17 439.76 616.00 1940.12 597.37 2117.73 628.26 2019.06 737.06 1930.39 802.44 2061.18 826.67
00020531 00000065 1801.94 345.92 439.32 613.61 1935.92 596.39 2116.00 626.31 2015.00 738.31 1928.28 800.77 2061.94 824.21
00020532 00000066 1796.71 336.51 438.53 614.47 1930.63 587.76 2109.53 618.13 2006.54 727.00 1922.78 789.91 2055.20 814.27
00020533 00000067 1797.91 329.46 434.28 605.43 1925.77 572.40 2101.37 600.42 2001.43 700.58 1919.68 774.15 2048.32 794.97
00020534 00000068 1797.46 318.39 431.22 604.20 1925.31 559.02 2098.33 584.45 1998.15 682.22 1919.95 763.40 2047.41 782.44
00020535 00000069 1793.74 311.59 428.98 593.86 1918.12 543.70 2092.33 566.03 1991.47 661.71 1917.88 745.99 2043.51 762.57
00020536 00000070 1790.67 295.84 422.70 599.89 1914.84 529.42 2085.87 548.64 1989.02 645.97 1915.74 728.07 2041.90 742.93
00020537 00000071 1783.23 282.33 423.77 592.14 1907.66 516.51 2085.58 534.67 1989.51 626.58 1914.78 711.23 2044.14 725.40
00020538 00000072 1786.95 273.28 414.46 595.91 1898.88 509.31 2080.55 523.39 1978.93 608.52 1905.80 703.90 2043.92 714.22
00020539 00000073 1784.89 270.48 413.20 587.24 1895.33 501.89 2076.20 513.55 1975.75 593.18 1904.96 694.41 2041.07 702.74
00020540 00000074 1782.81 266.21 410.50 584.57 1894.84 494.13 2073.10 504.04 1974.77 582.95 1906.69 686.69 2040.20 693.55
00020541 00000075 1778.48 261.79 411.17 585.39 1892.58 487.27 2067.79 499.05 1971.39 575.82 1902.37 678.15 2035.29 686.78
00020542 00000076 1774.79 259.83 406.78 578.90 1887.37 482.64 2061.35 492.52 1967.95 569.63 1899.84 674.20 2029.69 681.36
00020543 00000077 1771.53 258.56 404.48 572.52 1880.50 480.84 2055.44 489.86 1961.39 565.80 1895.53 670.81 2024.13 677.40
00020544 00000078 1769.23 256.57 401.75 566.03 1873.57 481.88 2049.55 489.30 1955.93 567.75 1888.82 667.79 2021.10 673.56
00020545 00000079 1762.61 259.20 402.27 563.79 1867.42 482.09 2044.06 488.88 1950.03 569.18 1883.67 668.33 2017.73 673.44
00020546 00000080 1757.97 258.48 401.49 559.35 1861.51 483.55 2039.13 488.95 1942.53 571.33 1879.78 669.58 2013.44 673.76
00020547 00000081 1753.25 258.18 403.80 562.98 1858.61 486.07 2037.43 490.05 1941.03 574.42 1877.32 671.55 2014.25 674.83
00020548 00000082 1749.65 258.25 403.66 565.64 1854.08 488.57 2033.74 492.04 1937.23 577.01 1873.77 676.23 2010.13 679.32
00020549 00000083 1746.47 262.75 402.59 567.59 1851.81 493.22 2032.04 496.39 1936.96 582.58 1870.16 680.74 2008.18 683.86
00020550 00000084 1744.78 268.41 406.14 572.05 1851.10 497.10 2031.10 500.72 1935.37 590.24 1870.46 688.46 2004.43 691.72
00020551 00000085 1742.97 274.13 408.34 576.83 1850.16 503.31 2029.24 505.14 1935.57 602.06 1869.59 700.29 2004.03 702.05
00020552 00000086 1741.58 279.37 410.99 583.29 1848.20 512.80 2030.08 514.04 1934.13 618.12 1867.41 713.98 2004.95 714.94
00020553 00000087 1743.22 286.75 409.99 584.34 1851.56 524.78 2031.68 527.53 1936.64 630.60 1867.91 722.46 2006.07 724.51
00020554 00000088 1742.37 292.16 413.95 584.65 1851.43 531.45 2031.59 536.87 1936.28 640.55 1869.47 728.22 2003.75 732.32
00020555 00000089 1740.90 297.46 415.61 595.02 1853.56 540.06 2030.99 547.33 1935.57 656.85 1869.32 745.03 2000.12 749.91
00020556 00000090 1742.98 305.21 416.32 597.25 1857.71 550.73 2032.96 563.55 1935.24 676.63 1870.12 756.17 1995.55 764.82
00020557 00000091 1742.26 314.42 419.17 605.53 1859.41 567.79 2033.55 574.15 1938.14 692.80 1875.18 774.03 2002.35 777.70
00020558 00000092 1741.42 324.67 424.75 605.98 1858.95 577.37 2035.27 585.17 1936.51 706.76 1874.08 783.78 2005.11 788.61
00020559 00000093 1743.25 333.45 427.00 603.77 1859.11 590.87 2036.23 605.04 1934.59 729.08 1868.33 791.58 2005.35 801.83
00020560 00000094 1744.33 344.41 429.41 603.03 1859.71 603.68 2037.35 617.72 1937.83 739.38 1868.78 802.67 2004.71 813.40
00020561 00000095 1749.22 350.43 430.87 599.39 1861.89 606.79 2039.29 623.20 1938.84 745.88 1871.20 806.35 2002.50 819.02
00020562 00000096 1751.53 353.89 433.42 598.00 1855.74 615.03 2043.46 633.68 1936.63 751.42 1869.54 812.99 2004.07 826.27
00020563 00000097 1756.15 354.13 429.64 597.09 1860.81 613.09 2045.29 634.36 1939.38 750.43 1868.98 807.89 2004.18 823.65
00020564 00000098 1761.22 345.72 429.43 603.30 1868.64 603.93 2051.30 626.39 1942.78 739.55 1869.92 798.65 2012.00 816.33
00020565 00000099 1765.61 336.27 428.31 599.17 1871.04 588.34 2052.56 612.05 1941.64 721.93 1872.55 783.11 2013.02 801.00
00020566 00000100 1774.30 323.28 423.86 598.37 1877.32 568.89 2058.94 590.36 1946.58 694.94 1880.38 767.27 2015.58 782.63
00020567 00000101 1779.24 308.91 422.30 593.97 1887.61 547.28 2064.28 572.29 1954.97 671.80 1887.23 744.48 2016.93 762.87
00020568 00000102 1782.84 294.30 421.21 593.13 1895.29 531.09 2070.66 554.40 1963.54 650.10 1892.94 725.00 2021.97 743.33
00020569 00000103 1789.60 285.63 416.60 586.38 1905.00 514.25 2079.27 540.20 1974.09 630.18 1900.42 706.70 2031.27 727.64
00020570 00000104 1799.70 273.37 407.11 587.92 1912.93 507.05 2086.83 531.62 1984.19 610.19 1906.69 697.21 2040.28 716.31
00020571 00000105 1802.53 269.79 407.36 577.94 1923.28 495.41 2091.42 521.48 1992.37 594.13 1915.38 683.98 2044.37 704.23
00020572 00000106 1805.03 266.46 408.32 575.54 1929.67 490.48 2097.18 516.17 2002.47 581.03 1924.53 676.46 2052.18 696.21
00020573 00000107 1806.97 262.69 409.15 573.23 1934.86 484.41 2101.88 512.84 2006.91 577.31 1926.60 668.73 2055.42 690.66
00020574 00000108 1808.69 263.69 408.69 570.47 1939.15 480.71 2104.68 508.65 2013.39 571.85 1933.19 664.97 2059.82 686.32
00020575 00000109 1809.94 263.86 410.34 567.39 1942.08 479.66 2108.57 506.92 2017.82 568.92 1936.65 664.50 2062.67 685.12
00020576 00000110 1811.59 258.44 405.82 568.14 1940.96 478.94 2112.81 509.00 2021.78 577.00 1935.72 662.62 2065.69 687.57
00020577 00000111 1811.79 261.62 406.95 569.81 1943.43 480.35 2114.80 509.40 2025.18 577.40 1938.50 666.03 2067.38 690.07
00020578 00000112 1813.76 267.33 409.96 568.30 1949.26 482.04 2113.56 511.10 2025.73 572.40 1940.72 667.03 2065.23 689.18
00020579 00000113 1811.53 268.35 409.35 569.42 1947.06 486.62 2117.71 517.46 2027.63 586.55 1938.38 672.31 2066.55 697.94
00020580 00000114 1810.95 272.81 410.26 570.94 1945.92 493.09 2116.52 522.94 2027.20 592.59 1938.04 678.09 2066.00 702.89
00020581 00000115 1809.70 276.78 412.67 572.41 1946.16 500.84 2117.42 529.63 2027.68 600.17 1937.74 685.58 2066.06 709.79
00020582 00000116 1811.56 280.62 413.27 570.57 1946.25 502.70 2114.09 531.64 2025.92 600.80 1938.39 691.48 2062.10 713.87
00020583 00000117 1807.52 281.51 415.21 583.35 1944.66 513.79 2116.06 540.39 2026.06 620.55 1935.89 704.08 2064.52 726.63
00020584 00000118 1812.26 287.35 414.48 578.83 1940.86 515.07 2112.65 545.57 2021.73 625.45 1937.12 704.91 2059.30 731.35
00020585 00000119 1813.71 295.30 415.55 577.79 1943.92 523.10 2115.25 556.74 2023.28 641.57 1935.80 715.13 2058.97 743.30
00020586 00000120 1814.84 304.54 417.80 579.43 1947.64 532.80 2118.60 566.51 2026.23 656.30 1940.74 731.36 2058.78 758.55
00020587 00000121 1813.00 308.46 423.69 586.11 1950.54 544.41 2122.06 577.10 2029.13 672.55 1940.71 741.64 2061.50 767.59
00020588 00000122 1813.11 313.98 428.28 591.53 1952.25 553.36 2124.85 586.27 2029.71 683.85 1944.64 752.96 2062.82 778.60
00020589 00000123 1815.54 323.94 426.51 592.28 1956.25 565.63 2127.59 596.89 2031.49 695.05 1945.72 762.25 2066.78 786.91
00020590 00000124 1818.44 324.96 429.66 595.70 1954.93 567.59 2127.66 603.55 2034.07 703.27 1943.43 767.57 2066.92 793.49
00020591 00000125 1819.09 330.14 433.63 599.13 1955.02 574.12 2129.91 611.79 2032.58 716.09 1939.37 773.53 2067.15 801.22
00020592 00000126 1820.48 334.08 435.31 601.97 1954.40 580.62 2132.89 617.89 2031.29 727.50 1937.64 779.59 2069.29 807.36
00020593 00000127 1821.96 326.55 436.83 615.98 1955.25 585.16 2135.26 623.15 2033.34 732.08 1938.12 784.88 2067.97 813.93
00020594 00000128 1821.08 331.29 439.36 613.15 1951.02 585.45 2130.50 628.61 2023.89 728.57 1929.33 784.89 2057.10 818.74
00020595 DELETE   1816.04 335.84 443.95 607.37 1939.53 579.53 2124.64 630.18 1998.66 718.92 1910.60 778.31 2040.50 820.87
00020596 00000130 1804.03 317.93 455.05 614.89 1927.68 557.97 2102.45 629.20 1970.23 701.75 1884.60 755.82 2011.15 810.61
00020597 00000131 1800.24 306.38 457.79 612.86 1923.56 548.63 2092.57 629.95 1948.51 685.44 1867.69 741.48 1992.52 803.16
00020598 00000132 1791.36 303.12 463.08 607.73 1922.64 533.24 2089.83 626.23 1940.45 671.79 1855.31 722.88 1987.75 794.64
00020599 00000133 1790.34 303.92 461.53 601.72 1922.83 527.17 2088.17 618.69 1939.22 666.35 1855.90 717.56 1986.77 788.75
00020600 00000134 1793.59 300.72 458.79 604.86 1929.87 519.42 2091.04 612.51 1946.29 660.73 1861.39 710.88 1989.68 783.73
00020601 00000135 1801.70 297.46 450.96 606.37 1933.20 516.39 2093.68 606.73 1952.33 655.93 1866.46 710.57 1994.56 781.24
00020602 00000136 1807.55 293.18 451.26 609.04 1937.69 513.52 2096.29 599.07 1958.96 652.13 1874.72 708.75 2001.57 775.71
00020603 00000137 1807.99 293.50 452.83 604.58 1940.76 510.19 2100.39 595.12 1962.96 645.06 1876.88 703.99 2005.16 770.88
00020604 00000138 1809.74 293.45 452.07 603.33 1940.75 506.97 2101.35 590.74 1963.45 644.14 1878.67 701.91 2006.82 767.96
00020605 00000139 1810.60 291.40 452.24 599.53 1942.47 505.91 2103.34 587.96 1965.24 639.72 1878.93 696.74 2009.16 761.66
00020606 00000140 1810.99 303.96 451.62 585.45 1947.30 507.78 2104.40 590.34 1972.00 639.05 1882.44 696.20 2008.55 762.05
00020607 00000141 1809.91 308.41 453.56 585.48 1953.67 499.39 2110.61 579.13 1976.16 631.58 1886.41 691.13 2014.91 755.48
00020608 00000142 1810.49 309.46 456.38 583.78 1953.88 500.18 2112.79 579.65 1977.20 631.98 1887.72 692.80 2014.96 756.73
00020609 00000143 1812.69 308.80 455.97 580.57 1954.90 506.78 2112.41 583.71 1980.91 632.99 1891.50 694.56 2016.55 756.31
00020610 00000144 1816.73 306.01 450.96 585.99 1955.18 510.15 2111.07 588.87 1981.22 638.50 1894.51 697.97 2018.79 760.37
00020611 00000145 1817.36 301.21 449.60 590.68 1954.38 512.52 2110.78 591.20 1982.05 641.93 1893.90 698.00 2021.11 760.00
00020612 00000146 1817.71 300.20 450.35 592.78 1955.98 514.25 2110.58 592.53 1984.14 643.55 1896.06 699.95 2020.72 761.54
00020613 00000147 1815.98 309.95 450.76 586.45 1956.21 517.72 2110.10 596.36 1983.11 647.45 1897.00 701.86 2020.14 764.04
00020614 00000148 1815.00 311.58 452.22 588.65 1957.38 521.32 2114.30 601.39 1988.05 651.32 1896.50 706.86 2021.45 769.80
00020615 00000149 1818.13 309.47 450.61 593.33 1959.13 524.68 2115.40 603.23 1992.04 655.03 1901.69 712.08 2023.87 772.92
00020616 00000150 1816.19 314.34 454.67 588.13 1961.15 528.88 2118.21 608.11 1995.80 660.84 1902.20 716.54 2023.75 777.90
00020617 00000151 1817.77 313.49 456.95 593.21 1962.78 532.13 2120.98 610.59 1999.25 662.76 1906.09 720.33 2026.02 780.86
00020618 00000152 1818.31 310.98 460.01 598.08 1963.78 534.27 2123.69 613.05 2001.57 669.80 1906.34 725.49 2027.12 786.08
00020619 00000153 1820.58 312.53 457.39 597.36 1964.50 537.45 2124.01 615.80 2001.86 672.70 1908.30 729.15 2027.63 789.06
00020620 00000154 1819.67 316.22 461.07 595.02 1966.73 538.85 2125.83 618.83 2002.62 676.55 1909.15 729.37 2028.87 790.92
00020621 00000155 1822.21 315.33 457.94 595.68 1965.51 539.88 2124.84 618.80 2001.21 678.26 1910.57 731.17 2030.04 791.56
00020622 00000156 1820.80 318.22 458.40 592.58 1963.70 542.21 2122.56 619.66 1999.89 679.32 1908.20 733.21 2027.15 792.67
00020623 00000157 1819.85 316.55 460.05 597.04 1962.53 542.36 2122.55 620.76 1998.98 681.32 1906.75 733.67 2027.71 793.84
00020624 00000158 1818.62 317.28 459.50 597.53 1962.15 542.03 2122.30 621.43 1999.10 681.61 1905.19 732.93 2027.30 793.94
00020625 00000159 1815.94 315.88 461.07 598.75 1962.52 542.92 2121.96 623.01 2000.01 680.69 1904.80 732.76 2025.72 794.05
00020626 00000160 1815.98 317.96 461.11 596.61 1961.34 544.04 2121.04 622.75 1998.90 680.62 1904.98 733.76 2025.73 794.09
00020627 00000161 1816.22 315.75 460.29 599.79 1959.59 543.81 2120.28 621.78 1997.96 681.44 1904.65 734.68 2026.35 794.33
00020628 00000162 1815.55 318.98 459.30 596.06 1957.82 543.68 2119.19 620.98 1996.26 682.07 1903.62 734.74 2025.94 794.00
