Video ID: 	27We1asHYfc
H: 	1080
W: 	1920
FPS: 	25.0

FRAME INDEX X0 Y0 W H [Landmarks (5 Points)]

00008405 00000000 745.68 260.28 374.81 514.17 787.44 484.32 904.06 506.39 798.51 614.37 844.20 654.51 944.89 668.02
00008406 DELETE   737.73 274.54 395.42 508.54 781.45 503.85 899.07 526.36 797.49 630.91 846.84 667.68 945.22 681.64
00008407 00000002 738.95 275.49 390.10 506.30 783.28 507.36 903.20 531.93 802.85 636.02 849.77 672.93 944.62 688.66
00008408 DELETE   742.31 276.71 387.56 508.44 784.79 504.16 905.35 528.35 800.39 632.82 848.42 669.81 948.44 684.90
00008409 00000004 750.95 259.31 385.99 525.95 787.02 491.52 915.95 510.02 802.17 623.51 840.33 666.02 955.98 677.33
00008410 00000005 745.59 246.84 399.28 527.32 790.69 475.95 921.12 497.62 808.82 608.76 845.06 655.29 952.62 668.93
00008411 00000006 758.92 234.74 379.00 527.11 794.89 465.75 923.50 494.00 814.11 597.06 850.24 647.87 946.11 666.83
00008412 00000007 754.32 244.08 389.69 526.09 797.17 461.49 934.87 490.83 820.92 614.20 857.65 649.27 959.11 670.42
00008413 00000008 751.20 247.62 394.37 526.84 797.47 467.01 938.26 492.46 824.49 617.15 859.57 651.19 967.30 668.63
00008414 00000009 753.33 247.54 392.10 528.59 798.05 466.70 937.97 491.73 823.80 618.11 860.35 654.08 968.04 671.25
00008415 00000010 762.46 244.28 380.67 527.48 804.06 462.17 941.56 489.26 826.13 612.81 860.14 651.77 964.01 670.47
00008416 00000011 767.94 241.11 378.52 520.14 806.54 461.50 937.71 493.64 825.02 594.89 865.38 644.98 964.46 667.36
00008417 00000012 769.81 228.39 380.65 527.18 815.54 455.78 944.80 483.65 837.39 583.49 870.02 641.18 967.71 660.94
00008418 00000013 772.06 228.98 378.83 528.63 815.42 453.93 946.68 485.96 832.29 587.23 868.38 634.37 972.98 657.49
00008419 00000014 775.10 222.76 375.94 533.57 815.10 452.20 946.48 484.73 830.85 586.73 872.15 634.90 975.46 658.42
00008420 00000015 775.95 230.97 369.13 517.36 807.67 447.74 936.36 483.38 818.81 587.81 864.53 631.74 963.44 656.88
00008421 00000016 777.93 219.90 361.51 521.47 807.76 444.62 927.45 480.07 813.81 576.81 857.25 628.70 949.68 653.44
00008422 00000017 771.59 216.10 369.18 528.42 803.49 447.16 921.09 485.28 805.28 580.07 835.20 626.22 931.07 652.48
00008423 00000018 771.78 217.60 365.75 521.92 799.70 441.70 919.78 482.78 797.49 575.32 827.60 622.26 925.15 650.86
00008424 00000019 776.18 213.82 357.93 518.76 799.50 439.44 915.25 482.09 794.26 570.96 822.48 618.83 918.91 649.09
00008425 00000020 776.63 209.83 356.69 523.12 802.69 436.32 914.60 479.51 794.37 567.05 826.27 614.32 920.11 645.20
00008426 00000021 778.35 205.19 363.49 532.46 808.41 428.61 923.63 472.83 805.26 567.50 835.94 612.45 934.31 644.37
00008427 DELETE   786.25 206.44 370.74 519.48 820.77 420.85 958.19 466.52 827.72 569.31 851.42 602.89 959.88 637.78
00008428 00000023 806.06 211.56 373.36 523.59 838.53 432.96 985.16 468.02 855.69 580.78 873.23 620.97 990.75 645.82
00008429 00000024 807.80 213.49 389.14 537.71 847.51 439.50 1002.38 469.36 879.16 591.58 883.50 630.05 1012.32 650.61
00008430 DELETE   806.90 217.32 395.11 554.21 855.89 454.02 1007.86 476.70 888.72 593.96 891.94 637.75 1028.03 651.87
00008431 DELETE   809.94 236.21 404.83 554.60 855.22 473.66 1002.84 499.95 881.71 617.77 899.36 666.45 1024.93 684.40
00008432 00000027 812.02 260.46 392.94 533.73 857.45 487.85 1005.13 522.99 883.10 636.15 895.67 675.75 1019.15 701.18
00008433 00000028 810.26 264.79 395.04 538.34 857.66 492.01 1008.97 530.72 886.57 642.28 889.06 675.84 1021.46 703.56
00008434 00000029 814.41 263.65 395.01 532.09 858.73 484.18 1013.75 523.12 887.16 637.96 890.40 666.20 1028.05 694.53
00008435 00000030 820.28 245.74 389.65 540.46 866.18 470.83 1020.35 509.17 891.35 620.59 886.51 653.08 1032.51 681.37
00008436 00000031 819.58 250.92 388.94 527.63 864.09 459.50 1026.56 501.49 899.90 616.75 896.21 642.15 1036.99 674.17
00008437 00000032 822.91 250.20 390.04 530.58 867.41 462.75 1025.49 501.43 900.03 617.81 902.47 644.70 1038.32 673.75
00008438 00000033 820.58 248.66 394.01 533.23 865.16 461.59 1024.27 500.28 897.98 618.58 902.11 645.65 1038.39 674.55
00008439 00000034 823.38 240.51 389.72 533.75 870.38 450.82 1024.95 493.35 898.28 604.65 898.15 624.40 1036.95 655.89
00008440 00000035 834.49 204.27 376.89 549.63 869.50 434.76 1019.59 473.73 891.98 579.98 900.94 615.89 1041.13 644.85
00008441 00000036 835.30 196.09 382.73 555.24 873.18 425.44 1022.55 469.71 892.10 577.68 903.39 611.64 1042.06 644.53
00008442 00000037 834.63 201.53 383.59 549.56 871.18 429.96 1020.83 469.71 893.88 580.40 906.82 615.44 1043.55 644.63
00008443 00000038 823.81 211.77 386.66 547.42 867.69 427.69 1024.60 472.36 897.30 589.36 903.02 612.93 1041.94 644.33
00008444 00000039 818.45 211.99 388.18 550.25 866.35 427.80 1022.76 472.42 897.00 586.87 898.14 612.94 1036.68 644.52
00008445 00000040 821.36 203.39 393.07 559.49 869.94 440.68 1020.57 476.16 893.19 587.63 894.32 619.57 1030.35 645.16
00008446 00000041 817.35 207.45 391.80 552.63 866.69 423.50 1020.82 461.44 896.34 575.99 899.76 610.54 1031.44 637.47
00008447 00000042 814.33 209.92 392.36 540.19 859.39 423.43 1019.38 466.83 893.39 583.80 894.82 607.05 1031.69 638.65
00008448 00000043 814.26 204.33 396.57 543.10 860.53 433.75 1016.86 472.96 885.62 583.95 880.72 614.88 1020.44 643.69
00008449 00000044 815.52 201.63 390.21 542.51 864.18 433.33 1016.48 475.11 885.07 576.16 874.84 606.36 1015.58 637.04
00008450 00000045 814.57 203.75 389.25 540.15 861.24 431.60 1014.65 472.83 882.39 576.47 876.18 606.32 1015.04 636.04
00008451 00000046 814.59 205.12 387.64 537.18 860.76 436.21 1010.60 474.93 880.56 576.26 877.95 609.92 1012.74 637.70
00008452 00000047 812.56 219.00 384.79 522.50 855.40 441.78 1004.99 478.39 878.27 580.31 878.85 612.90 1012.46 638.15
00008453 00000048 811.61 210.27 382.41 537.33 856.59 446.85 1002.29 478.60 879.98 585.18 881.48 618.80 1013.83 640.35
00008454 00000049 806.58 213.54 379.45 529.72 853.87 436.55 1001.96 476.03 871.75 579.11 880.97 623.66 1000.50 654.43
00008455 00000050 803.10 217.71 381.11 522.42 849.79 434.02 998.47 473.62 869.05 578.17 878.97 621.89 996.99 652.73
00008456 00000051 801.03 220.09 382.42 518.70 849.43 432.27 997.55 473.17 867.51 572.53 874.43 617.19 992.76 648.97
00008457 00000052 795.93 210.58 384.90 525.73 844.88 426.67 994.64 471.41 860.84 568.43 869.12 614.14 989.79 648.48
00008458 00000053 806.03 212.32 376.79 523.86 848.64 433.40 991.78 476.55 860.78 574.76 865.98 608.93 992.07 639.77
00008459 00000054 802.22 206.05 378.71 525.46 843.43 425.37 987.49 466.69 855.64 568.30 861.47 605.17 987.66 634.61
00008460 00000055 803.30 199.68 373.78 520.11 841.97 427.88 982.42 466.96 851.43 565.62 861.55 601.89 983.76 629.62
00008461 00000056 800.61 200.12 368.26 517.21 837.25 421.62 976.76 461.01 847.09 563.77 858.72 596.20 979.95 624.98
00008462 00000057 791.21 202.76 367.54 517.98 829.51 417.64 960.94 461.37 833.94 562.07 855.21 594.47 966.26 626.75
00008463 00000058 779.62 190.71 373.86 528.27 817.20 407.84 950.83 452.96 819.48 555.43 845.88 591.89 950.65 626.45
00008464 DELETE   776.53 191.33 365.98 523.11 817.03 404.05 931.33 452.21 803.95 543.98 846.09 579.97 935.56 616.92
00008465 DELETE   769.79 191.74 364.40 512.52 801.82 391.97 909.93 456.63 780.63 540.18 832.25 563.06 910.75 614.11
00008466 DELETE   767.92 182.77 359.71 520.43 799.36 392.70 907.56 443.62 775.59 532.19 832.18 565.33 913.22 605.30
00008467 00000062 768.71 179.07 350.19 527.93 801.46 393.19 903.69 437.08 771.44 525.43 834.59 565.94 916.26 600.04
00008468 00000063 765.49 167.66 349.89 542.18 801.81 390.03 899.18 427.73 765.15 515.32 834.86 565.87 912.45 594.60
00008469 00000064 763.40 161.97 351.06 545.70 798.34 386.95 899.28 425.93 762.80 509.11 829.45 560.48 909.18 590.50
00008470 00000065 762.32 158.25 353.04 549.54 799.63 383.28 900.31 418.42 767.07 502.27 830.88 557.00 911.71 583.86
00008471 00000066 762.01 152.55 357.89 557.84 805.84 379.80 901.18 414.85 769.21 498.56 836.58 555.56 915.06 581.43
00008472 00000067 769.67 133.04 343.20 580.71 810.40 375.81 896.16 416.37 777.64 501.20 847.25 556.35 925.42 584.41
00008473 00000068 769.76 129.18 347.37 587.44 811.26 374.69 898.77 410.10 779.48 501.21 852.46 557.68 932.49 581.93
00008474 00000069 767.95 126.07 351.17 590.84 810.74 372.93 899.41 407.80 778.47 501.95 854.84 557.18 936.41 580.85
00008475 00000070 767.58 125.02 351.55 591.99 810.68 372.33 899.06 407.27 778.47 501.95 855.64 556.41 937.96 580.02
00008476 00000071 767.21 124.78 352.06 591.75 808.89 372.72 898.64 407.03 778.02 502.56 853.92 556.60 937.83 579.67
00008477 00000072 768.18 128.85 349.17 584.56 809.58 374.06 899.31 411.61 778.70 503.96 853.42 555.12 936.93 580.79
00008478 00000073 767.34 135.58 348.65 576.30 806.91 375.34 897.94 415.20 777.89 505.63 849.23 555.98 933.57 583.24
00008479 00000074 760.29 157.60 362.17 553.23 807.92 382.88 903.61 417.46 776.11 506.80 847.72 553.78 928.69 578.66
00008480 00000075 762.05 160.57 356.41 549.07 804.10 390.34 899.64 424.55 770.75 512.63 845.00 557.51 924.57 582.29
00008481 00000076 767.43 168.68 351.22 538.96 803.37 390.48 901.74 431.69 771.21 517.56 840.31 556.84 923.40 587.78
00008482 00000077 764.14 168.91 354.71 537.80 801.11 394.86 904.02 434.28 774.40 525.33 842.55 563.34 924.15 593.20
00008483 00000078 763.97 174.46 356.98 533.00 798.03 400.36 906.27 437.52 778.41 530.87 841.65 567.80 926.21 596.34
00008484 00000079 761.51 181.40 358.33 521.47 791.84 405.66 905.14 449.39 775.65 537.37 831.56 566.01 919.76 600.28
00008485 00000080 756.42 181.91 363.00 517.91 787.83 403.96 907.94 450.10 779.11 539.81 826.65 566.71 916.12 603.38
00008486 00000081 755.33 182.00 364.47 522.97 786.98 404.84 903.15 447.17 775.40 540.34 829.00 569.65 916.14 603.01
00008487 00000082 746.38 181.86 362.49 531.25 787.38 410.27 891.79 439.65 777.53 542.91 826.44 596.55 913.71 617.22
00008488 00000083 745.59 181.43 355.50 527.05 786.97 408.90 888.15 443.95 773.64 542.25 824.75 592.16 909.59 616.98
00008489 00000084 742.18 180.05 354.73 523.59 784.55 406.41 883.51 445.16 768.95 539.70 820.86 586.71 904.84 614.46
00008490 00000085 737.50 173.62 357.14 533.04 774.02 410.19 878.31 448.73 758.74 541.76 817.16 581.80 904.58 609.19
00008491 00000086 738.76 172.70 353.80 528.96 774.24 406.19 879.35 444.89 760.82 537.34 815.02 581.76 898.73 609.60
00008492 00000087 739.08 173.06 350.52 525.15 775.18 400.73 879.01 443.15 760.75 532.51 811.91 576.75 893.87 607.27
00008493 00000088 740.51 168.54 347.93 529.09 778.17 397.18 878.05 437.14 760.23 527.27 811.78 576.08 890.32 604.77
00008494 00000089 742.30 163.86 345.47 538.24 779.85 397.14 878.53 432.68 760.07 524.91 810.52 579.25 889.49 604.79
00008495 00000090 744.73 165.56 343.62 533.58 781.00 397.28 879.22 431.35 761.58 524.00 815.71 579.09 891.70 603.83
00008496 00000091 744.12 164.81 342.49 534.60 778.07 397.51 877.49 432.22 760.40 524.16 814.29 576.69 893.09 602.01
00008497 00000092 746.95 161.72 343.21 534.02 784.00 390.46 875.94 429.20 759.46 519.34 816.95 569.59 891.32 597.70
00008498 00000093 748.47 161.57 345.10 540.13 784.93 392.56 875.37 429.04 759.37 524.13 823.30 569.40 901.90 595.25
00008499 00000094 749.63 162.27 346.09 533.94 786.65 392.63 878.08 426.99 763.63 522.51 825.11 571.54 899.01 596.01
00008500 00000095 752.15 162.94 344.19 532.29 788.35 394.09 884.18 428.96 768.19 520.86 823.07 571.79 898.70 597.39
00008501 00000096 753.41 160.78 342.81 530.77 787.89 390.83 888.07 422.20 773.68 516.85 823.00 570.80 900.15 594.15
00008502 00000097 753.14 157.07 345.60 533.92 788.96 390.51 888.27 421.18 773.99 515.81 823.70 570.65 900.67 593.23
00008503 00000098 754.28 154.82 346.86 536.64 791.55 389.88 890.65 421.03 774.81 514.49 825.55 570.85 902.20 593.75
00008504 00000099 756.27 149.29 351.28 545.17 793.25 386.97 892.28 415.01 775.15 511.46 825.27 572.18 904.26 592.33
00008505 00000100 758.23 151.77 349.95 545.14 794.26 386.27 890.93 413.09 774.48 511.22 826.62 572.30 905.66 591.28
00008506 00000101 759.90 150.64 348.45 547.58 795.45 386.34 890.30 412.89 774.49 511.50 830.47 572.05 908.95 590.39
00008507 00000102 761.40 146.98 347.28 554.23 792.55 387.43 889.45 419.93 774.45 511.04 833.08 565.29 916.26 586.04
00008508 00000103 759.03 150.45 351.28 541.16 796.89 383.87 893.50 413.38 775.11 509.81 831.74 569.27 908.90 589.84
00008509 00000104 761.74 156.72 353.71 535.87 790.83 389.67 900.69 423.56 768.45 509.18 824.43 556.32 911.67 583.52
00008510 00000105 757.94 156.52 350.12 527.19 797.81 385.55 901.47 422.69 774.82 506.04 820.41 558.49 911.52 583.26
00008511 00000106 761.61 158.30 354.30 534.17 793.09 390.13 902.44 427.46 769.20 512.38 825.35 556.10 911.88 585.86
00008512 00000107 762.12 158.67 353.00 534.57 793.98 390.10 902.75 427.28 770.63 512.48 826.01 556.09 912.99 585.79
00008513 00000108 762.14 159.12 354.68 533.62 795.05 388.58 905.57 426.27 773.25 510.76 824.83 554.55 913.28 584.77
00008514 00000109 762.72 161.60 355.13 530.34 796.54 388.26 904.78 425.69 773.38 508.88 826.55 554.71 912.21 584.69
00008515 00000110 765.81 167.07 350.39 526.89 793.59 388.65 904.48 426.40 772.61 513.94 826.03 558.66 912.60 589.22
00008516 00000111 763.48 164.30 352.55 535.68 789.90 392.50 899.91 433.26 765.88 515.12 820.87 561.36 905.59 594.06
00008517 00000112 763.61 161.80 350.19 538.74 789.60 394.61 898.38 433.16 764.62 518.38 820.89 566.68 903.94 598.09
00008518 00000113 753.39 158.00 354.19 540.14 792.48 395.24 890.41 431.45 767.61 523.25 819.01 580.65 896.31 606.31
00008519 00000114 752.67 156.64 355.07 541.97 792.17 396.87 889.52 433.18 767.05 524.15 818.30 581.04 895.08 606.84
00008520 00000115 762.62 166.68 350.29 530.35 791.14 398.32 895.87 443.31 761.02 523.84 819.52 565.93 898.75 602.05
00008521 00000116 764.03 165.67 348.86 530.10 791.21 397.93 895.98 442.28 761.49 522.36 819.45 564.44 899.99 600.40
00008522 00000117 765.20 164.13 346.91 531.34 791.35 397.45 896.77 439.72 762.00 519.22 819.37 565.43 898.93 599.94
00008523 00000118 766.28 162.68 347.63 531.77 791.76 398.08 896.52 438.91 761.92 517.47 818.82 565.75 897.22 599.37
00008524 00000119 765.70 160.62 348.03 534.71 790.53 397.83 896.01 437.83 760.88 517.83 818.61 566.67 897.36 599.42
00008525 00000120 765.65 160.80 349.64 536.57 790.58 398.06 897.22 438.11 761.04 519.90 820.24 566.63 899.98 599.12
00008526 00000121 765.48 164.50 352.22 533.54 793.73 397.53 896.59 436.95 761.85 518.98 826.99 564.78 904.79 596.25
00008527 00000122 765.98 167.05 350.85 529.85 795.93 397.05 896.32 437.29 763.21 519.20 829.76 562.48 907.00 594.43
00008528 00000123 766.29 166.17 350.28 533.31 797.62 396.40 898.19 436.60 765.58 518.82 831.73 562.60 908.48 594.15
00008529 00000124 766.95 165.29 350.52 533.35 794.26 394.72 899.36 434.76 764.80 519.75 827.97 565.59 906.30 597.67
00008530 00000125 769.40 166.21 349.71 528.60 793.81 396.13 900.41 436.23 764.95 519.99 824.55 567.89 903.24 600.77
00008531 00000126 770.50 165.48 348.83 530.78 794.39 396.57 901.33 436.50 764.86 520.65 824.19 569.37 903.19 602.26
00008532 00000127 770.49 166.09 347.43 534.97 794.63 395.10 901.39 436.70 764.37 522.28 824.45 568.39 905.74 602.25
00008533 00000128 767.86 166.87 349.60 540.27 796.53 395.54 901.02 435.30 766.40 524.07 829.45 570.31 910.19 601.81
00008534 00000129 765.04 167.68 351.97 546.37 796.19 395.32 901.09 430.15 765.41 524.06 835.05 575.42 914.77 601.97
00008535 00000130 765.16 168.90 351.97 545.51 796.28 395.25 901.54 429.84 766.74 525.75 837.77 574.89 919.13 600.97
00008536 00000131 765.34 168.79 350.96 544.70 797.38 395.39 900.47 430.07 767.06 525.41 838.68 573.03 919.24 599.12
00008537 00000132 763.14 163.70 352.88 551.08 796.43 394.30 899.09 430.02 765.19 523.92 837.19 572.42 915.50 599.07
00008538 00000133 766.37 165.30 350.91 542.66 795.87 393.37 900.77 431.64 766.23 522.65 832.45 569.60 913.04 599.31
00008539 00000134 767.26 163.03 351.37 535.65 792.04 394.50 901.79 436.46 763.25 521.69 823.24 567.55 906.46 601.50
00008540 00000135 766.65 160.69 352.82 542.16 791.65 394.61 902.17 433.93 762.96 519.30 820.10 570.33 904.13 602.55
00008541 00000136 765.06 166.09 350.94 541.65 788.87 397.77 898.37 436.11 759.55 524.32 819.59 574.03 903.99 604.90
00008542 00000137 760.45 169.29 357.88 541.04 790.36 398.24 900.46 438.62 765.04 528.84 820.94 576.14 903.72 608.45
00008543 00000138 756.36 171.27 359.84 535.92 786.54 401.39 897.46 441.86 761.86 530.20 817.71 576.60 899.70 609.21
00008544 00000139 742.82 172.38 365.21 534.97 790.15 401.57 889.28 438.52 764.88 533.19 810.92 594.51 893.09 620.46
00008545 00000140 741.49 170.94 363.58 540.90 790.19 401.82 887.27 437.68 764.36 532.95 811.66 593.57 894.75 618.73
00008546 00000141 741.90 172.22 361.36 538.64 789.46 402.89 886.50 438.33 764.64 533.39 812.58 594.16 894.13 619.19
00008547 00000142 740.88 173.78 359.21 531.66 786.56 401.19 886.25 439.45 762.29 532.09 807.01 592.99 888.78 620.48
00008548 00000143 738.53 172.34 362.22 532.89 782.54 400.71 882.98 440.84 758.65 530.80 800.41 591.04 883.78 619.81
00008549 00000144 735.89 170.28 363.32 534.36 777.74 400.49 881.76 440.87 757.26 530.95 797.47 591.94 883.98 620.77
00008550 00000145 735.84 176.46 364.53 530.89 778.59 402.69 884.84 440.84 762.37 531.21 799.79 592.37 888.54 619.74
00008551 00000146 738.80 171.49 369.69 552.13 785.77 407.54 890.67 439.54 768.37 536.64 812.01 599.55 901.51 622.32
00008552 00000147 742.96 170.20 370.44 559.00 789.00 404.43 896.35 434.46 770.97 537.97 816.72 598.96 912.54 620.08
00008553 00000148 753.38 167.55 369.35 558.49 796.77 405.03 905.47 435.78 781.66 537.24 824.20 599.70 918.68 621.63
00008554 00000149 768.17 167.58 360.40 569.92 795.18 405.40 915.40 439.43 783.75 535.90 823.46 595.43 926.17 619.38
00008555 00000150 772.39 171.94 365.11 564.51 799.28 408.84 921.87 442.29 795.61 541.54 825.90 598.07 932.19 622.20
00008556 00000151 774.78 170.25 367.88 568.22 802.75 412.57 930.94 443.90 804.93 545.03 829.43 599.85 939.33 622.79
00008557 00000152 771.71 176.65 374.39 562.39 807.13 415.22 941.29 449.53 809.71 553.97 829.73 598.12 952.32 623.57
00008558 00000153 773.12 177.85 378.23 561.37 808.89 416.74 947.51 451.36 817.14 557.42 832.89 598.76 958.07 624.52
00008559 00000154 774.50 177.38 379.35 564.62 811.74 417.01 950.12 454.64 821.91 561.16 837.64 599.47 961.09 627.54
00008560 00000155 774.89 179.55 382.69 560.92 813.87 416.23 954.28 453.92 827.06 562.01 840.39 599.14 965.01 627.29
00008561 00000156 777.95 175.47 380.12 564.36 816.46 417.04 957.05 454.64 830.91 560.55 842.30 599.48 964.94 627.70
00008562 00000157 779.59 174.69 380.25 565.39 817.98 416.57 959.92 452.75 832.95 558.43 842.22 599.28 966.24 626.53
00008563 00000158 785.03 181.51 376.54 549.02 819.85 416.68 962.56 452.73 838.61 559.81 842.40 595.42 970.94 622.44
00008564 00000159 785.38 182.81 378.56 547.09 821.66 417.64 964.10 453.37 841.76 560.11 844.23 594.11 972.33 620.95
00008565 00000160 784.85 184.29 382.89 546.35 822.80 416.00 965.67 451.94 842.75 557.88 845.54 593.35 972.77 620.48
00008566 00000161 784.79 182.96 382.02 550.11 824.35 415.79 966.54 452.70 843.16 555.52 846.40 592.74 972.39 620.60
00008567 00000162 784.00 181.62 383.96 557.00 823.55 415.02 966.04 450.58 841.78 555.01 847.11 596.56 970.12 623.35
00008568 00000163 779.67 186.41 391.18 549.19 827.60 410.51 967.76 440.01 838.21 551.96 854.29 607.80 971.56 629.43
00008569 00000164 780.10 185.30 387.21 553.16 824.96 411.94 966.42 442.39 834.91 554.58 853.92 607.37 974.47 629.71
00008570 00000165 779.40 188.52 385.65 553.21 824.22 413.87 965.23 443.93 834.67 555.80 854.50 609.54 973.26 631.69
00008571 00000166 779.05 184.64 381.96 557.43 822.90 413.97 964.63 445.59 833.90 554.07 849.82 608.26 971.78 631.60
00008572 00000167 777.72 181.47 377.74 557.90 818.98 412.49 962.02 446.72 830.06 555.13 842.34 606.38 969.51 631.78
00008573 00000168 776.96 183.07 376.73 555.27 818.80 412.14 961.42 447.46 829.42 554.14 838.13 603.40 967.26 629.54
00008574 00000169 772.72 185.04 376.75 555.69 811.29 420.84 957.16 460.42 826.59 563.83 822.91 599.69 956.42 629.42
00008575 00000170 769.37 184.95 380.24 557.03 808.83 421.90 955.15 461.27 824.33 565.28 819.66 600.99 953.67 630.65
