Video ID: 	zLTOawVKXEA
H: 	1080
W: 	1920
FPS: 	25.0

FRAME INDEX X0 Y0 W H [Landmarks (5 Points)]

00054815 00000000 796.97 252.14 474.13 724.75 865.51 584.28 939.57 600.69 832.02 739.85 948.19 805.33 1021.85 813.10
00054816 00000001 793.28 256.87 479.15 718.88 863.43 587.96 942.65 607.79 832.29 744.96 941.24 808.83 1016.70 819.93
00054817 00000002 787.74 252.02 483.64 720.85 861.06 589.70 944.28 610.98 834.05 746.05 937.22 808.33 1012.96 820.80
00054818 00000003 789.38 250.18 483.23 722.69 861.43 591.38 946.00 611.42 833.30 745.26 936.49 808.64 1014.31 820.29
00054819 00000004 796.49 253.56 478.49 716.08 866.20 588.17 948.51 605.37 834.96 737.02 938.80 805.60 1013.80 815.18
00054820 00000005 808.60 236.40 475.23 717.84 870.02 581.77 952.21 590.67 834.23 728.05 957.09 800.98 1018.29 803.56
00054821 00000006 808.38 222.58 472.94 721.92 872.39 567.67 949.32 577.73 833.79 720.81 956.83 790.33 1016.85 793.79
00054822 00000007 803.77 203.12 477.04 735.55 880.54 558.68 955.70 570.57 861.71 707.70 972.97 781.51 1022.41 787.84
00054823 DELETE   806.12 200.69 480.77 735.69 881.58 554.03 957.99 564.01 862.63 705.84 981.21 778.63 1031.62 782.56
00054824 DELETE   810.37 192.97 479.62 739.62 882.92 549.49 961.13 555.98 861.40 698.36 981.47 771.47 1037.43 771.66
00054825 00000010 815.02 189.39 477.26 728.31 886.79 543.46 961.73 549.76 862.29 692.90 981.91 763.18 1034.06 763.76
00054826 00000011 817.30 188.34 477.62 714.93 891.83 540.06 961.40 544.77 865.91 686.24 985.61 756.07 1032.90 755.58
00054827 00000012 821.68 173.13 472.52 718.76 894.07 534.69 962.20 538.15 865.13 677.72 983.95 751.77 1029.09 750.45
00054828 00000013 825.45 163.49 479.18 726.47 897.63 533.64 971.14 537.02 872.26 678.62 989.12 754.56 1036.27 753.21
00054829 00000014 829.51 159.94 480.72 732.03 901.75 529.84 974.48 535.42 872.87 674.31 990.09 752.91 1037.06 753.68
00054830 00000015 832.72 156.15 476.76 736.68 905.11 529.13 973.99 533.96 872.75 673.84 992.66 751.16 1037.95 751.15
00054831 00000016 832.10 149.40 476.53 747.21 903.22 522.18 972.16 526.94 866.95 667.40 988.81 750.73 1033.92 750.71
00054832 00000017 830.81 138.95 473.37 749.25 901.10 508.42 970.00 515.82 864.64 658.73 983.45 742.67 1029.06 745.69
00054833 00000018 821.88 136.09 479.08 747.55 893.29 487.70 975.52 502.63 869.74 645.88 979.51 725.22 1032.16 734.09
00054834 00000019 822.58 127.97 482.95 745.96 898.33 477.57 979.07 490.17 872.83 629.64 975.45 715.63 1026.81 722.71
00054835 00000020 832.83 120.20 472.59 751.23 897.72 474.37 980.81 484.78 870.41 620.70 969.33 714.27 1024.61 719.63
00054836 00000021 834.91 125.65 470.96 744.49 896.46 466.03 983.69 474.97 864.94 612.67 966.62 710.62 1025.18 714.21
00054837 00000022 830.34 119.48 483.12 753.88 902.11 465.19 975.85 467.69 860.64 607.50 978.46 708.05 1029.64 705.19
00054838 00000023 832.65 106.02 482.06 765.28 898.84 459.90 977.17 460.69 858.33 602.13 975.87 707.33 1030.99 703.22
00054839 00000024 834.05 103.64 480.63 766.41 901.04 457.98 978.06 458.66 859.64 598.04 973.87 707.61 1027.10 703.84
00054840 00000025 835.93 101.67 477.62 766.38 902.26 456.02 977.26 459.84 858.35 596.35 970.49 703.67 1023.17 702.61
00054841 00000026 834.76 110.40 476.82 760.40 913.81 438.58 978.83 454.83 841.98 586.88 952.22 686.77 1017.40 693.30
00054842 00000027 836.67 106.21 475.78 762.58 912.51 439.04 978.90 457.45 841.83 587.74 949.11 687.29 1012.72 695.88
00054843 00000028 836.52 101.78 477.88 766.30 910.97 436.20 982.15 459.03 842.40 587.78 945.18 685.36 1010.23 698.28
00054844 00000029 840.58 112.89 477.14 755.07 915.43 436.49 984.64 458.36 843.15 584.70 944.89 684.95 1008.94 697.29
00054845 00000030 841.41 110.24 479.88 760.73 918.24 436.25 985.19 456.41 843.66 584.17 947.25 686.31 1010.28 697.23
00054846 00000031 841.77 106.60 483.65 769.49 920.75 434.10 987.22 455.19 845.80 585.62 952.69 687.14 1016.41 699.04
00054847 00000032 844.80 106.72 478.60 773.35 923.81 435.82 986.53 454.46 846.31 585.10 959.53 688.92 1024.28 698.27
00054848 00000033 844.34 109.62 476.52 759.71 923.03 435.81 986.48 456.90 846.42 585.11 956.56 684.32 1021.63 695.48
00054849 00000034 843.35 115.84 474.29 742.65 919.39 435.19 987.72 457.03 846.16 584.27 950.74 681.25 1016.89 693.28
00054850 00000035 845.87 111.94 472.60 744.55 921.56 435.03 988.84 458.09 846.12 582.35 950.92 680.55 1015.90 693.50
00054851 00000036 844.80 114.41 475.12 747.89 922.35 433.43 988.83 456.90 846.33 583.22 951.80 681.19 1015.77 694.69
00054852 00000037 844.92 115.16 474.49 747.54 923.36 435.61 987.55 457.37 846.42 582.79 952.84 682.30 1016.13 694.24
00054853 00000038 844.84 114.89 471.43 744.79 919.80 436.42 987.94 457.64 844.43 580.84 945.05 682.39 1008.73 694.52
00054854 00000039 841.19 114.69 474.46 746.69 919.56 435.60 985.55 456.78 843.14 582.11 943.56 683.57 1004.73 695.56
00054855 00000040 842.55 111.78 479.78 760.74 924.92 436.93 985.40 457.68 844.74 587.65 952.17 692.24 1008.90 704.10
00054856 00000041 846.28 108.66 478.71 774.86 928.43 438.95 985.18 452.67 848.56 586.29 964.92 696.84 1024.15 702.65
00054857 00000042 848.67 105.09 484.07 776.04 927.09 439.81 995.50 453.40 852.37 583.11 964.63 692.05 1033.54 697.77
00054858 00000043 858.96 108.51 488.31 759.76 926.97 434.36 1012.22 450.69 862.25 581.54 963.33 686.71 1039.40 695.26
00054859 00000044 868.59 131.32 478.68 728.23 929.52 434.42 1029.08 457.35 873.84 581.40 963.90 679.67 1049.72 694.57
00054860 00000045 878.54 134.63 485.23 723.23 933.79 439.20 1044.16 455.80 887.39 580.12 970.13 681.32 1062.48 691.75
00054861 00000046 889.41 126.67 490.57 734.42 937.02 436.45 1057.28 450.86 901.93 577.46 976.83 680.35 1080.43 688.99
00054862 00000047 886.72 119.97 494.15 728.49 936.82 429.94 1064.04 428.04 912.89 568.88 985.51 676.64 1088.54 669.92
00054863 00000048 889.68 119.27 502.99 727.58 940.86 430.42 1073.97 425.75 922.07 565.57 987.93 674.87 1096.37 666.97
00054864 00000049 896.05 117.71 499.69 731.11 948.18 433.11 1086.54 426.03 936.35 566.59 996.65 676.60 1110.62 667.16
00054865 00000050 906.53 120.01 499.90 723.69 958.68 437.76 1096.41 433.50 951.67 559.94 1006.76 672.99 1116.80 667.80
00054866 00000051 901.99 115.96 513.06 730.01 953.73 429.87 1112.64 423.29 959.26 566.49 1009.89 677.73 1136.91 669.35
00054867 00000052 905.52 121.19 519.58 742.51 960.93 437.51 1119.34 428.64 964.85 570.34 1021.71 683.23 1157.35 671.93
00054868 00000053 908.71 130.15 518.94 757.79 963.30 447.33 1113.61 428.70 961.17 574.77 1033.73 689.60 1186.60 667.58
00054869 00000054 907.80 126.19 518.05 765.27 963.82 450.37 1115.05 430.55 964.76 577.61 1038.69 691.17 1192.63 668.01
00054870 00000055 907.11 132.28 518.25 757.29 961.97 449.06 1117.23 431.25 966.31 579.57 1038.26 691.42 1192.11 670.29
00054871 00000056 908.35 131.20 521.41 755.40 962.00 451.77 1124.84 435.22 969.61 579.64 1032.21 696.03 1186.15 676.70
00054872 00000057 903.31 133.28 521.77 738.88 959.47 448.67 1132.82 439.16 975.01 582.64 1020.54 696.05 1164.84 684.58
00054873 00000058 898.36 136.46 524.48 736.97 955.07 452.68 1134.51 444.82 976.58 588.70 1014.62 701.05 1159.47 691.36
00054874 00000059 896.08 138.27 522.21 737.00 951.74 458.74 1133.37 449.38 977.92 596.74 1012.45 704.66 1159.81 693.81
00054875 00000060 895.98 139.98 519.59 737.56 951.68 461.33 1133.47 451.01 980.13 599.39 1013.36 707.30 1161.75 695.58
00054876 00000061 894.84 140.64 522.22 737.55 950.70 462.45 1134.82 450.97 981.81 601.70 1013.51 709.27 1163.63 696.64
00054877 00000062 893.47 144.10 521.89 735.70 949.63 465.89 1135.71 455.63 983.40 604.91 1011.65 712.30 1161.09 700.97
00054878 00000063 892.34 149.56 522.25 733.30 948.15 469.65 1134.79 459.27 983.30 608.09 1011.34 717.23 1158.92 705.79
00054879 00000064 890.70 153.18 521.98 727.40 946.11 472.58 1133.02 460.91 982.17 611.09 1010.49 718.96 1159.88 706.20
00054880 00000065 888.69 155.70 521.13 719.90 943.87 470.63 1132.51 459.22 982.05 610.61 1008.28 716.91 1157.47 704.60
00054881 00000066 886.90 152.73 523.53 725.26 943.69 471.23 1131.41 459.00 981.67 610.79 1009.23 715.98 1159.04 702.94
00054882 00000067 885.31 151.95 524.84 727.01 941.96 473.00 1129.91 460.80 980.01 611.36 1006.99 716.14 1157.58 703.08
00054883 00000068 882.82 151.72 529.13 724.39 939.51 473.92 1128.82 461.33 977.27 612.63 1005.67 715.23 1158.14 701.73
00054884 00000069 880.90 151.79 527.40 726.44 937.08 473.20 1125.80 461.93 974.47 614.88 1003.05 715.74 1155.60 703.42
00054885 00000070 878.61 152.22 527.10 728.93 935.84 474.29 1120.16 462.45 970.73 614.46 1006.32 722.04 1148.07 709.84
00054886 00000071 882.86 152.33 520.96 734.42 934.42 472.21 1122.96 465.41 965.90 615.53 1004.28 723.01 1148.68 715.00
00054887 00000072 880.51 148.63 511.30 743.58 932.24 477.61 1104.34 471.85 952.63 619.84 1001.98 721.92 1142.90 713.99
00054888 00000073 875.51 147.16 514.13 749.20 926.03 474.01 1095.04 473.84 942.84 620.44 993.26 722.02 1128.45 718.72
00054889 00000074 878.95 164.86 513.80 730.62 929.92 478.53 1077.03 480.88 926.67 625.32 997.50 716.05 1120.80 712.97
00054890 00000075 874.86 159.15 507.63 733.14 924.76 475.95 1060.42 478.10 913.48 618.29 997.62 710.16 1115.19 706.60
00054891 00000076 872.65 149.22 497.24 735.90 922.16 466.70 1052.54 476.00 906.59 613.33 985.98 702.63 1101.13 705.74
00054892 00000077 875.13 140.22 491.66 738.55 920.68 461.50 1050.63 475.23 900.11 607.88 974.62 695.27 1089.64 702.47
00054893 00000078 873.83 137.31 490.06 734.84 917.15 456.79 1051.30 474.92 895.07 601.55 965.74 695.14 1076.33 706.84
00054894 00000079 869.78 130.35 490.00 738.21 912.59 452.30 1048.72 471.62 889.48 596.29 960.72 693.65 1070.80 706.38
00054895 00000080 870.68 141.75 485.43 721.67 912.25 448.42 1045.48 469.45 888.84 590.83 960.87 689.60 1065.54 703.70
00054896 00000081 872.03 142.62 483.63 721.61 914.76 448.10 1043.63 468.80 886.63 590.03 962.19 688.28 1064.54 702.04
00054897 00000082 870.04 140.25 480.46 726.23 915.68 448.95 1040.36 468.97 884.23 591.38 964.73 688.55 1066.92 701.40
00054898 00000083 866.28 132.45 481.01 743.28 916.54 448.06 1034.84 469.85 877.60 592.24 964.89 690.07 1066.22 703.98
00054899 00000084 860.75 136.27 487.25 742.37 910.50 448.06 1033.13 469.98 875.29 595.92 963.70 692.05 1067.28 705.97
00054900 00000085 859.29 133.62 486.68 740.61 908.41 445.81 1029.14 470.75 871.25 596.99 961.08 689.36 1063.52 705.33
00054901 00000086 856.72 132.23 488.19 739.13 906.29 442.69 1026.47 469.16 868.77 595.76 958.43 688.66 1058.82 705.72
00054902 00000087 854.33 132.10 488.37 733.18 904.70 440.51 1026.21 469.86 866.46 593.79 952.62 684.58 1053.76 703.78
00054903 00000088 851.88 130.67 489.35 729.03 899.88 438.01 1025.05 466.25 864.55 588.67 946.27 681.16 1047.87 699.53
00054904 00000089 852.00 128.69 489.73 728.89 901.05 435.39 1026.67 464.67 864.45 584.09 945.01 676.61 1047.97 695.90
00054905 00000090 854.49 130.56 485.05 726.98 904.36 435.04 1028.72 465.23 867.37 583.85 947.49 674.47 1052.10 694.52
00054906 00000091 854.82 133.93 488.15 727.91 905.25 436.09 1029.07 463.82 867.80 586.34 952.82 678.88 1056.86 696.82
00054907 00000092 857.43 132.35 485.12 733.26 907.67 437.53 1028.50 463.12 869.72 587.49 957.62 680.59 1060.94 696.82
00054908 00000093 859.80 130.02 484.35 743.21 911.46 439.93 1027.98 463.61 870.12 589.28 963.96 683.50 1067.87 697.99
00054909 00000094 858.76 131.22 487.06 742.84 911.74 438.75 1028.28 463.23 871.26 589.35 966.44 683.27 1070.04 698.30
00054910 00000095 860.17 131.42 483.49 745.36 914.27 438.84 1027.60 463.18 873.11 589.72 971.81 682.53 1076.77 697.11
00054911 00000096 864.57 133.97 486.30 741.12 917.32 441.11 1033.77 463.50 878.80 588.51 972.95 682.51 1078.93 695.85
00054912 00000097 870.96 137.56 481.32 737.68 921.32 442.45 1036.22 460.85 883.01 585.04 977.23 682.04 1084.09 692.18
00054913 00000098 875.42 138.72 485.78 742.84 924.73 441.40 1039.02 457.78 885.90 585.23 982.51 683.84 1090.50 692.05
00054914 00000099 870.75 136.89 491.53 744.31 939.89 432.97 1037.59 448.39 892.53 576.59 985.53 679.85 1078.86 688.37
00054915 00000100 876.55 120.71 491.85 762.40 935.21 426.78 1042.03 441.58 892.03 586.48 989.83 680.64 1091.38 684.06
00054916 00000101 880.62 110.48 490.92 768.70 936.95 424.17 1047.36 437.71 894.89 578.62 989.28 677.52 1093.23 680.11
00054917 00000102 884.22 109.56 490.26 763.60 937.44 420.15 1051.41 438.67 896.32 577.23 987.22 672.18 1095.39 678.80
00054918 00000103 884.98 106.91 490.77 759.48 939.57 415.71 1055.62 437.35 900.94 574.63 988.27 666.64 1097.64 676.24
00054919 00000104 886.31 105.11 490.32 752.67 940.17 413.51 1059.14 435.45 904.77 573.27 989.85 665.29 1095.78 675.47
00054920 00000105 886.73 101.04 490.06 750.32 941.27 412.63 1060.15 433.23 906.31 571.15 989.78 663.64 1093.33 672.89
00054921 00000106 887.38 100.28 488.61 749.50 942.64 409.34 1062.86 425.26 910.17 565.67 992.63 662.72 1099.21 668.02
00054922 00000107 887.85 98.92 493.30 763.30 947.17 406.33 1063.67 418.76 912.63 559.05 1001.93 661.13 1112.80 663.23
00054923 00000108 890.60 98.64 494.88 758.87 954.69 402.74 1065.05 412.76 914.23 547.51 1006.05 657.37 1109.07 657.89
00054924 00000109 902.02 98.99 489.47 732.82 956.27 396.33 1066.81 411.17 918.50 538.43 994.48 645.02 1090.68 654.65
00054925 00000110 901.96 79.98 481.99 734.21 952.68 394.95 1073.06 399.11 923.25 533.78 979.91 647.02 1083.07 650.33
00054926 00000111 902.22 72.14 484.16 739.02 951.33 391.38 1075.61 396.29 923.56 532.30 974.85 646.95 1078.80 651.63
00054927 00000112 900.90 72.05 485.46 742.15 951.14 391.12 1074.97 396.53 922.50 531.90 973.59 648.29 1075.73 653.50
00054928 00000113 899.26 77.99 485.01 739.90 950.55 392.00 1074.01 399.05 921.02 533.89 973.74 651.67 1073.49 657.88
00054929 00000114 897.40 81.50 486.64 738.07 950.18 392.18 1071.97 399.19 919.77 534.08 973.75 653.15 1070.56 659.24
00054930 00000115 895.89 81.01 486.54 740.49 950.19 391.98 1071.01 400.23 919.57 534.54 973.60 653.12 1070.11 660.06
00054931 00000116 892.17 88.52 489.74 739.06 948.23 389.84 1069.86 406.06 912.79 541.37 977.30 651.81 1075.15 660.89
00054932 00000117 889.78 92.10 490.05 752.05 951.34 399.23 1065.40 411.02 914.93 549.04 990.40 654.68 1091.62 658.61
00054933 00000118 886.08 79.89 497.48 793.57 952.19 403.99 1061.06 414.44 911.91 556.71 1003.37 664.12 1108.94 664.83
00054934 00000119 887.62 86.34 494.55 781.66 953.27 401.14 1061.61 411.12 911.39 551.88 1001.98 658.92 1112.00 659.11
00054935 00000120 885.26 79.71 503.55 776.64 954.26 390.24 1067.41 400.41 917.82 545.02 1002.06 654.55 1115.57 655.55
00054936 00000121 886.67 69.26 508.30 780.18 957.17 381.77 1070.51 395.34 920.94 537.20 1002.72 648.91 1113.19 653.24
00054937 00000122 889.73 74.25 503.96 769.29 958.72 380.75 1074.67 394.19 926.06 535.58 1004.38 644.42 1117.80 648.71
00054938 00000123 892.58 76.27 501.81 768.28 959.43 383.44 1077.09 395.17 927.73 536.84 1005.17 647.13 1118.08 650.13
00054939 00000124 896.63 82.36 499.64 764.62 962.84 385.66 1081.80 397.59 932.18 539.59 1009.38 650.68 1123.13 653.90
00054940 00000125 895.88 83.63 500.01 758.92 958.76 386.28 1083.39 399.01 931.29 541.70 1003.20 649.13 1122.71 653.28
00054941 00000126 896.19 81.34 501.16 750.52 955.13 388.26 1083.32 400.80 930.03 540.95 994.41 646.52 1110.56 651.40
00054942 00000127 905.63 89.85 488.05 732.71 945.66 395.03 1086.86 412.53 925.85 539.37 995.52 641.35 1110.64 652.30
00054943 00000128 909.07 87.45 486.80 737.50 949.56 397.78 1089.89 414.03 930.00 539.50 1001.55 643.04 1115.50 652.91
00054944 00000129 909.44 88.81 493.42 744.66 951.73 399.78 1093.66 414.81 931.47 543.73 1008.98 645.80 1126.53 654.33
00054945 00000130 909.75 83.82 494.09 747.98 952.27 400.42 1095.26 414.04 933.61 541.90 1009.57 645.78 1128.33 652.97
00054946 00000131 910.18 83.29 496.26 747.91 954.30 398.24 1100.36 413.84 937.54 538.56 1011.19 642.88 1131.27 651.84
00054947 00000132 910.67 79.88 496.38 752.63 956.36 396.86 1097.83 412.09 936.13 537.29 1012.46 642.29 1130.23 650.74
00054948 00000133 909.97 84.54 496.06 745.58 954.23 398.31 1096.08 413.87 934.05 540.44 1009.83 644.23 1126.46 653.04
00054949 00000134 909.44 92.74 493.34 738.71 953.29 399.06 1094.93 415.38 933.50 543.48 1006.70 648.21 1118.54 658.42
00054950 00000135 907.16 94.78 491.21 731.38 949.78 397.31 1092.43 415.08 931.05 542.79 998.00 648.92 1104.63 661.15
00054951 00000136 907.16 94.53 490.07 732.08 948.56 396.28 1093.87 415.29 931.54 541.78 993.28 648.72 1100.90 662.30
00054952 00000137 906.10 91.51 489.95 734.74 947.47 395.85 1095.36 415.07 932.71 540.70 989.96 648.75 1098.62 662.72
00054953 00000138 903.36 90.73 496.02 736.59 954.83 396.41 1093.93 400.91 938.59 535.58 983.61 654.59 1093.47 658.87
00054954 00000139 903.36 88.58 494.20 738.92 955.01 397.82 1093.02 402.55 937.51 537.17 982.08 656.12 1091.17 660.72
00054955 00000140 901.86 92.12 496.72 735.06 953.18 399.54 1091.90 404.29 935.67 537.57 980.41 657.33 1088.79 661.90
00054956 00000141 899.40 95.39 496.04 730.34 951.52 398.41 1092.01 404.76 935.75 538.16 979.03 656.73 1087.24 662.65
00054957 00000142 898.72 90.90 497.12 736.35 950.88 399.27 1091.01 405.58 934.73 538.48 976.48 657.23 1085.39 663.24
00054958 00000143 898.39 94.44 496.29 737.14 952.98 395.79 1090.29 407.79 930.25 537.45 980.60 654.89 1084.49 662.20
00054959 00000144 898.51 94.28 495.21 737.76 953.42 397.99 1089.37 408.52 929.78 538.14 980.67 656.25 1083.45 662.37
00054960 00000145 898.39 89.93 497.79 740.52 951.23 401.92 1087.31 406.12 932.52 540.40 977.73 661.33 1083.68 665.38
00054961 00000146 897.30 89.91 500.02 740.13 949.95 401.32 1086.85 404.95 932.05 540.32 977.79 661.29 1083.44 664.88
00054962 00000147 895.97 91.18 497.84 742.57 953.31 397.51 1085.69 407.58 929.06 540.30 984.08 657.71 1082.95 663.14
00054963 00000148 896.51 88.70 499.57 747.45 956.57 397.29 1085.44 406.99 930.50 539.48 988.78 657.70 1086.20 662.44
00054964 00000149 895.77 91.91 499.22 743.93 954.24 398.14 1083.72 407.18 929.68 541.84 989.68 657.00 1090.79 660.65
00054965 00000150 894.50 89.87 500.06 745.61 951.91 397.04 1081.83 405.75 927.49 542.45 987.74 657.72 1089.37 661.02
00054966 00000151 893.72 86.81 493.55 739.63 943.29 404.34 1079.10 404.01 928.89 541.64 974.62 661.48 1083.08 661.64
00054967 00000152 891.17 86.31 494.56 743.89 946.22 398.10 1079.96 407.41 924.25 541.89 976.99 653.62 1081.96 657.82
00054968 00000153 890.88 90.87 496.07 745.17 945.21 403.11 1079.44 407.82 923.83 543.15 979.32 660.01 1085.65 660.17
00054969 00000154 887.37 90.96 502.95 755.22 942.75 405.47 1075.28 408.41 920.70 550.13 986.16 664.38 1101.53 661.55
00054970 00000155 883.50 94.65 507.26 769.60 943.61 411.23 1069.75 416.89 920.66 563.55 1005.78 663.92 1129.84 660.95
00054971 00000156 878.79 102.48 509.20 763.35 938.64 413.54 1067.04 418.90 919.55 570.46 1005.79 667.00 1127.96 663.89
00054972 00000157 878.93 96.38 505.32 763.61 937.12 412.13 1065.75 415.37 918.45 566.40 999.50 666.29 1120.19 661.61
00054973 00000158 883.79 99.05 498.71 737.56 941.34 405.85 1071.13 414.42 921.00 554.95 985.71 656.70 1094.71 658.42
00054974 00000159 888.56 95.49 492.56 731.99 939.18 411.57 1074.04 413.42 924.03 547.50 973.44 659.32 1084.50 660.53
00054975 00000160 890.12 98.95 496.63 729.47 938.84 406.19 1073.60 421.64 921.29 544.19 972.19 650.83 1079.53 662.48
00054976 00000161 893.13 99.24 493.34 727.49 940.86 405.91 1073.37 422.35 921.49 543.25 971.26 648.73 1077.53 661.35
00054977 00000162 894.39 96.23 492.99 730.85 942.71 404.66 1073.98 421.98 921.72 540.93 970.58 648.50 1075.48 661.89
00054978 00000163 894.78 96.48 492.26 728.27 943.22 403.16 1076.01 421.52 924.92 542.56 971.95 651.06 1074.44 665.52
00054979 00000164 890.50 95.57 491.29 728.23 945.83 399.03 1077.60 414.44 921.08 546.17 974.02 652.95 1077.37 661.76
00054980 00000165 891.92 100.50 490.59 724.57 947.97 401.36 1075.78 418.09 920.01 547.68 975.96 655.17 1072.08 665.35
00054981 00000166 890.46 104.34 488.50 726.98 944.66 403.76 1076.78 420.83 918.28 554.58 974.41 661.12 1072.96 671.55
00054982 00000167 890.66 97.47 497.88 748.71 938.99 413.43 1075.06 430.32 923.19 556.94 977.03 672.51 1075.40 685.57
00054983 00000168 884.13 97.40 505.58 764.55 943.82 408.48 1069.82 421.00 917.09 566.46 994.22 668.42 1099.46 672.72
