Video ID: 	hr58klTUNaM
H: 	1080
W: 	1920
FPS: 	23.976023976023978

FRAME INDEX X0 Y0 W H [Landmarks (5 Points)]

00004117 00000000 1085.53 245.84 399.03 567.92 1251.05 477.23 1416.09 496.79 1347.52 614.11 1231.52 673.98 1359.33 692.59
00004118 DELETE   1087.89 250.03 401.63 561.16 1260.51 477.47 1420.85 499.49 1352.28 613.38 1233.86 668.70 1361.23 689.37
00004119 DELETE   1089.70 250.83 404.87 554.98 1266.67 475.59 1424.49 499.68 1355.19 612.67 1236.97 664.81 1364.03 686.97
00004120 00000003 1096.80 244.81 406.51 561.15 1271.00 471.89 1429.56 498.55 1358.00 609.68 1240.19 662.69 1367.01 686.43
00004121 00000004 1103.58 238.12 406.10 569.86 1275.91 469.87 1432.56 498.48 1360.95 604.06 1242.92 661.41 1371.24 686.12
00004122 00000005 1115.35 232.51 402.41 577.01 1288.26 467.05 1441.78 502.25 1370.16 607.29 1249.92 658.77 1376.36 689.18
00004123 00000006 1124.18 235.04 403.32 574.21 1299.92 467.40 1450.75 503.98 1381.12 606.27 1262.24 658.73 1383.14 690.38
00004124 00000007 1129.36 237.88 407.49 569.27 1310.90 466.04 1460.78 500.75 1391.28 605.49 1275.24 661.64 1389.80 691.58
00004125 00000008 1135.54 240.35 409.91 567.52 1314.70 467.81 1467.59 500.85 1397.80 606.02 1283.65 665.15 1397.88 693.60
00004126 00000009 1140.72 241.04 407.80 568.05 1318.75 468.69 1471.96 502.42 1402.33 609.21 1286.59 665.50 1402.87 694.84
00004127 00000010 1146.72 237.92 405.63 568.34 1319.54 470.20 1480.59 502.21 1411.36 609.88 1283.81 665.89 1405.03 694.70
00004128 00000011 1153.97 238.17 400.08 564.70 1324.46 469.91 1485.70 502.58 1414.89 608.61 1284.92 662.19 1408.41 691.57
00004129 00000012 1155.92 239.29 399.93 563.98 1328.22 470.13 1488.39 503.64 1417.73 608.97 1287.40 661.18 1412.58 691.19
00004130 00000013 1155.98 243.69 401.74 560.44 1330.31 471.81 1490.87 506.00 1417.99 610.28 1289.29 662.24 1413.53 692.74
00004131 00000014 1155.04 244.24 403.03 563.39 1331.66 473.73 1490.96 510.02 1418.27 612.46 1289.71 664.66 1411.38 696.91
00004132 00000015 1153.52 246.02 403.79 562.02 1330.92 474.91 1490.41 510.91 1417.28 614.61 1288.57 667.10 1408.42 699.07
00004133 00000016 1150.00 242.44 406.92 565.26 1327.09 472.25 1486.96 508.81 1414.42 612.75 1285.16 666.80 1404.40 699.28
00004134 00000017 1145.65 238.94 406.31 566.48 1322.44 466.72 1479.35 501.50 1411.69 608.51 1282.23 664.76 1400.32 695.89
00004135 00000018 1147.82 245.09 405.17 562.12 1318.47 461.78 1473.38 500.72 1396.77 604.67 1276.77 654.87 1393.33 691.87
00004136 00000019 1144.65 238.39 405.64 563.45 1312.16 456.93 1469.65 496.18 1392.57 598.69 1273.69 647.22 1394.17 684.07
00004137 00000020 1141.75 229.03 406.89 571.44 1308.47 453.33 1468.74 493.34 1390.47 591.78 1270.85 643.59 1393.13 680.86
00004138 00000021 1141.96 227.09 405.40 573.68 1308.56 452.27 1468.96 492.75 1391.81 589.63 1271.37 642.69 1394.36 680.31
00004139 00000022 1141.76 231.97 405.76 569.36 1308.80 453.31 1468.92 492.78 1391.49 591.68 1272.71 644.70 1394.86 681.56
00004140 00000023 1143.64 232.60 404.27 570.44 1307.99 455.71 1468.72 494.44 1389.63 596.40 1272.36 648.28 1393.76 684.70
00004141 00000024 1143.84 232.26 403.76 572.20 1306.76 457.10 1467.60 496.17 1388.43 597.42 1270.71 648.58 1392.81 685.40
00004142 00000025 1144.39 231.65 401.81 571.14 1305.84 456.76 1466.38 496.22 1387.59 596.63 1270.55 647.50 1392.69 684.58
00004143 00000026 1143.81 231.31 400.56 571.02 1306.11 455.85 1465.08 494.91 1387.55 593.87 1270.31 645.74 1392.12 682.48
00004144 00000027 1141.66 230.55 400.76 571.67 1305.28 454.49 1463.95 493.74 1387.09 592.38 1268.98 643.89 1392.09 680.75
00004145 00000028 1140.16 227.67 399.94 572.70 1303.31 454.19 1461.99 492.47 1385.44 592.00 1267.79 642.47 1391.66 678.46
00004146 00000029 1139.46 227.30 399.70 572.45 1303.13 452.93 1461.16 491.76 1385.21 590.82 1267.81 640.95 1391.54 677.35
00004147 00000030 1139.66 226.85 400.26 573.50 1303.69 452.76 1462.37 492.02 1386.17 590.47 1268.06 640.94 1392.32 677.71
00004148 00000031 1141.98 227.35 398.90 573.42 1305.05 453.36 1463.28 492.27 1387.53 589.86 1269.41 641.63 1393.10 678.21
00004149 00000032 1142.79 229.39 401.15 572.06 1306.12 452.85 1465.25 492.31 1388.45 590.97 1270.56 643.08 1393.45 680.07
00004150 00000033 1144.24 228.58 401.41 573.39 1306.49 452.73 1466.45 492.02 1389.03 590.66 1271.02 643.16 1394.46 679.96
00004151 00000034 1146.24 227.74 399.79 574.31 1307.97 452.63 1467.38 491.98 1390.08 590.47 1271.30 642.41 1394.36 679.45
00004152 00000035 1144.58 225.56 402.19 576.96 1307.96 450.92 1468.21 491.14 1391.28 588.74 1272.00 641.93 1395.06 679.57
00004153 00000036 1145.20 224.54 402.09 577.86 1308.43 449.95 1468.81 490.33 1391.83 586.48 1272.60 640.79 1396.04 678.52
00004154 00000037 1145.27 224.22 401.97 578.18 1308.89 450.02 1468.86 490.51 1392.62 586.27 1273.36 640.93 1396.39 678.73
00004155 00000038 1146.13 224.36 401.56 577.83 1309.54 450.66 1469.35 491.27 1393.14 586.48 1273.78 641.09 1396.26 679.05
00004156 00000039 1146.56 226.12 401.16 576.10 1309.78 450.88 1469.02 491.84 1392.67 586.76 1274.13 641.46 1396.11 679.68
00004157 00000040 1146.40 225.59 402.20 576.27 1309.29 451.59 1469.56 492.23 1392.25 587.69 1273.69 642.11 1396.14 680.02
00004158 00000041 1146.82 225.96 401.32 574.71 1308.78 452.93 1469.01 493.41 1391.64 588.47 1272.78 642.10 1395.40 679.97
00004159 00000042 1147.31 226.70 401.16 572.67 1308.92 452.94 1469.16 493.25 1391.54 588.31 1272.88 642.10 1395.16 679.79
00004160 00000043 1146.40 227.23 402.60 571.19 1308.46 452.71 1469.62 492.78 1391.57 587.87 1272.91 642.43 1395.25 679.79
00004161 00000044 1146.71 227.16 402.33 571.39 1308.26 452.63 1469.69 492.69 1391.56 587.78 1273.40 642.59 1395.76 679.91
00004162 00000045 1147.19 226.88 402.32 571.74 1308.13 452.87 1470.09 492.49 1391.68 587.76 1273.97 642.91 1396.44 679.87
00004163 00000046 1148.32 227.92 401.38 569.84 1308.49 453.18 1470.12 492.35 1391.47 588.04 1274.27 642.53 1396.50 679.16
00004164 00000047 1148.70 227.85 401.11 569.38 1308.41 453.26 1470.15 492.22 1391.47 588.41 1274.50 642.80 1396.41 679.27
00004165 00000048 1148.54 227.52 401.81 571.14 1308.46 452.85 1470.42 492.10 1391.55 588.67 1274.46 643.24 1396.72 679.98
00004166 00000049 1149.00 227.17 400.33 575.51 1312.86 451.40 1471.24 491.50 1394.13 588.56 1277.41 644.45 1396.49 681.98
00004167 00000050 1149.01 227.85 400.67 574.18 1311.41 451.44 1471.10 491.04 1393.31 589.45 1276.37 644.62 1396.63 681.70
00004168 00000051 1149.17 229.63 400.81 570.90 1309.00 453.20 1470.14 491.83 1390.93 592.13 1273.93 643.57 1397.01 679.95
00004169 00000052 1148.90 230.79 400.61 571.04 1307.57 453.68 1469.24 493.23 1388.89 593.66 1271.06 644.48 1394.52 681.59
00004170 00000053 1149.72 231.95 399.73 572.29 1308.90 453.40 1468.25 493.48 1387.61 594.37 1271.18 645.03 1393.63 682.62
00004171 00000054 1150.64 231.30 398.78 570.94 1307.49 454.21 1468.25 493.48 1386.88 594.38 1271.07 645.90 1393.11 682.77
00004172 00000055 1149.60 231.56 399.62 568.78 1306.61 454.16 1467.75 493.58 1386.88 593.87 1271.67 645.09 1394.11 681.91
00004173 00000056 1148.49 228.76 400.41 572.03 1306.46 453.58 1466.80 492.75 1386.17 592.94 1270.64 643.68 1393.56 680.29
00004174 00000057 1147.05 225.18 401.30 578.23 1304.49 452.96 1465.77 492.33 1384.38 592.78 1269.23 642.56 1394.40 679.41
00004175 00000058 1145.49 225.90 401.55 577.14 1301.86 452.99 1463.47 491.73 1381.53 593.25 1267.50 641.76 1394.30 678.07
00004176 00000059 1143.05 225.55 403.06 574.74 1298.70 453.42 1461.67 492.51 1377.62 592.40 1265.07 643.03 1391.12 679.34
00004177 00000060 1141.93 225.40 403.36 574.55 1295.83 452.73 1459.84 493.28 1373.75 591.25 1262.47 643.50 1390.12 680.68
00004178 00000061 1141.18 223.43 400.87 572.26 1293.26 452.66 1458.14 493.46 1371.13 591.74 1258.64 640.94 1389.21 678.24
00004179 00000062 1140.80 221.65 400.05 573.42 1291.08 452.22 1457.23 492.44 1368.75 591.87 1256.76 640.48 1388.43 677.21
00004180 00000063 1139.05 219.19 403.31 580.18 1289.39 452.44 1455.71 492.56 1365.96 591.14 1254.06 640.23 1388.57 676.83
00004181 00000064 1138.62 217.56 402.66 582.41 1286.22 453.03 1455.58 495.23 1362.83 588.50 1246.74 639.53 1386.38 677.54
00004182 00000065 1135.00 222.42 404.24 576.14 1283.75 456.33 1452.67 498.52 1359.70 589.62 1243.20 638.03 1386.94 675.86
00004183 00000066 1130.05 220.44 409.40 577.24 1279.04 454.85 1450.56 497.77 1354.91 588.37 1236.53 636.79 1383.40 675.23
00004184 00000067 1128.65 221.03 409.75 577.68 1277.39 453.01 1448.61 496.54 1353.73 588.41 1235.24 636.36 1383.83 675.25
00004185 00000068 1124.31 224.82 410.35 574.98 1278.25 450.77 1438.84 497.38 1356.03 580.80 1243.23 642.30 1378.27 681.46
00004186 00000069 1127.37 221.17 409.66 576.82 1275.41 448.15 1447.16 492.26 1351.55 584.91 1235.14 638.83 1379.45 678.17
00004187 00000070 1127.47 221.90 407.90 570.93 1275.11 445.79 1446.22 489.45 1350.11 583.17 1235.52 636.17 1378.21 675.04
00004188 00000071 1127.30 219.57 406.45 572.22 1273.65 440.86 1444.97 485.75 1347.32 580.20 1234.20 633.74 1375.54 673.52
00004189 00000072 1123.97 221.55 407.07 573.76 1272.55 438.96 1432.32 480.30 1349.71 572.60 1242.34 640.86 1368.46 675.54
00004190 00000073 1123.04 221.12 407.29 571.35 1270.66 436.81 1431.39 478.18 1348.23 570.38 1241.67 637.79 1368.98 672.30
00004191 00000074 1122.94 224.64 406.66 567.72 1270.05 433.82 1431.74 475.84 1347.60 568.32 1240.69 634.93 1371.13 669.93
00004192 00000075 1124.29 226.44 404.26 563.19 1269.90 435.60 1431.33 477.29 1345.97 568.05 1238.46 635.66 1370.10 670.53
00004193 00000076 1120.96 226.73 408.79 559.98 1270.91 436.95 1437.12 484.20 1341.36 571.63 1231.11 628.47 1365.10 670.54
00004194 00000077 1121.23 228.05 405.10 565.94 1268.43 439.87 1428.70 482.12 1344.76 570.92 1235.44 637.24 1367.78 672.88
00004195 00000078 1120.95 232.15 402.86 560.54 1265.20 445.61 1424.98 485.95 1340.90 571.30 1233.98 638.50 1366.81 672.72
00004196 00000079 1118.40 229.22 403.17 561.60 1261.26 446.10 1422.89 485.91 1338.39 571.77 1232.89 639.10 1367.05 672.67
00004197 00000080 1113.03 226.81 411.00 557.57 1258.55 439.51 1429.54 484.32 1333.20 569.28 1223.71 627.61 1363.94 667.55
00004198 00000081 1114.59 223.83 408.61 561.42 1260.67 434.79 1430.21 481.15 1334.84 564.66 1223.16 623.24 1365.26 664.46
00004199 00000082 1118.80 225.88 405.34 568.62 1261.97 431.92 1425.70 476.22 1339.08 563.06 1222.93 622.93 1373.55 660.54
00004200 00000083 1121.52 221.25 404.01 574.62 1266.09 429.09 1428.50 475.94 1342.79 563.55 1223.97 617.97 1377.01 658.01
00004201 00000084 1117.41 219.38 408.84 573.65 1269.32 429.01 1436.33 478.48 1343.55 566.31 1224.93 615.04 1375.53 658.64
00004202 00000085 1124.58 222.58 404.32 572.57 1278.30 431.89 1435.26 482.69 1351.77 570.31 1231.35 617.31 1380.59 660.88
00004203 00000086 1125.16 227.68 410.06 561.58 1279.89 438.20 1445.01 493.23 1348.92 574.05 1231.50 620.71 1371.73 669.24
00004204 00000087 1134.07 229.45 406.52 565.65 1279.54 446.59 1450.46 494.45 1350.41 592.51 1235.12 635.51 1380.27 677.86
00004205 00000088 1134.27 231.78 408.37 566.68 1279.95 450.83 1451.25 497.45 1350.99 595.22 1235.16 641.32 1378.21 682.96
00004206 00000089 1134.30 234.76 409.11 566.84 1277.92 451.46 1449.17 498.12 1348.01 595.29 1234.24 643.75 1376.70 685.38
00004207 00000090 1130.78 232.01 409.65 567.22 1278.05 448.88 1437.99 493.57 1349.61 582.31 1242.09 644.45 1372.80 682.52
00004208 00000091 1127.04 223.81 409.22 572.49 1270.29 445.00 1432.20 488.24 1344.60 574.27 1239.61 641.68 1369.32 678.29
00004209 00000092 1126.88 223.41 405.77 568.41 1265.32 443.31 1428.85 486.71 1339.65 571.24 1234.75 638.74 1367.81 675.52
00004210 00000093 1125.23 226.70 406.11 565.44 1264.06 445.98 1427.73 488.22 1338.22 572.99 1234.07 639.61 1368.72 675.38
00004211 00000094 1127.06 231.21 402.75 561.75 1264.36 448.32 1426.59 488.37 1337.60 574.28 1234.31 642.65 1367.79 676.84
00004212 00000095 1124.80 231.78 403.51 562.33 1261.03 449.88 1424.27 488.45 1335.12 575.87 1232.65 644.11 1366.20 677.01
00004213 00000096 1121.29 229.71 408.36 559.73 1257.48 448.59 1430.92 493.67 1327.14 578.12 1220.96 633.74 1359.51 673.96
00004214 00000097 1118.94 229.09 408.49 559.94 1255.55 448.98 1429.05 493.50 1325.51 577.89 1220.50 633.63 1358.84 673.27
00004215 00000098 1114.24 228.58 409.80 560.67 1252.41 450.07 1425.43 491.68 1324.25 576.91 1219.80 634.60 1357.71 671.76
00004216 00000099 1109.80 227.71 411.57 561.34 1250.54 450.58 1423.22 490.73 1323.79 578.09 1218.99 634.97 1356.75 670.89
00004217 00000100 1108.18 227.74 411.50 559.82 1249.68 450.69 1422.23 489.56 1323.59 577.40 1219.25 634.82 1356.77 669.51
00004218 00000101 1108.22 229.37 410.32 559.18 1249.65 450.95 1421.71 489.50 1323.57 577.65 1219.51 635.09 1356.54 669.56
00004219 00000102 1107.56 231.52 410.99 558.64 1249.74 451.53 1422.74 490.30 1324.68 578.08 1219.83 636.05 1357.86 670.67
00004220 00000103 1107.74 231.53 410.80 560.82 1251.30 452.97 1424.37 489.81 1327.85 579.40 1222.84 639.06 1359.76 672.31
00004221 00000104 1114.03 233.20 402.52 563.21 1252.44 455.75 1420.08 486.82 1333.82 580.56 1229.56 649.60 1366.32 676.20
00004222 00000105 1114.85 235.49 402.97 562.40 1254.40 457.43 1422.04 487.65 1335.91 583.06 1231.62 651.55 1368.18 677.44
00004223 00000106 1115.96 236.01 404.07 563.27 1255.54 459.21 1422.69 487.48 1337.53 586.59 1234.19 655.09 1368.51 679.52
00004224 00000107 1116.12 237.68 405.38 563.15 1258.11 459.56 1424.79 488.60 1339.93 588.41 1236.08 655.88 1370.16 680.86
00004225 00000108 1118.66 234.96 404.24 566.90 1262.82 461.21 1428.69 491.75 1343.76 591.27 1237.98 656.91 1372.18 683.11
00004226 00000109 1119.55 238.87 404.43 564.33 1266.58 463.13 1431.92 493.37 1346.26 595.71 1241.54 658.26 1373.53 684.27
00004227 00000110 1121.08 238.03 404.21 564.76 1271.35 465.57 1434.95 497.57 1350.66 597.76 1244.12 658.61 1374.38 686.02
00004228 00000111 1124.10 239.33 402.82 563.43 1274.34 466.51 1437.64 499.70 1353.68 599.59 1245.27 658.02 1377.02 686.63
00004229 00000112 1126.67 242.06 402.82 561.54 1277.70 468.14 1442.01 502.60 1356.48 599.66 1247.96 658.19 1380.73 687.89
00004230 00000113 1125.13 241.48 406.53 564.75 1281.42 467.57 1444.02 503.62 1360.26 599.68 1249.81 657.58 1381.77 688.53
00004231 00000114 1126.41 242.53 405.67 565.04 1284.34 467.92 1446.84 504.75 1363.91 602.09 1250.65 656.60 1384.33 688.49
00004232 00000115 1127.24 242.99 405.79 564.60 1286.38 468.20 1449.15 504.59 1367.41 604.27 1250.84 655.33 1387.47 687.26
00004233 00000116 1128.72 242.15 404.19 564.99 1288.28 468.73 1450.15 504.87 1370.32 605.30 1252.23 653.97 1389.59 686.00
00004234 00000117 1130.26 241.37 403.16 564.85 1290.04 469.11 1451.08 504.97 1371.77 605.61 1253.44 653.10 1390.98 685.02
00004235 00000118 1132.08 242.51 402.70 563.30 1288.09 471.07 1451.63 507.68 1370.15 605.16 1252.35 652.99 1391.93 685.46
00004236 00000119 1133.40 244.15 402.85 559.35 1287.09 473.57 1450.67 508.64 1367.69 603.31 1253.28 653.13 1392.83 684.17
00004237 00000120 1133.27 243.28 403.30 560.32 1286.65 472.72 1450.97 507.84 1367.24 602.83 1253.22 653.90 1392.50 684.92
00004238 00000121 1133.23 241.71 403.40 561.11 1286.93 471.61 1451.39 506.65 1367.48 602.31 1254.07 653.57 1393.05 684.55
00004239 00000122 1131.91 242.09 403.65 560.45 1287.27 470.97 1450.94 505.71 1368.10 602.60 1255.17 653.96 1392.66 684.60
00004240 00000123 1131.19 241.95 403.91 561.80 1288.67 469.76 1450.73 505.80 1369.11 603.33 1255.58 653.26 1391.64 684.98
00004241 00000124 1131.47 240.67 403.35 564.14 1288.69 468.60 1450.10 504.47 1368.97 603.49 1254.90 653.20 1391.01 684.93
00004242 00000125 1130.67 240.35 403.27 563.75 1287.71 468.78 1449.66 504.78 1368.35 602.36 1255.03 652.60 1390.82 684.22
00004243 00000126 1129.78 238.21 403.80 566.12 1285.94 467.98 1448.55 503.92 1366.96 601.34 1253.85 652.40 1390.54 683.84
00004244 00000127 1129.01 238.60 403.40 564.07 1284.50 468.14 1447.82 503.42 1366.50 600.68 1253.38 653.02 1390.24 683.90
00004245 00000128 1128.15 238.14 402.36 560.14 1283.57 468.37 1447.42 503.34 1365.88 598.69 1253.66 653.24 1389.76 683.68
00004246 00000129 1127.30 238.38 402.01 560.00 1282.03 467.93 1445.95 503.15 1363.99 598.18 1252.81 654.65 1387.62 685.17
00004247 00000130 1125.97 239.03 402.85 560.12 1281.21 468.40 1445.72 503.12 1363.78 598.60 1252.80 655.24 1387.70 685.28
00004248 00000131 1125.68 237.29 403.70 562.03 1281.78 467.89 1445.29 503.58 1363.58 599.10 1253.14 655.58 1386.61 686.24
00004249 00000132 1125.57 239.02 403.57 560.66 1281.40 468.66 1445.10 503.56 1363.26 599.62 1253.31 656.77 1386.39 686.82
00004250 00000133 1125.90 239.81 403.53 559.67 1281.81 468.49 1445.00 503.72 1362.91 599.95 1253.14 657.08 1385.61 687.39
00004251 00000134 1126.41 239.18 403.62 557.63 1280.49 468.26 1445.24 503.06 1361.71 598.78 1252.38 655.27 1386.77 685.27
00004252 00000135 1124.46 236.84 405.93 565.90 1281.68 466.78 1444.56 503.63 1362.38 598.38 1252.42 655.15 1384.92 686.65
00004253 00000136 1124.00 235.69 406.92 568.92 1283.06 464.80 1443.91 502.25 1362.73 597.78 1252.07 654.08 1383.05 686.07
00004254 00000137 1122.71 231.99 408.02 575.90 1281.56 463.37 1441.90 501.20 1362.14 597.26 1250.94 657.14 1380.43 689.26
00004255 00000138 1122.37 235.54 408.46 573.35 1281.74 463.27 1441.32 501.51 1360.52 598.64 1250.87 659.06 1378.45 691.41
00004256 00000139 1120.39 245.53 406.28 557.30 1277.39 470.41 1438.41 504.36 1354.84 603.00 1250.34 661.80 1376.33 690.76
00004257 00000140 1119.08 252.40 406.69 551.53 1271.43 478.83 1435.85 514.59 1349.56 608.71 1244.95 666.50 1372.14 697.24
00004258 00000141 1116.25 254.03 407.24 551.22 1267.25 481.73 1434.04 516.99 1348.27 611.17 1242.96 673.89 1367.61 704.27
00004259 00000142 1112.90 253.08 407.49 554.09 1260.25 476.18 1428.79 507.81 1343.76 606.67 1240.87 673.12 1366.74 700.53
00004260 00000143 1109.72 245.69 407.81 560.58 1256.73 467.19 1423.47 498.47 1339.24 599.87 1237.25 667.56 1359.99 694.69
00004261 00000144 1107.84 240.82 406.61 564.99 1251.75 463.84 1420.05 494.66 1336.03 593.68 1227.04 657.02 1364.90 683.77
00004262 00000145 1105.80 241.71 403.80 556.72 1247.63 463.42 1417.89 494.71 1331.43 593.24 1218.81 651.95 1364.10 678.71
00004263 00000146 1104.72 246.92 403.81 551.56 1242.23 463.16 1415.37 495.22 1325.57 594.19 1212.87 651.26 1361.10 678.68
00004264 00000147 1102.43 245.12 403.84 555.04 1234.76 462.79 1408.56 498.61 1314.25 593.87 1203.05 649.58 1349.43 679.99
00004265 00000148 1095.88 246.00 405.10 552.28 1224.16 459.54 1393.31 500.34 1297.48 589.14 1199.11 641.97 1349.24 678.21
00004266 00000149 1093.32 240.12 403.61 555.81 1217.32 457.49 1386.32 500.78 1285.87 588.52 1192.50 641.83 1341.17 679.67
00004267 00000150 1092.15 237.94 404.07 556.42 1213.70 455.91 1383.06 499.94 1280.35 584.28 1189.74 640.50 1338.37 678.43
00004268 00000151 1093.92 237.06 402.85 555.68 1214.93 454.86 1385.10 498.44 1282.65 583.94 1190.79 639.99 1339.60 677.54
00004269 00000152 1093.38 236.46 403.17 554.59 1215.51 454.60 1386.57 496.83 1285.82 584.87 1192.55 640.91 1340.59 677.33
00004270 00000153 1094.32 238.06 402.22 551.25 1216.08 455.69 1387.35 497.24 1287.17 585.88 1194.11 641.95 1341.21 677.86
00004271 00000154 1092.87 241.96 403.55 547.55 1217.96 457.68 1389.38 497.97 1291.75 588.91 1196.46 642.56 1344.04 677.86
00004272 00000155 1093.22 244.13 403.88 547.14 1218.80 460.20 1391.67 496.69 1296.02 591.47 1201.37 646.38 1348.85 678.67
00004273 00000156 1095.09 244.45 402.29 546.17 1219.31 461.18 1393.08 496.65 1297.67 593.22 1203.51 647.04 1351.84 678.50
00004274 00000157 1092.85 245.86 402.75 542.61 1217.39 461.37 1390.38 495.94 1295.30 592.92 1201.81 646.44 1349.08 677.15
00004275 00000158 1092.20 246.85 401.53 541.00 1216.68 460.83 1389.99 496.21 1294.66 591.88 1200.46 645.27 1348.71 676.70
00004276 00000159 1092.44 245.08 403.16 545.87 1219.46 462.14 1392.65 496.78 1299.53 594.11 1203.93 647.34 1350.90 678.18
00004277 00000160 1094.27 249.96 405.28 546.93 1226.27 462.62 1398.35 498.17 1309.17 597.28 1209.96 649.36 1356.47 681.11
00004278 00000161 1101.90 250.37 402.28 553.41 1236.77 468.65 1412.12 498.88 1322.80 602.47 1213.13 659.23 1356.42 685.49
00004279 DELETE   1103.06 253.91 404.29 554.49 1243.54 476.63 1415.04 507.03 1329.57 603.93 1221.12 663.33 1361.34 689.77
