Video ID: 	CckT0twVsDQ
H: 	1080
W: 	1920
FPS: 	25.0

FRAME INDEX X0 Y0 W H [Landmarks (5 Points)]

00027115 00000000 731.88 175.47 371.17 534.94 867.41 370.79 1036.69 376.90 992.69 459.56 888.46 575.15 1023.56 581.06
00027116 00000001 728.85 173.13 371.56 531.29 865.50 371.93 1036.30 375.03 992.76 458.03 889.17 573.03 1025.86 576.11
00027117 00000002 726.63 172.77 372.01 531.97 862.41 372.71 1034.44 374.56 990.02 459.43 887.99 574.43 1025.29 576.36
00027118 00000003 724.36 173.56 372.41 534.41 861.38 373.99 1031.87 376.52 989.69 461.99 886.30 576.83 1022.46 579.55
00027119 00000004 721.67 174.79 374.24 539.77 860.50 372.99 1028.14 376.73 987.60 461.71 884.24 578.73 1018.60 582.53
00027120 00000005 720.18 173.55 374.40 544.85 858.30 372.54 1026.91 376.83 985.95 459.42 881.51 579.60 1017.77 583.79
00027121 00000006 719.19 170.29 373.96 545.15 856.55 368.92 1024.51 372.09 982.42 456.83 881.80 577.69 1015.46 580.70
00027122 00000007 718.10 163.11 373.79 543.47 854.30 366.85 1021.83 368.36 976.65 451.48 884.26 573.72 1014.16 575.06
00027123 00000008 716.47 158.37 372.83 536.89 849.16 363.13 1021.24 362.98 972.07 445.97 879.92 565.89 1013.92 565.81
00027124 00000009 712.29 159.97 375.05 527.70 844.94 358.22 1018.17 358.51 964.37 440.77 871.88 556.62 1008.79 556.70
00027125 00000010 709.40 154.48 378.87 525.26 841.03 354.14 1017.32 353.35 957.11 434.42 866.63 551.74 1004.34 550.22
00027126 DELETE   698.92 144.08 384.00 528.54 831.78 358.27 1015.02 364.29 945.37 431.27 856.35 545.08 1000.48 550.24
00027127 DELETE   696.09 142.79 383.77 524.31 827.03 362.08 1008.58 365.86 938.98 425.00 851.26 539.72 996.39 542.85
00027128 DELETE   691.62 138.25 385.56 523.93 818.09 355.72 1003.09 359.72 927.25 420.14 843.10 535.21 987.85 538.41
00027129 00000014 688.70 136.22 385.17 522.14 810.56 349.47 996.28 352.94 917.62 416.43 836.42 532.14 980.66 534.93
00027130 00000015 688.10 134.79 381.76 517.75 805.88 343.14 988.98 346.96 908.86 411.59 830.03 527.24 971.94 530.59
00027131 00000016 687.47 134.06 382.45 516.88 802.32 340.60 983.54 343.44 903.03 409.82 826.62 524.21 968.20 526.90
00027132 00000017 686.57 130.76 378.66 517.87 795.40 342.86 975.82 344.10 896.35 404.82 817.93 525.47 966.21 527.10
00027133 00000018 687.14 131.08 377.07 517.90 794.23 342.84 975.04 343.15 893.74 403.67 816.94 526.88 964.91 527.78
00027134 00000019 687.70 131.74 375.35 517.37 793.94 341.96 974.48 342.91 893.00 403.53 816.12 526.41 963.97 527.90
00027135 00000020 687.76 131.53 375.50 519.63 793.80 341.91 974.29 341.29 892.65 402.81 816.80 528.63 963.55 528.85
00027136 00000021 687.46 135.84 374.62 520.02 792.85 342.64 972.54 341.28 891.52 404.30 816.22 532.20 960.61 531.95
00027137 00000022 682.96 145.78 380.49 512.80 798.43 342.97 970.50 339.07 896.01 410.49 824.21 532.75 948.85 529.25
00027138 00000023 682.68 145.79 381.85 517.03 797.43 344.06 969.88 339.97 894.54 411.87 823.61 534.84 948.63 531.16
00027139 00000024 681.81 145.40 383.16 519.33 796.81 344.75 969.28 340.29 894.28 413.52 823.93 535.59 948.46 531.58
00027140 00000025 681.59 146.63 383.19 520.58 796.74 345.01 969.35 340.43 894.99 415.34 824.32 536.78 949.17 532.66
00027141 00000026 681.44 149.58 382.62 519.91 795.91 347.77 968.25 341.98 894.70 417.78 825.09 539.93 949.16 534.79
00027142 00000027 681.35 151.05 381.65 519.15 796.26 352.33 965.66 344.85 894.10 419.16 826.22 543.05 948.24 536.47
00027143 00000028 681.09 152.96 379.90 517.52 796.09 355.28 963.38 347.80 893.43 421.98 825.82 543.60 948.03 537.17
00027144 00000029 681.40 146.47 374.94 518.36 788.13 353.98 963.44 350.89 884.29 424.10 813.31 543.43 951.49 542.04
00027145 00000030 678.18 147.62 376.95 514.77 785.48 353.64 961.21 351.84 880.79 425.45 810.38 540.33 949.82 539.89
00027146 00000031 678.08 147.24 376.60 515.12 784.11 352.47 959.27 350.15 878.85 426.57 808.90 539.38 948.39 538.62
00027147 00000032 678.61 146.70 375.81 517.45 778.98 351.33 961.16 339.69 882.17 424.71 805.26 547.20 950.32 537.56
00027148 00000033 676.06 146.89 378.74 514.40 781.01 353.93 960.51 351.11 877.52 428.42 806.98 540.81 950.84 539.75
00027149 00000034 677.76 145.73 378.82 514.81 783.03 356.11 961.54 350.42 880.74 426.73 810.84 540.88 955.79 537.28
00027150 00000035 681.29 146.65 380.05 517.05 792.87 353.24 971.68 346.85 896.85 425.80 822.60 542.86 965.62 538.08
00027151 00000036 684.10 142.13 384.89 529.63 802.33 345.85 985.98 344.22 911.94 427.25 834.37 543.24 979.48 542.13
00027152 00000037 689.07 139.23 383.88 539.75 812.16 348.42 997.04 347.09 931.02 430.17 843.77 548.44 991.16 547.29
00027153 00000038 701.50 151.41 378.67 534.04 828.43 351.43 1004.10 343.69 944.80 432.54 857.27 551.87 997.55 545.05
00027154 00000039 706.12 155.30 379.44 531.07 835.95 356.60 1012.57 351.30 954.88 439.61 862.91 555.08 1007.23 550.31
00027155 00000040 711.80 155.45 375.22 525.38 842.21 359.31 1017.18 355.02 963.87 443.09 869.27 554.41 1013.16 550.87
00027156 00000041 714.85 151.45 375.38 522.84 847.90 357.80 1019.60 354.42 969.56 437.29 876.66 550.34 1015.62 547.13
00027157 00000042 717.04 146.92 375.79 523.44 850.72 355.34 1020.03 352.72 971.75 431.60 882.58 547.04 1017.63 543.93
00027158 00000043 715.58 146.44 378.22 519.64 852.00 353.71 1020.09 351.62 973.72 427.80 885.26 543.74 1019.13 540.85
00027159 00000044 714.10 139.43 378.52 522.06 850.16 357.09 1024.36 353.90 970.78 432.88 886.05 540.93 1022.19 538.19
00027160 00000045 718.05 145.59 375.78 520.04 853.27 354.99 1019.06 350.63 976.97 427.39 889.74 544.07 1021.92 539.51
00027161 00000046 718.55 148.25 375.61 520.07 853.16 357.10 1019.31 351.18 977.64 428.93 891.94 547.34 1023.41 541.36
00027162 00000047 720.39 148.35 374.55 523.20 854.21 358.45 1019.02 351.36 979.24 429.18 895.12 549.68 1024.27 542.78
00027163 00000048 720.62 149.10 374.58 523.83 855.22 358.54 1019.23 351.72 980.44 429.62 896.23 549.96 1024.18 543.38
00027164 00000049 721.40 149.06 374.48 524.58 855.74 358.92 1019.43 350.69 981.61 429.98 898.18 550.99 1025.24 543.18
00027165 00000050 721.93 149.28 374.32 524.01 856.09 358.89 1018.95 349.43 982.29 429.86 900.02 551.50 1025.62 542.67
00027166 00000051 722.07 148.85 374.98 524.54 856.82 359.25 1019.93 349.43 983.72 430.38 901.12 552.52 1026.64 543.28
00027167 00000052 722.16 149.92 375.46 523.59 857.48 359.49 1020.52 349.50 985.00 431.73 902.22 553.31 1027.47 543.91
00027168 00000053 722.73 153.54 375.37 520.37 857.81 360.80 1022.85 350.63 986.07 434.89 901.22 555.35 1028.24 545.83
00027169 00000054 724.95 156.38 372.89 526.51 857.54 364.92 1023.31 353.15 986.01 439.15 901.23 561.45 1030.28 550.91
00027170 00000055 725.62 160.27 371.24 538.14 859.56 365.18 1020.36 360.10 985.19 442.71 902.87 571.18 1023.13 566.70
00027171 00000056 726.56 164.98 371.23 542.34 859.63 366.58 1020.72 363.39 984.93 446.59 898.33 574.73 1020.84 572.17
00027172 00000057 725.03 164.23 373.44 544.60 858.15 365.30 1019.71 362.46 982.88 444.69 896.17 574.10 1019.63 571.75
00027173 00000058 723.98 161.13 374.55 546.56 857.19 363.78 1019.29 360.65 981.49 443.47 894.71 572.71 1018.52 570.11
00027174 00000059 721.67 157.05 375.33 545.01 855.73 364.05 1021.89 359.42 980.83 445.06 893.56 572.98 1019.27 568.98
00027175 00000060 721.83 156.50 374.21 538.29 852.79 365.57 1022.06 357.66 977.20 446.22 890.42 569.67 1019.85 563.12
00027176 00000061 720.31 156.45 373.15 535.07 848.51 373.15 1016.60 365.21 968.91 447.32 885.43 567.60 1016.76 560.83
00027177 DELETE   721.42 159.30 371.16 529.65 846.97 382.15 1015.05 377.01 963.38 450.47 879.93 565.24 1015.80 560.79
00027178 00000063 718.61 161.63 371.37 526.20 840.43 382.23 1010.44 375.72 954.05 449.76 875.37 564.81 1011.49 559.03
00027179 DELETE   714.90 163.04 372.42 524.59 833.93 379.85 1004.17 372.38 944.92 452.30 869.07 566.88 1002.21 560.65
00027180 00000065 712.34 163.11 371.42 525.05 828.97 377.45 999.68 371.44 940.64 454.89 861.22 567.86 996.51 562.85
00027181 DELETE   708.88 162.00 371.17 524.66 824.35 376.52 996.64 373.00 934.25 455.21 854.49 566.23 991.95 563.27
00027182 00000067 708.29 159.83 369.13 522.14 819.39 375.90 992.03 373.03 925.03 455.01 848.48 562.93 986.23 560.20
00027183 00000068 705.77 163.02 369.86 516.96 815.44 376.47 989.97 373.80 919.90 456.90 842.43 561.76 982.94 559.04
00027184 00000069 704.50 165.34 368.89 513.18 813.41 378.19 986.42 377.03 915.52 457.63 837.41 559.94 979.16 558.61
00027185 00000070 702.32 167.73 369.80 511.01 810.22 379.73 984.82 378.60 912.30 458.57 833.79 560.81 976.96 559.48
00027186 00000071 702.15 168.09 370.26 511.41 808.44 380.82 983.72 380.41 910.34 459.59 832.21 562.27 974.59 561.54
00027187 00000072 702.05 167.73 370.41 511.25 807.90 380.69 983.18 381.06 909.21 460.37 831.99 563.62 972.87 563.38
00027188 00000073 701.23 169.60 371.95 510.29 807.55 380.68 983.38 381.70 908.56 461.00 831.87 565.15 970.96 565.38
00027189 00000074 701.24 169.47 372.76 511.33 807.29 381.59 983.18 382.89 907.67 462.04 832.01 566.33 969.46 566.77
00027190 00000075 700.88 170.35 372.81 510.60 806.94 381.94 983.29 383.90 907.24 463.16 831.24 567.57 968.79 568.49
00027191 00000076 701.25 170.40 372.13 510.25 807.06 382.16 982.83 384.13 907.23 463.29 831.27 567.32 968.71 568.29
00027192 00000077 700.97 170.97 372.09 509.97 806.31 379.49 983.66 381.70 907.01 462.76 830.61 567.28 967.67 568.35
00027193 00000078 701.18 168.52 372.76 511.58 805.40 374.60 984.63 377.04 907.13 462.41 830.79 566.65 967.66 567.73
00027194 00000079 701.56 167.39 372.87 512.35 805.30 371.43 985.19 373.91 907.45 460.93 831.85 565.72 968.29 566.64
00027195 00000080 701.96 165.59 372.15 513.16 805.64 370.50 984.38 372.30 907.99 460.33 833.24 565.26 968.41 565.64
00027196 00000081 702.67 164.86 371.04 516.30 807.72 369.76 985.19 371.64 910.25 459.38 834.53 565.73 969.29 566.37
00027197 00000082 703.67 165.40 371.21 526.14 810.36 368.00 986.61 369.01 912.58 458.52 837.65 568.07 967.68 568.84
00027198 00000083 703.47 164.80 371.74 528.95 812.43 366.63 985.73 366.77 915.43 455.23 841.77 568.25 966.26 568.45
00027199 00000084 703.86 163.72 372.64 521.16 813.57 366.03 983.87 365.05 916.09 452.67 845.94 562.74 966.52 561.46
00027200 00000085 695.81 157.38 375.23 520.69 815.71 368.02 987.55 364.89 919.32 454.98 848.75 558.08 975.65 555.94
00027201 00000086 696.22 158.61 375.25 517.72 816.69 368.29 988.56 364.09 921.13 457.72 850.22 557.33 977.52 554.21
00027202 00000087 697.92 159.86 373.94 516.69 818.22 370.05 990.06 366.09 922.68 460.53 852.02 559.02 979.51 556.20
00027203 00000088 706.80 168.07 371.13 515.25 820.24 369.37 988.45 365.68 924.35 456.97 854.96 562.28 974.92 558.65
00027204 00000089 708.53 171.51 369.95 520.17 820.60 373.83 991.60 368.83 926.04 462.86 853.59 567.83 979.81 563.73
00027205 00000090 709.65 173.60 369.67 527.90 820.95 379.47 993.98 372.90 928.54 470.45 851.25 575.50 986.37 570.71
00027206 00000091 710.07 173.72 368.85 535.26 822.34 382.30 995.02 374.67 930.54 475.10 847.75 578.55 989.89 573.01
00027207 00000092 710.67 171.02 367.15 538.35 822.97 382.70 997.16 374.60 934.93 475.13 847.85 581.92 992.57 576.29
00027208 00000093 712.78 169.53 368.24 537.35 826.60 378.97 1004.56 372.11 939.79 470.08 849.17 580.18 996.82 575.38
00027209 DELETE   716.98 169.08 366.88 534.02 835.45 383.58 1012.91 379.02 948.85 464.66 857.17 573.72 1006.23 570.68
00027210 DELETE   719.49 164.20 371.27 533.74 846.09 379.20 1020.06 374.06 965.73 461.66 872.91 572.53 1014.74 568.47
00027211 00000096 723.98 159.94 372.11 528.40 855.45 373.11 1027.15 366.57 981.84 451.72 887.64 566.99 1024.15 561.50
00027212 00000097 726.14 156.46 372.67 524.96 860.13 366.54 1027.66 358.74 987.15 442.27 894.85 558.28 1028.69 551.36
00027213 00000098 726.42 151.80 373.36 524.98 860.27 359.22 1028.54 352.06 987.84 436.12 895.76 553.89 1028.37 547.27
00027214 00000099 727.34 145.70 373.24 527.99 859.88 355.03 1026.23 349.75 984.85 429.07 894.34 548.21 1026.34 543.12
00027215 00000100 722.97 138.03 376.15 531.46 860.57 354.95 1031.21 353.94 979.89 430.72 890.12 540.94 1026.70 540.39
00027216 00000101 721.52 136.51 377.15 531.13 860.30 353.84 1031.76 354.08 980.38 429.04 890.06 539.60 1026.69 540.11
00027217 00000102 720.86 137.33 376.86 531.30 860.24 354.80 1030.65 354.14 980.64 429.86 890.69 540.82 1025.84 540.55
00027218 00000103 721.73 139.77 375.05 530.02 859.89 355.98 1030.53 354.47 980.34 432.10 890.51 541.93 1026.47 540.93
00027219 00000104 725.32 146.15 371.32 527.39 858.96 353.58 1024.28 348.09 983.45 432.03 893.24 549.62 1021.94 544.73
00027220 00000105 725.49 150.38 370.87 530.19 857.71 356.33 1025.05 350.73 983.15 437.07 890.63 554.63 1022.41 549.80
00027221 00000106 724.22 154.74 370.36 535.49 856.41 360.77 1023.84 355.71 982.49 446.23 891.59 565.43 1019.38 561.18
00027222 00000107 721.57 159.02 369.67 540.86 857.40 363.69 1022.86 363.03 983.14 452.22 888.72 571.04 1015.91 570.76
00027223 00000108 721.46 159.09 369.67 540.68 857.05 364.40 1022.67 363.60 982.23 453.73 887.98 572.28 1015.12 571.87
00027224 00000109 722.31 157.14 369.39 534.27 854.82 367.03 1023.78 361.91 981.80 453.77 886.94 568.77 1019.73 564.73
00027225 00000110 719.90 158.26 370.72 530.58 853.93 367.04 1022.29 361.36 980.41 452.49 885.67 566.36 1018.58 561.80
00027226 00000111 719.42 158.10 371.56 532.08 852.41 367.21 1021.68 360.68 978.82 453.46 885.75 568.01 1018.74 562.69
00027227 00000112 719.80 158.60 370.80 531.10 852.33 366.74 1018.67 359.10 976.38 451.75 889.95 568.97 1015.72 562.66
00027228 00000113 720.75 159.15 369.69 529.72 853.07 366.26 1017.49 358.84 976.03 450.75 892.25 568.46 1015.03 562.37
00027229 00000114 720.89 158.57 370.23 528.92 852.97 365.96 1018.10 357.23 977.66 448.52 893.24 567.30 1018.15 560.03
00027230 00000115 720.92 158.08 370.43 527.77 853.38 365.20 1018.31 356.38 978.31 445.88 893.46 564.82 1019.15 557.37
00027231 00000116 720.67 158.12 370.50 527.38 853.41 365.58 1018.13 356.57 978.47 445.61 892.91 563.82 1019.40 556.24
00027232 00000117 721.01 158.11 370.22 526.70 853.66 365.83 1018.37 356.51 978.96 445.58 893.37 563.58 1020.12 555.75
00027233 00000118 721.10 158.74 370.24 526.75 853.90 366.56 1018.77 357.11 979.58 447.63 893.95 565.26 1020.33 557.35
00027234 00000119 722.37 158.07 369.21 529.48 854.08 367.25 1020.33 359.05 980.11 450.94 891.70 567.27 1019.90 560.57
00027235 00000120 722.26 160.37 368.77 539.04 854.50 367.01 1023.89 363.12 981.94 454.60 884.37 572.02 1018.66 569.17
00027236 00000121 720.81 163.03 370.70 541.18 855.81 367.40 1026.06 364.58 985.03 456.11 880.59 569.81 1019.95 567.94
00027237 00000122 723.95 163.04 369.99 533.59 858.89 366.67 1029.46 364.91 988.72 452.89 885.41 567.36 1023.60 566.31
00027238 00000123 730.69 155.36 370.29 527.16 866.84 359.99 1037.36 357.08 996.28 440.15 899.79 557.42 1033.92 554.55
00027239 00000124 732.84 144.59 370.27 524.77 870.44 351.03 1037.17 350.32 999.00 429.68 907.24 549.20 1034.09 547.92
00027240 00000125 732.22 138.44 366.68 525.05 873.40 348.52 1040.20 351.71 998.66 420.21 907.95 540.76 1038.20 543.61
00027241 00000126 727.63 132.36 368.48 519.53 867.25 346.17 1034.05 346.08 991.61 412.97 902.03 531.27 1035.41 531.37
00027242 00000127 723.60 125.34 370.60 521.78 861.32 339.60 1031.62 339.43 986.75 409.14 894.85 525.39 1031.69 525.60
00027243 00000128 723.35 124.75 371.24 521.88 863.43 337.51 1034.15 339.75 989.86 407.39 895.00 524.39 1032.06 526.65
00027244 00000129 726.24 121.38 371.96 525.67 870.90 337.37 1039.53 345.46 996.50 407.90 901.59 525.94 1034.33 533.16
CROP_BBOX: 471 0 1307 837
