Video ID: 	2SujSmkDeYU
H: 	1080
W: 	1920
FPS: 	29.97002997002997

FRAME INDEX X0 Y0 W H [Landmarks (5 Points)]

00135923 00000000 748.17 115.66 388.51 546.20 888.35 317.19 1063.10 310.33 1039.02 382.18 925.16 502.66 1092.24 497.26
00135924 DELETE   748.41 115.77 388.27 546.33 888.45 317.14 1063.05 310.28 1039.10 382.28 925.22 502.73 1092.30 497.29
00135925 00000002 749.93 116.20 387.53 549.17 887.14 322.91 1057.02 305.77 1036.98 388.09 931.71 509.23 1095.33 495.52
00135926 00000003 746.87 119.13 391.14 551.51 885.81 330.11 1053.17 306.85 1035.93 392.62 934.01 516.32 1094.39 497.95
00135927 00000004 742.06 123.96 402.79 557.76 888.04 332.76 1052.09 305.60 1035.33 399.10 935.18 527.68 1089.95 503.59
00135928 00000005 746.30 128.12 400.35 561.48 886.32 338.27 1052.30 308.09 1036.78 401.18 936.51 534.73 1093.09 508.13
00135929 00000006 746.39 128.04 400.49 561.80 886.52 338.23 1052.39 307.61 1037.07 401.27 937.12 535.04 1093.25 508.10
00135930 00000007 742.77 127.86 404.85 562.12 885.22 340.50 1052.30 308.97 1035.68 403.13 937.37 537.71 1093.71 510.03
00135931 00000008 744.51 128.05 405.03 562.28 885.20 341.48 1050.39 307.05 1034.01 400.40 939.77 537.32 1094.35 507.52
00135932 00000009 746.41 127.96 404.10 562.03 883.10 340.76 1045.21 303.91 1029.59 396.72 941.18 536.57 1093.54 504.47
00135933 00000010 744.17 124.15 408.28 564.59 881.02 342.24 1041.65 301.42 1022.76 394.89 941.59 535.46 1094.21 499.34
00135934 00000011 743.92 124.23 408.38 564.47 881.03 342.18 1041.56 301.35 1022.73 394.80 941.53 535.39 1094.14 499.30
00135935 DELETE   746.65 127.72 405.59 560.30 880.91 347.25 1040.23 301.37 1021.91 397.46 945.08 538.94 1095.95 499.27
00135936 00000013 743.19 131.18 409.41 556.92 881.23 353.49 1040.10 305.64 1024.27 402.60 946.07 543.20 1096.58 502.26
00135937 00000014 743.85 134.87 408.75 555.78 881.21 357.51 1041.71 308.53 1025.21 406.34 948.45 546.78 1100.12 505.31
00135938 00000015 744.48 139.72 408.15 553.88 880.91 361.33 1040.71 308.33 1025.06 408.62 951.16 549.74 1101.46 505.77
00135939 00000016 744.79 139.93 407.82 553.86 880.86 361.35 1040.76 308.16 1025.18 408.60 951.14 549.79 1101.62 505.69
00135940 00000017 749.43 144.56 399.02 547.53 876.67 374.76 1037.19 318.28 1022.89 410.00 949.94 553.04 1099.56 507.27
00135941 00000018 751.79 145.87 397.22 546.35 877.53 377.10 1036.63 317.66 1024.32 409.83 952.76 556.68 1100.94 508.03
00135942 00000019 750.27 146.92 401.47 544.23 877.36 379.27 1037.46 318.16 1024.71 409.47 954.25 556.86 1103.15 506.66
00135943 00000020 749.93 147.87 402.99 540.83 878.09 379.98 1038.58 318.22 1025.09 409.71 956.33 556.56 1104.39 505.76
00135944 DELETE   750.35 147.62 402.72 541.09 877.93 380.32 1038.26 317.99 1024.62 409.68 956.35 556.95 1104.34 505.65
00135945 00000022 748.03 149.61 411.44 545.82 881.80 371.38 1039.22 310.10 1027.24 409.56 960.91 555.81 1106.69 504.89
00135946 00000023 751.40 148.84 409.13 546.41 883.08 371.57 1040.46 309.43 1027.94 409.62 967.80 558.61 1110.45 506.53
00135947 00000024 753.74 148.59 407.71 548.82 885.07 372.16 1044.48 308.36 1033.30 410.96 972.88 561.43 1113.99 507.88
00135948 00000025 755.30 148.12 407.20 549.07 887.27 372.57 1046.91 309.41 1036.21 412.62 976.90 563.90 1115.15 510.87
00135949 00000026 755.72 148.34 406.70 548.58 887.10 372.71 1046.87 309.27 1036.32 412.50 977.20 564.02 1115.51 510.79
00135950 00000027 756.84 148.69 407.58 548.59 888.00 372.63 1048.41 309.91 1037.89 414.51 977.49 565.38 1117.18 512.32
00135951 00000028 758.16 148.68 406.69 547.71 889.36 372.81 1050.37 311.36 1038.96 415.62 977.45 565.46 1117.22 513.49
00135952 DELETE   759.18 149.14 405.76 547.14 889.97 373.10 1051.50 312.53 1039.68 416.33 978.62 566.51 1117.70 515.28
00135953 00000030 759.69 147.52 405.74 549.06 891.36 374.00 1052.64 313.19 1040.52 417.55 979.32 566.50 1118.31 515.11
00135954 00000031 760.09 147.53 405.74 549.55 891.42 374.02 1052.61 312.79 1040.80 417.36 979.74 566.80 1118.79 515.07
00135955 00000032 762.73 147.44 401.80 547.65 892.52 375.08 1052.69 313.73 1040.04 417.77 979.59 565.85 1117.17 514.30
00135956 00000033 764.15 147.67 400.23 548.44 894.05 376.02 1054.38 314.35 1040.62 419.38 979.70 566.24 1117.06 514.44
00135957 00000034 762.83 146.44 402.03 552.32 895.47 378.70 1056.93 318.35 1042.02 422.67 978.29 567.68 1117.99 516.95
00135958 00000035 761.12 149.76 405.20 552.70 896.18 379.64 1055.01 319.71 1041.90 421.83 981.52 568.86 1118.67 518.05
00135959 00000036 760.92 149.45 405.47 552.96 896.11 379.99 1055.04 319.92 1041.78 422.31 980.99 569.15 1118.20 518.27
00135960 00000037 759.45 149.86 405.43 554.88 894.64 380.23 1054.70 322.30 1041.60 423.81 976.30 569.87 1116.02 520.89
00135961 00000038 757.77 150.25 404.79 561.83 893.05 379.86 1053.14 325.41 1040.90 426.62 968.12 569.59 1112.24 524.40
00135962 00000039 758.14 152.75 404.75 566.16 890.49 380.71 1051.58 325.95 1039.42 428.37 965.19 573.49 1112.67 528.23
00135963 00000040 757.99 151.73 402.08 571.22 889.38 383.15 1053.61 331.37 1038.58 437.23 957.12 575.44 1110.06 533.15
00135964 00000041 757.99 151.77 402.07 571.17 889.38 383.15 1053.61 331.37 1038.60 437.22 957.12 575.43 1110.05 533.14
00135965 00000042 757.34 151.66 400.11 574.87 889.99 386.95 1055.13 338.81 1039.55 443.94 950.08 576.93 1107.92 537.92
00135966 00000043 756.29 154.36 399.84 573.11 890.28 390.68 1054.94 344.29 1039.01 450.47 946.57 579.02 1104.43 541.82
00135967 00000044 755.65 157.56 400.06 571.05 889.67 392.12 1056.11 345.93 1039.47 454.25 945.00 581.45 1104.20 544.56
00135968 00000045 755.74 158.45 399.07 570.26 889.82 394.12 1057.63 349.35 1038.94 456.93 944.09 582.83 1103.13 547.34
00135969 00000046 755.67 158.62 399.18 569.73 889.78 394.27 1057.91 349.63 1038.92 457.17 943.95 582.84 1103.05 547.41
00135970 00000047 755.59 159.62 398.53 566.64 890.13 392.81 1058.34 351.02 1036.97 455.75 943.79 580.37 1101.54 547.14
00135971 00000048 750.52 155.51 401.74 564.21 890.01 388.54 1057.64 349.76 1036.05 451.64 942.97 576.40 1097.64 545.86
00135972 00000049 747.81 155.28 403.42 558.67 888.47 384.00 1056.24 345.46 1035.00 444.65 940.71 569.53 1097.54 539.33
00135973 00000050 745.88 156.39 402.97 554.30 887.62 378.73 1056.91 345.07 1033.81 440.89 937.58 565.77 1095.25 539.76
00135974 00000051 746.00 156.66 402.79 554.45 887.57 378.35 1056.77 344.86 1033.73 440.63 937.51 565.55 1095.29 539.67
00135975 00000052 741.11 154.84 403.97 554.52 885.92 372.76 1055.32 343.03 1031.85 437.81 933.75 562.38 1090.55 539.75
00135976 00000053 741.56 154.27 401.54 554.40 884.08 369.98 1053.07 342.28 1028.43 438.04 931.20 561.28 1088.17 540.15
00135977 00000054 735.51 157.15 402.04 550.99 880.88 379.94 1050.82 342.82 1031.59 438.94 923.06 564.88 1079.97 534.49
00135978 00000055 735.56 156.52 401.33 555.26 879.58 380.10 1049.20 343.74 1028.95 441.01 925.74 569.69 1078.50 539.76
00135979 00000056 734.85 156.13 402.09 555.36 879.40 380.21 1048.99 344.05 1028.34 441.18 925.62 569.61 1078.14 539.80
00135980 00000057 734.76 151.22 402.70 556.64 879.47 379.08 1049.09 346.05 1026.25 442.01 935.47 572.66 1077.27 544.57
00135981 00000058 735.07 149.44 402.30 553.96 880.71 379.42 1050.31 346.80 1028.67 440.73 941.78 573.15 1080.25 545.21
00135982 00000059 734.92 143.90 398.64 566.32 881.34 375.42 1050.86 346.91 1026.39 442.39 950.18 573.38 1088.27 550.43
00135983 00000060 735.27 151.89 398.24 550.96 877.19 371.79 1040.94 338.88 1025.67 426.72 942.88 568.78 1074.54 541.03
00135984 00000061 735.30 152.76 398.34 550.09 876.75 371.41 1040.92 338.82 1025.33 426.62 942.57 568.73 1074.40 541.24
00135985 00000062 734.43 154.10 398.49 552.65 874.47 368.83 1039.87 337.68 1023.72 422.39 936.25 566.25 1073.14 540.04
00135986 00000063 732.78 153.27 399.91 549.22 873.28 370.57 1039.74 334.90 1021.46 424.18 930.97 565.02 1071.58 535.01
00135987 00000064 730.21 151.68 402.33 546.72 872.23 370.63 1041.09 334.77 1019.99 425.33 926.51 562.63 1070.69 532.07
00135988 00000065 729.38 148.55 402.64 544.94 872.09 371.30 1043.14 334.21 1018.82 427.67 926.68 562.07 1071.90 530.22
00135989 00000066 729.25 148.49 402.86 544.92 872.05 371.21 1043.22 334.17 1018.80 427.81 926.72 562.09 1071.96 530.26
00135990 00000067 728.39 149.57 404.14 543.36 872.31 371.39 1043.29 334.15 1018.92 427.59 925.60 560.33 1071.96 528.38
00135991 00000068 729.50 150.16 403.15 542.76 872.92 373.07 1043.90 335.58 1019.66 428.16 925.22 560.52 1072.83 528.58
00135992 00000069 730.32 150.03 401.54 544.32 872.15 376.42 1046.49 340.05 1020.06 432.86 922.38 563.54 1073.49 532.57
00135993 00000070 731.29 152.22 402.19 548.58 872.96 378.06 1045.40 341.99 1020.19 434.53 921.39 565.00 1072.55 534.58
00135994 00000071 731.26 151.24 402.15 549.28 872.99 377.89 1045.52 342.39 1020.38 434.44 921.29 564.70 1072.64 534.78
00135995 00000072 733.34 152.51 400.13 547.94 873.36 379.13 1046.66 345.57 1019.36 436.91 918.68 564.62 1071.70 536.43
00135996 00000073 733.92 152.61 399.93 548.16 874.32 379.50 1047.89 346.48 1020.06 438.82 917.89 564.98 1071.65 537.34
00135997 00000074 736.20 152.59 397.75 548.59 876.03 380.12 1050.74 348.77 1021.63 441.79 916.81 565.51 1072.99 539.43
00135998 00000075 737.64 154.13 397.20 550.55 877.60 381.19 1051.65 350.79 1022.90 443.42 915.96 566.14 1073.74 541.26
00135999 00000076 737.63 154.13 397.39 550.54 877.60 381.19 1052.13 350.50 1023.24 443.79 916.21 566.40 1074.15 541.25
00136000 00000077 737.85 156.28 397.53 553.47 877.41 382.65 1054.20 352.94 1024.58 447.17 911.74 567.94 1075.52 544.07
00136001 00000078 737.39 157.88 398.20 556.72 878.26 383.92 1054.48 354.96 1025.41 449.58 909.37 568.64 1075.16 545.71
00136002 00000079 737.17 158.09 398.98 559.45 878.83 385.01 1055.71 354.69 1027.80 452.11 911.42 571.79 1076.99 547.76
00136003 00000080 737.84 158.71 398.37 558.83 879.59 385.05 1056.35 354.69 1028.40 453.01 912.68 572.57 1077.16 548.51
00136004 00000081 737.81 158.32 398.43 558.99 879.69 384.73 1056.34 354.99 1028.27 452.19 912.87 572.13 1077.17 548.51
00136005 00000082 738.01 158.32 398.71 557.52 879.75 384.66 1056.16 355.21 1028.02 451.46 913.89 571.94 1077.18 548.45
00136006 00000083 737.66 157.45 398.50 555.48 879.35 384.34 1055.45 355.90 1027.36 449.91 914.93 571.38 1076.14 548.56
00136007 00000084 736.68 156.15 399.59 554.85 877.39 383.54 1055.18 355.56 1025.33 448.08 916.41 571.84 1076.19 548.96
00136008 00000085 738.42 153.17 398.35 553.57 877.96 382.62 1057.43 354.40 1024.04 448.27 918.00 571.23 1076.71 547.80
00136009 00000086 737.77 152.89 398.90 553.38 878.00 382.89 1057.40 354.57 1024.20 448.67 918.24 571.23 1076.66 547.68
00136010 00000087 737.33 152.20 400.30 554.85 876.92 381.27 1058.82 354.24 1024.20 447.11 920.14 572.88 1078.95 550.11
00136011 00000088 736.89 150.11 401.46 555.45 875.52 380.61 1058.70 352.63 1023.24 446.00 922.05 573.49 1079.71 549.61
00136012 00000089 736.34 149.12 401.56 555.18 874.89 380.33 1057.87 351.52 1022.79 445.74 922.90 573.45 1079.43 548.74
00136013 00000090 736.05 149.37 402.11 555.20 874.65 380.12 1057.55 351.49 1022.39 445.27 922.95 573.25 1079.16 548.68
00136014 00000091 736.08 149.59 402.20 554.96 874.87 380.25 1057.82 351.46 1022.72 445.48 922.98 573.22 1079.43 548.56
00136015 00000092 736.43 150.08 402.23 555.72 875.56 379.99 1057.21 350.57 1022.86 446.36 923.90 573.95 1078.95 548.88
00136016 00000093 735.69 149.49 403.02 556.44 874.96 380.35 1056.74 350.52 1023.20 445.46 924.96 574.08 1079.82 548.52
00136017 00000094 737.13 149.36 401.57 556.45 876.27 379.67 1056.67 350.38 1024.32 445.46 926.89 574.50 1079.43 549.39
00136018 00000095 736.86 150.78 402.24 555.87 877.14 379.14 1056.57 349.77 1025.03 445.65 927.45 573.97 1079.15 548.85
00136019 00000096 736.87 150.58 402.19 555.87 877.36 378.76 1056.67 349.99 1025.09 445.50 927.86 573.80 1079.13 549.11
00136020 00000097 737.35 149.98 401.98 556.19 877.76 378.40 1057.04 348.90 1026.35 446.02 928.84 574.68 1079.91 549.44
00136021 00000098 737.72 149.51 401.36 554.71 878.80 378.00 1056.88 348.54 1027.52 445.90 931.29 574.37 1080.01 549.11
00136022 00000099 737.32 149.57 402.02 553.38 878.74 377.97 1057.28 348.85 1027.62 446.03 932.47 574.48 1080.22 549.31
00136023 00000100 737.14 143.84 399.47 567.56 879.35 378.01 1059.75 350.03 1024.55 453.53 939.72 577.72 1088.04 554.86
00136024 00000101 736.99 143.92 399.70 567.75 879.31 378.02 1059.71 349.99 1024.45 453.57 939.75 577.83 1088.10 554.93
00136025 00000102 736.46 144.06 400.52 567.94 879.74 378.06 1059.86 350.26 1025.46 452.91 940.38 577.84 1088.48 555.14
00136026 00000103 737.65 144.63 400.11 566.74 880.36 378.33 1060.50 350.05 1025.97 453.05 940.81 577.90 1088.68 554.81
00136027 00000104 738.59 143.72 399.13 567.34 881.67 379.13 1061.65 350.49 1028.10 453.26 941.88 578.70 1089.19 555.29
00136028 00000105 739.73 144.11 398.70 566.42 882.67 379.05 1062.96 350.65 1029.41 453.30 942.78 579.13 1089.78 555.85
00136029 00000106 739.02 144.04 399.43 566.97 882.57 378.88 1062.86 350.69 1029.59 453.33 942.84 579.38 1089.76 556.29
00136030 00000107 744.24 148.85 398.12 561.99 888.88 373.43 1059.03 352.61 1030.31 447.60 943.63 576.17 1083.00 560.45
00136031 00000108 745.25 148.81 397.92 562.02 889.31 374.60 1059.24 353.45 1030.42 448.15 943.68 576.15 1083.43 560.36
00136032 00000109 745.34 149.19 398.00 562.80 889.76 374.95 1059.80 353.74 1031.70 447.98 942.81 576.18 1083.60 560.29
00136033 00000110 746.89 150.58 395.06 559.47 892.89 368.86 1055.49 350.22 1028.34 442.60 946.96 570.02 1077.64 555.27
00136034 00000111 746.84 150.60 395.11 559.66 892.60 368.36 1055.73 349.76 1028.40 442.22 947.17 569.92 1078.50 555.10
00136035 00000112 745.41 149.66 396.48 562.63 890.53 367.19 1058.53 347.08 1031.57 443.71 939.27 570.34 1081.28 554.45
00136036 00000113 745.49 149.20 396.19 562.17 888.97 366.14 1058.83 344.17 1032.02 442.75 933.99 568.33 1082.79 551.02
00136037 00000114 747.22 147.66 395.82 560.75 889.49 364.93 1059.18 342.42 1030.94 442.77 933.45 565.70 1084.07 547.93
00136038 00000115 747.31 146.67 394.81 559.18 891.45 366.35 1060.35 343.53 1032.29 444.65 934.31 566.08 1082.94 548.18
00136039 00000116 747.78 146.80 394.53 559.44 891.30 366.60 1060.60 343.38 1032.54 444.63 934.37 566.22 1083.59 548.07
00136040 00000117 748.73 146.77 393.36 558.35 892.65 368.93 1062.69 345.63 1033.26 446.56 932.70 566.35 1083.27 548.41
00136041 00000118 749.02 146.34 393.57 558.94 893.43 369.57 1063.65 346.15 1033.46 447.20 933.24 566.37 1083.29 548.22
00136042 00000119 750.01 145.16 392.47 558.89 894.19 368.51 1064.47 346.02 1033.58 446.46 934.63 566.15 1083.26 548.46
00136043 00000120 750.13 142.79 393.78 559.11 895.45 366.25 1065.51 343.41 1035.14 444.53 938.76 565.61 1084.97 547.17
00136044 00000121 749.75 142.94 394.00 558.26 895.61 366.22 1065.33 343.64 1035.07 444.50 939.39 565.45 1084.79 547.21
00136045 00000122 750.10 140.97 394.52 558.01 896.35 361.98 1065.25 340.24 1034.69 441.21 943.56 563.70 1085.01 545.69
00136046 00000123 750.93 138.52 394.85 559.71 897.28 360.00 1064.77 339.06 1034.32 439.03 946.62 562.31 1084.80 544.85
00136047 00000124 751.64 137.54 394.48 560.48 898.80 358.39 1063.42 338.65 1034.08 436.11 951.34 561.61 1083.36 544.83
00136048 00000125 750.80 139.17 395.24 561.32 898.80 356.61 1063.51 338.30 1033.68 435.77 950.88 561.40 1083.26 545.81
00136049 00000126 751.14 139.02 394.82 561.32 898.89 356.68 1063.55 338.27 1033.62 435.83 950.88 561.41 1083.13 545.74
00136050 00000127 749.57 139.14 396.44 560.88 899.34 354.10 1063.30 337.31 1034.35 434.22 949.86 559.55 1082.95 545.13
00136051 00000128 747.79 136.94 397.05 560.17 899.92 352.02 1063.50 336.16 1034.68 431.25 950.28 556.57 1083.22 542.53
00136052 00000129 747.95 135.83 397.93 558.84 899.53 348.76 1065.28 333.69 1033.11 429.49 947.44 553.55 1083.15 539.97
00136053 00000130 747.35 135.07 398.30 558.94 899.02 346.92 1065.64 331.61 1034.19 427.37 947.12 551.78 1084.69 537.95
00136054 00000131 746.53 135.80 399.00 558.46 898.59 346.33 1065.36 331.49 1033.78 427.16 946.68 551.65 1084.40 538.19
00136055 00000132 746.52 136.59 397.67 557.92 897.78 345.70 1065.35 330.55 1034.39 426.13 944.36 551.48 1084.08 537.90
00136056 00000133 744.19 138.01 398.83 557.59 896.01 343.64 1063.98 328.52 1033.76 424.53 943.30 551.80 1083.29 538.26
00136057 00000134 743.38 139.55 399.09 556.13 895.21 344.33 1062.91 328.45 1034.29 423.19 942.06 551.43 1083.64 537.55
00136058 00000135 743.02 139.34 398.20 554.99 895.16 343.45 1062.63 327.82 1034.62 422.74 941.60 550.99 1082.98 537.39
00136059 00000136 742.47 139.85 398.62 554.57 894.76 343.21 1062.68 327.57 1034.25 422.69 941.27 551.09 1082.82 537.44
00136060 00000137 742.07 139.28 398.22 553.43 893.65 343.68 1060.84 327.45 1033.34 421.75 939.87 550.44 1081.41 536.39
00136061 00000138 736.74 140.14 397.99 549.62 887.75 354.41 1057.18 332.21 1036.71 418.72 930.86 551.26 1075.69 532.50
00136062 00000139 736.52 140.69 397.77 549.66 886.82 354.57 1055.38 332.48 1034.00 418.68 929.79 551.10 1073.91 532.28
00136063 00000140 734.18 140.14 399.54 550.74 885.44 355.68 1053.63 333.77 1031.73 419.94 927.94 551.10 1071.39 532.15
00136064 00000141 734.77 140.82 399.09 549.53 885.02 355.74 1053.74 333.51 1031.01 420.07 927.59 551.23 1071.22 532.05
00136065 00000142 734.82 141.24 398.22 549.59 883.63 357.05 1052.99 334.49 1028.41 423.10 925.69 551.71 1070.01 532.11
00136066 00000143 734.15 139.75 398.01 549.06 882.03 359.67 1051.18 338.17 1025.83 424.27 925.16 551.07 1068.98 532.09
00136067 00000144 733.62 140.47 397.95 549.79 880.92 360.40 1051.16 338.94 1024.68 424.82 923.25 551.35 1068.99 532.34
00136068 00000145 733.17 139.24 398.18 550.67 880.57 360.57 1051.35 338.94 1023.98 425.40 922.67 551.49 1068.94 532.27
00136069 00000146 733.27 139.40 398.37 550.74 880.26 360.60 1051.30 338.89 1023.46 425.53 922.35 551.47 1068.74 532.17
00136070 00000147 733.14 138.48 398.01 551.28 879.72 360.69 1051.33 338.64 1023.30 425.93 921.48 551.20 1068.74 531.70
00136071 00000148 732.59 139.38 398.48 551.79 878.41 361.89 1050.17 339.28 1022.18 424.89 920.00 550.88 1068.94 530.90
00136072 00000149 731.68 139.07 399.05 552.62 877.59 361.95 1049.90 339.11 1022.11 425.77 918.68 551.07 1068.86 530.94
00136073 00000150 730.65 138.89 400.16 554.47 876.85 363.34 1049.35 339.56 1022.08 426.06 916.67 551.28 1068.83 530.48
00136074 00000151 730.53 139.03 400.47 554.89 876.82 363.42 1049.56 339.52 1022.09 426.30 916.42 551.45 1068.90 530.54
00136075 00000152 730.61 139.44 400.00 555.85 876.83 364.30 1049.33 340.50 1022.10 426.93 914.48 550.92 1068.78 530.30
00136076 00000153 730.37 140.15 399.99 554.35 876.61 364.03 1049.09 340.66 1022.25 426.68 914.67 550.48 1068.95 530.25
00136077 00000154 730.79 139.31 400.38 554.31 876.77 364.40 1049.46 340.21 1022.71 425.95 915.38 550.25 1069.98 529.28
00136078 00000155 731.63 139.65 399.88 553.39 877.73 363.75 1050.56 339.74 1023.41 426.48 916.18 549.99 1070.46 529.17
00136079 00000156 732.29 140.19 399.40 553.03 878.07 364.00 1050.45 339.95 1023.56 426.18 916.62 549.92 1070.56 529.22
00136080 00000157 732.60 140.50 399.87 552.10 878.65 364.03 1051.13 339.87 1023.83 427.04 916.44 549.74 1070.94 529.00
00136081 00000158 733.95 141.54 398.31 551.84 879.91 366.29 1051.46 343.44 1025.05 427.10 916.19 549.22 1072.19 529.76
00136082 00000159 735.75 140.20 396.96 551.87 881.20 367.73 1052.30 345.38 1026.41 426.35 916.76 548.52 1073.74 529.64
00136083 00000160 735.42 140.29 397.82 551.56 881.43 367.93 1052.46 345.70 1027.15 426.17 916.59 547.90 1074.22 529.21
00136084 00000161 735.75 140.55 397.53 550.92 881.35 367.82 1052.44 345.49 1026.80 426.09 916.58 547.97 1074.18 529.21
00136085 00000162 735.40 140.57 397.84 550.55 881.44 368.26 1052.71 345.50 1027.55 426.40 916.72 548.09 1074.60 529.04
00136086 00000163 735.68 139.76 397.59 550.93 881.85 368.46 1053.14 345.49 1028.20 426.89 916.97 547.99 1075.05 528.79
00136087 00000164 739.60 134.25 397.00 559.38 885.78 367.90 1063.10 355.31 1020.84 431.17 919.45 543.39 1083.03 533.63
00136088 00000165 739.78 135.02 395.68 560.26 886.60 371.81 1065.42 359.23 1020.87 432.14 916.56 543.27 1083.23 534.23
00136089 00000166 739.82 135.13 395.36 560.43 886.51 371.63 1065.25 358.88 1021.18 432.25 916.49 543.44 1083.20 534.28
