Video ID: 	385414AVZcA
H: 	2160
W: 	3840
FPS: 	23.976023976023978

FRAME INDEX X0 Y0 W H [Landmarks (5 Points)]

00003190 00000000 1408.07 377.22 1075.61 1423.59 1657.07 866.93 2194.01 822.67 1959.05 1185.21 1783.91 1458.25 2183.76 1418.57
00003191 00000001 1403.41 369.18 1075.01 1413.51 1655.83 854.67 2183.61 816.16 1945.67 1158.86 1784.62 1438.77 2168.43 1404.20
00003192 00000002 1399.32 366.36 1077.49 1407.49 1648.37 851.63 2176.64 815.02 1931.35 1148.24 1777.27 1429.67 2163.98 1396.08
00003193 00000003 1394.42 366.24 1088.81 1403.01 1641.04 883.20 2168.37 835.66 1924.69 1158.88 1777.11 1438.10 2162.15 1396.74
00003194 DELETE   1397.76 309.42 1091.19 1487.68 1621.59 903.85 2139.69 853.91 1886.68 1195.98 1744.14 1458.71 2146.78 1419.42
00003195 00000005 1380.98 347.03 1082.99 1458.98 1598.77 911.13 2120.56 860.01 1863.43 1220.68 1724.94 1477.57 2115.53 1436.32
00003196 00000006 1359.19 360.15 1082.47 1444.09 1577.94 907.18 2099.23 861.01 1843.63 1228.29 1707.25 1482.64 2085.94 1444.57
00003197 00000007 1354.36 369.09 1084.67 1426.16 1567.56 900.65 2087.44 852.34 1828.15 1229.38 1703.17 1475.66 2078.20 1435.34
00003198 00000008 1358.31 374.52 1095.12 1421.02 1573.18 905.75 2098.04 855.39 1836.55 1240.92 1712.38 1480.35 2090.88 1438.43
00003199 00000009 1364.18 406.95 1092.44 1422.02 1571.18 933.04 2099.85 880.45 1844.47 1264.44 1730.06 1512.73 2103.81 1468.12
00003200 00000010 1361.82 431.87 1110.25 1460.91 1580.30 950.93 2100.43 896.20 1849.73 1276.96 1743.41 1537.98 2114.60 1492.16
00003201 00000011 1356.40 414.12 1113.23 1490.93 1570.02 938.38 2091.34 881.20 1832.99 1257.13 1733.96 1541.22 2105.39 1493.87
00003202 00000012 1353.34 388.54 1111.41 1493.29 1569.92 915.72 2096.04 856.47 1835.01 1226.37 1727.25 1514.28 2104.39 1465.50
00003203 00000013 1356.64 386.83 1109.31 1468.76 1573.42 903.42 2099.59 841.33 1841.71 1206.66 1731.92 1496.24 2110.13 1444.59
00003204 00000014 1363.43 393.53 1098.93 1437.62 1577.32 902.98 2107.24 845.85 1848.91 1210.62 1731.74 1487.63 2110.64 1440.17
00003205 00000015 1373.78 385.08 1097.47 1441.73 1592.33 909.35 2117.78 854.47 1864.79 1228.06 1732.13 1492.02 2116.22 1447.05
00003206 00000016 1371.70 389.95 1091.54 1439.15 1592.51 909.60 2115.80 860.28 1863.34 1229.52 1725.63 1492.94 2104.04 1452.62
00003207 00000017 1369.11 382.28 1094.56 1440.05 1589.87 907.30 2114.23 856.36 1860.55 1228.83 1724.57 1489.28 2101.52 1447.88
00003208 00000018 1373.05 380.44 1098.65 1430.21 1590.98 900.77 2114.73 847.45 1859.67 1224.08 1731.37 1480.95 2107.13 1437.54
00003209 00000019 1376.78 375.27 1102.70 1425.83 1594.35 892.00 2113.59 833.47 1860.91 1213.58 1742.94 1467.96 2121.50 1420.43
00003210 00000020 1377.77 395.15 1101.77 1408.44 1595.87 888.32 2118.43 821.01 1870.01 1195.88 1765.65 1467.93 2139.32 1411.29
00003211 00000021 1388.70 394.75 1104.53 1413.12 1607.58 897.84 2130.69 824.87 1886.98 1200.80 1776.11 1466.56 2175.57 1403.69
00003212 00000022 1391.56 418.31 1105.83 1391.72 1612.51 903.67 2138.13 822.76 1901.83 1201.17 1787.67 1466.38 2193.92 1395.90
00003213 00000023 1390.89 416.75 1108.94 1408.95 1630.83 902.75 2148.83 813.03 1922.25 1183.69 1792.16 1464.32 2204.66 1381.95
00003214 00000024 1387.04 387.73 1107.35 1409.94 1621.94 878.82 2143.84 790.59 1917.32 1161.91 1801.37 1446.42 2205.38 1369.53
00003215 00000025 1384.27 372.16 1104.70 1413.32 1618.38 863.55 2135.57 777.28 1910.85 1141.94 1794.10 1428.35 2201.13 1352.17
00003216 00000026 1374.46 347.57 1116.38 1432.97 1609.72 849.52 2130.58 758.50 1898.12 1120.41 1781.59 1411.15 2196.39 1329.92
00003217 00000027 1367.93 334.25 1122.62 1430.44 1607.46 833.45 2117.43 735.91 1884.52 1080.76 1773.40 1388.39 2180.86 1300.66
00003218 00000028 1362.24 329.61 1130.08 1423.68 1599.13 811.49 2114.66 710.59 1871.55 1049.29 1760.82 1370.79 2167.63 1279.81
00003219 00000029 1355.12 333.76 1127.47 1410.08 1595.12 798.28 2110.77 698.10 1865.69 1031.90 1753.66 1362.23 2154.86 1271.89
00003220 00000030 1351.14 339.95 1128.35 1411.33 1588.09 791.77 2103.21 689.12 1852.04 1019.05 1748.35 1364.91 2144.40 1272.37
00003221 00000031 1344.35 337.74 1144.15 1435.09 1583.35 788.25 2096.60 682.56 1836.79 1005.69 1746.23 1383.21 2133.52 1288.99
00003222 00000032 1345.37 330.62 1145.19 1464.32 1585.01 783.67 2096.82 678.93 1832.76 1002.04 1754.03 1402.37 2128.51 1310.27
00003223 00000033 1353.24 316.98 1146.25 1469.01 1594.84 777.38 2109.17 676.32 1844.70 1000.81 1761.33 1392.53 2138.31 1303.76
00003224 00000034 1370.94 239.62 1120.18 1462.80 1590.92 742.18 2112.87 660.96 1851.26 980.72 1764.07 1322.42 2148.75 1255.88
00003225 00000035 1381.73 200.83 1116.01 1403.16 1614.04 702.07 2131.54 616.11 1872.01 902.57 1761.23 1245.68 2156.85 1170.40
00003226 00000036 1396.11 204.60 1082.02 1306.92 1610.26 658.55 2131.70 587.78 1861.76 843.17 1743.97 1162.68 2152.41 1104.64
00003227 00000037 1390.56 197.12 1073.14 1293.12 1603.52 640.68 2115.34 566.86 1848.35 811.37 1734.64 1143.86 2135.26 1081.34
00003228 00000038 1378.14 199.17 1079.79 1288.67 1583.29 646.54 2090.68 562.40 1827.09 807.86 1724.07 1146.94 2117.21 1074.60
00003229 DELETE   1362.41 182.06 1080.38 1309.69 1569.61 661.44 2065.17 556.51 1813.23 806.03 1710.04 1154.93 2097.21 1064.29
00003230 00000040 1335.22 184.35 1093.79 1308.58 1548.58 666.03 2040.27 547.87 1793.89 803.15 1704.64 1162.43 2078.43 1060.18
00003231 00000041 1310.96 190.00 1105.24 1322.87 1523.95 678.36 2019.75 547.11 1776.49 804.66 1694.72 1188.02 2067.45 1074.13
00003232 00000042 1311.17 203.88 1094.40 1320.05 1510.26 702.40 2012.85 581.50 1762.45 833.77 1681.13 1201.92 2049.95 1101.84
00003233 00000043 1303.30 170.96 1112.33 1384.75 1496.58 730.37 2006.96 591.59 1749.20 865.97 1666.60 1237.37 2063.27 1122.54
00003234 00000044 1274.93 227.63 1127.79 1370.88 1481.80 741.63 1997.37 605.81 1743.19 916.13 1676.94 1274.98 2075.61 1158.35
00003235 00000045 1263.27 228.93 1120.05 1394.85 1466.07 767.40 1976.18 629.72 1723.47 948.20 1663.49 1296.15 2059.36 1179.36
00003236 00000046 1252.35 266.63 1109.18 1366.75 1442.42 799.06 1952.69 660.90 1703.68 984.83 1641.38 1316.56 2036.62 1200.69
00003237 00000047 1237.41 321.01 1112.38 1327.43 1428.82 820.94 1934.01 691.07 1687.98 1009.00 1620.97 1328.07 2010.80 1220.14
00003238 00000048 1224.83 331.75 1129.17 1346.44 1426.96 838.82 1927.10 709.75 1687.74 1026.70 1621.83 1341.37 2019.78 1234.48
00003239 00000049 1222.31 316.95 1146.69 1392.77 1446.02 837.47 1940.99 709.67 1704.84 1047.53 1628.84 1354.91 2034.99 1241.84
00003240 00000050 1218.65 328.82 1151.12 1412.81 1446.51 856.63 1938.20 723.59 1711.91 1068.14 1633.70 1373.42 2047.49 1256.04
00003241 00000051 1216.17 358.33 1161.69 1423.83 1439.85 874.88 1937.65 736.34 1710.20 1092.62 1647.59 1404.72 2064.04 1280.22
00003242 00000052 1216.22 359.66 1162.64 1437.02 1441.91 875.08 1935.67 739.34 1709.33 1100.40 1656.63 1414.33 2062.01 1293.20
00003243 00000053 1212.65 359.77 1169.40 1462.26 1441.04 880.98 1934.61 742.65 1706.78 1106.42 1660.50 1430.51 2065.38 1308.00
00003244 00000054 1208.48 362.21 1173.31 1471.92 1437.21 884.79 1932.50 748.07 1703.95 1115.71 1661.35 1442.09 2063.30 1321.86
00003245 00000055 1206.85 361.92 1172.31 1477.31 1437.65 895.60 1926.45 759.63 1708.34 1133.41 1668.59 1452.12 2060.61 1333.28
00003246 00000056 1211.25 379.62 1163.32 1445.59 1435.31 911.57 1929.94 780.18 1712.27 1158.06 1663.45 1453.77 2059.55 1340.06
00003247 00000057 1216.81 416.71 1161.70 1408.87 1447.66 935.46 1945.70 792.98 1729.25 1175.02 1656.00 1467.18 2066.19 1340.76
00003248 00000058 1224.14 414.49 1140.30 1385.92 1433.46 920.45 1934.14 803.01 1712.63 1188.46 1648.37 1456.35 2044.76 1354.74
00003249 00000059 1226.67 416.64 1135.48 1383.56 1431.87 925.12 1933.77 809.38 1708.88 1192.82 1645.83 1464.50 2038.31 1365.43
00003250 00000060 1224.29 419.69 1133.44 1384.82 1431.17 928.34 1936.21 818.38 1707.96 1196.75 1640.19 1467.74 2033.61 1374.29
00003251 00000061 1224.49 423.85 1131.64 1380.43 1435.21 935.87 1937.01 825.67 1710.28 1205.46 1641.89 1471.64 2034.54 1377.98
00003252 00000062 1221.87 432.18 1135.73 1373.69 1434.41 942.71 1933.36 833.40 1706.48 1211.91 1640.21 1470.88 2035.07 1377.73
00003253 00000063 1219.62 433.80 1135.10 1372.24 1434.51 947.36 1930.90 838.46 1707.45 1219.63 1637.53 1470.62 2035.87 1377.85
00003254 00000064 1216.37 427.03 1135.70 1378.95 1433.15 954.28 1929.08 846.27 1706.48 1223.18 1631.99 1472.35 2033.03 1380.37
00003255 00000065 1214.25 427.27 1135.63 1381.87 1429.60 959.57 1926.30 848.95 1704.70 1227.50 1628.74 1475.03 2032.12 1381.26
00003256 00000066 1213.18 433.04 1134.47 1379.13 1426.33 966.03 1923.73 853.73 1702.02 1229.58 1622.58 1477.57 2031.62 1382.69
00003257 00000067 1213.43 439.16 1134.21 1373.37 1425.09 964.73 1923.19 853.36 1699.50 1228.85 1621.24 1477.23 2030.56 1383.25
00003258 00000068 1208.18 435.19 1141.09 1381.16 1422.82 962.32 1920.75 850.32 1696.31 1225.10 1620.00 1476.19 2028.61 1381.31
00003259 00000069 1209.77 441.78 1138.37 1379.50 1425.22 957.79 1921.46 843.56 1699.33 1225.18 1626.33 1477.19 2032.13 1380.52
00003260 00000070 1212.42 435.97 1144.81 1390.41 1428.27 957.36 1923.33 843.08 1699.28 1223.28 1631.10 1477.84 2035.44 1381.34
00003261 00000071 1215.42 443.68 1149.23 1379.17 1431.74 950.25 1926.24 835.91 1701.37 1216.18 1637.96 1472.49 2039.63 1375.31
00003262 00000072 1220.27 421.73 1144.80 1391.20 1435.74 939.93 1926.80 823.91 1704.75 1199.03 1644.13 1461.26 2043.14 1361.95
00003263 00000073 1217.20 430.55 1153.76 1392.18 1441.31 945.29 1943.69 807.32 1722.91 1187.87 1649.43 1471.84 2060.34 1347.42
00003264 00000074 1215.17 431.01 1154.12 1386.00 1441.34 943.98 1940.81 801.76 1722.83 1178.44 1650.58 1467.39 2059.62 1339.62
00003265 00000075 1213.78 428.99 1154.02 1381.91 1440.94 941.69 1938.93 795.46 1721.40 1168.22 1647.98 1464.28 2056.85 1333.24
00003266 00000076 1217.33 400.98 1150.19 1394.78 1427.83 920.84 1920.96 792.68 1698.38 1162.44 1643.08 1441.95 2046.66 1330.12
00003267 00000077 1219.27 393.27 1148.81 1406.72 1439.18 928.99 1932.46 791.58 1715.90 1158.43 1636.14 1436.77 2058.41 1316.05
00003268 00000078 1223.63 379.28 1143.66 1419.70 1449.37 920.98 1940.14 782.91 1730.94 1153.41 1651.60 1439.76 2063.27 1319.10
00003269 00000079 1227.87 386.14 1137.03 1398.34 1441.54 908.15 1942.86 776.67 1723.78 1153.05 1665.41 1454.46 2054.87 1340.50
00003270 00000080 1238.76 406.52 1123.35 1382.03 1462.36 923.25 1952.81 801.64 1738.34 1152.60 1672.90 1450.87 2059.70 1346.10
00003271 00000081 1248.97 390.59 1113.66 1399.99 1469.76 937.36 1953.77 814.93 1744.72 1156.23 1675.57 1453.62 2065.52 1350.28
00003272 00000082 1250.16 403.29 1116.28 1381.65 1467.42 929.71 1956.95 809.11 1740.40 1155.74 1671.30 1446.58 2065.91 1343.53
00003273 00000083 1249.77 394.10 1113.61 1388.29 1465.09 925.21 1955.00 797.74 1742.74 1152.72 1671.93 1443.07 2069.60 1333.70
00003274 00000084 1255.12 378.98 1118.17 1402.27 1468.60 910.86 1966.37 783.25 1747.79 1146.08 1675.64 1439.93 2077.43 1329.61
00003275 00000085 1263.48 368.57 1126.04 1407.66 1480.35 903.06 1981.77 770.70 1763.30 1139.66 1684.50 1434.25 2088.69 1319.42
00003276 00000086 1273.16 373.59 1126.33 1391.33 1491.19 901.17 1996.15 771.85 1779.62 1130.07 1687.74 1422.20 2102.69 1309.84
00003277 00000087 1272.51 373.78 1126.78 1388.48 1490.10 894.03 1992.52 764.42 1776.19 1127.33 1688.54 1418.32 2101.03 1305.33
00003278 00000088 1273.34 375.65 1123.45 1387.99 1484.49 889.71 1987.71 762.37 1763.69 1126.88 1684.63 1418.34 2095.53 1307.00
00003279 00000089 1274.31 375.72 1124.42 1394.40 1483.04 890.97 1986.10 765.36 1759.54 1133.73 1685.80 1423.38 2092.76 1313.87
00003280 00000090 1275.37 378.78 1123.43 1392.07 1486.10 893.73 1992.64 770.61 1769.49 1143.63 1688.77 1431.23 2094.28 1323.73
00003281 00000091 1283.45 374.11 1121.19 1396.98 1494.12 895.09 2005.05 771.68 1780.96 1145.75 1691.72 1433.16 2102.57 1326.44
00003282 00000092 1291.31 384.39 1118.12 1377.80 1506.22 897.95 2014.11 775.01 1791.52 1144.57 1700.19 1432.43 2105.30 1326.42
00003283 00000093 1295.17 385.87 1117.33 1373.75 1512.02 898.16 2018.52 778.37 1793.86 1143.86 1709.42 1438.60 2103.74 1335.56
00003284 00000094 1298.01 387.31 1122.50 1378.68 1517.77 899.99 2023.10 780.21 1794.71 1141.58 1718.58 1442.92 2104.15 1340.17
00003285 00000095 1297.58 395.11 1123.01 1390.55 1517.68 901.73 2024.74 782.82 1796.42 1151.50 1722.78 1456.53 2101.67 1355.45
00003286 00000096 1291.99 379.53 1134.24 1423.33 1523.82 906.76 2022.78 793.66 1808.69 1165.82 1722.91 1461.20 2110.96 1360.91
00003287 00000097 1299.52 389.08 1129.41 1407.99 1529.57 913.48 2030.00 801.83 1815.06 1168.28 1726.46 1459.47 2118.81 1359.95
00003288 00000098 1308.11 400.81 1123.68 1384.63 1537.08 915.38 2039.85 808.66 1822.17 1176.02 1728.10 1455.86 2121.20 1360.31
00003289 00000099 1317.98 400.53 1118.94 1379.40 1541.42 918.15 2048.62 812.10 1826.81 1186.06 1730.44 1457.26 2127.78 1362.77
00003290 00000100 1326.30 409.01 1115.55 1375.24 1544.19 919.68 2053.60 814.90 1829.23 1190.35 1732.41 1458.95 2132.98 1366.08
00003291 00000101 1328.01 412.30 1111.00 1379.91 1552.56 924.70 2055.93 834.50 1830.58 1192.69 1727.29 1456.94 2128.88 1378.31
00003292 00000102 1345.52 408.24 1098.68 1393.71 1563.32 942.37 2060.82 844.71 1836.54 1189.24 1736.95 1470.93 2130.70 1388.51
00003293 00000103 1360.52 391.98 1104.72 1420.81 1579.78 933.83 2085.09 843.46 1860.53 1203.67 1751.59 1468.60 2157.74 1391.94
00003294 00000104 1369.61 388.84 1100.61 1429.37 1586.07 929.95 2089.04 840.86 1865.92 1193.94 1749.81 1460.56 2166.12 1384.72
00003295 00000105 1374.02 333.39 1096.71 1476.74 1590.75 919.45 2082.91 831.23 1855.02 1155.29 1748.36 1453.69 2153.17 1379.74
00003296 00000106 1359.23 321.55 1094.51 1462.97 1585.33 888.83 2078.06 795.09 1845.90 1110.44 1742.34 1420.82 2130.40 1345.56
00003297 00000107 1359.45 282.77 1074.50 1433.42 1593.65 866.81 2078.90 778.74 1853.63 1073.65 1739.15 1382.84 2102.36 1313.52
00003298 00000108 1370.57 332.61 1072.07 1361.26 1596.88 859.19 2097.22 778.19 1863.42 1084.86 1749.07 1379.82 2114.95 1315.21
00003299 00000109 1380.16 365.91 1069.37 1356.21 1604.89 871.05 2113.14 795.85 1881.10 1125.53 1755.51 1402.06 2143.59 1340.81
00003300 00000110 1390.02 361.92 1072.88 1407.09 1621.20 877.71 2138.64 811.81 1908.79 1172.61 1774.16 1439.46 2159.42 1386.32
00003301 00000111 1390.41 360.93 1074.00 1417.26 1628.38 877.66 2146.85 816.19 1919.49 1180.81 1774.61 1446.93 2161.04 1397.91
00003302 00000112 1387.30 357.36 1073.60 1402.80 1636.75 865.69 2156.35 806.25 1931.32 1145.28 1784.87 1431.84 2169.17 1378.55
00003303 00000113 1403.66 335.54 1062.71 1433.05 1649.11 891.45 2150.27 819.33 1935.80 1128.14 1786.83 1420.44 2188.54 1361.45
00003304 00000114 1399.92 347.34 1074.76 1411.10 1659.88 877.66 2172.50 801.68 1958.83 1111.71 1812.69 1422.87 2200.92 1356.67
00003305 00000115 1413.43 354.50 1074.69 1413.19 1670.78 866.18 2200.23 796.40 1984.85 1124.55 1821.01 1435.37 2218.64 1374.62
00003306 DELETE   1430.40 359.83 1070.41 1417.13 1686.73 872.89 2222.23 807.10 2011.58 1145.36 1835.74 1453.24 2231.43 1396.70
00003307 DELETE   1448.41 366.22 1063.65 1416.90 1712.40 876.97 2244.29 816.58 2031.13 1157.57 1851.20 1457.71 2240.27 1404.45
00003308 00000118 1469.77 363.58 1056.27 1415.36 1737.08 875.07 2259.14 819.21 2048.56 1158.78 1869.87 1455.80 2249.66 1406.16
00003309 00000119 1495.41 346.45 1062.64 1451.38 1763.22 874.49 2278.18 825.48 2066.10 1166.41 1884.98 1438.90 2291.44 1396.95
00003310 00000120 1510.06 361.85 1062.59 1419.16 1782.15 866.61 2300.51 825.27 2090.73 1154.43 1892.59 1422.36 2310.93 1386.75
00003311 DELETE   1527.04 353.29 1057.44 1416.28 1808.51 859.61 2317.27 831.52 2110.96 1153.93 1901.12 1406.72 2318.44 1382.41
00003312 00000122 1537.26 351.28 1056.04 1418.39 1825.82 855.79 2332.57 832.68 2130.13 1155.92 1910.50 1399.74 2332.74 1379.45
00003313 00000123 1540.75 363.59 1055.12 1406.92 1834.35 843.04 2350.60 818.13 2150.51 1157.22 1935.93 1404.04 2343.24 1378.29
00003314 00000124 1541.05 368.43 1063.33 1408.36 1837.16 842.81 2356.14 820.27 2155.08 1153.14 1941.99 1408.27 2344.94 1384.93
00003315 00000125 1544.94 351.63 1060.64 1432.12 1842.97 832.96 2361.45 820.79 2159.72 1135.02 1942.24 1409.17 2337.25 1395.22
00003316 00000126 1542.16 344.59 1062.93 1442.04 1850.82 825.04 2365.54 816.06 2165.64 1127.56 1946.96 1410.35 2332.24 1399.36
00003317 00000127 1537.82 341.63 1070.81 1447.44 1853.55 826.23 2370.28 820.13 2168.69 1134.27 1940.85 1406.51 2335.67 1397.33
00003318 00000128 1535.11 340.83 1071.08 1446.33 1857.69 831.01 2377.83 825.44 2175.87 1145.92 1942.13 1411.93 2338.05 1403.07
00003319 00000129 1536.57 348.32 1075.31 1437.51 1867.47 851.95 2389.57 839.97 2189.35 1165.67 1946.47 1420.76 2351.54 1406.67
00003320 00000130 1539.31 338.19 1075.27 1455.67 1878.61 879.29 2389.74 860.76 2201.20 1173.39 1945.83 1422.27 2361.70 1402.97
00003321 00000131 1538.77 346.60 1083.34 1464.44 1883.75 870.09 2398.26 853.12 2207.31 1180.62 1950.45 1428.68 2367.68 1411.01
00003322 00000132 1548.24 373.21 1076.90 1446.97 1895.61 873.19 2402.38 856.83 2215.93 1171.27 1947.67 1429.40 2363.40 1410.86
00003323 00000133 1550.28 365.00 1087.07 1457.51 1906.79 850.47 2413.13 840.53 2227.49 1162.92 1956.92 1426.14 2364.48 1412.86
00003324 00000134 1562.07 346.73 1085.90 1467.38 1917.14 842.99 2419.89 839.60 2232.00 1151.35 1967.53 1415.81 2367.54 1407.98
00003325 00000135 1566.20 358.04 1087.45 1452.84 1926.64 832.77 2424.47 834.04 2239.79 1136.51 1977.14 1410.09 2366.75 1406.19
00003326 00000136 1569.08 368.45 1090.64 1447.02 1934.53 834.14 2431.98 841.23 2244.89 1142.65 1979.49 1407.04 2372.47 1407.77
00003327 00000137 1565.50 340.88 1085.22 1469.34 1933.20 829.98 2426.23 833.27 2241.96 1164.84 1977.10 1409.57 2375.01 1410.62
00003328 00000138 1590.29 345.91 1060.07 1459.47 1940.97 842.92 2439.58 852.63 2244.42 1165.25 1970.37 1404.93 2385.19 1411.95
00003329 00000139 1580.02 385.26 1078.60 1401.40 1949.00 855.10 2442.07 861.95 2254.17 1167.69 1986.07 1406.40 2377.36 1407.48
00003330 00000140 1587.76 355.31 1062.26 1428.27 1940.99 875.50 2436.04 871.62 2246.63 1171.09 1979.46 1406.53 2388.98 1402.23
00003331 00000141 1592.06 347.73 1059.44 1435.24 1946.94 872.50 2439.61 872.75 2249.57 1170.37 1984.64 1404.26 2390.79 1403.23
CROP_BBOX: 719 0 3147 2160
