Video ID: 	DkM7HXzBvqw
H: 	1080
W: 	1920
FPS: 	29.97002997002997

FRAME INDEX X0 Y0 W H [Landmarks (5 Points)]

00023508 00000000 1038.25 86.42 441.72 605.94 1132.58 307.54 1331.21 310.44 1208.76 396.91 1138.73 523.23 1313.67 525.41
00023509 00000001 1053.21 90.13 441.79 602.55 1144.60 307.19 1344.67 306.99 1220.70 394.28 1154.84 523.30 1332.27 522.04
00023510 00000002 1065.03 88.63 440.30 604.82 1155.90 304.83 1358.36 303.78 1234.08 393.34 1168.27 523.70 1349.66 521.22
00023511 00000003 1081.29 85.83 434.25 608.52 1173.77 308.58 1376.20 306.67 1252.12 392.00 1183.74 524.31 1362.18 521.57
00023512 00000004 1097.89 87.89 434.53 608.33 1191.87 308.28 1389.50 310.07 1265.60 392.49 1193.25 522.34 1365.73 524.86
00023513 00000005 1110.95 83.53 433.24 608.65 1203.45 302.88 1397.63 307.03 1273.92 391.00 1205.12 517.37 1377.00 521.23
00023514 00000006 1121.42 86.12 429.76 593.51 1211.58 294.95 1404.27 298.43 1280.51 380.53 1212.66 504.10 1384.18 507.25
00023515 00000007 1125.01 89.39 430.90 571.25 1217.61 281.17 1409.22 285.20 1282.88 353.76 1216.52 486.51 1384.99 490.90
00023516 DELETE   1124.18 77.65 426.01 574.00 1221.12 265.99 1412.41 270.10 1292.45 335.63 1219.60 471.22 1385.06 476.01
00023517 00000009 1124.48 58.90 431.03 575.17 1220.18 246.42 1422.68 257.30 1291.99 324.12 1213.28 463.54 1388.22 473.00
00023518 00000010 1123.87 58.64 429.42 566.16 1218.91 242.48 1418.42 251.52 1287.63 312.54 1211.71 455.16 1386.74 462.93
00023519 00000011 1120.34 59.97 430.29 560.53 1216.36 240.77 1414.16 246.82 1283.49 306.86 1208.35 448.89 1384.05 454.48
00023520 00000012 1116.66 59.97 430.06 559.65 1210.33 241.59 1408.66 244.59 1278.07 300.01 1201.93 447.77 1380.10 451.09
00023521 00000013 1113.20 61.76 431.63 559.99 1207.10 243.46 1403.93 245.47 1272.14 300.53 1195.47 449.43 1373.26 452.14
00023522 00000014 1109.74 60.37 433.16 565.68 1201.17 247.55 1399.25 245.15 1265.32 299.70 1190.12 453.49 1368.33 452.87
00023523 00000015 1104.02 59.63 433.27 565.84 1195.46 252.75 1391.61 247.32 1258.45 299.37 1186.59 456.04 1359.37 452.95
00023524 00000016 1102.21 62.17 426.13 558.11 1189.74 260.59 1387.09 264.28 1249.37 299.99 1180.57 457.73 1343.78 460.75
00023525 00000017 1093.59 64.05 428.65 540.81 1181.04 259.61 1382.32 265.82 1249.69 298.38 1180.20 450.66 1341.98 456.63
00023526 00000018 1081.83 64.76 429.37 506.50 1167.85 252.78 1374.31 253.20 1234.44 299.11 1172.65 438.78 1345.41 439.20
00023527 00000019 1076.35 66.32 435.80 496.65 1162.16 254.29 1367.48 253.63 1225.36 293.19 1165.67 437.93 1335.96 437.21
00023528 00000020 1072.94 66.04 438.27 495.51 1155.31 252.84 1360.21 252.64 1212.86 290.74 1153.56 438.78 1323.51 438.06
00023529 00000021 1073.44 63.79 440.97 496.20 1149.49 269.37 1344.46 262.23 1205.90 292.33 1146.95 437.98 1302.06 432.30
00023530 00000022 1061.89 62.70 447.59 502.07 1143.26 263.11 1328.62 254.39 1183.72 298.09 1128.26 445.09 1281.19 437.06
00023531 00000023 1052.41 61.52 445.59 512.79 1135.23 269.69 1311.44 258.89 1169.00 306.00 1114.46 452.51 1256.27 442.73
00023532 00000024 1043.34 70.19 438.60 512.49 1123.55 283.86 1298.51 276.84 1156.12 307.74 1107.89 448.64 1236.94 444.19
00023533 00000025 1037.61 66.57 435.14 515.92 1108.52 285.06 1279.27 275.71 1128.86 316.20 1089.05 451.57 1217.06 446.01
00023534 00000026 1030.95 68.69 430.25 529.79 1097.64 289.01 1267.60 283.93 1108.49 321.76 1067.34 459.52 1201.11 457.96
00023535 00000027 1022.06 68.77 434.28 540.68 1083.97 292.03 1251.96 288.93 1084.09 334.14 1053.39 468.32 1185.17 468.24
00023536 00000028 1019.65 75.38 425.22 533.74 1081.16 296.43 1237.86 300.19 1078.30 344.28 1051.93 468.72 1170.45 472.26
00023537 00000029 1017.57 81.53 417.88 534.64 1078.29 299.93 1237.26 306.00 1074.85 351.20 1049.75 476.63 1170.20 482.51
00023538 00000030 1017.93 81.52 414.48 534.83 1076.05 304.37 1236.41 308.83 1075.95 353.80 1051.07 478.64 1173.07 483.37
00023539 00000031 1018.11 82.04 416.49 532.84 1077.34 303.41 1239.35 309.09 1082.03 355.94 1054.80 477.45 1178.39 483.10
00023540 00000032 1017.15 83.66 421.52 536.99 1078.96 301.28 1244.43 307.73 1087.44 357.26 1057.03 478.64 1183.61 484.69
00023541 00000033 1016.06 83.82 425.70 539.88 1082.37 299.70 1251.41 307.41 1097.90 358.41 1062.50 479.74 1192.42 486.48
00023542 00000034 1016.97 81.51 426.89 542.57 1083.77 294.08 1263.56 300.85 1108.06 354.04 1064.44 479.29 1206.70 487.83
00023543 00000035 1020.74 79.96 427.33 543.10 1089.86 297.85 1269.94 300.94 1118.12 351.70 1072.68 480.57 1214.10 485.87
00023544 00000036 1024.83 83.73 426.43 542.48 1096.16 299.49 1278.39 298.75 1129.98 350.54 1079.85 483.66 1221.33 485.69
00023545 00000037 1027.19 85.76 427.77 546.67 1101.09 296.25 1286.54 296.89 1137.41 348.82 1084.69 484.98 1227.51 487.79
00023546 00000038 1028.30 87.24 429.66 544.31 1106.40 293.40 1296.08 296.48 1147.55 349.30 1090.20 484.03 1233.97 488.35
00023547 00000039 1036.32 88.42 424.21 543.12 1112.17 293.90 1305.60 295.76 1159.66 347.42 1100.99 484.72 1249.69 487.60
00023548 00000040 1036.20 87.57 431.46 549.40 1112.33 290.66 1307.54 291.75 1167.18 352.38 1111.36 490.75 1264.65 493.76
00023549 00000041 1038.94 88.15 436.78 559.71 1121.68 291.72 1317.00 294.06 1178.00 344.84 1123.53 495.33 1275.44 498.94
00023550 00000042 1044.42 91.27 426.56 549.35 1133.72 293.76 1327.05 284.43 1205.68 334.17 1131.40 495.61 1287.07 489.50
00023551 00000043 1045.68 91.57 429.31 533.57 1139.27 296.48 1330.70 288.13 1214.60 336.63 1140.96 490.50 1289.89 484.60
00023552 00000044 1047.85 92.82 431.28 524.04 1146.45 297.03 1338.38 290.51 1223.06 341.57 1150.09 487.83 1296.52 483.13
00023553 00000045 1049.62 91.57 434.88 524.18 1148.65 296.94 1343.75 292.37 1225.47 341.78 1151.74 486.51 1303.00 483.24
00023554 00000046 1051.57 95.20 432.59 523.28 1147.91 298.77 1342.59 295.00 1223.73 347.63 1150.59 489.30 1299.99 486.64
00023555 00000047 1051.98 96.26 429.14 525.99 1144.86 301.77 1337.60 298.64 1216.54 350.53 1143.93 492.53 1292.15 490.63
00023556 00000048 1049.48 98.49 429.87 534.09 1138.08 303.89 1329.16 299.89 1206.34 352.33 1134.91 497.86 1283.09 495.74
00023557 00000049 1045.86 97.47 431.18 555.77 1130.04 304.40 1317.75 299.49 1187.87 361.22 1121.18 505.83 1261.53 504.14
00023558 00000050 1039.25 95.76 434.50 562.12 1122.59 305.33 1303.53 303.17 1169.55 370.31 1109.03 505.06 1240.23 505.97
00023559 00000051 1029.09 95.70 436.85 564.73 1109.35 309.72 1286.79 309.43 1149.19 375.74 1091.16 507.30 1220.82 509.87
00023560 00000052 1021.33 96.31 435.35 561.75 1097.44 312.76 1274.49 318.22 1134.29 380.87 1077.32 508.61 1207.49 515.58
00023561 00000053 1019.93 96.76 435.28 560.21 1091.40 309.58 1266.71 321.08 1118.49 387.54 1069.35 506.87 1199.78 518.41
00023562 00000054 1011.01 98.80 435.73 558.26 1085.39 305.15 1265.13 322.55 1109.22 388.25 1064.45 504.48 1207.72 519.91
00023563 00000055 1010.77 101.27 434.08 560.05 1084.12 306.19 1263.63 325.10 1105.03 394.06 1061.62 508.35 1204.72 524.96
00023564 00000056 1010.19 103.65 428.71 558.44 1083.00 310.44 1260.61 330.82 1104.07 399.62 1060.46 512.38 1200.56 530.40
00023565 00000057 1008.25 104.30 428.59 563.46 1082.22 314.88 1261.12 336.66 1106.61 406.36 1060.03 516.29 1200.25 535.60
00023566 00000058 1007.56 104.92 428.60 566.14 1083.95 320.02 1265.86 340.27 1114.28 410.09 1064.05 521.71 1205.39 539.85
00023567 00000059 1007.36 105.77 429.33 568.55 1085.12 324.72 1268.45 343.77 1119.47 414.54 1067.74 526.38 1210.52 543.39
00023568 00000060 1007.49 109.12 427.98 568.66 1086.36 326.79 1269.78 346.26 1123.28 418.19 1069.98 528.54 1213.99 545.62
00023569 00000061 1005.83 110.56 428.91 568.83 1084.99 328.67 1269.90 348.53 1123.70 420.60 1069.55 531.63 1214.03 548.88
00023570 00000062 1001.09 114.18 429.43 567.28 1080.63 329.92 1264.91 348.09 1119.09 421.88 1065.95 533.54 1208.55 549.50
00023571 00000063 995.09 115.95 429.71 566.27 1075.25 329.43 1258.57 348.56 1112.83 425.31 1060.62 533.84 1203.12 550.35
00023572 00000064 991.49 115.88 428.47 568.05 1069.58 328.47 1250.99 348.03 1104.37 428.99 1055.14 535.67 1194.61 552.39
00023573 00000065 984.82 114.99 428.96 570.36 1064.26 328.52 1244.02 348.50 1097.07 429.60 1047.22 536.49 1182.40 553.56
00023574 00000066 981.44 113.78 428.47 571.72 1062.15 328.38 1239.57 349.03 1093.63 428.64 1042.75 534.72 1176.58 552.28
00023575 00000067 979.37 112.13 426.75 572.94 1059.77 329.34 1235.10 349.18 1090.42 426.58 1038.49 533.45 1172.34 550.37
00023576 00000068 980.67 106.74 424.90 574.92 1055.83 326.93 1230.93 345.63 1082.11 421.54 1035.01 530.45 1170.27 546.45
00023577 00000069 979.71 104.98 425.73 574.36 1051.77 323.33 1228.06 340.42 1076.12 417.91 1030.25 528.33 1167.07 543.09
00023578 00000070 977.53 102.70 428.54 575.30 1050.02 319.68 1228.29 337.24 1074.08 414.62 1028.03 525.16 1167.36 540.40
00023579 00000071 977.72 100.72 420.88 577.80 1046.10 321.32 1222.98 337.88 1065.68 405.52 1026.54 523.81 1166.49 538.99
00023580 00000072 979.28 102.21 426.47 573.80 1049.49 313.21 1230.67 328.80 1077.59 408.41 1030.60 522.16 1176.21 535.98
00023581 00000073 979.75 101.71 428.33 571.16 1051.43 313.62 1235.58 326.62 1084.72 404.31 1035.45 522.42 1183.04 534.24
00023582 00000074 981.07 101.59 427.56 566.86 1053.32 314.79 1238.94 324.01 1092.31 399.70 1041.08 521.58 1190.49 530.44
00023583 00000075 982.01 101.05 426.30 563.38 1057.36 314.31 1242.25 323.71 1100.96 396.94 1046.29 519.65 1197.45 528.71
00023584 00000076 980.12 102.34 428.66 557.95 1059.25 318.16 1244.02 324.82 1107.60 392.42 1050.99 518.54 1205.82 525.06
00023585 00000077 978.46 104.06 430.67 553.25 1062.66 322.07 1248.70 327.72 1116.55 387.68 1056.68 516.38 1214.96 521.62
00023586 00000078 977.34 102.80 432.70 552.36 1066.22 321.13 1255.93 326.65 1127.07 385.51 1063.12 515.88 1223.56 520.55
00023587 00000079 978.77 104.59 433.22 549.02 1069.92 321.14 1262.67 324.45 1135.78 387.70 1069.75 516.14 1233.85 518.75
00023588 00000080 980.89 105.15 431.94 548.12 1073.73 316.42 1270.30 319.60 1144.49 385.75 1075.39 515.16 1243.34 517.62
00023589 00000081 980.72 107.86 435.49 547.32 1075.29 311.89 1278.32 314.08 1150.17 379.75 1080.06 516.20 1250.62 517.59
00023590 00000082 983.17 105.21 435.03 552.93 1077.66 309.25 1284.78 310.14 1158.91 378.36 1087.97 516.61 1261.82 516.84
00023591 00000083 984.82 102.36 435.99 555.98 1082.45 308.60 1292.27 311.27 1170.01 377.77 1095.76 517.48 1271.28 519.04
00023592 00000084 986.15 105.38 436.67 553.35 1086.78 308.76 1297.18 310.84 1178.23 376.29 1103.23 517.28 1278.07 518.30
00023593 00000085 988.20 107.14 435.17 551.33 1092.17 308.65 1300.51 311.88 1184.29 376.06 1109.36 515.92 1281.10 518.00
00023594 00000086 990.45 105.58 433.73 552.98 1096.37 308.89 1305.07 312.68 1190.79 375.73 1113.30 516.38 1284.58 518.91
00023595 00000087 990.65 106.97 433.64 551.52 1098.13 309.70 1306.71 314.04 1193.37 377.71 1115.42 516.66 1285.84 519.68
00023596 00000088 990.56 107.38 432.77 550.77 1098.01 310.57 1307.34 314.82 1194.69 380.87 1115.71 518.38 1286.97 521.23
00023597 00000089 987.90 107.46 433.59 552.33 1096.51 310.93 1306.69 316.18 1193.26 383.26 1113.64 519.43 1285.37 523.00
00023598 00000090 985.85 108.07 432.80 552.22 1094.00 310.20 1303.88 315.76 1189.66 385.66 1111.13 520.92 1281.16 524.81
00023599 00000091 980.76 107.41 433.83 555.53 1086.73 310.77 1299.38 316.03 1183.61 387.81 1104.25 521.20 1278.90 524.82
00023600 00000092 979.48 108.10 431.30 552.48 1081.59 312.49 1291.32 315.85 1174.15 389.25 1098.55 521.97 1270.90 524.11
00023601 00000093 975.32 109.70 429.99 551.14 1075.21 314.16 1282.71 316.86 1163.93 391.68 1088.39 521.88 1258.58 523.88
00023602 00000094 971.90 108.81 427.64 552.49 1070.80 312.29 1274.38 318.50 1155.08 394.95 1077.78 519.95 1244.80 525.42
00023603 00000095 967.08 109.61 429.92 551.71 1064.48 313.34 1267.57 317.95 1147.53 396.03 1070.57 520.54 1239.57 524.65
00023604 00000096 961.66 109.00 431.95 552.05 1053.38 315.62 1256.34 315.57 1134.00 396.56 1061.97 521.74 1226.19 521.95
00023605 00000097 949.33 105.67 435.02 559.82 1041.83 317.17 1244.78 320.27 1113.45 395.05 1048.35 525.74 1201.04 529.51
00023606 00000098 940.12 102.50 429.57 559.48 1027.24 312.71 1231.18 314.11 1098.90 393.96 1035.14 521.92 1201.46 522.68
00023607 00000099 930.69 103.57 438.47 563.07 1016.90 314.67 1219.38 315.09 1085.35 391.54 1024.39 522.51 1190.46 522.55
00023608 00000100 928.31 102.58 436.25 566.89 1009.48 314.25 1207.02 315.72 1071.58 395.32 1012.69 523.52 1173.66 525.06
00023609 00000101 926.66 106.38 431.83 562.56 1002.52 323.42 1194.06 323.10 1057.41 400.55 1003.84 526.51 1161.66 526.54
00023610 00000102 917.97 110.87 432.69 553.80 995.65 332.52 1179.28 333.72 1044.52 402.99 997.18 526.28 1146.92 527.49
00023611 00000103 908.48 100.57 434.44 567.39 983.56 337.31 1166.17 333.37 1022.40 402.48 988.92 530.91 1126.60 528.13
00023612 00000104 902.40 98.82 431.66 568.36 971.17 337.43 1155.01 331.31 1007.24 400.87 973.99 532.93 1112.40 528.93
00023613 00000105 894.79 102.14 430.32 561.99 958.16 333.00 1139.55 328.36 990.14 400.37 955.93 528.94 1094.42 526.47
00023614 00000106 885.02 100.54 434.58 569.97 951.16 335.32 1128.56 331.04 977.30 399.41 948.21 529.30 1082.72 527.06
00023615 00000107 873.26 101.58 440.03 577.74 944.11 331.30 1119.11 332.19 966.61 401.58 938.95 528.92 1072.58 530.78
00023616 00000108 866.54 103.89 431.56 576.99 936.28 330.64 1105.13 335.38 951.15 401.39 929.98 528.72 1058.25 533.67
00023617 00000109 860.05 105.91 425.99 561.37 926.35 335.36 1095.22 335.39 940.47 401.94 920.62 530.49 1042.96 531.71
00023618 00000110 854.70 107.51 422.13 551.02 922.44 336.18 1092.76 336.35 937.16 402.50 913.26 528.54 1037.72 530.25
00023619 00000111 857.03 112.31 418.32 546.75 914.91 337.29 1085.50 338.24 942.40 403.70 904.32 529.89 1030.65 531.99
00023620 00000112 847.09 117.72 427.17 571.39 923.82 347.37 1096.63 350.37 947.43 415.79 916.26 543.52 1036.54 547.39
00023621 00000113 849.94 124.35 426.83 573.28 928.04 355.23 1103.05 356.61 959.64 421.08 924.97 552.41 1043.38 554.43
00023622 00000114 853.11 126.39 433.07 576.53 930.37 360.71 1110.17 360.23 972.83 431.00 935.92 562.11 1055.03 562.07
00023623 00000115 855.87 129.17 437.05 580.06 935.32 362.21 1117.98 360.82 985.29 435.63 944.53 565.25 1066.83 564.60
00023624 00000116 863.68 139.77 421.94 566.25 935.87 363.20 1122.20 360.10 994.20 443.76 945.31 565.73 1084.07 564.51
00023625 00000117 863.98 137.95 426.08 573.10 940.14 364.61 1131.41 357.34 1006.20 448.87 957.85 573.32 1097.56 567.91
00023626 00000118 866.27 135.16 428.51 579.59 948.87 365.74 1146.06 355.81 1022.51 450.23 971.10 577.79 1116.72 569.07
00023627 00000119 870.53 125.54 432.02 591.09 961.77 367.21 1157.82 359.86 1039.33 452.68 983.02 572.48 1127.07 567.66
00023628 00000120 879.64 129.38 427.57 578.83 968.47 368.26 1167.04 358.93 1049.96 455.55 992.81 571.92 1143.23 565.60
00023629 00000121 886.07 130.85 425.52 571.98 975.10 367.04 1176.74 358.57 1059.24 454.87 997.02 567.57 1157.25 561.76
00023630 00000122 890.08 126.81 425.83 573.82 981.03 364.55 1182.96 360.05 1065.35 454.94 1001.01 563.57 1165.92 560.43
00023631 00000123 891.76 126.52 427.89 579.94 983.69 364.15 1184.67 360.14 1068.25 454.26 1003.14 565.15 1168.58 562.41
00023632 00000124 892.08 126.29 428.79 594.49 983.94 364.56 1179.81 358.65 1064.52 452.88 1003.40 569.69 1165.47 565.84
00023633 00000125 889.99 126.72 427.96 601.97 978.25 365.32 1172.73 357.96 1055.74 454.33 996.79 573.30 1157.23 568.47
00023634 00000126 884.32 123.70 429.08 597.65 966.99 364.79 1164.00 356.55 1043.94 453.71 987.94 574.81 1140.36 569.37
00023635 00000127 883.18 121.00 425.84 591.82 955.90 363.90 1148.54 355.34 1023.41 452.37 974.21 570.96 1116.92 564.86
00023636 00000128 869.49 125.37 433.97 591.90 943.22 365.53 1132.36 362.42 1000.29 448.29 959.62 572.49 1091.65 570.58
00023637 00000129 865.42 134.65 423.25 576.36 935.18 366.22 1120.30 360.49 990.28 446.18 944.50 568.19 1086.71 564.41
00023638 00000130 863.03 133.87 421.85 569.39 931.03 364.32 1115.71 361.30 983.63 444.86 936.93 561.56 1081.62 560.28
00023639 00000131 864.47 125.85 430.69 580.98 938.94 367.52 1114.15 367.48 982.60 439.13 946.27 559.38 1071.88 559.47
00023640 00000132 864.75 125.41 431.51 583.43 942.01 367.07 1117.25 365.89 987.28 437.25 950.23 559.75 1075.38 558.94
00023641 00000133 864.12 123.00 433.83 580.47 940.59 362.43 1123.57 360.95 993.89 439.52 952.34 558.62 1083.17 557.49
00023642 00000134 860.13 127.22 425.93 564.98 932.31 357.53 1122.87 347.18 994.54 437.37 947.85 560.40 1095.80 552.04
00023643 00000135 856.38 123.50 424.92 565.87 933.54 347.87 1121.47 345.92 989.72 434.92 942.51 552.58 1090.51 551.78
00023644 00000136 849.06 121.40 429.53 563.20 925.48 347.51 1111.10 344.38 980.10 433.31 935.85 550.09 1080.81 548.00
00023645 00000137 831.74 119.82 435.24 573.20 908.31 344.06 1097.49 345.53 960.62 439.16 914.13 552.84 1055.87 554.59
00023646 00000138 818.97 111.85 436.75 584.05 891.46 349.70 1074.56 342.55 943.07 435.42 896.80 556.29 1024.24 551.25
00023647 00000139 799.66 118.79 442.19 587.09 870.65 353.51 1051.23 347.26 912.28 431.31 877.54 564.59 995.50 560.40
00023648 00000140 787.85 123.86 435.34 585.83 855.95 356.84 1031.31 352.37 889.01 435.86 861.63 567.11 978.63 564.16
00023649 00000141 771.63 118.85 431.95 589.50 826.27 355.78 998.05 352.68 854.99 438.22 823.52 565.66 945.51 564.86
00023650 00000142 758.71 121.15 432.58 595.53 815.02 358.84 982.52 353.83 838.65 442.34 812.75 567.71 936.98 564.02
00023651 00000143 747.26 126.08 438.78 595.25 801.64 360.48 970.93 360.77 823.23 450.52 801.69 575.01 924.64 576.47
00023652 00000144 735.51 133.68 439.62 591.15 794.09 367.16 963.47 367.90 820.81 456.14 798.71 578.95 924.56 580.15
00023653 00000145 730.99 139.17 438.40 587.89 790.01 372.91 962.46 371.02 821.15 459.71 799.77 583.32 928.75 582.10
00023654 00000146 728.55 143.23 439.23 586.56 789.96 379.28 965.07 373.31 827.46 463.51 804.14 588.82 935.71 584.16
00023655 00000147 730.43 142.97 439.82 590.12 792.25 383.75 970.95 376.78 835.25 469.97 810.00 591.68 946.10 586.13
00023656 00000148 739.03 144.62 433.90 589.07 797.78 386.91 980.56 376.77 844.94 474.49 818.83 597.48 958.01 589.46
00023657 00000149 739.19 145.57 438.59 588.49 805.30 385.05 998.85 371.31 858.81 476.45 828.19 599.96 969.44 590.41
00023658 00000150 750.39 143.21 431.02 592.64 812.76 391.53 1001.58 375.49 870.82 478.34 842.16 602.77 984.28 589.52
00023659 00000151 750.87 143.48 431.37 596.54 815.68 392.93 1005.06 376.20 877.37 481.24 848.20 605.91 989.34 592.01
00023660 00000152 745.74 157.33 434.27 586.53 816.65 395.39 1007.55 378.31 886.57 488.33 846.18 609.77 992.56 596.35
00023661 00000153 747.52 144.24 435.39 606.69 814.12 396.27 1001.97 380.23 875.18 485.81 844.32 609.99 988.48 596.88
00023662 00000154 741.32 147.22 441.31 608.59 804.98 400.80 994.21 385.08 862.21 491.10 833.35 614.81 978.18 602.42
00023663 00000155 731.80 153.39 442.74 605.78 799.65 406.43 984.26 391.42 852.16 496.54 823.79 618.03 966.23 606.29
00023664 00000156 721.33 154.59 450.72 609.46 792.59 406.10 975.63 394.54 840.39 499.57 815.42 619.04 955.16 609.92
00023665 00000157 718.23 167.76 426.41 593.88 781.26 403.32 955.36 398.95 821.74 501.51 797.47 616.28 942.84 611.74
00023666 00000158 707.42 171.32 429.75 594.77 767.06 406.68 943.32 402.07 808.09 509.96 784.40 622.23 929.62 617.37
00023667 00000159 700.72 169.78 425.11 592.66 757.26 407.44 932.27 404.85 795.70 512.14 772.42 621.09 912.61 617.95
00023668 00000160 693.44 170.22 426.82 590.93 750.42 408.54 925.68 403.63 788.88 511.52 764.89 621.02 901.26 616.44
00023669 00000161 689.86 170.79 428.39 592.70 746.19 409.27 919.84 402.16 782.67 510.63 761.22 621.98 897.59 615.67
00023670 00000162 689.30 160.97 428.46 606.44 743.08 408.44 917.01 400.27 776.40 504.53 758.32 622.57 892.61 617.33
00023671 00000163 688.91 160.13 430.01 608.30 742.62 408.13 916.38 397.63 776.77 502.85 760.48 622.83 894.56 615.64
00023672 00000164 685.96 169.13 433.41 601.60 742.41 409.70 919.94 396.03 781.63 506.44 762.62 626.39 902.53 614.70
00023673 00000165 691.39 158.85 429.69 608.01 744.77 409.70 921.07 395.86 782.45 501.36 764.76 626.72 896.72 617.01
