Video ID: 	J8oxIvEGIdY
H: 	2160
W: 	3840
FPS: 	23.976023976023978

FRAME INDEX X0 Y0 W H [Landmarks (5 Points)]

00007916 00000000 1562.17 357.75 457.92 619.37 1710.09 599.32 1907.63 619.18 1811.81 694.70 1706.95 807.37 1877.14 823.99
00007917 DELETE   1564.44 353.53 461.33 629.91 1717.31 599.53 1916.82 623.51 1819.10 696.38 1710.30 808.23 1881.65 828.68
00007918 DELETE   1567.46 354.16 462.99 635.23 1722.38 599.27 1923.18 625.81 1824.06 698.21 1713.72 809.15 1884.92 831.68
00007919 00000003 1567.70 355.69 463.98 639.71 1723.38 599.90 1923.32 625.72 1824.61 698.17 1714.61 810.00 1886.23 831.99
00007920 DELETE   1566.53 354.02 462.35 643.11 1720.67 600.43 1918.84 625.45 1820.80 697.69 1712.13 810.14 1883.02 831.59
00007921 DELETE   1562.79 354.99 463.26 644.17 1715.06 602.08 1911.29 625.03 1813.64 698.16 1708.11 811.92 1878.10 831.54
00007922 00000006 1559.01 358.27 462.24 640.31 1709.66 603.82 1904.31 625.27 1807.35 700.68 1704.48 813.05 1872.40 831.20
00007923 00000007 1554.03 357.66 464.87 640.86 1707.14 608.44 1899.03 628.16 1804.63 698.71 1712.29 815.39 1861.88 831.43
00007924 00000008 1550.04 357.89 463.92 631.80 1704.93 611.30 1892.05 627.15 1801.38 699.41 1715.98 812.09 1854.20 824.55
00007925 00000009 1544.12 354.19 465.04 630.74 1701.24 612.02 1886.64 626.54 1797.64 699.24 1713.40 810.17 1849.13 821.33
00007926 DELETE   1536.22 352.85 468.08 632.71 1693.33 614.48 1879.61 627.60 1790.36 701.96 1704.53 812.28 1844.35 822.16
00007927 00000011 1526.80 358.49 473.57 620.88 1677.13 615.90 1870.71 629.40 1775.71 709.25 1683.90 813.16 1835.30 823.28
00007928 DELETE   1519.85 362.85 470.81 621.36 1659.34 615.01 1857.84 628.42 1755.38 709.37 1666.43 817.22 1823.40 827.72
00007929 DELETE   1510.10 354.20 470.43 643.03 1646.47 609.40 1849.09 618.65 1742.86 702.52 1650.66 820.43 1813.95 828.32
00007930 DELETE   1501.88 346.82 471.77 648.68 1638.54 610.58 1841.32 618.73 1734.14 704.09 1640.13 822.12 1805.42 829.54
00007931 00000015 1497.19 349.09 471.19 641.95 1630.65 613.49 1832.83 617.79 1727.96 702.09 1637.68 822.26 1798.58 826.78
00007932 00000016 1493.84 348.15 469.38 629.26 1624.40 613.30 1823.61 614.82 1720.95 699.72 1637.88 815.87 1787.63 818.33
00007933 DELETE   1492.61 344.07 463.06 623.29 1619.45 610.76 1814.15 609.02 1715.08 694.50 1636.74 809.88 1781.49 809.93
00007934 00000018 1488.83 341.99 463.99 616.92 1613.00 608.44 1808.67 607.43 1708.77 689.73 1630.51 805.76 1774.80 806.74
00007935 00000019 1484.74 346.81 465.35 611.53 1609.42 604.61 1808.98 607.15 1706.03 688.43 1627.26 800.55 1779.72 804.35
00007936 00000020 1483.44 346.53 465.72 613.62 1605.38 603.59 1807.52 605.27 1702.97 684.96 1621.88 800.65 1781.16 804.03
00007937 00000021 1485.48 345.25 461.90 615.66 1607.19 609.82 1807.53 604.69 1703.04 685.80 1623.43 811.18 1785.33 806.44
00007938 00000022 1487.15 344.93 461.33 616.87 1609.82 612.93 1809.87 605.35 1707.94 688.87 1630.77 814.41 1789.61 807.57
00007939 00000023 1489.07 347.56 463.25 610.72 1614.17 615.55 1812.41 606.86 1713.36 694.37 1635.98 813.55 1795.30 805.55
00007940 00000024 1490.98 350.47 464.41 608.46 1617.39 617.33 1815.95 609.74 1717.26 699.86 1641.15 814.67 1797.61 807.37
00007941 00000025 1494.56 349.82 465.41 615.40 1625.00 616.33 1821.11 610.75 1724.68 701.85 1647.68 815.52 1792.16 812.17
00007942 00000026 1495.47 350.09 469.28 627.40 1628.68 618.85 1825.57 614.17 1727.89 703.97 1653.70 822.86 1792.05 820.22
00007943 00000027 1497.49 348.33 472.13 639.09 1633.38 622.28 1829.82 618.40 1732.66 706.46 1658.04 827.76 1796.26 825.68
00007944 00000028 1499.43 347.55 474.34 638.91 1637.39 623.55 1835.93 620.49 1739.33 706.50 1662.26 828.32 1803.35 826.91
00007945 00000029 1501.41 348.42 474.34 626.24 1641.04 622.95 1840.40 621.15 1744.77 708.50 1665.53 825.41 1808.28 824.94
00007946 00000030 1504.02 350.35 472.28 621.13 1642.49 624.19 1842.36 622.46 1746.87 713.04 1663.70 824.64 1816.30 823.97
00007947 00000031 1504.86 350.32 470.75 622.92 1642.10 623.14 1843.75 621.38 1747.00 714.20 1660.60 825.45 1820.66 824.58
00007948 00000032 1501.77 347.82 472.70 649.96 1641.75 620.46 1844.72 618.98 1747.38 707.97 1657.95 831.34 1819.56 830.73
00007949 00000033 1501.01 347.43 473.50 655.47 1641.28 617.42 1845.26 616.93 1747.24 704.68 1656.28 831.90 1817.00 832.09
00007950 00000034 1500.68 344.97 474.27 653.67 1638.67 616.80 1845.69 614.93 1746.16 702.56 1655.82 829.70 1816.50 828.90
00007951 00000035 1504.97 348.08 467.57 637.77 1639.01 605.85 1843.42 603.40 1744.95 690.23 1655.21 815.56 1812.45 813.94
00007952 DELETE   1508.93 345.59 461.13 616.02 1636.24 589.60 1835.71 588.46 1736.26 667.54 1651.03 795.62 1814.11 793.26
00007953 00000037 1506.78 338.81 465.53 610.99 1637.73 567.88 1838.34 571.78 1735.30 651.44 1646.42 781.52 1808.38 783.76
00007954 DELETE   1504.64 325.80 467.98 605.67 1638.26 553.13 1838.35 562.52 1731.52 627.56 1644.65 762.82 1798.04 769.83
00007955 00000039 1506.58 315.30 466.17 596.47 1638.58 533.19 1833.61 546.80 1730.82 605.40 1643.91 742.35 1783.67 753.49
00007956 00000040 1507.80 310.20 459.48 580.93 1637.77 518.35 1834.92 534.63 1732.10 590.68 1644.00 721.94 1779.40 734.64
00007957 00000041 1511.50 296.72 447.28 576.80 1637.71 509.48 1833.65 525.42 1728.65 573.47 1644.43 703.03 1783.88 718.49
00007958 00000042 1514.08 287.95 445.82 580.93 1636.70 504.25 1836.42 516.48 1730.36 562.25 1644.15 699.83 1786.52 713.05
00007959 00000043 1516.38 286.39 445.70 584.46 1638.88 499.45 1840.36 512.41 1733.31 555.21 1645.05 697.40 1793.57 711.74
00007960 00000044 1517.15 285.71 448.71 588.78 1641.13 497.03 1841.60 509.51 1734.75 554.88 1647.45 695.54 1798.44 709.46
00007961 00000045 1519.02 285.91 446.77 591.60 1641.53 497.85 1840.95 508.81 1735.55 549.32 1650.90 695.48 1799.29 708.33
00007962 00000046 1517.21 283.80 446.03 588.92 1639.01 499.69 1839.66 507.84 1733.95 545.37 1648.04 691.34 1802.38 701.55
00007963 00000047 1515.73 282.82 447.57 587.82 1635.71 498.33 1838.79 504.75 1732.51 544.27 1645.13 690.24 1804.64 699.05
00007964 00000048 1513.62 280.96 447.17 594.55 1633.16 499.95 1837.38 505.14 1729.46 548.44 1640.57 694.82 1803.78 702.87
00007965 00000049 1515.73 286.85 447.69 601.15 1633.05 500.61 1836.18 505.38 1726.82 557.94 1644.07 706.68 1802.68 714.46
00007966 00000050 1514.56 281.61 448.00 595.90 1631.78 503.43 1836.80 508.74 1727.76 562.16 1642.21 704.41 1803.71 712.49
00007967 00000051 1511.54 288.47 452.44 569.61 1634.03 510.07 1836.56 516.53 1727.21 571.18 1641.58 700.97 1806.51 705.10
00007968 00000052 1506.94 290.67 457.06 568.07 1630.02 511.31 1835.99 520.43 1731.00 571.31 1639.02 695.83 1795.58 704.53
00007969 00000053 1505.45 291.76 459.37 568.66 1631.58 512.37 1836.87 524.68 1730.05 575.43 1636.44 696.73 1792.40 708.01
00007970 00000054 1504.74 295.10 460.36 570.44 1632.80 512.69 1837.49 530.31 1728.24 583.10 1629.18 701.86 1790.70 717.19
00007971 00000055 1506.39 301.49 463.27 573.96 1637.48 513.74 1838.14 535.57 1729.71 588.89 1631.49 709.10 1787.05 726.97
00007972 00000056 1511.70 303.52 457.57 580.52 1641.62 516.23 1840.33 537.44 1731.58 593.37 1638.81 720.05 1785.44 737.07
00007973 00000057 1514.39 307.32 458.22 579.21 1645.43 519.67 1844.72 541.94 1737.11 597.56 1642.21 724.80 1789.08 742.58
00007974 DELETE   1512.46 308.25 464.11 577.97 1647.06 521.37 1848.84 544.53 1742.12 597.56 1642.23 725.26 1792.57 743.88
00007975 00000059 1514.20 311.48 465.01 580.93 1650.33 522.71 1851.98 547.04 1744.53 599.08 1645.20 728.52 1794.63 748.01
00007976 00000060 1515.94 313.15 464.54 581.39 1651.83 520.97 1855.14 546.63 1746.49 600.22 1647.70 727.36 1798.79 747.77
00007977 00000061 1517.39 310.14 463.76 583.68 1654.25 520.86 1856.51 546.95 1748.61 599.01 1649.05 725.76 1800.09 746.65
00007978 00000062 1518.00 309.06 463.22 584.77 1653.05 520.60 1855.50 545.52 1746.77 599.20 1648.16 725.19 1801.41 745.01
00007979 00000063 1516.93 310.13 461.97 602.65 1649.92 521.37 1853.50 543.78 1742.81 597.48 1646.24 734.81 1801.81 752.37
00007980 00000064 1514.53 311.30 463.25 612.11 1647.46 522.23 1851.23 543.40 1738.59 599.18 1642.79 741.01 1801.71 757.47
00007981 00000065 1513.10 313.14 463.70 614.77 1645.25 525.71 1848.15 545.45 1736.35 601.90 1642.46 745.91 1800.99 761.15
00007982 00000066 1511.17 314.33 464.63 613.85 1642.40 529.17 1843.55 546.74 1732.18 605.20 1641.34 747.81 1798.75 761.46
00007983 00000067 1511.38 309.41 463.36 608.15 1641.60 532.05 1841.51 547.74 1732.64 608.49 1638.30 744.50 1798.30 757.37
00007984 00000068 1509.62 311.68 465.28 609.00 1639.67 536.85 1838.23 549.94 1730.21 613.24 1637.29 746.97 1797.57 757.90
00007985 00000069 1507.64 315.08 465.88 610.91 1636.11 540.70 1834.27 550.55 1726.90 613.43 1638.63 753.66 1793.86 761.98
00007986 00000070 1509.06 312.73 463.18 602.85 1633.64 541.39 1832.30 550.26 1722.94 614.32 1631.88 746.12 1795.39 753.80
00007987 00000071 1508.36 311.67 462.73 602.82 1633.35 535.15 1832.34 545.81 1722.33 610.92 1630.85 742.67 1794.55 751.64
00007988 00000072 1505.85 314.18 464.74 611.61 1631.59 531.12 1831.88 542.75 1721.71 603.30 1633.21 746.14 1789.35 755.66
00007989 00000073 1507.31 312.14 463.97 606.72 1632.46 528.30 1833.99 541.68 1722.85 602.45 1632.29 742.46 1791.21 753.44
00007990 00000074 1510.13 307.19 461.12 591.73 1633.60 525.10 1833.34 540.61 1722.59 600.71 1629.24 730.14 1788.47 743.16
00007991 00000075 1508.45 302.90 463.79 584.52 1633.71 521.71 1831.90 539.72 1721.25 597.98 1625.24 721.11 1783.75 736.27
00007992 00000076 1509.04 301.20 462.99 577.07 1635.71 519.20 1832.48 538.33 1722.55 594.11 1626.19 712.93 1781.82 729.11
00007993 00000077 1509.68 301.68 464.85 576.99 1637.83 518.16 1834.82 538.95 1725.63 594.74 1629.43 711.91 1781.86 729.16
00007994 00000078 1510.81 301.75 466.38 577.22 1643.33 519.36 1838.51 541.85 1731.73 597.37 1635.13 710.81 1782.75 729.24
00007995 00000079 1512.40 302.42 469.07 582.29 1648.84 521.31 1841.87 546.01 1735.56 600.83 1641.33 716.00 1780.81 735.92
00007996 00000080 1512.24 304.91 472.06 590.31 1652.80 524.69 1845.00 551.03 1738.10 605.24 1644.88 723.36 1781.40 744.46
00007997 00000081 1515.45 310.26 466.86 604.61 1649.35 539.95 1844.02 557.47 1740.97 610.21 1649.55 732.97 1777.46 750.43
00007998 00000082 1517.88 310.48 466.10 607.06 1652.66 538.16 1848.56 559.75 1740.92 612.01 1643.93 733.36 1779.16 754.01
00007999 00000083 1517.26 312.12 474.36 602.96 1662.55 523.04 1855.58 560.60 1739.15 614.95 1640.74 730.39 1788.64 760.68
00008000 00000084 1528.15 306.73 471.98 611.64 1671.71 522.13 1865.79 565.44 1742.25 614.22 1641.75 732.02 1795.75 767.57
00008001 00000085 1537.09 316.36 466.72 618.36 1679.81 530.78 1874.59 569.38 1751.88 610.94 1648.12 734.79 1793.99 770.05
00008002 00000086 1548.73 321.39 469.20 595.23 1689.79 535.71 1873.45 576.91 1755.41 624.30 1661.51 737.42 1807.95 771.92
00008003 00000087 1559.81 320.72 469.51 585.43 1699.58 538.01 1883.54 580.40 1765.33 630.71 1669.68 729.99 1817.73 765.95
00008004 DELETE   1570.10 322.84 472.08 580.06 1710.04 538.44 1897.15 585.82 1775.16 635.58 1682.05 730.44 1824.47 769.97
00008005 00000089 1581.71 320.98 475.16 591.50 1721.08 538.77 1915.34 588.08 1789.91 637.68 1696.49 738.52 1840.68 779.60
00008006 00000090 1583.11 327.30 486.33 596.33 1738.11 548.75 1927.70 603.63 1802.97 646.20 1699.36 748.53 1844.58 792.75
00008007 00000091 1593.91 337.85 488.29 618.56 1752.43 557.12 1941.14 614.81 1816.56 654.21 1709.32 765.99 1857.14 812.90
00008008 00000092 1603.19 343.69 490.20 638.63 1758.99 560.40 1957.58 615.59 1830.27 666.73 1716.98 778.32 1868.97 825.02
00008009 00000093 1613.46 340.22 483.94 642.05 1764.14 561.95 1963.85 617.85 1837.69 668.37 1724.46 779.52 1879.29 827.56
00008010 00000094 1618.17 338.77 478.87 629.26 1765.64 563.71 1965.92 617.86 1842.40 670.40 1727.63 776.02 1885.05 822.67
00008011 00000095 1619.19 338.97 477.17 624.31 1762.95 566.48 1964.41 616.03 1840.92 669.33 1727.65 777.25 1885.73 820.17
00008012 DELETE   1616.60 340.75 476.77 626.43 1758.49 569.79 1959.76 614.73 1838.19 667.86 1726.57 777.48 1886.24 816.69
00008013 DELETE   1609.74 342.30 479.17 622.25 1752.19 570.13 1956.88 613.23 1834.51 667.95 1721.15 776.64 1886.05 814.34
00008014 DELETE   1601.93 338.03 479.87 630.52 1744.41 568.40 1951.47 609.25 1829.46 668.18 1717.74 776.52 1883.52 812.21
00008015 00000099 1596.79 327.59 481.15 637.85 1738.28 567.98 1933.35 601.89 1815.35 664.07 1717.59 779.10 1877.71 806.98
00008016 00000100 1587.76 328.41 480.64 623.96 1727.12 564.65 1925.18 593.62 1807.69 662.57 1714.46 772.39 1875.76 796.13
00008017 00000101 1583.74 330.07 478.22 612.92 1718.61 562.52 1916.89 589.55 1801.03 659.09 1709.91 770.78 1868.87 792.91
00008018 00000102 1581.15 328.13 478.52 608.94 1718.10 562.05 1914.89 588.59 1801.67 657.91 1712.28 767.30 1862.80 788.66
00008019 00000103 1578.67 330.15 479.02 602.16 1717.50 559.64 1916.27 590.30 1802.28 659.05 1708.98 762.37 1860.30 786.71
00008020 00000104 1576.65 332.99 476.89 600.19 1715.20 557.72 1915.01 589.28 1801.42 656.92 1707.80 765.42 1858.17 790.30
00008021 00000105 1574.67 334.53 472.20 598.45 1713.88 556.62 1912.81 587.64 1800.33 656.28 1705.48 768.26 1859.10 792.83
00008022 00000106 1572.41 331.11 470.32 603.00 1711.52 556.13 1914.60 588.33 1799.42 655.32 1701.61 767.02 1860.55 793.56
00008023 00000107 1569.69 331.76 470.57 602.95 1709.29 554.09 1912.01 586.69 1796.45 655.87 1697.39 765.49 1859.16 792.32
00008024 00000108 1568.62 331.98 468.71 600.92 1704.00 559.10 1909.17 588.54 1793.27 656.04 1692.02 764.54 1860.01 789.66
00008025 00000109 1568.72 332.04 465.18 602.54 1701.58 560.28 1905.42 589.11 1788.85 654.12 1688.43 763.05 1857.74 788.14
00008026 00000110 1567.24 330.29 464.55 607.32 1701.76 555.43 1903.58 584.73 1787.50 648.29 1688.04 761.71 1854.92 786.97
00008027 00000111 1566.59 327.35 463.17 613.69 1703.34 546.49 1902.83 580.41 1784.78 640.30 1684.92 757.29 1850.71 786.35
00008028 00000112 1565.36 323.24 464.19 598.35 1698.36 542.60 1900.71 580.07 1780.02 637.03 1679.11 747.46 1844.48 779.59
00008029 00000113 1562.64 318.39 467.30 597.36 1697.10 538.90 1897.86 580.14 1775.99 630.94 1674.85 738.84 1839.55 774.65
00008030 00000114 1562.42 312.89 468.94 603.69 1697.92 537.08 1894.73 579.71 1772.25 627.82 1674.32 741.79 1829.18 778.22
00008031 00000115 1563.13 313.13 469.33 592.53 1697.83 536.54 1897.31 578.59 1773.03 626.10 1671.94 735.67 1831.29 771.86
00008032 00000116 1565.29 310.40 468.73 589.27 1698.08 533.53 1900.16 575.40 1774.59 622.11 1672.59 730.25 1836.11 766.75
00008033 00000117 1569.90 310.41 465.92 601.17 1701.48 528.53 1902.07 571.56 1778.23 618.08 1680.49 736.41 1837.65 773.48
00008034 00000118 1572.17 308.51 466.67 605.97 1702.64 526.30 1907.17 570.47 1782.84 617.33 1681.77 737.71 1844.25 775.90
00008035 00000119 1574.23 306.77 468.20 603.97 1703.78 525.15 1911.66 569.41 1784.92 615.54 1682.11 735.57 1848.20 774.07
00008036 00000120 1574.42 306.37 469.99 602.71 1704.52 525.88 1915.42 569.45 1786.86 617.44 1680.31 734.43 1853.65 772.80
00008037 00000121 1575.25 307.31 469.74 600.87 1704.86 526.66 1917.18 568.98 1788.67 617.70 1683.00 735.57 1855.42 772.74
00008038 00000122 1575.74 306.59 469.04 602.05 1705.25 525.91 1917.20 567.69 1789.09 617.14 1683.57 736.49 1856.11 773.10
00008039 00000123 1575.60 305.81 468.37 599.50 1706.00 520.45 1917.63 563.33 1788.79 612.12 1682.26 732.08 1854.71 769.64
00008040 00000124 1575.11 303.53 465.27 598.50 1704.78 517.40 1913.73 558.98 1786.33 606.28 1682.19 726.70 1852.07 763.33
00008041 00000125 1572.81 303.08 465.62 596.14 1702.43 516.45 1911.15 559.03 1782.80 603.93 1678.84 723.86 1848.57 761.52
00008042 00000126 1571.73 304.86 465.42 597.41 1702.33 518.23 1909.31 561.49 1781.78 608.04 1678.06 726.61 1847.80 764.58
00008043 00000127 1571.29 308.05 463.90 599.69 1701.26 521.84 1907.40 565.73 1780.32 613.65 1675.90 731.42 1848.20 769.84
00008044 00000128 1569.78 309.52 465.35 604.96 1701.40 525.37 1907.74 570.33 1781.22 620.07 1676.31 736.00 1847.25 775.02
00008045 00000129 1568.28 313.66 467.12 603.75 1702.44 529.63 1908.48 573.76 1783.63 624.92 1678.75 740.17 1847.25 778.15
00008046 00000130 1568.24 318.18 467.11 602.04 1703.18 533.56 1909.31 575.50 1785.31 628.67 1680.48 743.36 1849.17 779.44
00008047 00000131 1567.83 319.99 469.52 603.33 1703.60 535.89 1910.59 576.80 1786.21 632.41 1681.61 746.15 1851.29 781.46
00008048 00000132 1569.29 320.80 469.91 609.29 1706.07 538.02 1914.06 578.03 1789.61 633.98 1682.75 750.08 1855.79 784.99
00008049 DELETE   1569.16 322.23 470.21 625.51 1708.66 543.39 1913.00 581.04 1792.63 636.39 1686.43 755.89 1859.68 788.86
00008050 00000134 1571.45 321.39 468.25 629.61 1709.89 546.08 1911.98 584.68 1792.57 636.33 1686.35 755.90 1861.09 790.22
00008051 00000135 1571.31 318.93 470.44 621.20 1705.65 543.16 1912.62 582.80 1789.36 633.89 1683.82 752.49 1857.67 787.55
00008052 00000136 1573.79 315.21 470.32 605.47 1703.95 538.93 1916.28 580.98 1789.24 628.92 1681.75 747.52 1856.61 784.51
00008053 00000137 1573.35 316.68 473.85 598.31 1713.87 537.02 1918.54 577.87 1795.40 629.10 1683.16 745.82 1859.09 779.67
00008054 00000138 1573.20 318.39 472.72 595.96 1712.69 538.12 1917.73 577.41 1795.78 631.06 1684.54 746.50 1860.44 779.07
00008055 00000139 1572.00 319.29 469.07 597.50 1706.49 540.09 1910.15 575.82 1788.30 631.31 1680.77 750.04 1855.59 779.79
00008056 00000140 1570.19 320.62 467.08 600.06 1697.91 542.01 1904.95 579.37 1780.94 635.40 1678.76 751.01 1848.95 783.44
00008057 00000141 1568.42 320.63 466.96 603.78 1697.82 542.28 1899.21 579.74 1776.49 635.28 1680.99 751.67 1840.62 783.67
00008058 00000142 1564.69 321.17 470.09 597.93 1695.82 543.48 1897.84 579.31 1775.18 633.90 1678.24 746.40 1841.57 777.65
00008059 00000143 1563.50 319.25 467.55 610.22 1698.83 541.02 1895.25 579.51 1775.05 631.16 1680.07 747.99 1837.43 780.96
00008060 00000144 1557.28 317.84 465.17 624.99 1693.07 537.04 1894.55 573.68 1773.61 628.44 1669.95 746.65 1822.44 779.90
00008061 00000145 1552.56 315.69 462.02 627.95 1686.98 536.59 1886.46 572.31 1765.60 624.54 1662.47 744.82 1815.65 777.48
00008062 00000146 1543.31 315.48 463.46 631.80 1678.74 538.34 1876.25 570.27 1757.62 622.94 1659.51 743.70 1806.59 773.31
00008063 00000147 1536.13 314.08 466.97 614.43 1673.53 537.34 1861.30 570.17 1745.38 621.47 1656.10 742.12 1799.63 769.45
00008064 00000148 1527.15 313.34 472.49 609.26 1664.43 537.59 1853.94 566.55 1741.04 618.94 1651.89 738.13 1792.04 761.93
00008065 00000149 1522.49 313.49 475.32 602.08 1660.93 538.19 1848.42 566.15 1736.92 620.67 1649.40 737.23 1786.01 759.97
00008066 00000150 1523.27 311.13 472.92 603.54 1660.08 538.06 1847.00 566.09 1734.14 619.39 1647.11 739.12 1784.38 762.09
00008067 00000151 1526.39 308.88 470.25 612.70 1661.06 535.96 1847.99 564.55 1733.06 619.76 1646.49 744.57 1783.68 768.14
00008068 00000152 1531.61 309.87 466.75 602.79 1662.88 539.12 1852.44 568.44 1736.03 625.39 1647.27 743.22 1792.27 767.30
00008069 00000153 1537.46 311.70 467.54 597.74 1668.90 540.26 1857.94 571.66 1740.23 627.00 1651.01 739.80 1797.51 765.83
00008070 00000154 1545.98 312.41 465.87 598.45 1675.39 544.40 1863.76 575.60 1744.63 629.62 1657.91 742.64 1803.03 769.00
00008071 00000155 1552.83 318.94 464.94 592.13 1679.81 547.31 1870.35 578.62 1749.73 635.85 1661.87 744.94 1812.69 771.56
00008072 00000156 1561.57 319.98 464.44 594.05 1688.60 548.58 1879.15 579.77 1759.81 637.07 1672.22 746.08 1823.45 772.95
00008073 00000157 1567.57 320.16 466.89 595.33 1696.13 546.23 1890.05 579.60 1770.04 636.46 1680.60 746.01 1833.25 774.91
00008074 00000158 1568.58 318.55 469.48 597.69 1702.92 542.39 1896.02 576.38 1776.10 631.26 1682.06 747.88 1835.27 775.25
00008075 00000159 1571.43 318.62 469.35 603.12 1707.32 541.03 1898.37 577.51 1779.73 628.81 1686.73 748.23 1835.06 777.31
00008076 00000160 1571.51 318.07 470.27 607.02 1709.03 540.39 1899.99 577.12 1780.69 627.52 1687.94 753.18 1833.02 782.55
00008077 00000161 1570.31 316.71 471.19 606.94 1708.50 538.72 1900.46 577.02 1780.08 628.69 1684.99 751.34 1832.94 782.09
00008078 00000162 1568.47 316.61 471.10 608.28 1705.79 537.00 1899.32 575.72 1777.99 630.15 1681.01 749.24 1834.73 780.39
