Video ID: 	kDaAK9BbuRI
H: 	1080
W: 	1920
FPS: 	25.0

FRAME INDEX X0 Y0 W H [Landmarks (5 Points)]

00003312 00000000 908.34 183.99 422.61 549.49 1004.10 416.89 1175.17 397.67 1088.88 522.32 1057.77 611.38 1182.45 595.34
00003313 00000001 903.07 189.03 426.28 545.21 1001.40 420.72 1177.11 394.88 1093.90 525.74 1064.11 614.27 1191.86 592.69
00003314 00000002 903.25 188.62 428.30 546.44 1003.49 426.44 1180.76 395.51 1100.44 523.71 1066.57 614.03 1203.19 587.75
00003315 00000003 903.80 184.30 427.01 554.71 1000.89 424.10 1178.20 394.84 1095.93 526.18 1064.28 617.57 1200.32 592.94
00003316 00000004 901.64 183.84 427.34 556.60 995.04 423.10 1170.59 396.01 1084.57 524.90 1053.78 616.60 1190.95 593.63
00003317 00000005 897.11 182.68 432.43 550.66 987.38 425.70 1166.02 393.19 1078.26 520.64 1047.25 614.44 1192.30 587.40
00003318 00000006 895.26 182.35 433.48 549.04 987.94 425.67 1168.82 391.51 1082.88 522.98 1050.47 613.71 1197.48 585.12
00003319 00000007 895.30 180.02 430.20 551.37 990.72 424.00 1171.92 388.51 1089.79 522.72 1055.52 612.60 1200.68 583.17
00003320 00000008 896.00 180.90 429.49 551.58 991.04 422.41 1171.29 387.54 1089.32 522.50 1058.21 614.52 1197.44 585.75
00003321 00000009 894.23 182.91 431.70 547.78 986.78 425.05 1167.42 388.49 1084.17 521.98 1052.83 614.94 1195.83 584.62
00003322 00000010 892.97 180.76 428.86 549.61 985.25 424.50 1164.09 391.31 1080.88 520.42 1044.67 609.84 1190.81 582.28
00003323 00000011 893.66 182.77 427.61 547.56 987.73 425.19 1165.94 388.80 1085.35 519.95 1051.29 612.47 1195.71 582.30
00003324 00000012 893.97 177.05 431.95 559.70 990.60 422.86 1172.12 387.51 1090.83 521.72 1059.04 617.10 1199.96 588.17
00003325 00000013 899.65 181.34 429.37 557.39 1000.45 424.87 1180.10 394.88 1097.12 519.47 1062.10 617.00 1197.56 592.60
00003326 00000014 903.54 178.28 425.33 555.04 1009.70 426.30 1184.43 398.90 1106.11 518.11 1062.70 609.13 1203.58 586.61
00003327 00000015 901.29 177.04 426.66 549.67 1008.41 428.39 1187.67 399.08 1107.72 515.20 1059.21 606.66 1207.72 583.27
00003328 00000016 902.68 178.96 424.70 545.82 1009.30 426.82 1189.53 398.28 1109.55 511.46 1060.48 605.36 1209.86 582.82
00003329 00000017 904.53 181.88 424.78 540.90 1014.40 425.42 1192.77 397.31 1115.26 508.68 1067.33 604.57 1212.13 581.76
00003330 00000018 907.75 182.07 422.26 535.77 1016.75 422.14 1195.01 395.69 1117.20 505.53 1070.40 602.21 1213.46 580.49
00003331 DELETE   910.47 179.07 419.14 537.86 1020.06 420.47 1197.04 394.20 1121.57 502.99 1072.88 598.35 1216.88 576.74
00003332 DELETE   911.94 177.89 420.45 537.61 1023.90 417.73 1200.69 391.47 1125.69 502.02 1078.61 599.75 1218.26 578.47
00003333 00000021 917.99 179.47 417.47 536.89 1028.53 414.92 1204.13 390.53 1129.37 500.75 1081.16 599.20 1220.63 579.07
00003334 00000022 921.55 177.92 414.85 538.26 1033.48 413.43 1206.95 387.82 1135.29 498.02 1087.14 598.06 1225.24 576.75
00003335 00000023 923.33 172.73 413.59 543.39 1036.50 410.58 1210.71 385.00 1140.70 495.72 1089.97 596.82 1228.70 575.10
00003336 00000024 927.74 172.31 410.82 542.63 1038.78 407.86 1212.88 381.91 1142.28 492.81 1090.29 593.89 1231.11 571.32
00003337 00000025 928.36 168.51 410.36 544.88 1039.10 405.73 1213.56 381.76 1141.93 490.25 1088.83 592.81 1229.33 571.63
00003338 00000026 929.02 168.05 408.88 545.04 1037.72 404.95 1213.73 381.02 1141.15 490.30 1086.22 591.90 1229.76 570.98
00003339 00000027 926.61 167.37 412.16 546.36 1037.08 404.60 1210.28 381.38 1138.66 489.83 1085.27 591.66 1225.24 571.36
00003340 00000028 925.92 168.02 411.39 546.94 1036.63 402.79 1207.66 380.81 1136.48 489.75 1084.49 590.56 1221.10 571.35
00003341 00000029 925.46 164.61 413.38 547.38 1033.11 404.32 1210.42 377.15 1138.44 487.98 1081.60 588.20 1229.84 565.06
00003342 00000030 925.12 162.91 411.63 543.07 1033.44 403.91 1213.72 375.52 1142.96 484.61 1081.60 585.22 1234.82 560.93
00003343 00000031 925.65 161.68 412.95 550.27 1034.65 402.08 1214.35 372.81 1144.12 482.13 1087.85 589.59 1235.54 563.99
00003344 00000032 926.64 164.48 412.91 549.20 1036.88 405.73 1213.25 376.88 1142.66 485.23 1089.56 591.54 1233.97 566.05
00003345 00000033 924.22 167.59 412.21 551.16 1036.00 406.18 1210.66 380.11 1139.93 493.05 1084.06 590.89 1229.77 568.65
00003346 00000034 921.22 171.54 413.67 546.96 1033.72 406.89 1208.98 382.79 1137.62 497.79 1079.40 590.47 1226.88 570.61
00003347 00000035 922.05 171.77 414.37 546.39 1033.92 407.68 1212.50 381.79 1140.01 495.53 1083.48 593.75 1230.94 572.11
00003348 00000036 923.48 167.63 414.44 548.89 1037.87 405.94 1213.58 378.25 1143.76 488.26 1091.42 593.83 1232.28 569.62
00003349 00000037 925.64 163.86 413.91 547.41 1039.41 403.57 1218.58 372.35 1149.50 485.48 1094.96 593.45 1237.93 565.66
00003350 00000038 927.14 159.97 412.24 545.56 1038.76 400.90 1219.29 368.96 1150.18 484.04 1092.50 590.21 1238.29 562.06
00003351 00000039 927.91 160.07 410.04 544.08 1036.30 397.84 1217.03 369.92 1145.14 483.74 1087.53 589.87 1232.47 565.45
00003352 00000040 927.29 159.64 409.93 546.40 1036.43 396.55 1216.06 370.15 1144.60 483.74 1088.56 591.56 1230.57 568.29
00003353 00000041 929.07 160.64 409.38 541.35 1037.57 397.55 1218.01 367.90 1146.81 481.42 1091.92 591.61 1233.27 565.39
00003354 00000042 930.31 158.91 407.54 541.99 1039.24 400.94 1218.57 366.49 1149.67 479.30 1095.24 588.05 1239.10 557.63
00003355 00000043 929.01 158.83 406.76 538.07 1040.09 400.39 1216.61 366.05 1150.45 479.69 1095.30 586.29 1235.46 556.26
00003356 00000044 928.88 162.85 404.90 535.57 1038.39 402.51 1210.96 376.14 1142.20 479.96 1090.48 584.36 1226.05 560.97
00003357 00000045 925.21 161.29 406.14 541.84 1035.11 401.70 1207.46 380.23 1137.41 485.00 1084.63 586.65 1220.74 567.76
00003358 00000046 923.13 165.15 406.10 539.21 1032.87 398.96 1204.10 379.24 1133.61 483.30 1079.49 582.84 1217.09 565.68
00003359 00000047 924.82 157.33 404.44 545.53 1036.12 397.85 1205.17 374.43 1139.43 478.44 1087.33 582.50 1221.96 562.06
00003360 00000048 929.19 156.15 399.90 538.41 1040.48 395.46 1206.79 365.71 1145.95 469.62 1095.31 578.83 1226.66 553.20
00003361 00000049 930.05 157.14 399.48 536.04 1042.01 389.47 1207.38 361.51 1145.38 464.96 1094.40 575.31 1222.98 551.30
00003362 00000050 928.51 157.86 400.08 536.00 1039.01 385.97 1204.62 362.17 1140.01 464.97 1088.03 571.01 1214.01 550.87
00003363 00000051 927.60 157.25 403.11 538.76 1033.02 388.46 1206.56 364.04 1135.55 469.68 1082.76 578.86 1216.85 557.57
00003364 DELETE   928.02 152.04 401.64 548.04 1035.70 393.28 1207.69 366.56 1140.77 474.27 1088.10 583.67 1224.63 560.04
00003365 DELETE   929.39 156.00 407.60 550.56 1043.95 395.65 1216.23 367.91 1151.31 471.82 1101.52 587.08 1235.09 561.96
00003366 00000054 932.07 159.10 408.26 551.84 1051.36 397.66 1223.33 367.11 1163.05 475.99 1109.83 588.28 1244.73 560.89
00003367 00000055 932.19 160.54 410.05 548.82 1050.42 397.74 1226.17 367.12 1162.74 481.01 1104.70 584.30 1247.87 556.85
00003368 00000056 931.42 157.80 410.19 548.65 1047.90 397.73 1228.85 370.16 1161.46 483.83 1094.25 581.08 1248.27 556.60
00003369 00000057 931.91 158.68 410.35 547.60 1046.16 396.91 1229.12 371.85 1158.64 481.46 1090.08 580.88 1246.63 558.43
00003370 00000058 934.51 156.58 408.89 548.48 1048.35 395.90 1228.95 368.36 1161.22 482.11 1098.25 584.41 1248.62 559.62
00003371 00000059 936.65 158.75 407.90 547.56 1053.69 394.03 1229.99 366.36 1165.94 480.06 1106.67 584.94 1248.88 559.97
00003372 00000060 937.05 158.30 405.20 548.30 1056.81 393.62 1229.30 368.48 1167.99 478.37 1108.25 584.75 1245.53 562.21
00003373 00000061 935.27 160.66 408.83 550.39 1056.01 394.48 1229.13 370.99 1166.38 482.27 1106.11 587.08 1244.06 565.69
00003374 00000062 932.16 162.17 412.32 551.96 1053.57 395.25 1227.15 372.14 1163.40 483.65 1104.33 589.94 1241.66 568.66
00003375 00000063 931.24 161.80 411.61 550.70 1051.83 394.53 1224.52 371.99 1161.04 482.07 1102.23 588.17 1239.06 567.42
00003376 00000064 934.86 158.48 404.88 545.17 1051.98 390.84 1224.85 364.96 1161.66 474.75 1103.98 583.08 1240.87 559.82
00003377 00000065 935.32 156.97 403.01 539.22 1050.47 386.74 1225.02 359.37 1160.67 466.33 1100.54 578.02 1239.22 553.90
00003378 00000066 934.75 154.04 403.17 539.66 1045.86 380.52 1220.99 357.56 1152.97 459.00 1095.25 578.32 1230.40 557.77
00003379 DELETE   929.97 151.67 407.67 538.61 1032.97 380.00 1215.57 357.77 1136.58 462.26 1079.32 578.70 1222.01 558.38
00003380 DELETE   920.78 153.31 408.70 537.91 1021.19 383.59 1205.62 361.08 1121.70 467.43 1062.38 576.42 1214.35 556.73
00003381 DELETE   921.25 154.91 407.26 546.61 1019.99 388.89 1202.94 366.37 1121.16 472.21 1064.50 581.80 1216.38 561.96
00003382 00000070 922.23 166.01 406.39 545.63 1025.95 393.00 1200.74 367.56 1125.36 479.85 1075.81 587.11 1216.89 565.04
00003383 00000071 922.37 160.18 406.46 544.55 1026.51 395.58 1203.41 368.26 1131.39 481.35 1072.26 580.12 1224.17 556.74
00003384 00000072 923.99 157.19 406.80 543.81 1027.00 392.28 1205.71 365.76 1130.89 476.46 1068.49 574.23 1225.96 551.60
00003385 00000073 922.44 156.94 408.06 541.13 1026.16 387.27 1205.72 362.64 1128.48 473.34 1066.81 573.53 1221.38 552.75
00003386 00000074 922.19 159.40 406.62 540.78 1028.08 384.34 1202.60 362.37 1126.76 470.94 1071.10 574.20 1211.67 555.80
00003387 00000075 923.41 157.74 406.08 543.82 1030.43 385.34 1204.00 363.30 1129.88 473.00 1074.12 576.25 1214.02 557.64
00003388 00000076 925.03 156.17 403.20 546.41 1030.90 387.22 1203.74 364.53 1132.14 474.80 1077.69 581.22 1215.64 561.84
00003389 00000077 924.59 158.65 406.11 546.53 1029.85 389.46 1204.03 366.64 1131.58 477.69 1078.24 584.91 1216.95 565.23
00003390 00000078 924.32 159.83 407.34 546.02 1029.71 390.94 1204.10 369.09 1130.82 480.15 1077.40 585.82 1216.08 566.91
00003391 00000079 924.34 160.28 407.43 544.85 1031.15 389.66 1204.63 368.52 1131.85 479.40 1078.45 585.29 1214.58 567.08
00003392 00000080 924.58 160.67 407.19 543.74 1031.67 389.13 1205.27 367.23 1132.58 478.02 1079.12 584.58 1216.18 565.71
00003393 00000081 924.49 159.12 406.37 543.39 1031.15 389.10 1205.37 366.71 1132.74 478.29 1079.36 584.64 1215.88 565.40
00003394 00000082 924.28 157.99 408.61 542.90 1029.93 390.35 1207.23 366.84 1133.12 479.81 1078.87 585.84 1219.21 565.29
00003395 00000083 925.00 157.38 410.07 547.11 1031.83 392.73 1211.10 371.11 1135.74 482.50 1080.19 588.13 1221.95 568.85
00003396 00000084 924.38 160.44 410.15 548.52 1032.54 395.97 1212.19 375.41 1136.77 483.81 1079.75 589.56 1223.29 571.13
00003397 00000085 924.49 158.84 411.58 551.74 1035.05 397.51 1214.16 378.79 1139.20 485.21 1079.97 589.21 1224.77 572.36
00003398 00000086 925.79 159.23 410.95 549.70 1035.86 397.28 1214.89 378.40 1139.77 485.57 1080.42 588.08 1225.53 571.33
00003399 00000087 925.32 159.73 411.59 547.55 1035.80 396.65 1215.68 377.22 1140.54 484.22 1080.59 587.49 1226.07 570.38
00003400 00000088 925.91 159.60 412.62 546.29 1036.26 396.60 1216.39 376.26 1141.44 483.72 1081.62 586.96 1227.63 568.76
00003401 00000089 926.23 159.90 412.52 543.66 1036.58 395.24 1217.94 374.56 1143.12 483.79 1082.28 585.46 1229.76 566.77
00003402 00000090 925.68 158.30 413.90 545.07 1036.81 395.96 1218.70 373.92 1144.58 484.78 1082.83 585.01 1231.89 565.07
00003403 00000091 926.44 158.24 414.12 545.39 1038.05 395.76 1221.00 373.26 1146.69 485.20 1084.16 586.02 1233.21 565.61
00003404 00000092 926.73 157.36 415.12 546.25 1038.90 395.32 1222.67 373.50 1147.78 484.37 1085.43 586.23 1234.54 566.28
00003405 00000093 926.80 157.32 414.83 547.05 1039.32 396.59 1223.46 374.46 1148.75 484.90 1085.48 586.46 1236.24 566.26
00003406 00000094 927.03 157.58 414.50 548.21 1040.03 397.02 1224.48 375.77 1149.36 485.46 1085.71 587.04 1236.33 567.59
00003407 00000095 927.21 157.49 414.21 548.81 1039.64 398.29 1224.61 377.07 1148.71 485.82 1084.68 587.88 1236.03 568.59
00003408 00000096 927.30 158.52 413.96 548.38 1040.01 399.22 1223.60 377.48 1148.69 485.79 1085.68 588.17 1235.78 568.48
00003409 00000097 927.70 160.25 414.11 547.19 1040.14 399.30 1223.11 376.82 1148.43 486.17 1086.21 588.28 1236.01 567.95
00003410 00000098 927.21 161.73 414.84 546.07 1039.99 399.59 1222.97 376.59 1148.19 485.31 1086.70 588.69 1235.81 568.00
00003411 00000099 927.53 160.42 414.25 547.15 1039.66 399.52 1223.90 376.11 1148.66 485.74 1086.94 589.23 1237.30 568.17
00003412 00000100 927.66 160.84 413.88 546.10 1039.70 399.45 1223.27 375.97 1148.48 485.50 1087.47 588.94 1236.99 567.73
00003413 00000101 927.47 161.22 413.05 545.90 1039.72 399.34 1223.70 375.87 1148.83 485.61 1087.42 589.06 1237.28 567.91
00003414 00000102 927.35 161.59 412.73 544.05 1039.24 399.11 1224.02 375.91 1148.41 485.57 1086.97 588.87 1237.11 568.02
00003415 00000103 926.65 161.92 413.51 544.56 1039.62 400.31 1223.60 376.32 1149.14 485.84 1087.50 588.52 1238.12 567.03
00003416 00000104 926.97 162.29 413.69 545.74 1040.14 401.14 1222.84 376.69 1149.40 486.33 1088.12 589.11 1238.02 567.23
00003417 00000105 926.59 161.47 414.84 549.64 1041.62 402.07 1223.98 378.07 1151.29 487.59 1088.09 590.15 1238.19 568.63
00003418 00000106 927.57 162.15 414.72 546.67 1042.36 402.51 1225.81 378.88 1152.12 489.53 1087.63 590.05 1238.38 569.08
00003419 00000107 928.63 162.08 411.57 543.23 1043.35 401.85 1226.71 379.07 1153.37 490.40 1085.84 587.79 1237.85 567.82
00003420 00000108 930.70 162.36 407.98 546.67 1046.73 402.61 1227.74 381.90 1156.31 491.89 1086.86 587.52 1237.88 569.30
00003421 00000109 931.57 165.37 406.87 547.14 1051.37 406.69 1226.80 388.84 1159.21 493.33 1090.13 588.98 1235.96 573.18
00003422 00000110 932.30 167.80 405.63 544.06 1054.48 406.96 1230.34 388.51 1164.45 493.93 1098.50 592.55 1239.83 575.85
00003423 00000111 934.71 167.45 406.19 540.71 1057.62 404.67 1235.06 381.17 1171.09 489.26 1105.57 591.79 1246.68 570.82
00003424 00000112 936.39 166.07 407.40 537.33 1055.30 402.10 1239.75 378.30 1169.27 485.34 1104.65 590.94 1251.31 569.29
00003425 00000113 933.45 163.63 409.46 539.74 1052.84 398.36 1239.65 377.28 1167.26 486.47 1102.99 593.45 1247.85 573.82
00003426 00000114 930.58 166.72 411.40 544.02 1052.48 400.87 1236.81 382.89 1165.43 490.99 1098.93 596.14 1243.59 579.41
00003427 00000115 933.43 168.58 409.36 549.78 1056.23 405.34 1240.69 388.95 1169.54 497.74 1099.57 599.17 1247.84 584.11
00003428 00000116 933.37 171.72 411.82 546.80 1062.48 407.35 1243.50 387.22 1176.92 496.97 1106.74 598.76 1250.34 581.17
00003429 00000117 935.11 172.43 408.56 539.94 1060.32 400.59 1238.88 378.93 1173.54 486.60 1107.86 590.81 1248.36 571.57
00003430 00000118 935.45 167.88 403.30 531.43 1053.52 392.45 1229.79 365.03 1166.39 477.25 1107.44 583.82 1243.87 559.36
00003431 00000119 933.19 162.91 403.43 529.02 1049.95 388.35 1223.46 360.59 1159.45 467.98 1104.30 579.07 1237.45 554.38
00003432 00000120 933.13 162.19 403.88 530.69 1049.06 391.31 1222.67 361.27 1159.64 471.59 1105.54 580.08 1240.19 553.34
00003433 00000121 934.79 166.11 406.47 535.04 1051.20 397.51 1231.49 366.10 1164.44 478.53 1110.68 589.70 1248.52 561.37
00003434 00000122 932.78 167.60 410.63 544.02 1052.97 405.22 1235.78 379.16 1165.97 485.72 1108.53 597.35 1248.91 573.66
00003435 00000123 927.85 168.53 416.45 549.52 1047.85 403.98 1226.42 382.59 1154.85 485.27 1096.30 597.50 1235.27 578.28
00003436 00000124 926.31 172.17 408.11 540.71 1041.83 393.28 1213.71 375.65 1142.45 476.84 1085.06 586.61 1218.35 571.28
00003437 00000125 927.48 163.41 403.08 539.51 1038.38 387.95 1209.91 365.44 1140.94 468.53 1085.24 581.18 1216.20 562.10
00003438 00000126 928.30 161.80 404.43 538.13 1038.66 390.30 1210.07 361.99 1144.02 470.15 1092.10 583.79 1222.87 559.27
00003439 00000127 925.63 162.67 409.91 540.89 1040.81 400.35 1211.25 367.86 1147.45 477.36 1097.72 585.40 1231.29 556.72
00003440 00000128 920.73 171.42 413.31 541.39 1042.50 405.53 1209.65 382.47 1143.04 482.52 1094.53 591.94 1219.21 571.66
00003441 00000129 917.73 175.53 411.45 550.70 1038.02 410.95 1207.62 392.89 1138.18 498.20 1092.33 607.97 1211.69 592.73
00003442 DELETE   912.25 183.81 414.34 556.83 1031.26 422.74 1203.18 405.67 1128.80 512.05 1081.38 619.44 1205.50 605.76
00003443 00000131 911.73 195.40 413.81 551.86 1028.15 431.55 1206.81 407.16 1133.61 525.94 1088.26 631.42 1217.58 611.47
00003444 00000132 910.72 200.01 419.56 553.67 1024.19 438.07 1211.71 408.88 1135.41 527.08 1084.12 633.20 1230.42 608.21
00003445 00000133 910.10 198.82 419.59 558.50 1020.45 439.22 1212.84 409.87 1133.09 528.30 1074.60 631.37 1233.80 606.80
00003446 00000134 905.64 199.90 422.82 553.89 1015.14 434.28 1208.14 406.81 1126.95 527.86 1067.95 626.25 1228.56 603.71
00003447 00000135 905.96 196.76 421.41 552.96 1015.00 432.46 1206.77 403.92 1128.29 526.57 1066.55 619.91 1231.15 596.61
00003448 00000136 907.65 191.84 421.46 553.99 1020.40 432.88 1211.87 400.37 1138.74 520.83 1074.11 617.81 1240.03 591.68
00003449 00000137 907.90 186.75 424.72 558.78 1025.33 431.02 1216.86 397.48 1146.88 517.20 1077.97 615.74 1244.59 589.10
00003450 00000138 910.59 183.07 425.41 561.29 1029.15 428.21 1219.69 397.66 1147.95 511.36 1079.33 613.29 1243.71 589.02
00003451 00000139 914.28 183.19 425.45 558.47 1032.78 425.12 1222.46 398.03 1148.43 505.99 1080.85 610.74 1242.73 588.51
00003452 00000140 917.89 183.42 422.21 557.26 1036.62 422.29 1224.11 397.36 1150.22 503.40 1084.24 609.55 1242.83 588.83
00003453 00000141 921.72 180.54 421.61 560.22 1039.73 420.90 1227.85 396.41 1153.58 502.36 1087.86 609.85 1246.25 588.86
00003454 00000142 922.66 176.70 421.00 559.52 1042.26 419.29 1231.58 393.94 1157.94 500.97 1093.10 610.03 1249.44 587.95
00003455 00000143 927.14 178.59 416.94 554.13 1045.55 421.38 1230.28 395.90 1158.38 500.66 1095.29 607.63 1249.17 585.58
00003456 00000144 928.26 176.96 414.66 549.27 1049.89 419.88 1227.44 398.13 1159.28 495.65 1093.88 598.50 1245.15 579.71
00003457 00000145 929.37 171.83 413.88 540.13 1048.44 411.19 1223.24 384.54 1157.11 485.15 1095.72 588.20 1244.07 564.69
00003458 DELETE   934.68 161.20 404.98 535.50 1044.93 401.95 1225.47 370.93 1157.70 477.01 1096.54 581.17 1249.66 553.44
00003459 DELETE   937.00 157.73 401.21 530.61 1046.42 394.28 1228.67 363.70 1159.99 469.44 1097.98 575.25 1252.20 547.98
00003460 DELETE   938.34 154.12 400.39 530.86 1047.68 391.85 1229.12 361.64 1160.89 466.92 1100.04 573.70 1252.11 546.47
00003461 00000149 939.19 157.54 399.97 527.57 1049.62 392.54 1231.32 362.80 1163.47 467.50 1101.59 574.78 1253.22 548.08
00003462 00000150 941.88 156.99 397.02 529.67 1051.91 394.77 1232.54 364.74 1166.54 468.74 1102.83 576.22 1254.42 549.53
00003463 00000151 940.59 158.66 400.49 533.07 1051.92 398.81 1233.31 369.40 1166.80 474.43 1102.59 579.70 1255.17 553.60
00003464 00000152 939.79 163.33 402.67 532.24 1054.32 400.97 1233.45 372.35 1168.50 478.78 1105.35 584.92 1250.93 559.70
00003465 00000153 942.23 166.28 401.20 533.97 1058.48 402.99 1241.19 379.79 1172.04 481.70 1107.54 588.40 1252.73 567.70
00003466 00000154 943.03 168.92 401.07 531.66 1060.30 405.06 1241.58 381.99 1173.36 483.47 1110.91 589.87 1252.91 569.21
00003467 00000155 944.51 167.19 401.08 532.13 1060.24 405.79 1242.32 382.50 1173.62 484.91 1110.48 589.39 1255.07 568.66
00003468 00000156 945.71 164.79 401.49 532.35 1060.41 404.79 1240.31 378.88 1173.50 483.47 1111.20 586.05 1255.93 563.16
00003469 00000157 947.31 162.68 401.45 531.94 1061.81 404.55 1239.35 378.30 1173.45 481.59 1111.91 583.37 1256.49 560.22
00003470 00000158 947.66 160.34 400.43 531.84 1062.64 402.84 1240.53 377.26 1175.46 480.52 1112.78 583.01 1256.80 560.42
00003471 00000159 948.68 160.85 399.87 531.47 1063.60 402.61 1243.35 378.34 1176.43 481.10 1112.38 583.14 1258.04 561.64
00003472 00000160 948.89 162.62 399.77 530.45 1064.22 402.96 1245.12 379.99 1177.20 483.93 1111.71 584.04 1258.10 563.77
00003473 00000161 948.56 164.06 400.42 532.61 1064.21 404.04 1245.32 380.61 1177.16 485.38 1112.33 586.48 1258.44 565.88
00003474 00000162 945.31 162.99 404.64 537.09 1061.94 403.62 1242.89 381.52 1173.58 484.82 1111.34 588.75 1255.51 568.93
00003475 00000163 943.22 164.88 408.37 539.27 1061.26 403.25 1244.20 381.21 1173.95 486.70 1110.41 591.62 1256.25 571.88
