Video ID: 	0JXXMlBFSTE
H: 	1080
W: 	1920
FPS: 	25.0

FRAME INDEX X0 Y0 W H [Landmarks (5 Points)]

00005940 00000000 1022.97 90.81 436.29 588.04 1114.07 296.71 1299.20 297.06 1183.88 384.24 1122.83 501.07 1272.09 502.29
00005941 00000001 1023.86 91.69 435.00 587.15 1114.01 296.80 1299.74 296.76 1184.52 384.77 1123.78 501.72 1274.49 502.52
00005942 00000002 1023.18 91.16 437.42 593.87 1114.55 297.28 1300.60 297.69 1184.06 386.69 1123.50 504.22 1276.19 505.30
00005943 00000003 1021.22 91.92 436.10 596.57 1113.25 298.81 1297.39 299.33 1181.95 387.84 1122.06 506.22 1274.13 507.36
00005944 00000004 1018.88 90.61 436.08 597.89 1111.35 298.55 1295.59 298.74 1180.88 387.50 1122.14 505.61 1272.47 506.38
00005945 00000005 1017.41 90.75 435.97 598.42 1109.62 298.76 1291.81 298.52 1178.43 388.29 1119.57 505.45 1271.00 505.67
00005946 00000006 1017.37 91.43 436.43 600.29 1109.99 298.57 1291.30 298.07 1177.76 388.69 1119.62 506.41 1270.27 506.44
00005947 00000007 1015.42 91.59 436.74 598.84 1107.24 298.24 1290.03 298.63 1175.85 388.33 1117.05 504.86 1270.11 505.48
00005948 00000008 1015.31 91.52 437.31 595.54 1105.94 299.18 1288.41 299.81 1175.41 388.85 1113.63 500.32 1270.74 500.76
00005949 00000009 1015.34 93.81 437.74 593.96 1108.35 301.31 1292.72 302.88 1179.49 391.27 1114.01 499.94 1276.62 501.04
00005950 00000010 1015.09 93.63 439.02 592.03 1109.61 300.24 1293.86 302.24 1181.40 389.71 1114.92 496.91 1278.50 498.20
00005951 00000011 1016.79 92.59 436.17 592.34 1111.37 300.46 1294.28 303.59 1181.55 390.98 1113.69 495.25 1278.34 497.56
00005952 00000012 1019.81 95.70 436.46 586.04 1114.39 295.35 1296.15 301.61 1182.32 389.32 1115.12 492.45 1278.43 497.30
00005953 00000013 1019.94 94.34 436.70 587.19 1113.59 293.88 1296.35 301.03 1182.35 391.10 1115.94 492.94 1277.57 498.53
00005954 00000014 1017.84 95.67 437.40 582.48 1114.40 292.98 1298.33 301.61 1186.92 390.91 1116.37 489.87 1281.15 496.58
00005955 00000015 1023.43 93.90 436.23 581.72 1116.59 290.28 1298.88 303.08 1180.45 389.62 1114.57 486.29 1278.85 496.96
00005956 00000016 1025.86 93.55 430.05 575.80 1118.83 288.80 1296.00 305.42 1177.17 387.25 1111.27 482.48 1273.45 496.43
00005957 00000017 1027.70 82.40 434.35 582.80 1123.48 292.55 1298.41 318.41 1175.01 396.07 1104.37 480.00 1271.43 501.59
00005958 00000018 1030.13 96.10 442.43 576.86 1140.98 293.24 1319.80 341.53 1190.35 403.74 1107.63 478.88 1272.93 518.74
00005959 DELETE   1051.80 106.58 433.83 571.76 1177.65 296.92 1350.93 348.60 1229.05 407.62 1140.00 486.50 1298.34 528.50
00005960 DELETE   1056.45 108.84 447.77 592.91 1207.55 274.71 1374.81 328.56 1266.04 393.63 1168.96 484.63 1312.71 531.43
00005961 00000021 1061.16 99.44 428.15 570.48 1201.90 252.00 1384.81 301.14 1268.63 365.28 1166.97 468.80 1317.84 509.44
00005962 00000022 1055.96 89.54 424.66 575.42 1193.95 251.79 1383.66 299.34 1266.57 344.88 1158.32 460.67 1323.00 500.78
00005963 00000023 1059.90 88.97 418.87 569.53 1197.09 243.47 1386.62 292.58 1269.49 337.65 1157.38 453.99 1322.74 495.80
00005964 00000024 1061.24 88.48 416.32 566.33 1198.69 242.65 1388.67 294.94 1270.74 336.80 1158.68 452.80 1324.54 497.15
00005965 00000025 1059.92 86.13 418.59 564.73 1199.05 239.82 1390.75 297.35 1268.03 333.13 1151.56 449.21 1322.94 498.25
00005966 00000026 1059.02 88.84 421.38 563.71 1199.96 239.60 1391.67 298.81 1266.34 334.27 1150.97 447.94 1322.39 498.36
00005967 00000027 1060.51 91.02 421.15 561.76 1201.72 243.41 1392.13 302.06 1268.59 335.01 1153.52 449.12 1323.90 499.14
00005968 00000028 1058.01 98.17 431.63 558.39 1202.83 243.64 1392.30 302.68 1269.92 337.23 1151.48 450.72 1322.42 500.88
00005969 00000029 1055.96 92.38 430.37 560.31 1201.65 247.64 1388.57 310.61 1267.68 343.43 1152.40 449.66 1320.16 502.88
00005970 00000030 1057.05 92.35 433.58 557.59 1200.90 257.95 1387.99 319.81 1266.03 351.79 1155.90 453.53 1320.91 505.67
00005971 00000031 1056.22 92.11 435.84 561.91 1195.34 260.45 1384.46 319.65 1259.50 362.80 1155.51 457.24 1317.32 506.67
00005972 00000032 1054.00 99.64 436.55 553.66 1189.72 264.87 1378.61 319.79 1255.28 366.47 1155.16 464.53 1312.76 509.76
00005973 00000033 1052.98 105.76 441.80 548.05 1190.78 273.14 1380.72 327.19 1257.71 377.33 1155.45 469.80 1312.98 514.35
00005974 00000034 1052.25 106.16 436.40 549.88 1186.72 283.69 1374.24 334.96 1257.32 383.40 1153.41 478.19 1314.65 520.54
00005975 00000035 1053.51 110.82 436.33 545.18 1187.79 295.95 1372.67 339.42 1258.99 393.54 1162.64 488.50 1319.52 524.58
00005976 00000036 1056.13 109.99 433.77 548.38 1187.39 301.25 1371.30 341.88 1258.85 399.25 1167.30 495.65 1322.15 529.61
00005977 00000037 1055.68 107.62 437.41 564.52 1185.94 300.02 1369.86 341.53 1255.08 401.32 1166.19 500.69 1316.84 535.25
00005978 00000038 1053.61 106.69 440.85 574.97 1185.40 297.81 1370.10 341.09 1251.45 405.47 1162.49 504.85 1312.03 540.81
00005979 00000039 1051.70 103.14 437.28 582.66 1185.00 300.19 1367.93 343.11 1251.62 408.29 1163.08 507.52 1311.65 543.13
00005980 00000040 1050.35 103.25 435.97 574.04 1181.17 302.25 1364.25 343.89 1250.91 409.74 1164.06 508.77 1310.59 543.19
00005981 00000041 1048.61 101.04 436.21 578.70 1179.57 301.71 1361.01 343.17 1247.47 414.45 1163.13 510.07 1307.39 544.13
00005982 00000042 1045.78 100.15 437.95 584.80 1175.02 308.32 1356.59 347.41 1242.83 422.77 1159.80 518.51 1303.75 550.46
00005983 00000043 1045.90 107.35 435.08 587.89 1169.63 318.93 1352.93 357.76 1236.91 437.55 1152.08 526.96 1300.52 559.09
00005984 00000044 1043.70 114.52 434.86 589.00 1163.94 332.30 1348.56 369.77 1229.42 452.66 1144.08 538.84 1292.14 570.51
00005985 00000045 1041.62 124.79 435.28 588.37 1158.70 341.99 1340.24 377.03 1219.82 463.16 1141.29 546.57 1286.91 576.33
00005986 00000046 1038.97 128.04 435.90 595.61 1157.22 344.70 1337.63 378.28 1219.73 467.05 1140.73 550.95 1288.71 579.65
00005987 00000047 1036.83 126.93 439.66 592.86 1153.68 342.83 1334.88 375.31 1216.69 462.15 1137.81 547.96 1287.89 575.76
00005988 00000048 1036.04 122.12 440.17 591.09 1152.03 337.31 1336.65 371.26 1215.43 456.00 1135.06 542.13 1287.25 570.77
00005989 00000049 1035.72 115.18 439.15 584.87 1152.73 325.72 1337.69 358.14 1221.68 440.86 1138.10 528.93 1292.85 555.71
00005990 00000050 1039.17 107.82 437.39 574.62 1153.24 310.44 1341.18 341.17 1224.48 423.11 1145.66 518.80 1295.71 544.30
00005991 00000051 1042.79 104.02 434.52 569.03 1155.84 301.20 1342.76 331.78 1225.47 412.38 1147.66 507.87 1298.01 533.40
00005992 00000052 1046.17 97.22 435.94 573.95 1161.97 294.35 1346.15 325.86 1230.48 405.38 1153.44 502.64 1299.86 529.03
00005993 00000053 1045.34 97.00 433.28 572.46 1158.44 296.04 1342.04 323.77 1229.82 406.99 1153.13 505.22 1296.91 528.60
00005994 00000054 1038.47 105.43 436.24 565.54 1152.27 307.92 1335.96 335.26 1222.05 413.71 1147.87 509.89 1292.49 532.57
00005995 00000055 1035.85 111.92 432.97 566.22 1144.64 314.74 1329.60 342.02 1213.20 423.08 1137.08 517.18 1287.89 539.55
00005996 00000056 1034.83 112.13 433.16 565.92 1142.24 313.35 1329.57 339.30 1213.23 420.88 1137.20 517.02 1289.86 538.26
00005997 00000057 1036.73 107.99 433.52 566.04 1144.38 304.40 1329.88 327.05 1216.69 411.00 1143.39 509.96 1291.99 528.89
00005998 00000058 1040.36 101.61 429.43 565.20 1146.42 299.38 1332.31 317.70 1222.26 399.22 1146.16 502.64 1297.54 518.48
00005999 00000059 1038.78 97.62 428.96 564.67 1143.54 295.84 1330.23 313.98 1221.50 393.19 1141.54 497.17 1296.82 512.65
00006000 00000060 1037.58 94.98 429.50 569.25 1139.97 296.03 1325.73 312.62 1217.68 393.77 1138.71 498.11 1293.49 512.31
00006001 00000061 1035.39 95.42 432.02 572.04 1137.63 298.67 1324.45 312.67 1216.32 396.31 1140.40 502.85 1292.73 514.91
00006002 00000062 1033.46 101.31 432.53 566.76 1134.30 301.18 1321.42 312.09 1212.03 400.05 1139.24 505.72 1289.42 515.26
00006003 00000063 1027.88 101.93 437.20 572.00 1128.10 302.53 1316.14 312.23 1203.13 400.96 1133.61 506.77 1285.93 515.27
00006004 00000064 1028.63 103.25 437.66 566.83 1127.21 303.28 1316.58 312.18 1202.75 400.79 1133.22 507.00 1285.25 514.75
00006005 00000065 1028.91 105.54 433.12 558.87 1125.48 305.19 1314.88 313.43 1201.50 402.09 1130.33 505.97 1284.41 513.01
00006006 00000066 1031.15 109.08 429.26 552.38 1124.66 307.27 1311.96 312.81 1200.39 403.13 1132.14 506.32 1283.27 511.18
00006007 00000067 1029.60 111.72 432.95 552.69 1122.17 310.32 1313.11 315.76 1198.67 408.33 1131.18 510.55 1284.11 514.92
00006008 00000068 1028.46 113.57 433.51 554.39 1118.79 314.45 1312.94 319.08 1196.85 413.22 1130.51 516.48 1285.13 520.06
00006009 00000069 1029.99 112.08 429.68 558.47 1120.70 326.02 1303.56 327.72 1196.95 421.53 1123.87 519.24 1285.05 521.17
00006010 00000070 1024.40 115.94 433.93 557.23 1115.14 321.07 1308.10 328.12 1191.93 420.42 1122.97 520.40 1280.01 525.62
00006011 00000071 1022.34 111.65 431.87 562.29 1112.40 322.23 1302.36 328.14 1187.83 422.09 1119.93 522.71 1273.41 527.22
00006012 00000072 1022.74 111.36 431.90 562.90 1110.81 320.89 1300.87 328.49 1184.73 423.12 1116.78 523.21 1268.91 529.13
00006013 00000073 1022.83 110.27 429.26 562.26 1110.24 321.99 1299.56 328.92 1184.62 423.90 1117.50 523.16 1268.47 528.60
00006014 00000074 1022.04 110.52 427.52 562.90 1109.71 321.42 1297.68 328.49 1183.37 424.26 1117.03 523.49 1266.61 529.08
00006015 00000075 1021.53 110.62 426.97 562.56 1109.20 322.90 1295.82 330.37 1181.72 425.80 1116.09 524.81 1264.81 530.70
00006016 00000076 1019.76 108.89 425.99 565.25 1107.20 322.97 1293.87 330.34 1179.53 426.03 1113.98 526.33 1262.15 532.17
00006017 00000077 1027.00 109.07 425.82 567.45 1112.33 327.64 1293.91 334.81 1176.28 427.04 1116.88 530.49 1260.51 536.73
00006018 00000078 1024.11 108.61 429.15 571.28 1112.92 323.19 1296.02 335.17 1178.55 427.42 1116.38 528.83 1258.34 538.85
00006019 00000079 1025.23 113.20 429.10 568.69 1112.24 329.11 1296.44 339.38 1177.45 434.31 1117.17 531.93 1259.66 540.87
00006020 00000080 1023.35 119.27 424.65 566.01 1108.47 327.49 1297.45 338.89 1180.75 442.23 1115.76 535.26 1264.89 544.52
00006021 00000081 1022.67 121.06 426.83 565.03 1109.67 327.29 1300.05 340.08 1182.20 443.21 1115.25 535.25 1263.76 545.93
00006022 00000082 1023.83 117.15 427.62 569.32 1111.39 329.27 1302.73 341.69 1185.35 444.55 1117.50 537.04 1267.00 547.45
00006023 00000083 1023.36 118.36 428.54 569.89 1112.03 331.20 1304.78 342.16 1187.71 445.01 1118.60 539.48 1270.06 548.67
00006024 00000084 1024.85 118.17 430.23 570.17 1114.09 332.28 1308.77 341.40 1190.87 442.86 1121.45 540.22 1275.09 547.80
00006025 00000085 1025.18 117.59 431.38 570.07 1115.40 331.96 1311.97 340.74 1193.34 442.83 1123.54 541.22 1279.08 548.43
00006026 00000086 1024.79 116.68 433.06 574.64 1117.14 333.45 1312.68 341.63 1196.07 443.82 1126.37 542.05 1280.26 549.12
00006027 00000087 1024.54 117.37 434.49 580.26 1119.52 333.72 1313.72 343.30 1197.68 444.99 1127.63 543.27 1281.25 551.62
00006028 00000088 1024.89 119.13 434.27 582.04 1117.47 336.12 1313.23 344.23 1196.82 447.72 1127.97 546.81 1285.12 553.64
00006029 00000089 1026.66 118.84 433.48 581.45 1117.95 335.63 1312.39 344.17 1196.05 447.52 1129.17 547.37 1283.31 554.65
00006030 00000090 1027.40 118.74 432.45 583.70 1117.32 336.03 1311.52 343.79 1195.44 446.51 1127.43 547.19 1282.59 553.83
00006031 00000091 1025.95 114.88 433.26 592.07 1117.46 336.72 1308.95 345.49 1194.42 447.72 1126.71 547.41 1279.44 555.10
00006032 00000092 1024.97 115.35 431.44 592.92 1116.42 337.45 1305.84 346.30 1192.34 449.31 1125.39 547.65 1276.78 555.51
00006033 00000093 1024.30 117.44 429.27 592.42 1114.37 338.38 1302.90 345.83 1190.96 450.14 1125.22 548.96 1276.09 555.85
00006034 00000094 1019.94 118.49 430.70 594.28 1110.98 339.25 1300.60 346.43 1188.62 450.97 1122.63 550.99 1274.77 557.67
00006035 00000095 1019.33 121.31 428.28 595.26 1110.41 339.94 1298.56 346.83 1187.79 451.39 1122.46 553.96 1273.93 560.71
00006036 00000096 1017.24 119.18 428.20 597.28 1108.88 341.12 1298.10 348.08 1186.88 451.99 1121.34 554.45 1273.16 561.21
00006037 00000097 1015.99 120.57 430.13 595.15 1107.72 340.23 1296.88 348.25 1184.71 453.08 1119.84 554.10 1270.26 561.76
00006038 00000098 1015.76 122.20 430.82 596.27 1107.59 340.44 1296.86 348.49 1184.78 453.48 1119.29 554.54 1270.73 562.23
00006039 00000099 1016.24 121.46 430.41 597.59 1107.65 340.05 1296.29 348.07 1184.36 452.95 1120.29 555.05 1270.62 562.64
00006040 00000100 1014.50 120.83 432.59 599.18 1106.10 340.59 1294.43 348.42 1181.78 453.81 1119.01 556.46 1267.58 563.96
00006041 00000101 1017.11 121.21 432.25 599.62 1106.44 342.16 1294.01 349.98 1180.74 455.24 1118.36 556.47 1268.89 563.66
00006042 00000102 1016.22 122.42 431.71 592.20 1105.66 341.40 1292.78 349.80 1178.87 454.76 1116.74 552.29 1267.26 559.79
00006043 00000103 1017.54 121.51 430.34 589.67 1105.31 342.51 1290.59 352.23 1175.65 456.97 1114.43 550.77 1263.63 559.18
00006044 00000104 1020.40 126.12 428.13 585.35 1105.73 346.76 1289.01 356.27 1174.41 463.78 1118.38 556.22 1264.84 564.61
00006045 00000105 1017.08 132.17 429.60 587.68 1104.50 354.65 1289.98 361.80 1176.14 473.15 1117.65 558.66 1274.18 564.93
00006046 00000106 1015.40 135.43 437.28 583.29 1101.79 365.14 1289.78 371.40 1176.35 480.56 1115.28 560.35 1270.97 565.73
00006047 00000107 1017.35 141.57 429.62 581.87 1105.33 368.04 1290.48 374.25 1174.32 481.53 1116.30 562.76 1275.77 568.31
00006048 00000108 1018.96 140.57 429.58 582.73 1108.83 369.05 1292.75 374.91 1179.66 480.89 1121.49 565.03 1276.10 570.68
00006049 00000109 1019.03 134.18 430.27 590.37 1112.08 358.74 1295.73 361.93 1188.61 471.81 1128.64 564.46 1282.88 567.76
00006050 00000110 1020.03 124.14 426.97 588.36 1107.29 351.90 1297.82 352.61 1187.55 464.03 1122.70 553.06 1290.54 553.39
00006051 00000111 1021.03 128.63 425.08 579.59 1108.36 348.93 1299.24 350.83 1188.36 460.62 1123.18 550.83 1289.80 552.06
00006052 00000112 1021.65 128.94 427.05 588.01 1109.99 349.95 1296.45 351.74 1188.84 461.53 1126.90 555.28 1287.99 556.80
00006053 00000113 1022.83 130.88 425.24 586.66 1111.36 353.72 1294.09 354.36 1188.63 463.49 1129.67 558.07 1287.54 559.00
00006054 00000114 1019.45 134.77 429.27 576.97 1105.58 357.72 1296.39 355.66 1184.40 467.78 1121.20 554.20 1293.42 551.87
00006055 00000115 1017.35 135.36 428.90 575.25 1104.64 359.37 1297.11 358.73 1182.98 469.22 1117.88 551.83 1295.66 550.42
00006056 00000116 1014.68 135.77 432.56 579.22 1103.12 358.49 1295.34 357.67 1180.89 468.46 1116.26 552.40 1293.24 550.92
00006057 00000117 1012.20 131.67 433.96 586.13 1101.96 357.76 1294.62 357.61 1180.60 467.41 1116.03 555.69 1288.24 555.21
00006058 00000118 1009.47 132.46 433.20 592.76 1102.82 356.60 1290.49 358.41 1180.80 466.36 1117.89 560.94 1277.68 563.16
00006059 00000119 1009.01 132.42 431.15 590.45 1102.96 355.89 1289.71 358.37 1181.08 464.74 1116.72 559.96 1275.66 562.73
00006060 00000120 1006.83 130.76 432.20 591.24 1103.11 355.03 1290.33 357.84 1182.36 464.62 1117.20 559.70 1275.60 562.68
00006061 00000121 1005.49 132.88 431.36 587.51 1103.58 355.89 1291.07 358.74 1183.97 464.50 1116.99 559.27 1275.33 562.27
00006062 00000122 1004.20 132.79 430.66 591.99 1104.79 356.57 1291.34 360.80 1186.24 464.63 1117.23 559.63 1275.99 563.97
00006063 00000123 1003.00 136.65 432.98 589.86 1107.15 358.42 1291.66 362.69 1187.88 465.98 1121.20 562.10 1276.79 566.50
00006064 00000124 997.30 139.72 437.38 580.00 1100.68 364.18 1290.63 367.79 1186.25 465.04 1119.15 562.12 1284.99 563.37
00006065 00000125 997.36 136.97 437.54 583.80 1099.96 365.41 1287.92 368.91 1185.28 465.85 1119.09 562.64 1282.08 563.78
00006066 00000126 995.80 138.49 438.75 587.38 1099.66 367.67 1287.62 370.88 1186.00 469.19 1119.18 567.12 1281.30 568.06
00006067 00000127 994.14 139.03 440.77 583.80 1098.61 368.13 1286.93 370.32 1185.93 470.31 1120.48 567.03 1282.06 567.02
00006068 00000128 994.65 134.98 436.42 580.64 1096.63 366.32 1286.71 370.95 1184.38 467.99 1116.01 562.26 1281.81 564.31
00006069 00000129 995.46 132.00 435.62 583.39 1096.44 364.55 1287.26 370.75 1183.43 466.62 1113.14 558.14 1281.64 561.39
00006070 00000130 996.88 135.06 436.55 582.96 1097.46 365.90 1287.25 369.70 1184.76 469.12 1118.10 564.40 1281.16 565.69
00006071 00000131 996.66 134.53 436.63 583.52 1097.59 364.25 1285.79 367.63 1183.21 466.55 1119.79 563.17 1278.51 564.20
00006072 00000132 1000.22 130.03 434.56 596.34 1103.98 353.57 1290.25 360.50 1183.24 466.09 1117.28 562.02 1265.46 568.92
00006073 00000133 1000.51 131.03 434.57 597.13 1105.82 353.72 1290.04 359.54 1185.11 465.41 1120.95 565.87 1264.91 572.10
00006074 00000134 1001.35 131.88 434.47 596.64 1106.11 353.22 1290.12 358.93 1184.87 465.38 1120.61 565.69 1264.75 571.85
00006075 00000135 1000.94 129.79 434.72 597.36 1105.84 352.84 1289.52 358.61 1184.68 465.34 1121.03 565.47 1263.08 571.66
00006076 00000136 999.41 129.55 436.47 597.80 1106.34 351.92 1288.67 357.71 1184.76 464.18 1122.59 564.03 1263.53 570.17
00006077 00000137 999.05 126.81 437.38 600.81 1106.17 350.72 1288.07 356.85 1184.34 464.28 1123.51 562.69 1264.50 569.03
00006078 00000138 999.51 129.07 435.83 595.88 1106.48 350.07 1288.73 356.69 1184.73 463.57 1122.24 560.79 1264.20 567.47
00006079 00000139 1000.04 130.81 435.06 587.25 1106.92 352.03 1291.55 358.74 1187.25 466.71 1122.84 560.22 1267.43 566.74
00006080 00000140 1000.14 130.33 433.29 585.47 1105.75 352.49 1291.97 358.38 1187.01 466.85 1121.44 558.25 1269.75 563.93
00006081 00000141 996.34 133.55 436.88 579.54 1100.02 359.61 1289.01 364.27 1185.93 463.46 1122.25 559.90 1278.72 562.16
00006082 00000142 995.51 132.90 439.29 577.23 1099.58 360.27 1292.05 366.25 1187.35 464.62 1118.99 557.00 1285.28 559.97
00006083 00000143 1000.28 131.93 434.65 583.69 1102.83 353.41 1295.57 356.30 1186.79 466.33 1113.84 554.47 1282.18 556.88
00006084 00000144 1001.04 134.39 436.99 586.92 1104.93 354.54 1295.50 358.56 1187.16 467.63 1115.54 555.35 1283.16 558.71
00006085 00000145 1006.11 130.56 431.82 585.78 1106.15 349.60 1293.75 353.66 1187.23 461.04 1120.48 554.76 1280.23 558.49
00006086 00000146 999.84 121.54 439.67 597.57 1105.73 339.70 1290.49 345.71 1181.42 442.25 1118.39 546.02 1265.16 551.96
00006087 00000147 996.78 114.61 443.89 604.68 1111.20 329.73 1297.42 333.30 1193.00 424.77 1124.03 540.38 1273.75 544.37
00006088 00000148 996.22 113.39 447.40 606.40 1111.55 323.91 1297.48 327.20 1192.87 419.05 1126.54 536.95 1278.22 540.60
00006089 00000149 997.70 114.09 445.23 604.69 1111.73 323.93 1296.50 328.22 1190.75 418.29 1123.80 536.17 1274.31 540.84
00006090 00000150 997.35 115.53 444.44 603.70 1110.50 324.36 1296.38 328.40 1190.03 417.42 1121.34 535.38 1274.37 539.84
00006091 00000151 998.93 115.40 443.46 602.31 1113.11 323.51 1298.82 328.89 1193.35 418.08 1123.58 535.19 1276.56 540.76
00006092 00000152 998.69 116.92 444.65 597.35 1112.71 322.05 1299.60 329.26 1192.45 418.83 1122.76 533.38 1273.97 540.49
00006093 00000153 998.34 113.93 444.11 599.55 1111.07 324.84 1298.85 329.03 1192.13 419.70 1121.95 534.62 1273.64 539.13
00006094 00000154 999.80 116.33 440.75 588.90 1107.37 325.34 1295.34 329.47 1186.67 421.60 1117.91 533.21 1270.31 537.50
00006095 00000155 1002.71 119.19 433.46 574.61 1105.70 335.12 1296.85 339.57 1185.74 430.74 1118.01 532.56 1280.62 534.42
00006096 00000156 1000.39 118.14 438.14 570.92 1103.10 337.04 1295.18 339.22 1184.42 435.09 1119.15 533.88 1282.17 534.53
00006097 00000157 1004.67 125.32 434.04 564.66 1104.41 343.86 1297.43 345.82 1186.26 442.38 1123.87 542.92 1283.67 542.47
00006098 00000158 1006.18 129.84 429.03 566.02 1104.20 349.90 1294.44 350.85 1187.43 449.17 1126.68 551.46 1283.26 550.36
00006099 00000159 1004.98 133.21 427.99 564.75 1103.55 356.14 1290.09 355.83 1187.85 455.67 1127.34 556.11 1283.40 554.30
CROP_BBOX: 796 0 1701 857
