Video ID: 	LKXQwrjdxOU
H: 	1080
W: 	1920
FPS: 	25.0

FRAME INDEX X0 Y0 W H [Landmarks (5 Points)]

00036764 00000000 726.51 141.65 376.28 532.87 869.73 327.74 1043.82 325.48 1018.20 421.14 895.88 531.04 1041.38 529.76
00036765 00000001 708.37 139.93 381.83 537.98 862.28 320.82 1033.89 324.13 1010.68 421.34 888.07 531.35 1027.48 534.60
00036766 00000002 686.18 131.24 390.96 541.02 848.54 317.66 1020.94 322.67 988.59 422.87 875.85 531.66 1011.33 534.82
00036767 DELETE   672.83 142.53 382.81 529.00 814.08 328.25 991.56 320.62 962.42 416.57 848.45 535.57 992.62 528.89
00036768 00000004 652.30 139.83 382.22 540.98 792.19 326.07 965.29 319.53 932.75 417.18 823.56 535.28 963.40 529.69
00036769 00000005 632.09 136.59 389.20 544.69 779.34 321.69 953.77 319.58 913.36 420.81 806.20 533.38 945.76 530.84
00036770 00000006 620.49 134.40 390.91 546.91 766.36 326.03 942.78 315.66 904.59 422.56 794.86 535.15 941.91 526.21
00036771 00000007 607.36 146.14 395.41 538.82 756.78 328.22 932.09 316.38 897.27 427.30 789.09 540.62 933.87 530.02
00036772 00000008 593.54 144.35 395.02 551.87 738.37 344.13 914.60 319.83 896.66 432.10 771.09 554.39 920.80 535.25
00036773 00000009 588.37 168.80 385.43 527.98 723.95 352.04 898.62 325.92 878.03 438.74 767.71 563.77 908.79 542.24
00036774 00000010 571.90 162.92 392.66 530.74 714.32 350.97 889.60 329.39 859.50 442.17 757.41 562.02 894.72 543.51
00036775 00000011 562.31 158.20 393.71 537.58 705.18 348.96 882.71 330.86 846.00 443.41 746.89 560.42 884.89 544.58
00036776 00000012 557.79 149.35 391.47 547.18 699.64 347.09 874.83 327.86 840.31 440.39 744.89 559.27 881.24 542.88
00036777 00000013 557.89 144.94 388.60 543.20 702.68 345.69 874.74 324.61 849.23 433.01 754.06 554.99 887.05 536.57
00036778 00000014 568.84 139.64 376.80 536.57 708.79 342.56 876.01 315.37 862.63 422.92 766.73 548.56 898.47 525.88
00036779 00000015 567.69 128.67 382.22 548.86 711.10 348.86 875.43 311.59 867.77 422.30 777.35 553.16 907.46 520.99
00036780 00000016 560.75 141.43 385.14 548.87 705.39 349.91 863.93 310.65 862.66 424.93 776.08 560.81 895.66 528.47
00036781 00000017 563.77 159.34 377.95 540.28 690.11 361.82 854.79 319.30 839.67 435.82 762.62 575.09 888.56 539.51
00036782 00000018 534.88 174.94 393.86 536.21 668.25 360.36 844.99 330.78 812.03 445.62 731.03 578.60 868.55 553.03
00036783 00000019 520.19 177.75 399.01 545.84 644.43 372.54 821.48 334.57 792.24 450.19 702.18 589.73 845.01 557.26
00036784 00000020 518.43 177.49 398.58 545.66 644.47 372.92 820.36 334.51 791.34 452.83 702.08 589.45 844.37 556.74
00036785 00000021 517.25 171.63 404.71 555.02 652.53 378.52 827.56 335.59 807.36 448.12 710.28 589.21 856.05 552.89
00036786 00000022 525.67 157.50 398.83 563.20 664.17 365.20 840.72 331.66 813.56 445.54 726.26 584.33 870.03 556.77
00036787 00000023 518.83 169.81 405.73 550.11 653.53 374.86 828.23 332.02 805.43 441.67 714.80 583.74 857.35 546.89
00036788 00000024 506.65 175.76 408.64 546.11 639.31 366.50 816.60 335.52 782.35 448.79 694.14 583.83 834.68 556.63
00036789 00000025 504.14 167.07 407.05 554.81 632.36 363.25 811.16 336.59 767.81 452.15 680.88 580.86 823.18 557.03
00036790 00000026 507.97 169.47 399.98 546.34 635.75 357.61 812.24 331.82 771.68 446.08 683.31 574.99 824.66 551.74
00036791 00000027 509.99 167.02 404.43 541.92 643.67 358.48 821.94 328.32 786.15 439.93 691.22 569.51 838.96 542.61
00036792 00000028 513.20 168.38 410.21 537.60 657.00 357.40 834.23 325.72 809.20 439.83 698.50 560.17 853.89 533.34
00036793 00000029 527.02 150.94 410.61 570.13 676.56 345.09 852.82 327.62 820.40 437.62 709.88 553.01 870.68 537.55
00036794 00000030 549.79 163.91 395.97 562.97 688.96 346.28 864.04 327.61 838.22 441.09 713.38 552.06 877.41 537.72
00036795 00000031 547.72 160.69 402.45 559.34 693.47 347.72 872.94 329.16 845.18 447.60 715.33 551.44 879.32 537.09
00036796 00000032 548.01 169.73 395.64 539.70 690.01 352.55 868.87 333.13 837.61 453.76 713.99 547.69 878.48 532.34
00036797 00000033 531.24 170.51 410.40 537.17 673.82 352.64 863.20 335.24 817.71 459.79 696.12 548.11 871.46 534.16
00036798 00000034 528.31 186.30 405.99 521.53 657.66 360.16 843.16 344.28 791.23 457.85 674.28 549.77 850.99 537.41
00036799 00000035 516.66 181.77 408.87 522.91 647.86 355.42 836.48 344.82 777.59 459.18 662.09 548.66 838.70 540.19
00036800 00000036 516.16 187.99 412.87 521.49 653.25 357.10 840.70 346.39 785.76 459.29 667.18 552.09 841.59 543.88
00036801 00000037 532.12 188.50 404.85 531.58 666.92 345.37 854.87 343.37 798.60 450.96 682.19 554.91 851.67 552.56
00036802 00000038 541.50 175.00 403.85 554.33 681.01 342.00 862.52 335.97 816.15 449.12 700.32 560.52 861.05 554.89
00036803 00000039 548.23 165.29 401.31 561.99 688.62 342.08 869.38 335.14 826.69 449.77 710.83 562.79 866.58 556.24
00036804 00000040 550.16 162.66 401.57 556.24 692.45 345.57 873.63 337.46 827.85 454.11 714.61 560.49 868.56 553.39
00036805 00000041 550.02 159.26 404.72 558.29 694.64 346.31 875.80 340.67 826.81 455.62 715.84 561.22 868.06 555.80
00036806 00000042 553.08 166.47 404.44 547.80 697.53 343.07 882.67 342.69 827.53 452.52 715.14 556.88 870.29 556.14
00036807 00000043 557.47 157.50 403.99 548.49 705.33 338.51 890.83 343.11 835.31 447.86 716.53 548.10 874.40 551.80
00036808 00000044 564.79 160.43 407.27 540.42 714.59 332.76 899.98 344.83 841.19 445.59 719.50 540.35 879.11 550.81
00036809 00000045 578.90 175.43 404.76 527.19 727.60 335.92 911.99 348.34 856.26 448.78 726.24 543.92 887.42 555.72
00036810 00000046 579.37 176.48 408.45 528.01 733.73 339.36 919.42 356.34 862.54 457.67 728.35 546.82 891.82 562.47
00036811 00000047 579.70 175.14 413.37 536.03 734.06 343.06 923.54 364.22 860.31 465.70 723.35 548.97 893.51 568.13
00036812 00000048 580.05 171.01 422.26 551.88 738.13 346.15 925.24 372.65 855.26 473.66 717.51 551.73 887.71 575.22
00036813 00000049 575.73 171.74 429.47 559.66 740.63 351.19 927.00 382.71 853.98 482.20 717.86 557.49 885.27 584.69
00036814 00000050 577.38 177.34 427.30 559.14 740.03 354.57 926.57 386.05 851.05 485.70 717.68 563.05 882.49 589.94
00036815 00000051 578.04 184.88 432.64 554.47 739.11 361.35 929.34 390.95 844.36 493.15 715.57 568.54 877.86 593.87
00036816 00000052 580.73 189.95 432.79 553.07 739.30 364.37 930.89 393.20 845.61 496.17 715.61 572.54 879.54 597.42
00036817 00000053 580.09 189.01 433.55 550.51 740.81 364.57 933.26 392.68 847.55 494.62 718.86 570.24 884.66 594.28
00036818 00000054 590.49 182.36 426.95 551.02 748.11 355.55 940.55 383.41 854.76 486.83 727.95 565.35 890.39 589.03
00036819 00000055 601.85 179.37 423.82 542.78 766.17 348.95 952.28 373.57 872.70 479.29 744.17 558.96 903.94 579.69
00036820 00000056 612.98 178.17 420.88 534.49 778.65 337.82 963.60 365.97 890.11 465.97 756.95 546.71 920.52 570.68
00036821 00000057 615.19 152.73 419.77 550.16 786.35 328.93 973.92 363.85 903.52 451.38 763.92 534.78 927.34 564.90
00036822 00000058 618.50 157.07 417.13 540.32 791.91 324.57 978.79 361.64 913.80 447.41 769.91 529.62 933.17 561.91
00036823 00000059 615.80 158.00 417.94 538.87 790.56 326.64 976.31 360.53 913.56 446.82 771.90 530.37 933.96 559.54
00036824 00000060 615.47 154.44 414.76 544.37 786.44 328.26 973.65 359.00 912.42 447.26 772.45 533.46 934.68 559.78
00036825 00000061 611.81 152.59 416.23 549.76 785.39 330.68 971.85 358.49 914.86 450.38 775.53 540.36 935.05 563.74
00036826 00000062 611.76 151.54 414.83 552.06 782.42 334.42 967.56 355.92 910.94 453.63 778.51 545.28 934.34 562.87
00036827 00000063 611.99 146.73 412.53 558.65 781.28 339.23 965.60 354.97 910.70 457.68 780.73 551.78 932.86 564.73
00036828 00000064 608.48 141.54 413.08 565.58 779.37 341.28 964.40 353.71 909.98 463.72 779.86 557.21 932.39 567.46
00036829 00000065 608.30 141.00 409.69 567.28 776.22 342.16 961.33 350.99 908.30 466.60 781.67 563.39 930.01 570.35
00036830 00000066 606.59 150.03 411.66 562.33 771.32 340.78 957.77 347.50 901.03 464.43 782.10 568.75 924.02 573.21
00036831 00000067 605.86 146.02 408.37 567.26 769.54 339.43 953.57 345.58 899.70 459.99 781.27 568.13 921.16 572.15
00036832 00000068 603.57 146.38 409.88 562.82 769.64 337.07 951.64 342.90 899.10 455.49 782.63 563.37 921.12 566.79
00036833 00000069 603.55 138.79 408.03 564.89 770.25 333.13 950.72 339.72 898.37 449.45 783.74 559.05 919.40 562.86
00036834 00000070 605.52 134.04 405.62 562.24 771.94 328.10 952.83 335.76 902.64 443.38 786.79 552.61 924.74 557.32
00036835 00000071 604.68 117.10 406.31 571.20 763.99 330.00 949.62 332.11 904.31 441.86 784.56 547.77 930.88 550.41
00036836 00000072 608.73 113.80 400.91 569.74 763.61 326.99 949.76 329.41 904.14 437.35 785.01 543.52 934.21 546.17
00036837 00000073 606.86 99.87 402.76 580.72 765.58 323.39 947.62 326.52 901.46 432.18 787.91 539.68 930.62 542.73
00036838 00000074 611.68 104.24 398.48 571.88 766.69 320.64 950.43 326.93 901.61 426.77 789.54 534.59 932.77 540.28
00036839 00000075 611.82 94.87 396.36 583.12 766.12 317.72 946.66 325.64 897.93 423.23 783.98 529.79 926.91 536.85
00036840 00000076 607.80 96.01 397.95 581.25 764.46 317.96 942.56 324.92 895.82 423.34 780.53 529.01 922.06 535.54
00036841 00000077 607.98 97.63 393.85 574.44 758.66 319.33 945.66 323.65 896.18 425.09 777.39 531.83 928.79 536.18
00036842 00000078 604.12 100.19 396.94 574.02 754.87 319.38 941.42 322.32 891.84 424.21 775.86 533.70 925.39 537.18
00036843 00000079 602.09 97.68 397.88 579.57 752.42 319.98 933.12 321.66 888.24 423.27 777.48 538.42 917.93 540.97
00036844 00000080 603.38 101.90 395.24 580.90 751.66 320.68 929.23 321.84 886.60 427.43 776.82 542.49 912.42 544.83
00036845 00000081 599.11 111.56 398.38 575.12 748.32 325.37 925.97 324.72 883.48 431.47 775.91 546.64 911.23 547.46
00036846 00000082 590.43 133.91 400.41 557.06 736.32 335.65 918.73 326.10 877.67 436.86 770.74 558.44 911.12 549.99
00036847 00000083 588.90 154.94 397.94 546.42 731.04 345.33 909.42 333.59 868.81 444.31 770.31 566.05 906.12 554.44
00036848 00000084 586.38 170.58 397.65 541.68 728.04 351.67 907.43 339.58 868.87 455.18 763.07 573.38 900.81 562.40
00036849 00000085 587.82 183.19 397.28 535.03 724.90 357.10 906.09 344.02 865.59 463.81 760.44 579.17 900.41 567.41
00036850 00000086 580.99 184.77 401.10 541.84 719.50 364.72 903.65 349.26 860.09 469.83 756.86 585.95 900.12 572.06
00036851 00000087 579.60 190.07 401.80 543.63 716.97 370.45 903.05 358.37 856.34 474.59 752.87 590.83 898.70 579.44
00036852 00000088 578.66 186.09 401.68 552.06 715.94 374.88 900.73 365.47 851.34 480.59 747.96 593.16 892.95 584.35
00036853 00000089 573.47 193.85 403.05 549.78 712.15 382.27 899.19 371.38 849.96 488.82 740.60 596.71 890.53 587.27
00036854 00000090 567.60 194.70 403.04 552.19 709.35 384.40 890.63 376.74 840.09 501.58 733.82 598.65 879.06 591.60
00036855 00000091 563.68 211.74 405.20 539.30 706.49 386.99 890.73 379.24 837.23 506.82 729.12 599.99 880.15 592.96
00036856 00000092 560.38 214.13 406.17 540.47 702.11 392.77 886.32 383.77 830.48 514.41 723.98 601.09 881.46 592.92
00036857 00000093 556.81 216.91 406.31 542.49 699.13 398.46 882.79 388.21 827.73 518.41 719.63 604.59 879.07 595.34
00036858 00000094 551.10 221.16 410.39 544.93 696.88 401.24 881.44 389.93 828.26 526.72 715.07 609.68 876.74 599.96
00036859 00000095 540.99 217.98 418.61 556.45 694.17 411.29 881.53 396.98 826.38 537.85 710.88 617.24 876.74 604.77
00036860 00000096 543.53 227.94 416.66 558.53 694.03 415.93 880.32 402.75 825.23 549.82 703.24 623.45 871.24 612.53
00036861 00000097 545.80 247.01 415.39 548.78 682.32 422.10 871.04 416.13 806.69 553.06 694.66 630.92 864.15 625.68
00036862 00000098 531.29 258.91 416.10 539.81 664.81 433.85 862.85 429.64 792.94 562.08 684.12 642.54 853.73 640.05
00036863 00000099 520.99 271.65 427.94 540.23 647.66 443.87 856.41 443.94 762.66 587.97 666.26 658.79 829.85 656.75
00036864 00000100 513.81 263.94 435.02 558.13 652.16 450.90 852.79 459.88 764.15 607.51 660.03 670.08 815.66 679.25
00036865 00000101 516.92 276.74 435.27 552.47 657.63 468.72 856.23 473.50 769.57 626.88 664.78 681.62 823.54 687.76
00036866 00000102 520.20 259.12 433.85 586.04 659.01 489.97 859.40 484.52 779.14 629.23 677.02 696.25 846.89 693.10
00036867 00000103 524.30 281.00 439.81 577.13 671.97 502.69 870.70 495.19 793.08 644.33 684.66 701.40 855.24 697.30
00036868 DELETE   538.88 302.01 431.02 567.78 691.82 517.03 877.78 500.90 819.89 648.14 708.69 715.84 873.73 702.89
00036869 DELETE   552.09 300.93 434.65 558.72 715.74 516.78 902.37 490.27 856.36 640.77 734.68 710.83 901.23 688.70
00036870 DELETE   570.75 271.90 425.25 566.79 727.86 511.50 920.78 464.17 889.29 620.36 756.91 708.06 927.83 668.75
00036871 00000107 592.92 237.87 416.83 586.15 748.38 491.53 936.81 449.47 902.51 602.43 783.00 690.04 942.98 657.21
00036872 00000108 608.00 223.79 407.75 600.02 747.21 475.74 938.26 446.26 895.50 592.27 779.98 679.87 947.84 656.87
00036873 00000109 601.32 238.65 415.38 584.80 746.11 459.84 944.39 440.98 892.84 596.16 775.64 678.53 940.72 663.83
00036874 00000110 588.45 255.91 426.21 572.87 742.16 457.81 937.41 449.91 881.01 600.70 757.74 676.65 921.42 671.96
00036875 00000111 585.31 262.94 428.46 574.96 739.82 464.12 933.19 456.98 875.00 608.31 754.11 681.25 918.64 676.92
00036876 00000112 590.92 264.14 425.27 585.24 742.51 469.58 935.17 457.76 883.18 613.28 765.76 696.36 923.64 688.07
00036877 00000113 598.64 279.69 416.78 574.37 746.68 466.09 944.94 461.44 881.71 612.17 767.13 702.91 923.47 697.94
00036878 00000114 593.71 272.95 423.76 583.72 751.32 467.30 948.32 463.68 883.67 614.93 771.98 705.22 921.83 701.06
00036879 00000115 595.35 277.81 423.33 580.91 752.07 467.77 948.36 465.33 883.59 615.20 768.42 701.19 922.89 698.14
00036880 00000116 592.51 253.99 425.71 591.90 745.62 470.62 943.49 459.21 887.44 620.51 769.42 698.74 928.63 691.18
00036881 00000117 592.43 258.46 421.31 581.96 743.14 475.67 937.71 464.08 879.62 616.02 766.31 702.37 919.38 694.67
00036882 DELETE   581.23 252.99 427.05 581.37 734.65 474.67 925.43 471.09 856.09 607.38 746.84 696.16 897.26 695.17
00036883 DELETE   567.71 290.90 434.54 540.38 713.62 453.52 906.56 466.95 824.08 592.60 718.32 680.05 859.89 689.98
00036884 00000120 547.74 281.11 442.66 541.81 698.91 433.08 893.54 463.60 789.54 583.18 683.39 653.12 832.34 678.50
00036885 00000121 544.38 249.37 441.59 560.59 690.52 414.61 887.17 455.59 771.25 565.88 663.24 635.19 820.08 669.33
00036886 00000122 547.11 236.83 433.49 566.02 687.78 405.03 882.89 452.80 765.92 555.32 654.98 620.08 819.64 659.88
00036887 00000123 548.11 240.15 431.23 560.56 683.72 397.06 879.18 447.24 760.36 548.75 644.80 609.78 816.32 651.78
00036888 00000124 544.66 252.31 434.85 550.78 676.46 390.86 874.42 441.48 754.78 546.07 636.59 605.19 812.21 647.29
00036889 00000125 546.98 251.68 432.65 548.73 673.54 385.36 871.95 435.06 749.92 540.75 635.65 604.08 809.20 645.11
00036890 00000126 544.28 246.07 433.42 545.63 673.84 380.63 871.34 428.69 750.90 538.21 638.97 600.28 806.57 639.48
00036891 00000127 543.28 238.01 434.07 546.56 676.76 380.10 873.08 427.03 753.51 537.72 642.77 599.03 806.67 637.55
00036892 00000128 545.19 240.26 429.12 540.90 678.44 382.65 877.04 425.58 761.98 538.54 650.96 602.70 814.79 637.85
00036893 00000129 545.38 240.78 433.48 548.23 685.32 394.26 885.65 428.14 780.13 535.81 663.56 612.10 831.59 640.26
00036894 00000130 547.72 230.29 443.32 561.47 699.41 399.40 898.69 426.21 804.20 542.51 679.83 617.92 847.07 640.13
00036895 00000131 559.21 228.34 435.36 559.05 712.23 401.02 906.41 423.64 823.30 540.85 697.25 615.17 862.95 634.47
00036896 00000132 569.82 234.30 425.98 547.76 717.20 401.47 913.21 415.17 837.20 537.89 712.38 618.02 879.03 630.01
00036897 00000133 575.80 212.44 418.52 559.66 721.78 396.16 914.74 406.57 846.39 531.71 721.87 612.72 886.90 622.25
00036898 00000134 571.25 213.75 422.34 556.23 720.01 388.12 910.60 399.80 842.40 519.85 718.79 603.43 884.07 613.49
00036899 00000135 560.19 190.94 429.34 573.57 711.28 378.60 902.36 399.02 825.54 512.82 703.41 590.18 866.68 607.27
00036900 00000136 547.53 200.93 433.28 549.89 694.31 366.00 891.03 394.53 793.46 507.92 679.50 578.59 840.75 602.84
00036901 00000137 543.56 205.05 429.82 546.77 680.06 360.53 875.00 389.85 768.82 499.02 662.03 571.54 824.34 596.50
00036902 00000138 544.87 179.39 421.19 556.23 673.57 344.80 872.43 377.63 763.66 475.08 654.67 563.97 817.35 591.13
00036903 00000139 551.31 174.86 413.80 551.76 678.76 334.54 873.41 365.67 772.26 462.30 661.74 550.36 827.14 576.14
00036904 00000140 558.08 163.82 419.58 554.49 689.94 330.28 884.76 354.49 790.25 452.33 674.98 542.76 843.65 563.18
00036905 00000141 564.96 156.87 422.21 560.05 703.03 327.74 897.41 351.50 810.41 451.26 688.02 538.51 857.56 558.83
00036906 00000142 571.67 161.04 417.94 557.51 710.27 326.47 900.89 351.69 816.11 448.36 695.74 539.35 862.12 561.05
00036907 00000143 569.98 160.28 420.37 560.18 708.00 326.30 900.71 352.39 812.13 449.84 691.16 539.49 859.89 562.05
00036908 00000144 562.27 158.30 425.08 563.81 703.14 323.25 898.26 349.85 806.62 448.14 684.94 541.50 854.31 564.06
00036909 00000145 560.07 157.43 423.67 563.01 699.65 325.19 895.75 351.49 803.05 446.88 683.44 543.15 851.31 565.34
00036910 00000146 561.02 162.48 422.62 555.49 698.56 336.53 888.85 355.24 802.85 444.30 687.63 543.02 854.34 558.97
00036911 00000147 562.97 145.22 418.94 569.85 701.31 340.23 887.93 355.76 804.91 440.02 693.72 542.47 855.42 555.71
00036912 00000148 563.38 134.74 417.80 574.58 700.41 337.88 887.77 352.09 805.82 434.92 697.47 539.07 856.63 550.89
00036913 00000149 558.83 133.18 418.58 564.73 696.93 329.25 887.96 340.39 807.27 425.46 701.61 536.35 858.57 545.12
00036914 00000150 559.96 143.84 411.22 549.24 695.63 325.77 884.84 334.70 807.79 422.32 703.24 533.91 858.75 540.64
00036915 00000151 554.20 132.09 408.79 554.56 690.57 319.05 882.43 322.96 811.57 416.06 704.85 533.73 860.02 536.39
00036916 00000152 551.16 122.77 407.60 557.75 686.78 314.58 877.54 312.63 811.89 407.31 707.99 530.46 863.57 527.97
00036917 00000153 545.35 110.07 409.42 566.95 676.77 312.43 871.32 309.04 806.62 399.70 708.48 525.35 870.64 522.49
00036918 00000154 542.28 110.97 405.15 563.78 671.21 314.92 861.33 306.73 802.67 397.16 707.12 523.28 868.50 516.90
00036919 00000155 541.30 114.01 397.33 560.89 664.75 317.17 851.64 305.26 797.32 395.04 706.83 524.85 865.32 515.96
00036920 00000156 531.26 129.44 399.45 546.43 658.72 317.52 843.83 304.56 792.32 397.20 702.38 527.49 857.74 517.27
00036921 00000157 525.23 134.98 393.04 544.81 651.32 325.02 831.04 309.81 791.05 398.62 695.50 533.60 845.31 519.58
00036922 00000158 520.06 136.85 391.96 542.60 644.98 328.94 822.57 307.58 784.76 404.39 690.45 537.67 837.93 518.47
00036923 00000159 512.10 141.32 394.90 539.25 640.88 334.93 813.52 303.87 782.33 412.45 690.09 541.07 833.23 513.68
00036924 00000160 513.36 155.66 387.89 524.79 636.89 338.03 802.37 295.43 782.80 412.67 690.79 542.35 829.83 506.49
CROP_BBOX: 341 0 1426 1024
