Video ID: 	HTnQJDDeVqc
H: 	1080
W: 	1920
FPS: 	25.0

FRAME INDEX X0 Y0 W H [Landmarks (5 Points)]

00034677 00000000 992.84 187.08 329.71 534.00 1043.94 406.76 1186.97 419.55 1065.56 530.39 1076.26 601.82 1184.63 611.08
00034678 DELETE   992.45 187.57 329.42 532.18 1043.81 406.17 1186.45 418.46 1065.96 527.52 1075.35 601.34 1181.82 610.55
00034679 00000002 992.96 188.36 330.27 528.97 1043.87 401.18 1187.37 413.98 1066.45 523.38 1075.31 598.57 1181.95 608.43
00034680 00000003 995.14 183.10 329.80 534.64 1046.15 399.37 1190.65 412.53 1067.57 519.00 1078.38 599.56 1181.45 609.84
00034681 00000004 996.02 181.46 329.10 541.00 1047.59 397.08 1191.21 410.03 1066.79 517.31 1081.84 600.05 1182.08 609.70
00034682 00000005 995.32 179.88 330.11 545.65 1047.58 396.36 1190.66 409.17 1065.58 517.07 1083.32 601.00 1182.73 610.24
00034683 00000006 994.86 178.73 330.34 548.47 1047.36 396.59 1190.77 408.44 1065.60 516.57 1084.46 602.97 1183.00 611.30
00034684 00000007 991.29 181.96 330.50 547.49 1044.68 397.59 1188.07 410.74 1063.94 518.56 1080.11 601.55 1181.25 610.75
00034685 00000008 988.11 183.05 332.34 548.67 1041.45 400.82 1184.81 411.12 1060.89 517.72 1078.88 605.73 1178.27 612.51
00034686 00000009 988.49 185.86 332.86 547.29 1040.71 401.81 1183.32 413.82 1058.08 521.40 1077.85 605.89 1178.08 613.84
00034687 00000010 985.66 189.43 332.31 545.97 1036.87 403.71 1179.71 416.14 1054.76 525.75 1072.69 605.90 1176.36 614.03
00034688 00000011 982.38 193.78 332.98 542.67 1033.07 406.28 1172.65 417.80 1049.74 526.76 1069.89 605.96 1172.55 613.21
00034689 00000012 979.60 195.08 335.81 542.87 1029.74 407.17 1169.13 416.48 1046.79 526.01 1069.01 607.09 1172.16 612.42
00034690 00000013 978.95 196.84 335.58 542.33 1029.28 408.73 1167.37 417.19 1046.35 526.88 1068.95 607.04 1172.69 611.49
00034691 00000014 978.81 196.57 335.04 542.63 1029.18 409.62 1166.47 417.30 1045.79 525.99 1069.33 606.85 1173.26 610.57
00034692 00000015 980.70 187.15 338.88 545.21 1031.26 416.50 1159.03 411.65 1059.83 521.24 1070.45 609.50 1170.60 606.04
00034693 00000016 981.30 187.32 338.40 544.44 1030.24 417.18 1158.88 411.65 1058.69 521.60 1070.69 608.54 1172.99 604.24
00034694 00000017 981.18 197.40 331.36 542.35 1031.66 411.30 1163.59 416.59 1044.34 526.38 1075.77 603.41 1182.50 604.20
00034695 00000018 983.25 198.14 330.10 539.89 1033.02 411.49 1166.15 417.97 1046.67 530.36 1078.08 601.96 1190.21 603.46
00034696 00000019 986.33 196.39 329.05 540.02 1034.62 412.08 1166.96 418.60 1046.41 531.56 1079.26 600.18 1193.72 601.47
00034697 00000020 985.92 195.14 331.22 539.25 1033.47 411.01 1167.44 415.89 1047.38 530.32 1079.11 597.52 1198.73 597.37
00034698 00000021 985.64 194.46 333.47 539.00 1034.74 414.65 1165.35 415.98 1047.91 527.31 1081.91 596.26 1200.03 593.00
00034699 00000022 985.38 193.24 333.69 539.21 1034.15 413.63 1167.23 415.18 1050.54 528.19 1080.54 595.99 1202.96 593.16
00034700 00000023 985.60 193.83 333.62 538.72 1034.00 414.11 1166.31 414.83 1049.51 526.98 1081.17 596.28 1202.39 592.79
00034701 00000024 985.63 196.32 331.56 537.70 1033.20 414.84 1163.71 415.06 1046.56 526.75 1081.78 595.45 1204.25 591.07
00034702 00000025 986.95 194.77 329.74 540.94 1033.78 413.94 1161.39 414.23 1043.27 526.44 1084.89 594.44 1207.30 589.38
00034703 00000026 986.84 196.54 327.42 540.14 1032.66 415.75 1159.61 415.77 1041.87 529.96 1086.14 597.14 1207.99 591.82
00034704 00000027 983.31 197.32 330.32 539.02 1029.32 416.21 1157.95 415.72 1042.19 531.81 1082.67 597.87 1207.00 592.39
00034705 00000028 982.48 199.62 330.13 536.64 1028.76 416.36 1157.65 417.52 1041.63 533.02 1080.07 597.31 1204.21 593.42
00034706 00000029 981.11 196.53 332.45 539.56 1027.89 417.86 1157.56 418.78 1041.24 531.52 1077.18 599.18 1198.68 595.48
00034707 00000030 979.93 198.92 333.40 536.24 1026.69 416.73 1156.81 417.97 1040.63 530.96 1075.68 599.69 1193.31 596.89
00034708 00000031 979.55 199.20 332.56 536.11 1025.50 417.17 1157.44 418.11 1040.92 530.27 1072.12 602.15 1189.47 599.74
00034709 00000032 976.86 197.86 337.84 534.99 1020.81 414.97 1156.36 414.48 1038.95 527.43 1067.77 601.08 1184.49 597.94
00034710 00000033 973.98 194.77 337.43 536.29 1015.35 416.28 1152.10 409.03 1035.93 521.10 1062.52 601.33 1177.73 593.43
00034711 00000034 972.13 187.98 340.74 537.33 1015.06 417.37 1144.80 405.94 1039.86 514.83 1057.28 605.03 1166.52 595.46
00034712 00000035 966.36 186.42 343.28 544.98 1008.10 417.07 1138.79 403.27 1033.62 519.75 1057.32 608.87 1168.33 596.63
00034713 00000036 957.09 184.60 350.95 552.19 998.25 410.87 1130.56 398.79 1021.59 518.83 1044.19 607.57 1161.11 596.27
00034714 00000037 951.01 178.18 342.64 549.70 991.23 402.99 1128.31 395.31 1014.45 510.15 1028.30 601.59 1149.24 595.05
00034715 00000038 945.30 173.11 335.47 543.01 987.18 397.07 1130.27 391.37 1007.25 501.93 1018.19 596.91 1141.53 591.96
00034716 00000039 940.74 167.99 338.31 545.48 984.28 390.70 1129.13 388.47 1005.19 495.95 1010.94 593.72 1130.89 592.28
00034717 00000040 938.52 169.44 338.33 547.13 982.94 390.23 1126.33 391.02 1001.81 496.75 1006.95 593.01 1126.77 593.85
00034718 00000041 931.02 173.32 339.94 549.49 975.98 397.05 1119.09 396.64 993.63 505.20 1007.02 602.23 1119.72 601.84
00034719 00000042 922.11 190.42 333.79 536.23 964.05 410.52 1102.96 409.17 979.29 521.01 1005.59 608.06 1115.85 605.75
00034720 00000043 914.39 206.38 334.48 536.83 966.70 419.06 1098.79 415.58 983.02 519.02 1000.13 614.73 1107.83 609.53
00034721 00000044 911.51 218.25 330.73 536.09 962.77 427.17 1092.98 430.04 975.41 529.82 993.93 619.96 1102.32 619.28
00034722 00000045 906.89 219.67 343.13 547.91 945.59 435.90 1089.34 432.65 966.71 549.83 993.09 634.49 1108.14 631.48
00034723 00000046 897.80 223.14 350.40 555.57 935.03 447.80 1081.40 436.96 960.32 560.51 991.17 648.27 1108.23 639.06
00034724 00000047 901.34 225.90 345.96 558.00 936.23 457.35 1071.58 441.54 962.57 559.65 983.11 653.18 1103.72 639.37
00034725 00000048 897.79 225.02 347.70 572.49 937.10 459.17 1068.23 444.12 959.71 565.57 986.94 660.59 1104.64 646.84
00034726 00000049 891.26 229.84 352.34 574.16 932.23 458.43 1063.42 448.55 954.68 572.78 984.51 662.59 1102.92 652.65
00034727 00000050 886.95 240.55 361.41 567.19 930.48 463.58 1059.84 453.77 952.88 579.81 985.26 668.68 1102.29 658.38
00034728 00000051 887.56 243.99 358.99 563.06 930.13 466.31 1059.45 456.51 952.67 583.53 985.13 669.68 1102.39 659.44
00034729 00000052 886.76 245.26 358.30 558.57 929.37 469.87 1059.11 459.17 953.75 586.19 985.18 672.10 1100.90 661.33
00034730 00000053 885.69 243.36 355.80 554.35 929.26 470.02 1063.96 461.77 958.59 587.30 980.55 671.03 1097.42 662.67
00034731 00000054 887.60 240.04 354.32 552.56 929.94 471.70 1068.64 461.92 961.78 587.25 980.17 671.29 1100.34 661.65
00034732 00000055 892.10 240.73 352.28 546.39 931.82 472.76 1072.55 462.21 964.27 585.30 981.30 669.87 1102.60 659.98
00034733 00000056 896.70 237.86 355.30 546.28 936.31 471.98 1077.50 460.69 968.10 582.31 984.45 666.80 1106.39 656.14
00034734 00000057 901.32 238.02 354.17 545.26 944.32 469.41 1084.50 460.02 978.48 578.99 992.77 662.63 1113.25 653.19
00034735 00000058 907.24 230.09 344.55 556.46 953.14 453.51 1102.53 456.64 984.28 583.36 1005.51 653.62 1132.10 654.37
00034736 00000059 916.91 215.00 346.90 564.26 967.59 448.72 1118.26 452.82 1001.26 579.24 1017.71 649.00 1145.06 650.64
00034737 00000060 927.44 213.94 345.82 558.46 979.47 447.64 1132.02 452.15 1015.38 579.58 1023.26 647.17 1154.48 649.59
00034738 00000061 945.48 209.67 336.56 552.48 992.11 450.58 1136.42 461.88 1028.78 572.35 1037.27 639.90 1157.60 647.16
00034739 DELETE   956.34 203.37 340.97 555.09 1000.79 450.03 1144.08 461.75 1034.70 570.77 1045.71 638.02 1164.80 645.50
00034740 00000063 969.40 209.36 336.40 547.65 1010.61 445.51 1151.15 458.02 1042.17 569.40 1055.24 632.86 1173.79 641.25
00034741 00000064 980.70 211.99 333.13 543.36 1022.97 448.97 1162.45 461.33 1055.47 572.66 1067.69 633.34 1184.43 641.24
00034742 00000065 987.76 233.37 332.40 512.59 1035.60 447.01 1173.87 462.50 1061.80 582.17 1077.38 632.93 1192.58 641.32
00034743 00000066 995.29 231.76 335.78 512.17 1043.82 445.68 1184.54 464.24 1070.41 584.60 1082.72 631.52 1201.61 642.42
00034744 00000067 1002.66 231.69 333.48 513.78 1050.82 448.52 1191.78 468.05 1077.47 590.09 1094.05 634.88 1210.01 645.83
00034745 00000068 1011.58 242.67 325.93 501.80 1059.04 455.96 1197.78 470.38 1089.09 594.05 1107.67 641.60 1217.63 648.10
00034746 00000069 1015.08 245.30 335.61 510.10 1063.81 457.37 1203.32 475.77 1098.68 599.91 1114.30 643.31 1227.05 650.82
00034747 00000070 1024.18 258.14 334.05 495.38 1072.05 467.86 1205.41 478.99 1104.65 605.95 1126.00 652.58 1231.25 655.78
00034748 00000071 1025.73 261.72 338.52 499.71 1073.45 474.11 1206.90 485.00 1107.37 612.41 1129.96 657.83 1235.35 660.13
00034749 00000072 1025.95 265.79 342.98 501.01 1075.73 476.41 1210.29 486.75 1111.78 615.53 1134.07 660.52 1240.43 661.96
00034750 00000073 1030.27 261.69 341.30 505.56 1080.21 476.93 1214.59 488.46 1116.86 616.74 1138.40 662.43 1243.56 665.03
00034751 00000074 1032.82 256.11 340.04 509.56 1082.87 474.16 1219.19 484.69 1121.38 613.33 1139.84 661.04 1245.92 663.31
00034752 00000075 1039.44 253.64 334.45 505.96 1087.10 467.69 1221.21 477.12 1121.42 602.36 1143.56 654.94 1247.07 657.17
00034753 00000076 1046.19 243.87 330.56 508.74 1092.22 457.86 1225.46 466.86 1122.87 592.51 1146.68 647.01 1250.02 649.64
00034754 00000077 1051.09 239.67 326.92 511.32 1098.11 453.83 1231.06 462.23 1127.97 588.31 1150.47 643.88 1255.32 646.41
00034755 00000078 1057.55 232.38 325.49 515.79 1102.89 452.38 1236.66 460.56 1131.55 583.60 1162.12 647.45 1261.51 648.90
00034756 00000079 1061.94 235.22 332.94 540.41 1108.04 445.84 1250.44 460.21 1131.65 591.46 1169.96 642.27 1284.81 651.20
00034757 00000080 1065.60 254.26 329.32 514.51 1114.14 459.60 1246.45 463.78 1142.99 592.58 1176.97 649.57 1281.77 646.55
00034758 00000081 1064.37 266.19 335.67 499.80 1112.98 468.02 1249.39 472.99 1147.70 602.26 1176.10 654.36 1282.84 651.10
00034759 00000082 1063.36 266.88 337.20 500.47 1112.78 475.83 1247.48 482.72 1147.32 612.43 1175.66 660.79 1281.77 658.94
00034760 00000083 1056.52 265.42 340.37 504.77 1107.63 481.48 1244.14 490.29 1144.93 619.96 1171.65 665.30 1278.57 664.79
00034761 00000084 1051.36 260.73 339.88 514.60 1104.08 483.96 1239.02 492.79 1140.61 621.35 1165.77 668.34 1272.41 668.27
00034762 00000085 1047.44 260.65 340.40 512.96 1100.83 482.48 1233.60 489.68 1137.32 618.56 1162.74 669.23 1265.66 668.35
00034763 00000086 1050.41 257.74 331.77 504.42 1100.85 472.42 1231.79 482.46 1137.22 610.38 1160.63 661.10 1258.70 663.12
00034764 00000087 1050.65 252.63 332.82 505.85 1099.34 462.08 1230.70 468.66 1132.43 595.95 1156.75 652.15 1256.43 652.89
00034765 00000088 1051.41 242.97 328.75 513.41 1100.19 457.00 1228.54 463.53 1128.73 592.41 1159.02 647.02 1258.96 647.47
00034766 00000089 1049.70 243.88 328.40 520.28 1098.09 459.12 1226.40 463.95 1125.89 592.88 1155.37 650.89 1256.00 650.35
00034767 00000090 1041.17 248.01 337.67 520.76 1087.83 468.99 1221.91 472.78 1123.16 602.92 1147.44 663.68 1248.28 662.40
00034768 00000091 1029.62 254.76 340.75 522.16 1079.22 479.55 1214.89 483.97 1117.92 617.20 1140.95 675.02 1242.52 673.16
00034769 00000092 1019.92 270.44 340.49 514.46 1071.34 486.98 1208.25 495.00 1110.11 627.59 1130.73 682.09 1235.97 682.22
00034770 00000093 1013.89 272.18 333.12 509.88 1065.12 485.82 1204.52 492.48 1104.06 623.45 1120.08 677.81 1228.50 677.23
00034771 00000094 1013.05 259.01 333.18 517.23 1061.34 476.49 1201.04 483.21 1096.56 612.19 1115.29 670.37 1221.88 670.65
00034772 00000095 1011.04 255.23 335.31 514.03 1057.46 468.33 1201.59 475.02 1092.09 601.15 1106.15 661.59 1217.39 662.58
00034773 00000096 1003.46 248.79 331.51 517.63 1050.44 467.20 1194.32 473.99 1085.99 599.71 1099.86 661.18 1210.11 662.49
00034774 00000097 994.91 262.75 325.63 516.83 1043.47 472.54 1183.80 481.82 1075.26 611.76 1091.15 663.59 1205.40 664.88
00034775 00000098 981.97 261.68 336.04 526.56 1035.46 483.33 1171.77 491.78 1068.30 621.67 1089.59 677.78 1195.78 678.50
00034776 00000099 976.84 252.09 344.09 532.68 1026.05 484.62 1162.13 493.47 1062.31 614.37 1080.82 672.99 1188.51 677.89
00034777 00000100 973.03 251.00 342.49 535.85 1015.70 477.69 1151.92 480.63 1049.49 602.97 1068.19 670.30 1179.86 670.88
00034778 00000101 970.21 244.06 338.74 543.00 1010.36 466.97 1147.35 466.16 1040.31 588.01 1054.46 660.09 1173.78 657.95
00034779 00000102 960.65 221.11 344.11 567.68 1001.22 458.04 1144.58 465.02 1033.90 587.90 1043.68 655.14 1167.00 659.55
00034780 00000103 957.25 232.20 336.01 558.33 994.96 465.93 1138.99 472.18 1026.99 594.56 1038.75 659.10 1161.64 662.90
00034781 00000104 945.35 241.34 328.02 542.13 992.16 466.72 1130.36 472.77 1012.02 603.77 1037.80 661.47 1158.96 663.83
00034782 00000105 934.93 242.36 334.73 544.60 984.32 468.92 1123.71 475.75 1004.93 608.07 1035.46 664.54 1156.62 667.26
00034783 00000106 929.99 243.24 335.92 544.45 976.85 470.02 1117.48 478.00 998.77 614.96 1034.58 668.13 1154.53 671.51
00034784 00000107 926.89 245.96 329.56 544.74 972.33 471.79 1114.59 480.66 992.56 619.08 1028.90 669.86 1154.48 674.03
00034785 00000108 924.28 249.88 328.35 542.90 969.26 472.29 1111.72 481.34 989.93 621.09 1026.42 671.97 1152.81 675.97
00034786 00000109 922.54 256.99 331.07 539.51 969.36 476.89 1109.35 488.40 989.76 623.66 1025.99 672.31 1150.86 677.21
00034787 DELETE   922.10 251.66 330.74 549.21 975.66 489.79 1110.14 505.32 990.80 627.31 1027.38 676.31 1146.76 683.32
00034788 00000111 915.37 260.31 332.10 548.44 979.61 487.46 1116.44 504.38 1007.88 624.90 1033.49 682.34 1143.17 692.27
00034789 00000112 924.96 263.44 330.42 528.70 973.45 492.70 1112.49 496.71 1005.55 625.60 1029.79 691.83 1133.77 690.88
00034790 00000113 935.28 247.77 323.66 534.14 981.30 472.93 1116.78 473.85 1006.45 600.53 1031.10 678.45 1129.89 676.88
00034791 00000114 949.80 198.54 335.21 572.22 995.16 441.34 1129.14 451.05 1019.24 561.58 1035.31 645.87 1136.80 653.58
00034792 00000115 956.99 180.95 345.52 561.82 1003.95 417.31 1144.30 424.28 1029.12 529.50 1034.90 617.99 1143.76 623.98
00034793 00000116 970.72 171.88 335.20 559.39 1014.96 410.80 1152.54 410.42 1039.27 515.61 1045.86 607.63 1154.73 608.22
00034794 00000117 974.06 173.29 337.23 551.51 1011.83 399.72 1162.71 397.77 1032.70 506.45 1047.43 598.59 1164.20 597.29
00034795 00000118 974.72 170.37 344.59 555.98 1013.70 398.22 1165.91 395.99 1034.42 505.85 1050.96 596.30 1174.48 594.00
00034796 00000119 977.36 169.01 343.68 557.18 1014.31 399.46 1166.30 395.91 1035.01 506.77 1052.70 596.81 1179.38 593.36
00034797 00000120 978.44 173.19 339.84 555.32 1016.55 405.29 1163.17 402.08 1034.09 514.82 1059.00 600.43 1181.93 596.57
00034798 00000121 979.91 186.77 332.95 545.37 1020.98 412.96 1159.02 413.62 1033.07 523.70 1064.21 603.92 1178.93 602.52
00034799 00000122 980.01 193.44 333.22 542.35 1021.92 414.14 1158.50 416.97 1033.19 527.15 1065.66 607.59 1177.89 607.80
00034800 00000123 983.06 190.54 335.45 543.61 1026.07 412.45 1160.36 414.21 1033.45 521.46 1069.59 604.99 1179.38 604.26
00034801 00000124 987.85 186.50 334.07 546.46 1033.66 404.38 1165.60 409.12 1037.75 516.46 1079.32 600.99 1182.50 601.61
00034802 00000125 991.14 179.78 337.38 554.60 1036.81 397.45 1172.76 400.66 1044.67 512.78 1083.20 601.24 1190.59 600.74
00034803 00000126 995.17 172.35 333.11 560.09 1040.36 395.00 1176.47 399.41 1048.73 511.12 1083.19 597.25 1194.47 597.85
00034804 00000127 999.25 166.44 335.45 561.99 1044.90 393.53 1184.87 398.61 1055.04 511.90 1080.42 594.92 1201.58 596.60
00034805 DELETE   1011.05 165.94 328.87 558.76 1058.47 402.33 1190.36 403.84 1064.93 508.49 1089.17 594.33 1208.72 593.70
00034806 DELETE   1020.38 166.33 323.36 553.97 1064.00 400.79 1196.28 399.26 1072.91 501.56 1090.74 592.97 1212.58 590.54
00034807 00000130 1026.91 157.03 320.84 556.03 1063.50 388.85 1205.61 384.59 1076.68 490.41 1089.82 590.10 1215.79 586.99
00034808 00000131 1030.09 140.47 326.87 569.91 1065.77 382.90 1206.99 383.67 1083.41 480.59 1087.54 577.40 1207.25 578.64
00034809 00000132 1033.84 138.17 324.43 565.36 1066.81 376.69 1206.45 376.01 1082.34 471.55 1087.85 572.25 1204.20 573.05
00034810 00000133 1035.30 137.74 321.98 555.08 1070.16 367.78 1208.75 369.51 1086.07 464.63 1088.04 563.13 1201.08 566.37
00034811 00000134 1024.83 137.78 324.77 552.16 1070.54 362.92 1204.09 359.41 1085.08 459.60 1088.42 562.36 1199.63 560.01
00034812 00000135 1026.07 139.27 321.57 547.87 1070.27 361.22 1201.75 356.90 1082.81 457.19 1088.52 561.33 1196.68 558.40
00034813 00000136 1026.76 141.63 319.79 549.12 1069.44 363.31 1200.34 358.64 1082.06 460.18 1088.78 564.52 1195.81 561.30
00034814 00000137 1038.06 139.13 315.45 558.34 1071.29 368.94 1200.21 367.66 1079.51 465.44 1090.06 565.09 1197.89 565.85
00034815 00000138 1034.59 150.28 312.62 570.13 1069.25 374.63 1194.92 367.88 1064.80 467.77 1100.58 581.71 1203.69 576.57
00034816 00000139 1026.50 146.26 313.17 584.39 1063.24 374.69 1186.37 371.05 1054.48 471.69 1097.08 585.86 1195.18 582.39
00034817 00000140 1022.44 145.24 312.03 585.35 1059.88 376.48 1179.28 374.83 1048.73 476.18 1091.82 589.35 1182.84 587.70
00034818 00000141 1021.32 153.98 310.22 566.94 1057.66 373.37 1173.59 379.68 1043.75 484.33 1084.28 584.22 1175.70 589.58
00034819 00000142 1017.11 159.11 309.99 555.36 1051.91 377.48 1170.50 385.08 1039.00 489.21 1072.71 582.61 1167.60 589.71
00034820 00000143 1013.18 158.40 312.85 553.17 1051.01 382.61 1166.48 384.22 1046.15 487.54 1073.14 585.72 1165.56 586.52
00034821 00000144 1012.64 163.12 312.94 547.80 1054.12 390.08 1171.69 391.53 1052.54 490.33 1076.09 585.05 1172.35 586.07
00034822 DELETE   1020.30 164.15 312.44 544.62 1066.24 392.87 1188.85 393.11 1072.46 492.22 1085.37 583.91 1188.52 585.06
00034823 00000146 1030.14 159.04 322.14 543.30 1076.90 383.63 1218.01 382.78 1092.96 482.98 1095.13 579.29 1211.81 579.49
00034824 00000147 1034.83 139.34 330.07 555.43 1092.58 372.17 1233.56 370.84 1116.74 464.39 1106.94 569.15 1224.46 569.77
00034825 00000148 1046.25 139.11 337.96 545.16 1103.42 358.28 1252.44 370.33 1132.53 450.19 1115.86 553.14 1225.93 561.00
00034826 00000149 1047.81 134.10 336.32 543.02 1106.82 355.94 1260.02 366.16 1142.29 451.14 1119.45 551.05 1234.57 557.53
00034827 00000150 1045.66 134.01 338.97 544.30 1105.19 356.29 1260.67 367.20 1142.70 454.03 1117.78 552.74 1236.92 559.82
00034828 00000151 1045.06 139.67 339.18 545.73 1103.80 361.47 1262.84 372.16 1143.57 458.56 1118.06 558.99 1239.83 565.78
00034829 00000152 1038.94 144.95 350.02 553.92 1098.40 363.60 1269.64 369.30 1149.34 474.55 1115.46 569.71 1251.75 575.76
00034830 00000153 1041.31 150.63 350.76 551.81 1103.52 367.93 1277.80 377.81 1157.94 486.98 1118.59 576.87 1258.40 586.18
00034831 00000154 1043.69 154.95 346.16 544.55 1106.90 384.67 1274.61 396.25 1161.20 500.00 1119.42 579.32 1260.41 589.90
00034832 00000155 1037.47 164.92 346.71 541.10 1102.60 392.28 1268.54 406.32 1155.70 510.85 1113.15 583.82 1254.71 596.11
00034833 00000156 1033.89 174.90 348.61 543.08 1103.16 398.63 1267.38 412.52 1158.39 524.88 1114.95 593.14 1251.87 605.86
00034834 00000157 1030.33 177.72 347.55 549.74 1102.98 406.20 1264.74 419.14 1159.55 528.30 1116.86 602.24 1246.87 614.49
00034835 00000158 1027.12 180.01 347.81 566.14 1099.42 413.21 1261.07 428.60 1152.52 534.80 1111.11 608.71 1244.40 622.78
00034836 00000159 1016.69 182.90 351.61 575.33 1092.50 421.28 1251.99 439.93 1148.12 540.71 1103.93 614.44 1238.40 630.08
00034837 00000160 1008.87 201.04 351.86 571.29 1082.84 432.52 1242.95 452.94 1140.40 556.47 1095.99 626.72 1229.86 643.77
00034838 00000161 1005.62 218.68 350.97 565.25 1075.80 449.86 1241.42 461.88 1133.55 580.15 1090.86 650.35 1231.82 660.43
00034839 00000162 996.13 223.48 353.25 564.03 1065.92 453.47 1235.64 464.84 1128.40 584.01 1082.95 655.23 1225.38 664.65
00034840 00000163 987.19 220.74 353.53 564.19 1059.10 448.97 1229.64 461.02 1121.24 580.76 1081.00 653.47 1220.50 663.28
