Video ID: 	GUKVh9OpxJc
H: 	1080
W: 	1920
FPS: 	23.976023976023978

FRAME INDEX X0 Y0 W H [Landmarks (5 Points)]

00003461 00000000 724.10 213.27 452.54 660.77 833.34 469.19 1052.84 467.99 943.06 627.56 866.05 724.89 1026.96 724.77
00003462 00000001 727.01 207.78 453.43 662.43 838.47 465.25 1057.91 462.36 950.05 623.13 873.37 723.17 1032.34 721.35
00003463 00000002 727.36 205.03 454.11 667.45 842.92 465.17 1060.56 461.12 957.33 625.78 878.97 724.11 1037.38 721.16
00003464 00000003 724.09 215.76 455.20 667.76 843.96 478.52 1059.78 477.42 957.34 636.04 874.55 730.33 1036.53 730.40
00003465 00000004 722.94 224.06 454.89 658.09 841.86 481.25 1058.12 482.87 953.19 637.70 869.13 727.39 1034.83 729.83
00003466 00000005 720.15 223.84 456.38 654.53 839.36 479.90 1057.35 481.63 951.29 636.94 865.13 722.38 1036.26 724.77
00003467 00000006 719.29 216.68 456.15 657.39 839.08 474.31 1058.17 477.31 950.84 633.22 863.79 716.98 1036.37 720.15
00003468 00000007 718.95 212.63 455.59 660.03 840.40 465.63 1059.08 470.94 951.46 626.74 864.75 714.54 1032.91 719.35
00003469 00000008 718.26 216.76 456.70 660.90 841.56 466.35 1058.56 471.45 953.20 627.93 865.71 716.75 1032.01 721.58
00003470 00000009 716.49 222.29 459.37 660.92 845.13 468.34 1059.38 474.38 956.38 629.86 864.71 717.46 1030.89 723.37
00003471 00000010 713.87 218.14 461.70 669.85 845.45 470.12 1058.46 478.25 955.27 629.73 861.53 717.91 1029.21 725.50
00003472 00000011 709.36 208.05 462.24 679.01 838.97 456.19 1052.03 468.08 945.78 620.17 850.39 711.33 1020.56 721.73
00003473 00000012 709.85 205.90 459.37 671.88 836.50 443.82 1055.74 451.69 948.27 609.21 851.49 704.13 1021.01 711.96
00003474 DELETE   707.73 198.78 454.08 645.77 838.29 426.72 1054.78 437.49 947.85 590.27 849.89 675.74 1013.68 687.16
00003475 DELETE   711.83 173.70 456.11 650.77 845.22 407.65 1057.94 421.28 952.84 562.05 852.82 653.00 1016.45 666.17
00003476 00000015 715.27 138.44 461.68 667.81 873.21 370.00 1080.15 389.07 982.29 524.43 872.66 623.66 1036.58 639.16
00003477 00000016 720.83 127.29 455.91 676.03 883.61 365.01 1087.46 384.61 995.75 518.41 885.26 622.97 1046.32 638.33
00003478 00000017 723.88 131.14 451.55 672.03 886.81 371.37 1087.70 387.60 1002.43 523.76 892.11 628.44 1051.23 641.28
00003479 00000018 724.19 143.16 450.74 664.33 886.76 381.95 1083.36 394.49 1003.47 530.06 896.68 634.81 1053.86 645.27
00003480 00000019 726.08 145.65 447.85 668.73 888.12 389.92 1081.67 401.67 1005.82 536.33 899.00 642.27 1053.38 652.33
00003481 00000020 730.43 144.77 446.50 661.04 892.89 386.23 1084.92 398.28 1009.21 534.91 903.80 636.54 1055.62 646.64
00003482 00000021 730.41 135.25 449.44 669.22 899.41 376.01 1091.92 391.03 1016.77 525.20 907.86 631.00 1058.13 643.07
00003483 00000022 731.85 127.90 451.78 675.81 906.59 370.34 1095.47 388.39 1024.10 518.70 911.23 625.98 1057.06 640.39
00003484 00000023 736.59 130.78 446.44 675.83 907.19 367.39 1098.31 385.65 1026.29 516.65 912.61 632.15 1056.62 646.59
00003485 00000024 734.83 128.30 446.10 677.29 903.37 370.65 1094.92 388.58 1021.75 519.85 910.95 633.17 1054.39 647.32
00003486 00000025 735.34 130.49 446.69 673.43 902.29 370.73 1095.43 388.24 1020.38 520.02 910.02 632.72 1054.99 646.59
00003487 00000026 738.44 130.98 447.17 673.37 905.39 367.51 1099.68 384.60 1025.09 515.66 911.15 628.30 1060.12 641.74
00003488 00000027 750.64 129.04 440.51 663.60 924.62 352.21 1112.49 369.89 1046.75 492.44 928.65 608.45 1079.24 621.05
00003489 00000028 758.26 123.95 436.50 661.03 935.00 345.69 1122.21 362.04 1061.62 482.83 940.38 603.25 1092.41 615.02
00003490 00000029 763.20 119.10 434.75 665.46 940.32 342.33 1128.63 356.21 1069.17 481.11 947.74 604.02 1098.07 613.85
00003491 00000030 766.05 123.26 431.71 666.11 942.50 342.70 1129.61 355.36 1071.73 481.97 947.78 605.70 1099.76 614.64
00003492 00000031 762.49 134.00 438.72 659.10 939.93 359.47 1128.05 370.89 1064.76 492.49 946.71 607.48 1093.40 616.52
00003493 00000032 761.90 138.53 438.55 653.68 938.69 362.29 1125.87 374.46 1062.19 494.73 945.06 606.73 1091.68 616.29
00003494 00000033 762.23 139.72 439.05 650.29 940.42 362.32 1127.07 374.90 1063.30 495.15 947.52 605.70 1092.68 615.44
00003495 00000034 764.25 129.81 436.03 658.42 944.71 354.68 1126.30 370.23 1068.10 487.27 946.51 605.59 1094.81 617.23
00003496 00000035 768.58 128.97 432.62 655.45 947.78 353.68 1128.46 369.83 1070.20 482.09 951.11 603.05 1096.84 615.20
00003497 00000036 769.10 130.72 430.93 651.92 948.59 353.11 1128.09 368.73 1071.03 481.27 953.01 602.12 1097.91 613.65
00003498 00000037 767.62 134.61 430.91 647.26 946.84 352.56 1126.12 367.49 1070.79 481.23 952.81 601.37 1097.83 612.22
00003499 00000038 765.68 142.75 433.75 638.14 943.38 360.33 1124.93 371.77 1065.50 486.35 954.50 598.96 1095.87 607.41
00003500 00000039 764.41 137.83 427.99 637.16 938.34 352.73 1117.38 366.95 1065.28 469.99 949.12 597.42 1093.43 607.50
00003501 00000040 763.22 136.82 427.41 636.10 934.64 352.95 1113.65 366.32 1062.14 468.58 947.81 596.26 1091.77 605.57
00003502 00000041 762.15 140.13 425.70 629.86 932.61 352.69 1111.67 365.88 1060.14 466.70 947.04 594.54 1090.22 603.72
00003503 00000042 761.59 139.01 424.45 628.97 929.09 352.39 1110.00 365.61 1058.03 464.23 944.90 592.57 1089.55 601.73
00003504 00000043 760.23 140.96 422.19 623.77 922.22 351.66 1106.28 363.98 1053.22 459.42 940.06 588.40 1088.95 596.77
00003505 00000044 759.07 140.15 420.76 624.73 919.28 351.66 1103.97 362.75 1050.18 461.61 937.10 588.04 1087.39 595.39
00003506 00000045 756.43 136.78 420.86 627.00 913.82 353.58 1100.76 364.24 1044.78 462.01 931.85 586.59 1086.29 593.52
00003507 00000046 755.37 136.81 419.52 625.52 909.75 356.11 1097.74 366.78 1039.49 463.73 928.46 586.84 1084.90 593.83
00003508 00000047 749.47 143.39 417.81 615.21 899.92 359.47 1089.97 369.79 1029.69 467.23 920.96 588.18 1080.01 595.20
00003509 00000048 748.06 146.99 416.41 607.06 896.09 360.91 1085.75 370.17 1024.19 466.58 918.89 587.15 1076.86 593.39
00003510 00000049 743.56 151.12 415.22 601.94 891.75 360.82 1080.84 370.64 1018.88 468.32 913.42 587.54 1070.48 594.64
00003511 00000050 736.47 150.26 415.68 608.10 886.09 361.26 1076.39 373.08 1012.27 472.54 905.56 592.40 1059.95 601.52
00003512 00000051 726.32 146.43 416.34 615.27 879.64 373.18 1060.24 377.18 1002.48 470.94 907.75 600.59 1048.10 602.87
00003513 00000052 722.40 147.07 413.21 614.21 874.62 369.93 1052.19 374.45 994.53 471.51 901.78 600.14 1039.61 602.96
00003514 00000053 719.79 142.99 411.95 617.69 869.92 366.42 1045.48 372.63 988.77 468.47 897.42 597.54 1033.52 601.55
00003515 00000054 716.12 142.25 412.73 620.65 867.72 362.13 1042.74 368.01 985.88 467.73 894.85 597.45 1030.04 600.78
00003516 00000055 711.20 141.20 417.60 626.61 861.17 354.00 1042.49 359.52 979.03 460.29 886.60 595.41 1024.81 598.09
00003517 00000056 709.42 139.98 420.24 629.41 856.99 347.33 1043.57 355.54 975.40 455.29 874.86 590.21 1024.10 595.29
00003518 00000057 707.22 136.33 422.39 631.01 851.21 344.63 1042.73 352.19 972.37 451.30 870.22 589.23 1022.58 593.76
00003519 00000058 702.66 131.05 425.90 634.13 847.65 344.09 1039.58 351.56 969.26 448.94 868.83 588.53 1018.68 592.73
00003520 00000059 696.79 130.53 426.85 632.09 840.65 342.79 1032.88 349.41 963.79 445.45 864.17 586.96 1011.86 590.16
00003521 00000060 694.83 132.72 425.36 631.42 839.41 342.48 1030.91 348.96 961.54 446.98 861.84 587.76 1009.29 590.87
00003522 00000061 692.38 130.42 426.02 633.33 837.30 342.97 1027.93 349.83 959.54 447.12 859.03 586.35 1006.09 589.83
00003523 00000062 689.53 132.08 426.07 629.87 833.53 342.11 1025.00 349.02 955.34 445.89 856.34 584.99 1003.28 588.60
00003524 00000063 686.36 130.20 421.01 637.28 824.57 342.04 1017.44 350.74 948.66 446.43 842.09 586.13 1000.63 591.55
00003525 00000064 683.34 131.67 418.17 643.97 818.13 341.79 1014.01 352.75 944.81 445.66 832.58 589.63 1000.88 596.76
00003526 00000065 682.02 134.49 413.08 643.93 811.96 344.93 1009.39 355.79 937.99 447.94 823.82 592.07 999.30 599.11
00003527 00000066 677.38 132.15 416.80 640.02 808.95 350.74 1008.06 362.25 931.92 457.35 818.37 592.42 993.31 600.42
00003528 00000067 668.75 135.13 426.41 619.53 804.63 353.34 998.42 363.76 918.59 465.22 822.03 582.35 978.97 589.50
00003529 00000068 664.38 132.56 429.07 618.79 801.88 353.39 994.58 363.68 913.95 464.62 821.61 579.84 973.81 586.93
00003530 00000069 662.87 133.59 429.32 616.26 800.16 352.14 992.69 362.55 911.56 463.24 821.12 579.05 970.85 586.41
00003531 00000070 663.05 136.33 429.09 612.84 800.29 351.28 992.64 361.65 911.66 461.30 820.46 578.43 970.60 585.89
00003532 00000071 663.47 133.55 426.97 619.01 801.42 348.61 994.71 359.56 914.71 457.40 820.37 581.68 971.04 589.78
00003533 00000072 663.13 133.78 428.30 621.10 799.92 346.02 995.78 356.96 914.25 455.21 817.71 583.04 971.62 591.13
00003534 00000073 665.24 131.60 426.61 624.64 798.59 343.98 996.58 356.04 913.07 454.86 812.70 583.91 970.45 593.08
00003535 00000074 666.93 131.23 428.69 623.68 798.89 343.02 998.51 356.05 912.31 454.25 812.07 582.67 969.81 592.71
00003536 00000075 669.27 129.37 430.88 627.56 799.23 341.60 1001.82 355.26 913.58 451.54 812.27 582.62 971.67 593.10
00003537 00000076 672.90 126.46 428.83 637.56 801.74 343.67 1004.03 356.27 916.02 446.60 813.23 585.85 976.55 595.16
00003538 00000077 673.86 125.93 427.60 646.45 803.34 344.96 1004.63 356.54 917.15 441.77 811.98 587.74 979.57 596.01
00003539 00000078 676.54 124.34 427.95 647.02 804.64 345.23 1004.72 356.62 916.97 434.75 812.73 583.62 983.57 591.69
00003540 00000079 683.56 93.55 432.39 628.83 808.35 307.06 1019.10 322.96 917.55 409.22 810.43 544.69 990.75 558.42
00003541 DELETE   687.65 79.05 429.58 621.56 812.50 287.56 1017.42 299.79 924.35 382.78 819.31 524.06 993.44 533.26
00003542 00000081 688.96 65.64 437.61 616.35 816.91 269.49 1018.90 281.00 923.05 360.83 825.21 501.26 991.06 509.03
00003543 00000082 690.48 53.85 441.60 622.28 823.33 261.12 1023.69 276.48 926.95 348.67 826.72 491.37 989.85 502.55
00003544 DELETE   692.57 71.43 443.17 627.41 835.94 276.64 1035.86 298.40 940.10 382.16 836.06 514.78 995.68 531.09
00003545 00000084 702.02 71.98 441.60 638.98 844.80 286.68 1045.89 310.09 947.78 392.18 837.01 527.07 1001.26 545.27
00003546 00000085 705.87 78.44 450.36 640.85 852.99 293.75 1051.86 317.84 952.38 392.37 843.23 529.55 999.56 549.37
00003547 00000086 709.65 74.95 444.30 639.96 861.19 292.60 1053.13 320.80 959.99 393.49 844.52 524.00 1003.43 548.65
00003548 00000087 712.80 68.59 455.68 651.11 871.07 281.40 1072.07 312.87 976.48 392.51 866.53 519.59 1021.30 545.68
00003549 DELETE   715.78 78.69 450.88 650.96 870.95 289.18 1075.24 321.24 980.48 410.19 868.74 531.47 1024.62 557.72
00003550 DELETE   719.08 108.85 449.10 645.00 873.58 314.01 1074.60 342.66 979.80 430.43 869.39 553.13 1026.85 576.46
00003551 DELETE   718.00 119.65 450.24 648.19 872.48 333.72 1073.38 358.15 981.08 461.24 869.41 576.31 1028.59 596.01
00003552 00000091 724.70 116.10 452.22 661.12 883.34 344.41 1084.33 368.96 993.51 481.34 884.74 589.26 1039.45 609.32
00003553 00000092 725.74 113.14 451.02 666.06 887.50 342.25 1087.80 370.77 998.65 484.53 882.16 593.40 1039.23 616.03
00003554 00000093 725.87 110.41 455.08 674.57 892.44 345.01 1093.06 376.52 1005.71 489.95 884.78 596.94 1043.19 622.14
00003555 00000094 727.63 122.29 457.04 670.24 892.82 351.14 1094.83 381.39 1009.20 496.83 886.24 604.33 1050.79 628.54
00003556 00000095 729.51 142.97 459.10 666.60 884.96 382.95 1088.02 404.34 999.10 520.15 882.70 627.60 1054.83 645.64
00003557 00000096 730.94 163.68 454.89 659.90 882.37 384.30 1090.91 410.41 995.41 528.96 884.83 631.82 1048.05 652.04
00003558 00000097 728.68 169.26 455.90 655.55 878.51 383.87 1087.29 409.77 989.89 528.29 880.11 629.95 1044.26 650.11
00003559 00000098 729.66 164.77 454.62 652.24 876.62 380.88 1087.70 405.54 988.88 523.03 879.56 626.25 1044.51 645.47
00003560 00000099 730.17 149.43 456.75 644.20 880.12 375.15 1086.66 400.80 990.93 512.80 875.68 613.96 1049.26 635.20
00003561 00000100 735.63 147.95 454.60 640.26 884.68 376.14 1091.35 402.72 995.63 508.93 881.07 611.25 1053.46 632.98
00003562 00000101 739.60 149.81 456.11 635.55 888.62 378.12 1093.25 404.35 999.37 506.55 885.14 606.82 1059.63 628.04
00003563 00000102 741.30 150.74 457.71 634.34 892.49 380.49 1094.52 405.72 1002.69 507.23 889.43 605.93 1062.96 626.29
00003564 00000103 743.73 153.50 457.76 634.29 894.42 385.24 1098.13 410.70 1003.91 511.24 889.12 607.65 1067.60 628.35
00003565 00000104 745.71 162.96 454.97 628.83 893.12 387.60 1098.16 412.18 1000.93 515.82 888.85 615.12 1065.70 635.30
00003566 00000105 748.39 165.44 453.02 631.58 892.17 389.13 1101.26 413.45 1000.34 519.64 888.44 622.95 1066.12 643.13
00003567 00000106 749.62 169.91 449.53 629.18 892.88 389.14 1102.15 413.86 1000.84 521.53 889.59 627.91 1065.23 648.74
00003568 00000107 753.66 167.11 453.29 646.26 898.31 388.39 1106.15 411.24 1007.96 523.52 899.81 640.15 1063.91 659.30
00003569 00000108 752.24 177.41 460.39 646.85 907.41 389.67 1113.23 414.48 1014.92 526.60 911.19 645.61 1052.62 664.72
00003570 00000109 753.70 175.29 459.75 652.00 913.25 390.03 1116.86 414.20 1021.88 525.41 918.30 647.89 1056.58 666.47
00003571 00000110 755.62 180.11 457.79 650.01 917.93 389.98 1117.73 411.19 1028.63 523.59 925.43 649.03 1062.59 664.97
00003572 00000111 759.33 182.87 452.29 647.20 924.35 390.09 1120.24 410.34 1037.08 523.15 932.15 649.70 1069.01 665.08
00003573 00000112 759.46 185.00 450.41 647.84 923.86 390.05 1119.46 410.73 1035.44 524.37 932.16 651.10 1069.56 666.72
00003574 00000113 757.63 187.22 448.72 651.33 920.72 393.77 1115.83 415.64 1031.14 529.55 928.17 654.58 1065.46 670.92
00003575 00000114 754.52 186.72 449.61 652.53 914.79 397.95 1113.14 421.62 1026.65 534.58 921.38 655.71 1064.44 673.50
00003576 00000115 751.84 190.18 444.93 646.18 905.64 403.06 1108.15 430.27 1020.41 540.62 909.22 654.33 1060.07 675.41
00003577 00000116 750.92 191.80 448.51 647.10 906.24 402.40 1107.74 428.99 1018.66 537.45 909.47 653.55 1058.79 673.85
00003578 00000117 753.73 189.25 449.36 642.49 909.78 399.65 1112.08 425.38 1024.13 531.50 915.20 648.52 1066.41 668.08
00003579 00000118 757.82 185.57 446.55 640.07 919.51 394.39 1116.90 417.85 1033.49 526.39 926.54 643.03 1074.72 660.66
00003580 00000119 762.19 187.07 444.59 642.74 925.17 394.35 1117.78 414.81 1039.28 516.19 932.08 644.50 1076.23 659.80
00003581 00000120 759.88 180.45 443.47 656.17 917.58 404.91 1115.86 426.34 1034.32 518.21 922.46 648.99 1078.79 664.94
00003582 00000121 757.63 181.60 444.75 656.04 907.89 413.93 1111.03 435.04 1023.55 522.65 910.75 651.55 1076.34 667.51
00003583 00000122 757.71 181.03 440.97 656.32 898.98 418.18 1103.22 437.28 1013.89 527.28 902.02 653.91 1072.65 668.20
00003584 00000123 755.50 188.28 434.01 638.33 884.82 413.64 1088.85 428.24 995.15 519.04 892.91 648.86 1057.29 659.74
00003585 00000124 754.18 190.27 435.39 627.40 882.74 407.38 1088.30 421.05 992.12 515.03 894.49 642.46 1056.04 652.44
00003586 00000125 753.19 192.14 433.82 619.07 880.60 401.27 1086.62 415.64 988.97 513.44 891.92 637.39 1054.48 647.97
00003587 00000126 751.81 186.60 433.92 620.01 877.92 396.66 1086.56 412.46 986.91 511.96 888.99 634.64 1052.93 646.33
00003588 00000127 743.12 174.54 436.09 623.58 865.89 390.56 1073.66 404.15 973.72 505.74 875.70 625.66 1048.30 637.49
00003589 00000128 740.18 172.27 435.06 627.01 860.64 390.29 1067.49 402.28 963.92 505.13 868.76 626.76 1040.50 637.35
CROP_BBOX: 353 0 1560 1080
