Video ID: 	QtBS8COhhhM
H: 	1080
W: 	1920
FPS: 	25.0

FRAME INDEX X0 Y0 W H [Landmarks (5 Points)]

00038921 00000000 828.01 94.58 559.91 736.47 970.71 393.16 1195.61 326.61 1109.08 462.02 1067.80 650.50 1249.78 592.84
00038922 00000001 824.47 102.90 556.29 717.24 962.92 388.00 1186.33 321.49 1097.19 459.13 1063.02 645.43 1240.30 587.14
00038923 DELETE   817.51 108.10 555.97 712.78 957.94 386.72 1178.35 320.83 1090.92 457.97 1056.57 644.08 1234.71 585.56
00038924 00000003 810.19 103.78 559.35 714.89 952.44 390.50 1171.33 323.50 1083.41 456.78 1049.90 644.64 1227.11 584.81
00038925 00000004 795.45 105.48 564.75 716.73 946.21 395.48 1160.16 328.36 1078.94 457.52 1044.87 646.45 1218.30 586.55
00038926 DELETE   789.46 110.27 565.30 713.62 941.14 401.00 1155.97 334.02 1075.81 460.69 1038.44 649.17 1214.91 589.90
00038927 DELETE   789.74 113.73 564.89 715.81 944.01 414.22 1156.51 345.67 1075.40 464.94 1038.39 655.71 1214.43 595.61
00038928 00000007 788.35 123.67 560.06 710.41 941.56 413.80 1154.32 347.38 1075.62 470.13 1037.39 657.82 1214.58 599.68
00038929 00000008 788.93 125.83 555.07 709.91 938.50 415.17 1149.79 348.19 1074.73 473.29 1038.43 661.22 1214.24 602.79
00038930 00000009 786.87 126.49 556.39 710.18 937.97 418.56 1149.25 350.66 1077.59 478.65 1040.30 663.86 1215.35 604.87
00038931 00000010 789.99 137.00 551.76 702.22 938.40 424.52 1151.17 355.49 1079.89 482.73 1044.39 669.69 1216.78 610.34
00038932 00000011 788.94 136.64 555.75 704.35 939.06 426.90 1155.67 358.62 1082.18 487.75 1046.61 673.33 1218.65 614.91
00038933 00000012 790.67 137.27 557.98 707.06 940.65 428.16 1159.37 358.80 1086.03 491.89 1049.70 676.90 1223.00 617.73
00038934 00000013 791.38 136.08 560.32 713.21 942.92 430.34 1162.47 358.96 1091.47 495.53 1054.98 681.05 1228.91 620.31
00038935 00000014 795.35 141.80 561.39 710.73 945.29 432.88 1166.28 361.13 1094.10 496.99 1058.95 684.31 1232.62 623.34
00038936 00000015 797.65 146.11 559.86 706.31 946.96 431.50 1168.21 360.98 1096.04 500.07 1060.11 683.46 1234.52 623.51
00038937 00000016 799.50 143.46 558.41 707.72 947.86 431.32 1169.59 361.12 1097.60 502.19 1060.22 683.21 1235.01 623.84
00038938 00000017 799.59 145.82 557.15 704.30 947.41 429.87 1169.35 360.75 1096.84 502.31 1059.41 682.53 1233.82 624.09
00038939 00000018 799.61 146.61 557.49 703.89 947.03 429.01 1169.88 360.13 1096.81 502.72 1059.40 682.50 1234.32 624.21
00038940 00000019 799.09 145.96 556.60 704.49 946.79 428.93 1169.83 360.25 1096.94 502.46 1058.69 682.90 1233.86 624.79
00038941 00000020 798.06 145.21 557.87 707.12 946.31 428.95 1169.79 360.08 1096.69 502.35 1057.86 683.41 1234.39 625.05
00038942 00000021 796.04 142.68 559.00 711.13 945.83 429.50 1168.19 360.22 1095.90 501.12 1057.19 683.60 1233.05 624.85
00038943 00000022 794.01 143.42 558.36 712.70 944.97 429.58 1166.34 360.49 1095.00 500.73 1056.06 683.93 1231.91 625.10
00038944 00000023 794.34 145.12 557.11 710.79 945.07 429.16 1165.85 360.71 1094.45 500.78 1055.34 682.91 1230.88 624.61
00038945 00000024 793.87 144.12 557.28 711.43 944.81 429.27 1165.59 360.83 1094.26 501.44 1054.46 682.19 1230.58 623.97
00038946 00000025 794.66 146.16 556.21 711.18 944.76 429.21 1165.55 360.96 1093.81 500.69 1053.76 681.99 1230.95 624.02
00038947 00000026 794.61 145.82 556.28 711.41 944.70 429.41 1165.82 360.79 1094.26 500.75 1053.68 681.81 1231.78 623.51
00038948 00000027 795.53 146.08 555.38 709.73 945.12 429.54 1166.12 361.16 1094.34 501.54 1053.74 681.94 1231.18 623.91
00038949 00000028 796.25 143.71 556.41 712.49 946.32 429.05 1167.28 360.61 1096.16 502.35 1054.72 681.76 1232.80 623.68
00038950 00000029 798.04 144.05 555.00 710.29 946.68 428.13 1168.95 359.89 1097.02 502.93 1054.73 681.69 1233.09 623.95
00038951 00000030 799.00 142.79 556.43 711.26 947.55 427.56 1170.64 359.29 1098.71 502.65 1056.03 681.33 1235.34 623.67
00038952 00000031 802.00 142.97 553.27 711.14 949.84 424.50 1172.46 357.81 1101.27 502.31 1057.20 679.52 1236.98 623.28
00038953 00000032 802.93 144.61 555.50 709.00 951.54 423.82 1175.10 357.40 1104.46 501.61 1059.33 678.60 1241.10 622.54
00038954 00000033 803.52 146.04 554.28 707.65 951.85 422.67 1175.29 356.83 1105.08 501.74 1059.67 677.98 1241.67 622.38
00038955 00000034 803.06 143.56 555.11 709.01 951.28 422.23 1175.27 355.75 1104.77 500.32 1059.28 677.69 1241.15 621.49
00038956 00000035 801.75 144.25 555.88 707.74 950.96 421.86 1174.81 355.33 1104.62 498.63 1058.68 676.95 1240.53 620.59
00038957 00000036 800.15 142.03 555.66 710.10 950.49 421.97 1173.40 355.40 1103.64 497.79 1057.84 677.03 1238.43 620.64
00038958 00000037 798.73 141.44 556.80 711.38 949.89 422.35 1172.22 355.50 1102.03 495.47 1057.42 677.36 1236.59 620.59
00038959 00000038 797.33 139.21 557.19 714.15 949.09 423.67 1170.18 355.55 1100.32 493.08 1056.17 677.42 1235.65 619.51
00038960 00000039 795.52 139.40 556.73 715.47 948.73 424.53 1168.95 356.06 1100.01 491.76 1056.38 678.18 1234.89 619.90
00038961 00000040 795.64 139.16 555.08 707.44 945.94 427.09 1169.54 356.43 1096.31 494.26 1053.63 679.48 1231.97 619.46
00038962 00000041 794.40 137.27 551.52 702.69 944.51 427.38 1167.77 357.32 1094.89 495.08 1050.01 676.04 1229.60 616.41
00038963 00000042 790.89 138.58 551.52 704.87 945.22 428.02 1164.82 358.87 1096.36 497.18 1051.35 675.28 1229.19 616.12
00038964 00000043 787.42 140.53 553.27 707.69 944.67 431.56 1162.62 360.91 1098.15 500.85 1056.09 679.72 1231.32 619.19
00038965 00000044 786.05 143.63 552.48 712.83 944.77 431.75 1161.05 362.60 1099.01 500.93 1062.03 685.93 1228.41 627.09
00038966 00000045 784.81 143.60 552.66 717.10 944.25 434.00 1159.37 364.00 1099.32 504.03 1063.35 688.38 1229.04 628.94
00038967 00000046 783.71 143.18 555.15 718.72 943.17 434.17 1159.13 363.87 1098.87 503.98 1063.50 689.98 1228.97 630.34
00038968 00000047 785.98 145.74 553.86 710.32 941.59 434.86 1160.11 364.46 1095.46 506.85 1059.39 689.54 1227.00 629.76
00038969 00000048 786.18 143.67 554.18 710.25 942.44 433.24 1162.24 364.35 1094.45 506.51 1054.56 684.73 1225.12 625.75
00038970 00000049 784.79 142.85 554.45 710.47 941.82 433.21 1160.51 363.54 1094.65 506.32 1055.00 683.72 1226.34 623.94
00038971 00000050 783.98 144.64 552.96 705.79 940.79 433.87 1157.95 363.57 1093.78 505.49 1053.38 680.85 1226.23 620.42
00038972 00000051 782.64 144.78 553.07 704.72 939.02 435.86 1156.62 364.55 1092.56 507.82 1053.23 682.75 1225.15 621.62
00038973 00000052 781.49 152.28 549.96 699.32 938.00 436.88 1153.29 367.67 1090.60 513.90 1054.56 685.92 1221.42 626.77
00038974 00000053 781.09 159.78 547.37 697.67 938.80 437.56 1151.31 371.02 1090.75 517.53 1055.74 688.23 1218.72 631.59
00038975 00000054 777.22 167.37 563.00 691.52 941.58 442.02 1155.38 367.29 1094.94 515.94 1056.50 694.18 1218.09 626.68
00038976 00000055 777.59 168.42 562.21 688.73 941.08 441.94 1155.27 366.87 1093.89 514.81 1055.18 693.44 1217.35 625.64
00038977 00000056 781.51 157.96 552.52 701.04 938.11 436.83 1153.73 369.57 1088.97 514.80 1053.14 686.92 1218.45 629.45
00038978 00000057 781.62 153.75 553.32 705.12 938.29 436.03 1153.52 368.61 1088.98 512.61 1054.48 687.68 1218.52 630.21
00038979 00000058 781.09 152.79 554.19 707.56 938.53 435.43 1153.56 368.10 1089.75 511.63 1056.10 688.29 1219.76 630.90
00038980 00000059 781.50 150.92 554.79 709.51 938.73 435.76 1153.30 367.63 1089.85 510.67 1056.98 689.26 1219.80 631.25
00038981 00000060 782.32 150.67 555.16 706.07 937.70 436.26 1156.20 366.38 1090.45 511.46 1055.15 689.73 1222.73 630.05
00038982 00000061 782.04 146.55 555.36 709.81 938.35 436.20 1156.69 364.81 1090.93 507.09 1053.97 687.80 1223.04 626.58
00038983 00000062 782.14 147.66 554.48 707.37 938.34 435.05 1156.60 364.66 1090.07 507.30 1052.62 686.22 1222.29 625.76
00038984 00000063 782.12 147.35 554.11 709.88 938.84 433.21 1157.14 363.30 1090.19 506.43 1051.52 684.85 1222.06 624.64
00038985 00000064 782.14 147.22 552.65 706.26 941.01 431.71 1156.72 363.08 1091.48 501.78 1052.96 682.63 1219.74 623.61
00038986 00000065 782.84 145.36 552.78 706.05 942.19 430.13 1156.46 362.42 1091.10 498.79 1054.12 681.51 1218.58 623.34
00038987 00000066 783.38 142.41 551.51 706.30 942.21 428.37 1156.31 361.03 1090.91 496.60 1053.57 679.84 1218.31 622.14
00038988 00000067 785.49 142.18 551.59 702.06 942.02 427.27 1156.04 359.55 1089.47 492.63 1052.30 677.95 1218.23 620.10
00038989 00000068 787.75 140.09 549.32 701.75 942.91 426.08 1155.16 358.89 1088.74 489.87 1052.46 675.66 1216.96 618.29
00038990 00000069 787.27 134.38 550.75 705.28 943.62 425.36 1154.68 356.96 1089.11 485.46 1052.28 673.47 1217.76 615.07
00038991 00000070 787.36 131.54 551.59 706.85 944.85 424.44 1153.84 355.44 1089.84 481.26 1053.05 671.39 1218.95 612.28
00038992 00000071 787.99 131.08 549.98 705.96 945.53 422.75 1152.62 354.32 1090.34 479.82 1053.42 669.43 1217.89 610.72
00038993 00000072 789.29 132.90 550.33 703.58 946.15 422.24 1153.65 354.03 1090.45 477.92 1053.95 668.40 1217.80 609.88
00038994 00000073 790.53 132.32 549.63 705.02 947.09 422.18 1153.73 353.89 1090.95 476.92 1053.79 668.39 1218.20 609.87
00038995 00000074 790.93 133.24 550.07 703.82 946.74 421.63 1154.51 352.92 1091.08 476.96 1053.78 668.16 1219.59 609.27
00038996 00000075 791.50 132.83 549.61 701.72 946.88 421.13 1156.45 352.47 1092.17 478.79 1053.17 667.22 1221.11 608.38
00038997 00000076 792.42 128.89 552.39 701.41 945.15 421.77 1160.62 350.55 1091.15 481.50 1044.73 661.96 1225.86 600.42
00038998 00000077 792.55 128.19 554.34 696.57 943.90 421.02 1161.10 349.66 1090.14 482.60 1042.78 659.54 1225.33 597.88
00038999 00000078 791.71 128.36 555.84 699.03 942.97 421.54 1161.46 350.51 1089.51 484.42 1040.71 659.44 1226.22 598.05
00039000 00000079 791.33 128.55 556.49 699.44 942.08 421.92 1162.99 351.18 1089.34 485.74 1039.01 660.05 1226.78 598.99
00039001 00000080 792.02 128.13 554.27 701.22 942.57 422.06 1163.16 351.45 1090.18 486.79 1038.58 660.73 1226.85 599.83
00039002 00000081 792.44 129.64 553.16 700.56 942.59 422.65 1164.59 352.95 1091.47 489.66 1038.03 661.69 1226.97 601.76
00039003 00000082 791.40 130.79 556.22 701.65 942.65 421.85 1165.62 352.03 1092.75 489.41 1040.70 663.92 1228.58 603.86
00039004 00000083 792.21 132.89 556.21 699.80 943.96 421.72 1166.49 352.14 1094.49 488.38 1044.86 665.77 1229.21 606.24
00039005 00000084 793.06 131.91 555.12 700.44 944.65 421.55 1166.51 351.45 1095.52 488.60 1048.47 667.58 1229.91 607.68
00039006 00000085 793.60 132.35 556.88 701.40 946.50 420.94 1166.41 351.57 1095.88 486.29 1052.56 668.40 1228.11 609.25
00039007 00000086 794.47 132.61 557.18 699.30 946.84 420.43 1167.29 351.27 1096.37 486.42 1052.84 667.77 1228.74 608.85
00039008 00000087 796.02 131.35 555.90 699.54 947.54 419.93 1167.68 350.29 1097.03 485.25 1054.01 667.97 1228.89 608.82
00039009 00000088 796.10 131.47 555.89 703.09 947.99 418.75 1167.88 349.93 1098.07 485.67 1055.31 668.90 1229.54 610.47
00039010 00000089 796.37 132.29 556.45 703.86 949.07 418.47 1167.56 349.98 1098.64 484.68 1056.91 669.65 1229.88 611.46
00039011 00000090 796.22 132.86 558.49 702.81 949.24 417.69 1168.27 349.77 1098.79 484.99 1057.49 669.52 1230.44 611.78
00039012 00000091 797.18 132.41 558.18 702.80 949.94 417.80 1168.49 349.62 1099.43 484.09 1058.01 669.66 1231.10 611.66
00039013 00000092 797.97 133.05 558.22 702.70 950.90 417.57 1168.92 349.47 1100.16 483.16 1059.64 669.69 1231.48 611.76
00039014 00000093 798.09 133.65 557.48 701.38 951.31 417.38 1168.77 349.49 1100.37 483.03 1060.50 669.62 1231.30 611.78
00039015 00000094 799.21 134.20 557.37 701.64 952.02 417.44 1168.89 349.70 1100.62 482.25 1061.05 669.51 1231.71 611.77
00039016 00000095 799.20 134.38 558.23 702.86 952.90 417.64 1169.49 349.60 1102.06 481.91 1062.68 669.82 1233.24 611.83
00039017 00000096 799.39 134.45 558.61 703.53 953.35 417.48 1169.39 349.30 1102.81 481.38 1063.73 669.83 1233.79 611.74
00039018 00000097 800.89 135.61 556.97 702.89 954.52 416.07 1169.66 348.04 1103.97 481.17 1065.85 669.31 1234.55 611.32
00039019 00000098 802.10 133.65 554.54 702.14 955.77 415.44 1169.56 347.53 1105.01 479.44 1065.99 667.11 1234.03 609.31
00039020 00000099 802.70 133.28 552.76 703.93 956.15 414.67 1169.46 347.25 1105.45 479.77 1065.97 666.66 1233.98 609.24
00039021 00000100 803.99 132.89 553.39 705.08 956.49 415.02 1169.86 347.25 1105.06 479.82 1066.23 667.01 1234.02 609.46
00039022 00000101 804.42 132.70 553.75 706.07 957.13 415.07 1170.81 346.89 1106.01 479.57 1067.68 667.73 1234.82 609.99
00039023 00000102 806.29 131.93 553.22 706.97 957.45 415.02 1171.26 347.01 1105.76 480.18 1067.17 667.56 1235.37 610.06
00039024 00000103 806.75 133.88 553.64 707.88 958.16 415.74 1171.21 347.82 1106.38 480.64 1066.57 667.42 1236.94 609.83
00039025 00000104 807.97 133.96 552.63 708.81 958.95 415.56 1171.93 347.97 1107.13 481.97 1066.93 667.68 1237.91 610.49
00039026 00000105 809.36 133.96 552.53 708.13 959.13 415.61 1172.68 347.33 1107.51 482.29 1068.11 667.80 1239.31 610.15
00039027 00000106 810.02 135.65 553.72 705.64 959.48 416.14 1173.92 348.04 1108.31 483.00 1069.33 668.31 1240.95 610.90
00039028 00000107 812.26 135.42 554.06 701.12 959.67 415.33 1175.89 347.09 1108.00 484.08 1070.46 668.01 1241.99 610.84
00039029 00000108 814.27 134.52 551.73 698.85 960.77 414.38 1177.24 346.09 1108.52 483.96 1071.29 666.57 1244.34 609.32
00039030 00000109 816.25 129.36 552.85 699.78 961.62 416.09 1179.12 346.02 1108.78 484.61 1072.40 666.29 1246.33 607.62
00039031 00000110 819.06 129.33 553.71 696.83 961.71 417.15 1181.00 346.16 1108.61 487.26 1073.80 667.28 1247.03 608.21
00039032 00000111 821.77 129.88 553.61 694.22 962.46 418.47 1183.07 346.18 1110.12 490.40 1075.22 666.96 1250.88 606.97
00039033 00000112 823.47 132.43 551.30 695.24 964.88 419.67 1183.59 347.11 1113.24 493.24 1079.30 669.22 1253.13 609.01
00039034 00000113 823.55 131.44 554.93 701.67 966.54 424.04 1187.00 348.73 1117.06 496.50 1082.58 673.78 1257.61 611.11
00039035 00000114 825.30 132.27 552.28 702.43 968.48 426.26 1190.48 350.12 1121.53 498.26 1083.11 674.11 1260.83 610.93
00039036 00000115 826.82 132.93 553.10 710.31 970.97 427.71 1193.15 351.60 1125.80 501.18 1086.65 677.98 1265.15 614.58
00039037 00000116 827.06 138.71 550.81 711.05 974.13 427.58 1194.70 354.14 1130.57 506.17 1091.91 682.31 1264.97 621.11
00039038 00000117 828.18 145.41 552.49 708.38 975.93 427.88 1197.03 356.12 1132.59 511.38 1092.32 683.18 1266.88 623.21
00039039 00000118 830.44 145.83 550.85 708.12 976.58 430.40 1197.59 357.63 1134.02 513.89 1093.00 685.08 1268.67 624.31
00039040 00000119 831.02 146.31 550.07 709.11 977.32 432.09 1197.44 358.52 1134.97 516.99 1095.27 687.42 1269.39 625.85
00039041 00000120 830.77 142.40 551.73 712.24 979.43 433.39 1198.10 359.74 1136.57 516.05 1096.55 685.84 1270.03 624.14
00039042 00000121 833.55 141.86 549.77 711.60 981.29 435.27 1200.03 360.69 1139.42 518.33 1098.08 686.68 1272.42 624.26
00039043 00000122 833.49 145.13 551.68 710.24 982.67 435.55 1201.75 362.05 1141.39 519.84 1098.72 686.72 1273.46 625.14
00039044 00000123 835.01 146.01 549.32 707.56 984.35 436.24 1202.29 362.21 1143.40 519.87 1102.22 687.76 1273.56 625.90
00039045 00000124 836.24 149.63 550.09 703.06 985.29 435.41 1204.23 362.13 1144.13 519.48 1102.90 686.77 1274.44 625.54
00039046 00000125 838.25 147.95 550.69 706.01 986.42 435.57 1206.04 361.85 1145.63 521.01 1101.86 686.45 1277.50 624.55
00039047 00000126 838.67 147.42 558.37 710.91 986.39 435.62 1207.21 360.83 1144.69 519.10 1099.54 686.00 1280.04 623.23
00039048 00000127 839.86 147.09 559.58 709.31 987.66 435.02 1208.78 359.33 1145.56 518.01 1099.93 684.20 1281.69 620.56
00039049 00000128 838.92 148.65 558.28 712.01 988.25 433.79 1209.15 359.41 1147.51 518.45 1100.66 684.84 1282.45 622.07
00039050 00000129 838.49 149.60 554.70 711.66 990.36 434.76 1208.16 361.62 1149.00 518.74 1106.36 686.56 1280.37 624.73
00039051 00000130 838.76 149.93 556.26 712.79 989.07 435.50 1207.14 361.99 1147.43 519.18 1106.70 688.39 1280.07 626.42
00039052 00000131 839.68 148.77 561.66 711.31 986.64 434.95 1208.69 360.08 1144.34 519.14 1103.56 688.65 1281.09 625.73
00039053 00000132 839.31 149.75 559.22 706.99 985.92 433.74 1208.54 358.23 1144.76 517.69 1103.49 687.40 1280.68 623.94
00039054 00000133 840.99 150.42 556.10 703.86 988.20 429.44 1209.27 355.97 1145.55 513.16 1105.38 683.25 1278.90 621.50
00039055 00000134 841.41 146.57 553.34 709.35 990.59 428.35 1208.04 355.21 1147.67 506.93 1107.46 681.83 1279.34 620.49
00039056 00000135 843.63 141.79 554.11 710.58 991.82 426.10 1210.18 354.06 1148.29 502.21 1105.81 678.46 1279.97 618.12
00039057 00000136 841.69 136.19 552.20 709.38 998.32 420.50 1212.11 351.44 1150.33 501.71 1105.14 672.89 1280.96 612.75
00039058 00000137 844.46 135.09 551.16 704.03 998.40 419.77 1211.71 349.95 1149.01 500.30 1105.62 670.14 1280.58 609.45
00039059 00000138 846.17 130.86 548.91 702.44 1000.36 418.62 1211.51 348.70 1149.58 497.45 1106.98 667.13 1278.88 606.35
00039060 00000139 846.55 125.93 550.71 703.82 1002.11 417.26 1210.84 347.76 1149.77 494.18 1108.02 664.49 1278.08 603.91
00039061 00000140 848.21 128.35 550.33 698.37 1003.65 416.01 1211.12 346.45 1150.96 490.60 1110.04 662.10 1279.58 601.25
00039062 00000141 848.39 128.46 553.15 699.44 1003.52 415.18 1211.98 345.54 1150.45 489.74 1109.80 662.19 1280.56 601.18
00039063 00000142 848.58 123.58 554.80 705.70 1005.20 415.82 1213.24 346.62 1151.46 489.63 1110.07 662.65 1281.47 602.06
00039064 00000143 849.29 121.62 555.98 708.97 1006.70 416.00 1215.62 347.15 1153.25 490.54 1110.72 662.88 1283.55 602.68
00039065 00000144 850.99 122.07 553.48 707.56 1006.90 418.24 1217.65 348.69 1154.24 494.20 1109.94 664.41 1284.73 603.88
00039066 00000145 851.00 121.61 553.19 708.11 1007.16 420.00 1218.94 350.39 1156.16 497.47 1110.09 664.89 1285.97 604.48
00039067 00000146 852.85 125.51 552.11 701.57 1006.29 420.38 1221.79 351.78 1156.55 501.43 1109.39 665.69 1286.53 606.59
00039068 00000147 853.14 126.79 550.95 702.47 1006.33 421.53 1222.79 352.55 1158.18 503.71 1109.85 666.47 1287.86 607.12
00039069 00000148 852.51 126.37 551.19 703.74 1006.48 423.02 1224.11 353.30 1159.99 505.64 1111.16 668.00 1289.52 608.05
00039070 00000149 851.21 124.76 553.20 706.52 1006.75 424.41 1224.65 355.11 1159.93 508.01 1112.39 669.70 1289.25 610.05
00039071 00000150 850.85 126.45 553.76 705.55 1006.78 424.98 1225.21 355.73 1160.01 508.62 1112.83 670.40 1289.85 610.62
00039072 00000151 850.93 129.14 553.99 703.84 1006.48 425.87 1225.80 356.45 1159.96 509.38 1113.46 672.21 1290.33 612.37
00039073 00000152 850.79 130.11 554.44 702.35 1005.95 427.46 1225.63 357.71 1159.30 510.86 1113.73 672.99 1290.28 612.87
00039074 00000153 850.93 130.61 555.35 704.64 1006.58 427.54 1226.65 358.29 1160.11 512.56 1114.21 674.54 1291.68 614.90
00039075 00000154 851.18 131.37 555.84 704.57 1006.79 428.18 1227.12 359.36 1160.02 513.54 1114.03 675.70 1291.74 616.42
00039076 00000155 851.06 130.54 555.55 705.51 1006.70 428.81 1227.35 359.48 1160.58 515.04 1114.86 676.71 1292.53 616.97
00039077 00000156 852.36 131.46 556.78 705.44 1006.74 429.06 1228.31 359.54 1160.30 515.62 1114.94 677.13 1293.61 617.28
00039078 00000157 852.17 125.54 558.27 713.72 1007.15 430.04 1228.79 359.88 1161.47 517.12 1116.00 678.67 1295.39 618.32
00039079 00000158 853.09 131.18 557.53 711.24 1007.30 430.57 1229.46 360.94 1161.76 520.03 1116.72 680.34 1296.13 620.52
00039080 00000159 852.19 128.12 558.83 716.76 1007.62 431.18 1229.35 361.39 1162.29 520.89 1117.58 681.00 1297.11 620.95
00039081 00000160 852.08 127.90 558.44 719.65 1008.23 431.19 1229.22 362.16 1162.95 521.18 1117.55 681.55 1296.96 622.21
00039082 00000161 851.04 128.30 558.33 719.73 1007.32 432.52 1227.96 363.56 1162.48 523.29 1116.54 683.17 1296.44 623.96
00039083 00000162 849.56 132.96 557.85 722.50 1007.75 433.36 1227.53 365.09 1163.20 524.85 1116.35 684.63 1296.42 625.86
00039084 00000163 844.83 136.88 562.83 737.91 1006.71 435.39 1224.75 366.98 1164.29 526.48 1117.20 691.41 1298.46 632.27
00039085 00000164 842.80 139.49 565.47 751.46 1006.38 439.96 1222.89 371.11 1163.87 532.61 1116.12 698.36 1300.83 638.51
