Video ID: 	bLGNyipyUdU
H: 	1080
W: 	1920
FPS: 	25.0

FRAME INDEX X0 Y0 W H [Landmarks (5 Points)]

00003680 00000000 444.84 272.51 395.70 515.70 553.52 476.62 726.92 443.76 667.56 582.24 595.82 653.20 754.48 625.99
00003681 00000001 445.71 274.39 395.66 514.22 555.55 476.03 727.86 443.63 669.42 582.48 598.11 654.09 753.64 627.22
00003682 00000002 447.33 270.89 396.19 517.40 557.45 477.74 730.73 442.86 672.95 584.64 603.74 658.20 755.59 629.11
00003683 00000003 448.81 275.13 391.93 511.92 560.01 477.30 733.29 444.62 675.76 587.72 605.68 661.06 753.49 634.05
00003684 00000004 450.62 282.45 390.06 506.38 561.54 478.50 735.26 448.15 676.40 590.87 605.51 663.14 752.39 638.08
00003685 00000005 448.42 284.35 391.28 506.83 560.69 481.09 734.31 451.76 674.85 596.80 604.15 666.55 748.35 642.49
00003686 00000006 447.05 286.17 390.01 508.41 559.71 484.59 732.61 457.10 672.58 602.37 600.71 670.25 742.71 648.02
00003687 00000007 443.20 283.38 389.82 514.79 556.55 484.59 729.03 460.68 668.49 603.86 594.63 670.64 737.65 651.58
00003688 00000008 437.83 276.16 393.03 526.66 552.26 482.64 724.00 461.03 662.77 601.46 592.53 672.97 733.44 655.34
00003689 00000009 433.43 272.96 393.23 532.11 551.22 484.23 720.90 464.19 659.23 591.25 594.82 676.45 727.56 659.54
00003690 DELETE   432.92 271.30 391.17 533.37 553.08 487.96 719.82 468.68 659.20 586.75 594.26 675.32 726.07 658.83
00003691 DELETE   426.00 262.88 394.00 536.57 548.45 480.46 717.54 463.23 656.86 579.56 587.74 666.81 723.64 651.66
00003692 00000012 420.28 265.70 393.29 530.26 541.87 471.18 712.31 453.71 650.95 576.01 580.67 660.38 717.05 645.25
00003693 DELETE   410.33 260.99 397.35 532.79 531.95 462.30 706.98 445.55 641.71 569.68 566.15 651.18 712.10 637.41
00003694 DELETE   404.55 265.61 397.33 522.43 520.30 458.43 696.72 444.79 627.81 568.47 555.16 644.04 704.06 633.30
00003695 00000015 397.95 271.96 394.52 512.65 505.70 455.50 682.71 440.46 611.40 563.03 546.44 645.21 689.87 632.86
00003696 DELETE   385.40 257.39 394.97 526.52 489.65 459.88 664.71 427.94 601.10 562.47 535.61 654.04 684.91 626.48
00003697 00000017 378.09 245.26 392.72 535.24 476.86 453.71 653.60 421.83 586.98 559.01 526.46 654.47 671.83 626.24
00003698 00000018 373.33 237.71 391.10 540.63 470.54 451.23 642.75 417.99 579.04 552.68 519.98 648.95 660.94 620.15
00003699 00000019 369.21 234.27 389.45 542.47 466.36 448.31 634.81 416.82 571.05 547.76 510.44 637.54 654.91 610.71
00003700 00000020 365.41 237.09 391.58 537.42 462.30 448.81 631.82 416.11 568.22 546.21 502.91 629.74 658.48 601.76
00003701 00000021 361.72 238.38 394.62 536.53 459.53 449.99 630.52 416.08 567.67 547.13 500.90 628.52 660.09 599.36
00003702 00000022 360.07 235.10 394.56 542.02 458.62 451.53 629.03 415.59 567.51 550.11 503.40 633.14 658.44 602.14
00003703 00000023 358.75 237.72 394.64 543.22 458.03 453.78 628.42 416.06 568.13 556.49 506.78 640.98 658.05 608.41
00003704 00000024 356.48 246.91 395.72 536.57 455.48 457.75 624.60 417.05 565.11 558.37 511.62 650.04 655.96 614.58
00003705 00000025 353.94 246.07 395.85 539.43 453.80 460.87 621.18 419.11 562.70 560.41 513.13 655.23 653.24 618.88
00003706 00000026 352.01 243.91 396.32 544.43 449.86 463.62 614.58 420.89 557.17 560.89 513.18 658.66 650.89 621.53
00003707 00000027 346.27 247.53 400.18 540.70 445.17 464.67 611.11 422.33 551.59 560.39 509.81 658.47 647.88 621.73
00003708 00000028 342.03 251.36 404.16 539.80 442.05 470.47 608.27 428.86 547.75 565.03 505.24 659.89 648.76 623.79
00003709 00000029 341.15 259.50 405.36 536.75 441.66 476.30 609.11 436.02 547.50 576.27 504.53 666.06 649.87 631.03
00003710 00000030 343.08 264.30 402.90 536.39 445.23 485.40 610.84 446.16 551.67 587.25 509.26 674.51 648.89 640.38
00003711 00000031 348.10 271.90 401.43 531.88 451.60 495.06 616.17 456.19 559.27 601.95 515.94 681.83 652.32 648.19
00003712 00000032 350.12 276.76 401.84 528.98 454.98 496.54 620.81 456.99 565.68 602.98 519.41 685.48 654.31 651.65
00003713 00000033 353.97 278.50 402.43 527.36 456.86 496.58 624.97 454.65 569.84 603.12 518.29 682.64 660.67 647.18
00003714 00000034 355.85 275.14 404.83 529.47 457.90 493.66 626.81 452.36 570.02 603.68 516.67 678.34 662.26 643.61
00003715 00000035 356.67 272.31 405.57 529.29 458.76 491.35 628.95 448.90 571.78 603.04 519.10 677.58 663.99 641.75
00003716 00000036 359.84 264.34 406.23 537.22 461.55 491.03 631.34 447.68 573.85 602.10 523.46 678.45 667.23 641.88
00003717 00000037 363.86 266.09 406.77 534.89 465.76 494.33 635.82 448.11 578.96 602.05 527.70 678.72 672.90 640.06
00003718 00000038 367.24 270.71 406.13 531.02 472.02 496.08 643.33 447.17 588.40 600.55 534.19 680.48 679.18 639.73
00003719 00000039 376.72 267.76 405.31 533.50 479.75 493.56 650.24 447.40 592.16 594.45 546.44 675.51 692.59 636.96
00003720 00000040 382.06 274.28 404.60 530.44 485.02 497.68 655.37 450.96 596.32 598.92 546.64 678.05 698.66 638.76
00003721 00000041 385.40 279.57 403.59 526.49 487.89 501.16 657.13 454.29 597.87 604.14 549.16 679.61 702.84 639.93
00003722 00000042 389.68 281.41 403.96 525.55 491.87 502.50 660.21 457.50 599.85 606.57 552.55 680.43 706.08 641.88
00003723 00000043 393.32 279.45 404.20 527.82 496.00 502.19 666.01 459.28 604.38 609.21 554.25 680.04 710.26 643.34
00003724 00000044 397.43 276.89 404.66 531.04 500.57 500.69 673.23 460.16 610.09 612.12 554.75 677.05 716.72 642.62
00003725 00000045 401.04 279.94 405.10 527.21 504.42 499.01 679.55 459.88 615.43 613.30 555.59 673.70 721.81 640.73
00003726 00000046 404.13 280.97 406.06 526.52 505.51 497.06 684.31 457.59 618.16 612.01 555.90 671.81 727.68 638.55
00003727 00000047 407.62 279.85 406.42 528.05 507.85 497.35 687.29 456.52 621.59 611.10 558.15 671.54 732.52 637.17
00003728 00000048 408.15 279.74 406.75 528.12 509.29 496.58 687.87 456.85 622.33 611.09 559.08 670.54 732.15 637.13
00003729 00000049 410.08 278.95 406.45 527.68 510.49 496.30 688.95 456.45 623.09 610.64 560.61 670.85 732.58 637.31
00003730 00000050 411.43 276.48 405.67 529.31 512.64 493.85 688.22 455.52 623.68 608.07 562.98 670.79 729.03 638.50
00003731 00000051 412.08 267.80 405.86 535.17 513.87 486.60 687.30 449.85 623.70 599.14 563.43 666.57 725.52 635.52
00003732 00000052 415.52 266.06 403.84 533.16 514.94 477.13 685.36 440.80 622.68 590.22 563.90 660.27 723.03 629.59
00003733 00000053 416.86 255.41 402.22 538.38 513.77 469.43 685.01 433.35 619.58 579.08 564.24 653.96 721.03 623.13
00003734 00000054 418.04 244.32 401.28 542.73 512.88 463.03 682.88 424.54 617.49 564.71 565.68 646.39 719.87 613.32
00003735 00000055 420.22 235.46 397.83 544.10 510.87 458.47 679.20 419.40 613.72 556.69 564.07 641.92 714.77 608.68
00003736 00000056 417.17 221.50 397.37 542.31 506.47 452.09 668.90 411.93 607.20 548.71 571.15 633.25 712.10 598.36
00003737 00000057 418.65 214.69 400.07 539.73 507.59 443.12 668.44 401.52 605.34 538.86 570.46 624.53 712.13 588.05
00003738 00000058 422.36 209.23 400.13 539.22 509.81 435.66 670.27 395.56 604.46 527.29 569.81 615.77 713.46 580.63
00003739 00000059 425.18 206.25 400.04 537.61 514.29 432.60 674.01 394.17 608.32 524.78 572.47 612.09 714.79 578.56
00003740 00000060 429.82 207.53 398.86 536.08 518.12 430.89 678.27 393.16 612.77 526.48 575.75 611.89 718.00 579.16
00003741 00000061 433.49 210.41 402.68 538.09 521.45 433.73 683.34 395.20 618.01 527.59 577.96 613.51 723.72 580.00
00003742 00000062 441.07 219.50 399.91 535.39 524.46 440.72 691.35 395.48 623.90 529.58 574.02 613.01 731.94 573.93
00003743 00000063 448.63 221.15 400.87 539.05 533.21 447.77 703.98 403.41 635.23 538.21 577.44 613.75 747.10 575.28
00003744 DELETE   459.30 227.26 399.89 534.33 547.20 444.02 727.19 412.27 646.50 548.44 586.76 616.48 769.15 589.48
00003745 DELETE   466.56 229.85 396.98 540.59 561.74 448.82 742.45 423.76 662.82 556.91 592.82 619.21 777.11 597.64
00003746 DELETE   482.15 242.37 393.38 543.68 578.53 449.78 757.12 436.74 678.85 563.06 607.46 625.80 777.42 613.51
00003747 00000067 488.40 253.03 397.74 537.70 589.43 459.26 766.87 446.68 689.00 571.40 620.27 640.79 778.35 630.08
00003748 DELETE   493.10 256.86 398.25 539.32 595.56 469.36 770.93 455.41 694.68 582.11 625.37 651.51 785.95 640.18
00003749 00000069 493.45 262.94 399.21 539.29 595.71 476.03 770.35 460.90 694.41 593.02 625.44 657.76 786.27 645.51
00003750 00000070 494.44 269.23 399.87 537.13 595.86 478.34 771.14 462.84 694.97 594.57 622.88 654.75 791.78 642.10
00003751 00000071 497.28 271.66 398.23 532.96 595.10 478.94 774.31 462.95 695.76 598.06 618.32 648.98 799.23 636.35
00003752 00000072 497.85 274.91 398.77 528.15 596.26 480.23 777.51 463.96 698.93 599.26 617.32 646.15 802.12 633.69
00003753 00000073 498.80 273.33 399.25 530.06 597.31 481.03 779.65 463.93 701.01 599.18 618.29 646.43 804.57 633.39
00003754 00000074 500.63 275.36 397.91 527.91 599.27 481.91 780.95 465.11 702.67 599.91 619.02 645.62 805.35 633.01
00003755 00000075 501.06 279.20 398.58 525.50 599.19 484.51 781.18 465.98 703.77 604.06 619.89 647.82 807.27 633.85
00003756 00000076 501.11 284.02 400.04 522.84 599.42 488.99 781.02 467.93 705.89 608.29 622.28 651.46 809.01 635.24
00003757 00000077 502.52 289.12 400.11 520.59 600.60 494.31 780.71 470.47 707.58 615.39 626.24 656.98 811.12 638.33
00003758 00000078 505.46 288.47 400.67 523.68 602.69 498.75 782.34 471.93 711.08 620.48 630.46 660.47 816.69 639.19
00003759 00000079 509.79 289.65 402.55 523.73 605.49 502.29 785.96 471.38 716.02 619.90 636.30 663.27 822.95 638.43
00003760 00000080 513.38 290.13 402.43 520.84 609.49 499.91 789.32 467.62 721.42 615.15 640.81 661.17 825.05 635.36
00003761 00000081 512.67 276.22 404.94 529.16 613.01 493.58 794.66 460.17 726.25 607.44 640.32 651.98 829.59 626.00
00003762 DELETE   521.26 271.63 397.82 526.82 619.42 485.12 799.38 453.22 729.83 599.72 644.82 641.93 835.94 616.99
00003763 00000083 526.21 267.87 393.99 523.63 622.67 478.56 802.18 443.73 733.53 591.43 651.19 638.91 840.00 611.48
00003764 DELETE   528.36 264.79 394.00 526.13 624.13 475.88 801.01 441.16 733.37 587.40 653.40 637.78 840.10 610.21
00003765 00000085 524.40 264.14 396.17 526.65 620.19 474.89 797.10 440.21 729.17 584.51 651.78 638.57 835.82 610.84
00003766 DELETE   523.27 259.33 393.97 527.29 616.89 470.70 791.77 434.55 724.15 576.19 651.51 635.75 831.52 606.36
00003767 00000087 524.48 250.96 392.12 527.82 616.51 465.68 790.62 428.86 723.45 569.00 651.00 628.02 830.46 598.11
00003768 00000088 525.64 241.49 391.18 527.17 615.57 459.10 791.33 419.73 725.12 557.05 652.83 624.10 829.56 591.30
00003769 00000089 527.81 239.32 390.25 521.65 620.46 454.60 795.43 416.47 731.35 552.00 658.92 622.33 828.92 590.44
00003770 00000090 527.73 236.08 389.01 522.24 625.15 448.62 798.56 412.92 736.21 546.51 666.57 627.22 822.96 597.05
00003771 00000091 527.17 237.41 387.96 521.69 624.99 448.34 800.45 415.94 735.32 550.55 669.51 636.24 818.49 608.50
00003772 00000092 524.40 254.46 391.06 515.45 624.93 457.81 797.79 425.71 733.66 561.66 670.22 645.03 818.48 617.33
00003773 DELETE   523.40 269.08 390.74 513.44 632.21 479.28 801.04 450.62 739.71 583.87 669.62 654.60 818.11 631.08
00003774 00000094 521.99 279.25 390.40 512.10 633.13 489.08 802.54 462.34 741.91 593.99 667.51 662.09 816.25 640.71
00003775 DELETE   513.89 273.45 396.33 521.02 625.24 483.93 801.53 457.78 735.17 599.23 662.29 666.45 813.19 645.12
00003776 00000096 507.55 266.11 396.14 522.66 618.81 470.77 796.86 450.38 726.38 589.65 655.92 661.73 800.49 644.83
00003777 00000097 506.24 238.02 386.94 548.59 605.53 454.33 777.39 436.66 706.33 567.35 649.53 657.85 779.76 642.74
00003778 00000098 495.71 228.16 385.28 554.25 590.30 437.58 763.27 427.46 686.42 552.81 637.18 651.67 754.87 642.89
00003779 00000099 489.28 228.07 385.77 548.64 584.58 430.95 758.24 419.86 682.29 543.01 634.11 644.48 751.33 634.92
00003780 00000100 485.72 230.72 385.27 545.47 581.63 429.68 754.39 417.97 680.50 538.90 633.15 641.98 750.32 631.67
00003781 00000101 483.71 231.09 385.20 540.52 581.49 425.73 753.31 412.24 682.02 532.16 633.20 638.05 749.96 626.04
00003782 00000102 479.63 226.79 388.20 538.38 575.17 421.88 746.77 403.33 676.07 522.50 628.51 628.73 750.29 612.43
00003783 00000103 473.61 224.05 392.27 536.27 569.23 417.30 740.40 397.79 671.23 518.00 622.37 621.76 745.82 604.28
00003784 00000104 466.02 219.04 392.84 535.99 570.36 420.01 738.78 401.10 670.39 525.21 621.94 618.64 753.04 602.96
00003785 00000105 469.18 239.84 388.39 518.55 563.32 416.32 734.46 398.56 664.31 520.42 616.79 619.43 739.82 603.28
00003786 00000106 467.51 239.76 390.00 519.35 563.18 418.95 734.09 400.58 664.92 522.39 616.88 620.69 741.21 603.98
00003787 00000107 463.25 241.07 393.32 514.20 560.52 430.18 729.96 395.46 666.70 519.74 615.75 630.06 746.53 599.60
00003788 00000108 459.04 236.87 394.95 517.93 556.13 430.72 726.03 395.32 663.38 520.45 610.85 627.95 744.35 597.04
00003789 00000109 454.43 236.04 395.21 519.43 550.83 431.45 721.88 396.40 659.50 524.48 605.75 628.54 740.26 597.80
00003790 00000110 452.39 235.75 393.17 525.06 548.30 436.65 717.95 399.72 657.82 528.30 601.86 630.88 739.25 598.91
00003791 00000111 448.41 240.01 395.40 526.43 543.03 445.69 713.55 404.93 652.90 537.33 598.02 637.49 741.09 602.21
00003792 00000112 443.87 239.78 394.17 532.63 538.34 454.41 707.69 411.86 647.39 546.79 593.33 644.91 737.93 608.48
00003793 00000113 438.43 240.36 395.50 540.00 534.61 458.65 699.38 416.01 641.29 550.27 591.43 650.50 731.71 614.06
00003794 00000114 428.03 248.59 398.12 537.93 525.11 459.94 689.55 419.03 630.70 551.67 585.89 655.12 723.08 619.74
00003795 00000115 421.56 245.22 397.35 543.26 517.66 457.87 682.08 421.15 619.95 551.79 579.93 654.49 713.56 622.92
00003796 00000116 413.13 246.55 399.99 541.30 509.02 457.03 678.36 421.08 612.19 552.06 572.18 652.88 709.67 621.83
00003797 00000117 410.08 244.61 399.57 539.99 505.17 455.00 675.17 422.74 607.82 550.58 566.47 650.38 702.31 622.73
00003798 00000118 407.41 245.84 398.98 535.91 503.16 451.58 675.11 420.32 606.94 547.96 563.82 647.91 700.31 620.87
00003799 00000119 407.66 243.02 396.98 533.84 503.47 449.11 675.98 417.12 608.44 544.87 563.56 645.20 699.19 617.71
00003800 00000120 407.92 242.60 399.31 533.23 506.14 449.42 679.96 415.17 611.87 541.88 564.49 643.19 705.66 613.68
00003801 00000121 408.30 246.39 400.50 534.87 507.52 448.11 683.19 415.63 615.57 542.71 562.27 638.18 713.38 609.26
00003802 00000122 409.75 249.36 402.36 535.33 508.89 448.71 687.54 415.88 620.19 544.04 561.00 636.54 721.36 607.18
00003803 00000123 409.57 248.10 404.20 538.31 510.55 450.76 689.79 419.12 622.92 547.69 558.92 635.79 724.78 607.63
00003804 00000124 409.90 248.25 404.52 540.98 510.68 454.35 690.69 422.49 624.20 552.51 557.46 638.68 725.96 610.54
00003805 00000125 408.75 253.33 404.88 538.20 513.58 457.25 689.74 427.94 621.74 558.16 565.97 651.36 715.14 625.74
00003806 00000126 410.06 254.25 403.65 540.59 513.80 459.62 692.03 432.27 622.77 564.32 569.69 660.14 712.72 636.46
00003807 00000127 410.82 256.91 401.77 537.16 515.92 459.27 694.32 433.61 624.25 566.06 571.03 661.46 712.28 639.30
00003808 00000128 410.62 259.42 402.76 535.25 517.57 456.57 694.62 431.19 625.84 563.08 571.06 657.49 712.58 635.50
00003809 00000129 411.74 252.36 402.07 534.64 519.38 453.84 696.78 427.08 628.07 558.78 569.10 650.47 714.69 627.31
00003810 00000130 412.82 243.66 400.20 536.03 520.50 449.38 697.42 421.29 630.37 553.74 570.05 644.39 715.19 619.77
00003811 00000131 414.65 239.48 398.81 536.31 520.54 444.96 696.96 414.94 631.79 551.27 574.28 644.29 713.65 617.81
00003812 00000132 416.36 235.09 398.32 539.35 522.82 441.91 698.20 412.30 634.21 548.49 578.25 644.66 712.79 618.43
00003813 00000133 420.07 237.37 395.03 533.22 525.75 439.63 700.87 409.88 637.22 545.75 582.15 644.52 713.05 618.12
00003814 00000134 426.27 239.54 391.62 529.30 530.29 439.39 705.23 410.80 640.98 544.95 584.32 645.29 714.29 620.12
00003815 00000135 430.73 236.81 391.78 534.43 533.91 442.12 708.29 413.25 644.72 546.18 587.37 645.89 720.43 620.24
00003816 00000136 435.27 239.62 392.44 531.84 538.52 443.84 715.13 413.86 650.56 547.21 590.06 645.39 728.91 618.87
00003817 00000137 438.49 245.13 391.91 523.84 541.74 445.77 719.47 414.15 654.51 548.55 592.83 645.69 733.97 617.96
00003818 00000138 441.24 244.52 390.07 521.21 544.27 445.89 725.05 412.49 660.10 549.36 594.99 645.98 740.38 616.72
00003819 00000139 442.54 240.58 391.32 526.55 545.72 445.77 727.82 412.45 663.13 549.02 595.87 645.87 743.93 616.56
00003820 00000140 443.26 245.27 393.11 521.69 549.83 444.55 731.49 411.81 668.39 550.53 598.67 644.51 745.13 615.74
00003821 DELETE   449.43 238.21 392.10 526.48 558.58 452.89 735.72 418.49 677.40 548.95 606.35 647.37 751.45 617.15
00003822 00000142 457.18 231.38 388.37 533.57 572.15 454.51 743.16 430.42 687.62 541.62 611.50 644.58 748.60 623.87
00003823 00000143 460.80 227.41 388.90 538.57 579.43 450.34 751.69 431.02 696.03 541.67 618.67 646.27 752.00 629.95
00003824 00000144 460.99 232.43 390.37 537.14 579.29 443.47 754.92 427.46 696.12 543.79 616.81 645.25 753.28 631.33
00003825 00000145 462.05 230.99 390.71 543.20 575.45 443.12 754.46 425.59 692.74 547.49 612.56 647.08 755.81 632.23
00003826 00000146 461.72 233.91 391.86 546.00 575.09 444.20 752.99 430.14 688.37 550.18 608.81 647.40 753.05 635.40
00003827 00000147 460.48 237.95 394.52 549.65 574.87 447.27 753.46 434.83 685.80 555.20 606.86 650.44 753.20 639.42
00003828 00000148 460.87 239.07 395.53 550.91 575.10 450.40 752.95 439.10 685.52 557.01 602.63 646.50 757.41 636.70
00003829 00000149 466.66 241.80 393.99 550.25 580.24 446.62 753.12 447.92 682.89 558.07 605.06 640.27 749.52 641.70
00003830 00000150 466.31 246.25 396.50 548.12 582.31 455.62 757.01 453.54 687.67 560.91 605.18 641.99 756.20 640.48
00003831 DELETE   469.24 245.68 392.66 551.44 590.05 465.67 761.22 462.78 694.14 565.07 614.26 649.07 760.62 647.08
00003832 DELETE   470.87 245.02 390.61 549.21 587.61 462.38 761.95 458.34 692.71 563.56 617.37 652.16 757.94 649.20
00003833 00000153 461.64 246.11 393.39 545.63 579.46 455.39 755.66 444.88 688.79 560.33 608.52 653.08 756.42 643.82
00003834 00000154 458.14 243.01 391.35 548.95 571.30 447.68 749.06 438.64 678.59 559.04 602.15 655.20 744.56 646.73
00003835 00000155 454.46 245.59 392.01 546.44 566.79 443.44 743.92 437.52 670.70 558.37 595.85 653.59 733.60 647.35
00003836 00000156 453.43 242.00 393.36 548.83 564.31 442.79 742.64 435.96 668.87 557.38 594.21 652.12 733.26 645.09
00003837 00000157 453.89 244.47 393.74 546.16 563.90 443.09 742.93 433.62 669.75 556.15 595.57 650.73 737.46 641.52
00003838 00000158 452.93 242.87 394.68 546.71 563.01 445.18 741.50 433.42 670.29 555.40 594.29 648.33 740.94 637.31
00003839 00000159 449.97 249.30 395.74 540.06 559.75 446.10 738.86 435.09 667.64 557.99 588.30 644.91 741.47 634.95
00003840 00000160 448.38 248.45 396.99 540.83 558.17 447.97 737.33 438.46 664.27 559.44 583.38 643.11 739.96 634.58
00003841 00000161 446.42 248.82 397.08 539.98 556.33 449.58 736.35 439.98 662.24 560.03 580.29 642.27 739.68 633.71
00003842 00000162 446.22 244.06 396.92 543.39 554.86 449.82 735.10 438.80 661.31 559.38 580.00 642.38 739.61 632.51
00003843 00000163 445.62 242.82 396.46 544.43 553.17 449.10 734.12 437.88 659.91 559.87 579.10 642.66 738.34 632.60
00003844 00000164 445.46 241.53 394.36 545.11 551.36 448.64 733.21 437.42 658.22 559.94 577.65 643.09 736.90 633.04
00003845 00000165 445.22 241.93 394.87 546.11 552.01 448.70 733.31 437.57 658.83 560.20 577.80 643.16 737.29 633.23
00003846 00000166 445.82 246.48 396.51 543.89 554.40 450.93 736.04 439.25 662.61 561.27 580.61 645.25 741.04 634.84
00003847 00000167 448.40 256.05 398.87 538.24 559.99 454.06 741.15 439.91 671.12 562.57 588.06 647.80 749.72 635.52
00003848 00000168 453.29 261.86 394.99 529.26 565.73 457.97 745.90 439.28 679.86 560.39 597.15 649.74 756.86 633.81
00003849 00000169 456.95 257.17 392.79 531.97 571.78 458.40 750.12 438.45 687.92 559.31 601.62 647.10 762.73 630.49
00003850 00000170 459.70 256.91 393.55 531.20 574.73 458.75 753.71 437.33 692.46 558.28 605.82 646.32 767.13 628.49
