Video ID: 	XHXC0WLo7D4
H: 	1080
W: 	1920
FPS: 	25.0

FRAME INDEX X0 Y0 W H [Landmarks (5 Points)]

00056254 00000000 782.68 133.25 454.36 645.62 869.81 398.21 1079.61 402.11 945.94 501.98 887.61 625.54 1056.60 627.40
00056255 00000001 784.06 137.31 453.73 646.18 872.68 401.44 1081.48 406.69 947.47 508.60 888.97 628.91 1057.35 631.80
00056256 DELETE   785.10 140.32 459.72 660.21 874.04 418.35 1081.33 417.55 952.25 530.80 891.14 643.89 1053.25 644.05
00056257 DELETE   786.59 155.57 450.59 662.05 875.40 439.76 1082.69 438.98 960.90 560.84 901.25 667.93 1056.66 668.09
00056258 DELETE   784.07 179.05 452.11 668.09 872.67 458.41 1081.14 461.43 959.90 590.99 898.88 695.45 1053.50 699.35
00056259 00000005 783.69 193.97 461.34 655.81 868.64 476.52 1080.34 477.40 952.12 608.08 900.07 710.97 1050.11 712.73
00056260 00000006 783.04 197.77 460.67 655.37 866.45 480.43 1080.50 482.51 951.10 613.55 897.77 715.98 1050.81 718.23
00056261 00000007 783.10 194.60 460.25 655.00 866.88 476.33 1079.89 479.33 949.61 607.86 895.45 709.89 1048.56 713.31
00056262 00000008 776.79 193.75 457.66 651.43 863.78 466.26 1072.22 468.08 941.31 592.80 887.78 697.44 1053.18 697.31
00056263 00000009 778.94 184.92 452.86 644.90 861.69 455.10 1073.38 453.64 942.86 576.76 887.28 687.97 1053.58 685.41
00056264 00000010 783.14 170.95 446.44 655.69 860.54 447.80 1070.17 445.57 938.02 573.82 883.23 681.59 1049.52 679.12
00056265 00000011 783.89 162.98 448.44 658.56 862.71 444.41 1074.46 443.76 947.86 565.99 886.94 673.46 1051.23 674.01
00056266 00000012 783.10 169.47 447.23 661.38 859.27 447.46 1069.06 445.21 935.97 574.42 881.99 683.25 1048.97 680.76
00056267 00000013 781.53 168.83 449.49 662.46 860.88 452.75 1072.27 454.26 947.42 578.52 886.37 682.39 1046.57 684.84
00056268 00000014 780.37 174.91 451.74 669.92 859.76 458.34 1070.79 462.97 945.39 591.19 884.52 690.91 1047.35 696.00
00056269 00000015 777.24 189.88 455.91 663.23 858.84 467.73 1064.07 470.83 931.41 595.69 880.61 700.49 1047.62 701.33
00056270 00000016 781.97 187.65 459.19 663.46 860.99 473.59 1072.73 476.99 937.84 602.65 885.83 705.64 1045.94 709.08
00056271 00000017 783.94 188.98 459.21 664.05 862.79 473.44 1075.52 477.03 939.72 602.52 886.63 706.20 1048.95 709.87
00056272 00000018 785.18 185.96 459.14 665.11 864.15 468.58 1076.50 475.09 939.43 600.46 885.94 701.75 1048.03 708.34
00056273 00000019 786.82 182.76 458.74 661.70 863.37 462.90 1079.45 467.91 941.63 594.30 886.64 697.26 1047.81 703.10
00056274 00000020 786.11 176.47 458.42 658.70 866.70 455.20 1077.90 460.08 942.83 583.10 888.15 686.52 1043.19 691.99
00056275 00000021 787.27 168.23 459.18 660.71 869.55 451.51 1078.72 455.32 946.33 577.34 891.49 681.16 1044.67 685.56
00056276 00000022 793.33 163.70 455.62 656.74 874.41 445.29 1081.23 450.78 947.32 569.44 893.59 672.51 1047.84 678.01
00056277 00000023 797.49 157.61 455.30 658.67 880.18 440.38 1086.60 447.45 952.72 565.56 899.11 669.94 1054.93 676.52
00056278 00000024 805.79 157.19 452.32 662.42 887.05 440.16 1091.80 446.35 957.36 563.66 905.25 673.63 1059.54 679.56
00056279 00000025 813.98 160.77 452.75 667.67 892.86 443.04 1097.63 445.94 963.74 563.38 912.03 678.76 1064.46 682.30
00056280 00000026 818.96 160.32 451.33 674.74 898.14 441.76 1102.46 444.51 968.38 562.01 916.63 677.35 1071.25 680.99
00056281 00000027 822.14 155.74 449.34 677.85 896.47 438.83 1099.01 439.75 963.08 558.06 915.65 675.12 1070.76 677.18
00056282 00000028 823.77 150.96 445.76 676.00 890.98 431.70 1089.78 432.26 948.51 545.80 905.56 668.33 1059.45 670.30
00056283 00000029 817.14 142.33 447.70 675.14 879.12 427.27 1071.66 423.75 929.40 535.52 892.96 660.70 1042.87 660.00
00056284 DELETE   801.11 136.41 458.37 674.73 870.49 421.98 1062.23 419.33 913.75 522.40 875.50 648.72 1022.74 648.57
00056285 00000031 794.39 132.80 457.17 670.07 859.33 415.39 1050.96 413.46 896.69 514.90 863.54 642.40 1009.88 642.53
00056286 00000032 788.36 134.69 461.46 661.35 850.67 406.46 1044.80 412.21 881.14 508.82 852.91 642.03 991.35 647.37
00056287 00000033 786.81 140.59 458.13 654.79 847.62 410.71 1038.85 415.43 878.69 513.81 852.50 646.60 987.81 651.04
00056288 00000034 790.81 140.35 450.75 665.53 848.30 431.11 1034.98 426.14 881.55 521.67 857.33 654.19 996.63 651.18
00056289 DELETE   791.15 144.41 458.22 667.91 853.43 432.49 1041.34 433.15 887.14 528.55 860.47 655.42 1004.08 657.17
00056290 00000036 797.46 154.26 455.35 667.50 859.13 445.08 1048.02 444.00 898.24 546.95 873.38 674.53 1014.79 674.76
00056291 00000037 798.97 155.61 450.90 681.04 861.09 448.56 1057.28 451.79 910.18 558.55 876.12 677.92 1030.38 680.97
00056292 00000038 796.15 156.54 452.71 687.44 858.99 449.73 1057.85 453.61 910.85 563.81 874.15 682.29 1031.98 686.10
00056293 00000039 795.03 164.39 458.07 674.61 858.79 453.13 1055.98 454.72 907.90 565.12 874.43 684.93 1025.23 687.44
00056294 00000040 796.70 162.58 455.65 671.75 862.33 447.53 1057.75 450.33 910.89 560.51 876.57 677.79 1027.29 681.41
00056295 00000041 798.46 156.04 455.71 668.73 865.79 443.49 1060.03 444.60 915.35 553.00 880.83 670.23 1031.79 672.34
00056296 00000042 801.01 152.07 456.89 663.01 870.25 435.89 1064.87 440.21 921.22 548.74 882.08 661.12 1036.41 665.88
00056297 00000043 807.78 147.06 452.64 663.81 874.40 429.18 1068.96 437.34 925.66 544.99 883.32 653.90 1039.47 662.06
00056298 00000044 817.29 141.48 446.50 668.73 879.61 427.46 1073.65 434.90 928.85 542.68 886.99 652.11 1046.07 659.82
00056299 00000045 825.12 142.93 443.99 669.47 887.46 426.24 1081.75 434.08 937.99 545.10 895.97 653.20 1055.29 661.14
00056300 00000046 826.11 155.14 447.95 658.82 898.93 430.16 1100.73 437.97 956.27 551.09 903.75 654.12 1075.78 659.77
00056301 00000047 832.07 161.71 447.32 653.26 903.52 432.90 1106.07 441.17 959.32 554.05 909.02 657.48 1079.79 663.48
00056302 00000048 839.54 164.79 444.01 651.61 909.21 433.23 1110.55 441.20 965.31 554.06 915.78 658.27 1084.56 663.94
00056303 DELETE   849.46 161.78 440.93 654.82 917.10 434.18 1117.66 442.33 973.17 552.74 924.04 660.45 1089.36 666.35
00056304 00000050 855.27 159.18 439.15 653.47 924.56 429.89 1124.26 441.97 979.59 549.06 929.17 656.35 1092.14 665.47
00056305 00000051 857.31 156.34 438.81 654.37 927.54 426.28 1127.08 438.16 983.84 545.22 932.14 653.52 1095.38 662.42
00056306 00000052 858.38 157.57 440.77 649.82 929.74 422.10 1131.95 434.89 987.42 541.65 933.62 650.63 1098.80 660.39
00056307 00000053 861.06 157.22 440.67 647.97 932.22 420.49 1134.85 433.45 990.70 540.44 936.22 648.22 1101.25 658.24
00056308 00000054 862.16 157.46 439.48 645.96 932.76 419.31 1135.75 432.14 991.61 539.21 937.29 648.15 1101.58 658.17
00056309 00000055 862.45 157.94 439.18 644.41 933.35 419.13 1135.89 432.48 991.58 539.13 937.52 647.06 1102.03 657.50
00056310 00000056 862.64 157.12 440.47 644.80 933.99 419.51 1137.06 432.22 992.76 539.17 939.38 648.27 1103.07 658.21
00056311 00000057 863.46 159.60 439.84 641.50 935.38 420.40 1138.19 431.98 994.87 538.54 942.12 649.57 1103.68 658.73
00056312 00000058 858.18 149.94 454.01 653.15 940.16 419.65 1140.50 432.34 1002.13 534.64 944.30 645.77 1097.07 657.09
00056313 00000059 859.00 149.06 452.45 654.48 940.77 418.62 1140.33 431.96 1000.73 533.55 944.01 644.57 1096.60 656.41
00056314 00000060 859.12 147.37 453.34 655.66 940.45 417.02 1139.15 429.48 999.96 533.09 943.75 644.40 1094.89 655.49
00056315 00000061 858.72 142.20 454.15 658.37 939.12 414.34 1137.81 426.35 997.23 530.40 940.99 642.52 1093.26 653.21
00056316 00000062 863.71 148.82 441.76 649.40 930.42 409.01 1132.29 421.89 984.14 529.66 933.83 642.11 1096.50 652.11
00056317 00000063 860.53 143.15 442.64 655.88 920.87 403.66 1121.06 416.19 968.02 525.85 923.29 640.65 1086.65 650.08
00056318 00000064 856.10 141.62 444.61 657.12 913.21 404.46 1108.14 415.04 953.31 524.47 915.69 639.56 1075.74 647.35
00056319 00000065 858.12 131.26 444.74 667.54 905.83 404.87 1095.71 412.59 947.67 524.14 913.09 635.69 1062.93 643.15
00056320 00000066 849.77 136.76 451.78 661.26 913.65 406.73 1100.64 415.10 945.61 524.53 917.88 638.83 1065.52 646.38
00056321 00000067 852.20 138.40 452.82 661.68 915.02 406.32 1101.86 416.66 945.51 525.72 919.78 639.82 1066.53 648.92
00056322 00000068 854.17 141.33 455.95 663.70 919.33 408.39 1107.81 421.71 951.28 528.48 922.34 641.25 1068.85 652.96
00056323 00000069 856.14 144.57 460.66 660.12 921.27 408.19 1113.83 423.91 957.28 532.51 923.48 641.57 1071.60 655.60
00056324 00000070 859.18 146.59 460.34 658.47 926.10 413.33 1118.27 431.35 962.65 535.54 925.51 641.82 1075.36 657.76
00056325 DELETE   863.35 148.41 457.71 655.80 931.03 423.04 1121.24 441.69 968.15 536.78 929.45 643.00 1078.95 659.35
00056326 DELETE   869.06 150.19 456.45 651.54 937.49 426.83 1127.54 448.33 975.85 537.83 933.50 641.89 1083.99 660.55
00056327 00000073 875.75 149.13 449.37 650.07 943.07 429.03 1132.91 450.66 985.05 541.23 939.38 642.00 1091.20 660.76
00056328 00000074 876.69 149.49 449.98 648.87 944.20 430.81 1135.96 450.88 989.50 542.16 941.10 642.54 1095.24 660.11
00056329 00000075 877.06 149.04 448.94 650.10 944.93 431.15 1137.29 451.71 991.51 542.93 941.03 643.24 1094.77 661.25
00056330 00000076 877.38 153.96 448.17 647.83 944.11 436.20 1138.71 455.87 992.91 545.24 942.12 647.74 1096.70 664.89
00056331 00000077 878.45 153.75 447.13 650.55 942.50 441.20 1139.30 459.35 992.11 547.59 941.33 652.36 1095.81 668.36
00056332 00000078 878.17 157.26 447.65 651.66 940.59 445.68 1138.30 463.01 990.78 551.39 940.67 658.95 1093.60 674.39
00056333 00000079 880.12 154.89 444.01 661.21 946.09 445.87 1142.14 459.79 996.92 551.56 947.51 660.74 1107.32 671.88
00056334 00000080 879.69 155.93 445.21 665.63 949.01 447.38 1143.66 461.94 999.54 554.07 949.96 663.75 1107.73 675.58
00056335 00000081 881.02 155.23 444.40 669.44 951.68 446.79 1144.83 461.67 1001.64 554.54 952.77 664.58 1108.63 676.67
00056336 00000082 880.98 154.97 445.59 671.12 952.38 447.04 1145.43 460.15 1002.11 552.84 953.11 665.61 1108.65 676.37
00056337 00000083 881.47 155.31 445.20 671.18 952.72 444.98 1145.06 458.85 1000.93 552.29 952.37 664.73 1108.00 676.21
00056338 00000084 879.50 154.62 446.52 671.97 950.30 444.70 1143.58 457.48 998.96 551.01 950.12 664.29 1107.99 674.82
00056339 00000085 878.56 152.75 445.21 668.78 947.28 443.56 1140.85 457.63 996.24 550.20 946.93 661.42 1105.45 672.95
00056340 00000086 876.35 155.63 443.36 661.36 943.16 444.89 1138.60 459.80 994.20 552.33 943.31 660.45 1103.02 672.46
00056341 00000087 873.48 159.73 444.58 659.91 942.76 448.45 1138.61 464.74 994.81 555.12 942.61 661.31 1102.57 674.44
00056342 DELETE   873.25 160.58 447.79 662.50 946.28 448.34 1144.33 466.88 998.75 557.14 945.65 664.75 1105.97 679.64
00056343 DELETE   879.93 161.74 448.79 669.41 954.94 447.48 1155.81 464.15 1011.03 563.39 954.35 670.22 1117.56 683.98
00056344 DELETE   889.66 166.10 448.03 674.82 966.54 444.08 1166.52 461.74 1024.11 566.65 966.10 674.31 1130.51 688.78
00056345 00000091 893.22 165.61 445.97 664.26 973.29 440.22 1175.88 458.70 1031.65 561.95 968.73 668.43 1134.90 683.55
00056346 00000092 892.20 164.35 445.78 650.70 972.91 434.89 1175.18 454.64 1028.74 554.77 968.53 659.33 1131.91 675.71
00056347 00000093 888.96 159.99 442.64 647.61 967.89 427.28 1168.40 446.70 1022.66 545.14 964.25 650.71 1123.59 666.53
00056348 00000094 884.19 142.72 448.94 667.75 959.16 419.21 1159.66 439.76 1012.12 536.34 953.73 646.86 1111.92 665.77
00056349 00000095 888.82 141.52 445.50 665.20 963.66 414.35 1166.81 435.36 1018.82 534.33 957.73 645.92 1117.59 665.31
00056350 00000096 889.02 142.99 446.07 663.41 964.18 417.33 1167.25 438.00 1021.94 540.44 960.89 649.53 1119.64 668.24
00056351 00000097 887.07 155.70 444.41 652.74 967.94 425.18 1171.58 443.01 1026.80 546.75 965.70 652.11 1128.35 666.91
00056352 DELETE   885.17 161.86 446.82 655.88 969.83 435.97 1174.76 455.77 1032.10 558.34 966.54 662.05 1128.93 678.55
00056353 00000099 883.27 170.65 451.02 662.84 961.43 448.60 1168.01 469.40 1029.18 580.93 966.91 679.27 1121.16 698.16
00056354 00000100 885.68 182.13 449.12 659.34 961.47 459.41 1168.67 480.71 1029.95 592.48 969.41 688.06 1126.97 707.54
00056355 00000101 885.32 192.15 449.33 651.61 961.89 466.97 1169.46 487.53 1033.84 602.70 971.90 696.04 1129.06 714.72
00056356 00000102 886.75 206.50 449.04 647.27 964.08 473.08 1173.88 494.29 1039.17 615.24 977.38 704.19 1136.61 723.30
00056357 00000103 884.70 213.79 447.08 642.96 969.02 475.64 1182.96 494.66 1046.25 622.42 979.56 706.24 1147.44 721.51
00056358 00000104 884.21 217.44 446.81 650.46 968.99 480.56 1184.46 499.14 1046.08 629.79 978.40 714.12 1149.74 729.46
00056359 00000105 884.22 220.69 447.72 649.00 969.31 484.55 1184.77 503.28 1046.28 633.47 979.41 717.23 1151.60 732.75
00056360 00000106 884.23 222.18 448.73 648.30 969.61 487.49 1186.90 506.79 1048.07 637.09 980.55 719.13 1155.22 734.99
00056361 00000107 884.54 225.25 450.36 645.51 969.93 488.79 1188.39 507.97 1049.19 640.04 981.69 719.94 1157.58 735.64
00056362 00000108 884.26 224.40 450.84 644.46 969.41 490.91 1189.22 509.11 1050.59 641.76 982.76 721.35 1158.61 736.30
00056363 00000109 883.54 227.96 451.84 640.42 968.63 492.86 1188.98 510.61 1050.59 644.38 983.01 723.02 1159.51 737.54
00056364 00000110 883.33 226.69 451.05 642.99 967.53 495.82 1188.07 512.45 1050.57 647.24 982.65 726.63 1159.09 740.22
00056365 00000111 883.21 232.38 450.65 637.59 967.89 501.36 1186.20 515.64 1051.72 650.88 985.70 733.01 1156.13 744.99
00056366 00000112 883.91 234.86 450.64 639.41 968.36 504.59 1183.45 518.36 1050.85 654.15 987.94 739.11 1153.36 750.80
00056367 00000113 883.95 239.34 450.89 637.40 967.93 506.03 1181.31 521.50 1049.13 657.37 986.70 739.81 1152.42 753.03
00056368 00000114 884.35 239.32 450.23 639.83 968.42 506.84 1181.89 522.52 1049.85 658.50 987.85 741.50 1153.62 754.75
00056369 00000115 884.05 240.67 452.51 640.39 970.05 507.46 1183.89 523.81 1050.11 657.77 987.26 738.79 1156.39 752.57
00056370 00000116 885.12 239.72 451.85 644.25 971.94 506.65 1185.60 522.19 1053.22 656.18 990.04 740.89 1156.72 754.05
00056371 00000117 888.20 239.70 450.49 646.54 973.93 504.93 1186.29 520.40 1054.15 656.08 991.43 742.97 1154.83 756.33
00056372 00000118 888.52 238.79 451.17 649.66 974.27 504.07 1188.58 518.34 1056.03 655.01 992.45 743.49 1157.38 755.79
00056373 00000119 887.94 233.83 451.39 653.10 973.82 502.14 1188.82 516.00 1056.85 653.28 992.87 743.10 1157.04 754.93
00056374 00000120 888.87 233.65 450.72 651.83 974.60 502.18 1189.37 515.91 1057.61 652.24 993.65 741.66 1158.51 753.25
00056375 00000121 890.99 236.44 450.48 643.31 974.64 501.93 1189.80 516.49 1056.60 652.93 992.95 738.83 1160.21 751.03
00056376 00000122 892.13 237.43 449.75 639.98 974.61 502.21 1190.37 517.07 1056.76 654.71 993.62 739.51 1161.17 752.05
00056377 00000123 893.07 239.85 449.94 635.11 976.55 502.39 1192.20 518.02 1058.31 654.30 994.03 738.23 1161.63 751.57
00056378 00000124 893.97 239.11 449.08 635.80 977.02 502.91 1192.49 518.35 1059.12 655.15 995.00 739.26 1161.80 752.41
00056379 00000125 895.91 239.30 447.36 639.04 977.83 503.64 1191.46 518.52 1059.09 653.65 996.26 742.10 1160.19 754.97
00056380 00000126 898.41 236.11 443.70 646.90 978.73 503.81 1190.58 518.16 1059.36 653.04 998.65 747.81 1156.64 760.33
CROP_BBOX: 491 0 1629 1051
