Video ID: 	7Bp6qil-qYY
H: 	1080
W: 	1920
FPS: 	29.97002997002997

FRAME INDEX X0 Y0 W H [Landmarks (5 Points)]

00098397 00000000 512.50 168.44 394.89 545.82 693.84 399.09 847.96 369.03 848.15 458.90 751.75 587.65 882.60 561.45
00098398 00000001 510.64 166.80 392.47 541.64 690.39 398.47 845.00 366.83 843.76 456.06 748.65 584.45 879.69 557.14
00098399 DELETE   506.96 164.98 393.73 540.63 686.68 398.48 841.84 364.68 841.05 453.45 747.85 583.10 878.69 553.84
00098400 00000003 504.92 163.20 392.77 540.65 682.68 396.54 841.18 363.90 837.82 450.34 745.41 582.51 876.98 553.93
00098401 00000004 499.98 160.56 394.68 542.03 680.46 394.68 837.25 363.82 834.38 449.15 743.65 581.11 872.25 553.96
00098402 00000005 496.90 157.65 395.90 543.84 675.60 390.25 830.07 359.01 828.83 444.24 745.16 580.52 868.54 553.02
00098403 00000006 495.00 154.44 396.69 545.43 673.17 384.92 828.30 357.69 827.01 439.60 743.92 578.01 866.24 553.83
00098404 00000007 493.32 152.52 397.89 544.47 670.92 383.19 825.72 355.91 824.19 436.93 742.60 575.34 864.38 550.83
00098405 00000008 494.31 151.02 396.42 542.55 670.50 380.89 827.39 356.20 823.96 433.12 737.61 569.50 862.49 546.92
00098406 00000009 494.60 152.27 396.00 539.41 670.11 378.60 825.82 355.12 821.51 428.34 734.54 564.67 860.07 543.05
00098407 00000010 496.04 149.97 394.05 540.40 669.67 376.66 825.16 354.83 820.55 425.67 734.44 563.63 858.79 543.71
00098408 00000011 495.39 150.07 394.11 538.60 668.62 374.49 824.88 354.87 820.28 424.28 733.74 562.52 858.41 544.51
00098409 00000012 497.57 147.16 392.63 537.86 668.29 373.74 823.74 353.11 819.94 422.01 735.92 561.15 859.41 542.62
00098410 00000013 496.00 145.28 392.86 539.83 667.87 372.35 823.42 351.96 820.13 421.92 736.02 561.42 858.81 543.13
00098411 00000014 493.94 145.22 394.56 542.04 666.21 372.24 820.78 351.83 817.95 422.04 733.31 561.24 856.42 542.75
00098412 00000015 492.17 148.60 395.94 542.68 663.32 372.68 818.04 353.66 813.62 423.32 727.92 561.46 852.11 544.06
00098413 00000016 489.85 145.79 396.82 547.93 662.01 372.47 815.55 353.42 812.07 424.22 726.98 562.70 849.55 545.20
00098414 00000017 488.81 147.03 397.93 547.68 660.90 372.52 814.70 353.34 809.40 425.60 724.00 562.13 847.29 544.43
00098415 00000018 487.99 147.97 398.70 546.24 659.31 373.39 815.27 353.37 808.83 427.42 722.51 563.25 847.11 544.81
00098416 00000019 489.98 148.00 398.73 548.53 658.54 375.04 815.71 353.02 808.34 428.49 724.27 566.43 849.27 546.42
00098417 00000020 489.01 152.37 400.02 550.15 659.66 377.98 817.72 354.80 810.74 432.35 725.08 569.53 852.56 548.30
00098418 00000021 491.15 156.53 395.50 551.46 661.88 384.43 818.91 360.46 814.87 439.04 727.51 575.26 855.30 553.45
00098419 00000022 493.64 165.95 398.88 548.06 667.69 393.43 824.06 369.89 818.43 450.03 726.68 582.01 858.43 560.83
00098420 00000023 497.36 168.34 395.16 551.16 670.30 398.07 827.84 374.73 819.85 457.74 725.35 587.23 859.99 566.43
00098421 00000024 502.16 173.96 391.73 552.76 674.77 398.60 834.67 381.52 822.46 462.94 723.12 590.61 860.18 575.17
00098422 00000025 505.60 170.60 388.96 560.21 680.48 400.66 838.15 385.61 825.95 467.44 724.62 593.32 860.37 579.69
00098423 00000026 506.40 173.57 390.61 559.63 685.08 402.13 842.96 388.65 830.54 471.16 726.26 594.98 862.23 582.61
00098424 00000027 508.42 173.05 389.95 561.87 690.06 402.44 847.68 389.79 836.16 474.86 726.40 595.95 861.86 584.55
00098425 00000028 511.84 170.74 389.05 566.89 696.11 402.76 852.63 392.64 841.97 477.11 729.07 596.28 864.00 587.04
00098426 00000029 516.91 170.42 386.94 571.00 701.29 404.27 856.52 395.46 844.05 481.39 732.05 599.10 864.01 590.93
00098427 00000030 519.02 174.06 389.68 567.20 699.29 404.33 849.41 392.47 837.31 483.96 741.71 595.58 865.30 586.54
00098428 00000031 523.16 174.06 389.87 567.87 705.34 410.81 855.85 397.51 843.90 488.50 748.60 599.48 870.29 589.01
00098429 00000032 529.81 174.10 387.93 569.97 711.13 417.25 858.29 400.33 848.82 493.46 756.79 606.30 873.77 592.74
00098430 00000033 535.19 176.29 385.07 572.78 714.70 424.06 864.07 409.81 854.22 499.20 761.19 615.94 877.47 603.91
00098431 DELETE   536.99 179.53 386.41 575.73 719.78 429.00 870.93 415.63 859.58 509.91 761.22 621.82 880.06 610.24
00098432 00000035 537.48 186.97 387.07 571.58 724.83 434.82 875.49 423.22 861.00 518.37 761.73 627.09 878.48 617.15
00098433 00000036 540.28 200.33 396.39 568.08 733.95 427.55 884.41 425.78 869.34 516.07 771.28 629.18 883.28 627.15
00098434 00000037 542.39 194.98 396.22 575.12 739.81 432.23 890.17 429.35 876.32 520.71 776.57 632.49 887.07 629.44
00098435 00000038 544.57 203.00 396.77 573.15 745.91 442.01 890.48 435.78 880.28 528.34 779.73 637.47 887.74 631.39
00098436 00000039 548.21 203.84 394.37 578.59 755.28 448.35 892.92 441.38 887.54 533.74 783.85 643.35 888.51 637.32
00098437 00000040 551.97 206.42 392.87 574.67 757.71 452.33 897.13 445.69 890.56 535.78 790.59 646.31 895.24 640.23
00098438 00000041 554.98 203.18 391.01 575.39 758.92 451.52 897.69 444.42 891.59 534.31 794.93 646.77 897.79 640.26
00098439 00000042 554.93 198.35 391.34 574.25 760.45 447.91 898.68 438.64 894.96 530.15 800.67 644.27 900.39 635.85
00098440 00000043 552.51 194.00 392.02 570.87 755.64 438.43 900.36 432.96 892.80 522.47 801.09 638.82 902.73 633.16
00098441 00000044 548.79 193.16 394.19 566.05 748.02 430.64 896.70 424.10 886.94 515.03 795.61 632.64 902.67 625.83
00098442 00000045 547.85 193.54 389.19 562.48 741.76 425.25 888.49 418.62 881.11 508.65 793.36 628.15 899.81 621.31
00098443 00000046 538.92 186.00 387.03 558.14 732.53 435.07 879.45 422.15 870.28 510.98 783.61 622.67 890.38 610.88
00098444 00000047 536.79 179.23 385.46 561.68 728.43 432.27 873.42 415.31 870.37 502.20 783.59 617.75 891.04 602.48
00098445 00000048 532.51 173.95 389.73 568.35 722.26 425.32 868.07 406.49 868.00 490.45 782.20 610.91 895.76 594.00
00098446 00000049 529.82 173.05 390.42 566.42 717.74 421.88 861.22 398.37 862.34 485.58 777.03 604.38 893.57 583.93
00098447 00000050 527.70 175.99 393.27 562.34 712.65 420.46 858.86 396.39 858.04 482.45 770.38 599.64 892.24 578.78
00098448 00000051 525.97 176.54 393.95 561.45 707.85 423.37 854.57 396.05 853.45 484.54 767.70 601.61 888.90 578.47
00098449 00000052 523.37 179.93 391.73 561.81 704.46 427.80 851.44 398.33 848.82 492.85 764.30 609.05 882.20 584.85
00098450 00000053 521.94 183.97 389.18 562.90 705.00 432.89 850.20 406.10 844.92 503.24 762.57 620.02 873.32 598.16
00098451 00000054 520.94 191.87 390.33 560.79 703.66 436.98 852.43 414.36 841.61 511.81 760.78 626.93 872.93 608.62
00098452 00000055 520.62 194.21 392.66 559.92 703.56 438.90 854.22 415.72 842.41 514.99 759.78 627.55 875.02 608.72
00098453 00000056 521.95 193.89 392.83 555.30 702.87 439.20 854.26 414.69 841.77 513.12 761.91 625.45 876.23 605.34
00098454 00000057 520.04 191.25 395.32 555.35 702.62 435.35 854.23 409.86 842.14 509.49 760.02 621.51 875.06 600.71
00098455 00000058 520.48 186.71 394.04 556.75 701.41 431.21 851.26 403.82 840.40 503.34 758.30 616.58 874.14 594.29
00098456 00000059 519.93 182.31 392.63 560.55 700.14 427.29 850.30 400.55 840.95 498.77 756.00 613.61 873.08 592.22
00098457 00000060 520.98 180.57 391.50 560.70 699.92 425.52 850.00 398.93 841.51 495.80 755.96 610.98 873.62 589.76
00098458 00000061 521.50 182.41 390.23 557.00 702.21 422.20 850.40 396.49 843.60 494.77 757.04 608.36 873.93 588.00
00098459 00000062 523.21 180.78 389.91 559.02 703.43 422.12 852.62 396.18 846.23 494.36 757.52 607.49 875.99 586.86
00098460 00000063 524.75 180.87 388.81 561.89 704.82 421.05 853.33 396.92 847.02 494.91 757.08 608.65 875.77 589.43
00098461 00000064 524.40 178.92 391.06 567.73 704.99 418.67 853.39 396.37 847.21 494.10 754.45 608.11 875.33 590.39
00098462 00000065 525.79 177.65 390.83 567.67 706.36 417.04 854.10 395.56 847.51 491.94 754.06 604.97 875.25 587.96
00098463 00000066 525.17 177.11 390.96 563.89 706.86 415.52 855.76 394.39 848.26 489.45 754.06 600.86 876.58 584.11
00098464 00000067 527.77 175.09 389.21 561.80 705.99 415.38 855.76 393.80 847.35 486.97 758.05 599.81 878.63 582.58
00098465 00000068 528.28 177.00 390.10 555.90 707.22 412.77 855.92 391.30 848.20 484.95 762.85 597.53 881.18 580.36
00098466 00000069 529.26 175.64 389.14 554.80 707.19 411.51 855.44 389.20 847.90 482.24 763.74 594.75 882.33 576.79
00098467 00000070 529.56 174.70 388.07 555.69 706.93 409.66 854.57 387.03 848.21 481.12 765.15 594.48 882.14 576.19
00098468 00000071 529.53 172.67 387.55 558.08 705.91 408.41 853.09 386.25 847.11 479.54 763.68 593.51 880.72 575.59
00098469 00000072 528.46 168.97 387.59 561.17 704.68 408.01 851.50 385.15 846.33 478.30 762.94 593.33 879.53 574.89
00098470 00000073 527.43 169.79 388.68 560.45 703.65 404.69 851.96 382.73 845.64 477.35 762.23 592.40 879.62 574.54
00098471 00000074 526.78 169.65 389.05 560.23 703.46 404.10 851.11 382.55 845.09 476.22 761.94 591.75 879.31 574.27
00098472 00000075 527.00 169.71 388.11 559.28 703.07 403.03 850.87 381.97 844.33 476.15 762.12 592.21 878.33 575.18
00098473 00000076 525.93 168.39 388.25 560.28 700.96 403.50 849.69 382.50 843.10 474.77 760.55 591.54 878.21 574.63
00098474 00000077 525.24 167.66 386.16 561.34 699.79 402.43 848.19 382.71 841.44 473.11 758.56 590.80 876.21 575.09
00098475 00000078 523.83 171.34 384.93 559.25 705.49 400.78 858.48 386.77 850.23 472.65 747.06 596.31 876.13 583.46
00098476 00000079 520.15 169.40 386.69 565.26 704.81 399.64 858.01 387.96 851.15 471.40 741.40 594.40 874.74 583.52
00098477 00000080 517.71 168.17 387.10 567.00 702.05 398.45 855.88 387.43 848.81 470.13 736.59 592.82 871.62 582.82
00098478 00000081 515.64 167.43 388.24 569.34 700.07 397.61 854.91 387.52 848.89 468.92 734.42 591.78 871.56 582.51
00098479 00000082 513.26 164.07 389.67 571.61 698.56 397.41 852.74 385.78 847.78 467.92 733.14 590.67 870.52 580.25
00098480 00000083 512.51 163.78 390.28 570.98 696.32 397.41 850.90 383.49 845.54 467.20 732.56 590.32 870.12 578.01
00098481 00000084 511.72 162.92 390.80 572.65 696.28 397.41 849.99 383.23 845.26 466.88 732.66 590.38 869.94 577.89
00098482 00000085 512.97 161.97 389.35 573.70 695.05 398.16 848.83 382.64 844.82 466.91 732.32 591.04 870.01 577.55
00098483 00000086 511.91 162.64 389.73 573.03 695.43 397.54 849.13 383.45 844.64 467.14 733.02 591.13 869.62 578.69
00098484 00000087 511.29 163.01 389.90 573.33 695.25 397.65 848.20 383.25 844.64 466.48 733.86 591.48 869.63 578.75
00098485 00000088 511.77 165.77 389.29 570.16 694.24 397.24 847.86 382.58 843.92 466.21 733.07 591.04 869.62 578.04
00098486 00000089 510.91 165.41 389.92 570.73 694.26 396.80 847.86 382.45 844.41 465.94 733.62 591.20 869.75 578.46
00098487 00000090 511.28 165.75 388.88 570.63 693.69 397.36 847.71 382.81 843.58 466.32 733.87 592.01 870.24 579.05
00098488 00000091 511.39 166.19 388.27 566.70 694.23 397.98 848.62 384.30 842.54 467.01 736.50 592.68 871.02 580.10
00098489 00000092 512.12 165.10 387.13 564.00 694.39 399.74 849.00 383.83 843.14 467.48 739.60 593.73 872.66 579.11
00098490 00000093 512.19 164.98 387.00 562.43 694.21 401.07 849.81 384.17 844.46 467.65 742.10 594.72 874.63 579.22
00098491 00000094 512.38 165.97 386.22 562.87 694.27 402.25 849.22 384.50 843.95 469.21 742.52 596.75 874.12 580.46
00098492 00000095 512.66 167.56 385.83 563.09 694.73 403.30 849.41 387.07 843.67 470.79 742.35 598.32 873.06 583.29
00098493 00000096 510.94 166.31 386.01 563.92 697.08 406.65 850.32 388.49 846.62 473.12 743.96 598.61 873.50 581.96
00098494 00000097 508.95 169.26 389.41 564.57 698.07 410.11 850.75 393.72 847.11 477.28 739.17 598.60 870.32 583.56
00098495 00000098 505.49 172.06 393.57 565.56 695.70 412.56 851.75 396.71 845.93 479.86 734.19 599.75 869.04 585.35
00098496 00000099 505.38 175.13 393.05 566.51 692.38 414.03 850.12 398.66 842.27 481.42 730.85 602.53 867.98 588.60
00098497 00000100 503.34 174.49 392.01 566.21 689.00 412.93 848.10 400.11 838.87 479.51 727.32 601.33 864.81 589.52
00098498 00000101 501.06 174.11 388.73 562.33 685.14 409.94 838.22 396.25 829.87 476.46 724.78 597.85 856.38 585.29
00098499 00000102 496.68 170.15 390.25 559.02 679.23 403.57 832.47 388.83 823.91 466.82 724.22 591.00 855.60 577.35
00098500 00000103 491.82 166.55 391.35 548.56 672.84 397.60 825.36 380.51 817.49 457.73 724.67 584.20 850.46 568.40
00098501 00000104 488.19 158.88 392.20 546.18 668.37 390.63 819.27 372.62 814.93 445.72 727.68 575.26 848.47 558.43
00098502 00000105 485.97 157.70 395.93 542.46 662.27 384.77 817.60 366.80 810.79 437.16 726.39 570.10 849.30 553.09
00098503 00000106 486.58 155.82 396.05 542.58 659.90 380.34 814.93 361.44 808.63 432.44 726.88 568.70 848.98 551.10
00098504 00000107 487.72 153.94 394.93 545.16 660.51 377.13 815.74 358.46 809.59 431.25 727.16 568.34 848.83 550.92
00098505 00000108 488.51 153.42 393.78 548.30 663.81 373.70 817.41 357.82 813.04 431.87 729.96 569.20 850.00 554.03
00098506 00000109 489.79 151.77 390.79 553.39 667.32 372.90 817.89 356.80 816.87 433.73 732.67 571.45 851.13 556.48
00098507 00000110 491.83 150.25 389.82 556.73 670.74 375.96 819.65 358.80 820.61 435.95 735.22 573.55 853.27 558.03
00098508 00000111 494.58 147.17 387.47 559.38 674.21 372.69 819.34 356.96 823.98 432.83 739.12 572.06 854.63 558.23
00098509 00000112 496.07 144.95 387.56 557.27 676.96 367.99 822.19 352.48 826.42 429.54 742.29 569.38 856.52 555.93
00098510 00000113 498.58 135.97 387.04 559.14 678.33 365.33 822.56 347.61 827.60 424.01 743.85 564.37 857.17 549.27
00098511 00000114 500.45 133.75 388.56 556.29 678.07 362.26 824.89 341.77 830.41 417.41 747.09 561.40 862.55 544.06
00098512 00000115 502.20 133.79 386.81 556.48 679.96 360.45 824.03 338.38 830.88 417.28 749.04 561.10 862.73 542.47
00098513 00000116 503.37 131.74 385.40 558.83 682.68 359.28 825.09 337.69 834.25 418.36 751.55 562.00 862.90 544.10
00098514 00000117 505.15 129.37 382.89 559.91 686.45 360.21 829.17 340.70 839.22 420.68 752.25 561.63 864.82 545.60
00098515 00000118 507.20 126.82 381.98 562.57 691.12 363.11 835.37 347.21 845.24 423.10 751.70 562.26 867.23 549.45
00098516 00000119 506.73 128.67 383.70 564.82 697.64 370.27 840.26 356.95 851.74 427.68 751.24 564.17 869.39 553.67
00098517 00000120 507.14 138.14 381.37 556.98 703.51 375.16 841.68 356.95 854.47 437.48 755.03 567.69 868.85 553.07
00098518 00000121 513.06 148.12 376.58 549.51 709.18 379.96 849.98 362.86 860.55 441.94 757.68 569.75 873.39 555.69
00098519 00000122 519.05 150.20 375.90 552.47 716.92 382.73 858.42 371.17 868.02 443.09 760.11 571.34 879.69 561.41
00098520 00000123 525.76 152.85 375.21 554.78 725.60 385.16 860.38 373.41 873.87 443.98 767.16 574.30 883.07 564.43
00098521 00000124 522.85 153.28 381.91 555.93 719.33 385.01 842.51 370.77 862.43 441.26 788.07 565.22 885.59 552.61
00098522 00000125 526.60 145.50 383.31 569.53 728.10 385.87 847.76 369.25 869.82 446.56 792.76 572.19 886.08 558.05
00098523 00000126 531.86 149.67 381.46 567.41 735.65 386.65 853.61 370.71 877.37 450.67 795.48 574.83 887.98 561.17
00098524 00000127 534.20 150.70 382.20 567.50 743.54 387.58 859.73 373.19 884.40 452.43 798.66 575.30 892.12 562.74
00098525 00000128 536.23 149.67 382.03 569.97 747.16 386.66 866.03 371.64 890.26 453.10 803.51 576.72 898.47 563.30
00098526 00000129 538.68 143.39 385.23 577.74 752.36 387.00 868.51 369.63 896.96 450.40 809.71 577.77 905.35 562.25
00098527 00000130 542.92 142.63 380.24 572.02 756.34 389.09 871.36 369.81 900.85 448.72 817.09 575.81 909.28 558.84
00098528 00000131 545.18 145.36 383.08 568.19 758.45 392.35 876.88 370.70 905.36 449.66 819.59 577.45 916.13 558.23
00098529 00000132 546.15 151.15 383.73 562.48 758.10 391.52 878.13 371.20 906.51 449.95 820.36 578.20 918.27 560.28
00098530 00000133 545.84 148.55 384.17 568.63 759.21 390.06 877.47 371.10 907.61 450.67 822.12 579.98 918.28 563.63
00098531 00000134 545.72 150.03 385.42 570.43 759.75 388.25 877.04 371.78 908.06 452.96 823.66 582.72 918.05 568.82
00098532 00000135 546.37 150.89 384.85 571.89 758.95 387.54 877.47 371.71 907.39 454.15 823.28 584.89 917.86 571.67
00098533 00000136 546.81 151.66 383.81 571.64 757.96 387.96 878.17 371.24 907.14 454.55 822.63 585.36 918.82 571.14
00098534 00000137 545.82 147.31 382.59 574.40 757.34 387.80 875.34 371.76 904.68 453.18 822.47 583.54 915.85 569.89
00098535 00000138 543.51 149.37 384.33 574.10 753.71 385.65 872.68 369.97 900.78 451.68 819.92 583.08 914.14 569.41
00098536 00000139 542.98 147.58 384.43 576.39 749.92 385.03 871.56 369.60 896.15 449.25 813.30 581.61 911.06 567.73
00098537 00000140 540.91 151.63 385.01 571.77 746.04 383.92 868.80 368.84 892.37 448.89 808.48 579.12 908.81 565.42
00098538 00000141 538.27 150.83 386.53 571.74 739.29 380.57 862.69 365.23 886.28 442.16 804.03 575.00 905.91 561.28
00098539 00000142 538.18 149.13 384.66 571.70 733.97 376.55 860.34 361.59 880.51 436.81 799.35 571.73 902.10 558.36
00098540 00000143 536.37 136.79 385.64 582.51 729.90 372.96 857.26 358.48 875.70 432.36 796.43 568.96 897.34 556.33
00098541 00000144 535.53 134.09 388.84 584.46 725.23 366.98 854.62 351.66 870.94 428.51 791.33 564.62 895.23 550.94
00098542 00000145 531.64 137.19 391.90 579.77 721.46 361.73 852.44 350.13 866.71 424.72 783.80 558.19 890.96 547.40
00098543 00000146 531.92 136.46 390.74 579.26 715.67 357.76 852.18 349.81 863.14 421.70 777.09 556.19 889.07 548.41
00098544 00000147 530.62 137.27 387.73 577.65 712.28 354.67 848.37 348.70 861.31 419.81 775.84 555.77 886.59 549.75
00098545 00000148 529.70 139.85 386.31 572.22 711.22 353.65 847.68 348.01 861.44 419.94 773.82 554.60 885.07 548.95
00098546 00000149 526.80 137.57 385.86 567.28 710.23 354.28 847.80 348.27 861.92 418.98 775.60 551.33 886.32 545.64
00098547 00000150 527.49 133.58 386.43 565.00 710.62 357.69 847.33 347.96 859.58 419.16 778.11 549.61 887.15 540.85
00098548 00000151 527.38 130.34 385.99 569.34 710.71 358.87 844.61 346.41 858.58 419.48 784.31 554.70 887.87 543.57
00098549 00000152 527.40 126.93 384.23 569.35 713.17 358.94 843.80 344.22 858.30 420.98 789.15 555.81 887.16 542.95
00098550 00000153 527.63 129.73 384.43 566.17 712.62 360.85 843.11 345.19 856.25 420.15 787.27 553.24 886.69 539.56
00098551 00000154 524.85 131.51 386.28 565.86 712.86 361.87 842.56 347.67 854.98 421.13 785.26 553.16 885.14 540.73
00098552 00000155 525.44 133.72 385.67 567.96 712.07 361.68 843.62 350.28 854.71 421.91 784.02 555.73 884.16 545.57
00098553 00000156 523.90 134.67 388.92 568.02 710.30 361.86 845.65 350.73 856.71 422.37 779.44 554.21 886.28 544.22
00098554 00000157 524.89 133.76 389.56 564.86 710.66 361.78 848.03 351.26 858.38 421.75 782.03 554.54 889.32 545.11
00098555 00000158 527.24 132.20 389.74 563.31 713.08 360.80 848.50 349.58 860.41 419.55 789.27 555.27 893.11 545.06
00098556 00000159 528.73 131.27 389.67 561.77 714.86 360.05 849.17 347.80 861.70 418.70 792.91 555.08 894.66 543.98
00098557 00000160 529.82 132.14 389.15 558.73 717.09 358.97 850.74 348.14 862.67 419.64 792.79 553.41 893.71 543.40
00098558 00000161 530.69 131.15 388.29 559.87 717.75 359.95 851.61 349.25 863.70 420.60 793.30 554.69 893.85 544.90
00098559 00000162 531.50 132.75 386.89 557.87 718.31 361.16 852.49 349.62 863.91 422.98 793.30 556.02 893.19 545.65
00098560 00000163 531.46 134.15 386.46 558.43 719.52 364.51 850.86 351.52 864.22 426.68 793.36 556.86 891.69 545.46
00098561 00000164 528.51 132.08 385.26 557.70 713.24 373.42 855.45 358.72 857.41 436.02 779.59 559.30 891.95 547.18
00098562 00000165 532.14 134.09 385.80 561.21 720.57 368.79 851.94 353.89 864.28 431.36 794.05 559.85 891.47 547.04
00098563 00000166 531.89 135.44 385.20 562.52 720.16 372.30 850.54 355.72 864.00 434.25 797.06 564.56 892.57 550.27
00098564 00000167 532.13 136.60 384.25 562.97 720.70 374.34 849.24 356.03 863.18 436.48 798.56 567.63 891.58 551.94
00098565 00000168 531.22 140.95 384.11 556.50 719.25 371.79 848.53 355.13 863.43 434.07 798.99 565.89 893.54 551.27
00098566 00000169 530.58 134.03 384.86 559.86 717.48 366.96 846.47 352.09 860.81 427.99 795.81 560.71 891.12 547.74
00098567 00000170 527.92 136.57 384.65 556.32 715.29 362.68 843.76 348.17 858.12 426.43 792.71 558.39 888.18 545.62
