Video ID: 	X4xJDyIOJD4
H: 	1080
W: 	1920
FPS: 	25.0

FRAME INDEX X0 Y0 W H [Landmarks (5 Points)]

00026425 00000000 824.64 187.63 352.51 526.93 872.81 411.90 1011.02 406.83 900.02 498.74 888.37 600.77 994.38 596.13
00026426 00000001 824.06 190.54 355.47 533.06 875.46 412.38 1012.87 405.40 903.51 496.77 893.09 603.27 999.52 596.63
00026427 00000002 819.60 190.75 356.24 531.33 869.62 412.07 1007.51 409.05 900.89 500.79 890.68 598.90 1003.92 598.32
00026428 00000003 819.48 189.97 356.44 532.29 869.61 412.72 1007.68 409.99 900.78 503.56 891.28 598.55 1006.29 597.94
00026429 00000004 824.38 192.55 353.13 533.15 877.17 412.56 1011.60 407.59 904.02 501.78 894.48 602.65 1004.06 597.43
00026430 00000005 822.82 189.78 354.27 535.74 875.52 415.85 1015.61 410.94 902.28 500.49 889.48 602.79 1002.04 597.92
00026431 00000006 821.40 186.58 356.66 533.44 877.38 413.27 1021.40 413.22 904.33 495.34 882.35 596.64 994.74 596.28
00026432 00000007 821.54 190.21 356.00 528.98 881.68 412.35 1028.06 419.56 908.69 493.89 879.07 593.83 993.26 599.35
00026433 00000008 821.03 192.50 362.43 529.21 884.89 413.53 1035.89 431.72 913.33 501.99 874.89 593.43 990.07 608.01
00026434 00000009 817.10 196.95 370.29 531.96 885.22 417.49 1046.53 449.49 919.30 514.00 867.46 596.94 993.21 622.39
00026435 00000010 814.94 211.86 371.06 522.25 885.66 423.46 1047.04 462.01 922.86 529.30 864.31 605.05 989.16 635.66
00026436 00000011 812.56 228.58 372.23 516.08 885.65 439.50 1045.95 477.14 921.59 540.30 867.82 616.74 991.14 645.95
00026437 00000012 811.14 232.69 366.92 515.78 881.78 449.70 1043.41 478.89 922.30 549.01 869.07 629.00 992.07 651.58
00026438 00000013 806.25 232.41 363.72 514.89 877.07 452.79 1036.80 477.87 918.68 551.24 867.35 632.35 989.82 651.57
00026439 00000014 800.22 227.33 358.37 512.89 871.74 451.35 1027.73 466.19 917.20 538.20 872.33 630.21 988.43 641.79
00026440 00000015 795.03 205.68 356.27 523.29 866.94 438.34 1014.50 444.03 912.93 519.26 877.25 615.17 987.57 619.63
00026441 DELETE   790.55 196.10 358.69 513.71 864.72 423.13 1017.01 422.13 911.08 499.12 878.40 600.19 992.74 599.29
00026442 00000017 789.96 181.50 359.77 518.48 862.76 404.15 1016.65 403.80 924.79 486.91 882.61 585.50 1007.36 586.79
00026443 00000018 790.49 174.22 364.20 513.11 858.32 399.32 1015.72 397.40 913.50 487.67 882.33 576.40 1005.17 575.96
00026444 00000019 796.66 166.61 364.75 512.46 859.78 400.17 1011.37 387.52 918.00 474.90 892.10 574.99 1009.93 563.20
00026445 00000020 798.72 168.96 361.15 508.40 861.64 393.59 1014.73 393.01 910.71 481.34 884.80 569.13 1001.85 569.98
00026446 00000021 811.01 173.74 356.26 508.40 869.54 394.75 1013.43 394.21 917.21 481.19 888.86 573.51 1006.72 574.58
00026447 00000022 818.50 177.11 355.37 507.59 877.15 397.30 1023.16 400.42 922.58 485.72 892.81 576.87 1012.32 581.13
00026448 00000023 822.69 181.15 360.50 512.68 880.58 404.47 1034.63 405.54 927.82 492.74 897.65 582.41 1022.84 585.00
00026449 00000024 827.73 180.85 361.95 517.21 882.74 408.21 1039.92 407.48 928.15 496.44 900.33 585.97 1029.24 587.01
00026450 00000025 831.13 177.67 357.69 522.27 889.27 410.82 1040.30 402.18 930.12 483.69 903.78 584.38 1023.49 576.56
00026451 00000026 840.02 179.12 355.60 509.92 888.85 394.98 1042.01 391.43 931.62 481.03 908.82 577.37 1034.48 574.18
00026452 00000027 855.09 174.78 350.62 517.56 898.98 395.74 1044.24 399.44 935.41 486.42 914.11 573.15 1032.94 575.35
00026453 00000028 860.42 174.76 353.99 521.97 908.45 393.05 1048.95 393.28 935.54 484.85 924.87 579.61 1042.93 579.42
00026454 00000029 869.85 174.56 352.35 537.39 917.09 399.57 1056.07 393.54 944.14 488.70 934.61 594.89 1047.46 590.44
00026455 00000030 873.61 180.61 346.14 535.86 925.42 399.35 1058.84 406.41 952.96 496.93 935.42 594.20 1044.11 601.96
00026456 00000031 879.41 187.26 348.19 528.83 929.70 407.16 1063.98 410.04 945.50 496.01 936.02 600.20 1037.14 603.43
00026457 00000032 885.93 188.62 348.45 517.65 934.19 404.64 1071.03 413.26 942.79 494.55 928.52 592.67 1035.01 600.61
00026458 00000033 887.86 188.64 349.71 518.29 940.21 401.23 1076.27 413.83 948.12 491.09 929.16 590.28 1031.77 601.50
00026459 00000034 887.32 185.71 352.75 524.63 943.62 401.83 1081.68 413.34 955.68 488.31 936.63 591.71 1036.08 601.73
00026460 00000035 887.46 183.79 354.51 525.16 943.08 401.37 1083.68 412.53 958.20 490.96 937.28 590.26 1042.85 599.79
00026461 00000036 885.99 184.04 354.42 522.61 939.40 399.67 1080.32 410.96 955.09 491.59 934.59 590.68 1040.96 600.36
00026462 00000037 886.52 186.68 351.28 522.74 937.45 400.80 1076.18 410.12 951.42 491.55 934.77 594.93 1035.58 603.09
00026463 00000038 885.09 187.35 347.88 515.98 931.60 402.84 1070.63 410.28 944.48 491.46 928.61 595.55 1031.72 602.61
00026464 00000039 875.37 186.65 352.86 511.12 926.92 402.63 1063.72 412.05 939.72 491.12 921.64 589.92 1026.15 599.11
00026465 00000040 870.96 180.16 346.18 513.43 916.17 401.03 1061.20 410.04 947.81 492.23 910.42 586.91 1021.34 594.93
00026466 00000041 867.98 181.35 346.74 516.30 913.56 401.60 1058.54 409.76 945.75 492.71 907.80 588.64 1020.40 595.95
00026467 00000042 865.88 179.69 346.70 518.69 913.07 401.57 1058.08 410.75 945.16 493.26 907.82 588.70 1020.33 596.74
00026468 00000043 865.24 178.36 346.41 518.67 912.21 402.07 1057.94 411.17 945.24 493.48 907.99 587.15 1021.97 595.12
00026469 00000044 863.23 178.81 347.86 517.70 911.23 401.94 1057.13 411.39 945.48 494.28 907.94 585.71 1023.54 593.85
00026470 00000045 862.10 178.26 347.71 517.98 910.36 401.61 1056.32 411.43 945.68 494.26 907.96 585.08 1024.07 593.42
00026471 00000046 861.86 177.81 347.38 525.62 911.44 399.49 1059.05 410.45 946.93 495.26 908.09 587.90 1026.28 597.13
00026472 00000047 862.34 179.09 347.68 520.48 911.33 401.42 1059.50 411.18 948.06 495.07 909.46 586.57 1028.76 594.75
00026473 00000048 863.24 180.34 348.23 516.58 912.07 402.26 1060.84 411.40 949.72 495.65 911.75 584.96 1031.32 592.65
00026474 00000049 866.00 188.66 354.20 510.02 922.41 407.28 1063.92 415.54 949.84 497.51 924.14 591.09 1036.90 598.54
00026475 00000050 869.67 189.09 354.20 512.56 924.76 408.06 1066.16 415.02 951.41 498.16 927.01 593.16 1039.62 599.56
00026476 00000051 870.09 190.45 355.07 515.33 928.01 408.67 1069.06 416.21 954.80 498.16 929.29 593.20 1041.88 600.06
00026477 00000052 872.11 189.69 354.67 517.23 930.49 408.13 1072.14 415.05 957.00 496.89 931.26 593.43 1044.23 599.87
00026478 00000053 872.89 188.21 353.68 519.71 931.17 406.81 1072.84 413.47 958.09 496.52 932.56 592.65 1045.67 598.83
00026479 00000054 873.20 186.67 353.30 521.02 931.76 404.77 1073.40 411.79 958.60 495.88 933.54 591.06 1046.60 597.43
00026480 00000055 872.92 186.56 353.38 522.90 931.52 404.65 1073.71 410.81 959.07 495.41 934.56 591.78 1047.46 597.44
00026481 00000056 872.50 186.56 353.91 523.91 931.12 405.03 1073.41 410.52 959.21 495.40 934.85 592.72 1047.99 597.87
00026482 00000057 872.29 186.93 353.85 524.28 930.22 406.01 1072.70 410.87 958.84 496.27 934.61 593.84 1047.74 598.47
00026483 00000058 870.62 187.27 353.89 524.33 928.73 406.84 1071.11 412.11 956.62 496.33 933.11 594.68 1045.56 599.67
00026484 00000059 869.48 187.44 353.43 526.77 927.92 406.92 1070.38 412.18 956.89 496.92 933.73 596.91 1046.26 601.89
00026485 00000060 868.73 186.72 353.83 535.09 926.81 404.06 1070.86 409.25 956.76 495.86 935.61 600.22 1049.49 604.87
00026486 00000061 868.51 184.80 352.14 541.02 925.14 401.05 1068.63 405.52 954.42 494.14 936.80 600.20 1051.23 603.93
00026487 00000062 866.46 183.84 353.48 542.71 923.15 400.44 1067.25 404.70 953.04 494.27 936.23 600.84 1050.49 604.29
00026488 00000063 865.40 182.26 351.63 542.69 921.37 401.25 1064.89 404.96 952.41 495.20 934.44 599.59 1049.05 602.74
00026489 00000064 862.64 181.47 352.53 536.04 919.55 404.09 1062.16 408.04 951.67 497.73 930.48 597.81 1045.38 601.60
00026490 00000065 859.77 182.44 353.86 528.84 917.24 405.78 1059.90 410.70 949.74 498.99 926.49 595.75 1041.18 600.36
00026491 00000066 856.93 183.13 353.86 530.51 913.91 407.43 1058.06 412.62 947.09 502.01 924.63 598.97 1041.18 603.77
00026492 00000067 854.85 186.28 352.59 528.75 910.95 412.22 1055.62 418.68 942.52 508.11 922.55 603.46 1040.15 609.38
00026493 00000068 847.96 185.01 350.24 532.96 900.03 415.13 1047.03 425.32 938.34 515.72 906.49 601.03 1028.26 608.57
00026494 00000069 841.31 194.08 350.65 527.66 892.43 420.80 1041.31 431.34 929.39 519.70 900.54 604.98 1023.14 612.09
00026495 00000070 833.88 203.53 352.11 521.95 885.10 429.45 1026.20 434.73 920.19 521.59 898.05 610.59 1011.13 612.90
00026496 00000071 825.45 210.32 352.28 518.39 872.35 426.93 1009.13 432.44 901.39 518.75 887.97 614.93 990.20 617.56
00026497 00000072 815.09 203.07 350.63 520.14 861.52 427.01 999.36 430.14 887.76 520.20 874.59 616.64 971.48 618.74
00026498 00000073 814.79 197.67 344.62 517.23 848.30 422.48 993.62 424.82 887.46 522.12 862.93 612.99 973.02 614.17
00026499 00000074 814.21 195.27 341.90 516.88 846.03 418.17 989.41 420.42 880.59 517.83 858.76 609.19 967.42 610.41
00026500 00000075 811.53 191.13 341.27 519.78 845.63 416.11 983.76 415.34 877.38 510.49 858.22 607.19 961.19 606.23
00026501 00000076 808.94 190.05 343.74 513.42 843.66 413.95 983.25 412.29 875.65 502.28 853.17 601.05 957.30 599.75
00026502 00000077 806.34 186.41 344.23 510.14 843.44 408.89 985.40 407.53 875.11 496.18 849.19 596.29 959.12 595.43
00026503 00000078 800.93 186.47 346.98 512.08 839.55 403.66 986.50 402.49 875.00 491.93 848.00 594.12 959.24 593.55
00026504 00000079 797.53 185.95 347.45 517.19 837.29 403.46 981.47 400.97 872.53 490.70 845.66 595.33 956.12 593.67
00026505 00000080 794.61 190.71 348.40 507.61 834.10 406.70 977.45 403.00 869.13 492.06 840.95 592.17 954.06 589.59
00026506 00000081 789.12 191.51 348.63 507.77 827.89 410.49 970.03 409.00 860.96 496.90 835.83 593.04 947.91 592.15
00026507 00000082 786.59 194.09 349.28 509.02 826.60 412.73 965.52 412.67 858.17 503.19 836.79 597.27 943.44 597.46
00026508 00000083 788.30 196.57 346.55 509.12 828.16 415.66 966.11 415.32 859.36 506.69 840.86 601.06 944.03 600.83
00026509 00000084 791.43 197.50 345.82 511.53 830.52 415.01 971.79 412.27 863.68 507.63 846.84 605.71 948.82 603.54
00026510 00000085 798.41 197.69 347.18 510.05 836.58 412.50 979.00 406.48 872.61 500.17 853.67 605.35 956.22 600.57
00026511 00000086 803.64 190.91 346.41 506.52 842.84 410.25 988.68 403.04 884.23 495.04 859.42 600.64 964.48 594.93
00026512 00000087 813.42 190.49 348.06 501.77 854.94 403.94 995.72 398.26 880.00 491.52 869.99 594.23 973.74 590.19
00026513 00000088 815.78 186.84 350.20 502.39 859.87 400.32 1002.48 394.34 885.88 486.50 873.46 587.70 978.77 583.09
00026514 00000089 818.59 183.75 351.62 511.46 862.00 397.96 1007.23 389.34 889.75 484.29 877.96 589.43 985.00 582.52
00026515 00000090 819.85 182.43 353.59 522.20 864.90 400.07 1010.07 388.58 895.01 481.57 884.73 594.41 991.17 584.91
00026516 00000091 821.04 181.96 357.19 526.94 868.32 401.75 1013.14 390.84 899.38 482.92 885.98 593.57 996.32 584.41
00026517 00000092 824.74 183.36 358.41 528.50 873.50 405.50 1016.51 396.06 901.66 485.41 888.09 593.84 998.81 585.83
00026518 00000093 827.77 188.11 357.07 526.55 876.13 406.82 1019.86 401.24 904.82 491.76 887.50 597.80 1000.14 592.68
00026519 00000094 831.31 185.19 354.84 525.69 877.42 409.08 1020.78 406.34 905.79 497.56 884.73 597.24 999.33 594.66
00026520 00000095 834.39 187.61 351.09 518.48 879.36 411.73 1021.09 411.77 907.28 501.14 885.05 595.09 997.71 594.73
00026521 00000096 837.32 187.42 349.28 519.86 880.47 415.01 1020.58 416.56 908.24 506.01 887.60 596.82 996.91 597.58
00026522 00000097 838.71 187.99 348.71 523.41 883.98 414.94 1022.67 418.04 912.12 504.78 892.28 600.81 994.81 603.00
00026523 00000098 840.28 187.17 348.15 523.34 884.87 415.70 1026.62 418.06 914.35 503.62 892.06 600.82 996.19 602.67
00026524 00000099 841.08 186.82 349.86 520.10 886.64 416.32 1029.07 417.82 916.60 500.56 892.60 598.88 998.41 600.13
00026525 00000100 842.07 185.20 350.90 519.97 887.73 415.20 1031.55 417.30 917.99 499.41 892.74 596.70 1000.40 598.38
00026526 00000101 842.90 184.51 350.69 521.09 888.33 412.61 1030.69 414.08 916.91 496.30 893.25 595.72 997.98 597.09
00026527 00000102 840.20 182.49 351.93 522.12 887.31 409.51 1030.60 408.73 915.59 492.82 894.20 593.72 999.07 593.32
00026528 00000103 838.98 180.55 354.10 522.35 887.64 405.28 1028.58 405.31 913.49 490.12 893.23 588.60 999.21 588.84
00026529 00000104 835.52 180.60 356.79 522.08 885.50 406.01 1026.22 402.09 912.03 487.82 892.73 587.50 1000.13 584.38
00026530 00000105 834.80 180.45 354.87 523.90 884.30 407.45 1024.12 400.99 909.23 485.88 894.02 590.95 999.23 585.62
00026531 00000106 834.25 182.82 354.40 518.10 880.33 404.92 1021.88 398.71 904.20 485.28 889.37 588.63 997.20 583.40
00026532 00000107 833.41 180.58 354.66 516.50 879.35 403.18 1020.51 398.65 902.75 486.89 887.35 584.92 995.43 581.19
00026533 00000108 833.26 181.04 354.60 514.68 879.46 402.44 1020.11 398.67 903.00 486.91 886.89 584.62 992.70 581.59
00026534 00000109 832.25 181.72 354.72 515.64 879.51 402.81 1020.17 398.88 903.50 486.06 886.91 585.28 990.97 582.22
00026535 00000110 830.25 181.53 356.46 519.42 878.66 403.23 1020.35 397.59 904.45 484.94 890.36 590.08 990.32 585.58
00026536 00000111 830.51 180.30 355.56 518.65 878.10 401.89 1022.84 397.98 904.82 486.43 887.47 588.24 995.29 585.05
00026537 00000112 831.39 180.81 354.67 513.80 880.02 400.69 1024.24 397.83 905.40 485.48 887.46 583.83 997.49 581.56
00026538 00000113 830.47 179.63 355.20 516.87 881.77 401.89 1027.01 398.42 908.03 483.84 889.22 584.47 1000.02 581.66
00026539 00000114 828.51 178.35 355.63 520.67 882.86 402.57 1029.20 397.42 911.75 482.70 891.38 586.12 1002.95 582.05
00026540 00000115 828.19 177.10 356.82 523.12 882.90 400.94 1032.63 396.30 913.08 483.38 891.43 587.18 1006.25 583.47
00026541 00000116 828.31 180.45 358.83 521.11 875.44 397.86 1033.72 392.41 917.36 483.18 891.99 591.79 1015.74 588.59
00026542 00000117 830.10 178.67 358.96 521.71 877.94 398.25 1035.87 393.30 920.47 483.55 894.88 590.76 1019.74 587.63
00026543 00000118 830.89 174.57 357.69 525.03 889.65 400.05 1039.48 397.68 923.75 484.47 896.33 580.41 1018.02 578.26
00026544 00000119 832.39 174.59 356.41 525.39 890.22 400.40 1038.80 397.63 926.29 485.97 898.98 582.82 1016.69 580.46
00026545 00000120 834.58 175.29 355.30 525.47 892.10 401.34 1039.56 399.03 929.86 486.28 901.33 585.48 1015.36 583.54
00026546 00000121 837.04 175.55 354.33 522.83 895.12 400.49 1042.00 399.59 933.81 484.86 902.78 583.74 1016.11 583.00
00026547 00000122 839.15 175.05 353.80 521.54 898.02 401.22 1043.39 400.75 937.60 485.22 905.82 584.05 1017.12 583.62
00026548 00000123 843.23 174.88 352.25 521.30 901.30 400.24 1045.81 400.99 942.64 486.62 908.67 584.63 1017.90 585.33
00026549 00000124 846.45 174.37 350.36 520.82 903.96 399.67 1048.44 402.02 946.21 487.04 910.74 584.71 1018.79 586.79
00026550 00000125 849.08 173.38 350.81 518.62 904.56 399.23 1048.68 401.74 945.09 485.64 910.27 582.86 1019.99 585.03
00026551 00000126 852.06 172.14 349.51 521.11 906.37 398.28 1049.99 402.25 946.77 487.82 910.64 582.85 1021.01 586.27
00026552 00000127 854.88 171.63 347.63 530.33 908.04 396.10 1055.81 400.92 950.29 486.64 912.48 589.13 1023.17 593.22
00026553 00000128 858.11 173.86 346.33 534.17 911.97 397.21 1058.16 401.00 954.06 487.67 919.79 594.79 1021.05 598.19
00026554 00000129 858.42 174.30 349.81 535.26 916.32 399.06 1050.76 403.18 956.91 492.80 926.54 598.18 1022.28 603.32
00026555 00000130 861.89 173.90 349.46 541.59 919.35 399.96 1053.42 403.44 957.84 491.84 930.65 600.70 1025.94 605.63
00026556 00000131 862.99 180.44 358.68 543.44 922.33 404.28 1066.31 399.38 955.79 483.80 943.12 604.88 1039.39 601.10
00026557 00000132 868.05 178.23 349.90 542.60 926.79 400.93 1066.77 403.17 966.91 489.94 938.95 598.83 1047.68 603.34
00026558 00000133 868.22 182.09 356.84 530.65 924.23 404.62 1071.44 404.91 959.00 492.50 937.95 597.03 1051.23 597.26
00026559 00000134 869.20 183.74 357.10 520.12 925.30 405.58 1073.74 407.20 960.19 492.77 935.42 593.05 1050.52 594.36
00026560 00000135 869.89 185.17 355.70 519.13 927.43 407.04 1074.07 408.31 963.21 493.47 937.78 594.94 1047.53 596.35
00026561 00000136 871.59 186.61 354.51 524.30 928.49 409.59 1073.37 408.63 961.98 492.14 939.95 602.81 1041.66 602.83
00026562 00000137 872.77 185.97 354.15 516.10 928.35 408.84 1073.94 410.29 961.29 495.14 936.85 598.42 1042.55 600.43
00026563 00000138 872.27 187.97 354.73 508.81 928.22 409.96 1073.23 410.76 961.32 494.72 937.17 596.63 1042.79 598.06
00026564 00000139 871.24 188.40 355.42 507.85 928.54 410.10 1073.56 411.59 962.26 494.35 936.56 596.69 1042.30 598.62
00026565 00000140 869.22 183.31 350.24 520.06 920.02 406.80 1071.39 411.40 965.66 496.15 929.27 596.81 1044.90 600.25
00026566 00000141 869.90 186.52 354.27 530.05 924.63 409.65 1069.14 411.34 956.46 498.38 936.17 606.31 1046.07 608.28
00026567 00000142 869.42 187.54 352.53 525.25 922.34 410.28 1064.29 413.42 951.95 500.71 931.58 603.55 1042.69 606.86
00026568 00000143 868.01 184.95 343.77 514.36 912.29 408.80 1059.43 413.26 953.73 501.17 918.10 597.17 1030.94 600.92
00026569 00000144 864.46 183.93 345.10 515.65 909.42 408.42 1055.39 413.67 949.98 498.25 914.05 595.77 1022.54 600.33
00026570 00000145 861.24 182.68 345.38 521.87 908.07 408.77 1052.17 414.48 945.50 497.45 909.99 597.94 1016.29 602.97
00026571 00000146 857.59 180.85 347.91 525.78 905.29 409.12 1050.84 415.89 941.64 498.54 907.50 597.92 1015.76 603.57
00026572 00000147 853.60 181.52 348.78 525.67 901.09 409.63 1046.64 416.35 937.04 498.80 905.47 597.30 1014.30 602.76
00026573 00000148 849.87 181.90 349.95 528.49 897.51 409.17 1040.92 415.69 930.66 498.66 904.21 597.00 1010.72 602.15
00026574 00000149 847.55 182.03 349.45 531.77 895.30 408.44 1037.61 413.28 927.14 498.84 903.68 598.77 1008.43 602.52
00026575 00000150 845.83 183.33 348.28 534.77 893.08 413.43 1035.81 417.79 922.54 498.71 901.92 601.47 1005.65 604.53
00026576 00000151 842.18 189.51 349.87 530.86 890.60 417.20 1035.85 419.87 920.57 497.09 899.17 602.74 1003.22 604.27
00026577 00000152 838.54 191.96 350.29 530.25 887.51 419.82 1030.15 421.06 916.25 499.83 895.85 604.98 998.83 605.54
00026578 00000153 836.73 191.68 348.34 531.81 884.80 417.01 1021.82 418.24 910.14 502.37 893.83 604.52 994.48 604.85
00026579 00000154 835.19 191.03 347.12 528.44 879.08 416.90 1016.11 417.16 902.10 501.93 889.29 604.82 989.63 604.37
00026580 00000155 833.62 191.35 347.62 522.66 878.22 416.57 1016.42 418.04 900.20 499.54 884.57 601.09 988.01 601.83
00026581 00000156 831.39 191.91 350.04 525.39 881.11 413.92 1022.52 413.04 907.44 494.57 888.00 600.12 990.06 598.91
00026582 00000157 830.60 191.89 351.50 529.36 882.06 412.94 1023.27 408.53 909.87 490.10 893.58 602.42 993.19 598.25
00026583 00000158 829.52 186.70 352.52 523.56 878.49 408.44 1020.85 404.72 902.93 486.26 885.02 595.75 989.82 592.63
00026584 00000159 828.95 185.48 353.87 515.76 875.04 405.62 1015.72 402.27 898.48 485.95 880.53 591.51 986.91 588.99
CROP_BBOX: 606 0 1421 864
