Video ID: 	OMv7YX6AziQ
H: 	1080
W: 	1920
FPS: 	25.0

FRAME INDEX X0 Y0 W H [Landmarks (5 Points)]

00098013 00000000 544.56 185.16 438.27 565.03 691.02 405.05 885.30 407.35 809.84 495.99 717.28 605.09 872.07 607.15
00098014 00000001 550.64 184.11 437.56 564.78 694.83 405.74 888.52 407.39 812.19 495.98 720.24 604.44 875.34 605.85
00098015 00000002 554.32 183.59 436.39 564.73 696.82 404.93 889.70 407.47 812.82 495.21 721.24 601.79 876.38 603.72
00098016 00000003 556.12 182.97 435.98 565.39 698.43 405.07 890.17 407.12 813.30 494.45 722.12 601.10 876.77 602.73
00098017 00000004 556.11 185.46 435.47 561.77 697.78 406.29 890.06 407.76 813.03 495.59 721.83 601.09 877.83 602.26
00098018 00000005 551.45 184.71 437.62 564.14 694.29 406.41 888.46 408.74 810.18 495.41 719.52 602.50 876.92 604.28
00098019 00000006 553.00 183.28 427.53 560.33 686.15 413.02 882.93 414.42 802.45 501.27 711.88 603.25 876.68 604.49
00098020 DELETE   542.66 185.13 432.64 561.05 673.30 417.42 871.69 412.66 789.89 506.43 703.34 604.85 871.95 601.43
00098021 DELETE   533.71 186.87 436.69 559.22 658.26 421.52 849.76 412.41 766.51 514.11 693.33 608.82 856.76 600.74
00098022 00000009 527.21 185.19 438.80 561.89 646.40 428.87 841.25 418.64 749.72 517.93 679.08 613.20 845.70 604.12
00098023 00000010 512.71 189.53 446.89 558.71 635.98 429.75 832.17 418.85 738.69 516.86 669.06 615.93 835.14 606.46
00098024 00000011 508.88 187.41 445.09 560.87 630.22 428.35 827.94 418.66 732.47 514.96 660.68 614.13 831.65 605.24
00098025 00000012 507.37 189.62 441.76 555.16 624.47 428.62 823.71 418.39 726.21 514.67 654.88 612.94 828.87 603.53
00098026 00000013 506.86 189.63 439.91 553.18 623.41 430.69 823.21 420.10 725.32 513.82 652.59 613.09 827.39 603.52
00098027 00000014 507.05 188.89 440.18 554.28 623.83 429.58 823.90 419.26 725.87 514.17 652.51 612.39 827.48 602.86
00098028 00000015 509.88 184.93 441.89 558.87 628.05 429.17 827.00 417.91 729.42 513.45 656.46 611.38 829.67 601.13
00098029 00000016 513.34 186.15 444.05 552.25 633.83 426.34 833.27 417.27 735.32 510.07 661.99 608.38 833.22 600.13
00098030 00000017 517.81 189.03 443.26 549.17 638.84 424.85 837.51 413.83 742.80 505.04 671.80 606.66 840.38 597.04
00098031 00000018 525.01 185.84 439.90 550.85 645.18 422.57 844.03 412.32 749.85 503.50 676.74 602.93 845.87 594.43
00098032 00000019 532.53 185.23 430.42 547.69 654.30 417.23 843.10 408.88 756.61 497.88 691.51 600.33 844.63 593.54
00098033 00000020 534.77 180.03 425.97 549.04 658.48 413.82 840.77 407.41 757.96 494.35 695.48 600.24 836.99 595.35
00098034 DELETE   536.61 176.31 418.31 553.13 663.16 403.19 841.62 398.80 764.78 485.05 700.76 595.98 835.94 592.87
00098035 DELETE   532.63 174.70 423.14 550.68 665.70 400.41 845.03 393.76 773.09 476.82 709.01 594.50 843.24 589.24
00098036 00000023 530.70 172.37 425.47 552.78 671.03 397.03 849.49 390.72 779.84 469.88 712.85 594.42 844.09 589.44
00098037 00000024 534.90 166.90 423.98 569.28 674.40 385.09 856.73 385.18 785.43 464.34 707.72 590.00 847.31 590.21
00098038 DELETE   538.20 164.43 427.23 578.53 681.51 376.05 868.50 381.28 796.66 457.38 710.13 589.44 855.64 593.74
00098039 DELETE   542.76 162.67 430.08 573.79 689.67 373.69 875.19 380.16 805.75 454.19 715.07 583.32 859.10 588.27
00098040 DELETE   547.72 166.82 429.36 562.39 700.98 369.60 886.02 378.38 819.34 447.72 724.77 577.45 866.41 584.29
00098041 00000028 549.56 172.21 433.02 553.04 708.73 367.61 893.10 375.55 828.95 447.96 731.59 575.50 872.42 581.50
00098042 DELETE   551.37 172.70 436.97 552.30 717.14 367.43 900.09 379.53 835.47 451.25 735.99 574.37 877.06 583.68
00098043 00000030 554.15 174.11 440.82 552.29 722.71 367.67 906.70 379.69 841.69 453.33 739.53 575.15 882.99 584.17
00098044 DELETE   561.24 173.78 439.33 556.85 727.29 369.58 910.02 381.56 848.19 452.53 743.41 576.26 888.27 585.39
00098045 DELETE   569.78 175.44 434.90 558.77 734.04 369.40 916.89 384.37 857.64 449.18 749.97 577.35 895.29 589.18
00098046 00000033 577.19 171.23 436.21 559.18 741.74 367.63 924.68 382.15 857.88 451.95 754.33 571.24 900.23 582.91
00098047 00000034 579.03 170.37 435.69 554.95 747.13 364.82 933.50 384.49 865.94 453.07 756.17 567.69 905.55 583.24
00098048 00000035 581.44 178.25 435.54 543.41 752.52 368.01 937.15 385.49 872.07 455.84 760.07 564.95 912.09 578.82
00098049 00000036 584.15 171.79 435.24 548.51 755.60 368.95 941.91 388.04 876.97 458.84 762.45 565.62 915.89 580.98
00098050 00000037 586.17 170.72 435.13 549.84 760.34 369.47 946.52 390.97 882.09 460.30 767.60 566.57 918.26 583.75
00098051 00000038 587.28 171.04 440.38 553.06 766.30 369.78 954.42 394.52 887.08 464.31 771.36 571.65 919.79 591.52
00098052 00000039 587.77 170.66 436.47 549.20 767.62 376.04 955.28 398.58 889.89 468.73 779.54 576.31 922.29 594.25
00098053 00000040 589.34 170.35 437.52 552.89 768.84 377.00 956.71 398.79 891.05 470.05 781.54 579.36 922.72 596.91
00098054 00000041 590.27 169.81 441.37 567.37 770.80 373.91 952.07 394.49 887.00 471.23 777.54 581.20 914.72 598.04
00098055 00000042 590.77 166.50 440.41 574.85 771.57 373.19 953.91 395.56 888.57 473.55 777.54 584.92 914.47 603.44
00098056 00000043 591.03 173.78 437.56 557.71 773.17 374.76 955.27 393.48 892.61 471.90 782.33 580.51 919.44 595.71
00098057 00000044 592.94 175.51 434.48 548.55 777.10 374.45 955.47 391.18 896.69 469.42 787.52 575.49 922.58 588.63
00098058 00000045 593.76 175.81 432.75 543.50 777.16 379.27 958.60 395.00 900.95 472.64 788.89 575.51 927.05 587.98
00098059 00000046 594.91 175.62 432.31 542.30 778.89 382.77 959.96 398.06 901.67 474.95 788.88 576.13 927.64 588.46
00098060 00000047 594.10 178.90 435.62 541.43 777.86 384.57 961.12 399.40 900.67 476.55 789.18 577.11 929.89 588.98
00098061 00000048 596.04 173.45 434.76 551.18 776.60 385.67 962.69 401.82 900.11 476.65 786.78 579.61 930.35 592.70
00098062 00000049 596.53 176.66 438.85 551.60 776.40 387.59 966.10 404.30 900.77 480.49 789.22 583.62 934.46 597.21
00098063 00000050 598.26 177.22 436.93 551.01 776.88 392.79 967.05 408.04 902.98 485.40 792.61 586.88 936.77 599.29
00098064 00000051 602.08 180.65 432.35 547.64 779.11 394.05 970.76 409.63 906.60 488.38 793.02 587.58 941.77 600.59
00098065 00000052 602.58 180.31 430.15 546.09 780.34 393.12 970.77 408.41 908.26 487.24 793.76 585.50 942.83 598.44
00098066 00000053 601.76 177.57 431.84 547.03 781.60 392.95 968.42 408.45 907.30 485.34 794.03 582.59 939.56 595.59
00098067 00000054 600.46 177.68 434.71 548.45 778.62 393.75 968.09 408.37 905.33 486.62 792.40 584.88 939.87 597.04
00098068 00000055 599.39 182.99 436.94 546.88 778.41 398.09 967.74 410.56 905.46 488.92 795.51 591.16 940.04 601.42
00098069 00000056 600.35 167.12 439.55 574.34 776.58 402.48 961.29 412.14 899.56 494.07 794.73 599.90 935.75 607.54
00098070 00000057 599.96 166.56 439.96 582.46 777.28 401.48 962.54 412.55 900.10 499.66 791.70 606.12 932.99 615.18
00098071 00000058 597.38 170.98 440.93 568.54 772.87 398.37 964.25 410.91 899.76 491.39 786.91 597.69 935.85 608.08
00098072 00000059 598.21 173.58 436.99 558.15 773.92 392.40 966.49 406.73 901.92 485.72 786.18 588.73 937.01 600.71
00098073 00000060 598.76 168.61 435.73 563.42 775.59 387.63 965.58 404.02 902.27 481.95 785.50 584.86 936.09 598.52
00098074 00000061 596.93 169.12 440.44 571.49 774.39 387.75 964.51 404.36 900.26 483.53 784.77 589.34 935.36 602.92
00098075 00000062 593.96 180.50 444.18 558.81 772.94 393.22 963.90 407.37 899.41 487.88 783.92 593.18 934.17 605.07
00098076 00000063 595.24 179.00 439.67 554.24 772.70 399.01 963.71 412.54 898.46 490.13 786.84 592.48 934.02 603.77
00098077 00000064 592.90 180.26 441.38 551.26 770.47 399.80 963.74 413.23 896.68 491.34 784.58 592.61 933.77 603.90
00098078 00000065 591.40 181.58 440.95 548.00 770.08 398.18 964.41 412.71 898.75 487.37 784.77 589.42 935.21 601.32
00098079 00000066 591.86 178.33 441.54 552.14 769.38 396.19 964.66 411.46 897.89 487.64 783.93 591.06 934.35 603.84
00098080 00000067 592.37 174.52 442.97 572.93 772.55 387.56 956.20 403.13 893.94 482.48 784.15 596.20 923.84 609.40
00098081 00000068 592.27 173.60 442.42 577.06 771.55 388.15 957.29 405.32 894.28 486.60 782.02 601.44 923.59 616.08
00098082 00000069 589.51 175.93 444.94 567.30 771.01 392.17 958.16 408.60 894.84 486.79 785.98 596.32 927.30 609.94
00098083 00000070 591.16 174.56 442.67 563.38 768.81 391.92 962.27 407.15 896.56 484.47 784.77 592.63 932.13 605.27
00098084 00000071 595.81 176.67 435.61 549.54 773.26 387.95 962.35 402.28 900.45 480.25 788.70 585.81 932.69 597.79
00098085 00000072 597.27 176.53 435.55 547.69 778.23 385.95 961.56 398.54 902.11 478.08 794.01 581.76 934.07 591.90
00098086 00000073 597.93 172.17 437.06 557.12 775.63 387.45 961.63 401.72 899.87 480.16 789.37 585.30 932.31 596.97
00098087 00000074 594.67 175.43 443.35 560.81 774.16 389.25 963.42 402.10 901.20 482.86 785.52 587.19 935.40 597.82
00098088 00000075 595.80 183.50 443.08 555.56 773.03 392.60 963.99 404.45 900.57 489.05 780.79 589.44 937.08 599.86
00098089 00000076 594.38 182.53 446.07 560.15 772.50 392.23 964.22 404.89 900.64 489.19 779.41 589.95 937.36 600.96
00098090 00000077 593.82 181.13 445.10 560.81 773.05 388.56 964.07 402.04 901.27 486.81 778.84 587.31 937.21 599.02
00098091 00000078 593.17 174.57 442.87 564.85 773.59 386.36 963.53 403.38 902.27 483.02 778.60 582.05 937.65 596.26
00098092 00000079 593.03 173.66 440.55 560.18 776.11 386.26 964.61 403.86 905.34 483.20 778.57 578.84 936.98 593.90
00098093 00000080 593.13 175.62 439.10 555.29 777.23 386.86 964.92 405.11 905.79 483.95 776.71 576.44 935.88 592.27
00098094 00000081 593.23 175.72 437.39 552.95 776.88 386.49 963.37 403.67 904.98 482.88 776.03 574.15 935.38 589.18
00098095 00000082 590.01 176.45 439.29 553.92 776.28 385.23 961.37 401.48 903.95 482.50 775.73 572.93 934.71 587.24
00098096 00000083 589.45 175.54 442.00 562.57 773.17 384.25 960.06 401.40 901.14 481.49 774.78 577.78 933.62 592.32
00098097 00000084 589.63 173.16 440.51 566.38 771.22 384.52 956.94 400.90 899.13 481.71 773.69 577.58 933.42 591.37
00098098 00000085 584.66 175.56 443.49 564.55 767.82 382.92 954.70 400.26 895.95 481.38 771.77 577.49 931.61 592.09
00098099 00000086 582.10 169.86 444.80 571.84 765.93 383.63 952.54 402.32 893.60 481.21 769.57 578.44 928.89 593.81
00098100 00000087 579.08 167.79 445.37 573.69 764.96 383.35 951.55 402.80 893.78 481.25 768.74 579.12 927.45 595.14
00098101 00000088 577.46 167.96 446.86 572.57 764.73 384.95 952.31 405.92 893.18 481.99 768.64 579.90 926.38 597.14
00098102 00000089 579.48 175.86 445.14 559.85 765.43 389.33 954.13 406.80 892.96 485.25 772.30 582.92 926.74 597.61
00098103 00000090 582.44 182.94 445.61 551.52 767.18 392.06 955.39 409.03 890.28 487.01 775.30 581.28 925.01 595.34
00098104 00000091 586.87 181.45 442.60 550.03 771.31 393.16 956.59 408.04 893.71 485.86 783.56 584.01 927.57 596.24
00098105 00000092 591.30 180.77 441.95 556.67 776.22 393.86 954.59 406.68 894.54 486.38 788.80 589.29 924.93 599.75
00098106 00000093 592.55 183.44 442.41 548.34 778.60 391.66 959.65 402.68 900.37 483.26 790.97 585.58 928.98 594.71
00098107 00000094 591.83 182.08 442.01 547.01 779.07 389.50 961.32 403.72 901.14 481.35 787.60 580.00 929.87 591.75
00098108 00000095 590.54 182.38 443.14 547.15 776.02 391.24 962.30 403.47 902.17 484.17 785.61 582.92 933.16 593.33
00098109 00000096 590.45 184.73 443.73 547.28 771.05 395.75 962.46 407.44 899.63 488.34 784.09 587.48 936.55 597.61
00098110 00000097 592.27 183.30 440.78 553.65 771.46 398.57 963.48 410.79 899.82 493.12 786.12 593.13 937.44 603.53
00098111 00000098 593.37 186.21 440.53 555.65 769.69 401.24 963.38 410.51 899.59 497.24 785.67 597.49 939.58 605.59
00098112 00000099 590.46 180.43 442.76 566.93 770.84 404.34 962.57 412.33 901.99 503.47 786.33 601.54 940.11 608.60
00098113 00000100 589.20 178.93 441.73 572.96 771.71 406.66 958.30 414.19 900.20 507.92 784.36 606.58 933.58 613.42
00098114 00000101 588.31 179.22 438.27 569.15 767.53 407.16 951.61 413.61 894.05 505.49 783.18 606.86 928.58 612.91
00098115 00000102 588.05 175.35 437.13 572.57 764.69 406.83 949.06 413.73 890.75 502.12 783.85 605.43 929.85 611.34
00098116 00000103 589.35 169.53 433.62 575.02 767.03 406.70 950.84 413.10 894.37 502.39 787.19 605.45 930.71 610.84
00098117 00000104 591.05 179.02 436.01 565.52 771.24 407.26 953.41 413.05 897.33 503.70 791.69 604.94 932.25 610.04
00098118 00000105 594.82 178.57 438.04 572.17 777.02 407.30 960.03 413.05 903.46 505.35 794.73 606.35 938.19 611.17
00098119 00000106 601.61 185.44 434.06 567.14 780.74 402.86 967.10 412.70 908.42 500.83 793.74 604.73 940.95 613.25
00098120 00000107 601.03 185.63 436.44 579.21 783.51 394.99 966.14 415.70 905.60 497.33 784.17 608.68 926.75 627.05
00098121 00000108 605.08 196.64 435.77 573.71 782.68 388.93 963.56 406.62 901.57 494.25 786.08 612.63 924.93 626.99
00098122 00000109 602.12 182.09 438.41 582.65 784.22 390.97 965.19 412.07 902.23 492.52 784.56 605.41 926.70 623.93
00098123 00000110 601.76 177.88 440.44 580.31 786.39 395.32 966.91 412.17 907.42 490.88 792.96 599.91 936.06 614.15
00098124 00000111 605.80 182.03 434.22 564.44 785.27 395.86 973.33 412.63 913.57 489.05 799.07 596.85 944.65 611.22
00098125 00000112 609.07 177.84 427.63 557.62 790.97 391.66 973.83 408.83 915.27 483.51 804.95 590.53 942.80 605.31
00098126 00000113 605.77 180.06 431.12 554.94 791.26 391.65 969.39 407.23 912.52 481.37 805.69 589.23 939.13 602.31
00098127 00000114 603.68 181.88 433.35 552.73 791.87 393.43 969.56 408.40 913.17 483.66 806.20 589.57 938.84 601.87
00098128 00000115 607.06 183.96 429.58 545.48 791.10 393.86 969.14 407.81 911.81 482.56 806.42 588.46 938.55 600.08
00098129 00000116 604.12 182.49 431.66 549.47 789.95 393.35 965.63 405.73 910.45 481.95 806.82 588.75 937.69 598.97
00098130 00000117 603.15 180.32 432.22 554.22 789.98 393.22 964.73 405.25 910.24 482.28 808.40 591.63 936.80 601.51
00098131 00000118 601.71 176.89 433.19 561.71 789.37 392.18 962.08 404.48 908.20 481.55 807.73 592.74 935.36 602.70
00098132 00000119 597.89 177.51 438.12 567.41 789.02 391.11 960.99 406.57 905.38 482.27 799.13 588.86 930.25 601.44
00098133 00000120 595.32 183.38 440.91 562.12 785.07 391.30 962.66 406.74 904.50 485.64 794.11 589.61 929.95 602.36
00098134 00000121 591.55 184.44 442.78 554.19 777.09 392.65 962.90 408.55 900.82 484.61 787.50 585.68 930.69 598.84
00098135 00000122 588.88 184.54 444.51 552.30 774.83 391.66 964.61 407.96 902.27 483.87 785.79 584.25 933.04 597.63
00098136 00000123 588.18 179.94 442.06 559.24 778.75 390.57 963.72 407.70 905.96 481.33 788.51 582.84 932.75 597.05
00098137 00000124 591.52 176.44 437.81 556.21 785.03 389.28 967.88 407.35 915.60 477.30 799.36 584.31 938.14 599.15
00098138 00000125 595.67 177.05 432.61 552.13 790.66 389.17 966.54 403.95 916.93 478.11 808.86 585.54 939.15 597.30
00098139 00000126 595.91 173.12 429.13 553.69 793.66 390.40 960.48 404.57 915.88 475.61 813.39 583.80 936.54 594.66
00098140 00000127 592.33 176.09 427.78 547.48 788.30 389.24 958.17 401.69 913.65 473.76 810.27 580.18 937.96 589.66
00098141 00000128 587.91 165.28 431.66 561.06 782.67 388.80 957.41 404.36 909.77 472.70 804.43 579.39 935.74 591.46
00098142 00000129 586.85 167.69 432.55 559.96 781.23 385.71 954.70 401.22 907.70 471.34 801.89 578.88 932.60 591.29
00098143 00000130 587.63 170.13 434.18 559.24 784.00 382.86 953.58 397.21 909.25 466.31 802.68 576.14 932.48 587.43
00098144 00000131 588.92 165.86 435.13 564.51 785.66 385.06 955.39 400.38 908.64 468.59 803.39 577.24 931.26 589.17
00098145 00000132 593.97 176.29 433.40 561.74 788.28 388.43 960.81 403.23 911.55 475.67 803.00 584.83 935.23 596.73
00098146 00000133 593.63 172.16 436.84 574.24 786.91 392.69 962.99 410.50 911.01 483.17 801.12 593.02 934.72 607.48
00098147 00000134 590.49 174.98 442.11 579.96 781.90 400.82 962.21 416.13 906.99 492.69 797.06 601.97 933.81 614.28
00098148 DELETE   583.48 179.44 444.73 577.50 773.08 412.19 952.33 420.05 899.03 510.06 791.37 613.02 927.84 619.79
00098149 DELETE   579.70 192.48 443.55 580.61 766.38 429.89 947.81 436.23 892.96 533.49 782.89 630.30 920.91 636.61
00098150 00000137 576.89 193.64 444.75 604.80 757.17 442.50 945.50 448.79 885.28 552.15 767.08 648.01 917.56 655.08
00098151 00000138 577.22 194.69 442.63 632.22 755.01 442.74 942.29 455.15 882.35 552.78 761.55 658.12 912.93 670.37
00098152 DELETE   575.22 194.18 442.31 609.09 754.02 436.86 939.85 443.04 884.88 542.19 767.31 647.51 915.69 654.82
00098153 00000140 576.70 185.52 442.10 590.42 764.44 421.68 946.12 428.06 894.82 525.48 783.06 629.41 924.74 635.67
00098154 00000141 579.13 177.93 440.72 581.33 769.71 418.53 951.51 424.28 902.18 517.13 792.67 618.32 931.90 623.54
00098155 00000142 579.68 174.90 443.17 583.32 770.49 415.13 955.25 422.50 904.02 513.92 790.42 614.33 934.99 620.58
00098156 00000143 583.96 177.29 441.16 578.83 772.62 413.44 957.02 420.24 904.14 509.19 790.68 610.60 934.89 616.69
00098157 00000144 584.72 181.12 440.51 577.66 774.96 413.65 951.99 420.66 900.76 510.21 788.66 608.13 929.99 614.36
00098158 00000145 584.35 180.12 440.53 584.77 769.79 411.53 949.82 419.23 896.44 513.61 780.06 610.61 928.69 617.55
00098159 00000146 581.68 182.26 442.94 582.94 763.08 414.33 948.60 422.47 891.37 515.73 769.93 611.09 926.32 618.70
00098160 00000147 578.70 187.13 441.56 574.43 759.60 415.83 945.03 424.73 886.10 515.62 762.82 606.70 922.18 615.24
00098161 00000148 573.94 186.99 442.93 573.52 756.06 414.47 940.39 419.26 883.35 515.92 758.90 603.28 920.65 608.67
00098162 00000149 575.12 188.85 441.63 572.77 754.77 412.24 938.46 418.89 880.06 514.11 757.16 600.58 920.45 607.45
00098163 00000150 574.71 184.31 443.31 582.78 756.36 412.55 938.37 420.81 880.23 514.80 755.05 601.28 918.84 609.37
00098164 00000151 574.24 185.01 446.25 588.40 756.34 410.70 939.83 420.35 879.81 515.24 751.35 603.13 917.76 612.42
00098165 00000152 577.66 186.29 445.14 591.16 758.95 408.07 942.39 421.29 881.18 515.99 749.74 602.62 917.87 615.00
00098166 00000153 579.11 180.82 447.39 594.16 763.50 408.98 948.13 421.13 887.78 518.75 753.40 599.14 926.89 610.65
00098167 00000154 581.29 178.97 451.25 593.99 768.70 410.23 954.21 419.35 896.59 520.48 758.23 597.78 933.21 606.94
00098168 00000155 584.99 182.42 451.05 586.77 771.58 408.69 959.63 419.02 900.20 519.88 761.51 596.26 936.96 606.52
00098169 00000156 591.61 185.80 444.26 574.90 775.24 403.25 964.07 415.27 904.18 516.06 765.20 590.83 939.84 602.49
00098170 00000157 591.24 175.60 444.15 579.22 773.61 399.34 963.10 413.32 901.29 506.21 766.41 586.31 939.93 598.82
00098171 00000158 589.53 169.04 443.15 581.40 771.26 397.41 960.84 411.80 898.41 502.90 765.71 582.03 938.26 594.57
00098172 00000159 584.21 171.58 446.07 578.70 766.78 395.01 956.31 407.78 895.82 504.04 759.31 580.31 935.78 592.02
00098173 00000160 579.82 170.63 448.68 575.84 762.69 394.01 953.29 407.91 890.23 501.33 754.84 576.56 933.00 589.09
00098174 00000161 577.89 174.86 445.11 569.65 759.17 393.25 950.81 406.45 888.14 498.79 752.56 575.52 932.22 587.53
00098175 00000162 576.57 172.34 443.39 570.70 758.68 391.20 947.23 403.38 887.58 496.28 751.48 573.76 929.13 585.07
00098176 00000163 576.01 158.05 440.91 584.96 758.50 388.98 943.82 401.35 888.76 495.59 748.54 572.08 925.86 583.53
00098177 00000164 572.80 161.17 443.12 580.36 757.55 390.86 940.90 401.14 887.48 495.63 748.59 571.93 923.63 581.74
00098178 00000165 572.30 159.31 439.94 582.24 751.90 389.15 935.37 397.84 881.56 490.99 746.04 570.80 921.51 578.91
00098179 00000166 571.07 160.35 438.99 580.08 751.44 385.37 931.32 395.37 879.86 484.15 747.22 568.02 918.42 577.08
00098180 00000167 571.45 165.11 436.88 572.58 751.16 384.14 930.37 394.50 878.82 480.70 748.09 567.27 916.90 576.76
00098181 00000168 573.25 159.87 434.32 576.70 752.65 382.33 930.06 393.04 879.96 479.31 747.42 565.66 916.08 575.38
00098182 00000169 573.62 158.27 433.91 575.20 753.40 381.19 931.33 394.83 879.63 477.88 747.49 563.20 916.07 575.19
00098183 00000170 575.13 166.94 434.84 564.18 752.04 377.52 932.49 390.29 878.13 474.91 746.86 560.55 917.23 572.03
