Video ID: 	CHlP-rSLSCU
H: 	2160
W: 	3840
FPS: 	24.0

FRAME INDEX X0 Y0 W H [Landmarks (5 Points)]

00053765 00000000 1748.60 510.68 445.10 592.60 1805.40 764.68 1983.42 742.10 1850.16 847.44 1840.18 970.33 1987.88 953.09
00053766 00000001 1750.60 504.79 445.93 609.45 1808.29 760.24 1981.89 737.79 1844.73 840.43 1843.73 975.88 1977.84 958.72
00053767 00000002 1758.93 493.09 438.81 621.50 1815.99 749.25 1989.37 727.70 1850.09 827.51 1850.81 971.02 1981.87 954.81
00053768 00000003 1765.94 476.02 433.31 612.87 1816.53 733.70 1986.48 712.46 1845.97 810.54 1847.32 952.87 1978.98 937.18
00053769 00000004 1769.96 461.21 426.64 614.12 1823.55 721.23 1971.16 696.98 1836.32 800.77 1840.81 933.86 1969.67 916.23
00053770 00000005 1771.13 461.45 434.01 587.67 1819.11 703.75 1977.70 682.76 1838.32 774.32 1840.36 909.40 1964.35 892.83
00053771 00000006 1782.25 438.03 431.65 584.89 1833.47 676.72 1992.28 660.91 1855.74 751.60 1850.24 883.58 1974.19 872.07
00053772 DELETE   1803.33 434.33 432.53 575.52 1855.00 672.01 2013.27 655.27 1876.73 741.41 1866.75 871.74 1994.52 860.29
00053773 00000008 1828.16 429.79 428.08 574.65 1871.38 660.06 2033.03 646.51 1890.32 729.11 1884.07 860.05 2016.70 850.64
00053774 00000009 1842.84 417.26 423.77 584.74 1884.71 650.23 2042.69 635.51 1899.85 719.35 1892.97 855.62 2024.04 844.45
00053775 00000010 1847.27 398.94 425.78 595.90 1898.35 636.37 2028.44 618.84 1885.96 712.34 1897.47 841.70 2019.14 829.15
00053776 00000011 1850.12 380.69 423.43 605.40 1902.82 624.54 2026.02 609.34 1881.67 701.97 1899.08 831.04 2013.68 819.71
00053777 00000012 1864.98 369.64 420.74 603.34 1915.68 613.21 2044.33 599.08 1905.79 696.09 1917.77 820.06 2031.18 809.24
00053778 DELETE   1889.02 362.06 419.32 586.57 1938.59 603.72 2088.67 599.53 1947.05 696.59 1950.32 811.28 2074.98 807.73
00053779 DELETE   1919.54 350.23 438.95 601.54 1976.53 603.27 2148.62 605.13 2006.11 704.64 1991.98 809.65 2136.14 811.42
00053780 00000015 1954.57 368.51 435.84 580.60 2008.53 603.65 2179.72 602.41 2038.76 713.00 2030.42 810.86 2171.66 810.45
00053781 DELETE   1970.04 355.05 430.23 584.51 2017.99 592.60 2179.37 586.77 2039.08 689.83 2038.22 800.04 2170.78 796.08
00053782 00000017 1974.64 346.19 419.97 590.24 2020.50 587.06 2168.78 579.02 2028.98 677.64 2041.11 792.62 2162.98 786.47
00053783 00000018 1987.79 343.24 415.27 588.87 2028.79 581.50 2174.70 574.11 2035.01 675.74 2050.19 788.23 2168.85 782.47
00053784 00000019 2010.35 335.37 406.37 587.22 2055.02 575.04 2197.40 558.27 2065.97 660.33 2072.86 784.20 2195.18 771.77
00053785 00000020 2028.91 328.56 413.89 580.55 2076.97 569.87 2228.35 555.27 2093.71 650.12 2097.45 769.90 2221.55 758.69
00053786 00000021 2045.72 317.19 422.81 582.20 2093.90 568.51 2250.36 551.78 2112.63 641.30 2116.01 764.94 2241.84 751.81
00053787 00000022 2063.05 309.11 421.57 589.66 2113.55 557.99 2268.73 544.84 2132.67 636.65 2135.43 758.13 2260.09 747.26
00053788 00000023 2081.61 302.24 421.16 593.59 2131.63 549.52 2287.79 537.31 2151.96 633.04 2151.48 753.00 2278.33 743.43
00053789 00000024 2105.51 310.43 408.28 577.11 2151.11 546.84 2307.73 540.00 2168.71 632.52 2167.56 750.64 2296.97 745.01
00053790 00000025 2121.69 311.53 415.48 575.20 2167.51 543.83 2328.80 536.41 2186.95 629.84 2184.04 747.58 2317.09 741.62
00053791 00000026 2132.30 314.80 417.85 572.20 2180.46 541.63 2341.94 535.72 2199.79 629.41 2195.92 747.04 2327.74 742.23
00053792 00000027 2145.28 307.75 410.50 585.77 2196.67 540.06 2347.06 528.76 2214.17 627.21 2209.57 745.93 2337.89 738.03
00053793 00000028 2156.38 310.30 412.11 581.51 2207.09 540.14 2356.45 530.09 2228.22 627.81 2220.49 742.17 2348.43 735.46
00053794 00000029 2165.61 311.87 410.29 578.21 2216.46 540.86 2366.44 531.75 2238.05 629.05 2229.67 740.54 2356.78 734.78
00053795 00000030 2174.48 311.04 406.87 578.50 2224.75 541.08 2376.58 534.44 2246.98 630.15 2236.18 740.52 2364.50 736.77
00053796 00000031 2173.45 310.01 417.61 571.73 2227.00 541.59 2386.08 537.36 2248.85 628.56 2236.96 743.78 2368.01 741.13
00053797 00000032 2179.65 310.17 421.67 571.09 2232.20 546.18 2392.17 540.86 2253.40 630.00 2244.43 746.43 2375.23 742.88
00053798 00000033 2186.27 307.96 421.73 574.13 2238.65 548.43 2397.99 540.60 2259.99 627.71 2251.40 748.03 2381.45 742.59
00053799 00000034 2189.01 307.48 421.23 575.07 2243.11 546.82 2401.67 541.70 2263.41 627.72 2254.13 746.11 2384.70 742.64
00053800 00000035 2191.01 306.77 421.06 576.35 2245.89 549.00 2403.61 543.26 2266.03 628.12 2256.87 746.87 2387.44 742.83
00053801 00000036 2193.15 307.79 420.87 575.59 2249.34 546.81 2406.98 542.06 2270.29 628.23 2259.79 745.33 2390.29 741.94
00053802 00000037 2195.89 308.09 421.13 576.33 2253.53 543.81 2412.90 540.11 2277.06 628.46 2265.60 743.55 2396.95 740.61
00053803 00000038 2198.76 306.28 422.87 579.92 2259.02 540.05 2421.32 539.31 2285.03 626.96 2269.35 740.30 2403.69 739.66
00053804 00000039 2201.97 306.12 423.00 580.68 2262.55 536.76 2426.97 538.30 2292.68 626.04 2273.27 737.51 2410.26 738.63
00053805 00000040 2202.78 306.73 423.93 579.83 2264.93 536.00 2431.90 537.55 2298.67 624.76 2275.67 735.70 2415.30 736.87
00053806 00000041 2202.99 307.66 424.00 578.43 2266.06 535.40 2433.21 537.85 2300.69 623.21 2275.89 734.31 2415.30 736.27
00053807 00000042 2201.86 307.46 423.06 578.64 2264.74 534.80 2432.97 538.38 2299.84 624.50 2274.96 733.92 2416.02 736.75
00053808 00000043 2198.56 308.88 424.07 576.78 2262.67 535.43 2432.45 539.36 2299.80 625.64 2272.77 734.12 2415.51 737.22
00053809 00000044 2195.19 309.92 426.28 576.97 2260.13 534.75 2430.88 538.51 2299.37 626.01 2271.46 734.60 2414.30 737.62
00053810 00000045 2191.53 310.95 425.76 573.76 2257.72 533.38 2428.94 537.44 2296.83 625.77 2268.00 733.37 2411.20 736.92
00053811 00000046 2188.91 306.36 426.08 575.59 2254.70 530.15 2427.62 534.73 2294.30 623.02 2265.11 731.37 2406.60 735.56
00053812 00000047 2183.77 310.09 426.89 568.69 2252.00 528.41 2426.01 531.46 2292.59 617.74 2262.20 728.81 2402.15 732.51
00053813 00000048 2177.59 308.98 424.66 566.68 2246.34 527.32 2419.46 528.33 2287.72 614.26 2254.54 726.82 2395.70 729.32
00053814 00000049 2171.54 307.42 420.70 563.95 2238.11 523.51 2411.27 526.11 2281.36 615.60 2246.72 721.73 2390.91 725.48
00053815 00000050 2162.73 308.00 419.59 556.70 2228.29 522.18 2404.17 524.42 2271.93 612.47 2233.08 717.95 2384.27 721.97
00053816 00000051 2160.40 305.28 408.08 562.55 2221.61 523.30 2393.69 522.91 2269.31 613.15 2230.95 716.24 2380.37 717.44
00053817 00000052 2151.22 307.65 406.17 560.33 2214.56 530.06 2384.61 528.69 2263.53 614.25 2222.71 718.24 2372.80 718.94
00053818 00000053 2137.43 306.49 418.84 560.54 2199.08 532.40 2380.92 533.36 2251.08 618.70 2212.63 722.23 2366.93 724.22
00053819 00000054 2125.77 309.52 423.83 562.90 2188.40 531.30 2365.62 537.08 2231.99 626.13 2198.44 727.06 2349.05 732.80
00053820 00000055 2111.71 304.10 426.27 562.03 2174.52 525.76 2353.36 531.52 2214.61 615.27 2180.53 723.62 2325.16 730.35
00053821 00000056 2099.30 300.89 421.70 558.59 2160.30 516.86 2332.70 525.03 2197.34 611.57 2163.76 714.31 2302.51 723.19
00053822 00000057 2087.08 288.26 420.18 560.51 2152.22 512.66 2321.02 521.93 2188.56 605.19 2153.86 703.09 2298.01 711.24
00053823 00000058 2080.20 280.38 420.26 554.19 2145.43 505.43 2315.04 516.47 2182.16 597.72 2145.09 696.93 2290.06 706.81
00053824 00000059 2073.43 275.25 420.59 555.37 2138.82 497.00 2311.18 508.60 2176.29 590.78 2138.23 691.42 2284.32 702.32
00053825 00000060 2075.55 270.23 416.10 566.72 2138.24 493.69 2299.35 497.60 2168.13 577.43 2134.83 691.62 2274.88 696.63
00053826 00000061 2064.30 262.24 418.90 568.27 2125.83 487.09 2296.52 490.73 2161.66 570.48 2125.66 687.25 2264.70 692.69
00053827 00000062 2057.10 265.31 425.63 557.21 2120.45 484.67 2282.65 488.11 2145.80 561.77 2117.44 679.37 2246.85 684.01
00053828 00000063 2049.82 260.79 426.62 553.96 2112.12 473.69 2266.45 479.06 2121.76 552.50 2100.26 671.25 2221.40 677.91
00053829 00000064 2045.12 252.04 420.53 555.61 2102.09 472.07 2252.97 473.06 2107.43 543.50 2086.50 669.51 2198.08 673.02
00053830 00000065 2039.98 247.27 415.01 559.58 2096.64 469.95 2242.87 471.54 2100.78 541.17 2078.03 668.78 2183.78 673.14
00053831 00000066 2032.17 253.89 415.72 557.72 2094.32 471.60 2234.45 477.38 2090.62 548.59 2071.34 672.76 2175.80 680.17
00053832 00000067 2021.72 260.36 415.33 563.09 2084.83 477.50 2216.79 483.28 2077.40 555.30 2059.86 680.93 2159.66 685.03
00053833 00000068 2014.85 271.92 408.28 560.37 2072.39 481.21 2202.57 486.08 2062.31 563.85 2055.44 690.24 2158.23 693.51
00053834 00000069 2002.08 271.60 410.60 571.81 2055.84 489.15 2192.04 495.77 2048.38 580.52 2050.14 697.30 2163.48 702.06
00053835 00000070 1997.55 271.45 402.22 577.02 2045.51 499.55 2185.89 504.48 2042.40 590.74 2047.67 705.42 2168.92 708.66
00053836 00000071 1991.78 280.51 410.82 566.77 2036.10 492.86 2187.37 505.02 2040.48 587.69 2036.55 699.02 2168.66 709.19
00053837 00000072 1995.28 270.80 412.81 572.75 2048.53 489.40 2194.96 494.89 2047.96 579.12 2044.03 697.40 2175.93 701.96
00053838 00000073 1999.43 266.13 417.29 571.20 2056.39 486.35 2202.78 488.36 2061.39 569.08 2049.24 689.03 2183.71 691.91
00053839 00000074 2001.61 259.75 420.64 577.01 2062.88 482.54 2211.25 485.91 2068.85 565.26 2053.16 685.93 2188.44 690.10
00053840 00000075 2007.41 262.52 419.80 577.69 2068.09 481.90 2218.71 493.16 2075.15 572.38 2056.01 690.11 2190.75 700.15
00053841 00000076 2014.01 277.53 416.95 567.37 2071.32 480.73 2225.37 504.33 2077.56 588.74 2060.42 691.92 2197.24 710.75
00053842 00000077 2011.28 294.89 428.72 572.34 2071.57 505.53 2236.14 530.74 2090.93 619.65 2062.61 711.44 2209.53 732.44
00053843 00000078 2013.07 321.07 424.46 579.81 2068.80 534.41 2229.29 563.38 2087.79 659.89 2067.88 745.32 2205.47 768.47
00053844 DELETE   1999.89 347.41 430.05 579.03 2054.67 569.33 2215.28 592.77 2068.05 696.70 2058.94 776.99 2200.09 794.92
00053845 00000080 1980.92 368.55 431.44 583.88 2032.99 598.93 2195.59 615.12 2052.54 714.81 2039.13 799.40 2184.10 812.09
00053846 00000081 1957.79 369.03 446.24 589.38 2025.50 601.88 2179.38 627.28 2034.91 719.83 2025.07 795.30 2164.87 814.95
00053847 00000082 1960.17 358.23 437.55 577.17 2017.30 579.47 2179.77 609.75 2025.52 700.89 2019.10 783.26 2157.88 807.02
00053848 00000083 1970.11 350.32 427.26 571.83 2028.10 558.43 2182.51 581.89 2036.16 675.19 2022.82 763.20 2158.42 781.14
00053849 00000084 1966.43 323.47 439.04 580.91 2032.41 541.07 2189.42 563.24 2041.53 656.23 2026.56 743.87 2163.11 761.20
00053850 00000085 1973.59 315.97 439.67 587.83 2041.88 536.04 2199.68 555.30 2054.80 647.65 2038.73 742.60 2170.02 757.73
00053851 00000086 1986.60 320.21 431.72 594.21 2048.38 540.91 2207.39 564.08 2061.56 661.97 2049.02 752.63 2180.68 770.71
00053852 00000087 1994.31 334.40 430.46 593.90 2055.62 557.85 2212.77 583.33 2067.33 679.01 2052.26 770.64 2182.17 790.51
00053853 00000088 1988.75 333.24 432.30 588.87 2053.75 555.08 2209.35 579.95 2066.21 672.72 2045.22 766.61 2171.67 785.99
00053854 00000089 1983.16 327.33 433.31 587.66 2050.94 550.08 2206.49 571.69 2064.02 662.72 2041.63 761.99 2166.74 778.44
00053855 00000090 1988.68 321.82 432.51 592.46 2056.29 548.45 2211.23 564.86 2072.63 655.72 2047.21 761.95 2170.35 775.03
00053856 00000091 1998.77 321.93 429.79 594.64 2062.22 539.39 2223.30 561.30 2082.62 660.72 2055.74 763.19 2182.13 780.40
00053857 00000092 2011.83 322.91 430.51 592.00 2073.12 536.20 2233.12 558.10 2093.77 654.49 2070.95 760.76 2196.90 778.41
00053858 00000093 2018.19 315.26 429.58 596.98 2079.39 528.68 2246.03 548.98 2104.74 644.02 2080.38 750.11 2217.61 766.21
00053859 00000094 2019.62 306.12 442.43 594.83 2087.59 527.30 2261.94 542.43 2107.78 633.21 2086.84 745.17 2228.88 758.38
00053860 00000095 2026.35 303.24 442.79 590.35 2094.71 526.07 2268.64 543.77 2117.69 635.90 2094.53 742.61 2236.32 757.51
00053861 00000096 2036.36 299.28 441.27 592.92 2105.32 526.64 2279.23 545.63 2129.27 632.59 2106.85 741.02 2244.66 756.91
00053862 00000097 2048.85 288.43 435.66 597.44 2115.75 526.21 2290.39 546.15 2144.16 632.64 2119.42 738.67 2255.24 755.03
00053863 00000098 2066.42 292.30 434.51 595.51 2136.75 523.65 2308.48 549.58 2167.65 634.93 2133.98 727.57 2275.52 749.16
00053864 DELETE   2086.86 298.56 441.77 588.14 2163.12 528.85 2342.35 543.99 2206.76 628.58 2160.40 725.52 2308.17 738.63
00053865 00000100 2121.08 294.66 426.41 586.46 2196.81 515.79 2389.29 538.20 2255.17 632.26 2197.68 720.99 2357.51 739.77
00053866 DELETE   2152.27 297.12 418.39 584.68 2239.05 520.42 2430.14 539.30 2305.19 631.38 2234.25 718.59 2396.01 734.96
00053867 00000102 2172.92 285.83 427.23 586.46 2266.56 518.81 2464.74 541.89 2342.53 636.03 2264.66 716.89 2428.28 736.50
00053868 00000103 2186.25 288.65 420.41 586.27 2284.47 524.63 2478.79 541.73 2363.28 639.96 2282.34 722.08 2442.82 737.74
00053869 00000104 2193.30 292.64 419.47 585.39 2293.33 527.59 2490.15 542.85 2375.68 640.52 2292.18 726.35 2453.33 740.37
00053870 00000105 2199.58 293.09 411.31 589.42 2301.47 529.33 2497.83 548.80 2386.88 645.62 2297.23 728.01 2461.85 744.22
00053871 00000106 2201.63 304.27 408.15 581.68 2306.98 535.59 2499.61 553.84 2394.35 651.49 2301.05 727.79 2468.12 742.90
00053872 00000107 2201.49 316.05 403.88 576.67 2305.40 546.92 2498.54 561.58 2396.32 664.17 2301.79 733.70 2474.37 745.44
00053873 00000108 2192.45 332.50 410.57 568.94 2299.31 561.64 2491.43 571.05 2390.05 675.42 2300.86 747.87 2470.09 755.62
00053874 00000109 2184.06 346.82 415.95 561.34 2290.23 569.19 2480.62 576.94 2377.90 682.84 2293.34 753.59 2462.40 760.41
00053875 00000110 2177.81 342.15 408.60 568.63 2282.07 573.52 2471.14 580.26 2369.86 687.62 2287.39 759.01 2456.37 764.86
00053876 00000111 2169.44 342.54 406.78 580.22 2271.92 574.73 2461.43 580.38 2360.85 689.85 2276.96 769.71 2443.68 774.57
00053877 00000112 2157.48 344.00 412.25 589.85 2261.26 578.90 2453.67 588.18 2346.31 699.92 2265.16 777.07 2430.50 784.61
00053878 00000113 2150.69 345.76 408.78 594.10 2243.95 587.30 2435.53 597.88 2325.27 714.26 2249.36 782.81 2418.65 789.83
00053879 00000114 2136.52 353.63 415.99 587.87 2225.96 588.38 2422.43 598.10 2305.88 718.37 2233.98 796.43 2399.87 803.36
00053880 00000115 2124.78 352.36 418.15 585.53 2210.31 589.82 2404.04 600.27 2286.41 721.12 2223.26 803.44 2377.68 810.95
00053881 00000116 2113.55 358.38 421.61 583.88 2194.46 593.64 2394.44 602.94 2268.86 721.89 2208.85 805.26 2370.48 812.17
00053882 00000117 2105.80 359.11 422.23 578.58 2186.65 593.70 2385.36 605.98 2258.76 720.39 2199.31 802.90 2357.01 812.81
00053883 00000118 2096.85 364.41 419.57 578.72 2179.52 593.84 2376.09 607.82 2248.80 720.33 2190.99 805.88 2343.13 817.12
00053884 00000119 2092.02 354.44 410.38 592.44 2176.51 593.93 2362.89 605.38 2243.59 718.89 2185.16 808.29 2329.80 817.63
00053885 00000120 2078.49 351.14 417.93 599.74 2162.07 608.46 2350.51 619.02 2230.29 718.63 2177.74 814.95 2312.81 824.05
00053886 00000121 2067.68 362.26 420.54 595.40 2151.00 616.68 2342.62 627.45 2222.23 728.86 2166.17 825.78 2305.14 835.24
00053887 00000122 2055.47 371.05 428.07 592.22 2135.54 622.87 2329.55 639.74 2203.48 744.75 2148.48 827.85 2296.75 841.61
00053888 00000123 2044.69 378.61 428.40 595.22 2121.35 631.24 2310.47 646.77 2185.77 753.48 2128.24 835.51 2284.25 848.64
00053889 00000124 2025.35 399.18 436.35 590.48 2107.81 642.55 2296.29 660.43 2170.77 772.17 2115.17 845.68 2270.98 860.41
00053890 00000125 2005.59 414.11 435.04 588.45 2086.34 658.04 2282.32 674.66 2158.75 790.54 2097.34 859.73 2257.69 873.39
00053891 DELETE   1992.56 432.91 426.52 589.85 2067.87 671.52 2264.38 690.34 2136.47 807.66 2081.09 873.90 2243.52 888.09
00053892 00000127 1979.02 442.53 430.02 587.40 2050.92 685.61 2248.34 706.68 2116.81 819.01 2061.18 881.04 2228.15 897.05
00053893 00000128 1965.53 451.28 433.22 583.66 2037.43 691.89 2236.46 714.61 2100.35 826.38 2047.75 890.54 2209.05 907.92
00053894 00000129 1953.25 464.69 434.13 583.60 2033.41 699.81 2223.45 718.22 2095.61 830.90 2037.26 897.04 2200.16 911.12
00053895 00000130 1942.25 462.07 441.60 596.31 2022.15 710.64 2211.57 729.53 2081.34 840.01 2027.45 901.78 2190.60 916.33
00053896 00000131 1935.48 470.48 439.10 595.80 2012.30 719.40 2208.21 736.06 2077.00 847.68 2018.80 908.11 2191.03 920.53
00053897 00000132 1930.33 469.82 435.38 610.43 2008.05 727.81 2204.92 740.71 2076.44 856.86 2017.52 918.60 2191.40 928.01
00053898 00000133 1927.04 473.49 433.06 621.81 2003.59 735.99 2198.17 748.43 2071.47 864.52 2011.13 927.21 2186.13 936.59
00053899 00000134 1926.35 472.70 428.21 627.76 2002.89 740.48 2197.29 756.46 2070.18 872.50 2007.62 933.15 2183.59 945.23
00053900 00000135 1927.08 484.62 425.59 620.48 2004.27 745.17 2197.42 762.65 2071.40 879.33 2006.62 937.49 2183.47 950.95
00053901 00000136 1920.04 489.03 429.56 621.14 2000.33 744.67 2198.49 764.67 2068.32 882.19 2006.49 940.90 2185.12 955.29
00053902 00000137 1916.32 489.21 431.49 628.32 1998.26 746.10 2194.53 765.58 2066.77 884.46 2004.42 941.38 2183.46 955.28
00053903 00000138 1910.65 501.92 432.74 625.77 1994.04 756.91 2186.39 773.87 2063.82 893.39 1999.59 946.78 2181.93 958.59
00053904 00000139 1906.91 509.34 434.20 615.77 1991.76 763.62 2184.08 779.24 2060.46 897.28 2002.48 954.58 2175.52 965.27
00053905 00000140 1911.26 490.06 431.97 614.39 1992.12 752.14 2191.67 770.25 2062.75 886.90 2004.22 949.36 2175.03 962.33
00053906 00000141 1920.18 475.07 429.11 606.55 1998.90 732.49 2196.85 743.28 2074.94 859.27 2010.99 927.60 2180.52 936.11
00053907 00000142 1924.99 457.31 433.86 597.57 2008.53 704.21 2201.00 715.40 2079.73 830.73 2018.79 903.56 2177.91 912.05
00053908 DELETE   1935.71 425.73 435.43 601.55 2020.59 667.93 2212.68 680.47 2090.93 793.71 2035.15 883.22 2182.22 893.65
00053909 DELETE   1941.17 383.31 444.79 617.25 2026.87 642.06 2212.89 651.90 2086.83 759.06 2038.61 849.12 2185.60 857.51
00053910 00000145 1953.75 368.19 438.05 604.63 2036.14 614.32 2219.05 621.98 2095.20 732.65 2046.50 824.00 2190.71 830.70
00053911 00000146 1971.59 349.27 432.48 604.12 2041.18 589.58 2225.06 597.68 2095.81 711.76 2057.24 804.85 2202.40 811.03
00053912 00000147 1991.02 326.23 422.80 607.81 2057.06 569.24 2236.33 580.70 2109.91 688.76 2067.57 784.64 2212.35 792.93
00053913 00000148 2005.70 323.26 421.92 592.57 2074.26 555.94 2250.77 567.94 2125.26 674.22 2083.61 765.55 2231.58 775.50
00053914 00000149 2016.41 322.87 430.76 575.96 2091.58 549.10 2272.12 557.71 2148.72 655.78 2101.05 750.10 2249.82 758.23
00053915 00000150 2029.52 314.77 438.87 578.18 2111.43 542.38 2288.72 553.67 2164.27 654.77 2115.70 741.89 2268.21 751.81
00053916 00000151 2045.26 309.26 435.06 579.15 2121.20 545.61 2307.28 563.33 2172.78 658.51 2127.45 746.07 2280.97 760.36
00053917 00000152 2059.15 322.27 430.94 579.33 2138.41 546.52 2322.41 569.34 2189.85 669.09 2146.54 749.58 2294.03 767.62
00053918 00000153 2075.99 344.30 419.85 561.50 2152.38 568.07 2336.58 585.75 2212.80 683.86 2156.99 754.42 2314.15 768.90
00053919 DELETE   2092.76 355.94 414.47 564.55 2166.39 579.44 2361.88 596.65 2232.09 693.35 2167.37 767.30 2334.21 781.32
00053920 00000155 2105.71 365.48 405.59 576.62 2186.61 605.89 2380.80 624.54 2260.13 728.26 2186.54 788.38 2355.61 803.57
00053921 DELETE   2108.75 394.58 415.11 557.76 2200.10 633.04 2397.37 649.95 2279.89 755.66 2207.38 818.50 2367.18 832.25
00053922 DELETE   2114.52 400.12 414.46 569.55 2210.44 652.54 2409.68 667.95 2295.44 770.62 2217.61 836.71 2376.81 849.40
00053923 DELETE   2120.16 426.88 417.79 555.74 2219.25 662.46 2419.79 676.77 2309.49 794.32 2222.50 850.81 2390.45 861.64
00053924 00000159 2118.11 440.83 416.87 550.85 2220.99 683.56 2425.55 696.03 2315.68 814.77 2234.00 872.52 2390.30 882.14
00053925 00000160 2120.09 451.54 411.38 554.33 2223.85 697.89 2424.97 707.55 2321.59 832.90 2238.24 888.17 2390.91 895.19
00053926 00000161 2119.47 466.21 408.78 555.65 2224.64 711.84 2421.65 720.36 2319.56 843.84 2235.32 895.19 2392.38 901.14
00053927 00000162 2123.51 479.19 403.98 555.03 2226.67 726.06 2422.85 736.22 2318.93 859.51 2236.48 906.75 2392.84 914.01
