Video ID: 	JhlNAtdFDhA
H: 	2160
W: 	3840
FPS: 	25.0

FRAME INDEX X0 Y0 W H [Landmarks (5 Points)]

00000682 00000000 1475.50 179.46 795.91 1188.68 1821.95 645.15 2131.99 691.35 2016.84 920.28 1753.20 1041.36 2036.30 1083.69
00000683 00000001 1475.85 198.49 798.34 1180.17 1831.23 648.45 2139.19 691.76 2028.14 927.94 1769.20 1048.89 2049.29 1088.56
00000684 00000002 1481.63 236.87 798.88 1138.34 1856.91 656.56 2161.21 687.03 2063.98 936.41 1809.79 1061.31 2073.10 1091.24
00000685 00000003 1483.97 285.58 801.54 1100.77 1882.28 666.47 2173.55 689.90 2092.10 949.54 1837.65 1077.32 2076.14 1101.30
00000686 DELETE   1483.45 278.93 806.12 1115.14 1882.12 676.98 2178.52 702.86 2088.58 955.04 1837.01 1085.64 2075.61 1111.55
00000687 DELETE   1475.95 267.61 814.17 1125.92 1860.32 679.81 2163.15 714.60 2059.79 961.19 1817.90 1077.77 2063.82 1112.02
00000688 00000006 1471.71 249.02 816.40 1148.22 1850.37 676.87 2158.97 714.46 2051.29 964.45 1813.04 1084.42 2060.77 1120.99
00000689 DELETE   1479.40 280.82 816.23 1129.98 1872.84 693.75 2171.76 726.82 2075.12 977.90 1841.47 1100.89 2072.43 1132.59
00000690 DELETE   1501.71 322.67 805.33 1081.73 1899.89 704.03 2200.43 719.14 2108.65 974.76 1874.32 1120.41 2096.46 1132.78
00000691 00000009 1503.97 333.27 812.18 1080.90 1905.20 709.14 2210.55 723.21 2112.52 984.00 1878.19 1125.10 2102.35 1136.29
00000692 00000010 1500.01 312.23 814.30 1105.43 1899.83 708.57 2199.33 729.27 2100.94 984.29 1862.40 1122.44 2086.50 1139.59
00000693 00000011 1502.44 282.72 817.38 1127.08 1901.74 709.66 2197.65 734.96 2099.72 978.31 1856.03 1113.20 2083.54 1135.48
00000694 00000012 1503.30 283.73 810.62 1128.28 1905.82 702.96 2202.88 729.16 2109.75 969.30 1865.21 1110.99 2094.18 1133.68
00000695 00000013 1506.07 313.89 806.31 1096.19 1901.89 693.32 2207.48 716.68 2107.61 971.26 1864.18 1111.86 2098.52 1131.73
00000696 00000014 1503.84 316.25 808.21 1090.93 1894.90 682.30 2205.75 707.58 2099.83 968.93 1853.30 1109.54 2090.17 1131.17
00000697 00000015 1503.97 300.43 804.12 1107.01 1896.53 672.12 2206.09 700.78 2104.55 963.16 1847.92 1109.24 2086.21 1134.65
00000698 00000016 1501.76 299.63 802.52 1102.04 1895.79 668.31 2203.80 697.54 2105.53 956.94 1842.61 1101.93 2089.06 1128.49
00000699 00000017 1497.79 306.78 800.56 1087.48 1890.56 663.40 2197.84 694.95 2098.14 955.61 1838.45 1098.13 2081.69 1126.06
00000700 00000018 1476.87 295.42 811.79 1100.31 1877.02 672.43 2179.35 698.24 2088.66 959.74 1839.28 1092.37 2078.97 1117.99
00000701 00000019 1476.38 292.25 808.99 1101.02 1876.15 669.48 2175.20 698.73 2084.17 955.13 1836.68 1086.90 2073.90 1114.96
00000702 00000020 1473.61 294.60 809.50 1096.61 1876.30 667.61 2172.49 694.97 2083.29 952.38 1839.14 1085.65 2074.40 1111.82
00000703 00000021 1472.10 298.72 809.20 1085.40 1870.53 669.72 2170.46 695.41 2079.16 953.42 1835.69 1078.32 2078.31 1103.26
00000704 00000022 1469.97 305.28 810.64 1080.18 1868.26 671.43 2169.50 699.11 2077.31 956.34 1831.58 1078.42 2075.93 1104.96
00000705 00000023 1471.40 311.09 811.99 1075.13 1869.04 678.77 2170.65 704.27 2077.00 964.53 1830.47 1080.63 2075.17 1105.45
00000706 00000024 1476.33 310.68 809.25 1083.42 1873.14 689.01 2175.47 715.66 2080.73 975.40 1834.62 1088.42 2078.61 1114.54
00000707 00000025 1495.79 329.68 798.96 1065.49 1885.00 686.54 2193.52 717.13 2087.83 977.17 1828.02 1092.76 2083.56 1120.23
00000708 00000026 1497.53 341.48 802.02 1058.35 1887.96 689.73 2197.86 718.32 2090.74 978.63 1833.10 1101.12 2081.17 1126.27
00000709 00000027 1497.37 340.28 806.26 1074.49 1897.10 689.68 2200.01 723.07 2094.27 977.88 1843.99 1104.84 2081.12 1132.93
00000710 00000028 1499.26 335.76 806.19 1088.09 1900.57 693.27 2198.37 732.36 2091.20 980.82 1843.82 1109.96 2074.21 1142.54
00000711 00000029 1504.49 325.22 804.05 1095.39 1901.84 696.06 2199.73 737.72 2086.66 986.24 1836.46 1111.46 2063.40 1146.96
00000712 00000030 1500.65 314.96 808.79 1106.80 1891.55 697.51 2195.78 745.05 2073.86 992.36 1821.53 1108.49 2058.81 1149.53
00000713 00000031 1500.87 333.94 814.34 1088.33 1887.22 704.13 2198.19 748.16 2069.60 999.53 1820.62 1112.10 2063.77 1149.62
00000714 00000032 1496.34 330.65 824.12 1110.72 1890.29 705.87 2199.02 754.13 2070.79 1008.87 1820.12 1121.46 2059.16 1161.93
00000715 00000033 1493.96 335.88 830.16 1120.04 1897.08 714.32 2200.87 765.89 2078.93 1016.52 1827.57 1131.09 2068.59 1174.16
00000716 00000034 1500.04 338.05 829.98 1129.81 1897.12 719.72 2206.64 773.42 2087.18 1022.23 1825.08 1142.86 2075.19 1188.84
00000717 00000035 1503.83 325.19 834.36 1143.79 1912.78 719.51 2213.58 776.07 2098.46 1014.78 1839.66 1137.48 2085.07 1185.42
00000718 00000036 1513.03 319.01 831.81 1139.23 1920.18 733.24 2216.74 781.58 2111.34 1014.70 1855.16 1131.57 2095.88 1172.90
00000719 00000037 1522.20 335.92 828.59 1111.71 1919.71 727.52 2224.31 770.41 2112.10 1010.33 1864.06 1131.85 2103.72 1168.13
00000720 00000038 1527.69 346.86 826.45 1093.36 1922.78 721.34 2231.64 756.57 2116.60 1009.72 1869.32 1131.24 2109.44 1161.44
00000721 00000039 1531.76 357.41 824.82 1081.43 1926.07 711.29 2234.42 747.87 2119.04 1006.22 1870.14 1128.03 2109.33 1159.58
00000722 00000040 1530.40 349.34 822.59 1088.45 1928.20 708.29 2232.82 748.31 2117.53 1003.37 1867.24 1124.07 2105.30 1158.41
00000723 00000041 1526.40 349.69 824.41 1083.49 1923.33 714.56 2223.37 757.30 2108.25 997.57 1862.16 1120.83 2097.23 1157.00
00000724 00000042 1521.38 328.27 831.12 1106.50 1921.17 725.11 2216.22 771.24 2103.90 1000.36 1856.89 1118.51 2089.99 1157.89
00000725 00000043 1516.70 332.55 833.65 1104.24 1917.86 725.80 2214.60 771.39 2100.53 1002.92 1853.08 1122.42 2086.62 1160.93
00000726 00000044 1511.49 336.60 840.22 1104.14 1908.40 728.00 2213.65 770.10 2092.82 1010.80 1846.57 1127.03 2085.82 1162.06
00000727 00000045 1508.28 343.88 842.73 1100.04 1906.67 729.84 2212.20 768.82 2091.96 1015.55 1846.27 1132.45 2085.57 1164.70
00000728 00000046 1505.61 334.96 840.87 1111.10 1908.03 732.98 2209.17 770.14 2095.89 1012.85 1854.70 1139.98 2081.23 1170.63
00000729 00000047 1506.53 314.29 837.13 1134.68 1913.80 739.23 2204.18 778.01 2104.50 1009.24 1869.21 1144.18 2082.17 1175.72
00000730 00000048 1504.49 319.39 837.27 1127.60 1913.85 736.85 2202.34 767.03 2110.06 1004.27 1879.47 1149.03 2084.51 1173.50
00000731 00000049 1500.19 328.89 839.93 1117.39 1914.81 727.44 2206.93 755.58 2112.28 998.42 1882.67 1145.01 2091.17 1166.97
00000732 00000050 1496.88 337.23 833.69 1103.45 1908.59 722.24 2204.93 748.06 2107.53 997.45 1875.98 1139.63 2093.06 1159.98
00000733 00000051 1488.38 342.47 828.59 1102.99 1901.78 719.91 2199.75 743.89 2104.16 1003.01 1868.52 1142.48 2093.59 1161.55
00000734 00000052 1487.75 336.55 829.02 1115.98 1901.56 717.37 2200.14 743.01 2105.43 1007.57 1860.29 1143.73 2091.43 1164.84
00000735 00000053 1484.94 336.38 831.36 1117.01 1899.57 722.61 2199.34 747.18 2106.14 1011.48 1860.52 1144.05 2096.84 1164.56
00000736 00000054 1491.92 338.31 828.96 1109.99 1902.61 725.34 2206.50 747.85 2109.10 1011.51 1867.47 1143.96 2103.00 1162.58
00000737 00000055 1499.01 342.43 829.72 1105.48 1906.88 723.84 2214.91 744.34 2114.70 1010.02 1873.45 1146.55 2109.94 1163.70
00000738 00000056 1499.46 335.16 828.00 1112.39 1910.47 724.48 2215.42 745.87 2116.92 1009.65 1878.40 1151.69 2104.59 1168.75
00000739 00000057 1499.14 336.59 825.85 1112.81 1907.04 731.67 2215.49 753.33 2115.30 1008.29 1878.27 1154.02 2105.75 1171.17
00000740 00000058 1495.33 317.96 822.81 1137.43 1902.69 748.04 2205.98 775.57 2106.48 1018.13 1862.28 1155.52 2090.44 1178.73
00000741 00000059 1493.73 317.93 825.07 1141.12 1893.45 769.74 2191.53 797.69 2084.60 1045.57 1832.49 1156.76 2073.09 1183.45
00000742 00000060 1492.41 305.06 819.22 1156.71 1876.61 779.89 2175.35 822.83 2058.65 1057.86 1808.07 1153.71 2060.97 1192.98
00000743 00000061 1497.14 283.66 822.36 1185.02 1853.42 794.46 2175.52 835.58 2037.80 1072.45 1800.86 1159.08 2062.50 1197.01
00000744 00000062 1493.85 310.51 814.01 1161.17 1859.56 798.75 2168.39 829.83 2044.61 1081.01 1809.02 1171.07 2067.48 1200.75
00000745 00000063 1495.66 310.92 814.57 1162.15 1861.28 802.43 2172.94 830.83 2048.18 1087.24 1814.19 1176.65 2072.89 1204.01
00000746 00000064 1499.38 309.00 813.65 1166.39 1867.59 801.18 2174.15 831.43 2052.47 1087.34 1819.96 1180.55 2068.44 1209.35
00000747 00000065 1498.39 313.30 816.26 1160.88 1870.43 801.08 2177.65 831.45 2055.69 1088.86 1819.07 1178.10 2070.08 1207.62
00000748 00000066 1499.21 313.33 817.35 1159.40 1880.63 806.56 2182.36 832.02 2066.08 1085.75 1823.88 1175.60 2072.14 1201.85
00000749 00000067 1496.81 295.25 824.62 1179.67 1894.21 791.62 2195.85 818.78 2093.71 1070.52 1836.16 1179.34 2077.89 1206.24
00000750 00000068 1498.24 310.49 823.05 1153.50 1901.78 768.61 2209.30 795.43 2108.36 1042.40 1850.87 1164.48 2094.72 1190.12
00000751 00000069 1502.43 306.47 819.38 1145.34 1906.33 744.00 2211.52 771.29 2115.15 1016.63 1867.92 1150.00 2104.12 1173.87
00000752 00000070 1502.63 314.10 824.71 1131.68 1914.12 725.86 2212.91 748.97 2120.45 1012.78 1880.50 1139.59 2115.35 1159.35
00000753 00000071 1506.22 332.51 828.12 1118.05 1916.02 713.32 2219.93 736.92 2124.48 999.28 1877.53 1136.89 2117.67 1157.23
00000754 00000072 1514.27 330.04 818.37 1119.41 1920.63 700.71 2224.98 727.82 2138.73 982.09 1873.41 1130.05 2119.08 1155.37
00000755 00000073 1519.50 333.83 814.36 1101.31 1922.81 693.45 2228.65 715.48 2146.16 968.70 1878.59 1119.20 2126.29 1140.84
00000756 00000074 1525.31 325.56 809.07 1096.93 1928.91 690.69 2233.25 710.91 2156.46 963.36 1886.10 1111.70 2132.30 1132.69
00000757 00000075 1526.26 324.19 811.56 1100.00 1933.20 693.04 2235.51 712.55 2161.31 967.53 1887.11 1112.25 2133.27 1132.98
00000758 00000076 1530.85 323.85 810.53 1100.48 1934.87 694.65 2238.95 715.02 2163.48 969.35 1891.03 1112.06 2138.65 1133.33
00000759 00000077 1531.02 322.21 815.72 1111.62 1940.40 703.60 2241.38 724.67 2167.54 984.56 1891.13 1113.85 2145.41 1135.66
00000760 00000078 1534.45 338.71 813.70 1102.71 1944.45 720.38 2244.19 741.52 2167.92 1003.40 1892.60 1122.95 2151.11 1145.09
00000761 00000079 1538.57 354.89 808.69 1093.04 1951.75 735.81 2251.18 751.32 2183.23 1013.88 1891.41 1136.61 2147.88 1156.42
00000762 00000080 1550.34 348.58 814.39 1112.23 1976.03 742.93 2252.99 768.27 2186.88 1030.56 1897.53 1139.65 2150.96 1168.14
00000763 00000081 1560.42 343.04 817.93 1116.69 1991.60 739.50 2266.03 766.61 2195.30 1031.38 1908.30 1138.51 2153.45 1167.73
00000764 00000082 1561.01 342.03 827.62 1119.92 1995.38 737.39 2276.59 760.06 2196.97 1029.31 1934.19 1148.26 2169.11 1171.93
00000765 00000083 1562.02 350.09 836.81 1112.84 1997.26 757.56 2290.40 769.37 2206.96 1046.45 1954.53 1164.92 2194.53 1178.74
00000766 DELETE   1575.43 321.34 820.11 1147.46 2015.16 788.78 2297.74 798.05 2223.33 1064.14 1975.12 1186.73 2194.62 1198.96
00000767 00000085 1585.33 305.56 816.50 1174.13 2029.00 798.11 2308.18 810.80 2236.44 1073.35 1989.76 1198.10 2199.15 1212.29
00000768 00000086 1584.58 319.76 822.49 1160.12 2032.58 792.51 2308.29 805.48 2237.58 1077.00 1990.02 1197.18 2197.79 1211.70
00000769 00000087 1583.48 335.23 824.20 1139.29 2023.95 783.21 2307.23 791.62 2233.54 1072.18 1981.71 1188.22 2203.04 1199.45
00000770 00000088 1580.64 334.14 827.72 1131.75 2021.98 772.46 2306.14 783.43 2232.62 1057.63 1982.08 1179.22 2206.34 1191.87
00000771 00000089 1583.97 302.94 824.84 1162.53 2025.02 766.91 2307.25 783.76 2233.32 1046.91 1983.35 1172.47 2206.81 1189.57
00000772 00000090 1592.83 309.69 820.96 1153.20 2026.03 763.39 2311.09 781.83 2231.26 1042.55 1982.49 1169.00 2207.49 1186.87
00000773 00000091 1595.21 284.06 819.92 1176.00 2019.65 776.59 2301.49 798.55 2215.04 1041.65 1969.34 1166.25 2190.47 1187.65
00000774 00000092 1597.81 269.42 817.72 1191.34 1995.99 764.52 2302.31 801.93 2191.28 1033.95 1947.83 1155.36 2182.71 1191.43
00000775 00000093 1591.71 285.07 815.87 1172.40 1963.27 763.36 2283.64 803.20 2166.95 1026.57 1918.88 1147.32 2173.88 1186.92
00000776 00000094 1592.36 256.65 806.61 1200.45 1947.74 763.62 2268.78 808.57 2146.99 1022.63 1897.81 1145.27 2153.16 1188.74
00000777 00000095 1592.44 259.80 804.18 1195.90 1935.69 758.32 2262.41 809.28 2132.32 1024.23 1885.19 1143.51 2142.78 1192.09
00000778 00000096 1591.86 267.30 799.86 1190.51 1930.19 760.58 2257.67 810.16 2125.23 1030.85 1880.48 1146.62 2138.97 1194.47
00000779 00000097 1591.06 269.90 802.63 1194.25 1929.77 767.69 2258.29 816.13 2122.09 1043.56 1874.04 1152.03 2132.26 1199.78
00000780 00000098 1590.07 266.54 801.67 1201.75 1924.89 775.91 2258.42 824.80 2119.88 1052.16 1866.82 1156.62 2129.72 1205.07
00000781 00000099 1590.07 284.12 798.31 1184.60 1920.11 784.80 2251.23 835.48 2110.31 1063.26 1860.27 1160.93 2121.53 1211.05
00000782 00000100 1572.52 334.72 812.50 1125.90 1926.51 795.75 2240.51 837.90 2109.23 1086.18 1862.17 1165.61 2129.97 1205.44
00000783 DELETE   1583.10 335.20 806.68 1152.14 1938.44 816.46 2249.38 860.12 2114.36 1102.81 1859.45 1181.19 2123.95 1224.73
00000784 00000102 1590.58 312.20 809.81 1189.68 1934.67 845.56 2266.62 889.40 2120.03 1116.97 1862.81 1212.00 2134.08 1254.14
00000785 00000103 1597.54 344.84 806.29 1175.84 1935.20 873.38 2270.71 911.27 2120.88 1150.17 1865.98 1227.81 2134.20 1266.39
00000786 00000104 1596.06 351.58 814.98 1176.21 1928.34 885.26 2272.40 922.83 2115.69 1161.15 1865.37 1234.01 2135.37 1272.85
00000787 00000105 1589.28 361.26 818.61 1170.49 1925.10 890.02 2271.27 928.62 2111.83 1170.64 1856.73 1237.43 2127.79 1277.78
00000788 00000106 1585.60 363.73 824.79 1168.57 1922.63 891.63 2271.04 928.79 2110.46 1171.83 1857.92 1243.06 2124.64 1282.38
00000789 00000107 1582.05 357.86 828.53 1167.39 1922.29 892.50 2272.74 927.06 2110.44 1170.53 1858.76 1245.80 2121.76 1282.96
00000790 00000108 1580.11 357.87 830.79 1171.11 1925.14 892.13 2272.91 926.19 2112.23 1172.46 1862.16 1246.95 2121.90 1283.75
00000791 00000109 1582.34 358.18 834.28 1179.24 1936.26 898.63 2277.41 930.05 2122.19 1175.13 1871.79 1248.65 2129.17 1283.06
00000792 00000110 1588.04 356.07 835.47 1182.68 1946.64 902.58 2282.48 932.37 2129.87 1174.55 1879.27 1253.65 2131.90 1286.53
00000793 00000111 1589.83 367.97 830.32 1177.49 1947.76 908.23 2283.75 936.72 2133.15 1180.44 1878.58 1257.66 2134.41 1289.65
00000794 00000112 1589.29 353.69 831.23 1198.47 1943.88 905.94 2282.90 935.84 2131.47 1178.72 1876.02 1256.59 2137.21 1289.30
00000795 00000113 1586.43 351.05 832.37 1194.42 1942.59 896.04 2282.26 928.61 2128.35 1171.95 1884.82 1261.89 2136.00 1296.22
00000796 00000114 1592.36 348.46 827.68 1197.59 1943.64 890.03 2282.15 924.67 2129.07 1166.83 1892.32 1266.64 2138.10 1302.43
00000797 00000115 1596.10 357.36 824.97 1190.32 1949.93 885.43 2282.81 922.04 2132.24 1167.88 1898.05 1266.22 2138.91 1303.90
00000798 00000116 1596.13 359.94 829.84 1185.83 1956.21 883.44 2288.05 918.93 2137.76 1167.59 1901.77 1266.77 2140.62 1303.82
00000799 00000117 1598.77 344.81 828.05 1197.54 1957.61 882.29 2288.98 918.27 2138.03 1165.36 1902.10 1264.73 2140.92 1301.81
00000800 00000118 1594.97 348.84 826.26 1194.14 1954.39 881.78 2285.09 919.23 2135.78 1164.32 1896.48 1262.58 2136.74 1301.01
00000801 00000119 1593.03 328.59 831.63 1208.71 1953.25 889.47 2291.53 920.29 2137.57 1163.60 1890.47 1259.83 2137.08 1292.62
00000802 00000120 1591.11 350.02 828.89 1179.78 1954.15 888.46 2286.45 919.08 2135.87 1164.60 1886.14 1249.14 2133.43 1282.10
00000803 00000121 1591.65 339.81 836.25 1186.08 1955.12 885.35 2290.42 918.70 2136.88 1158.82 1886.46 1245.49 2138.82 1280.12
00000804 00000122 1594.09 339.96 834.44 1177.70 1957.02 882.78 2291.42 919.02 2138.58 1155.59 1892.01 1245.23 2140.11 1282.11
00000805 00000123 1595.54 337.45 836.56 1180.69 1958.44 883.47 2292.61 917.07 2141.57 1156.81 1894.10 1244.27 2143.07 1279.24
00000806 00000124 1596.85 342.74 840.65 1185.44 1960.03 882.82 2292.66 917.70 2141.71 1160.83 1891.46 1241.72 2145.91 1278.27
00000807 00000125 1596.84 336.76 839.66 1192.36 1961.27 883.10 2292.60 915.67 2143.94 1161.31 1893.35 1243.43 2146.40 1277.87
00000808 00000126 1597.12 331.77 836.17 1195.61 1959.96 882.60 2290.18 915.13 2144.03 1157.97 1891.34 1241.11 2145.67 1275.51
00000809 00000127 1597.86 334.29 835.31 1193.99 1960.03 882.04 2290.86 915.70 2143.58 1158.06 1891.67 1241.33 2146.40 1276.63
00000810 00000128 1602.63 335.99 835.17 1187.92 1966.88 879.19 2295.50 916.09 2148.21 1156.79 1898.33 1238.51 2151.64 1276.35
00000811 00000129 1609.92 343.66 830.50 1181.58 1973.23 879.36 2303.34 914.99 2155.46 1160.61 1903.13 1238.79 2158.99 1275.99
00000812 00000130 1617.04 349.66 829.72 1173.13 1976.38 877.96 2308.67 912.45 2157.87 1163.34 1904.67 1239.04 2162.98 1275.55
00000813 00000131 1621.66 349.56 828.77 1174.42 1981.57 877.78 2313.01 912.84 2159.73 1165.23 1910.37 1242.54 2166.76 1279.04
00000814 00000132 1622.80 354.76 828.02 1168.11 1982.44 876.98 2311.46 912.21 2158.32 1165.84 1910.08 1240.88 2164.37 1277.76
00000815 00000133 1620.33 357.81 823.27 1169.84 1978.51 877.69 2307.64 914.70 2156.40 1165.42 1905.31 1240.21 2162.07 1278.68
00000816 00000134 1617.68 357.25 821.79 1173.28 1973.70 879.72 2302.12 917.15 2153.19 1162.76 1901.64 1240.03 2159.86 1278.78
00000817 00000135 1615.46 352.14 821.54 1179.79 1971.69 878.93 2297.95 918.69 2149.88 1159.55 1901.11 1239.95 2157.17 1280.08
00000818 00000136 1616.18 352.59 818.66 1179.86 1968.80 881.33 2297.93 918.83 2149.83 1160.38 1900.03 1237.85 2161.72 1275.98
00000819 00000137 1611.82 366.64 821.60 1171.59 1966.88 883.24 2294.92 922.13 2147.11 1161.99 1899.29 1242.48 2157.68 1282.17
00000820 00000138 1608.84 375.38 818.20 1164.27 1960.71 884.54 2290.12 924.27 2141.07 1162.45 1893.09 1243.76 2151.97 1284.52
00000821 00000139 1601.62 377.82 818.10 1160.26 1951.71 885.38 2281.75 925.81 2132.96 1164.46 1885.76 1245.63 2141.41 1287.13
00000822 00000140 1591.89 377.75 819.49 1162.54 1943.45 884.49 2276.08 924.90 2128.18 1163.25 1880.36 1246.69 2137.15 1288.01
00000823 00000141 1587.48 352.43 821.07 1195.06 1937.84 882.23 2272.82 922.82 2123.34 1162.60 1874.34 1246.49 2134.21 1287.69
00000824 00000142 1584.94 354.44 818.08 1192.17 1933.30 881.49 2269.10 922.48 2119.48 1164.18 1869.04 1245.60 2129.77 1287.34
00000825 00000143 1577.52 366.48 815.95 1184.26 1929.26 882.13 2258.71 923.02 2114.09 1167.70 1865.53 1246.09 2123.26 1287.65
00000826 00000144 1568.51 375.67 818.48 1178.69 1918.84 882.89 2249.12 927.06 2103.52 1172.42 1859.65 1249.48 2111.66 1293.79
00000827 00000145 1556.43 382.00 826.54 1166.15 1911.96 886.33 2244.31 928.58 2095.30 1183.22 1856.23 1263.28 2098.13 1306.66
00000828 00000146 1538.56 391.68 838.42 1147.02 1905.11 904.31 2222.03 928.35 2089.76 1183.27 1876.61 1287.76 2091.98 1310.06
00000829 00000147 1540.67 391.92 835.59 1150.11 1906.98 906.77 2221.23 931.13 2090.35 1184.86 1883.18 1294.11 2093.62 1316.59
00000830 00000148 1553.95 365.86 825.17 1187.41 1905.06 896.82 2235.90 941.93 2086.51 1188.84 1860.46 1286.98 2086.91 1330.66
00000831 00000149 1534.22 383.51 838.11 1166.01 1902.49 910.73 2222.12 934.48 2085.34 1192.33 1863.43 1295.82 2081.95 1318.60
00000832 00000150 1534.27 381.92 838.84 1173.39 1902.43 910.44 2223.49 937.35 2085.37 1196.07 1850.99 1287.25 2083.22 1313.38
00000833 00000151 1534.61 376.13 836.00 1179.08 1899.46 909.80 2215.60 942.38 2077.26 1195.85 1842.76 1278.68 2077.93 1309.47
00000834 00000152 1531.28 371.84 835.19 1184.78 1891.98 908.71 2209.55 944.67 2068.32 1194.05 1835.36 1276.46 2073.35 1309.59
00000835 00000153 1527.86 373.40 830.39 1182.29 1885.97 907.69 2204.45 946.01 2059.64 1196.03 1830.25 1275.42 2069.85 1310.13
00000836 00000154 1526.88 384.42 825.96 1169.92 1880.57 905.27 2204.71 941.67 2056.15 1197.77 1823.10 1274.85 2068.49 1308.97
00000837 00000155 1526.10 386.96 825.21 1168.36 1880.06 904.79 2203.86 939.27 2058.09 1199.14 1822.15 1270.52 2071.74 1303.53
00000838 00000156 1525.25 382.16 823.73 1173.40 1877.89 904.06 2200.53 937.50 2056.52 1195.63 1821.21 1267.14 2073.51 1299.21
00000839 00000157 1519.77 380.46 824.91 1176.90 1870.30 904.89 2195.54 936.06 2052.20 1193.74 1815.15 1265.96 2073.14 1296.18
