Video ID: 	gzgMGWoyZ9I
H: 	1080
W: 	1920
FPS: 	25.0

FRAME INDEX X0 Y0 W H [Landmarks (5 Points)]

00003231 00000000 809.07 109.81 423.22 551.19 848.98 338.78 1011.82 310.06 880.98 432.38 905.40 546.86 1013.59 524.03
00003232 00000001 805.15 119.29 429.71 542.34 847.67 357.39 1001.30 322.36 878.12 436.53 904.61 550.90 1014.60 521.37
00003233 00000002 798.79 124.78 435.37 542.41 844.63 362.91 999.79 328.21 880.48 446.24 903.79 557.49 1013.15 528.19
00003234 00000003 794.23 140.37 438.96 541.16 842.12 373.23 995.99 340.45 881.02 465.12 905.31 567.75 1016.39 539.78
00003235 00000004 793.67 157.47 437.35 546.05 842.37 386.67 993.93 353.46 883.94 486.12 907.21 586.46 1018.60 558.05
00003236 00000005 793.27 158.79 437.57 555.79 845.23 395.20 996.30 359.98 888.33 496.65 915.95 599.82 1027.09 569.23
00003237 00000006 792.21 160.42 435.50 559.22 843.92 400.14 995.10 362.06 886.39 502.42 919.79 606.65 1031.21 573.36
00003238 00000007 790.83 160.74 435.77 564.31 841.17 398.32 992.26 364.24 880.56 506.13 914.56 609.45 1025.14 579.12
00003239 00000008 789.43 158.50 436.65 560.86 838.18 398.71 993.69 366.65 881.13 504.74 908.28 608.66 1019.07 580.44
00003240 00000009 785.51 157.54 437.10 557.44 833.31 398.02 993.41 367.09 877.28 502.98 897.61 606.55 1011.73 579.35
00003241 00000010 782.62 160.12 437.13 553.16 829.29 399.68 991.30 367.71 873.54 502.72 893.09 607.35 1008.94 579.20
00003242 00000011 782.01 159.39 433.50 558.01 828.61 400.04 987.53 366.67 870.66 502.99 893.48 606.93 1009.51 577.33
00003243 00000012 777.56 168.11 430.79 554.18 823.96 409.46 981.97 376.63 864.77 507.65 889.27 605.68 1006.39 578.51
00003244 00000013 775.50 169.56 432.12 555.38 824.14 410.65 980.26 378.04 863.38 507.30 889.67 606.05 1005.44 579.07
00003245 DELETE   776.77 173.32 427.00 549.27 827.53 415.02 981.80 382.98 866.48 499.75 887.02 604.48 999.07 577.92
00003246 00000015 774.78 170.04 433.35 550.98 828.69 418.46 992.88 378.90 877.05 489.98 886.96 610.50 1007.36 575.99
00003247 00000016 780.46 165.52 433.65 553.96 834.85 408.60 1002.33 371.89 884.16 482.52 890.92 603.74 1012.39 572.10
00003248 00000017 792.42 161.99 428.72 554.05 847.41 398.26 1008.14 366.76 890.66 475.60 895.24 593.94 1013.84 566.78
00003249 00000018 800.01 168.11 420.13 543.64 848.09 389.66 1014.89 358.77 893.94 481.24 900.20 592.65 1020.88 569.34
00003250 00000019 804.13 167.82 418.85 541.21 853.81 387.17 1019.84 357.49 900.04 478.30 905.11 589.99 1024.07 567.35
00003251 00000020 808.94 170.59 416.83 538.25 858.40 385.23 1021.76 357.84 901.49 477.83 907.13 588.96 1024.86 568.12
00003252 00000021 811.76 169.37 415.69 538.48 861.53 385.32 1025.12 358.99 904.03 479.03 908.70 588.59 1028.09 568.42
00003253 00000022 814.97 164.79 415.04 542.59 863.41 384.37 1028.37 358.95 904.37 478.35 908.02 588.77 1029.14 569.23
00003254 00000023 816.83 165.96 413.87 539.89 864.83 382.86 1029.79 358.28 904.63 475.69 908.10 586.71 1029.41 567.78
00003255 00000024 816.55 163.41 414.78 542.35 866.41 379.51 1031.63 355.62 907.24 472.23 910.01 584.27 1030.90 565.75
00003256 00000025 817.04 164.58 411.99 543.00 866.45 380.29 1031.28 353.82 907.89 468.95 911.75 585.81 1032.12 565.18
00003257 00000026 814.68 163.15 415.70 549.76 866.82 379.63 1029.15 351.24 905.25 467.06 915.93 587.43 1034.11 564.99
00003258 00000027 815.60 163.47 414.72 550.46 866.60 379.98 1028.18 352.21 903.44 470.10 917.52 587.98 1036.94 565.69
00003259 00000028 816.90 164.64 414.36 548.52 867.08 380.47 1028.81 354.02 903.83 472.09 917.14 587.26 1038.66 565.99
00003260 00000029 817.85 166.21 415.01 543.84 869.29 381.17 1030.27 354.60 906.76 471.77 916.56 584.27 1039.73 563.09
00003261 00000030 819.90 165.28 413.52 541.20 870.85 380.62 1032.25 355.31 907.97 472.59 916.09 582.02 1041.03 562.03
00003262 00000031 821.26 171.00 414.36 531.24 870.42 392.78 1034.13 363.70 910.24 475.54 915.56 583.88 1042.75 560.78
00003263 00000032 821.44 171.00 416.52 531.60 871.31 398.90 1037.19 366.74 915.97 475.88 917.04 587.42 1045.69 561.67
00003264 00000033 821.20 171.05 421.03 535.30 873.67 395.37 1042.74 365.91 918.39 475.05 917.98 588.92 1045.75 565.25
00003265 00000034 830.17 167.60 417.95 538.12 888.90 399.44 1041.76 371.61 924.75 466.91 924.65 578.67 1044.19 555.99
00003266 00000035 834.72 163.32 411.89 553.04 886.24 394.56 1039.50 369.31 921.84 470.81 923.58 582.75 1041.46 562.31
00003267 00000036 832.78 165.01 415.51 553.28 887.20 397.32 1043.95 374.96 924.11 479.00 921.15 592.11 1036.18 573.97
00003268 00000037 843.81 171.63 406.45 537.17 899.58 396.31 1059.88 369.43 936.37 472.35 931.43 591.49 1051.92 568.16
00003269 00000038 850.03 174.34 402.20 529.56 903.22 396.98 1064.77 369.61 943.18 469.89 937.33 589.84 1056.34 566.39
00003270 00000039 847.93 175.27 406.13 531.81 905.87 395.37 1066.82 368.17 946.44 466.81 940.33 590.27 1058.44 566.60
00003271 00000040 849.10 178.75 405.83 532.28 904.75 394.12 1066.06 368.61 942.96 468.00 935.30 591.16 1056.76 568.71
00003272 00000041 844.08 176.06 413.18 534.15 895.61 405.21 1055.51 375.65 939.13 471.81 929.82 590.43 1047.96 566.66
00003273 00000042 844.32 176.22 411.55 533.44 895.45 404.61 1055.02 374.96 939.27 472.43 930.82 590.52 1049.59 566.70
00003274 00000043 844.26 176.41 409.69 530.84 895.00 402.94 1053.14 375.30 937.36 473.08 930.64 588.06 1047.31 565.92
00003275 00000044 840.93 176.20 412.27 534.78 896.04 402.71 1051.98 376.09 936.36 471.93 932.12 587.92 1045.60 566.42
00003276 00000045 840.95 175.85 413.69 537.78 894.04 403.03 1050.94 375.94 933.59 474.00 933.04 591.26 1046.84 569.28
00003277 00000046 835.89 177.67 419.94 535.71 894.01 403.36 1049.47 377.06 931.21 475.76 935.76 591.21 1048.15 569.74
00003278 00000047 836.05 178.87 418.92 535.59 892.08 405.56 1049.74 378.26 930.31 477.56 935.33 595.45 1049.99 573.07
00003279 00000048 835.94 176.82 418.28 539.79 890.50 406.98 1048.49 378.07 929.36 479.76 935.12 596.34 1055.66 572.52
00003280 00000049 832.10 178.52 419.49 540.77 889.47 406.78 1048.41 377.51 929.96 479.90 935.73 597.30 1058.40 573.04
00003281 00000050 828.45 174.22 421.26 549.26 888.46 403.89 1046.57 375.39 930.36 478.98 938.96 597.47 1060.32 573.66
00003282 00000051 828.63 177.84 418.11 543.20 881.25 405.51 1051.05 376.93 925.71 484.01 932.13 604.25 1054.82 580.36
00003283 00000052 832.53 178.36 423.26 536.42 891.44 417.36 1047.55 387.59 930.52 475.75 934.08 593.34 1045.38 568.70
00003284 00000053 836.28 178.04 418.94 530.71 893.56 408.52 1047.26 381.22 931.08 474.09 932.27 587.02 1042.89 564.69
00003285 00000054 446.78 78.74 280.05 350.41
00003286 00000055 834.71 167.25 418.08 542.36 889.51 398.12 1045.50 372.06 926.16 473.21 929.05 585.25 1046.01 564.03
00003287 00000056 832.99 165.16 418.62 546.59 886.85 393.64 1045.05 369.03 922.56 473.61 925.80 582.10 1048.20 562.14
00003288 00000057 831.88 163.50 418.08 548.79 885.32 392.28 1042.39 365.91 917.46 470.09 923.10 579.57 1047.84 558.27
00003289 00000058 834.26 161.43 410.61 549.11 878.89 385.10 1032.37 360.46 909.50 467.33 915.95 573.84 1036.92 553.48
00003290 00000059 832.18 158.51 407.50 545.01 878.07 382.83 1031.70 356.30 908.13 458.40 913.78 572.72 1029.45 550.76
00003291 00000060 831.48 158.47 406.38 552.15 878.32 380.18 1032.42 354.46 906.72 455.46 912.98 577.74 1025.68 556.40
00003292 00000061 832.72 159.94 402.61 553.35 878.23 382.87 1031.66 355.21 905.65 456.11 915.40 582.02 1028.59 558.87
00003293 00000062 833.40 163.22 400.26 550.89 878.52 385.36 1032.09 356.46 905.92 457.26 915.53 584.52 1029.52 560.39
00003294 00000063 834.63 164.28 400.27 550.82 879.74 385.99 1033.06 357.87 907.12 459.88 916.47 585.31 1030.86 561.92
00003295 00000064 835.59 165.52 399.53 549.62 880.24 387.47 1033.45 359.47 907.80 462.34 917.09 586.42 1031.37 563.23
00003296 00000065 838.83 165.29 398.04 550.19 881.57 389.39 1034.12 361.83 908.24 465.36 917.97 587.03 1033.15 564.24
00003297 00000066 840.63 164.36 397.03 551.27 882.24 390.07 1033.89 363.23 907.88 467.19 918.92 587.35 1033.53 565.15
00003298 00000067 841.22 164.36 396.12 549.42 882.59 389.28 1033.40 363.59 907.96 466.97 918.09 583.68 1034.11 562.44
00003299 00000068 840.64 164.52 397.22 549.01 882.49 388.64 1032.54 364.23 907.45 466.26 916.97 581.68 1032.63 561.40
00003300 00000069 840.45 164.50 396.56 549.72 882.82 389.15 1032.45 365.77 907.39 467.28 916.92 582.63 1032.15 563.15
00003301 00000070 839.89 164.77 397.54 549.15 882.81 390.29 1032.09 367.53 907.26 467.75 915.90 582.48 1031.18 563.55
00003302 00000071 837.97 164.61 399.09 550.62 882.41 391.00 1031.79 368.69 907.33 469.55 916.43 584.43 1030.76 565.80
00003303 00000072 828.21 168.05 404.03 541.81 876.04 387.16 1035.97 362.81 906.83 472.47 917.33 589.12 1035.60 569.85
00003304 00000073 826.54 166.66 402.43 543.68 873.82 387.17 1034.59 362.12 906.14 472.53 916.37 589.72 1035.48 569.85
00003305 00000074 824.62 166.10 403.61 544.89 870.27 387.52 1032.10 361.58 903.61 473.41 914.89 591.42 1033.41 570.82
00003306 00000075 820.81 166.60 405.80 546.70 866.26 387.78 1029.22 361.63 901.25 474.27 912.47 593.40 1030.64 572.79
00003307 00000076 818.63 167.87 407.05 546.84 863.15 388.02 1028.18 361.93 899.63 475.30 910.03 595.26 1029.50 574.80
00003308 00000077 818.09 167.87 406.21 546.10 861.95 388.51 1026.47 361.94 899.20 475.50 910.03 595.08 1028.27 574.47
00003309 00000078 816.89 165.93 404.90 547.45 860.05 388.47 1025.33 361.31 898.79 475.46 908.24 594.43 1027.41 573.55
00003310 00000079 816.19 168.31 403.28 543.76 857.59 388.99 1023.10 362.11 896.77 476.76 905.84 594.12 1026.12 573.71
00003311 00000080 812.64 169.89 405.35 541.09 854.89 389.69 1021.77 362.21 896.47 477.69 903.42 593.89 1023.79 573.18
00003312 00000081 810.26 168.40 405.86 542.09 852.43 390.48 1019.04 362.31 894.92 479.67 902.23 593.92 1022.95 572.76
00003313 00000082 810.10 168.62 404.77 540.99 851.79 391.09 1017.78 362.74 894.10 479.86 901.27 593.33 1021.74 572.15
00003314 00000083 808.82 168.76 405.80 541.38 850.58 391.26 1017.50 362.53 893.57 480.02 899.98 593.48 1021.17 572.04
00003315 00000084 809.00 170.30 404.18 538.80 849.89 390.51 1016.39 362.34 892.93 479.63 898.65 592.18 1020.01 571.42
00003316 00000085 808.98 169.45 403.51 539.25 849.36 391.13 1016.01 362.24 892.23 478.91 897.57 592.10 1019.46 570.83
00003317 00000086 808.77 169.96 402.59 538.44 848.42 390.49 1015.26 362.44 891.17 478.96 895.65 591.63 1018.20 571.14
00003318 00000087 808.55 168.75 402.77 539.32 847.72 390.16 1015.12 362.61 890.27 479.16 894.36 591.46 1017.39 571.38
00003319 00000088 807.11 169.32 403.36 538.29 846.09 390.31 1014.83 362.54 889.05 479.45 891.91 591.60 1017.05 571.44
00003320 00000089 806.17 167.65 403.76 539.92 844.77 389.84 1014.24 362.71 887.64 479.93 890.17 591.28 1016.28 571.73
00003321 00000090 804.75 168.05 403.70 539.45 843.27 390.14 1013.23 362.97 886.13 480.02 887.26 591.13 1014.74 571.71
00003322 00000091 804.20 170.98 401.44 535.34 850.77 392.66 1004.78 372.35 883.25 477.83 883.79 586.07 1009.33 569.85
00003323 00000092 802.02 171.18 401.59 533.21 849.92 391.84 1005.18 371.44 883.97 476.87 882.54 584.32 1008.75 568.10
00003324 00000093 799.53 171.92 402.22 529.42 848.18 391.42 1004.25 370.23 883.22 475.22 881.25 582.66 1007.25 565.80
00003325 00000094 797.84 171.68 400.56 523.00 846.49 390.03 1004.05 368.43 882.83 472.61 879.87 580.58 1004.31 563.38
00003326 00000095 798.81 170.04 397.32 521.23 845.97 389.70 1002.72 367.47 881.49 470.29 878.92 579.44 1001.62 561.81
00003327 00000096 798.61 169.93 395.27 517.95 845.10 388.53 1002.42 367.15 880.36 469.11 876.75 578.04 998.91 561.21
00003328 00000097 799.95 165.27 396.48 523.89 848.93 390.32 1004.46 366.00 883.17 464.43 885.98 578.81 1001.09 557.52
00003329 00000098 798.11 165.42 396.65 522.00 847.23 390.04 1001.92 366.13 881.63 464.34 885.23 578.39 999.50 557.33
00003330 00000099 796.34 164.10 397.64 523.37 844.75 391.06 999.78 365.87 879.61 464.81 884.37 580.33 998.35 558.17
00003331 00000100 786.65 174.55 402.06 519.44 836.64 390.84 994.57 369.95 873.97 475.32 872.17 586.01 993.35 569.17
00003332 00000101 779.91 175.66 408.09 532.92 831.04 397.01 989.13 372.11 868.73 481.50 874.54 594.45 995.49 573.97
00003333 DELETE   772.24 183.53 414.43 537.42 822.86 416.94 974.08 378.11 861.90 493.29 882.08 604.26 1001.05 572.44
00003334 00000103 765.04 200.24 417.82 536.14 808.54 443.35 953.66 397.40 848.09 510.87 880.97 622.90 990.25 584.62
00003335 00000104 758.16 206.58 419.65 526.06 806.32 444.29 948.73 401.55 845.06 508.65 878.07 620.76 985.33 584.49
00003336 DELETE   766.16 188.73 418.44 534.75 817.29 425.71 966.29 375.88 857.19 481.71 880.98 606.73 992.52 565.87
00003337 00000106 782.06 173.33 410.33 527.76 829.29 394.79 971.08 352.79 859.81 455.40 881.99 577.63 989.98 541.72
00003338 DELETE   787.65 147.50 410.05 530.83 831.60 377.83 981.60 337.64 862.39 434.58 874.22 558.13 987.85 524.80
00003339 DELETE   796.33 144.98 411.41 514.68 845.10 380.30 994.82 331.82 877.76 428.51 892.53 554.23 1007.03 513.96
00003340 DELETE   802.67 142.85 411.62 508.46 848.75 385.42 1002.68 329.35 885.52 420.33 899.47 554.43 1018.53 507.92
00003341 00000110 806.14 141.49 413.18 512.53 853.02 385.82 1004.63 330.49 892.63 421.11 907.43 553.49 1022.26 507.36
00003342 00000111 804.51 140.92 417.82 523.23 854.83 388.85 1007.39 328.56 901.07 423.50 917.89 557.85 1032.34 507.30
CROP_BBOX: 548 0 1436 863
