Video ID: 	BZUCDBO4GBU
H: 	1080
W: 	1920
FPS: 	25.0

FRAME INDEX X0 Y0 W H [Landmarks (5 Points)]

00000259 00000000 793.91 126.44 384.92 584.70 827.54 332.63 973.54 346.65 838.56 453.93 834.28 555.32 944.77 568.34
00000260 00000001 790.57 127.15 384.48 588.37 824.24 337.26 970.90 350.11 836.64 458.81 832.65 562.21 942.05 574.23
00000261 00000002 787.80 134.33 385.98 573.08 823.77 339.03 971.95 356.40 837.87 466.18 831.47 560.35 942.02 575.75
00000262 00000003 791.54 130.22 382.84 582.98 825.44 347.70 973.93 363.73 838.68 469.21 831.96 566.52 943.31 580.75
00000263 00000004 796.35 135.02 379.65 585.93 831.71 354.44 979.48 368.49 845.34 471.31 838.79 571.24 949.87 583.54
00000264 00000005 802.56 140.28 376.90 579.41 840.39 354.46 990.04 370.41 856.58 471.85 847.13 568.61 959.88 582.39
00000265 DELETE   809.84 152.30 377.49 563.88 854.61 360.61 1003.32 371.34 874.34 471.16 858.67 566.89 981.77 577.45
00000266 00000007 814.26 155.75 379.34 562.28 862.14 371.48 1011.04 374.34 888.17 475.02 870.72 572.83 997.36 576.94
00000267 DELETE   817.98 152.39 386.32 570.02 869.40 378.38 1021.21 377.47 899.20 482.00 882.91 579.01 1013.25 578.82
00000268 00000009 822.53 162.30 389.49 571.73 875.66 382.62 1027.05 377.68 902.96 485.56 893.20 586.32 1021.57 582.50
00000269 00000010 823.47 163.87 391.08 576.44 877.53 386.52 1027.98 381.50 903.89 490.07 894.91 590.33 1024.13 586.18
00000270 00000011 819.41 161.01 395.90 582.15 881.59 384.85 1038.62 388.06 907.29 490.18 894.26 590.01 1015.75 592.55
00000271 00000012 821.28 162.27 393.72 577.77 881.40 387.01 1040.00 391.24 907.49 491.84 890.23 590.86 1012.41 594.56
00000272 00000013 821.81 159.33 394.17 581.56 881.24 389.56 1041.91 394.27 909.69 495.26 890.49 593.48 1013.17 597.47
00000273 00000014 823.24 157.40 396.67 586.73 882.18 391.56 1044.20 396.36 913.32 497.93 894.16 596.88 1017.25 600.77
00000274 00000015 824.85 155.86 396.44 588.67 882.90 390.49 1044.93 396.05 914.55 498.03 896.68 596.75 1019.25 601.12
00000275 00000016 826.51 155.81 397.09 585.97 884.05 389.39 1045.57 395.36 913.62 495.15 896.07 593.73 1018.46 598.59
00000276 00000017 832.56 148.88 394.15 599.02 887.46 384.37 1047.42 394.60 912.35 491.71 896.48 590.78 1019.80 599.04
00000277 00000018 846.53 163.77 385.95 580.77 896.47 379.52 1049.48 386.03 923.62 493.34 908.35 590.53 1026.98 596.45
00000278 00000019 853.49 164.42 383.31 575.35 905.39 373.77 1057.91 384.28 930.52 490.48 915.42 585.16 1037.43 594.09
00000279 00000020 857.94 166.25 380.07 566.84 906.75 371.24 1056.31 380.36 931.25 489.45 916.30 582.76 1036.13 590.74
00000280 00000021 861.26 165.40 379.17 565.31 908.94 368.62 1055.67 379.26 930.35 487.09 917.09 580.65 1034.89 589.99
00000281 00000022 856.41 150.35 388.14 580.26 908.13 371.64 1060.45 378.76 931.85 485.50 917.89 578.54 1037.42 585.36
00000282 00000023 866.40 165.29 377.38 561.59 915.93 361.74 1060.46 378.51 933.55 482.60 921.10 574.49 1036.93 588.82
00000283 00000024 868.47 167.66 378.29 555.88 919.76 359.28 1064.31 377.63 935.73 479.32 923.95 571.11 1039.84 586.82
00000284 00000025 871.26 163.83 382.10 559.57 921.62 359.48 1064.74 377.45 934.52 477.51 925.56 569.55 1041.67 585.21
00000285 00000026 874.53 159.04 380.14 561.99 923.17 359.94 1065.70 378.80 934.24 478.26 926.06 568.62 1040.96 585.32
00000286 00000027 878.07 158.22 380.67 558.40 923.74 360.97 1066.23 378.96 932.43 478.99 925.93 567.90 1041.41 584.06
00000287 00000028 882.53 159.52 379.17 556.17 925.96 360.78 1066.71 377.68 932.52 479.11 927.10 566.64 1042.49 582.11
00000288 00000029 885.18 159.36 379.25 556.99 926.43 361.58 1067.79 376.79 933.97 479.69 928.92 567.43 1045.51 581.50
00000289 00000030 883.91 159.36 380.46 560.44 929.20 369.36 1067.87 383.11 934.89 480.93 931.00 571.02 1046.93 583.62
00000290 00000031 885.85 157.42 377.31 566.12 931.80 372.22 1070.62 385.17 938.89 484.09 932.86 575.06 1047.80 587.14
00000291 00000032 884.92 154.03 379.41 569.78 931.61 375.07 1074.66 387.43 940.15 484.00 929.82 577.42 1048.43 588.98
00000292 00000033 885.38 155.05 379.87 567.66 931.10 377.35 1075.25 387.62 941.17 482.66 929.58 579.81 1048.39 589.63
00000293 00000034 886.36 150.95 381.96 567.89 930.07 372.13 1074.36 383.78 939.56 480.01 929.00 576.20 1047.36 587.17
00000294 00000035 888.55 147.82 379.00 566.48 929.67 367.53 1074.07 378.62 938.47 474.06 926.51 573.42 1045.58 584.11
00000295 00000036 890.32 144.30 376.51 565.77 928.31 358.75 1071.94 373.12 937.08 472.65 924.37 568.19 1041.99 581.76
00000296 00000037 892.45 147.92 376.76 562.81 931.21 357.42 1074.42 372.19 939.19 470.39 923.84 566.40 1040.14 580.34
00000297 00000038 892.29 146.25 379.00 562.29 932.33 357.01 1076.28 372.94 939.44 469.43 922.28 566.37 1039.26 581.26
00000298 00000039 893.17 151.02 380.31 557.08 933.27 357.66 1077.45 373.30 940.48 469.32 923.13 567.14 1039.45 581.93
00000299 00000040 896.34 152.25 379.17 553.61 936.31 354.15 1079.26 370.44 942.91 467.72 925.34 566.78 1039.08 582.03
00000300 00000041 897.98 147.26 381.36 557.73 939.34 349.22 1081.76 366.81 943.57 464.18 927.18 564.67 1039.84 580.79
00000301 00000042 893.21 147.76 382.30 553.00 939.87 341.19 1092.35 366.94 955.44 462.01 936.39 562.12 1038.36 582.88
00000302 00000043 892.44 146.61 384.58 555.77 941.30 340.64 1095.40 366.24 957.41 460.87 937.79 562.55 1040.00 583.14
00000303 00000044 893.20 149.28 383.84 553.35 942.75 341.38 1095.91 367.82 958.86 462.35 938.34 562.80 1040.55 584.08
00000304 00000045 893.12 154.49 384.93 549.96 942.64 342.84 1097.26 370.15 960.36 464.27 938.50 564.61 1041.94 586.62
00000305 00000046 893.67 157.51 384.93 547.44 943.29 346.63 1098.59 372.79 961.91 466.93 939.60 567.24 1042.34 588.34
00000306 00000047 895.26 157.23 384.70 551.24 944.26 349.75 1099.43 375.06 962.43 468.26 940.99 570.77 1043.40 591.30
00000307 00000048 896.41 140.71 386.50 574.17 939.89 345.93 1102.37 369.60 961.10 471.38 940.21 578.54 1051.27 601.26
00000308 00000049 896.81 140.20 385.91 574.69 939.99 345.81 1103.21 369.91 961.13 471.62 939.94 578.72 1051.59 601.82
00000309 00000050 896.25 138.30 387.09 579.62 940.32 347.01 1103.70 369.81 961.73 471.01 940.84 580.19 1052.67 602.23
00000310 00000051 896.42 140.93 387.31 579.67 941.47 348.71 1104.64 372.63 962.58 473.09 941.31 580.79 1052.88 603.64
00000311 00000052 898.94 140.81 382.91 582.74 942.92 351.37 1105.61 375.60 963.67 477.07 943.52 584.08 1053.81 606.99
00000312 00000053 900.03 138.65 381.16 589.68 943.97 354.27 1106.57 377.90 964.25 479.59 944.78 587.01 1053.97 609.51
00000313 00000054 901.00 138.19 380.67 591.27 944.21 355.05 1106.36 378.40 963.01 479.99 944.83 587.54 1054.60 609.63
00000314 00000055 901.85 140.17 378.97 590.54 944.42 355.44 1106.24 378.40 963.26 479.59 944.96 587.87 1054.63 609.69
00000315 00000056 901.88 143.74 379.88 587.83 944.55 355.79 1105.03 379.59 963.75 482.04 947.08 586.06 1057.10 608.43
00000316 00000057 903.43 150.98 379.05 581.21 944.91 359.90 1103.41 383.62 961.56 484.01 947.34 585.25 1058.23 607.45
00000317 00000058 906.43 158.93 376.67 571.45 945.99 362.40 1103.84 387.29 959.35 486.33 947.12 584.28 1059.23 607.46
00000318 00000059 909.34 161.60 373.87 567.28 948.75 365.57 1104.06 391.08 959.75 487.43 948.32 583.05 1060.57 606.71
00000319 00000060 909.91 162.45 374.69 564.17 949.13 364.53 1104.88 391.07 960.97 488.11 948.99 581.18 1062.47 605.59
00000320 00000061 911.77 160.60 368.84 559.25 959.87 368.00 1102.35 388.69 967.47 482.34 954.35 573.22 1061.79 590.89
00000321 00000062 911.49 159.25 370.78 556.93 961.38 363.37 1103.65 383.75 969.38 478.58 956.77 570.59 1063.29 588.03
00000322 00000063 911.45 156.46 371.95 558.78 963.42 360.53 1106.49 382.05 971.96 475.79 956.57 567.89 1065.37 586.29
00000323 00000064 911.85 154.80 371.87 559.50 963.81 360.10 1107.26 381.04 974.23 475.09 957.83 567.42 1065.38 585.43
00000324 00000065 913.38 149.09 372.71 566.83 965.74 357.05 1109.04 379.49 974.20 472.73 959.66 563.14 1069.34 582.14
00000325 00000066 919.45 157.89 368.15 555.40 960.41 347.89 1111.04 380.83 972.59 471.95 955.64 557.43 1065.97 584.30
00000326 00000067 917.21 153.60 371.50 555.14 960.33 342.87 1111.60 377.11 972.30 469.71 954.82 553.56 1065.95 581.77
00000327 00000068 915.69 154.32 371.88 548.69 960.18 338.54 1110.43 372.47 971.57 464.51 953.15 549.23 1064.33 577.15
00000328 00000069 914.58 153.06 372.06 546.73 959.10 336.18 1111.12 369.40 972.23 462.86 952.05 549.52 1061.26 577.04
00000329 00000070 914.82 153.74 371.49 542.79 959.28 332.63 1111.65 365.31 972.88 459.87 951.61 546.81 1060.09 573.87
00000330 00000071 917.15 152.24 369.75 540.51 959.72 330.59 1111.20 361.77 974.09 456.48 953.24 545.25 1059.16 571.15
00000331 00000072 918.16 150.63 370.00 541.26 959.94 330.44 1111.21 360.23 974.76 454.80 954.65 545.44 1059.68 570.28
00000332 00000073 919.49 150.66 370.68 537.46 960.12 328.77 1112.63 357.12 976.04 452.73 954.93 543.78 1060.72 567.53
00000333 00000074 919.28 147.69 372.15 540.72 959.63 326.99 1111.55 353.59 976.11 449.33 955.02 544.04 1059.98 566.46
00000334 00000075 921.02 144.66 371.36 543.16 959.95 323.74 1110.15 350.07 976.35 446.34 955.67 541.79 1060.13 564.16
00000335 00000076 920.91 141.63 372.60 548.94 960.62 321.14 1110.15 346.78 976.24 443.39 955.91 540.83 1060.42 562.71
00000336 00000077 920.95 136.96 373.41 553.30 961.31 316.60 1110.76 342.76 976.13 439.24 956.63 537.79 1059.40 559.93
00000337 00000078 923.09 131.14 372.67 557.95 962.98 315.38 1111.19 340.09 976.74 435.92 959.42 537.68 1060.71 558.55
00000338 00000079 923.57 132.45 372.39 557.35 962.48 313.29 1110.51 338.76 975.83 435.53 959.34 537.21 1060.38 558.51
00000339 00000080 923.17 133.73 374.46 556.13 961.25 315.42 1109.93 339.79 974.90 436.81 958.11 539.39 1059.67 559.86
00000340 00000081 921.98 140.17 375.84 551.12 960.35 318.10 1110.83 342.77 975.36 440.33 956.76 541.51 1060.00 562.31
00000341 00000082 921.45 143.09 375.72 552.83 961.35 323.46 1111.70 349.92 975.69 446.60 957.40 545.08 1059.85 567.29
00000342 00000083 919.89 150.80 376.96 553.81 960.78 327.19 1113.50 354.75 974.86 452.02 956.94 549.46 1063.69 572.41
00000343 00000084 921.46 148.72 374.69 559.11 960.92 330.45 1112.49 359.23 972.92 455.16 956.35 552.79 1061.75 576.78
00000344 00000085 918.71 149.85 374.48 562.56 958.44 334.49 1110.28 362.01 970.40 456.81 953.79 558.05 1058.97 580.88
00000345 00000086 917.24 152.41 373.60 563.83 956.25 339.01 1107.31 369.02 968.96 463.62 952.81 562.02 1057.38 586.44
00000346 00000087 914.05 144.92 377.37 575.68 952.03 343.73 1107.24 370.32 959.00 470.42 953.58 571.42 1061.61 593.71
00000347 00000088 908.41 145.83 381.35 581.39 956.81 341.61 1100.17 370.66 957.91 470.56 959.75 570.25 1057.43 596.11
00000348 00000089 903.62 148.75 383.35 580.60 951.60 343.14 1094.60 370.72 952.88 469.04 955.42 571.86 1052.21 596.34
00000349 00000090 901.93 149.50 378.10 580.20 945.49 344.57 1090.07 370.74 947.73 468.86 949.40 574.96 1047.30 598.36
00000350 00000091 903.18 157.19 367.08 577.95 951.54 367.29 1071.97 378.17 941.94 477.19 947.38 581.78 1044.02 592.11
00000351 00000092 893.43 158.89 370.61 584.15 942.18 371.36 1069.10 384.75 937.15 483.84 939.34 587.24 1041.57 599.66
00000352 DELETE   889.88 161.32 367.13 569.72 935.71 362.21 1062.93 378.92 930.09 474.08 929.20 576.60 1028.41 592.44
00000353 00000094 889.21 151.83 365.66 575.13 924.25 349.28 1060.45 372.60 925.94 467.22 921.66 567.64 1021.36 586.66
00000354 00000095 887.86 155.32 369.08 566.53 930.37 340.72 1055.72 359.94 919.74 448.57 919.67 557.06 1020.70 574.82
00000355 00000096 885.76 160.57 368.94 566.91 931.18 333.78 1053.10 352.34 918.93 440.06 920.99 552.63 1023.16 569.67
00000356 00000097 883.34 159.17 371.06 571.45 930.13 334.26 1052.03 352.64 916.79 440.58 921.06 553.47 1025.58 570.11
00000357 00000098 880.52 167.16 374.01 567.70 930.49 340.79 1050.17 360.38 914.67 453.80 922.81 561.89 1025.79 578.36
00000358 00000099 874.26 163.72 369.35 573.72 925.09 354.08 1044.35 375.80 912.04 469.44 922.42 571.54 1019.22 589.55
00000359 00000100 871.27 167.53 367.42 572.64 920.91 357.67 1041.18 379.30 910.13 472.82 917.56 574.91 1014.92 592.85
00000360 00000101 867.48 167.62 366.49 567.81 916.56 357.79 1039.33 378.22 906.61 469.87 913.66 571.72 1013.23 588.57
00000361 00000102 861.30 161.53 373.10 565.14 912.63 354.06 1047.11 374.56 912.12 463.50 904.62 562.90 1014.65 580.90
00000362 00000103 859.96 161.92 373.88 559.19 910.87 352.82 1046.21 373.19 911.16 462.24 901.57 559.91 1012.33 577.92
00000363 00000104 858.91 165.98 372.16 553.34 910.97 355.16 1043.32 377.56 908.01 464.29 899.87 560.73 1005.48 580.39
00000364 00000105 854.46 167.09 370.42 544.27 906.73 355.94 1039.20 378.26 904.99 464.89 894.88 559.33 997.75 579.03
00000365 00000106 857.12 164.59 361.87 554.39 900.41 357.41 1030.58 373.10 900.16 464.94 888.54 564.95 989.94 578.91
00000366 DELETE   850.11 156.40 366.03 552.84 898.71 351.62 1029.59 373.07 900.44 461.72 888.73 563.53 984.46 582.16
00000367 00000108 848.19 158.42 367.95 561.70 899.80 350.88 1026.75 370.77 898.10 456.78 891.61 565.32 979.70 582.46
00000368 00000109 849.80 167.27 362.93 569.93 886.31 347.31 1026.40 370.60 890.94 462.31 882.63 572.14 983.07 591.04
00000369 00000110 840.78 157.57 376.84 584.74 887.91 345.10 1021.51 368.93 882.43 462.54 886.99 576.55 981.16 597.93
00000370 00000111 839.35 159.30 375.47 582.89 883.26 348.41 1019.23 371.89 879.41 465.89 883.86 577.72 980.54 598.57
00000371 00000112 836.55 160.23 376.65 577.64 879.64 350.39 1018.75 375.12 877.39 468.94 882.27 574.99 983.04 596.86
00000372 00000113 834.61 163.24 376.92 566.51 875.69 352.93 1018.13 376.60 877.88 471.22 880.23 573.09 983.98 594.57
00000373 00000114 834.22 166.13 375.07 555.72 869.76 358.31 1016.65 379.93 876.00 474.83 875.81 574.59 983.68 595.18
00000374 00000115 832.44 164.68 373.40 556.43 865.89 363.12 1014.78 380.95 875.69 477.67 874.04 578.70 983.32 596.34
00000375 00000116 833.64 171.63 371.26 548.75 863.59 364.52 1013.36 382.91 873.62 482.03 872.81 580.91 983.22 599.10
00000376 00000117 832.85 173.17 370.27 546.88 861.12 366.61 1012.14 382.79 873.20 482.40 871.31 582.72 982.87 599.04
00000377 00000118 832.86 172.69 369.55 547.08 861.07 367.20 1010.84 382.74 873.20 481.68 871.12 582.64 981.24 598.54
00000378 00000119 832.98 174.24 370.21 550.14 861.58 367.44 1009.20 383.09 870.53 482.23 872.38 584.43 981.41 600.11
00000379 00000120 831.96 175.02 371.72 557.47 863.68 366.90 1009.28 384.53 868.35 482.40 873.72 586.25 980.34 602.81
00000380 00000121 832.32 173.16 370.36 560.96 863.96 367.84 1008.71 385.76 866.87 482.67 872.74 587.82 977.51 604.59
00000381 00000122 831.58 177.26 369.21 559.48 863.84 367.22 1006.97 386.87 865.07 484.07 872.21 588.73 975.52 606.45
00000382 00000123 830.10 178.69 368.55 561.79 863.28 367.69 1005.97 388.26 863.88 486.19 870.76 591.79 973.90 609.98
00000383 00000124 826.48 180.83 370.46 560.82 877.19 376.31 997.25 383.53 871.41 482.53 877.77 590.67 975.60 597.92
00000384 00000125 825.07 179.11 371.76 565.93 876.79 378.62 998.61 385.23 871.98 484.25 877.12 593.96 975.91 600.74
00000385 00000126 824.86 181.08 369.70 562.08 876.25 381.87 997.49 388.04 871.90 485.60 877.47 596.09 974.50 602.47
00000386 00000127 824.93 181.96 369.90 559.64 876.11 381.80 999.73 388.17 873.97 486.47 877.18 594.49 976.01 601.27
00000387 00000128 826.12 178.12 368.57 562.33 875.97 380.92 1002.65 386.86 877.97 489.05 878.99 593.05 981.82 599.24
00000388 00000129 823.74 177.17 373.19 564.94 873.73 384.03 1002.80 389.62 878.90 495.31 877.81 594.63 984.83 600.13
00000389 00000130 820.46 181.45 369.35 555.15 868.17 380.46 1002.35 389.63 874.16 492.18 866.60 587.83 979.53 596.69
00000390 00000131 816.64 177.80 366.99 553.08 861.61 369.69 995.46 383.76 863.32 482.76 859.12 576.67 972.79 589.65
00000391 DELETE   807.90 174.65 368.09 542.02 854.32 367.92 988.67 382.64 858.91 474.81 849.97 567.36 957.59 580.88
00000392 00000133 804.94 168.69 365.28 538.46 849.61 362.15 982.46 376.16 853.29 468.25 844.03 561.38 951.67 574.71
00000393 00000134 801.13 166.94 365.53 540.76 847.44 359.06 979.56 374.76 848.70 465.96 842.10 558.75 951.31 573.33
00000394 00000135 798.48 162.42 368.21 552.62 845.32 358.92 979.75 373.99 848.67 467.13 841.24 561.26 953.08 575.10
00000395 00000136 800.95 168.42 367.28 543.52 848.05 362.22 982.14 375.80 852.82 467.68 844.30 562.19 954.20 574.93
00000396 00000137 804.19 171.27 364.88 539.36 850.28 363.71 985.08 377.13 856.04 466.73 844.88 562.97 953.72 575.61
00000397 00000138 804.72 171.23 364.35 537.99 848.80 359.68 982.92 374.11 852.56 462.43 840.55 560.99 947.85 574.67
00000398 00000139 808.54 175.76 361.30 537.89 852.51 349.19 978.91 365.74 849.88 454.54 846.34 555.78 950.15 570.78
00000399 00000140 805.94 173.69 365.89 530.11 850.06 348.52 980.97 366.68 850.22 454.24 841.67 549.29 951.48 565.25
00000400 00000141 807.16 175.31 365.75 526.16 852.22 350.15 984.07 369.31 854.36 454.94 841.74 547.23 953.79 564.02
00000401 00000142 812.63 176.01 364.18 532.56 857.63 356.02 986.79 372.89 858.11 458.74 849.07 558.18 956.05 573.92
00000402 00000143 816.08 174.67 359.70 541.48 862.38 356.38 989.60 372.93 863.82 459.77 855.52 562.54 960.49 578.52
00000403 00000144 817.60 174.23 361.39 550.13 866.31 356.22 991.67 371.80 865.35 460.61 859.52 566.96 961.86 582.18
00000404 00000145 818.26 177.46 364.55 547.54 866.92 360.50 995.95 375.25 868.06 466.23 860.62 567.98 969.63 582.63
00000405 00000146 816.76 179.13 367.36 549.62 866.28 362.52 996.63 377.51 865.55 470.90 860.47 569.45 973.55 583.50
00000406 00000147 813.70 178.02 369.21 553.56 864.92 362.63 997.08 379.24 864.34 473.02 858.34 569.20 973.58 584.19
00000407 00000148 812.94 177.26 366.19 549.87 863.75 360.75 993.89 378.43 862.05 469.73 857.46 568.05 967.06 584.15
00000408 00000149 812.16 177.30 365.90 536.76 859.57 361.85 992.21 378.20 860.17 466.21 852.12 566.32 962.06 581.57
00000409 00000150 806.75 170.59 371.89 543.14 854.92 367.59 994.89 382.05 859.64 471.97 846.98 568.83 959.73 582.34
00000410 00000151 807.52 168.61 370.61 551.80 854.89 367.84 994.75 381.66 859.03 472.87 849.14 575.11 956.52 588.17
00000411 00000152 808.79 176.14 369.69 557.02 858.63 359.99 990.00 375.94 857.21 469.11 851.41 575.60 955.48 590.89
00000412 00000153 808.79 175.20 368.83 558.15 859.61 357.88 989.12 375.52 856.02 469.12 852.13 573.79 955.34 590.19
00000413 00000154 809.64 175.82 367.39 552.60 858.65 356.34 988.05 373.03 855.69 466.65 852.56 571.86 955.61 587.29
00000414 00000155 805.43 169.68 371.55 550.96 852.08 365.82 992.08 381.71 858.53 475.03 846.02 571.92 953.21 586.63
00000415 00000156 800.15 167.22 376.58 554.76 848.43 373.78 987.60 389.08 855.57 482.71 843.63 574.72 953.91 588.90
00000416 00000157 797.99 173.50 376.75 562.35 844.71 376.95 980.94 394.73 844.38 484.84 839.18 581.48 945.52 597.59
00000417 00000158 796.48 171.46 372.55 565.50 843.21 374.27 974.40 394.70 837.54 481.90 837.71 578.96 940.77 596.82
00000418 00000159 798.37 167.40 372.47 567.78 844.92 371.14 974.53 390.44 837.53 478.60 841.38 575.63 944.83 592.44
00000419 00000160 797.44 162.07 375.28 571.04 844.20 371.48 975.50 387.36 841.72 478.71 844.15 575.25 948.50 589.31
00000420 00000161 795.88 160.14 374.88 569.64 842.82 371.43 975.78 386.15 841.36 478.22 842.59 574.68 948.65 587.84
00000421 00000162 794.83 161.28 376.28 565.86 841.65 367.46 975.84 382.43 841.23 477.06 842.06 572.61 948.08 586.05
00000422 00000163 794.48 160.54 378.26 569.61 841.65 363.65 977.80 380.06 843.11 475.57 843.43 572.34 949.09 586.89
00000423 00000164 795.51 161.14 378.08 570.24 844.06 361.14 980.26 379.57 845.68 476.16 844.57 571.23 951.12 587.53
CROP_BBOX: 540 0 1511 942
