Video ID: 	7GvNO3h-_4M
H: 	1080
W: 	1920
FPS: 	29.97002997002997

FRAME INDEX X0 Y0 W H [Landmarks (5 Points)]

00015308 00000000 835.02 113.75 476.30 663.31 966.60 388.64 1176.33 359.14 1096.07 497.94 1017.41 613.46 1193.27 586.81
00015309 00000001 839.84 108.46 466.58 673.16 967.33 385.82 1174.16 355.82 1093.45 498.55 1018.45 611.60 1199.23 586.95
00015310 00000002 842.44 110.26 466.18 676.84 971.94 385.03 1176.20 356.04 1098.00 499.85 1023.95 613.26 1201.90 589.56
00015311 00000003 842.79 112.75 466.71 681.54 974.05 384.59 1176.59 356.22 1100.22 498.44 1026.96 616.27 1203.44 593.13
00015312 00000004 843.93 114.85 464.47 680.46 973.45 384.03 1175.87 356.28 1098.80 497.21 1025.94 618.32 1200.41 595.83
00015313 00000005 843.84 109.27 462.66 682.72 970.77 383.17 1174.88 356.75 1095.15 497.91 1021.59 618.01 1196.39 596.60
00015314 00000006 844.91 107.69 461.38 678.31 971.96 383.47 1174.87 357.80 1094.88 496.45 1020.98 615.04 1194.51 594.31
00015315 00000007 844.96 108.69 463.00 678.06 975.77 382.64 1177.83 356.98 1100.40 494.72 1025.35 614.36 1198.12 593.72
00015316 00000008 850.05 112.43 465.92 675.28 985.90 380.06 1187.23 351.73 1113.55 492.16 1039.53 611.89 1210.84 589.49
00015317 00000009 858.08 104.88 463.16 676.85 1000.26 380.27 1201.03 352.74 1133.07 491.94 1049.26 604.85 1222.78 583.28
00015318 00000010 862.51 105.80 466.30 674.18 1008.60 378.99 1208.66 349.47 1144.64 491.45 1059.00 603.28 1232.60 580.00
00015319 00000011 865.19 107.44 461.59 668.90 1005.77 379.40 1205.50 353.26 1136.62 494.52 1051.59 601.86 1224.18 581.47
00015320 DELETE   857.44 112.84 461.44 671.72 992.22 379.06 1194.31 356.69 1117.12 495.82 1033.99 605.80 1209.52 588.45
00015321 DELETE   847.61 116.43 459.48 677.87 971.59 381.31 1175.57 358.38 1092.45 500.73 1011.34 611.88 1191.36 593.66
00015322 00000014 832.02 121.13 471.60 663.04 963.18 385.49 1169.61 364.82 1086.02 503.72 1005.57 613.58 1178.09 594.95
00015323 00000015 827.46 118.92 476.04 666.03 963.76 387.60 1170.81 359.15 1092.99 503.21 1014.51 617.33 1187.21 591.54
00015324 00000016 837.98 104.07 467.51 685.84 973.88 383.09 1174.16 353.87 1101.27 495.88 1029.42 615.02 1200.87 590.99
00015325 DELETE   852.79 111.11 463.36 681.27 993.26 376.95 1191.65 348.42 1124.23 490.08 1045.92 610.43 1218.42 588.03
00015326 DELETE   862.59 104.56 465.36 682.72 1011.88 370.50 1206.38 348.78 1144.21 489.96 1056.30 604.32 1229.14 583.48
00015327 00000019 877.58 111.69 460.18 663.14 1020.58 364.21 1218.90 342.56 1153.71 483.14 1067.83 601.44 1237.32 580.51
00015328 00000020 878.84 111.03 458.93 656.89 1014.76 357.88 1215.45 339.13 1144.03 475.43 1064.80 597.16 1227.76 578.73
00015329 DELETE   871.73 113.55 459.65 654.58 1005.36 360.90 1202.47 341.34 1129.63 477.32 1053.51 595.27 1216.85 576.51
00015330 00000022 867.59 116.29 462.88 654.10 996.13 370.89 1194.42 345.82 1117.06 486.02 1043.95 600.27 1212.31 580.84
00015331 DELETE   859.57 116.08 468.75 671.15 992.97 379.15 1193.04 360.25 1114.31 500.95 1041.61 612.32 1209.99 595.14
00015332 DELETE   857.20 122.13 469.44 680.56 983.30 391.01 1183.68 373.36 1101.33 523.00 1025.86 627.49 1198.16 612.03
00015333 DELETE   848.48 124.03 473.12 688.76 970.17 396.74 1175.67 382.41 1083.48 531.81 1007.82 635.78 1183.58 623.38
00015334 00000026 849.62 141.83 463.80 673.16 966.10 404.43 1172.26 393.50 1075.72 535.69 995.00 638.23 1173.05 628.94
00015335 DELETE   846.12 145.33 466.64 671.23 964.81 410.15 1171.79 395.57 1077.45 535.39 997.68 641.18 1178.49 628.65
00015336 00000028 845.09 142.08 471.51 675.58 968.02 410.03 1173.77 393.08 1082.88 535.24 1006.40 642.13 1185.26 627.61
00015337 DELETE   846.36 146.03 473.28 670.20 968.72 407.80 1175.97 392.37 1083.37 535.64 1005.57 641.49 1184.93 628.31
00015338 00000030 852.50 142.50 467.11 672.27 969.75 408.78 1177.51 396.79 1081.72 539.71 1001.92 642.92 1179.47 632.87
00015339 00000031 856.52 146.21 463.69 668.49 970.68 409.82 1178.38 399.10 1080.98 542.03 1000.71 644.55 1176.16 635.80
00015340 00000032 858.56 145.85 463.34 669.39 972.27 411.62 1180.57 399.75 1084.48 545.95 1005.69 648.11 1180.29 638.43
00015341 00000033 859.52 144.86 465.55 671.90 976.09 416.12 1183.40 400.88 1090.99 548.74 1015.16 653.83 1186.76 641.49
00015342 00000034 861.44 148.62 466.38 667.50 977.40 419.36 1184.47 405.76 1091.17 553.45 1016.81 657.80 1183.60 647.22
00015343 00000035 862.36 151.23 464.65 668.59 975.58 420.43 1183.52 407.88 1087.62 555.63 1013.53 660.93 1179.19 651.45
00015344 00000036 861.04 150.47 460.34 672.46 970.71 417.43 1176.92 407.46 1079.21 556.54 1003.34 658.97 1166.95 651.74
00015345 00000037 853.59 149.04 464.01 670.08 960.11 410.68 1167.66 402.49 1065.05 549.13 993.19 654.03 1157.71 647.76
00015346 00000038 847.66 153.69 463.61 663.42 950.57 410.28 1154.48 397.13 1052.67 541.58 986.05 651.35 1149.85 640.33
00015347 00000039 842.27 153.57 468.28 661.16 947.91 409.64 1151.81 392.40 1052.05 538.64 988.33 651.46 1151.30 636.99
00015348 00000040 842.93 150.20 468.09 668.42 952.75 408.65 1157.18 392.48 1060.02 537.97 992.45 650.67 1158.30 637.03
00015349 00000041 842.34 152.48 468.47 670.55 955.43 411.07 1161.56 397.59 1065.00 545.51 993.01 652.65 1164.52 641.29
00015350 00000042 842.57 154.83 464.75 675.73 952.12 418.18 1155.29 405.66 1057.39 554.99 985.97 657.51 1159.83 647.17
00015351 00000043 839.91 161.97 463.54 671.54 941.74 425.33 1143.08 411.60 1041.78 563.35 977.34 660.55 1152.64 649.12
00015352 00000044 838.63 165.63 461.75 665.17 937.63 430.16 1140.05 416.71 1036.76 566.68 970.67 662.07 1147.81 651.06
00015353 00000045 834.29 168.53 466.00 662.53 939.83 430.55 1144.74 415.25 1043.97 566.85 974.79 663.70 1154.03 651.04
00015354 00000046 834.26 168.54 467.36 664.82 945.01 430.77 1149.85 414.83 1051.14 565.86 980.07 664.33 1159.41 651.19
00015355 00000047 836.67 169.78 464.65 664.49 945.07 432.49 1150.98 417.76 1051.47 567.81 980.80 667.27 1159.78 655.31
00015356 00000048 838.93 171.26 461.98 659.26 945.11 433.95 1152.41 421.34 1050.34 569.66 978.45 668.05 1154.70 658.33
00015357 00000049 840.74 169.28 461.48 661.23 949.37 433.40 1156.83 419.84 1055.91 567.78 980.59 665.12 1161.82 654.24
00015358 00000050 842.54 167.10 462.20 666.16 957.08 430.08 1163.14 415.52 1066.12 564.68 986.70 662.60 1166.58 651.08
00015359 00000051 844.92 167.31 462.42 667.80 960.01 428.00 1165.99 413.00 1070.70 562.31 992.60 661.68 1170.23 649.85
00015360 00000052 847.33 165.85 463.34 673.44 962.66 428.89 1169.43 411.92 1076.51 562.70 997.33 661.99 1180.55 648.43
00015361 00000053 850.22 165.32 467.89 677.22 968.02 428.62 1173.11 410.19 1084.13 561.25 1006.10 663.27 1188.81 648.42
00015362 00000054 851.17 165.97 470.17 676.32 969.33 427.40 1174.41 407.30 1087.10 559.35 1010.51 662.11 1194.78 645.75
00015363 00000055 850.47 160.23 472.11 681.48 970.15 423.42 1174.24 403.48 1088.79 555.20 1012.63 658.93 1197.37 642.45
00015364 00000056 847.22 158.02 474.99 678.47 970.04 417.46 1174.24 397.09 1089.86 546.94 1013.43 652.37 1199.31 635.34
00015365 00000057 845.64 154.71 474.54 672.01 969.06 412.29 1173.55 392.65 1086.61 540.02 1011.78 646.21 1194.67 629.77
00015366 00000058 850.24 147.72 471.12 663.29 969.68 406.03 1176.50 385.56 1087.44 535.23 1013.44 641.97 1191.86 624.79
00015367 00000059 854.54 143.94 465.63 652.32 971.83 402.99 1181.23 382.35 1090.39 532.90 1016.81 637.11 1194.28 619.57
00015368 00000060 855.89 139.74 466.36 655.90 974.49 400.24 1183.10 380.53 1092.48 531.58 1019.30 635.09 1195.09 618.45
00015369 00000061 856.40 135.69 467.13 666.24 975.10 397.50 1182.66 379.74 1091.52 529.80 1015.58 634.39 1193.67 619.01
00015370 00000062 853.22 130.95 468.40 678.06 976.75 393.23 1178.81 378.90 1089.30 526.26 1013.67 632.33 1185.75 620.10
00015371 00000063 853.50 128.80 468.18 677.86 972.83 391.88 1176.54 378.72 1083.11 526.45 1006.54 630.78 1180.65 619.61
00015372 00000064 853.77 125.64 463.15 677.39 967.71 387.84 1171.87 377.76 1074.26 527.12 997.16 626.34 1172.47 617.63
00015373 00000065 854.64 128.28 455.67 673.71 958.98 383.24 1158.54 374.90 1059.44 522.60 985.28 622.84 1155.93 615.88
00015374 00000066 849.88 138.31 462.88 652.78 950.30 384.78 1147.86 375.22 1041.38 518.71 980.05 620.15 1142.33 612.97
00015375 00000067 847.56 128.45 456.51 661.31 945.04 386.65 1145.75 376.32 1039.81 515.07 974.88 624.12 1142.48 614.98
00015376 00000068 845.82 127.77 455.22 656.50 941.00 386.52 1141.55 375.78 1033.54 515.10 971.68 624.54 1135.52 615.10
00015377 00000069 843.49 131.59 451.66 657.32 937.37 389.04 1132.90 377.26 1026.98 516.06 965.31 623.48 1130.44 613.25
00015378 00000070 840.95 133.80 448.15 663.64 930.36 388.17 1121.41 377.20 1012.45 515.00 958.02 627.06 1122.65 617.12
00015379 00000071 836.88 134.37 446.97 666.35 924.01 387.28 1110.47 376.50 1001.67 515.34 951.85 623.70 1118.72 613.25
00015380 00000072 830.42 130.88 444.25 657.14 912.35 384.12 1103.08 371.22 994.15 510.87 943.25 619.85 1110.12 607.83
00015381 00000073 824.33 133.15 446.91 646.51 905.12 380.60 1097.67 366.98 988.49 502.98 935.14 612.63 1100.19 600.09
00015382 00000074 818.35 132.02 446.99 645.13 899.08 376.99 1093.04 363.15 983.29 498.41 927.17 611.46 1091.55 599.11
00015383 00000075 813.72 140.86 449.31 643.65 893.35 376.78 1085.25 363.09 972.52 501.27 931.41 614.32 1087.54 603.01
00015384 00000076 814.27 134.51 452.07 658.40 891.33 380.16 1083.68 364.51 967.90 506.59 929.03 618.80 1095.45 605.30
00015385 00000077 813.39 132.02 451.77 663.45 890.17 381.54 1082.16 366.97 965.28 510.69 926.42 619.85 1094.72 607.25
00015386 00000078 815.06 134.27 449.03 663.60 888.68 382.65 1079.69 370.13 962.14 515.06 920.63 621.02 1088.58 610.75
00015387 00000079 819.69 141.05 448.07 662.30 887.26 384.12 1076.50 375.91 954.68 521.48 914.60 621.37 1083.58 614.92
00015388 00000080 820.46 142.61 446.43 665.06 881.65 389.01 1070.61 386.78 945.78 531.56 902.97 626.50 1073.41 625.80
00015389 00000081 825.25 163.08 443.12 656.41 879.38 395.71 1068.63 396.55 940.31 542.40 898.54 636.94 1068.84 639.24
00015390 00000082 827.95 179.95 440.51 661.40 885.29 409.87 1071.51 410.00 943.15 560.75 908.44 652.41 1081.29 653.32
00015391 00000083 829.59 195.58 438.27 671.30 896.23 419.59 1081.97 423.56 955.63 570.83 921.33 667.93 1096.32 669.90
00015392 00000084 828.11 200.99 445.90 675.60 897.87 425.15 1087.41 424.91 961.66 574.70 924.28 674.68 1101.73 673.13
00015393 00000085 829.92 199.29 441.87 663.62 896.76 425.52 1085.59 427.24 957.30 573.78 923.06 671.16 1096.78 671.51
00015394 00000086 829.47 193.67 439.20 650.43 893.55 425.19 1081.73 430.01 954.70 572.80 918.89 667.54 1078.31 671.99
00015395 00000087 830.69 193.24 436.97 638.99 894.75 425.62 1079.81 432.25 956.08 572.30 915.65 668.17 1058.70 675.68
00015396 00000088 835.39 200.59 437.17 640.58 897.14 431.20 1085.83 434.11 962.28 580.32 925.22 678.14 1068.34 682.59
00015397 00000089 836.48 187.87 445.21 665.61 906.51 437.50 1097.26 437.47 975.26 590.72 940.60 687.54 1085.18 688.83
00015398 00000090 839.33 180.69 452.83 678.36 914.82 446.60 1107.85 447.51 989.53 602.89 950.13 696.82 1098.51 698.46
00015399 00000091 842.98 185.53 455.54 677.56 917.22 451.38 1108.47 452.71 992.96 608.06 951.44 702.57 1097.43 704.57
00015400 00000092 847.71 195.41 451.76 670.42 917.02 455.64 1106.26 456.45 991.94 611.79 950.51 707.38 1096.68 708.84
00015401 00000093 849.61 199.71 451.65 669.45 918.65 457.36 1108.36 458.65 992.54 614.42 952.47 710.04 1100.27 711.47
00015402 00000094 848.66 209.10 458.72 661.16 923.37 464.62 1114.83 466.80 992.63 620.19 950.71 708.19 1102.55 711.32
00015403 00000095 849.99 224.34 457.53 643.36 926.29 471.45 1116.40 474.65 996.05 621.25 952.64 705.89 1105.24 709.58
00015404 00000096 850.73 222.18 455.84 644.57 928.87 471.98 1115.01 475.65 997.05 619.07 953.11 703.88 1104.28 707.89
00015405 00000097 847.65 210.98 458.47 653.36 926.31 465.96 1115.79 468.73 996.37 613.41 949.54 702.12 1103.75 705.44
00015406 00000098 848.14 190.92 453.08 673.93 923.36 452.73 1115.02 456.35 996.86 606.32 950.31 698.40 1107.03 701.60
00015407 00000099 846.59 184.83 452.86 676.93 924.28 444.01 1115.21 450.07 994.22 598.42 949.45 689.65 1105.85 694.85
00015408 00000100 845.73 177.77 452.20 683.54 924.93 438.39 1116.85 447.31 993.26 596.09 947.93 682.90 1110.89 689.99
00015409 00000101 846.38 177.09 451.43 680.00 926.96 435.21 1119.48 446.37 993.70 592.76 947.71 677.00 1111.99 685.75
00015410 00000102 846.87 177.03 451.78 677.15 928.32 433.11 1122.68 443.45 997.20 588.64 947.71 674.57 1113.31 682.80
00015411 00000103 849.36 183.60 457.45 664.23 930.97 432.96 1124.50 438.59 999.06 583.43 946.98 667.29 1118.96 672.27
00015412 00000104 850.34 182.61 455.38 660.41 933.05 425.45 1126.59 432.57 999.78 574.88 945.34 659.34 1118.69 665.42
00015413 00000105 858.84 168.59 445.07 666.97 933.18 418.77 1124.58 425.15 999.28 562.86 947.93 652.48 1119.27 657.49
00015414 00000106 857.66 166.51 447.82 666.59 934.27 415.38 1126.70 420.79 1002.17 558.67 949.19 648.85 1121.19 652.97
00015415 DELETE   858.92 155.50 447.65 674.31 935.11 416.45 1131.07 420.96 1005.78 555.44 951.42 646.71 1127.16 649.80
00015416 00000108 861.03 145.69 447.70 682.94 940.08 414.31 1135.49 420.25 1011.58 549.66 955.07 641.46 1132.78 645.25
00015417 DELETE   862.39 145.43 452.45 679.24 940.97 408.25 1135.72 413.52 1009.85 546.29 950.17 634.50 1133.18 639.80
00015418 00000110 864.40 145.20 453.18 678.92 942.23 402.50 1137.95 404.71 1011.50 540.47 952.07 632.88 1136.01 635.70
00015419 00000111 866.42 137.06 452.18 688.35 946.73 395.97 1141.09 398.82 1014.67 535.94 954.96 629.49 1138.00 632.75
00015420 00000112 866.39 134.47 453.13 690.14 949.06 392.26 1143.40 395.48 1016.51 531.69 957.46 627.28 1138.65 630.72
00015421 00000113 866.96 136.96 453.73 685.40 949.02 389.55 1144.03 393.04 1016.74 529.92 958.57 625.36 1139.70 628.95
00015422 00000114 868.32 137.16 453.78 682.98 951.67 387.53 1146.47 392.00 1019.91 529.01 960.32 622.85 1141.27 627.26
00015423 00000115 873.64 135.02 452.60 683.30 955.30 385.36 1149.01 389.55 1023.59 527.20 964.21 621.51 1145.20 625.66
00015424 00000116 876.05 133.12 455.68 682.97 958.63 382.08 1152.38 387.14 1027.88 525.68 968.91 619.06 1149.70 623.94
00015425 00000117 878.81 132.59 457.39 682.01 965.50 381.48 1158.19 384.09 1034.86 521.43 977.71 617.94 1156.47 620.58
00015426 00000118 879.62 132.24 462.06 686.84 972.80 383.66 1167.44 384.16 1046.47 521.64 986.85 619.07 1169.16 619.29
00015427 00000119 877.10 136.61 468.01 676.17 980.98 385.23 1179.98 384.33 1065.16 521.91 997.93 619.54 1177.87 618.49
00015428 DELETE   878.94 135.77 466.84 671.48 989.40 385.42 1191.10 380.30 1081.07 517.75 1008.33 620.97 1186.66 616.37
00015429 00000121 882.30 140.62 460.24 659.15 998.72 385.63 1202.56 381.99 1102.84 515.39 1019.78 620.85 1193.46 617.52
00015430 00000122 883.43 141.74 461.07 661.94 1006.28 385.19 1208.83 379.59 1114.99 515.48 1030.52 623.28 1201.84 618.12
00015431 00000123 884.41 143.22 461.78 660.66 1014.21 384.80 1215.50 379.34 1126.53 516.38 1038.93 624.43 1205.94 619.43
00015432 00000124 886.51 146.12 460.65 658.19 1018.91 386.13 1218.83 378.49 1133.29 514.96 1045.04 625.28 1212.88 618.04
00015433 00000125 887.97 140.39 462.52 663.57 1023.48 384.13 1223.03 376.06 1139.77 515.12 1051.55 625.06 1216.57 617.15
00015434 00000126 889.68 140.50 463.61 662.45 1026.75 382.78 1227.51 375.98 1144.58 511.16 1054.99 622.24 1220.62 615.38
00015435 00000127 889.64 138.82 463.89 661.74 1029.28 382.30 1231.06 374.48 1151.22 506.01 1059.89 621.54 1225.75 613.78
00015436 00000128 889.95 136.60 463.19 660.52 1033.27 382.48 1235.73 375.68 1157.36 502.85 1063.48 619.05 1229.91 612.16
00015437 00000129 894.21 132.64 464.04 668.80 1043.39 381.38 1243.04 374.93 1166.54 500.72 1070.17 617.19 1238.08 610.72
00015438 00000130 897.57 129.72 464.59 677.72 1054.74 383.05 1250.44 376.08 1179.71 501.83 1079.55 618.22 1249.34 610.93
00015439 00000131 903.46 132.99 463.60 674.05 1064.66 383.46 1259.58 373.82 1193.19 496.75 1090.96 619.16 1261.30 609.45
00015440 00000132 918.18 117.10 450.37 676.42 1069.20 380.56 1267.82 371.38 1196.72 492.53 1099.61 610.73 1267.64 604.19
00015441 00000133 921.30 116.36 448.24 671.73 1072.29 379.46 1272.82 368.88 1201.64 490.84 1103.07 608.93 1271.46 601.74
00015442 00000134 922.13 116.90 447.84 671.21 1073.91 377.53 1274.93 366.90 1204.73 490.50 1103.98 607.72 1273.77 600.55
00015443 00000135 921.86 116.85 446.84 667.14 1072.70 376.43 1275.46 366.95 1203.83 491.83 1101.18 605.95 1272.42 599.74
00015444 00000136 917.84 124.95 447.02 654.71 1073.06 376.38 1271.95 365.62 1206.05 490.34 1101.12 610.49 1269.06 599.90
00015445 00000137 914.89 121.22 449.93 660.85 1071.08 375.21 1269.66 366.03 1202.92 489.73 1096.29 608.83 1265.14 599.61
00015446 00000138 912.60 122.83 451.42 665.95 1068.81 372.25 1267.02 365.67 1197.89 489.21 1086.55 604.85 1261.80 597.94
00015447 00000139 909.62 116.29 452.96 671.64 1068.99 368.56 1264.20 363.66 1194.93 485.28 1083.90 600.89 1257.13 595.32
00015448 00000140 908.28 118.54 453.55 665.09 1066.90 368.93 1261.39 362.76 1193.54 484.78 1083.68 598.72 1256.57 591.97
00015449 00000141 908.00 116.32 454.71 661.85 1065.02 368.89 1259.99 361.77 1191.96 484.77 1082.82 596.18 1256.00 588.62
00015450 00000142 906.63 117.01 456.16 662.19 1063.78 369.30 1259.04 362.73 1190.11 485.66 1079.93 594.76 1255.10 587.75
00015451 00000143 906.32 116.34 457.56 669.08 1063.14 367.82 1259.19 363.73 1187.18 485.46 1074.40 593.91 1254.27 589.07
00015452 00000144 904.66 116.25 456.65 675.24 1062.02 365.93 1257.21 363.84 1183.19 485.70 1070.35 594.60 1252.31 591.47
00015453 00000145 902.14 121.21 455.61 668.87 1056.37 365.60 1251.97 363.16 1176.62 486.37 1066.99 595.86 1247.45 592.63
00015454 00000146 900.72 121.44 454.43 666.80 1048.62 366.59 1246.32 363.99 1168.63 487.03 1062.56 597.07 1241.09 593.68
00015455 00000147 896.04 118.77 455.19 667.21 1040.77 366.60 1240.59 365.73 1160.65 485.93 1056.95 595.80 1235.15 593.55
00015456 00000148 894.35 122.66 453.39 659.21 1035.90 365.35 1234.73 364.43 1154.05 485.18 1051.74 593.57 1229.62 591.30
00015457 00000149 892.05 127.91 450.24 650.17 1029.63 362.26 1227.08 359.66 1147.03 483.91 1048.58 593.24 1223.45 589.45
00015458 00000150 886.24 130.49 449.93 646.02 1019.60 359.15 1219.68 353.80 1139.64 481.28 1043.73 593.04 1216.76 586.78
00015459 00000151 882.48 132.14 449.26 643.95 1014.21 357.19 1210.89 350.72 1130.83 477.05 1038.66 591.78 1210.07 584.83
00015460 00000152 874.46 128.73 450.61 642.73 1004.29 357.74 1201.23 350.85 1118.75 474.71 1031.21 588.68 1200.81 581.52
00015461 00000153 870.03 129.66 450.57 638.18 997.77 357.29 1195.01 349.68 1110.43 471.08 1027.09 588.60 1193.33 580.89
00015462 00000154 864.75 123.45 454.09 643.88 994.17 357.05 1192.83 350.02 1106.53 473.25 1023.68 588.53 1190.98 581.08
00015463 00000155 861.19 117.52 455.02 646.85 985.42 361.01 1185.56 346.12 1098.95 473.50 1017.22 588.92 1191.23 577.79
00015464 00000156 860.73 118.76 451.14 645.80 981.29 360.88 1181.55 348.06 1092.13 472.55 1009.15 588.93 1183.97 579.54
00015465 00000157 858.07 115.86 447.41 648.51 975.75 361.10 1177.84 348.66 1086.48 475.26 1003.19 589.13 1176.64 580.31
00015466 00000158 855.89 124.24 451.66 641.81 975.15 366.91 1178.56 357.45 1082.94 479.09 1000.43 592.51 1173.49 582.82
00015467 00000159 849.57 126.03 455.04 644.69 970.78 369.14 1175.06 359.09 1080.46 479.94 998.25 595.65 1171.89 585.72
00015468 00000160 846.83 127.80 456.31 649.94 969.07 372.04 1172.76 362.16 1078.05 483.20 995.29 598.21 1171.81 588.65
00015469 00000161 844.78 131.93 456.73 649.91 967.69 373.34 1170.66 363.86 1076.42 486.34 993.64 600.25 1170.65 591.18
00015470 00000162 843.68 129.08 457.66 657.34 967.72 374.98 1170.60 364.49 1077.96 487.55 994.16 603.22 1172.13 593.45
00015471 00000163 845.00 131.00 456.73 658.18 968.91 377.04 1171.85 365.98 1079.20 488.54 996.14 605.80 1173.36 595.58
00015472 00000164 844.93 127.10 457.74 662.56 969.85 379.17 1172.33 367.95 1080.11 490.10 997.73 607.74 1173.56 597.57
00015473 00000165 846.39 126.54 457.55 666.66 972.36 379.31 1174.31 368.75 1082.69 490.22 999.60 608.45 1176.04 598.60
