Video ID: 	Pjox5wPc2r0
H: 	1080
W: 	1920
FPS: 	23.976023976023978

FRAME INDEX X0 Y0 W H [Landmarks (5 Points)]

00024889 00000000 1074.42 200.56 353.44 531.47 1160.49 417.00 1207.25 442.34 1084.76 505.36 1135.67 594.85 1169.55 615.42
00024890 00000001 1079.21 198.52 351.67 541.87 1164.46 423.17 1206.26 446.37 1088.14 512.13 1147.69 601.71 1176.78 620.24
00024891 00000002 1079.74 205.37 353.73 543.53 1164.18 427.37 1204.29 448.58 1087.64 514.75 1153.46 606.08 1184.20 621.78
00024892 00000003 1085.77 200.04 348.89 553.47 1155.92 428.69 1191.16 451.58 1082.57 520.17 1157.29 611.17 1185.34 626.28
00024893 00000004 1078.04 218.11 349.41 554.34 1152.02 436.25 1196.55 451.05 1085.79 530.63 1167.76 627.47 1207.58 637.80
00024894 00000005 1071.65 217.56 352.29 557.47 1144.70 437.80 1189.59 452.04 1080.86 531.96 1165.35 630.14 1204.42 639.76
00024895 00000006 1068.49 224.71 347.83 547.31 1142.30 439.06 1190.20 455.87 1080.99 530.73 1157.33 628.51 1197.06 641.07
00024896 00000007 1067.13 224.65 349.38 542.84 1143.17 439.52 1192.56 456.52 1079.96 527.73 1148.67 626.99 1186.98 640.52
00024897 00000008 1069.01 220.87 345.06 537.52 1144.72 433.49 1193.70 452.55 1079.11 522.29 1144.35 621.25 1176.86 637.55
00024898 00000009 1071.06 211.25 349.22 530.26 1149.57 423.54 1195.86 446.75 1079.13 515.14 1142.88 598.77 1181.32 615.85
00024899 00000010 1071.33 203.37 354.08 529.38 1155.87 417.88 1199.28 438.11 1080.93 503.78 1140.27 592.68 1176.17 608.29
00024900 00000011 1066.72 194.49 347.30 534.61 1156.46 405.25 1197.99 431.74 1071.40 492.70 1129.45 588.46 1166.04 606.89
00024901 00000012 1059.86 186.05 362.09 540.97 1157.50 402.52 1203.62 428.49 1071.38 487.53 1125.80 583.82 1169.53 602.13
00024902 00000013 1062.80 175.76 363.45 551.06 1159.54 398.24 1207.99 423.58 1073.63 483.21 1128.51 583.71 1171.92 601.50
00024903 00000014 1069.29 179.80 369.14 549.24 1162.98 397.55 1212.19 419.68 1080.26 483.07 1133.86 584.85 1174.14 602.09
00024904 00000015 1072.77 179.73 370.54 550.03 1165.18 398.95 1212.84 419.30 1083.17 482.57 1140.83 588.45 1175.76 603.93
00024905 00000016 1082.08 181.84 358.12 547.21 1167.51 403.03 1216.62 424.10 1089.70 492.02 1151.91 593.43 1189.44 609.42
00024906 00000017 1091.27 186.25 348.07 537.48 1166.75 412.39 1220.52 436.02 1093.89 504.74 1159.52 597.02 1196.74 615.32
00024907 00000018 1097.97 183.90 348.77 543.69 1168.90 409.53 1226.54 436.57 1098.58 509.70 1163.98 598.38 1204.72 618.83
00024908 DELETE   1105.61 188.09 348.57 538.06 1177.42 409.17 1235.15 438.30 1106.29 509.09 1168.74 596.46 1208.15 618.51
00024909 00000020 1110.19 191.70 348.66 530.64 1179.67 403.04 1240.64 433.17 1110.26 502.99 1167.85 591.47 1211.70 614.29
00024910 00000021 1112.59 190.85 357.02 529.11 1187.24 397.87 1246.52 429.77 1113.84 496.55 1170.81 584.20 1217.25 608.07
00024911 00000022 1113.25 189.22 363.10 531.82 1188.06 395.88 1249.86 429.96 1112.66 494.40 1169.90 581.60 1219.16 607.02
00024912 00000023 1114.81 193.97 362.64 528.53 1191.80 397.57 1251.09 430.00 1115.20 494.45 1173.61 582.92 1221.18 606.86
00024913 00000024 1116.46 192.81 362.07 531.99 1192.92 399.01 1251.27 430.83 1115.94 496.26 1176.63 584.92 1223.54 608.12
00024914 00000025 1118.10 195.86 357.23 528.51 1194.33 398.53 1251.83 431.32 1117.22 496.71 1177.35 584.28 1224.47 608.12
00024915 00000026 1118.89 195.68 358.78 530.61 1195.17 400.05 1252.81 431.74 1118.02 497.84 1178.20 586.27 1224.89 609.27
00024916 00000027 1119.51 196.35 359.24 532.06 1195.89 400.90 1254.79 433.82 1119.92 499.83 1179.26 587.06 1226.09 611.05
00024917 00000028 1120.77 197.23 359.04 533.91 1196.78 402.39 1256.38 436.20 1121.41 502.32 1181.66 589.14 1229.71 613.62
00024918 00000029 1123.57 202.24 353.20 527.86 1197.97 403.04 1255.52 438.29 1123.92 505.33 1183.64 588.93 1230.00 614.44
00024919 00000030 1123.77 204.11 350.49 526.41 1198.44 403.54 1256.28 439.40 1125.65 506.54 1183.15 589.61 1229.13 615.63
00024920 00000031 1123.21 202.41 352.21 529.20 1198.07 404.41 1256.73 439.77 1125.46 507.65 1183.40 590.50 1229.97 616.17
00024921 00000032 1122.19 202.02 353.50 531.97 1198.39 407.42 1256.78 442.65 1126.06 508.55 1183.91 592.29 1229.88 617.80
00024922 00000033 1121.28 206.66 352.58 527.70 1197.92 408.36 1255.48 445.39 1125.88 510.93 1183.03 592.96 1226.95 619.84
00024923 00000034 1122.01 194.37 362.13 537.52 1201.63 407.28 1254.09 430.96 1132.97 510.16 1183.77 601.86 1224.81 619.86
00024924 00000035 1121.85 196.79 357.76 534.77 1203.69 408.67 1252.02 432.80 1135.06 510.96 1183.95 602.29 1221.44 620.85
00024925 00000036 1122.88 193.18 358.89 537.90 1203.42 409.06 1253.40 433.55 1134.72 510.39 1182.51 602.08 1221.67 620.75
00024926 00000037 1123.70 193.91 358.60 538.49 1204.21 407.47 1254.92 432.54 1135.59 510.01 1183.15 600.45 1224.28 619.56
00024927 00000038 1124.29 189.25 360.73 541.35 1203.33 407.85 1256.03 434.83 1134.63 510.54 1182.36 598.87 1225.63 619.50
00024928 00000039 1125.60 188.12 360.23 543.43 1204.93 406.96 1257.68 433.74 1135.82 509.68 1182.42 599.07 1225.73 619.53
00024929 00000040 1121.34 197.31 352.74 538.38 1202.44 410.59 1259.07 449.96 1129.76 507.83 1180.09 589.89 1225.45 618.87
00024930 00000041 1125.65 195.27 362.06 540.57 1204.88 409.57 1260.94 443.13 1134.53 506.94 1185.72 590.35 1232.40 615.07
00024931 00000042 1124.86 196.06 362.48 540.48 1205.50 409.75 1259.65 443.43 1133.98 507.04 1184.66 590.10 1230.33 614.88
00024932 00000043 1119.15 196.85 354.46 542.23 1201.80 411.26 1257.58 450.13 1127.95 506.62 1176.65 591.21 1220.88 619.80
00024933 00000044 1118.27 196.88 353.59 542.66 1200.61 410.89 1257.24 449.32 1125.25 505.49 1173.91 592.02 1218.67 620.27
00024934 00000045 1117.69 194.87 353.78 545.55 1201.47 408.30 1255.73 447.17 1123.96 504.46 1174.32 592.02 1216.07 620.77
00024935 00000046 1116.33 195.77 355.29 543.94 1201.10 405.97 1255.41 444.78 1123.48 503.75 1176.54 591.10 1217.27 619.64
00024936 00000047 1115.33 193.05 355.88 545.42 1200.15 405.99 1254.54 443.77 1120.58 501.01 1174.73 589.76 1216.44 617.44
00024937 00000048 1113.91 191.95 355.35 545.61 1198.56 405.72 1255.30 441.93 1120.14 499.52 1172.32 589.75 1215.50 616.44
00024938 00000049 1113.04 192.88 357.77 544.90 1197.72 404.10 1255.59 439.89 1119.24 498.66 1170.89 590.03 1215.16 616.37
00024939 00000050 1111.74 193.29 358.69 543.42 1196.42 402.69 1253.58 439.83 1117.34 498.69 1168.40 590.96 1209.90 618.28
00024940 00000051 1108.82 190.31 362.53 546.58 1194.77 404.28 1252.10 441.28 1113.57 498.71 1164.05 591.97 1205.83 619.50
00024941 00000052 1106.22 186.59 366.17 548.64 1193.47 406.36 1250.49 441.05 1112.87 496.76 1161.03 592.85 1201.68 618.84
00024942 00000053 1105.08 188.43 365.45 542.00 1190.57 404.83 1249.05 439.99 1111.03 494.42 1158.28 590.67 1199.99 617.14
00024943 00000054 1103.41 187.10 366.11 541.51 1189.34 404.87 1247.14 438.47 1109.65 492.14 1157.37 588.87 1198.82 614.18
00024944 00000055 1101.73 180.17 367.12 547.91 1189.37 402.93 1245.79 437.71 1108.75 490.65 1157.83 586.36 1198.72 612.81
00024945 00000056 1103.98 180.16 361.15 546.87 1192.93 396.34 1244.88 431.52 1107.75 484.68 1159.78 583.15 1201.06 609.69
00024946 00000057 1105.04 176.02 362.41 547.80 1197.78 390.81 1245.91 426.63 1106.83 479.17 1163.21 576.44 1205.23 603.27
00024947 00000058 1110.56 165.77 362.67 563.03 1199.26 378.17 1235.77 407.47 1117.72 472.48 1179.06 576.54 1216.28 599.37
00024948 00000059 1110.58 153.14 367.18 584.24 1198.43 369.86 1236.58 394.62 1114.66 469.56 1186.05 578.46 1227.79 597.38
00024949 00000060 1112.14 146.92 366.65 589.32 1202.06 360.78 1234.47 384.64 1115.93 467.12 1194.24 573.36 1235.86 591.32
00024950 00000061 1112.80 148.18 364.22 579.24 1197.39 358.45 1233.37 383.44 1117.53 461.55 1192.34 566.36 1236.11 585.76
00024951 00000062 1112.11 144.54 363.73 579.56 1197.25 355.27 1233.13 382.76 1117.70 458.57 1192.43 563.51 1235.71 585.04
00024952 00000063 1110.71 144.00 365.12 578.65 1196.69 351.83 1232.98 380.18 1115.42 455.54 1190.80 562.09 1234.43 584.52
00024953 00000064 1108.30 144.40 382.65 588.46 1197.69 362.36 1243.55 375.87 1117.65 463.29 1185.26 571.76 1230.49 579.03
00024954 00000065 1110.45 141.00 369.45 584.67 1196.27 347.50 1229.87 374.73 1110.81 455.86 1192.65 562.23 1237.53 583.16
00024955 00000066 1108.77 151.37 367.07 567.53 1187.02 358.70 1245.72 386.85 1119.55 451.96 1182.37 554.70 1235.24 574.40
00024956 00000067 1105.64 149.55 367.78 557.17 1181.66 359.98 1250.29 392.38 1119.33 450.04 1164.24 550.49 1222.70 574.56
00024957 00000068 1105.99 152.24 369.35 555.28 1184.24 360.63 1249.34 396.32 1120.78 453.28 1161.74 552.45 1215.78 579.16
00024958 00000069 1108.85 153.55 363.77 554.04 1186.43 365.29 1248.30 400.01 1122.40 458.26 1162.66 557.87 1211.50 584.02
00024959 00000070 1113.77 148.18 363.16 569.33 1193.23 365.08 1237.11 396.86 1118.77 466.95 1176.17 568.29 1215.01 593.57
00024960 00000071 1116.76 146.68 362.94 576.79 1198.69 366.22 1243.12 394.66 1123.06 470.28 1183.70 569.66 1229.40 591.68
00024961 00000072 1117.66 148.21 387.74 578.72 1198.42 378.01 1264.72 400.53 1132.60 470.98 1191.86 571.83 1244.85 588.06
00024962 00000073 1124.40 146.55 382.74 576.85 1208.74 376.42 1271.47 400.64 1138.19 467.07 1195.75 567.77 1243.75 585.83
00024963 00000074 1131.98 142.37 379.95 567.94 1215.71 363.36 1278.03 398.30 1148.31 451.16 1190.15 553.00 1243.17 579.61
00024964 00000075 1133.01 144.70 386.78 561.88 1220.45 359.91 1286.05 397.43 1152.16 447.17 1184.72 550.58 1238.36 580.01
00024965 00000076 1134.05 139.75 396.80 562.22 1219.33 358.13 1291.02 397.49 1153.34 442.53 1180.41 546.62 1237.48 578.27
00024966 DELETE   1135.61 142.97 399.06 558.66 1223.96 356.45 1294.81 393.59 1155.12 440.20 1180.97 547.52 1237.69 577.10
00024967 DELETE   1136.05 142.09 399.28 557.04 1225.38 357.54 1293.32 396.38 1155.64 440.38 1181.21 545.40 1237.32 576.42
00024968 DELETE   1136.63 142.61 394.09 552.86 1225.83 357.27 1291.28 396.81 1155.55 441.03 1181.32 542.44 1235.92 574.23
00024969 00000080 1132.94 142.58 389.43 552.82 1220.92 359.39 1287.97 399.78 1154.52 443.25 1178.67 541.14 1236.31 573.90
00024970 DELETE   1132.61 141.06 384.45 557.17 1220.06 362.64 1281.94 399.27 1151.60 445.75 1181.79 544.17 1235.15 573.52
00024971 00000082 1132.89 143.50 384.20 560.24 1217.03 368.12 1273.62 404.93 1145.50 450.66 1184.12 547.72 1236.63 576.46
00024972 00000083 1127.06 147.90 382.52 573.09 1208.14 383.39 1272.45 405.47 1138.43 472.74 1191.27 571.97 1241.55 588.82
00024973 00000084 1120.53 151.46 392.70 585.19 1202.31 384.31 1263.80 405.56 1135.44 480.13 1198.52 579.36 1247.78 593.66
00024974 00000085 1123.16 172.61 373.12 565.23 1205.36 390.43 1256.62 406.03 1131.59 489.12 1211.40 586.29 1262.09 595.10
00024975 00000086 1119.01 186.40 357.90 557.91 1208.48 397.80 1253.15 426.30 1127.36 493.22 1198.44 587.15 1244.90 606.45
00024976 00000087 1118.51 195.34 351.75 539.20 1199.48 404.95 1247.81 434.32 1121.59 499.24 1185.29 589.25 1225.53 610.05
00024977 DELETE   1117.77 195.42 346.44 536.89 1198.56 407.46 1243.25 437.21 1118.67 500.41 1178.56 591.41 1213.82 612.75
00024978 00000089 1115.58 197.43 342.67 535.40 1195.45 408.46 1241.18 439.47 1116.16 504.02 1176.22 593.27 1209.69 615.85
00024979 00000090 1114.03 194.12 347.39 540.22 1193.74 409.42 1241.38 438.36 1113.76 504.93 1175.90 595.10 1210.92 616.20
00024980 00000091 1113.78 190.56 352.78 544.85 1195.11 411.25 1241.40 437.52 1114.04 502.89 1177.11 596.05 1211.25 614.80
00024981 00000092 1115.39 193.85 354.71 546.15 1194.84 409.99 1244.20 435.33 1116.75 503.51 1183.01 597.45 1220.46 615.19
00024982 00000093 1113.18 190.52 370.88 557.08 1201.87 401.02 1244.94 416.39 1129.79 504.88 1200.13 606.88 1239.10 617.15
00024983 00000094 1112.30 187.94 371.40 566.35 1201.83 400.54 1243.47 411.00 1130.03 502.74 1205.63 608.49 1246.52 614.34
00024984 00000095 1111.26 186.99 367.98 556.59 1201.34 400.43 1244.55 415.82 1129.91 501.70 1197.07 604.41 1236.72 614.85
00024985 DELETE   1113.95 194.74 360.82 543.55 1196.85 405.65 1246.84 434.36 1117.10 496.53 1176.89 592.91 1215.43 613.35
00024986 00000097 1112.57 192.79 362.72 546.04 1196.88 403.05 1248.61 434.57 1115.13 495.65 1173.24 591.45 1213.39 614.29
00024987 00000098 1112.60 191.39 360.82 545.14 1195.35 403.05 1246.72 433.87 1114.50 495.97 1174.30 591.12 1212.66 613.36
00024988 00000099 1112.70 192.73 360.81 544.74 1197.43 401.24 1246.02 431.31 1115.14 495.36 1176.83 592.07 1212.96 613.66
00024989 00000100 1112.48 190.27 361.87 544.02 1196.67 400.39 1247.50 430.86 1114.86 493.51 1174.96 588.45 1213.43 610.55
00024990 00000101 1112.25 186.40 364.17 543.84 1195.24 398.72 1250.09 429.35 1113.18 488.93 1171.38 584.10 1215.33 606.37
00024991 00000102 1110.97 180.64 368.21 545.89 1198.51 392.68 1251.57 424.57 1113.38 483.01 1170.44 578.57 1216.26 601.87
00024992 00000103 1109.99 172.79 362.26 546.47 1199.22 387.22 1250.33 419.87 1113.40 479.28 1169.55 575.61 1214.53 599.88
00024993 00000104 1108.62 163.60 366.67 553.87 1197.76 380.43 1251.42 414.18 1111.29 471.90 1166.38 570.60 1213.50 595.60
00024994 00000105 1108.89 162.31 364.39 552.79 1195.79 380.17 1253.42 411.52 1111.23 470.33 1163.58 570.33 1213.62 593.58
00024995 DELETE   1107.20 163.10 362.98 550.43 1190.96 377.00 1248.58 408.21 1108.22 468.66 1160.05 570.12 1208.92 593.51
00024996 00000107 1101.08 164.28 366.31 549.54 1183.45 379.02 1240.57 408.15 1104.03 469.01 1158.50 569.24 1207.18 591.17
00024997 00000108 1095.34 169.88 350.61 536.00 1180.59 379.39 1227.31 407.10 1097.98 470.06 1155.97 567.97 1195.37 589.43
00024998 00000109 1086.93 175.67 354.23 525.05 1166.84 384.26 1218.52 408.91 1090.74 469.30 1142.65 568.54 1182.62 588.61
00024999 00000110 1080.36 184.70 349.34 510.93 1154.69 389.32 1209.36 412.81 1084.52 471.01 1133.05 564.42 1175.68 584.27
00025000 00000111 1071.80 184.64 351.67 511.44 1143.61 390.11 1204.72 414.67 1077.24 474.23 1123.53 564.03 1172.68 585.22
00025001 DELETE   1067.90 184.64 349.32 511.68 1136.75 392.29 1196.87 414.62 1071.22 475.54 1120.29 566.46 1168.40 586.06
00025002 00000113 1064.74 183.39 348.73 516.12 1130.94 391.30 1190.84 412.81 1066.17 476.13 1118.14 568.87 1165.57 587.41
00025003 00000114 1064.64 187.79 348.05 513.67 1132.18 391.41 1189.66 412.75 1066.01 478.16 1121.55 569.74 1167.69 587.58
00025004 00000115 1063.85 190.25 348.12 512.50 1132.90 389.81 1187.62 410.57 1065.35 479.70 1123.80 571.01 1168.72 588.02
00025005 00000116 1063.56 190.12 347.75 511.94 1132.36 389.99 1186.53 411.87 1064.29 479.82 1123.28 570.14 1167.14 587.98
00025006 00000117 1063.88 188.32 344.72 511.66 1130.02 389.22 1186.25 410.98 1063.28 477.97 1120.49 569.27 1164.73 587.32
00025007 00000118 1064.76 185.19 340.54 514.08 1128.66 389.68 1185.51 410.34 1062.87 475.41 1119.62 567.71 1165.09 585.15
00025008 00000119 1064.45 178.03 337.66 521.59 1130.83 388.01 1185.09 409.01 1065.94 472.49 1122.70 566.16 1165.13 584.29
00025009 00000120 1064.93 174.96 339.97 525.84 1134.28 388.03 1188.19 405.68 1070.42 470.02 1124.73 567.56 1167.77 583.04
00025010 00000121 1063.85 173.53 344.77 530.25 1134.83 387.62 1189.78 405.12 1070.14 467.90 1121.64 568.75 1165.65 583.83
00025011 00000122 1063.88 174.02 350.22 527.63 1133.24 386.81 1194.98 405.24 1069.61 466.60 1117.26 567.74 1164.73 583.97
00025012 00000123 1067.97 176.17 346.39 523.79 1135.49 384.04 1194.97 402.80 1071.86 465.96 1121.13 565.86 1169.02 582.10
00025013 00000124 1071.89 175.95 342.56 519.02 1139.59 382.90 1198.94 400.52 1078.40 464.43 1125.16 565.02 1171.61 581.08
00025014 00000125 1075.22 175.75 337.11 516.91 1141.68 381.64 1200.19 397.88 1082.62 462.40 1128.84 564.52 1172.96 579.75
00025015 00000126 1075.44 177.12 338.03 513.68 1140.78 381.11 1200.54 398.33 1082.03 462.22 1125.97 562.83 1170.81 579.04
00025016 00000127 1072.69 176.54 338.65 515.89 1137.65 383.11 1196.84 401.06 1076.91 462.80 1121.18 563.81 1165.30 580.53
00025017 00000128 1069.41 179.43 339.18 514.20 1136.10 384.78 1194.76 403.36 1072.26 464.17 1115.76 564.24 1160.42 581.23
00025018 00000129 1064.03 184.89 342.81 510.51 1132.81 385.61 1188.55 404.29 1064.49 464.77 1107.26 565.84 1150.83 582.83
00025019 00000130 1060.73 187.63 340.69 507.72 1133.90 387.48 1186.40 405.61 1062.76 462.77 1102.28 564.34 1146.39 580.58
00025020 00000131 1058.86 189.47 342.32 506.25 1127.55 388.65 1184.23 404.02 1056.65 465.01 1094.56 568.57 1142.06 582.56
00025021 00000132 1057.63 188.63 339.93 506.61 1127.01 387.59 1183.04 404.60 1056.94 465.27 1093.22 568.04 1139.21 583.13
00025022 00000133 1058.55 185.94 337.48 510.70 1127.05 387.34 1181.53 402.35 1056.79 465.14 1095.69 568.98 1141.34 582.40
00025023 00000134 1059.12 184.00 337.60 512.50 1127.20 387.12 1182.81 400.28 1059.39 466.73 1100.20 570.32 1144.48 582.58
00025024 00000135 1060.16 181.84 335.09 515.22 1123.62 384.18 1180.83 397.22 1057.61 468.11 1109.66 570.72 1153.47 582.66
00025025 00000136 1063.25 178.40 330.96 520.67 1124.19 382.77 1176.19 395.27 1064.54 474.21 1132.99 570.22 1173.58 581.07
00025026 00000137 1064.14 174.95 337.95 526.37 1128.28 381.80 1179.55 392.54 1070.18 473.40 1144.23 566.78 1187.39 575.72
00025027 00000138 1066.94 170.30 329.67 524.38 1140.79 372.18 1174.14 390.40 1071.34 474.73 1139.41 560.75 1180.88 574.26
00025028 00000139 1067.51 169.30 330.43 519.56 1134.66 375.87 1183.84 394.72 1074.30 463.61 1138.42 553.58 1175.17 570.11
00025029 00000140 1064.88 181.34 327.05 493.31 1137.88 373.13 1177.55 394.65 1072.72 453.44 1131.43 548.70 1160.48 562.07
00025030 00000141 1064.51 184.60 328.69 487.75 1139.61 373.32 1180.95 395.82 1074.68 450.41 1123.01 548.15 1149.87 562.29
00025031 00000142 1064.87 182.68 331.50 489.36 1141.67 372.35 1181.24 394.80 1075.30 447.73 1120.76 547.22 1145.47 561.33
00025032 DELETE   1066.08 174.58 341.21 502.65 1139.48 374.37 1196.63 393.29 1075.86 451.82 1104.69 548.30 1146.84 565.95
00025033 DELETE   1063.28 168.46 343.99 506.26 1139.68 371.59 1198.98 392.35 1075.66 448.51 1100.05 544.57 1144.16 563.41
00025034 00000145 1063.61 161.15 335.29 508.70 1145.70 365.05 1179.50 387.72 1075.92 450.74 1109.86 538.15 1142.77 555.40
00025035 00000146 1063.27 163.10 330.84 503.50 1145.51 362.82 1174.60 383.48 1070.56 448.64 1111.24 536.54 1142.33 552.09
00025036 00000147 1056.76 159.90 338.53 513.90 1141.16 364.81 1186.25 384.21 1067.09 441.56 1106.13 542.37 1135.35 559.63
00025037 00000148 1060.25 157.89 322.15 509.91 1137.41 359.69 1165.93 380.12 1066.10 447.22 1109.71 539.09 1139.19 554.50
00025038 00000149 1043.81 163.74 332.40 502.58 1123.69 363.73 1158.99 387.11 1053.16 446.29 1106.61 545.38 1127.97 560.23
00025039 00000150 1041.66 174.94 329.41 495.07 1118.20 371.50 1156.12 392.32 1051.58 448.38 1102.39 548.74 1126.53 561.63
CROP_BBOX: 842 0 1732 902
