Video ID: 	ImjV6JJok6k
H: 	1080
W: 	1920
FPS: 	29.97002997002997

FRAME INDEX X0 Y0 W H [Landmarks (5 Points)]

00009330 00000000 757.90 214.96 378.45 554.26 781.26 450.21 924.03 427.44 801.44 541.94 825.14 649.88 930.83 634.01
00009331 DELETE   752.36 219.42 378.70 552.14 772.68 453.99 919.27 429.07 796.60 548.71 820.55 655.53 927.31 637.87
00009332 00000002 745.21 220.66 379.11 545.31 775.33 452.42 910.77 435.31 791.08 550.11 809.78 651.44 922.17 638.58
00009333 00000003 741.20 223.91 377.23 543.81 772.00 451.04 900.66 436.16 784.80 553.38 809.35 651.18 916.63 639.93
00009334 00000004 737.90 229.00 376.29 543.70 769.60 452.07 893.80 436.34 779.23 553.97 809.44 651.79 912.64 639.67
00009335 00000005 736.96 233.11 371.68 541.57 769.43 449.78 889.10 436.14 776.94 553.37 810.70 651.79 907.24 641.58
00009336 00000006 734.77 233.36 374.84 539.41 768.01 449.04 887.60 435.74 775.33 553.80 809.49 651.06 904.75 641.10
00009337 00000007 735.60 233.51 373.82 539.98 768.35 450.00 887.65 435.92 774.90 554.27 810.19 652.75 904.93 642.13
00009338 00000008 735.33 235.03 373.98 538.20 768.27 450.05 887.31 435.88 775.04 555.26 811.49 653.68 904.91 642.99
00009339 DELETE   735.39 234.88 374.71 538.30 768.27 450.47 887.46 435.93 775.08 555.23 811.35 653.72 905.04 642.73
00009340 00000010 735.33 236.23 375.30 536.52 768.64 450.70 886.95 436.28 774.69 555.73 811.57 654.20 903.82 643.34
00009341 00000011 736.04 235.44 374.74 536.59 768.74 451.39 887.74 437.36 775.25 556.39 810.91 654.02 904.02 643.55
00009342 00000012 736.80 234.70 375.16 538.02 769.55 453.40 888.90 439.02 776.88 558.40 811.56 655.32 905.78 644.53
00009343 00000013 736.88 235.42 377.46 539.36 771.04 454.85 891.38 440.99 779.31 560.64 812.51 656.43 908.31 645.99
00009344 00000014 736.88 238.48 378.43 540.39 772.66 457.53 891.94 444.51 780.61 563.72 813.83 658.27 909.61 648.32
00009345 00000015 740.24 242.53 370.78 539.00 772.38 459.25 901.04 438.60 784.19 564.58 822.15 667.43 915.66 649.88
00009346 00000016 739.69 243.19 371.96 537.86 771.58 460.44 899.31 439.82 782.52 566.01 821.91 668.80 913.70 651.25
00009347 00000017 740.10 245.36 370.58 536.78 772.03 461.08 900.10 441.79 782.70 567.81 821.68 669.75 914.65 653.28
00009348 00000018 739.80 245.27 370.10 537.86 771.61 462.07 899.90 443.68 782.25 570.33 821.26 671.22 914.16 655.43
00009349 00000019 738.66 246.58 372.43 537.86 771.99 462.22 899.27 445.92 782.70 571.87 821.95 671.17 912.96 656.95
00009350 00000020 739.13 248.50 373.38 534.62 772.10 463.89 900.02 448.08 783.12 574.21 819.87 671.59 912.45 657.91
00009351 00000021 740.01 249.78 374.14 531.80 771.93 465.81 900.14 450.27 782.80 575.85 818.72 671.16 914.70 657.73
00009352 00000022 740.83 252.36 372.73 528.76 771.82 468.34 900.67 451.02 784.27 577.32 819.12 672.40 918.37 657.41
00009353 00000023 742.18 249.77 372.00 530.28 772.27 480.92 904.21 455.49 788.57 574.42 819.52 675.15 925.12 653.69
00009354 00000024 742.26 252.82 371.93 529.00 772.74 481.55 906.51 456.92 790.15 573.64 819.90 675.97 927.13 654.93
00009355 00000025 741.88 250.43 372.99 534.40 775.58 483.14 910.68 457.17 794.39 570.90 821.87 677.11 929.71 655.09
00009356 00000026 741.20 248.11 374.57 538.66 777.24 481.16 913.49 456.76 797.82 570.55 823.13 676.91 930.93 656.13
00009357 00000027 734.41 247.17 383.12 545.77 781.54 477.10 908.34 460.71 802.76 571.47 819.25 673.23 926.78 660.03
00009358 00000028 736.93 248.30 381.05 542.65 784.10 475.61 909.67 460.50 806.74 571.28 822.63 671.13 928.02 659.08
00009359 00000029 739.61 247.42 378.69 541.65 787.49 474.45 915.12 459.92 813.47 568.73 825.51 669.68 931.51 658.41
00009360 00000030 740.52 246.00 383.64 540.17 787.44 472.80 922.87 458.52 817.11 566.54 822.61 665.18 936.97 654.06
00009361 00000031 743.17 245.22 383.31 537.96 791.15 473.71 929.06 459.56 823.18 565.44 825.95 663.51 942.40 652.41
00009362 00000032 744.74 242.79 383.66 539.78 783.77 469.87 941.87 451.02 825.24 563.91 834.77 667.28 949.52 652.49
00009363 00000033 750.84 237.63 384.59 551.83 802.82 471.12 952.45 456.04 836.09 563.15 842.92 665.54 959.91 651.95
00009364 00000034 766.15 235.92 374.79 557.05 813.19 467.43 960.07 453.25 846.74 559.54 852.65 665.93 963.48 653.39
00009365 00000035 770.35 229.68 378.15 560.17 822.47 464.07 974.59 445.67 864.68 559.37 865.80 669.50 981.26 654.32
00009366 00000036 779.82 228.98 375.51 560.89 836.81 460.76 988.47 443.26 880.24 561.28 877.77 667.43 994.97 652.96
00009367 00000037 793.55 237.73 371.11 552.37 849.04 458.81 997.19 451.51 894.47 557.37 880.52 658.92 999.82 653.93
00009368 00000038 801.58 238.72 374.96 554.57 858.81 462.47 1008.26 452.89 902.94 552.13 888.94 654.30 1015.92 646.88
00009369 DELETE   807.74 237.09 373.77 557.95 866.81 465.33 1017.25 454.86 912.74 550.29 893.22 653.17 1027.59 644.84
00009370 00000040 815.27 233.34 371.18 560.42 873.08 462.21 1024.83 450.56 919.02 548.25 898.17 650.82 1036.50 641.65
00009371 00000041 822.28 229.93 369.16 561.59 880.10 459.10 1032.25 445.06 926.06 545.32 904.73 649.68 1043.10 638.51
00009372 00000042 829.47 223.51 367.11 567.33 886.87 453.06 1043.03 441.58 932.84 543.64 910.77 646.79 1052.13 637.19
00009373 00000043 837.10 220.72 365.27 570.44 897.46 448.86 1059.00 442.85 947.45 543.52 916.72 644.37 1062.53 639.09
00009374 00000044 841.03 220.43 366.23 572.80 906.39 443.83 1071.19 441.89 958.82 541.60 922.47 642.15 1070.15 640.47
00009375 00000045 847.26 225.08 362.74 570.95 918.18 438.82 1074.28 450.12 967.77 540.94 928.81 635.99 1071.04 645.19
00009376 00000046 853.19 226.24 364.29 570.57 925.59 436.37 1081.78 448.10 974.06 537.06 933.68 632.88 1080.00 642.27
00009377 00000047 859.64 229.30 364.87 567.33 931.57 435.86 1089.31 447.06 982.00 534.31 939.00 629.94 1087.46 639.04
00009378 00000048 864.67 228.40 365.04 568.00 935.78 435.39 1093.87 446.06 987.43 532.95 942.98 627.83 1092.13 636.50
00009379 00000049 869.65 227.40 364.98 568.27 942.81 435.88 1101.96 447.18 993.77 533.16 945.67 625.28 1098.72 634.77
00009380 00000050 876.24 228.70 361.74 563.77 947.59 435.27 1107.56 445.28 998.44 532.72 948.98 624.64 1099.48 633.69
00009381 00000051 883.75 225.68 359.55 563.58 952.95 435.15 1112.61 442.87 1004.32 532.03 952.33 624.07 1101.25 631.88
00009382 00000052 889.93 225.20 357.90 560.39 959.08 434.58 1120.43 443.33 1010.78 530.09 955.49 622.42 1104.20 631.44
00009383 00000053 891.36 220.33 361.49 560.52 962.31 433.30 1127.29 444.11 1016.20 529.99 957.72 621.84 1106.99 632.34
00009384 00000054 893.56 213.19 363.76 564.22 964.58 432.60 1132.14 444.58 1021.67 531.29 960.08 621.42 1111.40 632.58
00009385 00000055 895.03 212.91 366.01 559.96 966.16 432.25 1134.24 445.14 1023.42 529.91 962.86 621.72 1112.31 633.29
00009386 00000056 896.86 211.34 365.94 557.90 968.15 430.81 1136.64 445.18 1025.76 529.82 965.94 620.28 1113.34 633.14
00009387 00000057 897.75 210.25 366.69 556.21 970.56 430.06 1139.24 446.56 1028.73 531.00 967.16 619.01 1114.06 633.53
00009388 00000058 898.25 210.05 366.35 556.05 971.80 429.98 1140.33 446.88 1029.99 531.09 967.82 619.74 1113.81 634.56
00009389 00000059 898.86 210.59 366.71 557.69 972.38 430.50 1140.94 446.66 1031.13 531.54 969.26 621.10 1114.76 635.31
00009390 00000060 899.54 210.16 366.72 560.52 973.37 430.86 1140.66 446.85 1031.99 532.08 970.82 622.75 1113.70 636.84
00009391 00000061 900.11 210.46 366.61 562.64 974.33 430.69 1140.11 446.27 1032.62 532.57 972.05 624.42 1112.29 638.23
00009392 00000062 900.22 210.52 365.79 562.67 973.82 430.74 1139.26 445.83 1032.12 532.69 972.46 625.40 1111.42 638.80
00009393 00000063 900.17 208.47 366.09 563.82 972.64 430.84 1138.43 445.49 1030.86 533.09 972.67 626.01 1110.76 638.95
00009394 00000064 898.71 207.85 366.91 561.86 971.65 431.56 1138.98 446.72 1030.41 532.82 970.15 624.54 1111.34 637.88
00009395 00000065 897.13 207.25 367.81 558.86 970.54 430.83 1138.79 448.98 1028.29 533.81 966.17 620.47 1112.34 636.24
00009396 00000066 896.70 207.76 367.98 559.24 970.26 430.73 1137.89 448.32 1027.92 533.23 965.95 619.83 1111.95 635.17
00009397 00000067 896.21 208.12 367.89 562.62 969.36 431.22 1138.10 448.16 1026.82 532.86 963.50 622.13 1111.40 637.08
00009398 00000068 898.71 210.25 365.88 568.00 970.75 432.18 1136.74 445.13 1028.19 532.27 968.04 626.16 1111.38 637.86
00009399 00000069 897.25 210.44 365.43 564.80 969.43 432.44 1136.02 445.68 1027.98 531.90 967.95 626.84 1109.28 638.73
00009400 00000070 895.28 209.95 367.37 562.09 967.69 433.72 1133.50 446.68 1026.08 533.03 966.97 626.97 1106.36 638.65
00009401 00000071 894.13 210.72 367.66 561.43 967.25 433.49 1131.77 448.53 1024.47 533.79 963.28 623.55 1105.71 637.04
00009402 00000072 893.91 211.44 365.67 559.91 965.79 436.10 1128.21 450.98 1021.60 535.42 961.58 624.72 1102.55 638.16
00009403 00000073 894.33 214.93 363.15 557.13 965.93 438.43 1124.30 450.91 1020.06 536.04 965.86 628.72 1099.58 640.24
00009404 00000074 893.66 219.73 361.70 556.39 963.74 440.17 1122.03 450.12 1016.26 536.51 963.65 629.97 1099.64 639.71
00009405 00000075 890.89 221.11 362.91 557.08 962.70 444.28 1120.37 455.15 1014.11 536.17 961.51 629.71 1100.35 640.27
00009406 00000076 888.48 224.88 363.65 552.83 959.86 445.10 1117.39 455.19 1010.27 536.12 959.51 630.38 1097.47 640.31
00009407 DELETE   887.07 223.99 362.89 552.20 957.21 444.63 1115.12 454.13 1008.62 538.37 957.57 632.07 1094.61 641.58
00009408 00000078 884.40 224.27 362.94 551.15 954.06 441.56 1110.95 453.52 1004.84 539.61 952.65 629.45 1089.32 641.09
00009409 00000079 882.00 224.63 363.63 555.02 951.06 439.56 1106.42 449.51 1000.96 538.03 952.41 631.98 1085.07 642.10
00009410 00000080 881.72 226.71 359.75 554.69 950.82 438.19 1102.50 447.63 999.26 537.78 956.14 638.36 1074.18 648.58
00009411 00000081 880.31 228.84 357.69 555.98 948.71 440.00 1100.69 450.16 997.19 541.29 954.73 642.18 1071.32 653.13
00009412 00000082 875.11 231.10 360.16 553.06 942.51 443.09 1094.65 453.30 993.20 545.39 951.60 644.30 1069.63 654.98
00009413 00000083 867.59 233.36 363.89 550.68 937.67 445.63 1089.78 455.92 990.67 549.80 949.62 646.94 1066.81 657.11
00009414 00000084 859.69 232.74 367.23 552.09 931.51 445.50 1085.42 457.72 986.15 555.44 946.15 650.41 1060.70 661.61
00009415 00000085 854.11 231.38 369.28 549.79 925.20 448.23 1082.76 461.75 979.09 560.10 936.19 650.05 1056.38 662.00
00009416 00000086 850.60 232.55 368.81 549.91 914.72 449.09 1083.38 462.44 968.25 569.63 926.75 650.41 1061.87 661.16
00009417 00000087 849.61 235.28 369.05 549.88 913.30 451.22 1081.72 464.36 966.21 572.52 925.66 651.67 1061.35 662.39
00009418 00000088 847.29 232.30 371.82 553.51 915.77 454.83 1081.22 461.85 967.14 570.31 930.19 659.78 1057.51 666.39
00009419 00000089 849.18 239.01 371.43 546.58 920.22 457.39 1081.49 469.70 976.87 572.70 933.29 657.41 1056.70 668.25
00009420 00000090 850.44 241.09 372.37 544.77 923.55 457.77 1084.74 470.54 980.54 573.97 935.80 657.64 1059.25 668.85
00009421 00000091 854.23 241.69 371.47 546.17 927.80 458.20 1089.72 470.35 985.46 573.25 939.64 658.19 1065.47 669.15
00009422 00000092 860.64 238.79 370.05 552.74 935.10 457.54 1096.52 469.35 992.72 573.36 946.84 661.51 1070.95 672.72
00009423 00000093 867.38 236.99 366.42 555.07 941.54 458.46 1101.56 468.60 999.35 570.54 953.89 660.79 1077.21 670.91
00009424 00000094 872.92 234.99 364.88 553.76 944.11 456.29 1104.00 466.31 1001.24 567.30 954.26 657.76 1080.17 667.78
00009425 00000095 879.81 234.05 360.96 551.63 947.63 453.92 1106.53 463.73 1002.53 564.99 956.35 653.79 1083.24 663.48
00009426 00000096 884.28 234.17 360.30 548.33 952.21 452.59 1110.45 462.60 1007.30 563.48 958.84 651.14 1085.53 661.07
00009427 00000097 888.12 234.24 362.84 549.62 957.15 454.78 1116.48 464.66 1011.60 565.34 960.73 648.05 1094.35 657.57
00009428 00000098 893.50 237.09 365.33 548.29 961.09 458.99 1123.37 469.80 1015.66 570.20 963.69 646.89 1105.53 656.62
00009429 00000099 894.27 236.56 370.51 553.66 966.66 462.64 1128.69 474.42 1022.57 574.62 968.72 650.23 1111.88 660.35
00009430 00000100 893.84 238.62 374.66 555.62 971.89 463.76 1131.65 476.97 1026.85 577.92 973.03 656.05 1107.16 667.78
00009431 00000101 898.15 242.63 373.53 552.04 975.98 467.58 1136.13 479.90 1030.75 584.44 978.65 660.63 1109.67 671.83
00009432 00000102 901.70 243.29 372.77 551.06 976.30 469.90 1140.04 482.52 1030.96 589.98 980.45 664.59 1111.47 676.04
00009433 00000103 904.56 247.55 372.51 546.88 976.78 471.64 1143.07 484.56 1031.68 592.78 982.28 666.87 1113.73 678.59
00009434 00000104 904.82 253.07 367.87 552.45 981.84 466.40 1147.94 490.05 1030.00 593.11 983.80 673.64 1110.54 694.00
00009435 00000105 906.24 252.94 368.83 553.76 984.12 465.99 1149.93 489.83 1030.58 592.64 985.10 673.01 1111.89 693.35
00009436 00000106 907.93 249.94 371.54 559.02 987.89 465.31 1151.31 488.25 1030.82 588.41 988.53 672.99 1111.51 692.55
00009437 00000107 917.87 244.45 366.37 558.87 992.05 461.08 1152.83 483.83 1039.27 584.89 990.20 666.75 1107.22 686.72
00009438 00000108 922.81 241.05 363.43 563.95 999.55 460.00 1153.70 484.89 1043.45 581.76 995.36 665.79 1107.14 687.82
00009439 00000109 929.18 236.36 361.24 568.85 1007.72 461.92 1156.44 489.55 1047.61 576.92 1001.03 664.90 1110.16 689.26
00009440 00000110 933.58 233.74 361.95 566.24 1011.92 459.58 1163.91 489.10 1050.05 568.84 1000.03 656.72 1115.93 682.79
00009441 00000111 938.23 233.49 364.66 556.89 1017.68 451.57 1173.43 482.80 1056.91 561.98 999.89 644.81 1127.60 672.23
00009442 00000112 942.04 231.52 365.70 555.28 1018.22 447.11 1176.12 475.97 1058.20 556.23 1000.62 641.63 1129.00 667.46
00009443 00000113 945.11 229.86 365.41 561.64 1021.31 444.02 1179.98 474.60 1060.43 555.94 1002.21 641.00 1132.94 668.40
00009444 00000114 949.67 229.88 363.23 568.90 1024.88 444.41 1180.38 474.64 1061.36 561.90 1007.63 646.65 1133.48 674.02
00009445 00000115 950.93 234.15 365.49 568.72 1026.33 447.03 1182.96 476.68 1060.79 567.21 1007.46 648.70 1138.60 675.30
00009446 00000116 951.72 236.28 366.96 572.36 1027.62 449.82 1185.57 478.36 1061.62 570.31 1008.49 650.17 1146.85 675.37
00009447 00000117 951.65 236.41 368.87 577.31 1028.89 450.09 1188.29 478.51 1063.19 570.91 1008.63 651.30 1152.15 676.04
00009448 00000118 951.21 235.74 368.61 579.33 1029.96 449.45 1189.30 479.31 1063.86 570.43 1007.34 650.14 1153.42 675.93
00009449 00000119 950.46 233.97 369.72 580.30 1028.89 448.02 1188.24 477.50 1062.64 568.20 1007.05 648.98 1151.66 674.47
00009450 00000120 950.83 232.21 368.07 574.96 1026.89 445.23 1184.60 474.40 1061.51 563.81 1007.76 646.26 1146.37 672.05
00009451 00000121 950.63 228.47 363.03 570.33 1025.91 440.22 1182.93 471.07 1061.77 554.80 1007.29 640.53 1139.58 668.17
00009452 00000122 949.56 226.73 360.44 560.02 1021.27 433.88 1178.00 463.77 1057.31 544.30 1004.40 631.08 1135.16 658.03
00009453 00000123 943.42 224.99 365.23 554.50 1015.34 428.25 1173.69 456.01 1054.46 535.01 1002.42 624.99 1132.08 649.81
00009454 00000124 941.61 219.94 365.36 553.29 1011.56 426.75 1169.86 455.19 1050.18 531.62 999.31 622.19 1127.71 647.05
00009455 00000125 929.90 212.10 373.02 554.38 1007.83 422.56 1167.89 451.26 1044.68 533.78 995.05 619.45 1122.60 644.27
00009456 00000126 926.46 212.57 366.62 552.21 997.79 417.51 1164.74 445.55 1038.32 530.84 988.43 623.27 1123.07 645.93
00009457 00000127 923.19 211.65 365.80 549.52 993.52 416.71 1158.83 441.85 1032.88 528.83 986.33 620.90 1117.97 641.18
00009458 00000128 919.87 207.92 363.88 548.48 989.21 416.18 1154.14 440.51 1027.25 525.47 984.11 617.61 1111.31 637.19
00009459 00000129 913.83 199.78 373.16 546.74 989.23 413.75 1148.16 436.45 1027.39 521.06 983.89 607.82 1109.90 626.42
00009460 00000130 909.98 192.88 374.82 554.40 983.74 413.53 1141.93 435.82 1022.77 518.24 979.41 605.98 1103.93 624.41
00009461 00000131 906.61 190.58 373.14 556.74 977.68 412.53 1133.17 428.39 1016.85 513.67 977.80 608.46 1097.15 621.67
00009462 00000132 899.11 200.14 367.15 554.60 968.84 416.11 1126.52 430.49 1000.28 505.54 967.67 611.44 1080.00 623.07
00009463 00000133 895.57 207.76 365.75 544.45 958.66 418.10 1115.94 425.53 990.97 500.50 959.82 609.91 1076.80 615.41
00009464 DELETE   888.87 197.61 365.14 543.60 946.00 417.27 1096.59 419.88 974.63 502.31 947.01 605.71 1067.58 610.85
00009465 DELETE   879.45 193.88 362.55 550.75 924.57 412.06 1081.30 413.17 952.35 497.13 933.58 613.70 1047.55 615.02
00009466 00000136 861.17 200.34 366.18 548.91 900.46 418.32 1049.60 412.70 919.45 496.16 914.80 617.71 1022.78 612.83
00009467 DELETE   848.22 201.56 366.44 548.64 885.39 428.33 1028.67 415.26 900.56 495.87 903.58 619.20 1010.51 607.56
00009468 DELETE   833.59 200.43 359.20 549.73 855.04 429.06 1002.16 408.57 871.21 514.22 890.99 629.01 1007.24 612.57
00009469 00000139 813.27 196.66 367.10 557.30 841.57 437.94 981.09 415.62 860.57 517.85 878.63 634.88 983.00 615.89
00009470 DELETE   798.48 194.16 369.43 564.53 823.59 443.79 955.50 418.46 835.61 524.06 861.75 643.21 959.30 621.58
00009471 00000141 787.03 205.93 372.63 555.05 811.41 449.95 939.28 425.61 818.56 532.95 846.86 646.74 943.24 625.69
00009472 DELETE   777.74 204.54 374.93 559.64 807.32 451.46 933.99 434.62 811.14 540.60 842.49 646.71 940.02 631.52
00009473 00000143 768.32 215.39 376.14 556.95 798.24 455.89 927.36 438.27 806.49 549.93 840.86 652.45 941.33 636.01
00009474 DELETE   760.30 220.10 376.58 558.77 782.67 459.41 922.79 432.52 802.99 554.39 836.17 661.67 941.21 641.41
00009475 00000145 756.89 221.74 376.07 560.36 776.83 460.40 917.59 431.54 797.89 557.46 832.85 664.49 937.27 643.16
00009476 00000146 752.01 224.46 376.84 563.10 772.39 462.85 913.38 428.54 796.41 560.37 834.95 666.39 945.79 640.05
00009477 00000147 748.63 228.83 373.71 557.22 779.25 464.43 906.69 435.81 793.26 560.09 831.98 663.77 947.54 639.71
00009478 00000148 743.26 230.38 377.02 557.11 776.41 460.26 900.42 433.05 783.29 558.47 831.67 661.75 945.00 638.17
00009479 00000149 740.32 231.06 376.78 554.63 773.35 454.45 896.52 429.09 778.57 553.34 826.57 656.62 938.30 634.62
00009480 00000150 739.68 229.22 376.72 548.87 772.66 447.31 894.48 426.88 774.46 548.38 822.19 648.05 930.80 630.44
00009481 00000151 740.02 225.23 375.90 543.86 770.32 444.00 894.03 427.59 773.62 547.59 813.74 644.50 919.10 631.05
00009482 00000152 740.67 223.78 374.77 543.41 768.45 445.89 892.12 429.52 773.05 550.27 809.69 648.71 912.18 635.95
00009483 00000153 740.15 226.09 376.47 545.04 768.84 448.91 893.24 433.59 773.79 553.87 808.87 651.80 913.26 639.70
00009484 00000154 740.64 230.44 377.86 543.30 771.57 453.44 893.63 438.79 776.47 559.35 812.36 654.80 914.69 643.10
00009485 00000155 739.96 234.19 378.36 540.77 773.04 456.79 894.78 443.51 779.74 563.84 813.93 657.55 914.29 647.09
00009486 00000156 746.36 241.36 368.52 536.42 774.25 463.55 899.60 442.58 781.89 568.75 820.17 667.56 916.76 649.67
CROP_BBOX: 559 0 1497 994
