Video ID: 	2xT4oc8Oiuw
H: 	1080
W: 	1920
FPS: 	25.0

FRAME INDEX X0 Y0 W H [Landmarks (5 Points)]

00001725 00000000 728.11 118.24 393.37 525.45 835.00 298.69 1012.88 305.22 919.17 386.31 844.74 495.26 982.16 502.03
00001726 00000001 727.42 121.06 394.69 518.00 836.81 301.86 1013.49 309.48 919.64 389.90 847.35 494.14 985.81 501.44
00001727 00000002 730.36 117.11 389.21 522.90 836.03 308.10 1011.46 315.81 916.99 397.53 846.14 499.31 985.89 506.92
00001728 00000003 729.07 115.99 389.77 525.64 831.09 312.63 1009.56 320.01 911.68 406.39 841.40 505.17 985.56 512.79
00001729 DELETE   725.52 115.40 391.06 532.95 826.25 316.56 1005.62 324.63 906.09 414.53 835.36 510.53 980.04 518.77
00001730 DELETE   718.12 111.38 393.95 547.60 818.93 325.84 993.56 334.34 897.70 425.61 831.01 518.49 973.82 526.35
00001731 DELETE   710.40 109.32 397.89 554.04 811.86 332.43 989.21 339.39 893.38 432.13 824.22 526.10 969.04 532.37
00001732 00000007 706.67 103.54 395.58 560.48 807.34 336.07 984.93 344.36 890.04 438.40 822.49 528.21 968.23 535.33
00001733 00000008 702.10 106.13 398.71 558.22 804.85 338.13 983.13 347.37 886.75 443.01 818.10 528.95 963.88 537.05
00001734 00000009 700.23 104.20 398.21 561.38 803.32 338.23 982.21 347.96 884.37 445.14 814.83 530.58 961.20 539.12
00001735 00000010 695.10 100.99 402.32 564.06 800.35 338.70 979.55 348.35 882.39 447.34 814.11 530.69 958.75 539.04
00001736 00000011 695.47 99.48 401.19 564.75 800.24 337.68 978.64 347.53 882.26 445.21 812.96 529.34 957.91 537.83
00001737 00000012 696.17 98.25 400.74 565.34 799.80 336.00 978.36 345.04 883.15 442.37 814.09 527.60 958.71 535.42
00001738 00000013 697.26 94.77 399.15 567.27 800.33 334.09 978.68 342.34 884.15 437.87 814.07 526.50 958.65 533.64
00001739 00000014 699.01 94.92 398.56 566.93 801.33 334.50 978.98 343.05 884.67 439.20 815.05 526.83 959.96 534.15
00001740 00000015 699.51 95.88 398.76 566.92 802.20 335.11 979.85 344.32 885.61 441.59 815.90 528.00 960.84 535.88
00001741 00000016 699.02 99.60 400.37 565.44 802.91 336.44 980.70 347.33 884.18 445.01 814.44 528.73 959.23 538.09
00001742 00000017 698.37 101.12 400.52 566.08 802.51 337.35 981.30 348.61 882.53 445.67 812.35 529.60 959.82 539.22
00001743 00000018 696.47 97.98 400.77 570.44 800.40 336.19 980.22 349.38 879.68 446.30 808.94 530.06 955.60 541.31
00001744 00000019 694.19 94.87 401.22 576.55 799.29 333.23 975.68 347.78 877.85 443.75 811.12 529.33 947.78 542.08
00001745 00000020 693.96 97.33 401.78 577.89 799.55 331.04 977.08 345.15 878.87 441.65 811.32 530.82 950.33 542.99
00001746 00000021 698.64 101.12 398.41 576.76 807.19 334.52 981.00 347.81 888.27 444.25 818.81 532.45 959.11 543.80
00001747 00000022 702.38 103.29 395.34 581.55 814.98 343.82 989.37 355.00 902.71 454.90 830.95 540.51 970.71 549.80
00001748 00000023 706.04 117.93 397.32 568.55 820.34 350.33 997.43 361.24 907.52 463.84 834.98 545.20 974.96 554.43
00001749 00000024 702.74 116.42 402.11 579.22 816.33 354.71 997.88 364.35 905.33 470.29 827.67 550.05 977.57 558.22
00001750 00000025 702.87 116.10 401.70 582.35 812.59 357.30 994.81 368.47 897.56 472.83 820.26 551.24 973.65 561.08
00001751 00000026 702.41 119.53 402.24 580.44 811.25 360.44 993.32 371.86 893.36 475.43 819.10 558.22 966.57 568.99
00001752 00000027 702.55 120.60 403.17 585.52 813.15 362.78 991.87 374.42 893.66 475.03 822.84 561.50 966.19 572.69
00001753 00000028 702.12 120.70 405.24 588.26 812.23 364.03 993.66 375.19 893.99 476.54 822.27 562.93 969.17 573.49
00001754 00000029 702.36 120.37 404.39 587.81 812.47 364.10 992.98 376.01 893.73 476.53 821.47 562.16 968.13 573.26
00001755 00000030 701.92 119.39 403.98 586.54 810.92 364.38 992.61 376.44 892.51 477.00 819.19 561.00 968.20 572.02
00001756 00000031 701.31 119.93 404.63 584.30 810.36 366.16 993.21 377.47 892.95 480.40 819.74 562.87 969.08 573.18
00001757 00000032 701.26 118.06 404.06 585.09 810.77 365.83 993.59 378.67 892.89 480.42 819.79 562.06 968.69 573.69
00001758 00000033 698.66 119.33 405.61 582.19 809.69 366.78 992.11 379.06 892.56 481.61 819.39 562.03 967.63 573.29
00001759 00000034 698.10 119.19 405.57 581.16 809.66 367.12 991.94 379.32 892.48 482.05 819.61 562.57 966.39 573.86
00001760 00000035 697.47 119.21 405.83 580.18 809.19 367.31 992.26 379.14 892.95 481.98 819.38 562.64 966.69 573.60
00001761 00000036 696.93 119.26 406.50 580.47 808.89 367.53 992.01 379.51 892.43 481.58 818.69 562.18 966.25 573.27
00001762 00000037 697.33 121.47 407.12 577.75 809.26 368.18 992.54 380.11 892.49 482.33 818.82 562.71 966.17 573.90
00001763 00000038 697.53 120.99 407.18 577.32 809.52 368.47 992.80 380.08 893.47 482.61 819.71 562.61 966.94 573.46
00001764 00000039 699.51 120.37 406.13 578.44 810.24 368.04 994.20 380.50 893.69 482.35 819.56 562.63 967.41 574.11
00001765 00000040 701.84 120.35 404.40 578.67 810.96 368.74 994.42 380.87 893.58 482.21 820.17 562.89 968.41 573.88
00001766 00000041 701.28 121.99 405.05 576.05 811.08 369.76 994.31 380.25 894.97 482.45 822.48 563.45 969.60 573.07
00001767 00000042 702.08 121.56 405.61 578.20 811.95 368.70 994.62 380.00 894.68 482.17 822.84 563.40 969.66 573.73
00001768 00000043 701.92 126.47 405.78 573.84 811.87 371.34 993.59 382.19 894.25 485.81 824.57 566.10 969.10 576.23
00001769 00000044 698.31 136.59 409.27 571.17 808.89 379.60 991.42 389.40 892.52 498.32 822.58 572.87 967.50 582.25
00001770 00000045 701.97 152.49 402.25 573.77 808.19 390.18 986.55 395.88 900.13 508.13 827.60 591.56 967.86 596.04
00001771 00000046 703.44 152.97 402.32 580.04 811.00 394.58 988.41 401.47 901.97 511.45 828.87 596.05 968.70 601.37
00001772 00000047 703.40 154.18 403.11 582.95 812.42 396.27 988.87 404.84 901.85 512.77 826.96 597.35 968.49 604.24
00001773 00000048 703.75 153.56 403.70 583.73 811.79 397.22 989.04 404.51 902.02 513.79 828.57 598.43 970.75 604.12
00001774 00000049 702.31 154.61 404.42 582.88 811.13 397.67 987.24 404.98 900.95 513.01 826.37 597.23 969.29 602.99
00001775 00000050 703.47 151.16 403.18 585.88 810.36 398.49 985.60 406.12 899.03 514.00 824.68 597.70 968.26 603.68
00001776 00000051 702.22 153.71 404.42 582.38 809.45 398.63 984.92 406.42 897.99 514.09 824.38 597.26 967.50 603.42
00001777 00000052 702.53 154.50 404.13 583.02 809.63 399.48 985.73 406.98 898.16 515.11 823.14 597.69 968.62 603.59
00001778 00000053 703.17 153.67 403.32 583.47 809.93 399.38 985.55 406.68 898.32 515.76 823.85 598.16 969.10 603.82
00001779 00000054 702.44 150.04 402.99 586.77 809.23 398.31 985.64 406.14 898.42 515.51 823.73 597.73 969.01 603.76
00001780 00000055 703.35 148.13 401.72 585.63 808.92 397.32 985.39 403.75 899.03 514.81 824.21 597.49 968.26 602.32
00001781 00000056 702.34 146.84 402.65 584.28 808.04 394.80 985.38 401.73 898.45 513.84 824.50 596.14 966.96 601.40
00001782 00000057 701.45 149.93 403.37 580.62 807.90 393.94 985.29 400.15 898.59 512.23 824.32 594.61 966.41 599.42
00001783 00000058 701.53 151.85 403.17 578.04 808.72 392.96 986.23 398.87 899.34 511.70 826.61 594.26 966.01 598.85
00001784 00000059 700.94 150.59 404.00 578.31 808.38 389.95 986.53 396.33 898.88 509.39 826.44 592.82 963.90 597.89
00001785 00000060 702.43 152.10 403.71 576.83 809.23 386.23 987.56 393.88 898.57 507.81 828.31 591.14 964.86 597.23
00001786 00000061 703.97 157.09 402.65 571.09 811.16 382.27 989.20 391.09 899.00 505.21 830.03 589.99 962.61 597.12
00001787 00000062 704.73 152.90 402.60 577.17 812.04 379.40 990.43 388.94 900.01 503.77 831.64 589.23 963.02 596.79
00001788 00000063 705.34 150.73 403.46 581.77 813.85 378.65 993.50 387.48 902.93 504.32 834.85 590.55 965.26 597.35
00001789 00000064 706.53 151.91 403.35 584.47 816.12 376.33 996.82 384.59 904.76 501.71 834.30 591.05 966.23 597.61
00001790 DELETE   711.90 157.23 400.74 575.71 825.42 373.64 1006.65 379.25 920.11 493.56 845.17 587.79 979.57 592.14
00001791 DELETE   723.87 152.65 402.93 566.78 853.52 376.66 1025.99 378.15 958.55 481.56 875.53 577.03 1011.33 577.08
00001792 DELETE   739.76 156.19 401.12 557.32 871.75 370.14 1046.11 365.29 988.18 476.25 897.07 567.81 1047.93 563.29
00001793 00000068 746.17 155.85 396.78 554.11 871.11 366.08 1049.40 364.40 984.22 473.09 893.29 564.20 1048.43 562.61
00001794 00000069 740.39 159.40 400.10 558.32 866.10 366.07 1043.98 365.55 977.40 474.13 886.60 567.46 1039.18 566.71
00001795 00000070 735.32 155.88 402.25 565.01 857.32 370.35 1038.68 371.73 966.06 477.39 881.65 573.09 1028.99 573.19
00001796 00000071 734.14 168.17 401.68 558.37 856.72 376.02 1039.18 377.78 966.02 485.50 877.28 575.31 1032.25 575.99
00001797 00000072 735.19 171.64 401.51 551.80 857.24 375.89 1038.33 379.99 961.58 486.25 878.20 577.20 1024.89 579.77
00001798 00000073 731.09 167.98 402.32 557.35 854.37 375.18 1036.40 381.82 957.80 487.19 873.28 578.73 1017.96 583.24
00001799 00000074 726.63 163.50 403.96 563.09 847.30 375.98 1030.41 381.37 951.27 490.52 869.30 582.78 1011.26 586.55
00001800 00000075 726.63 162.29 402.95 563.56 842.83 377.88 1026.61 383.61 942.90 494.45 863.21 585.35 1006.25 589.41
00001801 00000076 722.65 168.83 403.77 557.10 838.35 378.49 1020.13 382.87 935.83 496.51 858.84 585.63 998.34 588.94
00001802 00000077 720.36 158.92 405.18 569.36 834.14 379.50 1016.47 383.97 930.22 495.81 856.17 588.36 994.65 591.44
00001803 00000078 720.52 154.43 404.54 572.90 832.99 380.11 1014.04 384.21 928.24 495.89 855.32 588.15 993.41 590.98
00001804 00000079 720.36 151.55 404.51 577.57 832.46 379.23 1012.49 383.93 927.01 493.89 853.41 586.59 992.50 589.76
00001805 00000080 721.25 149.38 404.11 579.00 832.77 378.28 1012.53 382.96 926.41 493.89 853.06 586.84 991.81 590.03
00001806 00000081 721.57 151.50 403.22 576.50 832.77 377.54 1012.19 383.07 924.81 492.28 852.08 585.46 989.53 589.51
00001807 00000082 724.79 149.95 399.83 571.48 831.14 377.95 1013.84 382.21 923.54 490.66 852.90 584.56 995.01 587.28
00001808 00000083 723.52 152.44 401.66 574.97 830.89 376.08 1014.94 382.22 923.58 489.43 850.59 582.60 996.40 586.61
00001809 00000084 724.89 151.92 400.01 571.31 829.96 375.19 1015.07 382.58 921.46 488.17 848.23 581.65 994.97 586.85
00001810 00000085 725.67 150.19 397.75 571.01 828.58 374.93 1014.47 382.13 919.77 486.88 846.88 582.14 994.28 587.38
00001811 00000086 723.89 152.20 398.75 575.11 828.78 376.39 1013.37 383.44 919.41 486.70 846.40 583.08 993.46 588.21
00001812 00000087 722.19 152.79 400.93 573.18 828.58 377.35 1014.06 385.21 919.97 489.11 846.75 583.78 993.22 589.38
00001813 00000088 720.51 152.57 402.22 573.64 828.05 378.17 1013.95 387.35 919.58 492.68 845.36 585.75 990.44 592.41
00001814 00000089 716.49 157.07 402.52 582.41 825.04 382.99 1011.10 391.09 916.92 496.55 840.28 591.35 990.76 597.16
00001815 00000090 715.02 162.97 403.06 583.46 823.70 396.13 1013.28 403.07 919.09 504.65 839.79 602.10 997.21 607.13
00001816 DELETE   716.33 169.79 406.28 584.78 833.13 410.32 1019.22 415.02 932.25 521.51 854.16 614.57 1003.03 617.99
00001817 DELETE   722.48 181.00 404.28 585.22 846.21 427.62 1030.30 432.03 946.30 545.78 861.25 627.20 1012.90 630.87
00001818 00000093 724.31 195.64 402.24 579.34 841.20 432.87 1030.50 433.26 952.84 554.59 864.81 639.26 1017.16 638.04
00001819 00000094 724.23 201.06 404.91 575.63 841.13 433.37 1030.62 436.83 949.43 557.44 860.93 640.19 1012.19 641.68
00001820 00000095 723.55 200.62 405.09 574.82 838.55 431.01 1028.92 433.65 946.50 556.45 858.65 637.96 1011.00 638.82
00001821 00000096 722.10 200.19 406.28 571.02 834.96 428.74 1027.02 431.91 941.31 554.53 855.65 635.89 1007.06 637.27
00001822 00000097 718.46 195.21 407.68 573.32 842.49 426.84 1025.89 434.40 938.99 553.88 856.98 632.04 1000.91 638.56
00001823 00000098 716.03 191.28 407.74 573.03 842.15 422.57 1024.87 431.65 938.88 550.74 855.18 628.00 995.80 635.79
00001824 00000099 713.65 185.17 409.35 575.37 840.86 418.37 1023.42 430.21 936.45 543.18 854.29 624.13 990.79 634.11
00001825 00000100 712.00 187.46 409.18 569.82 838.30 415.63 1021.16 428.34 933.19 539.32 851.80 621.07 986.42 631.89
00001826 00000101 711.00 185.99 410.57 573.08 836.40 415.10 1019.02 427.80 930.25 538.54 848.84 620.55 984.82 631.39
00001827 00000102 710.37 184.10 410.35 573.21 834.28 414.93 1017.88 426.50 928.45 538.65 847.22 620.36 984.41 630.17
00001828 00000103 710.76 184.84 407.80 568.29 833.25 415.53 1017.74 426.12 927.59 539.64 846.57 619.61 984.60 628.70
00001829 00000104 711.39 186.81 405.75 565.49 832.81 417.28 1017.86 427.91 927.08 540.53 846.01 619.36 985.92 628.54
00001830 00000105 710.76 185.46 403.99 564.02 833.00 417.23 1017.08 429.79 925.74 540.32 844.18 616.91 984.49 627.78
00001831 00000106 711.55 175.49 404.43 567.19 832.86 414.88 1017.45 427.76 926.70 532.66 843.93 611.48 987.40 622.28
00001832 00000107 715.61 169.57 401.17 571.55 835.95 407.09 1020.27 419.58 931.30 524.53 848.93 606.78 993.22 617.02
00001833 00000108 716.27 166.88 407.19 571.18 841.41 398.46 1022.63 411.70 937.77 514.09 852.92 599.05 995.87 609.72
00001834 DELETE   719.65 157.98 405.44 573.95 844.26 389.25 1025.85 405.42 942.58 502.41 855.64 591.12 998.39 603.82
00001835 DELETE   720.03 156.32 401.38 566.82 842.01 377.74 1024.48 391.67 939.43 492.51 855.39 581.96 994.79 592.73
00001836 00000111 721.60 147.64 394.42 574.17 836.51 362.97 1016.24 382.00 928.00 475.94 844.60 566.41 987.10 581.22
00001837 00000112 716.86 162.72 397.16 551.08 829.87 352.09 1011.28 372.25 915.02 463.38 836.04 556.22 972.28 572.33
00001838 00000113 717.14 160.46 395.33 549.35 829.76 351.04 1008.42 369.21 913.82 461.53 837.76 556.67 967.58 571.45
00001839 00000114 719.07 162.98 393.06 544.29 829.58 352.70 1009.17 368.84 915.18 464.07 839.83 560.94 967.48 574.14
00001840 00000115 719.88 152.14 395.65 563.62 830.22 355.32 1011.18 371.84 916.28 467.19 838.36 563.94 972.69 577.51
00001841 00000116 721.11 139.69 398.89 580.92 830.19 362.10 1012.84 376.09 918.37 474.85 840.63 570.74 979.56 581.97
00001842 00000117 722.43 142.27 400.16 579.19 831.05 367.16 1016.61 380.13 920.82 479.27 844.64 574.21 988.75 584.31
00001843 00000118 724.29 140.50 396.68 584.78 829.55 366.90 1017.41 382.04 916.82 477.47 836.56 570.98 993.65 582.65
00001844 00000119 723.92 138.52 394.83 572.97 825.03 360.01 1009.02 373.64 911.51 467.01 835.03 561.71 986.34 572.33
00001845 00000120 722.00 147.91 389.30 549.23 820.06 355.26 999.58 368.16 901.49 463.28 828.54 555.50 971.75 566.00
00001846 00000121 717.24 156.94 389.42 543.23 814.03 354.60 990.61 364.36 895.92 462.95 830.70 558.62 963.10 566.94
00001847 00000122 712.09 132.64 398.49 573.47 809.20 364.13 986.93 370.39 895.19 473.55 825.87 566.80 967.07 571.91
00001848 DELETE   709.37 146.72 403.86 573.63 807.76 379.90 994.50 388.44 896.25 493.36 825.97 584.09 978.32 590.53
00001849 DELETE   713.71 161.49 401.67 576.53 815.09 400.91 996.36 406.07 903.95 512.29 833.85 601.31 986.25 605.20
00001850 DELETE   721.64 175.38 403.06 565.24 825.57 415.70 1009.79 424.59 911.24 525.91 844.60 609.82 993.08 616.87
00001851 00000126 725.83 177.90 404.26 573.08 835.07 423.69 1017.39 434.54 919.16 541.91 851.74 621.80 996.24 631.19
00001852 00000127 731.67 184.87 402.41 570.10 840.78 426.46 1022.32 436.79 924.40 543.73 854.56 625.35 998.18 634.86
00001853 00000128 731.21 177.56 406.45 573.61 840.52 423.63 1023.63 435.16 924.23 541.55 853.23 623.17 997.40 633.60
00001854 00000129 732.52 174.89 406.40 569.36 841.48 421.36 1025.61 432.11 926.84 540.70 855.98 621.27 998.87 630.88
00001855 00000130 731.86 171.50 406.15 571.14 841.57 417.96 1026.17 429.57 927.59 538.31 855.51 618.94 998.26 629.11
00001856 00000131 732.50 169.71 404.75 572.06 839.45 414.83 1024.71 427.80 923.55 536.79 852.81 615.98 998.00 627.12
00001857 00000132 730.02 172.24 405.17 570.01 839.26 413.96 1024.11 426.69 923.64 534.25 851.51 614.74 995.25 625.60
00001858 00000133 729.01 172.85 404.51 568.25 837.61 413.24 1021.41 426.13 921.48 532.88 850.21 613.06 993.29 624.02
00001859 00000134 728.49 168.41 404.15 568.93 833.52 412.85 1018.63 425.64 916.73 531.61 847.51 612.72 991.39 623.49
00001860 00000135 725.94 168.46 404.09 571.23 832.72 413.39 1016.27 424.99 916.55 530.54 848.75 612.87 990.78 622.72
00001861 00000136 723.67 170.46 405.39 571.20 832.00 413.31 1013.71 425.56 913.92 528.53 847.64 611.79 988.23 622.43
00001862 00000137 721.89 167.70 404.67 576.12 832.42 414.56 1011.55 428.13 913.22 524.35 845.82 609.87 986.61 621.44
00001863 00000138 721.94 168.14 406.20 576.84 831.15 412.23 1009.68 424.61 911.62 522.66 845.32 608.39 986.81 619.01
00001864 00000139 723.40 163.55 405.37 581.09 831.88 410.00 1011.90 423.82 914.08 520.50 846.93 607.31 990.38 618.89
00001865 00000140 722.90 160.71 407.80 585.24 832.17 406.50 1012.11 419.33 914.89 516.55 847.24 605.98 991.45 616.83
00001866 00000141 724.22 163.07 405.82 580.84 832.22 403.89 1011.58 415.53 914.34 513.64 847.03 604.08 990.47 614.18
00001867 00000142 722.42 163.39 408.05 584.23 832.89 401.24 1012.91 412.33 915.77 511.12 846.87 603.80 990.94 613.40
00001868 00000143 724.57 158.12 405.64 591.21 834.58 398.86 1012.13 412.08 914.96 508.02 844.11 601.30 989.68 612.69
00001869 00000144 724.57 156.46 403.28 592.43 836.20 391.09 1012.66 403.62 917.32 502.52 844.49 597.62 988.34 608.36
00001870 DELETE   729.72 151.95 394.06 591.08 839.26 382.77 1014.97 393.35 920.96 498.53 847.28 592.63 991.19 601.58
00001871 DELETE   731.94 146.06 405.62 573.76 849.43 372.78 1029.57 373.29 949.20 484.03 871.93 580.26 1011.07 579.92
00001872 DELETE   756.09 149.95 397.80 553.87 877.63 348.36 1054.43 353.92 981.30 458.07 892.99 554.81 1033.86 559.33
00001873 00000148 760.56 145.05 400.22 540.91 881.49 338.93 1057.09 342.83 982.23 447.46 903.81 542.82 1036.73 545.09
00001874 00000149 756.71 135.19 400.94 547.20 875.55 330.20 1056.14 340.53 971.44 439.46 892.26 529.77 1039.97 538.83
00001875 00000150 762.15 140.04 395.14 543.40 874.28 328.22 1048.50 337.61 968.50 432.84 890.03 526.84 1030.34 533.99
00001876 00000151 764.74 145.68 395.53 528.23 876.09 330.24 1049.35 336.25 971.12 435.19 899.00 532.00 1028.84 536.02
00001877 00000152 766.72 152.87 395.49 522.37 879.62 334.43 1053.87 339.79 974.03 441.85 901.18 536.85 1030.81 540.27
CROP_BBOX: 401 0 1457 983
