Video ID: 	Sxgyljamz9U
H: 	1080
W: 	1920
FPS: 	25.0

FRAME INDEX X0 Y0 W H [Landmarks (5 Points)]

00041398 00000000 561.39 156.71 391.12 568.58 682.87 404.18 865.14 428.48 768.23 519.36 666.86 578.60 828.50 599.11
00041399 DELETE   560.93 155.60 388.95 562.79 682.44 400.42 861.40 425.42 768.15 512.12 669.32 573.46 824.91 594.79
00041400 00000002 556.25 149.51 391.55 564.20 680.12 388.55 857.61 418.05 762.79 497.39 668.72 566.81 813.77 592.52
00041401 00000003 555.84 143.71 386.16 578.64 677.32 383.33 854.18 413.95 761.19 492.26 664.62 566.81 812.05 593.70
00041402 00000004 554.46 142.56 384.25 571.83 673.73 378.77 850.67 408.94 757.72 487.40 662.65 563.46 809.46 590.26
00041403 00000005 552.59 138.34 383.88 571.23 672.67 376.84 850.27 408.00 757.14 485.06 659.54 559.23 808.45 586.70
00041404 00000006 552.78 140.50 382.99 561.07 674.51 375.09 851.88 405.94 759.42 482.60 660.65 555.41 809.47 582.41
00041405 00000007 554.12 140.42 379.23 554.35 679.30 372.57 857.50 403.57 766.64 479.71 666.09 551.30 816.36 578.03
00041406 00000008 554.89 138.42 380.62 549.31 683.01 367.46 860.40 398.63 769.91 469.54 670.34 545.54 817.56 572.45
00041407 00000009 555.58 140.24 380.63 540.64 687.74 362.80 863.33 394.36 775.37 461.50 676.29 540.00 820.90 567.25
00041408 00000010 555.39 137.30 378.56 539.21 686.84 359.84 861.43 390.19 775.23 457.13 677.63 537.13 821.17 563.25
00041409 00000011 554.84 137.75 375.81 533.52 682.98 358.55 856.83 387.90 770.08 455.91 675.40 536.70 817.41 561.74
00041410 00000012 555.38 140.34 374.42 526.95 684.59 357.80 858.13 388.24 770.75 454.65 675.92 533.35 817.85 559.39
00041411 00000013 557.45 138.69 374.80 527.14 691.38 359.11 862.66 390.79 778.30 453.58 682.39 530.83 822.65 558.13
00041412 DELETE   570.49 138.40 376.30 524.79 718.96 356.52 889.14 398.35 815.49 450.10 709.41 526.24 846.34 561.83
00041413 DELETE   588.38 147.44 368.83 517.99 740.53 355.03 909.13 400.83 841.86 452.59 730.31 527.94 864.70 566.83
00041414 DELETE   597.23 148.47 371.56 517.17 754.49 351.07 922.15 400.94 854.48 454.38 740.27 527.18 871.97 569.32
00041415 00000017 602.95 142.12 381.51 515.47 780.23 349.11 938.49 404.66 872.21 446.77 756.40 517.85 879.34 564.26
00041416 DELETE   603.88 143.52 379.84 512.94 780.44 347.26 937.79 403.44 871.49 443.93 754.97 515.76 877.65 562.69
00041417 DELETE   598.14 141.05 382.09 514.73 774.28 347.14 932.71 401.19 865.65 439.94 745.34 512.83 870.62 558.22
00041418 DELETE   600.83 146.65 376.09 504.97 755.11 339.45 924.65 393.29 854.33 436.13 738.25 511.97 869.51 557.74
00041419 00000021 598.17 144.75 373.93 505.90 749.32 335.35 915.89 387.96 845.34 434.38 731.62 509.41 861.74 554.77
00041420 00000022 595.57 144.04 372.59 505.49 745.84 333.37 912.62 387.67 840.39 432.95 726.46 507.04 857.35 553.83
00041421 00000023 592.59 142.67 373.52 508.69 743.40 334.89 909.74 388.77 837.60 433.66 724.63 508.60 855.15 554.93
00041422 00000024 586.53 133.25 375.88 518.23 735.19 332.71 901.66 387.88 828.21 429.60 717.75 506.00 850.80 552.91
00041423 00000025 578.07 126.95 376.82 528.33 724.45 334.20 888.67 384.86 816.73 429.79 710.23 508.70 841.95 551.47
00041424 DELETE   573.23 128.86 380.71 527.79 716.64 335.74 886.66 384.37 808.51 428.94 703.85 512.27 838.39 553.04
00041425 00000027 563.78 132.63 383.44 532.44 704.83 342.68 876.30 388.31 792.17 437.36 687.93 519.29 825.54 557.46
00041426 00000028 563.85 133.07 382.15 533.31 703.04 343.49 872.38 387.50 786.78 437.80 685.24 520.49 820.50 557.51
00041427 00000029 560.46 128.45 382.66 543.76 696.91 341.58 865.25 383.42 778.83 439.25 680.37 523.65 815.59 559.22
00041428 00000030 561.50 123.52 383.00 548.53 694.76 337.20 865.77 379.44 777.68 434.71 679.20 520.42 818.78 556.26
00041429 00000031 562.18 118.69 383.29 550.91 695.60 334.70 866.22 377.55 778.14 430.49 679.92 517.80 819.38 554.01
00041430 00000032 567.16 116.82 386.14 546.31 699.17 330.84 874.91 372.55 785.37 426.98 686.14 512.71 830.79 547.46
00041431 00000033 568.17 118.56 386.79 546.30 700.19 332.71 873.93 373.10 785.39 431.23 687.01 514.89 830.20 548.76
00041432 DELETE   569.25 125.46 386.93 550.80 701.74 343.53 872.82 382.46 783.39 446.64 686.94 527.17 825.87 560.50
00041433 00000035 571.28 130.29 389.42 558.71 701.08 353.60 876.67 389.20 782.34 461.18 687.55 540.13 831.65 570.84
00041434 00000036 573.72 133.77 390.43 558.78 701.85 358.41 878.14 395.69 781.35 468.91 687.22 543.77 832.96 575.97
00041435 00000037 574.93 133.08 392.34 560.77 703.94 356.60 880.72 394.41 784.04 469.60 688.52 543.51 835.20 576.23
00041436 00000038 577.26 132.09 393.74 559.63 705.90 355.36 883.85 392.26 785.98 468.66 691.54 543.98 837.62 575.91
00041437 00000039 577.97 135.24 393.62 556.10 706.66 356.89 884.41 394.66 785.32 470.99 691.42 545.10 837.17 577.89
00041438 00000040 578.44 136.58 393.68 557.64 706.64 361.25 883.01 399.54 783.68 477.53 689.71 549.51 834.18 582.94
00041439 00000041 577.70 136.57 395.76 558.82 706.49 362.60 883.50 400.05 784.03 479.41 690.30 551.79 834.35 584.45
00041440 00000042 578.86 137.31 400.01 559.90 710.61 365.13 889.25 404.62 789.98 482.92 692.88 554.36 838.58 588.28
00041441 00000043 581.27 143.31 402.11 570.64 717.29 369.63 893.98 410.64 800.40 488.56 695.44 562.38 840.84 597.61
00041442 00000044 581.72 143.27 401.90 574.44 718.29 370.72 894.00 411.35 801.82 489.06 696.44 563.57 842.09 598.41
00041443 00000045 581.94 144.60 401.85 571.00 718.81 373.70 894.35 414.73 803.16 494.21 696.68 564.01 842.86 599.10
00041444 00000046 581.18 147.51 400.35 563.18 717.43 376.79 890.94 417.70 802.38 496.21 697.37 564.04 841.18 599.00
00041445 00000047 579.01 149.95 403.84 569.40 712.75 388.58 890.03 423.23 800.66 509.52 697.44 577.49 843.66 606.77
00041446 00000048 578.71 151.16 403.73 572.15 713.12 392.08 890.98 428.35 800.88 514.24 696.24 579.85 844.84 610.17
00041447 00000049 578.31 154.14 403.57 575.24 715.19 395.67 889.95 433.02 802.17 519.42 696.21 581.01 844.10 612.01
00041448 00000050 577.84 152.66 404.58 578.87 713.37 394.09 889.01 432.74 803.40 512.01 703.57 583.49 848.37 614.76
00041449 00000051 577.12 152.31 405.52 578.95 714.25 392.79 888.07 431.73 803.55 508.49 704.95 582.37 846.94 613.82
00041450 00000052 577.85 154.29 405.63 571.58 716.59 392.46 890.28 430.02 806.42 504.01 708.14 579.75 848.82 609.83
00041451 00000053 579.01 153.75 406.08 571.22 717.70 393.50 889.67 430.28 807.11 501.40 710.80 579.15 849.66 608.40
00041452 00000054 579.93 155.59 403.86 566.64 719.51 392.27 890.09 430.05 808.65 500.58 711.78 576.59 849.27 606.81
00041453 00000055 586.30 149.03 395.26 581.06 725.42 394.56 897.81 428.82 809.94 508.16 700.67 574.18 843.37 605.56
00041454 00000056 584.59 152.59 395.28 576.60 725.07 393.71 897.11 428.83 809.45 508.89 698.43 572.99 842.16 605.09
00041455 00000057 575.49 155.73 399.07 560.68 718.49 394.06 892.05 430.47 811.52 508.20 699.71 572.96 845.80 603.59
00041456 00000058 573.42 145.94 395.35 568.83 713.16 392.12 884.79 425.25 806.17 501.99 699.29 570.66 844.44 598.50
00041457 00000059 563.17 144.20 399.84 579.94 701.22 386.52 875.53 420.71 788.03 499.76 685.40 575.73 824.17 605.74
00041458 00000060 559.38 148.54 395.84 574.25 691.92 390.69 871.84 425.03 780.34 500.64 673.55 573.90 822.35 603.82
00041459 00000061 557.06 150.53 393.81 568.39 691.73 394.59 872.53 426.86 782.47 504.31 672.58 573.31 823.34 601.61
00041460 00000062 559.37 152.16 391.11 559.23 696.26 395.63 874.26 426.62 786.84 503.24 678.50 572.51 823.25 600.05
00041461 00000063 566.58 143.74 383.45 575.48 704.03 392.28 877.66 420.66 796.14 502.65 683.34 576.71 827.63 602.50
00041462 00000064 561.75 152.44 387.40 547.84 702.05 384.61 875.27 422.47 788.23 491.63 681.38 561.74 818.25 595.26
00041463 DELETE   558.25 143.38 385.51 542.62 700.76 370.30 873.08 408.81 787.85 476.21 683.52 549.11 821.82 583.04
00041464 DELETE   556.39 139.98 386.21 537.52 702.34 357.67 871.72 394.64 791.47 455.31 685.19 535.27 820.37 567.53
00041465 DELETE   555.23 132.43 388.44 540.80 701.48 350.74 871.31 389.44 792.18 445.92 686.29 528.29 823.52 561.46
00041466 00000068 558.25 124.43 387.32 541.77 702.50 337.32 878.64 379.37 798.53 425.50 692.54 517.87 834.57 552.82
00041467 00000069 561.24 123.55 387.44 542.05 704.59 334.93 883.37 376.26 804.90 419.73 698.91 516.71 842.88 550.99
00041468 00000070 565.79 125.93 385.29 539.39 707.76 335.50 885.91 375.90 807.15 421.09 702.38 518.32 845.03 552.22
00041469 00000071 566.48 126.89 385.24 540.62 709.19 337.59 886.72 376.50 809.20 422.44 704.92 520.29 847.40 552.97
00041470 00000072 567.39 129.55 387.52 542.65 711.16 341.30 888.65 378.50 812.63 429.23 707.65 526.38 850.94 558.02
00041471 00000073 568.22 138.13 388.58 544.02 712.86 347.06 890.61 383.68 814.99 434.60 707.08 531.72 854.42 563.09
00041472 00000074 569.85 143.93 387.77 542.20 709.92 348.30 888.58 383.38 817.59 431.04 707.84 537.36 856.22 566.26
00041473 00000075 566.47 146.47 388.90 544.75 702.59 354.17 884.49 381.54 809.29 430.43 705.85 544.43 853.40 566.58
00041474 00000076 565.26 148.05 387.48 544.37 698.74 355.18 879.96 377.19 804.76 430.29 702.45 544.28 851.18 562.19
00041475 00000077 563.50 149.09 387.78 545.64 697.80 358.29 878.60 377.73 803.40 430.07 703.87 545.53 852.14 561.32
00041476 00000078 564.87 152.16 388.47 545.60 699.90 357.92 880.05 377.90 804.88 431.84 705.30 547.03 853.39 563.29
00041477 00000079 566.03 153.32 387.71 546.00 701.12 358.61 881.20 376.18 807.70 431.49 708.44 549.96 854.97 564.31
00041478 00000080 569.76 155.83 386.90 552.45 705.93 360.73 880.32 378.43 809.97 436.62 712.88 556.39 853.21 571.15
00041479 00000081 573.00 160.25 388.76 562.68 711.07 366.09 887.00 390.22 812.43 451.08 714.32 566.72 851.28 586.81
00041480 00000082 572.91 159.21 388.25 566.57 709.71 367.96 885.99 392.20 811.66 453.66 713.53 571.19 850.65 591.42
00041481 00000083 570.81 159.45 387.97 571.24 705.82 371.57 882.43 394.49 808.62 457.76 711.26 575.78 850.38 594.98
00041482 00000084 569.20 162.26 388.17 568.90 704.32 373.85 881.57 396.89 806.69 460.22 709.76 577.39 849.83 596.71
00041483 00000085 569.30 162.96 388.59 568.35 702.22 378.05 881.40 399.73 805.55 464.74 710.48 580.75 851.91 598.63
00041484 00000086 569.08 165.53 389.40 566.15 702.90 382.33 881.78 404.89 806.85 469.60 710.39 581.44 853.54 599.89
00041485 00000087 567.50 166.89 390.82 566.17 702.25 384.65 880.20 407.47 807.10 472.57 710.57 581.94 854.02 600.59
00041486 00000088 567.44 166.79 390.50 563.12 700.27 386.45 881.45 407.61 806.61 473.34 709.92 580.12 858.97 597.07
00041487 00000089 567.32 167.12 391.84 559.78 700.49 386.07 882.28 406.73 806.45 473.15 710.74 577.20 861.29 593.40
00041488 00000090 568.26 167.37 391.25 556.65 699.87 385.88 883.93 406.50 807.35 472.69 710.26 577.20 863.48 593.42
00041489 00000091 570.95 167.75 391.07 551.29 700.63 385.73 884.55 403.62 808.56 471.77 712.40 575.72 866.16 589.81
00041490 00000092 571.98 166.89 390.21 549.02 701.01 384.63 884.73 401.73 809.17 470.81 712.66 574.46 867.21 587.90
00041491 00000093 577.18 159.74 390.51 552.81 704.65 380.77 889.42 395.85 814.44 469.66 714.86 571.43 872.69 583.34
00041492 00000094 580.48 157.72 390.90 551.56 707.26 378.92 895.57 393.60 818.23 467.84 716.22 569.61 878.18 581.15
00041493 00000095 581.45 155.39 390.91 553.79 708.53 377.67 897.30 392.57 820.95 467.56 717.48 568.60 880.11 580.23
00041494 00000096 583.37 154.92 392.91 551.32 709.70 376.79 900.20 389.59 822.88 464.46 721.12 570.18 882.31 579.74
00041495 00000097 584.32 153.74 393.67 556.15 709.57 377.72 901.25 389.86 823.66 463.40 724.93 575.97 882.30 584.86
00041496 00000098 584.97 152.39 392.44 560.33 710.62 378.42 900.49 392.05 823.53 465.83 726.01 579.19 878.55 589.61
00041497 00000099 588.95 153.46 390.57 572.42 712.60 383.68 899.92 393.91 825.07 470.28 729.00 586.32 880.77 594.51
00041498 00000100 590.89 154.86 391.61 575.12 714.32 384.90 901.80 393.65 827.34 470.71 732.00 587.16 885.43 594.12
00041499 00000101 594.04 155.78 390.64 573.67 717.06 385.28 903.23 393.20 829.82 469.64 734.19 586.29 887.51 592.75
00041500 00000102 595.38 152.14 390.59 567.90 718.31 384.12 905.37 392.03 831.59 468.04 734.16 581.37 889.89 587.54
00041501 00000103 596.05 152.25 389.84 559.08 718.03 383.05 906.43 391.35 832.36 468.22 732.54 576.95 891.34 583.29
00041502 00000104 594.72 151.69 390.58 547.32 715.24 381.70 904.75 388.36 828.63 467.68 728.78 570.52 890.64 575.19
00041503 00000105 593.52 151.57 391.57 545.50 714.44 380.67 903.59 387.81 827.92 467.20 727.91 569.58 888.50 574.62
00041504 00000106 589.56 147.36 391.24 551.87 709.65 376.82 894.51 386.46 817.24 463.61 721.23 565.72 875.95 572.59
00041505 00000107 588.64 143.76 389.06 557.36 707.42 374.13 888.26 387.66 808.48 465.80 712.49 560.87 868.33 571.41
00041506 00000108 586.82 145.07 391.57 557.55 701.70 373.09 881.69 387.95 795.22 466.71 703.94 559.48 861.96 571.24
00041507 DELETE   587.11 147.64 393.09 559.07 700.12 373.14 878.46 392.07 787.38 470.97 699.09 562.18 853.50 577.35
00041508 00000110 586.13 150.18 394.48 565.59 697.72 376.40 874.66 399.02 779.67 475.58 695.51 567.31 847.51 585.26
00041509 DELETE   585.68 151.97 396.87 567.28 697.77 378.17 873.97 402.40 778.53 480.33 694.53 567.76 847.27 587.16
00041510 DELETE   583.19 161.29 399.68 568.04 695.73 390.34 871.24 417.55 773.89 492.52 690.66 574.86 846.05 597.05
00041511 00000113 582.43 169.07 401.43 575.45 692.61 409.43 872.38 430.83 771.20 512.92 691.27 596.76 844.68 614.94
00041512 00000114 581.32 172.41 402.90 573.67 693.76 412.19 871.00 434.08 771.41 516.41 691.17 597.64 843.78 616.31
00041513 00000115 583.55 173.17 405.94 582.95 695.61 413.21 872.97 441.49 769.20 523.60 688.76 602.18 840.31 626.49
00041514 00000116 583.82 177.03 405.29 580.28 695.46 413.39 872.69 442.97 767.41 525.36 687.42 603.43 837.67 629.03
CROP_BBOX: 340 0 1253 887
