Video ID: 	QK-DpZ-Boyw
H: 	1080
W: 	1920
FPS: 	25.0

FRAME INDEX X0 Y0 W H [Landmarks (5 Points)]

00024970 00000000 928.57 107.11 523.67 739.07 981.36 410.52 1179.51 386.41 974.57 477.97 972.16 662.68 1119.89 647.13
00024971 00000001 925.19 105.23 525.56 753.15 980.55 408.39 1182.64 382.55 976.91 475.20 975.68 667.23 1127.42 650.00
00024972 00000002 932.81 97.62 523.58 773.49 988.35 426.58 1172.59 385.49 975.09 482.32 992.54 684.99 1133.67 652.49
00024973 00000003 925.98 101.48 529.21 788.13 979.73 419.81 1183.45 378.01 975.72 477.17 993.06 692.25 1145.36 660.54
00024974 00000004 925.10 107.04 526.50 791.47 976.74 421.38 1181.84 376.72 972.22 476.50 994.96 697.55 1151.62 662.60
00024975 00000005 922.50 98.75 528.83 800.54 973.70 428.82 1166.23 375.13 966.63 473.56 989.90 695.89 1150.02 652.09
00024976 00000006 910.95 99.44 531.16 777.23 967.97 412.73 1162.42 362.77 959.15 458.36 976.83 676.63 1130.32 636.49
00024977 00000007 894.35 82.67 535.44 694.34 936.18 387.79 1151.84 344.01 934.67 423.70 932.77 635.17 1100.55 600.50
00024978 DELETE   896.15 105.77 522.83 661.00 992.27 321.71 1171.02 343.20 998.96 426.09 954.05 557.10 1083.83 574.81
00024979 00000009 864.65 123.74 497.65 666.44 952.02 340.41 1156.94 326.82 934.06 347.54 897.55 553.50 1063.61 540.90
00024980 00000010 850.06 97.60 547.62 668.35 965.50 315.97 1132.57 315.00 911.02 339.46 887.01 541.24 1026.97 537.32
00024981 00000011 862.08 82.76 553.29 664.81 945.11 336.72 1132.68 312.11 909.01 356.43 891.90 559.94 1039.79 538.77
00024982 00000012 871.58 102.89 549.50 655.25 931.18 344.89 1140.50 311.06 920.32 366.99 897.01 577.03 1062.75 549.76
00024983 00000013 885.94 116.50 539.66 676.31 929.50 369.02 1147.47 304.84 931.52 379.17 935.38 614.09 1112.22 561.71
00024984 00000014 887.38 122.57 532.05 663.96 927.88 383.67 1157.10 307.16 962.11 393.53 967.17 625.85 1157.67 562.39
00024985 00000015 897.60 148.54 516.39 634.51 932.82 393.46 1161.59 320.02 959.75 382.69 950.62 615.34 1149.45 555.44
00024986 00000016 900.61 140.77 532.66 640.71 934.34 406.25 1158.03 311.47 972.50 394.41 983.74 627.25 1175.47 547.52
00024987 00000017 875.02 157.78 534.51 605.44 909.30 395.43 1130.15 310.46 930.36 379.69 931.88 607.82 1123.14 539.14
00024988 00000018 864.80 145.94 522.38 589.71 920.37 367.67 1102.41 317.18 895.03 378.40 889.41 577.51 1045.79 535.42
00024989 00000019 828.35 176.57 517.06 559.48 922.70 367.13 1083.21 325.47 872.04 371.83 855.69 568.19 989.96 531.23
00024990 00000020 810.34 207.51 535.57 551.31 943.70 374.70 1077.02 341.40 865.79 384.88 842.05 561.51 951.62 534.44
00024991 00000021 784.05 187.90 536.90 577.77 910.55 386.08 1042.91 353.28 825.78 388.04 810.26 584.08 918.40 553.47
00024992 00000022 779.54 179.86 537.88 601.63 915.51 388.71 1036.31 360.92 823.94 399.14 811.03 590.96 909.81 565.09
00024993 00000023 788.93 174.62 530.35 624.30 904.04 392.09 1033.31 357.90 818.11 416.40 822.54 610.11 928.05 579.48
00024994 00000024 797.40 163.60 532.61 649.62 896.32 394.04 1039.38 356.45 820.63 428.92 830.00 625.31 945.25 593.02
00024995 00000025 808.00 149.03 532.32 675.88 888.89 399.14 1042.46 361.12 821.62 441.71 836.36 639.10 955.61 607.44
00024996 00000026 818.54 159.08 533.49 684.62 893.98 409.42 1044.09 380.24 832.65 452.71 845.59 649.85 959.60 625.38
00024997 00000027 817.48 156.21 538.32 716.11 891.17 419.14 1053.10 384.32 843.40 463.23 862.50 672.49 980.29 644.29
00024998 00000028 823.36 156.30 533.28 732.46 883.59 438.34 1056.01 392.33 849.80 484.13 874.26 699.21 1001.18 662.30
00024999 00000029 825.32 165.01 527.42 725.56 878.92 450.82 1053.91 400.44 849.08 496.57 875.57 710.52 1003.85 669.91
00025000 00000030 831.50 157.61 518.19 714.91 879.30 452.84 1047.51 409.03 845.97 508.26 871.47 705.06 995.10 670.00
00025001 00000031 833.78 159.06 507.19 705.88 879.65 455.43 1039.28 417.15 839.09 514.95 862.68 703.25 980.54 672.55
00025002 00000032 834.50 160.40 498.37 705.89 875.29 460.85 1032.60 422.16 832.71 521.99 859.91 708.14 978.20 677.43
00025003 00000033 828.55 157.31 500.57 717.40 867.50 464.03 1030.11 423.60 829.70 526.52 857.64 716.74 979.73 685.14
00025004 00000034 825.15 154.28 510.00 733.59 866.65 466.30 1032.98 421.44 833.58 526.89 863.63 724.49 988.12 689.16
00025005 00000035 824.85 144.30 518.17 748.45 868.71 469.34 1037.58 420.75 845.01 528.00 875.66 727.34 1004.02 688.73
00025006 00000036 830.47 144.81 510.69 734.42 858.71 471.13 1045.20 424.39 851.22 531.83 870.10 723.63 1016.94 686.62
00025007 00000037 825.49 141.89 512.85 738.16 858.64 471.84 1046.70 424.79 855.06 531.43 870.41 723.00 1018.77 686.08
00025008 00000038 822.56 131.47 507.66 745.06 860.38 474.58 1046.27 426.64 858.89 525.83 878.15 716.80 1022.45 677.84
00025009 00000039 816.68 141.00 516.37 747.31 857.60 474.23 1042.26 433.12 847.61 537.14 862.09 726.91 1002.44 695.14
00025010 00000040 824.51 141.68 491.17 729.95 863.30 475.48 1035.97 436.81 847.09 530.83 860.34 713.96 990.64 684.05
00025011 00000041 821.84 150.47 488.92 724.62 861.62 478.97 1030.06 440.94 838.27 533.91 853.23 720.23 979.50 690.98
00025012 00000042 819.95 157.22 486.10 719.03 867.39 479.08 1023.01 445.37 831.33 535.32 847.14 716.77 967.73 690.88
00025013 00000043 822.07 161.55 489.37 720.77 873.99 476.28 1029.78 449.42 834.67 535.08 845.72 716.14 965.33 696.34
00025014 00000044 829.87 162.26 494.00 722.50 883.85 475.94 1047.06 452.00 853.98 536.11 858.15 716.11 979.27 699.06
00025015 00000045 840.90 171.41 503.39 719.30 892.15 468.49 1061.80 454.84 863.00 552.16 856.94 718.96 980.57 709.87
00025016 00000046 839.74 168.11 509.70 721.83 892.72 467.32 1072.49 451.78 873.32 547.03 861.78 718.55 992.81 708.74
00025017 00000047 843.61 156.86 496.22 723.49 886.54 476.55 1072.36 453.38 876.38 538.81 873.97 715.92 1007.26 699.05
00025018 00000048 836.19 154.87 499.34 732.67 880.47 476.10 1068.48 452.80 870.43 540.15 870.59 717.23 1010.36 699.91
00025019 00000049 827.65 152.50 511.02 751.90 872.91 476.09 1061.80 451.70 858.11 546.87 866.02 728.79 1011.66 710.50
00025020 00000050 815.11 149.65 512.47 752.85 878.77 474.59 1051.57 455.20 853.38 535.57 854.90 717.57 988.36 703.22
00025021 00000051 810.02 152.63 509.22 742.96 875.65 474.60 1046.68 457.92 849.36 533.12 846.60 713.13 979.10 701.17
00025022 00000052 811.19 154.48 507.61 738.61 874.51 471.40 1045.75 453.23 844.07 530.55 842.92 712.36 975.36 699.23
00025023 00000053 816.31 153.58 505.70 734.40 877.88 470.37 1044.14 447.21 843.27 527.43 848.34 712.24 974.95 694.85
00025024 00000054 822.51 154.58 503.07 730.78 876.56 471.29 1045.60 444.97 844.93 528.45 852.71 712.92 982.29 692.86
00025025 00000055 826.71 159.24 499.55 732.52 878.42 473.38 1043.60 443.35 844.16 530.57 857.23 717.04 983.99 693.84
00025026 00000056 825.62 161.08 505.50 758.70 877.18 476.08 1038.99 446.46 835.19 539.88 863.19 737.22 983.91 714.02
00025027 00000057 827.05 163.02 501.50 755.70 875.13 479.17 1038.60 447.77 837.05 543.27 863.87 740.78 984.80 716.07
00025028 00000058 830.55 167.17 498.05 745.42 877.49 480.71 1040.39 448.60 839.40 543.22 867.24 739.20 987.52 713.87
00025029 00000059 836.56 157.48 494.84 733.21 882.50 473.10 1049.47 444.98 849.41 533.63 866.54 718.62 992.82 696.69
00025030 00000060 843.12 163.90 494.64 721.58 889.60 465.50 1057.08 448.70 857.63 538.90 871.27 712.80 998.36 700.53
00025031 00000061 842.74 165.79 499.57 719.86 893.97 459.54 1065.04 448.38 862.56 534.37 870.80 706.09 1001.84 698.58
00025032 00000062 838.88 163.04 506.35 730.17 900.57 454.49 1067.64 448.78 861.24 530.33 867.98 705.42 992.70 702.50
00025033 00000063 836.72 172.59 514.83 725.74 910.72 444.37 1068.00 454.11 860.05 538.77 855.28 700.09 972.09 710.01
00025034 00000064 842.09 165.48 503.63 735.63 917.82 449.80 1072.26 454.30 868.04 533.44 873.31 706.09 985.69 711.63
00025035 00000065 848.78 166.53 509.30 734.22 929.79 445.23 1079.71 454.08 873.58 528.41 880.13 699.18 992.84 707.99
00025036 00000066 852.90 164.59 514.34 738.01 940.94 446.69 1093.12 455.18 880.71 524.38 887.87 698.66 1003.22 707.10
00025037 00000067 870.63 168.07 509.03 731.12 946.66 448.47 1108.29 454.23 896.28 528.79 901.45 702.20 1020.49 708.68
00025038 00000068 881.44 160.77 510.86 738.25 950.89 447.68 1119.64 449.97 907.34 527.65 909.07 705.14 1032.11 709.25
00025039 00000069 899.43 167.03 498.10 728.99 958.91 452.69 1125.70 450.69 916.39 534.23 924.98 710.75 1049.89 710.56
00025040 00000070 901.03 163.80 502.21 729.19 959.03 454.74 1134.11 449.78 926.09 536.82 929.73 713.19 1058.00 711.08
00025041 00000071 904.98 159.34 500.38 730.11 960.94 455.40 1134.51 450.08 928.79 537.32 933.41 711.73 1060.84 709.29
00025042 00000072 904.17 165.48 499.87 731.03 961.04 458.65 1135.02 451.16 927.35 537.34 934.65 716.18 1063.79 711.72
00025043 00000073 901.57 172.20 499.74 728.36 964.26 456.43 1135.53 454.11 927.62 535.16 933.74 712.13 1062.17 711.63
00025044 00000074 898.29 169.52 502.18 737.63 962.67 454.57 1136.94 452.28 927.58 533.16 930.82 713.98 1060.86 713.69
00025045 00000075 892.28 176.11 510.58 728.11 958.63 438.79 1138.11 449.46 923.79 527.13 911.87 703.78 1052.64 714.83
00025046 00000076 887.21 164.51 510.87 729.84 957.95 444.61 1135.39 450.62 924.72 524.99 917.67 700.71 1048.75 708.24
00025047 00000077 883.12 160.92 513.48 727.85 953.85 443.96 1128.51 447.63 917.81 522.13 913.84 697.57 1043.31 703.14
00025048 00000078 889.93 155.04 512.50 732.34 954.00 445.69 1138.01 447.76 930.63 523.76 919.25 697.98 1055.64 702.63
00025049 00000079 903.07 155.12 511.40 731.84 965.75 449.36 1151.87 445.33 948.88 521.97 937.75 698.46 1084.13 697.17
00025050 00000080 917.03 153.40 521.24 736.03 981.81 451.00 1177.59 444.25 972.06 524.20 960.40 698.72 1114.70 695.41
00025051 00000081 930.79 152.80 527.26 739.02 994.70 449.16 1199.09 446.80 989.48 527.37 972.27 701.24 1130.28 702.23
00025052 00000082 946.68 153.70 518.42 739.93 1003.56 454.65 1206.47 452.33 999.88 532.66 981.09 705.94 1135.45 707.36
00025053 00000083 950.72 153.63 515.99 738.90 1006.62 454.16 1204.65 458.74 995.87 537.09 977.92 705.05 1125.56 712.13
00025054 00000084 939.32 167.41 513.03 718.36 1008.52 450.13 1192.96 465.72 980.59 534.58 964.62 695.74 1105.06 711.21
00025055 00000085 936.59 168.09 508.30 711.68 1010.32 446.64 1188.10 465.25 974.85 530.98 962.02 690.53 1095.25 708.25
00025056 00000086 937.76 170.04 514.77 706.29 1010.74 443.77 1197.49 461.09 981.92 521.98 961.87 687.67 1101.11 704.68
00025057 00000087 942.19 158.21 520.45 718.77 1012.57 437.52 1209.85 453.23 997.66 517.67 968.49 687.53 1113.79 703.77
00025058 00000088 941.98 162.83 523.18 716.55 1012.26 438.88 1216.35 450.71 1006.10 514.88 972.91 686.52 1123.78 699.73
00025059 00000089 931.22 143.55 532.56 741.10 1008.40 436.71 1211.02 447.94 998.41 510.65 964.36 685.63 1113.97 698.92
00025060 00000090 917.72 157.87 538.49 736.79 1008.03 437.48 1195.00 449.71 978.58 512.74 956.01 685.37 1095.69 698.63
00025061 00000091 913.20 162.77 525.46 734.79 994.67 446.70 1174.78 450.80 962.09 517.96 950.42 694.71 1085.40 700.50
00025062 00000092 911.16 176.90 512.67 719.57 984.18 443.75 1161.61 454.76 955.42 530.72 937.56 694.54 1070.79 706.51
00025063 00000093 909.37 178.31 509.58 723.47 979.02 450.11 1155.36 457.71 952.25 539.62 936.26 702.80 1067.40 711.58
00025064 00000094 906.66 180.25 510.06 730.41 974.36 452.59 1149.96 457.61 944.08 543.25 932.82 710.52 1061.90 716.58
00025065 00000095 903.50 176.20 513.72 742.09 967.05 454.67 1146.07 455.69 940.23 546.72 929.78 719.54 1060.06 722.32
00025066 00000096 903.75 166.90 510.91 755.94 963.23 453.44 1144.41 455.28 939.71 551.40 930.94 724.33 1063.74 727.77
00025067 00000097 899.87 171.15 513.63 757.89 964.12 458.14 1144.08 455.93 939.39 550.90 936.26 727.60 1070.01 727.81
00025068 00000098 903.37 168.89 511.50 752.41 959.31 460.92 1145.29 456.43 941.87 557.07 935.78 729.69 1078.10 727.94
00025069 00000099 905.16 166.48 506.62 744.66 954.73 464.54 1143.24 458.62 943.26 556.39 933.27 726.67 1078.01 723.61
00025070 00000100 906.69 166.99 507.29 741.51 954.97 466.36 1144.54 458.22 943.61 557.04 932.66 728.20 1077.20 723.56
00025071 00000101 908.76 164.65 506.69 747.74 958.55 464.63 1146.44 456.79 944.65 555.18 937.09 729.12 1081.18 724.56
00025072 00000102 898.19 164.04 516.64 760.26 960.48 454.93 1148.76 448.26 941.27 541.12 937.33 723.83 1083.58 720.31
00025073 00000103 886.89 159.88 521.16 750.05 950.36 441.83 1139.28 438.11 926.36 524.27 916.25 710.29 1066.61 709.68
00025074 00000104 855.14 143.32 541.37 750.21 940.09 431.28 1134.86 428.23 920.04 495.94 903.64 687.49 1047.12 687.96
00025075 00000105 845.72 142.89 542.33 724.43 940.13 413.16 1131.13 412.82 913.14 467.75 888.94 657.05 1028.69 660.41
00025076 00000106 841.98 128.98 544.58 723.04 931.17 406.69 1128.61 404.63 906.85 455.04 880.79 644.31 1030.44 646.07
00025077 00000107 844.51 131.57 543.47 722.96 934.64 407.46 1131.96 403.47 911.17 452.99 886.31 643.87 1035.48 643.96
00025078 00000108 850.46 142.53 537.30 731.05 925.80 409.52 1120.05 403.16 894.48 454.55 880.83 663.12 1032.85 658.95
00025079 00000109 846.04 148.30 537.99 739.12 933.32 416.67 1126.34 403.35 907.26 464.31 893.61 668.10 1039.59 660.14
00025080 00000110 851.36 142.83 532.92 724.93 924.62 412.11 1113.90 408.43 887.19 459.14 874.65 663.70 1021.48 661.24
00025081 00000111 844.20 154.85 545.03 690.33 932.43 415.60 1117.94 407.90 896.71 457.08 875.47 646.70 1015.06 642.51
00025082 00000112 847.00 152.19 547.97 683.64 938.70 411.82 1127.82 406.95 907.93 446.01 878.06 638.61 1024.25 637.18
00025083 00000113 861.68 152.91 542.13 691.73 943.35 409.46 1131.02 408.46 905.41 446.87 883.82 643.87 1031.08 643.22
00025084 00000114 872.14 150.53 541.02 718.86 952.13 413.68 1137.05 403.69 915.47 457.28 905.81 661.90 1045.19 654.15
00025085 00000115 870.83 154.82 543.02 723.07 963.60 402.97 1147.49 398.29 923.86 444.29 909.46 651.95 1054.41 648.85
00025086 00000116 873.42 153.63 549.79 711.05 965.89 401.31 1151.47 393.96 927.28 439.85 911.27 646.08 1052.56 641.04
00025087 00000117 878.72 143.80 549.80 691.86 959.85 397.16 1158.08 391.61 935.51 438.49 906.64 637.53 1054.04 634.91
00025088 00000118 890.86 139.21 539.06 675.89 970.25 395.25 1162.39 391.51 938.57 436.10 905.94 628.48 1050.07 626.84
00025089 00000119 897.24 130.38 539.13 684.33 967.45 400.72 1174.81 394.08 946.19 442.00 907.33 637.74 1068.36 634.12
00025090 00000120 901.14 142.70 544.10 711.70 983.40 410.33 1182.50 402.53 953.40 442.27 924.61 646.90 1079.94 642.39
00025091 00000121 905.88 146.24 554.86 743.36 991.22 420.31 1200.89 404.86 960.31 453.75 935.13 670.29 1101.07 659.98
00025092 00000122 916.99 143.06 541.27 741.83 996.63 425.89 1206.32 393.92 979.06 458.37 961.67 675.29 1136.10 650.86
00025093 00000123 921.07 139.22 529.79 724.75 979.31 411.16 1199.62 395.41 974.15 445.66 951.78 662.79 1131.18 650.88
00025094 00000124 914.28 140.73 489.51 713.87 973.30 404.83 1196.95 398.79 993.13 445.59 955.06 653.74 1138.48 649.86
00025095 00000125 908.54 146.29 512.79 686.00 971.66 417.66 1210.61 398.67 990.26 449.29 946.35 653.66 1130.45 640.60
00025096 00000126 897.51 167.29 551.61 645.28 984.36 427.87 1185.30 407.44 988.26 449.59 947.37 635.49 1102.22 618.85
00025097 00000127 913.53 143.49 510.31 685.17 983.93 432.18 1179.37 397.18 1007.94 475.78 995.29 660.74 1134.05 632.86
00025098 00000128 896.78 171.79 533.43 662.31 958.84 431.81 1184.81 402.21 977.72 460.36 943.18 659.66 1118.90 637.80
00025099 00000129 898.92 177.62 530.65 654.70 955.56 435.82 1181.17 402.28 976.04 464.32 943.53 662.88 1121.59 637.95
00025100 00000130 896.90 177.23 533.35 658.32 955.38 435.23 1178.97 403.61 971.16 465.58 940.13 664.29 1115.23 640.37
00025101 00000131 894.10 170.24 535.21 687.37 950.90 440.74 1168.87 401.58 961.50 464.66 945.65 676.76 1116.28 646.53
00025102 00000132 892.09 163.82 532.31 706.29 948.14 445.72 1160.35 401.72 956.72 471.89 951.57 686.88 1115.32 652.29
00025103 00000133 890.74 165.30 530.01 702.29 947.00 445.18 1153.13 404.43 947.30 473.50 943.35 684.54 1103.20 652.55
00025104 00000134 890.53 169.25 526.85 699.34 948.82 450.04 1147.81 414.04 939.70 483.55 937.68 690.94 1089.73 662.77
CROP_BBOX: 530 0 1715 1080
