Video ID: 	8QpnSzuBTh4
H: 	1080
W: 	1920
FPS: 	23.976023976023978

FRAME INDEX X0 Y0 W H [Landmarks (5 Points)]

00016054 00000000 631.10 274.38 487.66 700.59 716.25 514.82 907.66 538.16 748.40 654.05 714.15 760.65 879.21 781.25
00016055 00000001 636.46 271.28 484.77 700.98 720.66 515.72 909.55 537.15 750.37 651.15 718.98 766.30 868.50 786.16
00016056 00000002 645.54 271.60 482.68 713.06 727.56 519.16 916.96 535.27 760.97 652.49 729.16 778.62 871.73 794.38
00016057 00000003 648.21 286.36 481.64 706.95 728.36 526.77 920.12 541.61 764.23 659.84 730.81 786.95 874.00 801.70
00016058 00000004 638.35 286.23 482.85 705.92 717.70 529.33 910.08 545.19 754.45 664.42 722.74 787.96 870.32 803.20
00016059 00000005 627.84 287.78 487.27 694.33 708.45 527.87 895.60 541.75 740.04 658.18 718.09 782.05 862.67 794.83
00016060 00000006 624.79 271.20 490.34 699.68 704.22 517.53 891.86 528.29 735.24 648.83 716.88 772.53 863.53 782.51
00016061 DELETE   634.79 260.16 490.68 702.43 715.57 503.87 902.56 514.81 747.74 632.71 724.09 758.25 872.89 768.60
00016062 00000008 651.27 255.99 486.65 701.61 731.15 493.27 915.24 506.18 763.72 619.91 739.30 749.54 885.99 761.43
00016063 00000009 671.10 254.17 478.64 699.08 745.44 486.21 925.89 500.78 774.22 612.46 752.54 744.42 894.50 757.54
00016064 00000010 677.92 247.02 472.57 700.68 750.87 480.72 931.79 499.72 778.11 608.99 752.78 738.11 894.62 755.14
00016065 00000011 680.83 237.76 473.67 698.74 751.63 476.33 936.27 494.64 779.66 604.00 751.50 733.67 892.91 750.64
00016066 00000012 682.50 238.49 476.29 687.96 751.69 472.86 939.55 492.34 783.12 602.73 751.67 726.26 898.47 744.14
00016067 00000013 685.41 237.04 478.49 681.70 756.68 468.33 945.00 488.46 790.38 599.77 759.05 718.76 907.27 737.20
00016068 00000014 687.55 237.58 477.28 674.77 761.80 466.63 948.81 486.32 798.79 596.89 764.10 713.39 911.70 731.27
00016069 00000015 688.68 239.28 476.30 668.35 763.70 466.24 951.60 485.65 802.92 596.39 766.35 710.73 915.46 728.23
00016070 00000016 690.00 237.78 476.71 670.33 764.07 466.17 952.11 485.25 802.78 596.58 768.09 711.66 916.91 728.80
00016071 00000017 690.10 240.62 477.22 668.27 764.73 466.77 952.67 485.65 803.63 597.05 768.95 711.35 918.30 728.27
00016072 00000018 690.34 241.50 476.71 667.54 765.20 467.56 953.05 485.25 804.55 596.91 770.39 711.81 920.41 727.62
00016073 00000019 690.15 240.70 477.23 669.18 765.06 468.10 952.87 486.07 803.92 596.74 770.11 711.95 920.09 728.01
00016074 00000020 690.33 241.01 477.26 669.15 764.61 468.33 952.44 486.24 803.44 597.16 770.05 712.59 920.12 728.54
00016075 00000021 690.36 240.25 477.90 671.60 763.37 468.75 951.87 486.98 801.54 598.66 768.82 713.97 920.47 730.06
00016076 00000022 689.90 238.95 478.40 675.21 762.53 467.99 950.91 487.66 799.54 600.16 767.67 714.06 920.16 731.30
00016077 00000023 689.23 238.13 478.07 677.32 761.80 467.65 950.45 487.62 799.04 601.17 766.88 714.70 920.45 732.16
00016078 00000024 689.41 241.34 478.03 675.70 761.91 468.03 950.02 487.87 798.83 601.24 766.74 714.96 920.96 732.29
00016079 00000025 689.34 241.00 478.02 675.65 761.87 467.93 949.88 487.63 798.88 601.38 767.31 714.48 921.78 731.59
00016080 00000026 689.18 239.38 476.73 678.12 761.38 468.36 948.19 488.48 797.75 601.68 767.04 714.07 922.55 731.62
00016081 00000027 688.55 240.39 476.84 676.83 763.74 471.24 951.51 489.61 803.18 601.33 769.14 714.51 925.38 730.31
00016082 00000028 688.90 239.77 476.96 677.28 765.34 471.45 951.45 487.79 804.18 599.01 771.37 713.55 928.61 727.56
00016083 00000029 689.95 238.44 476.45 674.97 766.75 466.94 951.18 487.43 803.16 595.78 770.96 708.44 926.04 726.21
00016084 00000030 691.36 238.07 475.18 673.37 766.74 466.63 949.76 486.05 803.03 595.22 771.30 706.54 925.87 723.49
00016085 00000031 688.39 230.50 483.00 677.04 768.33 471.38 958.24 489.51 802.16 595.68 774.07 712.06 931.81 727.20
00016086 00000032 689.10 228.49 483.42 677.21 769.84 469.52 961.57 487.90 804.46 594.10 775.05 710.02 932.57 725.59
00016087 00000033 689.79 228.34 483.06 676.52 770.54 467.70 963.88 485.68 806.84 592.91 775.35 708.94 934.08 724.33
00016088 00000034 691.30 224.12 482.71 678.62 772.56 466.41 965.54 483.99 808.83 592.20 778.06 707.72 934.64 722.92
00016089 00000035 693.06 226.53 482.76 676.22 773.43 465.21 966.71 483.11 808.82 590.42 778.69 706.50 935.86 721.98
00016090 00000036 693.37 221.74 481.68 677.86 773.51 465.34 965.74 482.82 809.28 590.49 778.38 705.57 935.15 720.69
00016091 00000037 694.12 218.93 480.80 677.22 773.87 464.49 966.28 482.35 809.65 588.48 776.94 704.40 931.58 720.09
00016092 00000038 692.90 216.34 482.28 677.15 774.07 462.75 966.66 482.00 809.52 586.77 775.64 702.86 928.34 719.80
00016093 00000039 697.19 219.46 470.25 671.35 774.03 455.85 959.07 477.52 809.04 580.66 771.07 693.33 919.23 712.60
00016094 00000040 697.17 218.83 470.18 672.45 775.01 453.84 959.04 475.78 809.15 578.95 772.06 692.61 919.09 712.09
00016095 00000041 697.42 220.33 469.85 672.36 774.94 453.13 958.38 475.54 807.92 579.00 771.57 693.41 917.78 713.33
00016096 00000042 696.50 218.51 469.23 674.81 773.54 452.48 957.56 475.90 806.51 579.30 768.85 693.75 914.36 714.68
00016097 00000043 693.92 219.24 469.27 676.11 771.15 453.47 954.86 475.82 805.34 580.48 766.67 695.93 911.58 716.19
00016098 00000044 691.28 221.74 470.45 675.77 767.93 454.79 952.40 476.59 802.37 583.23 763.88 698.94 907.71 718.97
00016099 00000045 690.62 221.47 468.67 681.57 764.96 456.15 948.58 477.76 799.06 585.61 761.17 703.29 903.09 723.42
00016100 00000046 690.23 220.65 467.37 684.93 760.44 456.67 945.08 477.96 794.41 586.64 757.34 707.78 898.42 727.65
00016101 00000047 688.76 221.64 467.63 683.73 757.54 458.38 942.69 477.24 791.58 586.93 755.36 709.45 896.80 727.35
00016102 00000048 687.79 220.14 468.69 686.21 757.56 458.94 942.00 478.45 790.50 586.20 754.58 709.20 896.59 727.59
00016103 00000049 690.24 220.31 467.65 685.33 760.60 457.06 944.41 476.74 794.32 585.33 758.75 708.18 899.20 726.73
00016104 00000050 693.31 220.97 468.29 684.60 766.87 456.07 951.27 477.19 801.78 582.81 763.78 706.08 905.22 725.60
00016105 00000051 690.62 217.46 481.52 690.90 774.17 462.32 966.43 483.12 805.54 584.11 771.57 710.34 920.01 728.59
00016106 00000052 686.13 226.41 493.33 698.36 774.37 459.60 967.80 483.42 804.29 590.65 767.24 712.52 919.86 733.79
00016107 00000053 693.55 228.23 483.64 682.08 774.41 465.92 966.99 488.21 805.77 591.69 773.40 713.81 922.01 733.27
00016108 00000054 692.79 230.31 482.82 676.35 771.66 466.87 965.79 490.07 805.25 594.93 772.25 714.79 921.94 734.72
00016109 00000055 691.21 229.98 481.72 675.62 771.18 466.99 962.82 491.95 800.48 595.89 769.43 714.07 917.77 735.35
00016110 00000056 691.63 228.18 481.95 682.43 772.25 469.63 962.63 493.17 799.74 596.56 768.62 717.61 915.87 737.91
00016111 00000057 686.14 235.95 490.11 686.71 771.93 464.59 963.25 490.72 799.22 601.21 765.31 718.33 912.86 741.42
00016112 00000058 686.22 236.55 491.94 688.66 773.49 462.94 965.28 490.43 801.80 599.83 767.15 717.70 914.86 741.90
00016113 00000059 692.57 233.03 484.41 682.35 775.67 467.06 967.66 492.05 807.51 593.29 772.88 714.03 926.83 735.53
00016114 00000060 691.94 228.41 483.50 682.18 777.87 465.10 974.35 489.70 817.06 592.18 773.69 709.66 931.55 731.07
00016115 00000061 694.47 222.05 484.00 683.74 782.54 459.58 976.98 484.24 822.20 589.79 776.84 704.52 929.93 726.57
00016116 00000062 700.08 217.77 480.78 682.57 787.77 457.42 979.80 484.33 824.17 586.79 780.75 699.98 929.35 724.15
00016117 00000063 705.95 214.75 476.55 685.80 795.16 455.27 986.51 482.73 830.69 585.64 784.70 696.95 933.89 721.97
00016118 00000064 708.77 215.67 473.91 686.57 797.09 454.92 988.67 482.45 832.91 586.89 785.69 697.47 936.30 722.66
00016119 00000065 709.84 215.19 473.27 686.35 796.74 454.28 988.16 480.52 832.63 586.03 785.74 697.55 936.01 721.66
00016120 00000066 711.15 216.63 472.11 682.30 796.41 453.10 988.24 479.13 831.67 583.92 785.51 696.78 934.14 720.74
00016121 00000067 715.37 218.11 473.39 676.06 799.13 450.58 991.12 475.97 834.29 581.98 788.03 693.93 937.61 717.44
00016122 00000068 722.26 219.81 470.56 670.15 807.26 449.50 999.76 474.13 841.60 575.67 794.29 691.35 942.30 714.30
00016123 00000069 727.60 216.30 469.82 672.28 812.35 446.08 1005.04 472.49 846.18 572.93 797.41 688.94 947.38 713.31
00016124 00000070 732.35 217.37 470.85 673.22 818.24 444.82 1008.76 472.15 849.36 570.56 801.54 689.34 949.55 714.33
00016125 00000071 733.92 219.95 471.44 682.11 819.03 446.14 1010.92 473.12 849.09 572.44 800.87 695.25 950.71 720.07
00016126 00000072 732.88 226.45 471.32 692.77 818.04 447.00 1009.53 473.15 849.85 575.80 802.35 702.03 957.01 725.98
00016127 00000073 729.52 227.89 471.53 709.61 815.68 450.61 1009.69 475.60 848.55 576.87 801.81 707.44 964.55 730.05
00016128 00000074 723.01 227.61 473.81 711.85 810.24 449.58 1004.43 473.63 843.95 576.35 797.40 706.08 964.70 727.77
00016129 00000075 717.56 225.33 477.50 698.91 808.87 444.00 1001.55 469.00 841.52 573.25 796.37 697.66 961.42 719.85
00016130 00000076 717.57 214.93 476.30 682.98 806.67 438.74 998.44 464.60 839.33 566.32 792.95 684.84 951.60 708.06
00016131 00000077 726.00 208.43 470.26 675.70 810.69 429.59 1001.01 457.53 841.97 555.81 794.97 674.25 949.87 699.42
00016132 00000078 733.57 203.22 469.10 673.17 816.70 422.56 1006.10 451.47 846.79 547.00 800.63 666.06 955.77 691.89
00016133 00000079 743.52 195.36 467.96 683.64 823.69 419.67 1011.00 446.28 851.67 541.14 808.37 667.63 956.65 691.92
00016134 00000080 751.29 198.93 466.05 686.38 832.21 418.64 1018.25 445.07 859.19 540.68 817.57 675.01 956.75 699.42
00016135 00000081 753.08 205.35 463.69 681.31 836.51 422.82 1020.45 450.76 865.44 547.78 821.64 678.66 958.03 704.49
00016136 00000082 753.08 207.22 463.66 680.47 837.71 424.77 1019.95 453.28 865.89 551.10 823.25 678.72 958.93 705.05
00016137 00000083 754.54 207.58 463.22 672.56 837.17 426.00 1019.78 453.83 866.51 551.49 824.31 673.92 967.68 698.93
00016138 00000084 758.63 209.78 464.39 662.68 841.35 423.30 1024.35 451.64 872.55 548.86 828.56 667.30 972.97 692.45
00016139 00000085 762.42 203.52 463.53 653.83 844.42 421.25 1028.76 450.58 879.04 545.84 830.13 659.90 972.32 686.47
00016140 00000086 764.44 196.36 466.71 653.66 845.20 418.75 1032.94 446.31 882.90 541.03 832.70 656.49 976.87 681.74
00016141 00000087 767.34 193.06 465.50 653.91 847.49 413.88 1032.96 442.11 879.32 534.44 834.24 651.29 975.98 677.06
00016142 00000088 768.81 192.07 463.27 668.32 849.08 408.73 1032.98 437.13 877.97 531.35 831.15 656.39 969.49 682.86
00016143 00000089 770.24 190.97 460.42 670.42 848.79 408.46 1030.87 436.10 876.60 530.38 831.39 657.98 964.68 684.12
00016144 00000090 770.95 190.40 457.92 666.84 847.41 409.51 1029.36 436.36 876.02 530.26 830.89 657.64 963.77 683.14
00016145 00000091 768.88 189.80 461.72 674.46 847.86 408.74 1029.79 436.02 875.36 531.56 831.79 659.19 966.02 684.86
00016146 00000092 766.88 192.65 465.41 673.00 847.06 411.61 1030.87 438.87 875.69 533.72 832.82 659.07 974.95 683.81
00016147 00000093 765.01 191.57 467.13 680.85 845.72 413.70 1030.11 440.06 873.60 535.68 833.25 661.11 980.08 684.69
00016148 00000094 766.85 193.20 464.25 685.42 846.70 412.76 1029.70 439.37 873.16 535.77 834.65 663.30 980.22 687.00
00016149 00000095 767.55 191.74 463.67 688.87 846.34 412.33 1028.50 437.77 870.47 534.58 836.84 666.00 981.75 688.49
00016150 00000096 768.74 192.37 462.26 693.07 846.04 412.44 1028.07 436.83 869.46 535.03 838.14 668.59 985.29 690.08
00016151 00000097 759.01 187.63 482.42 699.74 850.68 419.40 1037.33 440.04 872.62 538.60 841.10 671.67 993.27 689.47
00016152 00000098 759.52 186.36 480.97 698.88 850.59 418.58 1038.15 439.69 873.42 537.75 840.07 670.17 993.52 688.37
00016153 00000099 760.86 185.89 478.99 690.71 849.44 416.73 1037.82 439.29 871.64 536.01 836.64 665.20 990.10 684.89
00016154 00000100 761.87 188.54 481.13 678.18 849.80 413.80 1039.14 438.24 872.81 534.73 835.89 659.99 990.39 681.44
00016155 00000101 764.83 184.29 480.85 678.30 852.59 409.36 1041.98 436.36 875.27 532.00 835.23 655.62 988.77 679.50
00016156 00000102 766.30 186.89 480.92 677.21 857.25 411.56 1045.25 438.71 880.83 532.85 839.86 657.55 987.74 681.74
00016157 00000103 765.27 188.83 481.49 678.65 857.09 416.07 1045.74 442.01 882.72 537.17 840.67 663.13 987.03 686.49
00016158 00000104 770.21 194.38 464.02 677.77 849.81 417.54 1034.15 445.24 879.01 541.03 837.26 667.25 978.61 692.29
00016159 00000105 765.27 203.54 462.05 680.17 843.70 418.76 1025.16 448.19 870.02 547.77 830.96 670.94 979.52 697.14
00016160 00000106 759.19 209.42 463.32 685.56 842.98 419.81 1023.62 446.53 869.36 547.98 833.15 674.32 986.98 698.06
00016161 00000107 755.17 207.40 464.34 683.21 838.41 420.35 1019.91 447.41 865.26 547.80 827.80 673.90 978.88 697.87
00016162 00000108 750.88 204.51 464.55 675.93 830.86 421.52 1014.50 449.25 858.60 546.93 818.42 669.76 968.25 694.35
00016163 00000109 747.28 205.48 464.38 667.57 828.53 424.13 1013.76 451.60 859.62 547.17 817.17 667.96 964.94 692.43
00016164 00000110 743.29 203.25 467.33 670.17 827.43 425.64 1012.97 454.54 859.73 551.02 817.06 667.97 969.13 693.42
00016165 00000111 740.65 207.39 468.67 666.87 824.97 429.32 1012.69 458.65 858.36 558.95 815.34 671.25 969.22 697.07
00016166 00000112 736.76 209.97 470.51 665.10 822.72 434.74 1011.17 464.01 857.15 564.09 812.61 673.19 968.49 699.03
00016167 00000113 734.41 209.14 473.43 675.35 821.65 436.23 1010.07 465.01 854.38 565.32 810.01 675.40 971.82 700.67
00016168 00000114 734.04 211.99 473.30 685.44 821.05 435.48 1008.36 462.65 851.57 565.72 809.52 680.06 975.30 703.79
00016169 00000115 731.07 213.29 474.04 681.46 817.39 438.02 1006.11 461.57 850.47 567.35 808.80 681.63 975.55 702.26
00016170 00000116 727.06 213.47 475.55 673.95 812.88 440.56 1003.51 462.78 848.06 569.13 805.20 680.46 972.81 700.06
00016171 00000117 724.94 214.89 475.00 672.29 808.43 446.99 1000.72 465.31 846.95 573.55 803.59 687.17 967.21 703.89
00016172 00000118 727.41 217.28 472.22 677.96 806.61 452.53 998.65 470.69 845.06 580.83 801.44 693.18 964.83 710.09
00016173 00000119 724.90 216.60 471.95 690.97 802.50 458.45 996.58 475.73 843.53 588.69 798.21 701.31 963.92 717.90
00016174 00000120 719.19 224.22 476.93 686.44 798.04 466.59 993.65 484.68 841.10 597.30 796.54 708.25 960.16 725.43
00016175 00000121 714.17 231.19 476.93 677.44 792.88 472.02 989.01 490.83 838.62 603.74 794.35 711.38 954.18 729.04
00016176 00000122 710.65 236.32 477.41 669.11 790.25 474.13 984.14 492.93 834.87 605.80 793.25 711.41 949.37 728.88
00016177 00000123 707.55 236.67 478.90 671.26 787.79 475.14 981.80 492.70 833.58 608.29 792.78 714.58 948.18 730.91
00016178 00000124 705.31 240.28 481.34 667.29 786.64 474.88 980.35 490.11 833.88 606.94 794.33 715.89 946.57 730.28
00016179 00000125 702.10 238.11 483.05 670.30 784.79 473.11 981.66 484.44 836.74 604.11 794.89 715.87 949.14 727.14
00016180 00000126 699.60 234.98 482.83 671.40 782.30 470.53 981.28 478.59 838.35 600.32 793.48 714.57 952.46 722.94
00016181 00000127 695.06 224.54 485.73 675.83 779.62 469.21 978.69 474.09 837.62 599.27 793.08 712.37 952.01 718.04
00016182 00000128 690.69 221.80 488.58 674.46 774.05 467.83 976.11 470.07 834.83 598.24 790.96 711.72 952.31 714.89
00016183 00000129 687.98 221.32 484.31 674.47 771.06 461.56 967.23 465.56 830.89 592.73 787.86 705.12 943.38 708.93
00016184 00000130 683.61 223.06 484.84 680.48 764.04 461.57 960.82 465.67 822.97 594.50 781.97 710.86 939.41 714.93
00016185 00000131 678.12 234.85 487.46 676.69 760.74 465.35 954.59 465.29 818.69 595.05 782.10 716.08 939.31 716.58
00016186 00000132 675.28 241.11 486.95 676.60 757.24 469.42 951.22 467.72 816.25 597.69 777.06 716.01 942.99 714.91
00016187 00000133 675.09 239.30 485.77 679.37 757.32 470.55 949.64 468.19 814.90 598.10 777.15 716.18 942.91 714.49
00016188 00000134 676.27 240.31 487.11 680.91 760.28 468.22 951.63 465.79 817.40 593.92 778.88 712.91 947.79 710.69
00016189 00000135 679.90 233.39 485.15 682.69 765.05 462.79 954.23 461.26 817.49 586.49 781.03 704.68 951.43 702.90
00016190 00000136 683.62 219.15 483.12 687.30 768.86 454.53 954.60 457.58 816.03 578.14 781.75 695.45 948.93 697.26
00016191 00000137 686.57 213.66 479.48 685.02 772.02 446.35 955.51 450.34 816.18 569.41 783.46 688.07 948.24 690.76
00016192 00000138 687.92 209.77 476.40 679.79 775.25 437.59 958.33 441.93 817.41 553.40 787.86 684.39 941.33 687.87
00016193 00000139 691.74 200.84 469.72 686.74 776.57 424.44 955.99 430.58 812.45 538.82 786.26 678.47 935.76 683.86
00016194 00000140 694.73 191.73 469.71 689.70 774.45 417.56 957.42 420.25 810.11 527.87 782.00 673.27 931.49 676.24
00016195 00000141 690.53 187.91 481.68 684.87 775.27 416.79 967.58 418.21 810.40 523.37 780.56 667.59 934.40 669.34
00016196 00000142 698.27 183.91 471.63 675.03 773.44 415.18 966.46 407.93 810.84 506.32 787.26 660.95 937.95 655.69
00016197 00000143 690.18 175.77 481.92 690.36 776.69 407.26 965.96 407.18 805.04 503.90 779.35 652.82 931.60 653.22
00016198 00000144 687.58 169.24 480.70 690.69 775.84 402.79 961.58 399.98 800.68 494.50 779.08 647.30 929.93 645.28
00016199 00000145 694.16 161.81 460.79 686.23 767.51 392.60 942.13 388.79 792.36 484.02 772.93 639.55 916.18 637.03
00016200 00000146 692.32 166.29 460.02 679.06 758.32 399.17 928.29 391.58 780.52 486.30 767.78 641.49 906.97 635.95
00016201 00000147 684.43 165.96 461.53 673.22 746.77 412.78 920.45 399.99 774.02 495.65 760.23 645.93 901.75 636.37
00016202 00000148 676.84 177.48 466.60 666.55 738.22 416.28 922.19 399.21 772.29 502.72 754.18 650.79 911.71 637.42
00016203 00000149 671.22 183.59 465.40 667.55 728.72 422.35 913.70 399.16 767.40 510.78 751.05 655.45 920.99 636.17
00016204 00000150 656.33 183.43 471.29 686.78 725.77 422.40 913.10 408.00 764.00 523.73 746.68 660.96 920.40 648.52
00016205 00000151 642.29 186.69 482.70 690.98 717.48 430.04 904.27 413.00 759.33 531.40 741.75 667.76 917.04 652.84
00016206 00000152 634.76 188.16 488.83 694.38 710.18 436.00 896.10 419.22 752.18 542.49 736.97 674.74 911.26 660.03
00016207 00000153 631.39 193.80 486.43 691.71 702.62 439.53 889.24 424.90 742.08 548.68 726.79 677.44 904.59 664.52
00016208 00000154 624.73 195.36 486.59 685.91 693.04 449.69 883.31 430.83 735.42 554.06 721.15 688.48 889.66 672.61
00016209 00000155 620.46 198.42 477.59 680.03 689.90 446.94 867.25 432.87 726.44 549.50 715.56 686.78 863.61 674.46
00016210 DELETE   611.32 199.95 475.58 675.25 676.87 450.27 853.51 432.41 714.90 553.45 707.97 692.73 851.67 677.58
00016211 DELETE   596.08 199.99 466.36 666.01 659.48 458.78 842.34 434.68 708.44 559.36 694.73 698.83 842.03 678.93
00016212 00000158 581.13 200.30 475.48 688.98 650.74 460.96 835.95 436.33 697.15 567.76 685.30 706.50 835.86 686.70
00016213 00000159 564.55 203.95 472.44 693.02 637.79 468.05 825.25 440.84 691.56 575.28 676.95 715.34 826.87 693.35
00016214 00000160 555.42 205.01 479.38 692.91 628.40 476.46 818.62 448.44 684.10 582.66 669.16 722.30 821.93 699.73
00016215 00000161 552.25 218.13 478.64 687.82 624.52 480.99 815.67 453.84 682.08 590.29 669.26 730.16 821.99 707.91
00016216 00000162 551.10 216.82 468.74 689.14 622.59 485.16 815.43 458.11 684.58 595.76 669.08 735.20 820.17 712.87
00016217 00000163 548.25 220.04 469.32 690.37 622.00 482.31 810.21 455.96 683.43 591.56 664.59 727.31 815.95 704.33
00016218 00000164 545.56 227.47 477.24 677.16 618.06 487.17 807.16 461.54 678.58 595.36 660.38 733.94 809.80 713.14
00016219 00000165 542.98 225.93 478.75 679.45 615.94 487.24 803.21 461.92 675.47 593.48 658.65 733.89 805.27 713.37
00016220 00000166 545.76 223.05 478.55 683.33 620.96 480.63 800.88 453.76 674.43 585.74 661.63 721.65 807.68 698.24
00016221 00000167 552.92 214.90 474.01 639.41 619.86 475.05 800.19 453.16 675.27 575.69 658.48 706.24 783.42 688.58
00016222 00000168 553.50 206.48 484.75 665.09 622.60 467.13 809.78 433.09 679.47 567.51 669.56 708.57 820.28 680.32
00016223 00000169 555.91 200.09 480.28 662.15 620.33 459.90 808.27 427.90 672.15 556.54 664.56 698.15 816.23 671.63
00016224 DELETE   546.88 196.20 481.41 676.18 611.58 458.63 800.07 425.10 659.19 550.19 654.99 697.46 804.85 670.08
