Video ID: 	87sFame1G-U
H: 	1080
W: 	1920
FPS: 	25.0

FRAME INDEX X0 Y0 W H [Landmarks (5 Points)]

00006857 00000000 923.67 219.29 393.37 507.13 1024.71 378.31 1188.45 431.78 1063.35 499.97 989.26 567.58 1127.56 611.46
00006858 00000001 924.26 218.14 396.67 505.16 1018.04 390.53 1189.60 429.23 1066.95 505.90 992.18 581.43 1128.43 611.84
00006859 DELETE   929.38 219.11 397.98 511.83 1022.19 390.42 1198.51 421.99 1078.84 508.10 1006.20 587.77 1142.70 613.52
00006860 00000003 934.64 220.46 398.44 510.04 1031.77 388.05 1208.28 421.13 1091.01 508.18 1015.75 585.27 1154.54 612.69
00006861 00000004 937.32 219.93 400.54 504.85 1035.87 387.93 1214.31 423.11 1096.31 511.79 1016.84 581.73 1161.13 611.07
00006862 00000005 939.21 219.95 400.20 501.69 1035.80 388.83 1216.42 426.76 1095.01 514.21 1012.75 582.15 1160.72 613.93
00006863 00000006 938.17 226.12 397.97 501.68 1034.86 395.61 1211.06 431.46 1091.99 518.26 1011.36 584.93 1158.15 614.84
00006864 00000007 939.19 228.58 394.43 501.31 1032.52 399.66 1206.88 435.85 1086.34 519.53 1008.21 586.07 1156.08 616.41
00006865 00000008 938.64 230.07 391.95 498.92 1030.23 401.18 1203.97 437.82 1082.81 522.59 1005.62 586.14 1152.90 616.88
00006866 00000009 937.45 229.23 391.94 497.62 1028.74 401.27 1201.89 439.51 1080.38 522.92 1001.94 585.16 1149.91 617.13
00006867 00000010 935.82 227.35 393.40 495.69 1027.31 398.89 1201.83 438.65 1078.84 521.76 999.00 581.44 1150.50 614.56
00006868 00000011 934.27 221.56 397.18 499.18 1027.37 395.42 1203.78 435.03 1081.48 518.25 998.41 578.90 1149.45 611.83
00006869 00000012 932.64 213.07 396.56 505.12 1032.26 385.89 1206.06 427.94 1080.88 503.65 1005.98 568.95 1153.79 604.49
00006870 00000013 934.60 208.41 393.60 497.99 1037.93 382.04 1210.02 424.98 1088.55 489.27 1012.19 561.64 1156.78 597.48
00006871 DELETE   935.21 200.02 395.45 501.69 1040.92 371.71 1214.92 413.78 1092.82 478.25 1014.26 553.55 1160.11 588.91
00006872 DELETE   936.90 190.34 394.15 506.68 1043.93 362.21 1216.33 403.25 1097.31 471.66 1017.85 547.44 1162.18 581.88
00006873 DELETE   939.27 188.64 393.90 506.78 1045.92 354.72 1220.64 391.62 1101.99 462.73 1023.47 545.21 1162.98 576.34
00006874 00000017 940.16 185.56 394.74 510.07 1048.40 349.32 1224.22 385.96 1106.46 459.19 1027.23 542.70 1164.61 573.63
00006875 00000018 941.88 181.83 394.30 511.49 1049.98 348.82 1226.80 385.69 1108.86 458.77 1028.45 542.56 1167.13 573.73
00006876 00000019 942.69 183.84 393.78 509.71 1052.05 351.03 1227.50 387.70 1111.69 457.00 1030.95 541.52 1170.63 572.60
00006877 00000020 944.49 181.84 392.63 512.13 1053.26 350.08 1229.21 386.10 1114.58 456.13 1033.24 541.84 1172.38 572.49
00006878 DELETE   946.45 182.02 391.85 510.68 1055.15 349.81 1231.12 385.92 1115.45 454.00 1034.52 540.50 1173.72 571.27
00006879 00000022 947.89 179.66 392.18 510.57 1054.98 348.95 1232.66 383.12 1116.50 451.96 1035.86 539.35 1175.84 568.62
00006880 00000023 948.57 175.58 394.16 513.92 1055.62 344.92 1235.14 379.53 1118.40 450.47 1036.50 537.49 1176.38 567.07
00006881 00000024 947.93 169.84 397.87 519.36 1055.51 340.79 1236.59 376.79 1119.22 447.94 1034.17 535.38 1176.79 566.13
00006882 00000025 947.23 166.76 397.92 520.07 1055.62 341.47 1234.91 377.08 1119.86 444.68 1035.19 532.99 1177.94 563.52
00006883 00000026 946.53 169.32 398.34 515.77 1055.24 337.12 1236.34 372.80 1120.26 441.44 1035.72 531.17 1178.56 561.63
00006884 00000027 945.93 164.20 398.62 518.11 1054.25 335.81 1234.98 371.72 1119.29 439.03 1034.42 528.59 1178.60 559.11
00006885 00000028 945.37 163.43 399.85 520.06 1052.85 334.57 1234.92 369.42 1118.76 439.41 1033.98 529.40 1178.19 559.02
00006886 00000029 943.54 164.47 400.26 518.67 1051.33 334.14 1234.30 369.02 1117.86 439.69 1031.80 529.37 1177.98 558.98
00006887 00000030 941.91 168.60 399.59 513.63 1050.62 336.44 1232.78 371.76 1116.58 440.84 1029.76 529.36 1178.72 559.26
00006888 00000031 941.67 168.28 397.50 512.61 1049.81 338.62 1230.94 372.82 1116.22 441.76 1029.58 529.81 1179.09 558.72
00006889 00000032 940.96 172.84 396.35 509.23 1050.86 342.60 1229.07 376.81 1115.99 441.70 1030.14 530.42 1178.73 559.30
00006890 00000033 940.17 173.37 397.15 508.19 1050.25 341.85 1228.77 373.94 1117.37 442.04 1033.63 531.79 1177.58 558.64
00006891 00000034 939.58 173.14 397.45 506.89 1049.85 339.32 1228.55 369.32 1118.50 439.06 1035.97 531.27 1174.84 556.13
00006892 00000035 940.54 168.45 396.30 509.50 1051.24 337.44 1228.72 368.80 1120.07 436.43 1036.46 527.57 1174.96 553.71
00006893 00000036 940.92 162.01 396.23 510.42 1051.07 330.84 1231.48 363.36 1121.18 431.46 1035.41 524.04 1177.34 551.04
00006894 00000037 939.13 163.05 396.86 507.76 1051.13 329.63 1230.43 362.42 1120.90 429.48 1034.92 521.83 1176.03 548.83
00006895 00000038 938.62 162.17 396.47 509.68 1049.79 331.42 1230.43 364.26 1120.70 433.00 1034.49 523.45 1178.64 550.59
00006896 00000039 938.27 163.05 395.82 507.04 1049.01 335.45 1229.15 369.86 1120.00 436.84 1031.00 523.86 1180.92 552.50
00006897 00000040 938.74 163.04 394.96 505.95 1047.69 339.34 1228.10 373.70 1117.72 440.92 1028.90 524.60 1181.88 553.30
00006898 00000041 939.30 165.00 394.37 504.38 1047.39 343.05 1227.37 378.81 1115.55 443.60 1025.86 524.52 1182.55 554.61
00006899 DELETE   939.90 168.22 394.50 504.29 1049.17 344.17 1229.76 382.30 1116.37 448.42 1026.96 526.30 1182.99 558.40
00006900 00000043 941.17 172.50 393.71 507.08 1049.26 346.12 1231.06 381.21 1118.31 450.68 1029.75 531.05 1184.00 560.66
00006901 00000044 941.90 176.18 393.09 509.21 1050.29 347.97 1230.31 380.85 1118.27 449.70 1033.09 533.86 1181.33 561.59
00006902 00000045 942.03 175.90 394.29 512.13 1051.18 350.61 1229.59 383.19 1118.86 451.18 1033.91 536.52 1181.55 564.06
00006903 00000046 942.66 177.67 394.77 510.62 1052.14 350.02 1231.53 382.87 1119.96 453.47 1034.11 537.25 1182.15 565.12
00006904 00000047 942.98 178.40 395.11 510.70 1053.22 350.12 1232.78 382.81 1121.60 453.49 1035.40 538.18 1182.95 565.99
00006905 00000048 943.20 178.61 394.85 510.32 1053.89 350.83 1233.65 383.98 1122.84 454.69 1034.93 538.36 1184.22 566.57
00006906 00000049 942.73 178.51 394.25 511.50 1054.17 351.69 1233.57 386.10 1122.47 455.98 1034.52 539.65 1183.52 568.87
00006907 00000050 942.42 178.83 393.72 511.54 1054.25 352.91 1234.31 388.06 1122.21 456.71 1034.09 541.21 1183.73 570.94
00006908 00000051 941.75 178.50 394.48 512.67 1054.20 354.22 1233.85 390.07 1121.89 457.72 1034.40 542.12 1183.33 572.23
00006909 00000052 940.81 179.43 393.12 512.18 1053.78 354.41 1232.52 389.38 1121.67 459.03 1034.77 543.75 1182.55 573.11
00006910 00000053 940.32 180.25 392.92 512.17 1052.99 354.48 1231.28 389.04 1120.85 459.55 1034.67 544.31 1182.25 573.41
00006911 00000054 940.12 179.98 392.27 512.48 1051.36 354.36 1230.02 388.22 1119.39 460.71 1033.67 545.69 1180.97 574.13
00006912 00000055 938.83 181.84 390.95 509.95 1050.12 354.87 1227.75 387.57 1118.23 460.14 1033.11 545.42 1179.53 572.81
00006913 00000056 938.35 182.42 389.95 508.39 1048.96 357.39 1225.74 389.55 1116.54 460.03 1032.67 545.08 1178.51 572.00
00006914 00000057 936.64 181.81 391.42 508.71 1048.08 356.28 1226.03 388.72 1116.78 459.11 1032.98 545.10 1179.23 571.82
00006915 00000058 934.85 181.16 392.92 509.33 1046.23 356.17 1224.07 388.51 1114.58 458.86 1030.92 544.63 1177.21 571.18
00006916 00000059 934.12 180.86 392.33 509.39 1044.90 357.27 1220.37 387.99 1112.92 459.34 1030.73 545.08 1175.69 570.38
00006917 00000060 933.60 180.00 391.83 511.41 1042.61 355.60 1218.95 383.95 1111.96 460.00 1029.89 546.85 1173.59 570.22
00006918 00000061 932.35 180.99 392.61 511.99 1041.06 355.50 1218.39 383.34 1110.58 460.44 1029.05 547.90 1172.11 570.87
00006919 00000062 932.09 180.91 391.85 510.80 1039.90 356.54 1217.00 383.88 1109.54 460.86 1027.69 548.71 1171.47 571.29
00006920 00000063 931.85 179.93 391.30 508.91 1038.32 357.52 1215.01 384.22 1107.63 461.50 1027.11 549.01 1170.12 571.06
00006921 00000064 930.26 180.46 392.48 506.85 1038.68 356.75 1216.32 384.56 1108.88 460.04 1027.17 548.79 1169.56 571.23
00006922 00000065 929.69 180.22 392.46 506.30 1037.61 358.42 1214.92 385.27 1108.66 461.10 1026.93 549.38 1170.00 571.06
00006923 00000066 929.90 178.37 392.68 506.70 1035.85 359.38 1213.22 384.93 1105.96 461.51 1025.39 549.33 1169.71 570.00
00006924 00000067 930.59 177.22 391.81 506.69 1034.54 359.65 1211.35 384.17 1104.63 462.15 1025.11 549.41 1169.90 569.39
00006925 00000068 930.26 177.69 391.95 506.47 1033.95 359.87 1211.03 384.28 1103.97 463.65 1024.57 549.75 1170.25 569.63
00006926 00000069 931.13 180.61 391.32 503.43 1033.54 360.89 1211.42 385.06 1102.79 463.38 1023.30 549.60 1171.04 569.30
00006927 00000070 930.90 182.06 390.85 502.12 1033.56 361.80 1210.53 385.95 1102.47 463.82 1023.82 549.38 1171.11 569.04
00006928 00000071 930.83 182.36 390.61 501.76 1033.33 362.37 1209.96 386.00 1102.51 464.01 1023.42 549.86 1171.24 569.12
00006929 00000072 929.85 182.03 391.71 501.59 1032.51 362.21 1208.92 385.91 1101.65 464.09 1022.71 549.52 1170.42 568.72
00006930 00000073 930.12 181.66 391.11 501.40 1032.04 362.50 1208.55 386.13 1101.38 464.81 1022.45 549.81 1170.41 568.93
00006931 00000074 929.50 181.19 392.00 501.53 1031.44 362.74 1207.86 386.44 1100.45 464.86 1022.24 550.15 1170.13 569.22
00006932 00000075 929.43 180.90 392.10 502.17 1030.81 364.20 1207.62 387.38 1100.32 465.06 1021.68 550.98 1169.50 569.64
00006933 00000076 929.23 181.75 392.11 501.08 1030.62 364.18 1207.29 387.69 1099.79 465.25 1021.56 550.97 1169.60 569.87
00006934 00000077 928.58 182.06 392.49 501.37 1030.34 363.92 1207.81 387.66 1099.94 465.30 1021.36 551.33 1169.40 570.36
00006935 00000078 928.78 182.27 392.33 501.47 1030.40 363.90 1207.74 387.41 1099.97 465.32 1020.73 551.53 1168.65 570.44
00006936 00000079 928.71 181.84 391.88 501.42 1030.40 363.41 1207.61 387.27 1099.87 465.04 1020.55 551.18 1168.43 570.32
00006937 00000080 930.22 180.73 390.51 501.58 1032.64 364.41 1208.26 389.56 1100.58 465.00 1021.13 550.35 1167.34 570.51
00006938 00000081 928.22 183.23 391.77 500.17 1032.10 363.54 1209.32 388.03 1102.03 464.95 1022.14 551.16 1168.01 570.58
00006939 00000082 928.34 183.04 391.87 500.18 1031.46 363.43 1208.50 388.20 1100.72 465.07 1021.53 550.79 1167.75 570.47
00006940 DELETE   929.26 180.06 391.60 501.80 1032.04 364.47 1208.09 389.69 1099.65 464.36 1021.11 549.86 1167.68 569.98
00006941 00000084 929.32 180.99 391.03 499.75 1031.02 364.68 1206.14 389.05 1098.52 464.77 1019.97 549.17 1167.22 568.66
00006942 00000085 928.31 181.02 391.92 499.57 1029.65 364.91 1205.58 388.81 1097.77 464.40 1019.22 549.28 1167.26 568.30
00006943 00000086 928.32 180.82 392.04 499.87 1029.44 364.45 1205.76 388.32 1097.71 464.86 1018.95 549.60 1167.23 568.61
00006944 00000087 927.73 181.23 392.49 499.75 1029.57 364.12 1205.59 388.28 1097.70 465.10 1019.18 549.40 1167.18 568.67
00006945 00000088 927.75 181.15 391.91 500.31 1029.67 364.40 1205.77 388.59 1097.80 464.93 1019.02 549.48 1167.38 568.77
00006946 00000089 928.50 180.82 391.36 501.83 1029.94 365.08 1206.19 388.66 1098.46 465.90 1020.13 550.63 1167.81 569.58
00006947 00000090 927.94 182.77 391.63 499.90 1029.68 365.31 1205.10 388.73 1097.62 466.39 1019.65 550.57 1166.94 569.36
00006948 00000091 928.49 181.91 391.59 501.47 1029.73 365.18 1205.99 388.97 1097.83 466.64 1019.66 550.98 1167.12 570.10
00006949 00000092 928.46 182.36 391.23 501.12 1030.08 365.37 1206.69 389.20 1098.39 466.47 1019.40 550.90 1167.64 570.06
00006950 00000093 928.08 182.36 391.45 501.11 1030.32 365.23 1207.05 389.13 1098.86 466.41 1020.21 550.93 1167.53 570.00
00006951 00000094 928.30 182.69 391.21 501.87 1030.83 364.64 1207.06 389.19 1099.08 466.52 1020.02 550.73 1167.39 570.48
00006952 00000095 928.63 183.44 390.57 501.61 1031.52 364.62 1207.31 389.34 1099.70 467.27 1020.95 550.62 1167.62 570.62
00006953 00000096 928.58 182.34 391.23 504.55 1031.35 364.84 1208.10 389.53 1099.88 467.03 1020.61 551.48 1168.04 571.48
00006954 00000097 928.47 181.86 391.42 505.43 1031.64 365.03 1208.21 389.34 1100.65 467.55 1021.28 552.03 1168.38 571.80
00006955 00000098 928.55 181.67 391.08 506.10 1032.17 364.99 1208.15 388.89 1101.49 467.63 1021.80 552.02 1169.55 571.54
00006956 00000099 929.04 183.51 391.35 505.11 1033.93 364.13 1210.16 387.92 1104.02 466.38 1024.71 551.55 1169.85 571.06
00006957 00000100 930.67 183.55 391.22 511.83 1036.46 360.94 1213.80 385.17 1106.64 465.80 1027.71 553.74 1169.37 573.83
00006958 00000101 931.89 182.10 389.38 510.05 1037.85 361.23 1215.31 387.29 1107.67 468.90 1026.16 553.07 1171.77 574.65
00006959 00000102 929.85 182.32 391.81 517.23 1037.13 362.44 1215.07 389.93 1106.71 468.17 1024.38 554.14 1171.04 576.99
00006960 00000103 926.05 185.95 393.97 519.17 1036.23 362.72 1212.11 390.78 1106.35 469.03 1024.43 554.12 1169.03 577.34
00006961 00000104 920.80 194.08 393.29 510.63 1030.42 369.58 1206.68 395.82 1100.29 473.18 1017.20 556.35 1165.42 578.20
00006962 DELETE   914.82 189.24 394.35 517.09 1023.37 374.41 1197.67 397.86 1094.41 477.81 1013.49 560.48 1160.14 580.07
00006963 00000106 913.38 187.74 394.47 519.69 1018.51 376.40 1194.30 399.51 1088.79 482.94 1010.46 564.76 1155.30 584.04
00006964 00000107 910.96 194.25 394.16 515.01 1014.89 380.62 1192.28 402.70 1083.74 487.67 1008.70 569.11 1152.01 587.59
00006965 00000108 910.82 197.40 394.29 514.44 1013.64 383.24 1190.88 406.92 1081.23 491.12 1007.07 571.00 1151.74 590.88
00006966 00000109 910.60 201.46 395.12 511.56 1012.43 384.72 1191.41 408.55 1079.08 493.68 1004.93 573.57 1151.22 593.49
00006967 00000110 909.37 201.81 397.09 512.59 1013.15 386.73 1191.62 409.36 1080.99 496.23 1007.00 576.00 1150.75 594.99
00006968 00000111 910.25 203.04 397.90 513.89 1015.00 387.56 1192.48 409.84 1082.67 498.05 1009.58 577.38 1151.46 596.22
00006969 00000112 911.13 201.08 397.61 514.98 1015.88 388.16 1193.23 410.53 1083.40 498.16 1010.39 578.33 1151.30 597.23
00006970 00000113 910.63 206.66 400.14 509.83 1018.05 388.98 1195.98 412.30 1085.12 498.87 1012.78 578.35 1150.30 597.97
00006971 DELETE   910.46 207.12 400.78 509.73 1019.27 392.07 1195.44 415.65 1086.49 499.57 1014.49 579.68 1150.41 599.61
00006972 00000115 910.79 208.56 401.90 509.42 1019.56 391.86 1196.75 416.29 1086.47 501.15 1014.46 580.64 1150.73 601.20
00006973 00000116 912.44 208.27 399.37 511.82 1021.92 392.61 1197.48 417.96 1087.52 502.08 1015.40 581.16 1152.48 602.49
00006974 00000117 912.79 208.43 398.92 512.11 1021.88 393.31 1198.02 418.32 1087.96 502.83 1015.51 582.32 1154.21 603.40
00006975 00000118 913.68 206.77 400.11 514.44 1023.02 393.58 1198.20 417.36 1089.53 502.80 1017.54 583.30 1155.37 603.56
00006976 00000119 915.91 207.73 399.44 513.39 1025.10 392.00 1199.59 415.51 1090.91 502.15 1019.14 583.06 1156.31 603.07
00006977 00000120 918.15 206.74 399.51 515.04 1027.95 390.52 1202.01 414.12 1092.59 502.26 1021.67 583.15 1158.04 603.22
00006978 00000121 919.28 206.61 400.38 515.33 1029.64 389.47 1203.78 414.02 1094.03 501.31 1023.45 582.15 1159.14 602.98
00006979 00000122 919.73 205.26 400.76 517.84 1031.25 389.46 1205.00 414.77 1095.73 502.64 1024.77 582.93 1158.55 604.49
00006980 00000123 918.68 205.04 403.64 518.30 1033.93 390.55 1207.62 417.93 1099.66 503.78 1028.47 584.21 1156.98 607.20
00006981 00000124 918.63 205.10 402.97 520.83 1034.05 390.11 1209.90 417.21 1101.52 505.09 1029.10 587.41 1155.19 610.24
00006982 00000125 917.94 207.15 402.96 520.26 1034.35 388.59 1209.73 415.56 1102.60 507.57 1030.04 588.19 1152.53 610.85
00006983 00000126 924.42 216.05 398.67 512.51 1030.61 394.39 1207.34 418.53 1103.54 512.95 1029.02 591.31 1154.21 610.28
00006984 00000127 923.32 216.03 397.79 512.06 1028.70 394.98 1203.93 418.84 1100.52 512.72 1025.35 590.19 1153.80 609.16
00006985 00000128 920.29 216.90 400.05 512.41 1026.86 393.71 1201.78 417.34 1098.82 510.54 1024.16 587.63 1154.37 606.43
00006986 00000129 914.38 205.76 403.82 523.66 1028.18 390.69 1201.78 416.61 1094.53 502.64 1022.93 582.91 1157.09 604.85
00006987 00000130 915.18 203.65 403.51 521.70 1029.92 388.22 1202.03 412.61 1096.98 498.51 1025.92 581.08 1156.48 601.90
00006988 00000131 917.94 198.17 404.71 524.37 1033.37 384.38 1204.33 408.47 1101.15 493.48 1029.16 579.66 1157.40 600.21
00006989 00000132 923.53 195.19 405.04 524.56 1039.86 379.79 1212.28 406.67 1107.14 490.80 1033.49 575.13 1162.76 597.76
00006990 00000133 929.12 196.95 405.58 521.79 1047.54 377.05 1220.74 405.30 1114.91 491.74 1039.98 574.83 1168.70 598.63
00006991 00000134 934.41 198.17 406.82 520.22 1054.53 378.93 1228.91 409.37 1122.17 492.11 1044.56 574.64 1175.40 600.89
00006992 00000135 939.69 202.86 404.13 513.56 1058.78 382.71 1235.37 415.11 1125.85 493.10 1047.15 575.32 1181.38 603.35
00006993 DELETE   945.42 201.54 397.67 514.75 1065.16 385.09 1239.61 418.70 1132.49 496.07 1052.74 577.52 1186.93 606.87
00006994 00000137 946.79 204.66 397.43 512.43 1067.94 386.02 1243.57 421.88 1135.76 499.31 1054.12 578.21 1190.07 609.38
00006995 00000138 947.91 206.52 397.17 512.16 1069.58 386.78 1245.56 423.83 1137.57 500.02 1055.53 579.11 1192.04 611.28
00006996 00000139 948.56 206.77 397.23 511.19 1070.42 387.03 1245.89 422.96 1138.99 499.39 1057.51 578.85 1193.71 610.02
00006997 00000140 947.70 205.95 398.36 510.49 1071.15 385.53 1247.30 422.37 1140.01 497.72 1057.26 577.70 1193.64 609.65
00006998 00000141 947.08 204.36 398.73 511.15 1071.72 383.68 1246.67 420.73 1140.53 496.96 1057.64 576.78 1191.65 608.75
00006999 00000142 944.56 202.94 400.68 513.08 1070.12 383.71 1245.93 420.59 1139.39 497.52 1055.87 576.94 1189.41 608.68
00007000 00000143 941.18 202.03 401.73 515.71 1068.46 384.70 1242.79 420.26 1137.43 500.68 1056.17 579.40 1185.06 609.77
00007001 00000144 937.01 203.87 402.35 515.51 1060.17 385.54 1235.77 420.84 1129.30 502.41 1048.21 579.55 1181.19 609.86
00007002 00000145 932.93 213.22 401.27 506.02 1052.97 390.06 1230.67 424.19 1121.13 504.94 1039.84 581.43 1176.70 610.66
00007003 00000146 927.44 209.95 405.14 511.17 1046.42 386.30 1223.55 419.08 1113.37 503.49 1034.01 580.22 1171.25 608.11
00007004 00000147 923.96 206.86 401.65 511.22 1040.35 386.03 1214.97 415.06 1106.06 499.47 1029.48 578.02 1164.05 602.47
00007005 00000148 921.62 198.30 400.95 515.61 1036.84 382.90 1209.95 410.29 1104.15 490.25 1027.24 574.22 1162.76 597.24
00007006 00000149 921.61 195.32 399.38 512.65 1034.54 379.09 1210.88 403.44 1106.25 482.80 1028.15 569.87 1166.60 590.02
00007007 00000150 924.60 187.33 394.22 513.40 1035.88 371.50 1211.44 395.03 1108.57 477.81 1029.16 565.21 1165.86 584.57
00007008 00000151 926.84 183.31 392.77 515.82 1036.01 364.47 1213.20 387.97 1109.11 472.92 1029.11 561.14 1165.68 580.46
00007009 00000152 929.49 181.27 392.00 513.52 1037.15 359.95 1216.02 384.33 1109.52 468.03 1029.95 558.29 1166.65 578.15
00007010 00000153 930.72 179.49 391.79 513.28 1038.34 358.60 1215.56 383.19 1109.72 467.28 1031.67 556.51 1166.43 576.53
00007011 00000154 930.74 179.94 391.87 512.87 1037.32 359.11 1214.83 383.15 1108.75 467.27 1031.26 556.82 1166.23 576.40
CROP_BBOX: 654 0 1533 886
