Video ID: 	kHr-g0fnV0E
H: 	1080
W: 	1920
FPS: 	23.976023976023978

FRAME INDEX X0 Y0 W H [Landmarks (5 Points)]

00007227 00000000 711.26 255.05 349.42 491.90 774.50 412.79 908.36 470.83 766.60 534.10 741.15 609.35 843.96 651.99
00007228 00000001 712.67 254.45 347.16 492.11 774.51 412.97 908.13 470.89 766.54 533.35 743.35 608.85 846.12 651.26
00007229 00000002 713.65 253.77 345.79 491.89 774.91 410.81 906.37 471.95 764.66 534.39 746.17 603.23 849.89 648.05
00007230 00000003 713.11 253.98 347.85 492.04 776.05 409.78 906.72 472.19 765.21 533.93 747.36 597.85 854.26 644.11
00007231 00000004 713.07 253.29 348.30 491.79 776.49 408.98 907.48 472.17 765.93 533.89 748.22 595.09 856.85 642.14
00007232 00000005 713.29 252.75 349.35 491.12 777.38 408.15 908.49 472.54 766.35 533.17 748.23 594.25 856.46 642.15
00007233 00000006 715.85 249.22 347.65 494.07 777.70 407.86 909.40 471.17 766.94 531.60 748.95 598.40 853.58 645.01
00007234 00000007 712.48 246.71 352.27 495.22 773.66 403.45 909.36 469.00 767.43 531.04 745.17 595.08 850.76 643.40
00007235 00000008 711.17 243.34 352.26 494.46 773.80 401.11 906.93 465.92 764.66 525.03 743.22 590.26 849.36 638.08
00007236 DELETE   712.90 238.96 348.28 495.46 773.45 395.52 905.91 459.71 762.60 518.55 745.02 585.33 853.02 632.31
00007237 00000010 712.48 233.88 347.97 495.48 775.66 391.50 904.96 455.43 761.44 511.02 745.23 578.46 854.80 625.37
00007238 00000011 711.60 231.76 348.42 495.98 775.50 389.22 904.72 455.80 760.89 509.84 743.76 574.92 855.03 624.01
00007239 DELETE   711.83 237.97 349.31 492.24 776.00 392.37 904.74 460.98 762.78 516.88 745.83 575.60 856.28 626.38
00007240 00000013 713.45 246.19 352.16 491.60 777.32 398.49 906.94 472.86 766.69 527.36 749.36 579.66 857.66 635.23
00007241 00000014 713.56 250.52 351.69 492.81 776.19 403.41 907.68 476.50 767.28 532.51 749.95 587.06 858.04 641.40
00007242 DELETE   713.89 249.56 345.83 494.63 771.11 400.96 898.39 473.26 757.70 524.68 745.48 586.35 849.91 639.51
00007243 00000016 710.33 247.65 338.74 488.78 766.69 394.04 887.64 470.31 746.31 515.95 741.91 575.48 845.12 631.01
00007244 00000017 710.16 244.02 343.90 485.54 766.55 388.45 885.88 466.22 742.77 511.80 741.09 570.28 843.39 626.51
00007245 DELETE   712.01 236.80 345.19 488.67 770.49 386.21 892.90 462.37 749.15 509.20 743.49 567.47 849.49 623.08
00007246 00000019 714.15 235.58 343.13 491.41 774.69 387.79 898.80 458.40 755.16 509.80 747.15 570.68 856.14 622.28
00007247 DELETE   715.91 235.01 347.65 493.15 777.14 387.01 902.18 457.75 757.44 510.42 749.91 569.68 861.21 621.62
00007248 00000021 717.30 235.98 352.20 489.54 778.44 388.19 904.30 458.06 760.01 509.76 750.45 571.37 858.37 622.41
00007249 DELETE   717.75 234.99 350.87 485.50 780.50 386.98 906.23 454.35 762.91 506.98 750.03 568.16 858.86 617.66
00007250 00000023 717.16 229.51 348.96 485.88 780.96 384.51 907.63 450.41 764.79 501.11 748.07 566.57 856.68 614.86
00007251 DELETE   717.07 224.08 348.09 487.67 780.21 381.42 906.07 446.15 763.36 496.31 745.13 566.32 850.37 613.71
00007252 00000025 718.92 204.36 347.17 512.19 781.17 377.92 906.53 440.15 766.77 498.99 748.63 561.37 849.46 611.35
00007253 00000026 723.36 201.74 342.15 513.07 789.85 363.82 912.97 438.52 753.67 476.53 740.38 544.11 852.40 606.23
00007254 00000027 716.89 202.39 348.42 501.33 783.71 364.62 913.60 420.18 767.99 473.17 747.21 553.44 853.00 594.47
00007255 00000028 721.08 192.80 348.60 507.12 786.64 356.48 918.72 408.13 773.60 463.73 752.33 549.89 861.17 588.17
00007256 00000029 730.64 179.58 351.17 511.08 794.22 347.90 926.00 398.65 782.68 457.52 759.60 533.84 865.74 574.77
00007257 00000030 734.50 174.29 346.73 516.21 794.39 340.62 925.74 385.49 781.91 445.84 765.19 527.79 875.42 564.41
00007258 00000031 733.61 165.74 351.51 519.73 792.98 337.63 926.49 374.58 784.28 435.33 765.75 525.27 875.55 555.37
00007259 00000032 724.56 147.55 355.33 532.28 790.70 326.91 933.74 372.82 776.63 424.33 756.93 517.88 876.15 555.45
00007260 00000033 724.74 143.88 355.08 522.24 788.22 324.86 930.69 367.49 776.62 416.54 754.94 511.91 869.00 547.15
00007261 00000034 724.42 143.19 356.15 518.20 786.21 322.49 927.98 364.85 775.81 415.45 751.58 508.94 862.83 544.33
00007262 00000035 722.19 142.91 354.12 518.21 785.53 322.87 924.66 363.85 774.38 411.72 748.83 507.50 857.95 541.87
00007263 00000036 721.84 138.92 355.48 525.75 784.11 324.19 924.43 362.60 773.20 412.32 749.15 510.93 858.07 543.24
00007264 00000037 722.80 141.80 355.10 528.23 781.46 329.04 922.68 365.10 773.29 419.37 751.55 517.89 861.02 547.83
00007265 00000038 721.28 147.70 353.64 530.17 778.53 337.41 919.19 370.27 770.40 429.68 754.03 526.51 866.51 553.21
00007266 00000039 720.89 150.08 353.61 528.11 778.24 339.06 921.15 371.52 770.61 431.41 755.15 526.23 873.39 552.43
00007267 00000040 721.44 142.96 352.09 527.32 778.40 336.69 921.91 365.55 772.55 422.77 757.32 521.07 875.05 544.38
00007268 00000041 726.83 139.26 348.66 518.03 788.15 328.93 922.31 358.20 774.59 409.36 758.84 509.42 872.43 534.54
00007269 00000042 729.43 130.46 352.38 519.70 788.06 323.55 921.92 349.42 774.16 401.15 762.61 502.37 875.53 524.46
00007270 00000043 730.23 127.50 351.86 522.11 788.87 323.19 920.49 346.16 774.14 398.63 765.42 502.24 876.46 522.02
00007271 00000044 724.80 124.37 357.61 542.12 782.48 322.36 918.12 339.11 778.47 394.61 766.37 510.98 872.08 525.21
00007272 00000045 730.44 122.24 355.64 539.68 790.28 313.34 920.00 334.62 769.67 386.79 765.28 503.70 873.50 522.25
00007273 00000046 732.36 119.17 353.57 528.79 788.08 304.68 922.07 321.39 768.12 375.72 764.57 495.73 872.94 510.86
00007274 00000047 735.87 115.95 353.48 513.36 783.51 294.41 918.69 300.84 782.19 359.77 769.93 487.40 876.70 494.53
00007275 00000048 736.91 112.83 354.91 503.88 785.74 293.36 921.46 296.09 788.91 350.21 769.23 478.10 877.33 482.31
00007276 00000049 729.02 112.09 358.78 500.50 787.94 294.73 930.26 301.70 779.32 344.70 759.63 474.17 878.63 480.00
00007277 00000050 729.48 107.74 357.99 501.59 788.35 293.30 928.46 297.25 779.15 341.03 759.94 471.88 876.10 475.43
00007278 00000051 729.06 105.66 356.04 505.75 788.87 295.03 927.73 296.59 779.96 339.98 761.87 473.19 877.45 474.86
00007279 00000052 728.11 107.75 357.30 507.98 787.59 295.98 928.50 297.29 781.05 341.38 762.79 476.01 879.86 477.28
00007280 00000053 729.27 108.57 356.90 510.57 785.26 301.27 927.13 299.92 778.00 345.12 761.66 479.90 880.74 478.98
00007281 00000054 728.82 110.68 358.99 510.81 783.00 303.43 927.16 300.11 777.02 347.20 761.72 482.87 882.23 480.13
00007282 00000055 728.75 109.74 358.19 511.89 783.21 305.53 928.62 302.20 778.27 349.79 763.36 483.98 886.33 481.08
00007283 00000056 728.72 110.35 361.92 509.91 783.92 305.10 931.27 305.22 781.17 353.31 764.39 483.11 890.52 482.74
00007284 00000057 729.77 113.49 362.81 511.91 784.08 306.08 933.65 307.70 783.90 359.17 768.07 485.26 896.22 485.65
00007285 00000058 742.70 114.45 354.73 523.79 793.32 305.40 931.88 310.55 802.68 372.25 789.71 491.70 906.79 499.14
00007286 00000059 745.80 116.90 350.24 544.70 795.08 310.94 931.72 316.76 803.71 386.43 795.39 508.50 908.69 516.95
00007287 00000060 747.14 128.30 344.40 550.84 800.99 321.28 933.21 328.30 791.73 391.73 797.10 524.13 898.36 528.77
00007288 00000061 747.09 132.86 339.96 543.92 800.38 326.74 928.29 335.32 787.72 398.86 792.18 527.47 883.91 533.80
00007289 00000062 744.31 134.87 344.54 535.60 795.44 335.10 926.62 343.71 784.70 407.74 782.52 534.42 872.21 541.88
00007290 00000063 737.86 137.39 347.47 530.28 787.43 337.43 923.75 347.61 780.79 414.68 776.22 535.74 873.07 544.90
00007291 00000064 735.04 142.91 344.81 527.95 784.31 340.96 919.85 354.15 777.41 422.85 776.05 535.70 877.55 546.88
00007292 00000065 733.42 152.93 342.70 528.31 783.68 346.22 918.73 363.77 775.25 432.37 775.06 540.91 882.55 554.83
00007293 00000066 731.99 156.91 343.10 531.50 771.99 355.28 914.30 373.83 777.38 450.06 768.63 548.68 876.03 562.73
00007294 00000067 728.57 163.22 342.02 534.40 767.89 362.78 909.52 379.43 775.23 455.35 765.91 559.58 867.50 572.20
00007295 00000068 724.41 163.47 342.59 539.55 762.60 366.87 903.45 381.88 767.75 459.68 762.07 564.50 865.45 575.81
00007296 00000069 718.13 170.00 347.56 530.45 765.10 368.75 897.95 381.38 757.22 459.06 764.66 564.01 866.42 576.50
00007297 00000070 719.26 173.53 343.16 528.72 764.99 376.23 896.56 387.17 757.85 465.35 766.26 569.54 867.08 580.42
00007298 00000071 716.49 173.43 346.39 532.17 760.64 381.56 896.26 389.41 758.14 467.26 768.05 574.43 870.30 581.94
00007299 00000072 714.82 173.35 350.61 546.18 762.79 380.84 898.82 386.52 764.62 464.59 778.52 577.21 882.12 581.78
00007300 00000073 711.91 168.55 358.50 552.35 761.99 378.96 903.36 382.18 768.16 466.81 779.12 575.85 896.22 578.31
00007301 00000074 711.16 166.54 357.31 547.55 762.37 377.11 903.16 380.83 769.53 465.18 776.82 569.20 896.00 572.51
00007302 00000075 708.15 165.45 357.93 539.27 759.44 372.98 902.99 376.59 769.99 461.18 772.03 563.43 893.22 567.18
00007303 00000076 706.22 160.83 362.86 537.23 758.90 367.33 904.09 372.22 768.57 455.04 766.31 558.22 885.61 563.43
00007304 00000077 711.12 159.49 350.47 529.34 758.13 365.02 904.02 370.92 774.00 446.29 765.53 549.89 879.05 553.28
00007305 00000078 714.04 153.38 348.21 526.13 760.71 358.47 906.79 363.87 776.81 437.24 767.07 545.10 876.15 548.12
00007306 00000079 719.51 142.82 347.53 527.83 764.26 351.25 908.31 358.43 778.17 428.60 766.46 534.19 875.76 539.11
00007307 00000080 722.12 134.96 346.88 524.57 778.57 348.41 916.19 353.39 783.48 417.19 772.75 527.90 879.58 533.33
00007308 00000081 723.81 125.79 352.27 528.33 779.58 344.24 918.23 345.48 785.36 408.93 776.39 524.72 881.24 527.18
00007309 00000082 725.12 123.86 356.69 526.78 780.55 341.87 921.58 341.99 785.35 404.36 775.85 523.26 883.50 524.73
00007310 00000083 724.73 121.65 359.36 524.60 782.85 338.35 923.70 337.96 788.09 398.17 777.77 518.35 886.05 519.28
00007311 00000084 727.70 122.79 356.06 518.63 783.87 336.04 924.48 336.49 788.32 396.16 778.69 514.28 890.06 515.79
00007312 00000085 726.91 121.82 356.63 523.44 784.86 336.00 924.82 336.40 789.83 396.04 779.33 515.42 888.72 516.91
00007313 00000086 727.87 123.42 352.65 530.72 787.50 335.17 924.84 335.72 792.40 395.92 782.68 520.56 882.96 522.13
00007314 00000087 727.91 126.06 349.26 541.14 788.01 335.50 924.23 335.48 790.22 396.34 784.56 527.86 882.13 528.61
00007315 00000088 725.75 128.13 350.24 544.53 785.37 337.35 925.41 337.62 788.40 398.93 780.55 533.53 878.96 534.52
00007316 00000089 725.73 132.10 348.26 543.66 783.36 340.45 922.62 342.32 785.47 407.49 779.43 537.28 876.70 539.52
00007317 00000090 720.41 135.54 349.95 543.49 778.05 343.82 918.56 348.74 780.97 414.28 773.94 540.66 872.79 545.10
00007318 00000091 716.47 132.81 351.63 541.18 773.60 341.65 913.45 351.22 775.40 416.88 766.80 537.05 867.62 545.72
00007319 00000092 714.95 128.31 349.01 538.09 764.53 336.70 903.47 345.35 772.76 409.65 760.70 527.05 857.06 533.64
00007320 00000093 714.12 122.68 360.43 530.31 765.02 330.16 904.80 337.44 765.10 397.71 754.56 512.76 861.68 519.07
00007321 00000094 711.12 115.27 365.95 529.78 764.67 327.19 907.46 329.14 764.88 385.68 753.03 504.05 866.41 506.39
00007322 00000095 710.76 119.86 366.18 516.45 765.88 314.67 910.48 325.63 757.67 381.59 742.24 498.53 860.70 509.68
00007323 00000096 709.23 120.33 365.27 517.93 761.70 315.17 905.67 324.88 752.06 382.27 739.33 499.78 858.33 510.08
00007324 00000097 708.62 120.39 357.12 525.42 755.20 322.01 900.89 331.79 747.26 393.74 741.19 510.01 863.61 520.42
00007325 00000098 706.21 128.47 348.06 525.08 746.95 329.08 891.65 340.11 743.53 407.91 742.29 517.69 866.36 528.49
00007326 00000099 703.16 136.37 344.57 526.16 741.25 341.43 883.26 344.58 740.49 416.74 745.08 527.83 868.71 530.92
00007327 00000100 701.86 135.51 344.92 520.41 739.63 341.43 882.47 343.86 739.28 411.76 739.94 524.71 860.97 528.06
00007328 00000101 701.01 125.38 345.29 520.87 740.10 336.76 885.98 337.12 741.86 399.83 736.90 517.61 857.25 520.52
00007329 00000102 700.69 120.85 346.14 522.21 742.50 331.18 885.64 330.39 741.98 393.44 738.15 513.46 855.25 515.66
00007330 00000103 701.42 119.68 353.27 524.52 742.06 331.88 887.03 330.19 741.76 395.58 739.48 514.97 859.53 516.38
00007331 00000104 703.15 126.87 347.58 522.87 740.31 336.58 883.36 338.55 739.97 407.66 741.70 519.94 861.79 523.75
00007332 00000105 700.63 137.77 341.87 528.64 745.06 348.18 874.34 347.48 744.13 414.67 751.72 532.01 851.16 530.03
00007333 00000106 698.10 155.81 334.46 526.33 742.22 355.85 870.39 358.59 741.62 434.74 750.92 545.48 851.05 545.51
00007334 00000107 696.30 163.59 332.32 525.82 739.02 363.09 865.45 371.27 740.52 448.49 751.83 555.28 847.18 558.91
00007335 00000108 695.50 169.98 336.99 524.56 734.65 373.57 860.21 381.14 735.91 457.84 746.83 564.23 841.79 567.56
00007336 00000109 692.19 169.17 343.03 531.72 729.09 377.87 858.90 380.74 726.21 459.60 742.41 566.85 835.61 571.94
00007337 00000110 692.99 169.96 340.53 533.83 731.36 374.96 859.28 376.53 727.93 457.52 745.95 568.87 834.90 572.91
00007338 00000111 700.56 162.49 342.64 545.47 737.32 378.46 856.74 374.43 740.10 462.94 750.80 572.23 845.07 571.65
00007339 00000112 698.06 158.14 345.70 543.31 735.64 377.23 860.30 374.14 742.41 460.39 750.38 572.00 847.89 572.48
00007340 00000113 693.28 161.31 343.07 539.57 731.41 368.47 867.04 374.16 728.19 453.19 743.29 564.97 839.41 572.07
00007341 00000114 696.37 163.41 333.58 533.55 736.48 366.64 866.27 377.76 736.49 453.51 746.58 564.17 841.53 570.32
00007342 00000115 696.08 163.57 333.69 534.61 737.66 365.02 867.16 376.22 737.82 452.46 748.89 563.43 843.19 569.61
00007343 00000116 695.66 164.89 332.09 534.60 738.47 363.47 866.79 376.31 737.30 451.83 748.87 563.04 842.60 570.40
00007344 00000117 695.19 164.39 333.48 531.14 737.56 363.42 866.55 376.37 736.88 451.67 747.05 561.45 840.86 568.98
00007345 00000118 695.02 163.61 333.33 530.35 737.43 363.20 866.35 376.79 736.79 451.90 746.45 560.58 839.95 568.68
00007346 00000119 696.00 165.44 332.32 528.36 737.39 364.15 865.67 377.58 735.80 452.52 745.90 561.52 838.92 569.48
00007347 00000120 697.35 165.59 331.28 527.73 737.08 365.32 864.98 379.30 734.95 453.16 745.19 561.99 837.87 570.42
00007348 00000121 698.26 166.88 330.35 527.15 737.32 366.21 864.86 380.12 734.76 453.83 745.56 562.47 838.47 570.85
00007349 00000122 699.18 166.78 333.86 529.17 740.48 367.48 866.60 377.03 729.19 449.57 745.33 559.92 834.90 570.26
00007350 00000123 700.90 164.68 332.91 531.18 741.85 367.34 868.06 376.73 729.76 448.63 745.18 560.97 833.92 571.22
00007351 00000124 701.29 162.84 328.87 526.69 739.76 366.06 870.59 381.13 739.42 449.59 742.00 561.40 833.86 571.49
00007352 00000125 699.17 160.59 329.38 526.48 740.18 360.28 872.80 375.80 742.61 446.23 741.20 557.25 833.59 567.99
00007353 00000126 697.60 159.50 329.30 524.82 743.61 355.60 873.76 370.31 743.22 440.27 744.79 550.21 836.81 560.04
00007354 00000127 699.26 152.79 327.95 528.44 745.65 352.35 874.69 365.21 744.59 431.22 747.20 545.38 840.91 553.66
00007355 00000128 698.52 146.99 331.34 531.54 744.75 351.26 875.33 362.97 742.90 428.51 744.69 541.84 841.94 549.72
00007356 00000129 698.11 150.30 331.87 528.58 743.65 354.54 876.54 365.88 740.95 431.53 742.99 543.47 846.18 550.86
00007357 00000130 697.66 162.93 336.82 522.44 742.86 361.61 878.63 375.36 745.69 446.23 744.35 550.15 849.25 559.41
00007358 00000131 699.62 156.56 348.75 537.82 736.49 376.82 876.15 377.08 747.86 458.03 744.51 564.18 863.55 566.75
00007359 00000132 700.55 164.90 345.13 540.01 739.40 382.34 870.43 381.42 746.27 464.22 748.00 566.93 863.11 568.26
00007360 00000133 700.60 166.94 346.31 536.73 738.81 383.95 869.15 382.28 746.56 466.08 748.71 566.42 864.03 567.05
00007361 00000134 699.12 162.38 350.82 534.16 736.71 379.23 868.87 378.44 744.88 461.45 746.96 562.74 859.94 564.37
00007362 00000135 695.64 167.26 337.29 521.07 741.40 364.17 872.17 377.44 740.52 450.33 746.80 549.84 850.66 558.06
00007363 00000136 696.53 161.87 332.72 515.68 742.91 357.44 869.73 371.93 741.38 442.73 746.33 538.05 848.75 547.35
00007364 00000137 694.89 159.17 336.77 513.01 741.17 356.46 873.39 366.22 742.59 430.01 743.56 535.12 846.69 540.63
00007365 00000138 695.28 148.86 342.47 522.48 740.19 352.06 875.49 353.60 746.99 418.61 745.47 535.74 843.29 535.19
00007366 00000139 697.19 145.10 345.47 520.74 742.13 349.54 878.19 346.00 752.42 414.11 750.97 535.20 845.24 530.79
00007367 00000140 701.73 139.21 353.45 518.73 743.74 348.21 890.10 344.10 751.85 415.04 748.42 531.27 861.64 529.41
00007368 00000141 705.78 134.04 361.26 520.07 751.12 343.08 897.48 340.54 762.23 414.75 755.65 527.27 871.48 526.58
00007369 00000142 709.77 130.48 360.48 524.36 756.46 342.38 902.56 337.81 768.29 410.09 764.89 524.54 888.29 521.40
00007370 00000143 713.34 129.90 362.61 529.83 761.63 345.14 907.33 337.50 774.89 411.36 772.48 529.52 894.56 523.51
00007371 00000144 714.68 132.25 362.49 539.78 763.26 348.16 906.58 336.84 775.90 416.13 777.05 535.94 898.68 526.00
00007372 00000145 712.41 133.59 362.48 537.46 760.04 349.45 904.81 337.88 772.24 416.04 773.94 536.08 897.97 525.94
00007373 00000146 708.22 136.44 361.82 532.55 758.40 345.83 902.89 340.08 769.21 414.34 766.90 532.47 887.62 527.53
00007374 00000147 707.63 134.78 361.40 532.64 757.45 342.08 901.69 340.09 767.94 412.65 761.47 527.35 882.17 525.82
00007375 00000148 708.26 131.96 362.91 531.57 758.17 339.13 903.01 337.68 769.40 409.56 760.87 524.23 881.79 523.37
00007376 00000149 707.60 131.74 362.28 530.79 756.99 338.69 903.25 335.25 770.64 408.87 762.42 524.78 884.53 522.22
00007377 00000150 704.30 133.23 363.96 538.00 755.70 340.82 900.78 332.86 769.20 409.80 764.78 532.24 883.23 525.59
00007378 00000151 701.96 135.49 364.18 558.99 753.88 340.64 896.75 326.32 764.57 411.65 772.31 544.20 895.42 530.07
00007379 00000152 703.53 138.18 351.99 561.56 746.70 343.86 888.80 321.33 763.28 415.63 765.14 544.72 893.82 527.04
00007380 00000153 699.05 142.10 351.87 556.63 740.10 348.81 879.56 327.00 752.34 419.72 757.86 544.41 888.22 527.72
00007381 00000154 699.12 141.46 349.43 556.07 739.56 350.76 876.20 330.54 748.39 420.66 755.33 544.58 881.52 529.53
00007382 00000155 696.83 140.15 351.90 551.39 738.27 349.34 876.16 331.96 752.03 419.69 752.88 545.88 869.82 534.63
00007383 00000156 696.54 140.50 349.86 539.84 744.30 349.52 872.58 341.39 757.03 422.82 752.22 542.62 854.40 539.84
00007384 00000157 698.45 142.95 342.94 532.54 743.28 351.00 875.22 343.63 750.64 413.53 756.93 543.65 845.77 535.79
00007385 00000158 700.93 142.01 341.92 528.32 745.04 350.91 881.19 346.99 755.30 418.12 756.19 541.25 848.22 536.64
00007386 00000159 703.04 144.35 344.21 524.22 746.10 352.65 883.14 349.41 756.58 423.12 756.12 540.39 852.31 536.39
00007387 00000160 704.14 149.78 347.35 520.66 745.23 354.08 884.25 350.05 755.58 427.29 755.43 542.63 855.36 537.91
00007388 00000161 703.14 149.93 345.52 521.28 745.92 355.58 885.57 352.70 756.68 428.37 757.47 541.50 860.05 537.51
00007389 00000162 702.37 151.40 345.95 523.58 746.07 355.58 884.81 352.14 757.37 427.97 758.14 540.96 860.59 536.39
00007390 00000163 702.67 152.25 346.62 523.95 746.77 356.02 884.54 352.93 757.31 428.44 758.35 540.55 861.81 536.22
00007391 00000164 701.90 153.63 347.38 523.18 746.58 356.04 883.89 353.49 755.79 428.55 757.08 539.36 862.43 535.45
00007392 00000165 701.36 153.59 344.49 522.83 747.42 355.81 882.60 353.68 755.03 427.30 756.50 536.91 862.47 533.33
00007393 00000166 701.34 151.45 345.93 523.98 746.81 356.56 879.96 352.30 752.12 423.57 755.21 534.73 861.71 529.44
00007394 00000167 700.51 148.94 345.41 523.00 746.79 356.53 877.09 348.69 749.63 417.35 754.88 533.27 858.51 525.20
00007395 00000168 699.68 141.97 347.67 523.72 741.14 350.28 880.27 342.68 744.81 415.35 748.13 530.41 870.53 524.24
00007396 00000169 699.76 136.51 354.48 522.83 739.82 347.02 880.73 340.30 741.72 410.51 745.88 523.38 872.15 518.14
00007397 00000170 698.57 134.09 356.71 518.07 737.64 343.67 882.94 336.02 742.03 404.63 744.28 518.88 876.29 513.73
