Video ID: 	fxhD9Lx890g
H: 	1080
W: 	1920
FPS: 	25.0

FRAME INDEX X0 Y0 W H [Landmarks (5 Points)]

00045986 00000000 881.63 148.37 466.40 640.04 912.59 405.76 1080.30 369.74 928.85 487.05 945.32 638.92 1071.29 610.18
00045987 00000001 876.72 149.84 466.82 641.15 914.52 405.71 1075.52 369.27 925.25 486.52 946.63 640.24 1065.15 611.13
00045988 00000002 874.70 148.04 468.32 644.52 915.29 405.54 1076.03 371.37 926.00 489.83 948.24 642.04 1065.90 614.97
00045989 00000003 874.63 154.31 472.21 650.68 916.05 405.86 1076.62 369.99 924.55 491.77 951.16 647.40 1073.44 618.54
00045990 00000004 877.25 150.82 469.93 653.14 916.50 406.68 1076.20 370.27 922.62 491.33 951.32 646.57 1076.65 617.26
00045991 00000005 878.19 147.77 469.22 651.74 917.13 405.84 1077.68 370.40 923.76 490.28 950.92 643.72 1078.90 615.13
00045992 00000006 883.81 147.56 465.81 652.48 917.65 407.46 1082.21 373.66 928.38 494.59 952.01 641.26 1089.49 613.66
00045993 00000007 883.38 142.21 469.60 660.85 917.68 412.61 1084.03 375.41 929.30 498.26 951.21 643.82 1092.19 613.51
00045994 00000008 882.15 140.86 468.57 659.43 916.77 415.54 1080.72 376.80 928.52 499.76 951.15 645.26 1088.95 613.62
00045995 00000009 879.11 142.58 463.86 651.16 916.32 415.32 1074.90 375.64 926.54 497.75 952.14 643.38 1083.32 611.15
00045996 00000010 878.58 142.93 463.48 647.49 915.88 417.75 1073.24 376.59 927.20 497.81 953.10 643.98 1080.92 610.60
00045997 00000011 882.28 139.33 461.45 647.62 919.15 413.01 1076.89 375.30 929.25 496.40 954.45 641.31 1082.64 610.83
00045998 00000012 883.48 135.45 462.38 649.81 920.27 413.54 1078.51 375.70 931.14 495.02 955.30 640.63 1084.28 610.02
00045999 00000013 885.74 129.60 464.92 664.00 919.48 418.65 1082.39 378.17 930.54 498.56 953.51 643.78 1089.74 611.00
00046000 00000014 885.61 126.39 465.46 661.65 920.14 418.11 1085.05 376.72 932.94 498.71 954.72 643.72 1089.99 610.14
00046001 00000015 885.27 123.72 467.19 666.85 919.39 418.56 1086.76 377.59 933.11 499.75 951.16 645.56 1088.55 612.55
00046002 00000016 883.72 122.86 468.63 667.14 921.01 417.31 1086.07 381.58 933.89 502.48 951.27 642.07 1088.61 613.39
00046003 00000017 881.80 127.51 467.27 661.41 919.63 417.74 1083.68 381.06 933.94 501.67 950.52 642.51 1086.68 613.17
00046004 00000018 881.51 131.17 464.55 652.91 918.90 410.34 1079.46 374.58 928.87 491.41 951.65 637.64 1082.30 609.00
00046005 00000019 882.84 124.28 460.99 641.52 914.02 399.44 1080.74 365.86 922.66 472.95 941.58 622.04 1069.93 594.54
00046006 DELETE   888.96 117.19 460.99 626.73 915.80 384.04 1086.29 347.03 925.72 453.27 936.00 606.77 1063.62 577.75
00046007 00000021 902.74 114.67 450.20 611.56 928.93 368.00 1110.85 330.29 948.84 428.33 938.03 588.93 1078.04 561.61
00046008 DELETE   920.29 119.04 444.50 599.41 945.49 361.40 1127.48 328.92 970.30 419.66 951.37 583.99 1090.86 561.74
00046009 00000023 926.29 120.28 449.74 601.56 972.40 356.09 1158.76 344.30 1005.57 417.25 971.37 569.97 1112.06 563.83
00046010 DELETE   924.32 107.74 462.06 632.48 1001.70 361.13 1184.32 359.28 1029.28 425.83 997.54 578.09 1130.46 577.36
00046011 DELETE   930.71 119.62 462.41 639.42 1012.47 363.16 1207.65 376.52 1055.21 458.78 1006.24 596.77 1145.06 609.14
00046012 00000026 935.35 125.22 465.56 653.40 1024.02 377.57 1220.94 395.63 1072.02 485.29 1015.28 612.64 1154.93 629.38
00046013 00000027 938.16 135.64 464.20 666.01 1021.84 393.60 1218.79 407.90 1071.37 512.98 1017.47 638.68 1157.02 652.58
00046014 00000028 934.93 138.56 464.11 672.07 1015.61 401.13 1219.10 411.78 1069.42 521.75 1014.18 652.29 1162.17 662.68
00046015 00000029 931.85 136.77 466.10 665.82 1012.84 398.19 1214.91 410.40 1064.18 516.99 1010.62 645.77 1158.60 657.15
00046016 00000030 926.07 133.08 470.70 660.10 1006.22 390.13 1202.27 404.07 1048.34 500.62 999.96 629.61 1148.32 642.19
00046017 00000031 928.54 129.34 461.21 661.42 1005.63 377.49 1191.07 395.75 1034.33 484.89 1000.12 611.89 1137.73 627.40
00046018 DELETE   929.18 128.86 456.82 651.18 995.74 375.98 1175.82 392.67 1012.51 473.84 984.35 605.23 1115.89 620.41
00046019 DELETE   927.47 121.06 456.29 663.49 982.57 377.78 1159.28 390.40 995.90 478.99 973.94 611.54 1101.85 624.40
00046020 00000034 920.89 120.31 459.65 670.19 972.06 384.83 1149.15 394.99 988.63 491.75 965.82 625.20 1093.24 636.66
00046021 00000035 915.44 134.88 462.32 661.16 963.11 389.58 1141.48 398.84 980.69 504.55 961.79 639.06 1088.97 648.83
00046022 00000036 912.29 135.35 457.47 658.22 957.32 388.94 1138.74 398.14 975.37 502.30 952.97 637.62 1083.57 647.65
00046023 00000037 913.08 122.68 454.99 668.05 959.05 382.10 1140.23 390.39 974.40 486.51 953.87 626.35 1083.91 636.21
00046024 00000038 913.33 119.71 455.32 658.22 959.83 372.28 1139.88 378.25 975.03 466.16 956.44 610.90 1090.18 618.36
00046025 00000039 915.31 117.98 453.47 645.87 962.85 366.10 1145.23 362.95 977.68 447.73 959.94 601.58 1097.26 601.61
00046026 00000040 913.27 110.87 457.28 665.25 965.50 358.93 1152.13 355.26 979.50 439.09 959.67 600.09 1102.10 599.70
00046027 00000041 914.47 108.54 459.21 677.43 969.35 354.80 1157.26 353.05 978.93 435.88 961.08 600.33 1109.78 601.40
00046028 00000042 914.63 114.26 459.52 679.93 968.89 359.46 1153.09 358.16 978.23 443.99 962.50 607.78 1110.96 609.26
00046029 00000043 917.62 126.53 454.89 682.41 966.89 365.00 1145.54 373.54 977.51 464.50 962.27 615.16 1108.75 624.22
00046030 DELETE   915.07 126.50 457.05 691.62 961.02 378.65 1139.46 385.92 972.07 488.08 962.73 631.01 1105.21 638.37
00046031 00000045 903.49 132.61 462.89 679.55 951.39 389.19 1131.50 395.30 964.43 505.76 955.63 639.98 1095.37 646.51
00046032 00000046 903.80 144.52 461.40 662.75 946.07 392.20 1126.74 399.17 960.05 508.52 948.98 643.36 1087.15 650.51
00046033 00000047 904.75 132.19 459.59 666.36 949.53 390.07 1129.32 395.40 962.71 498.61 950.55 634.80 1086.47 641.20
00046034 00000048 909.39 128.23 457.19 659.60 955.32 383.59 1133.76 387.47 965.77 481.44 953.79 622.22 1087.58 627.54
00046035 00000049 908.81 118.46 458.08 658.68 954.31 375.86 1134.39 378.30 967.20 468.76 953.84 611.86 1090.94 616.10
00046036 00000050 909.55 111.38 453.99 654.91 953.87 370.70 1137.63 368.39 970.18 459.27 954.04 606.84 1095.46 607.37
00046037 00000051 912.41 113.20 454.54 654.21 950.85 373.36 1138.25 368.54 967.96 459.32 950.74 611.06 1096.60 609.35
00046038 00000052 915.66 116.61 453.24 653.05 956.40 368.37 1141.49 371.17 975.17 461.55 953.59 608.89 1094.94 613.31
00046039 00000053 920.62 116.46 456.00 664.67 964.11 368.30 1149.10 372.82 985.27 465.49 960.83 611.47 1101.27 617.21
00046040 00000054 926.13 110.38 457.54 675.35 980.77 365.76 1169.29 374.48 1004.09 467.94 975.24 611.91 1116.59 620.86
00046041 00000055 923.12 109.14 465.43 679.50 991.58 365.69 1187.61 376.95 1026.66 471.56 988.62 610.75 1132.38 621.69
00046042 00000056 920.97 116.81 467.60 660.64 1001.76 366.28 1201.88 372.69 1047.52 464.39 1003.15 610.05 1141.55 616.82
00046043 00000057 924.07 112.32 468.47 663.90 1008.18 362.07 1210.25 368.89 1060.11 462.93 1013.42 609.99 1149.65 617.14
00046044 00000058 928.41 105.05 466.85 666.35 1011.36 359.30 1213.32 364.07 1062.66 456.36 1016.21 604.70 1154.71 610.35
00046045 00000059 929.98 101.88 466.67 665.20 1016.14 353.72 1214.29 362.32 1059.50 446.37 1011.25 592.34 1151.05 601.19
00046046 00000060 926.48 102.96 470.14 659.95 1013.06 355.89 1205.50 358.85 1049.33 433.08 1008.73 584.10 1144.11 587.86
00046047 DELETE   919.73 103.16 469.37 660.75 1004.60 357.23 1188.04 356.77 1030.04 424.31 999.72 582.02 1130.60 582.47
00046048 DELETE   918.64 115.32 457.33 639.81 982.36 356.99 1171.22 356.75 1015.59 433.98 977.83 584.08 1109.33 587.48
00046049 00000063 914.04 108.29 455.43 647.07 972.95 359.38 1157.49 353.82 998.40 432.05 969.74 587.97 1097.25 587.51
00046050 00000064 907.14 109.36 460.23 645.25 963.57 360.93 1144.01 352.05 981.58 431.07 958.88 588.70 1084.12 585.38
00046051 00000065 906.63 107.98 458.47 642.66 957.52 362.30 1139.30 351.52 976.05 432.83 952.40 590.39 1080.09 585.58
00046052 00000066 908.98 116.39 455.96 637.42 958.79 363.74 1137.55 356.75 973.24 439.01 953.55 593.51 1082.76 591.05
00046053 00000067 905.99 115.35 458.30 659.87 957.56 367.63 1139.32 366.31 969.97 451.39 951.67 606.95 1083.41 608.91
00046054 00000068 910.66 114.71 454.46 668.90 957.65 373.39 1136.75 378.03 968.73 467.60 952.57 614.44 1083.30 621.01
00046055 00000069 910.55 120.41 453.58 668.76 953.98 379.93 1133.55 388.65 964.07 484.76 947.54 624.31 1077.69 634.18
00046056 00000070 907.06 122.86 455.19 669.93 949.75 386.04 1131.75 397.23 965.03 502.37 946.78 635.83 1077.90 647.67
00046057 00000071 903.30 128.77 458.51 672.53 949.00 389.20 1131.07 400.69 964.97 510.84 946.27 643.06 1077.26 654.89
00046058 00000072 902.96 139.14 460.40 673.37 952.65 394.18 1131.10 405.92 970.31 519.27 952.21 649.61 1081.89 661.60
00046059 00000073 906.01 146.65 460.17 671.05 955.60 400.53 1132.33 409.60 974.80 523.58 958.26 654.95 1087.01 664.71
00046060 00000074 904.78 149.74 461.24 670.34 956.36 401.47 1133.08 410.67 976.17 525.04 958.82 654.07 1089.72 663.93
00046061 00000075 907.23 146.97 460.52 678.85 957.72 396.03 1137.65 407.50 976.58 520.31 957.90 651.10 1095.44 662.49
00046062 00000076 911.99 141.07 458.14 680.35 961.07 391.12 1141.32 404.27 980.28 517.07 962.11 645.40 1101.20 657.90
00046063 00000077 914.04 138.09 459.87 678.76 965.57 387.27 1145.70 403.30 983.90 513.05 965.08 637.95 1104.91 652.82
00046064 00000078 918.39 144.66 457.70 665.46 972.53 383.21 1149.67 401.02 987.49 506.36 968.63 629.02 1108.45 644.98
00046065 00000079 919.07 135.03 459.65 667.28 976.12 380.23 1153.89 398.38 990.86 497.16 968.15 622.22 1106.72 638.97
00046066 00000080 918.41 122.67 461.43 677.28 977.93 375.54 1157.23 396.02 989.95 490.00 967.86 614.96 1109.17 633.68
00046067 00000081 918.96 119.81 461.34 678.23 978.45 374.33 1157.53 394.51 990.31 486.83 967.79 611.87 1111.09 630.50
00046068 00000082 917.64 120.44 462.30 677.52 978.36 374.09 1157.88 394.26 990.13 486.22 967.42 611.74 1112.24 630.29
00046069 00000083 916.67 120.82 463.44 672.66 976.98 373.10 1155.21 392.75 987.64 485.80 967.74 609.15 1112.41 627.12
00046070 00000084 916.01 121.92 462.54 664.12 976.24 373.77 1153.06 393.05 987.39 486.70 967.87 607.10 1109.67 624.42
00046071 00000085 914.73 122.71 464.12 662.74 973.58 374.85 1151.48 393.73 984.55 488.18 965.83 607.79 1108.59 624.64
00046072 00000086 913.20 119.96 464.32 664.84 972.04 376.09 1149.93 394.10 983.88 487.76 964.89 608.13 1107.20 624.39
00046073 00000087 911.00 124.30 466.28 658.54 969.87 376.86 1149.27 393.47 983.58 489.09 964.02 608.88 1106.49 623.94
00046074 00000088 910.31 122.04 468.07 661.04 967.99 377.41 1147.87 393.69 982.59 489.45 962.77 609.37 1105.85 624.19
00046075 00000089 909.51 123.81 469.57 662.84 968.87 377.05 1147.26 393.95 982.06 490.28 964.24 609.60 1107.73 624.74
00046076 00000090 907.23 123.14 473.30 670.43 968.58 376.92 1146.80 393.10 981.50 490.98 964.50 610.83 1111.27 625.31
00046077 00000091 905.56 123.43 475.04 673.72 968.29 377.40 1145.72 393.88 980.13 491.93 964.52 611.50 1111.94 626.27
00046078 00000092 905.42 121.38 473.93 673.47 968.86 375.34 1146.92 393.32 982.37 491.97 964.24 609.46 1112.35 625.54
00046079 00000093 904.64 121.83 471.94 669.78 968.36 373.06 1147.90 392.19 983.74 490.32 962.57 606.90 1112.94 623.76
00046080 00000094 903.38 120.04 472.43 669.42 967.58 371.66 1147.93 392.28 982.19 489.18 960.55 604.63 1111.97 622.67
00046081 00000095 894.04 111.89 481.43 682.35 962.52 371.03 1155.76 390.71 982.29 495.19 958.80 609.81 1126.06 625.73
00046082 00000096 894.81 118.11 480.77 680.10 963.58 372.30 1157.45 389.61 985.80 495.26 960.97 611.37 1130.09 625.19
00046083 00000097 893.36 118.31 482.96 682.12 962.91 372.25 1158.00 388.43 986.12 495.19 960.04 611.37 1131.01 624.23
00046084 00000098 891.56 122.28 483.20 676.99 962.50 372.45 1157.88 389.24 986.82 494.74 959.05 610.08 1131.44 623.49
00046085 00000099 897.14 123.78 479.16 673.28 965.49 371.73 1149.09 387.94 985.90 491.80 962.93 607.57 1119.78 622.02
00046086 00000100 894.24 125.10 481.28 671.10 963.18 373.38 1147.39 388.26 985.53 493.08 961.49 608.57 1119.79 621.93
00046087 00000101 892.73 123.52 480.85 671.31 962.07 374.43 1146.96 387.63 987.06 493.93 961.73 609.59 1120.12 621.47
00046088 00000102 892.60 124.16 480.45 672.07 962.07 373.80 1148.00 387.41 988.77 494.93 961.73 610.44 1122.02 622.69
00046089 00000103 894.67 122.14 480.89 675.77 963.18 374.65 1149.93 386.36 989.91 494.26 964.16 612.61 1124.02 623.48
00046090 00000104 895.94 124.77 481.47 674.60 965.10 372.57 1150.87 385.80 990.23 493.62 966.17 611.58 1123.65 623.64
00046091 00000105 897.58 124.53 479.16 674.84 965.29 373.49 1150.08 385.91 989.59 493.43 966.97 613.00 1122.78 624.53
00046092 00000106 897.10 125.26 479.85 675.41 965.83 373.10 1150.85 386.46 989.41 493.29 965.89 613.04 1121.66 625.15
00046093 00000107 897.82 124.92 479.97 676.05 966.14 373.83 1151.84 387.64 988.77 492.68 964.23 614.46 1118.25 626.89
00046094 00000108 900.77 125.50 477.86 669.74 967.05 376.02 1154.10 388.99 989.51 491.88 966.05 615.11 1118.81 626.72
00046095 00000109 901.84 123.98 479.35 664.89 965.19 377.30 1155.97 391.18 989.92 492.73 963.67 614.57 1121.89 626.81
00046096 00000110 902.88 119.89 477.32 672.52 965.01 379.24 1154.76 391.83 989.34 492.73 962.37 616.34 1117.91 627.66
00046097 00000111 905.78 119.99 474.84 671.94 966.44 379.58 1154.33 391.67 988.83 490.46 962.14 617.21 1114.76 628.31
00046098 00000112 907.30 119.85 473.31 670.38 967.61 378.86 1155.19 391.18 989.88 489.06 962.52 616.90 1112.45 628.46
00046099 00000113 908.85 120.17 471.68 672.83 968.75 379.47 1157.15 390.71 991.83 489.56 963.63 620.43 1111.05 631.34
00046100 00000114 910.39 121.01 469.53 671.36 969.10 379.49 1157.73 389.78 993.45 491.03 965.64 622.48 1112.13 632.71
00046101 00000115 912.28 123.69 467.60 669.43 971.36 377.92 1158.46 389.53 995.03 491.25 967.85 622.55 1111.96 633.92
00046102 00000116 913.17 122.38 467.75 675.62 972.01 375.98 1158.88 389.46 993.86 490.03 967.00 621.46 1113.54 634.19
00046103 00000117 913.95 124.50 465.71 675.39 971.49 376.62 1157.86 387.71 994.28 489.09 968.00 622.69 1114.37 633.41
00046104 00000118 914.56 125.81 465.70 680.89 975.22 375.77 1158.32 386.85 995.24 487.25 971.64 622.84 1114.05 633.63
00046105 00000119 913.29 124.65 466.23 686.05 974.15 374.89 1158.50 386.25 995.52 487.02 971.95 624.02 1117.85 634.70
00046106 00000120 912.49 124.78 467.56 689.02 972.10 374.42 1157.22 385.79 993.21 487.86 970.02 625.86 1116.51 636.62
00046107 00000121 912.36 124.60 467.35 686.63 971.71 375.02 1156.65 385.89 993.48 488.43 970.20 625.64 1116.20 636.03
00046108 00000122 910.52 123.33 470.41 679.38 971.42 378.85 1154.79 390.02 989.44 485.72 966.46 619.92 1110.35 630.77
00046109 00000123 907.71 119.66 467.85 661.14 965.76 380.80 1145.79 388.69 986.34 478.31 961.78 615.63 1098.96 624.33
00046110 00000124 896.99 125.01 470.94 645.55 962.37 369.28 1140.31 382.77 976.33 466.51 951.44 604.50 1083.30 617.99
00046111 00000125 894.70 127.73 466.17 640.18 958.46 364.80 1136.90 379.69 968.59 462.11 943.20 602.74 1069.73 617.45
00046112 DELETE   899.27 122.69 464.71 649.65 960.99 366.92 1138.50 384.42 969.10 466.38 943.81 605.39 1070.00 622.46
00046113 00000127 903.24 123.57 461.13 653.72 963.00 369.82 1137.11 391.08 969.51 476.09 946.96 610.85 1069.71 630.74
00046114 00000128 903.55 121.03 460.65 656.87 961.56 381.01 1136.67 395.46 971.48 483.40 947.70 620.62 1068.29 635.50
00046115 00000129 904.75 119.75 461.55 662.78 960.66 383.58 1138.01 395.59 974.72 489.51 952.35 626.84 1073.14 639.83
00046116 00000130 906.74 121.25 461.80 665.55 961.46 384.63 1139.00 398.48 974.70 492.51 954.04 628.01 1078.83 642.10
00046117 00000131 905.62 117.60 462.36 668.42 957.85 387.33 1137.27 397.54 972.26 493.05 952.30 629.15 1081.08 640.34
00046118 00000132 907.37 117.18 458.58 666.65 951.54 383.54 1129.13 394.07 960.80 490.48 945.87 626.81 1074.03 637.95
00046119 00000133 903.69 114.03 461.15 657.94 943.76 383.96 1119.22 386.61 950.35 477.37 942.04 618.79 1069.52 623.30
00046120 00000134 890.86 108.62 456.25 655.27 927.64 374.24 1105.18 368.19 934.95 461.31 927.08 611.48 1057.85 608.51
00046121 00000135 883.77 112.95 452.15 649.22 923.84 377.50 1095.45 363.88 924.75 455.06 922.03 611.97 1049.53 602.07
00046122 00000136 885.70 117.07 450.42 645.31 924.67 375.89 1097.22 363.76 926.72 454.55 923.14 611.24 1051.82 602.48
00046123 00000137 889.49 115.44 451.17 649.71 927.69 374.27 1099.78 367.60 931.49 462.94 929.01 610.13 1059.99 606.42
00046124 00000138 891.30 116.65 455.28 659.27 934.68 372.45 1106.17 371.36 935.86 464.03 933.71 610.99 1063.92 611.88
00046125 00000139 897.59 116.67 455.36 662.20 939.79 373.13 1108.15 373.05 937.39 467.08 937.80 613.13 1067.18 614.73
00046126 00000140 899.85 109.88 455.78 670.76 940.65 375.92 1112.73 375.46 939.32 469.91 937.45 617.10 1068.39 618.61
00046127 00000141 905.26 114.83 454.14 669.34 944.69 381.11 1116.31 379.49 941.97 473.73 940.48 621.79 1069.50 622.55
00046128 00000142 906.15 117.72 455.72 669.76 946.77 381.76 1125.97 381.69 953.19 475.38 943.66 624.50 1076.76 626.74
00046129 00000143 913.87 122.33 455.57 669.56 956.51 377.39 1136.76 381.79 968.04 473.47 953.09 621.50 1087.64 627.63
00046130 00000144 917.98 122.05 458.83 673.88 966.61 374.85 1150.63 383.46 984.16 476.96 960.79 620.08 1101.22 629.64
00046131 00000145 923.51 121.81 460.59 677.87 975.60 376.43 1160.08 384.09 993.33 477.36 969.04 621.67 1111.30 630.11
00046132 00000146 924.23 121.30 459.40 680.92 979.24 373.99 1168.17 382.64 1000.59 477.14 972.08 622.09 1117.34 631.43
00046133 00000147 927.37 124.82 458.69 679.28 981.13 373.05 1169.48 381.69 1005.70 479.11 976.98 624.85 1120.49 633.95
00046134 00000148 929.53 123.85 455.88 675.46 982.62 373.04 1170.04 382.47 1007.57 479.80 978.80 622.99 1120.87 632.79
00046135 00000149 921.50 128.48 458.87 656.96 979.71 370.85 1177.73 383.14 1000.86 478.29 965.35 617.16 1122.91 626.54
00046136 00000150 932.07 118.45 455.02 667.49 983.82 372.01 1176.05 384.73 1009.77 479.15 976.13 616.20 1120.61 628.71
00046137 00000151 932.97 118.71 454.71 666.81 987.24 371.59 1178.37 384.61 1014.15 479.29 979.87 617.21 1121.33 630.19
00046138 00000152 933.13 123.78 456.87 664.85 987.81 373.46 1179.77 385.31 1016.22 481.25 980.50 620.95 1119.52 633.13
00046139 00000153 933.73 121.45 456.34 666.51 988.81 373.07 1181.61 385.49 1017.57 480.95 980.92 620.80 1120.48 633.43
00046140 00000154 935.40 125.39 454.83 663.33 989.30 372.06 1182.55 383.89 1019.12 481.31 982.27 621.60 1122.79 633.62
00046141 00000155 933.65 126.20 456.45 670.22 991.28 371.70 1180.84 384.69 1018.51 481.85 983.59 623.11 1119.44 636.28
00046142 00000156 931.32 126.30 457.95 676.61 991.99 369.80 1179.88 384.67 1018.02 482.19 983.97 622.64 1120.68 637.23
00046143 00000157 931.68 123.87 457.12 674.90 989.40 369.73 1178.41 384.75 1015.10 481.26 980.40 621.66 1118.30 636.64
00046144 00000158 933.93 123.37 455.03 667.95 988.74 367.64 1177.14 384.06 1011.04 478.27 978.15 617.70 1113.71 633.78
00046145 00000159 934.49 120.05 458.67 665.42 991.82 365.53 1180.54 384.35 1011.77 475.11 978.45 612.87 1111.79 630.94
00046146 00000160 933.02 116.03 463.70 669.37 995.88 365.50 1186.85 385.77 1018.10 474.00 981.10 611.51 1116.49 630.76
00046147 00000161 918.77 132.81 475.72 643.03 999.58 369.81 1192.89 384.90 1021.34 469.57 980.49 612.47 1111.24 626.53
00046148 00000162 918.45 130.38 478.19 647.92 1000.45 369.47 1194.02 384.88 1021.35 467.65 980.65 610.60 1112.98 624.92
00046149 00000163 919.88 127.23 473.74 647.79 1000.21 366.50 1192.66 382.56 1019.37 465.51 979.41 606.88 1112.03 621.69
00046150 00000164 934.15 115.12 458.55 662.99 992.80 360.72 1182.81 379.62 1013.71 468.27 978.75 605.09 1114.27 623.33
00046151 00000165 933.61 117.46 456.10 658.68 989.44 360.07 1180.29 376.69 1011.75 466.37 977.28 605.06 1113.29 621.32
00046152 00000166 933.54 114.44 455.35 662.11 984.85 360.74 1181.00 376.34 1011.57 468.15 974.25 607.15 1117.49 622.49
00046153 00000167 931.17 114.14 455.27 656.96 982.55 360.27 1177.43 375.44 1009.63 468.48 973.77 603.14 1116.81 617.93
