Video ID: 	1VvNEfuHhoY
H: 	1080
W: 	1920
FPS: 	29.97002997002997

FRAME INDEX X0 Y0 W H [Landmarks (5 Points)]

00003560 00000000 839.03 94.74 445.69 764.06 1015.37 430.96 1210.29 392.57 1191.65 521.50 1039.05 660.50 1239.53 629.43
00003561 00000001 858.82 98.53 433.92 740.70 1022.25 424.07 1224.00 389.23 1200.46 504.56 1056.36 644.57 1254.41 615.25
00003562 00000002 869.49 97.40 425.90 736.34 1023.47 426.86 1225.78 392.95 1195.47 507.42 1058.16 643.48 1253.77 614.73
00003563 00000003 862.01 91.08 429.20 749.79 1015.61 436.55 1213.47 393.77 1193.59 524.25 1044.96 659.42 1241.22 624.49
00003564 00000004 855.86 94.55 429.45 743.54 1009.11 439.30 1206.91 406.22 1174.90 532.23 1035.95 659.86 1228.13 632.21
00003565 00000005 830.74 104.27 446.04 741.06 996.58 444.84 1203.44 414.88 1157.54 530.60 1020.65 659.54 1220.76 633.22
00003566 DELETE   819.25 101.33 448.63 763.68 988.20 444.97 1197.44 422.94 1141.98 528.66 1003.99 665.93 1204.38 645.44
00003567 00000007 795.56 96.57 456.44 777.33 957.43 445.33 1168.15 413.60 1122.92 532.84 984.24 674.92 1184.44 648.27
00003568 DELETE   783.96 102.49 464.84 776.51 945.35 440.95 1156.16 415.82 1104.16 532.55 966.70 671.16 1174.08 649.49
00003569 00000009 777.91 103.30 463.34 782.29 934.14 436.56 1148.47 415.25 1089.87 533.72 951.38 670.79 1163.65 652.71
00003570 00000010 770.56 109.93 467.59 776.75 928.95 435.83 1142.34 412.47 1085.23 530.56 942.82 669.42 1156.94 650.13
00003571 00000011 770.93 107.80 467.08 775.98 926.87 432.33 1141.61 410.56 1081.79 528.66 938.79 666.07 1155.32 648.03
00003572 00000012 766.77 101.04 473.80 780.77 927.70 421.87 1146.97 406.00 1082.68 521.58 936.50 659.62 1157.43 646.20
00003573 00000013 775.84 85.66 471.62 797.97 930.94 410.82 1157.01 404.49 1075.94 501.42 940.40 652.69 1153.99 646.50
00003574 00000014 780.15 97.49 468.27 788.07 926.06 408.76 1155.11 404.16 1078.40 508.18 928.79 656.36 1154.01 652.10
00003575 00000015 772.29 89.08 474.10 803.40 926.92 405.57 1151.82 409.00 1063.50 499.97 928.42 653.77 1139.52 655.47
00003576 00000016 775.39 100.67 464.84 785.65 919.93 417.05 1141.76 418.04 1049.86 513.11 923.68 659.52 1129.16 659.62
00003577 00000017 779.15 115.58 456.51 791.76 915.60 431.62 1136.09 435.29 1046.20 541.12 910.67 679.55 1118.53 682.32
00003578 00000018 766.38 142.54 467.36 778.92 909.36 449.91 1134.70 456.75 1040.46 565.08 900.02 693.46 1111.56 698.22
00003579 00000019 764.18 156.35 472.15 778.95 905.46 473.39 1131.96 483.20 1027.50 597.81 892.70 709.91 1107.98 716.53
00003580 00000020 766.32 189.08 471.52 752.08 906.43 506.69 1131.42 510.07 1034.50 633.71 890.10 731.19 1102.96 734.17
00003581 00000021 775.72 206.89 461.70 743.60 907.14 525.85 1134.54 532.06 1030.23 658.23 891.27 744.88 1104.20 749.79
00003582 00000022 783.59 231.59 458.15 716.10 912.31 543.05 1134.60 542.61 1031.07 672.67 903.55 749.09 1114.08 749.31
00003583 00000023 785.11 236.01 461.96 716.64 919.18 554.29 1138.72 547.48 1040.77 681.12 916.99 757.42 1123.07 752.26
00003584 00000024 785.93 228.01 464.02 727.07 928.52 549.77 1146.92 541.14 1054.47 675.32 922.45 755.80 1129.47 749.56
00003585 00000025 793.73 227.09 461.58 723.31 936.96 540.89 1154.29 533.03 1067.71 663.65 929.47 750.42 1137.90 745.11
00003586 00000026 795.26 225.86 461.64 717.49 942.12 536.51 1162.41 524.82 1081.38 656.57 928.74 740.72 1150.82 732.73
00003587 00000027 785.06 209.78 472.49 725.90 945.40 531.33 1167.73 509.95 1097.26 643.66 939.96 737.15 1164.86 720.98
00003588 00000028 789.84 194.09 471.63 735.81 952.18 522.86 1175.40 503.43 1106.05 633.13 950.24 734.13 1172.63 719.06
00003589 00000029 803.76 186.54 460.37 734.57 958.86 514.30 1181.72 499.28 1113.23 623.23 957.57 728.12 1178.06 716.78
00003590 00000030 804.74 171.60 459.65 748.18 966.34 504.69 1185.02 493.29 1123.11 613.09 962.26 722.88 1178.56 714.48
00003591 00000031 814.88 165.22 457.63 760.76 982.35 497.76 1198.30 494.26 1123.06 603.69 963.98 712.93 1179.34 707.93
00003592 00000032 826.82 152.10 449.57 767.98 986.71 487.25 1201.81 483.88 1128.33 594.81 970.72 706.37 1182.94 702.16
00003593 00000033 829.29 144.37 450.99 770.01 988.35 478.29 1203.77 473.91 1131.79 583.25 975.72 699.13 1187.40 694.60
00003594 00000034 841.74 145.52 440.80 762.31 988.72 471.92 1208.09 464.10 1137.71 573.20 979.68 693.59 1195.77 687.19
00003595 00000035 829.82 139.46 456.65 770.57 994.08 462.46 1210.59 448.81 1151.19 563.36 984.77 690.25 1203.19 679.61
00003596 00000036 835.39 130.87 458.03 784.33 1001.25 447.80 1214.68 436.54 1160.33 550.71 996.98 684.91 1212.90 675.81
00003597 00000037 844.44 124.39 458.91 798.99 1009.31 440.66 1219.67 430.19 1169.10 543.96 1009.26 684.63 1222.65 675.88
00003598 00000038 859.94 128.04 452.91 790.90 1019.10 443.46 1230.34 429.55 1180.37 544.31 1025.41 685.32 1239.01 673.06
00003599 00000039 880.86 129.54 435.15 761.10 1030.23 450.50 1244.80 430.43 1196.61 546.67 1040.75 681.85 1251.75 664.61
00003600 00000040 905.47 129.35 422.50 745.40 1057.54 450.47 1266.30 429.20 1221.26 556.33 1049.37 675.90 1262.34 659.69
00003601 00000041 910.31 128.69 417.99 739.20 1066.50 456.82 1271.87 430.31 1233.93 558.87 1060.39 677.52 1269.62 657.56
00003602 00000042 917.94 134.09 412.10 728.32 1066.45 462.56 1273.55 430.37 1238.96 560.27 1064.10 679.33 1271.91 654.76
00003603 00000043 924.02 136.59 405.51 725.04 1066.02 461.43 1273.55 430.75 1237.82 561.49 1063.29 677.95 1271.59 654.67
00003604 00000044 922.79 135.68 403.03 727.71 1061.53 462.85 1270.66 432.49 1231.25 564.63 1057.08 678.05 1268.84 655.00
00003605 00000045 917.18 133.54 404.34 730.73 1050.12 464.29 1260.36 437.96 1212.58 569.00 1050.25 677.96 1264.84 656.73
00003606 DELETE   875.69 140.87 429.36 728.09 1025.76 469.86 1232.52 442.39 1189.75 563.24 1037.70 677.35 1244.49 654.41
00003607 00000047 863.79 137.32 431.78 738.62 1014.06 470.63 1223.33 447.96 1173.10 570.61 1016.93 683.41 1224.93 665.12
00003608 00000048 841.48 132.09 442.50 761.86 1000.91 468.62 1210.61 447.02 1158.38 566.76 996.17 687.79 1203.88 670.86
00003609 00000049 827.41 127.95 449.20 788.69 990.75 457.09 1203.13 450.28 1138.92 562.14 983.87 694.79 1190.15 688.52
00003610 00000050 798.99 128.39 460.59 787.07 959.91 460.99 1171.09 443.08 1121.85 570.58 965.93 709.30 1169.38 695.09
00003611 00000051 791.60 134.87 467.13 778.86 944.98 460.27 1165.62 447.69 1095.10 564.83 960.59 704.30 1159.69 693.93
00003612 00000052 798.27 134.22 459.34 752.17 939.63 461.23 1167.70 448.21 1088.04 568.94 958.67 700.37 1159.53 689.11
00003613 00000053 797.89 134.07 456.64 747.26 939.52 463.59 1166.20 447.05 1089.71 569.63 960.56 700.56 1159.93 686.48
00003614 00000054 793.41 135.21 459.34 764.33 943.64 464.70 1162.41 446.82 1096.20 563.84 967.33 706.72 1158.76 692.01
00003615 00000055 797.24 132.40 455.73 790.21 947.09 463.80 1162.69 446.67 1102.60 563.00 967.63 709.96 1166.26 695.57
00003616 00000056 804.41 140.25 446.60 781.35 957.48 466.38 1160.92 444.53 1123.90 568.25 967.49 706.64 1173.21 688.69
00003617 00000057 808.10 132.27 454.68 793.00 977.28 465.87 1186.87 443.97 1134.67 563.93 979.90 703.30 1189.68 683.92
00003618 00000058 826.33 132.46 442.79 769.83 985.06 465.23 1197.23 447.69 1140.77 565.59 983.23 691.49 1195.88 676.13
00003619 00000059 834.70 130.25 436.80 760.42 987.41 466.39 1203.60 443.19 1148.40 566.19 984.98 688.92 1202.14 669.75
00003620 00000060 831.67 128.57 440.35 754.79 991.24 465.82 1204.09 436.49 1156.02 563.31 989.14 687.29 1204.96 663.64
00003621 00000061 833.10 127.56 439.68 751.80 991.74 461.62 1202.85 432.07 1157.23 558.72 991.25 681.95 1206.65 658.25
00003622 00000062 835.58 129.87 437.11 748.53 991.64 461.25 1202.73 431.37 1158.84 557.97 993.53 681.97 1208.32 657.96
00003623 00000063 832.41 133.33 436.74 745.96 991.65 460.39 1201.97 431.64 1158.01 558.01 989.85 682.22 1204.88 659.18
00003624 00000064 838.54 132.99 429.12 744.41 988.19 459.18 1200.94 432.11 1154.46 557.83 987.06 680.99 1203.54 659.34
00003625 00000065 834.85 131.27 429.93 744.20 984.22 455.28 1198.07 430.96 1147.66 555.78 984.49 678.93 1201.36 659.23
00003626 00000066 827.26 124.58 436.20 750.66 978.47 454.04 1190.15 426.30 1139.03 553.67 982.17 678.26 1198.04 655.50
00003627 00000067 795.60 116.69 457.28 765.09 953.96 456.93 1169.27 424.37 1121.52 544.53 975.34 679.65 1188.21 652.42
00003628 00000068 793.45 112.53 457.02 784.33 944.57 450.62 1162.15 425.27 1106.14 545.99 963.25 683.20 1178.99 661.43
00003629 00000069 782.25 116.54 458.48 792.26 936.50 446.73 1152.21 426.02 1096.19 548.02 950.82 685.04 1167.68 667.06
00003630 00000070 769.01 128.53 465.84 793.66 930.52 450.61 1143.63 429.57 1090.62 550.07 941.27 690.46 1157.38 672.80
00003631 00000071 761.50 130.52 469.09 800.71 930.37 458.15 1142.15 433.26 1092.31 554.26 936.80 697.41 1152.55 677.02
00003632 00000072 768.87 134.33 456.84 801.58 933.98 462.97 1145.04 443.11 1095.05 560.25 938.68 704.36 1148.08 688.20
00003633 00000073 772.91 135.58 454.34 796.94 936.64 466.36 1146.62 443.93 1097.53 561.45 945.17 703.94 1152.60 685.65
00003634 00000074 786.34 130.84 446.26 798.50 939.95 462.00 1148.45 436.57 1102.78 556.08 956.34 702.47 1163.00 681.33
00003635 00000075 787.95 135.98 445.60 780.91 942.09 464.42 1151.86 435.23 1109.17 557.22 960.38 698.65 1170.55 674.24
00003636 00000076 790.66 138.43 444.64 763.62 943.22 473.65 1154.26 438.23 1113.27 563.16 963.19 697.12 1174.62 667.62
00003637 00000077 788.26 139.82 447.27 750.58 944.12 476.62 1154.60 440.44 1112.31 566.93 962.77 696.24 1172.29 666.44
00003638 00000078 791.04 143.29 445.89 743.80 942.55 476.49 1156.31 444.61 1106.86 569.84 958.00 694.04 1170.38 667.59
00003639 00000079 792.09 141.01 441.09 745.47 939.96 476.83 1153.56 447.93 1101.31 572.42 954.33 693.93 1164.10 670.02
00003640 00000080 779.66 145.49 447.56 742.80 934.60 482.86 1146.71 451.04 1093.95 574.46 948.91 696.83 1156.00 670.83
00003641 00000081 767.56 141.71 454.09 751.94 930.17 484.34 1142.33 453.33 1090.42 576.03 942.90 700.98 1151.15 675.13
00003642 00000082 758.55 141.58 459.99 757.27 927.46 480.08 1138.29 454.99 1084.46 575.39 934.17 699.92 1143.05 678.63
00003643 00000083 770.13 137.59 448.38 765.34 920.40 477.10 1136.51 453.09 1075.48 571.34 929.86 700.15 1142.13 680.01
00003644 00000084 768.67 136.18 446.40 774.19 917.31 472.85 1134.74 451.91 1073.45 569.07 922.26 699.89 1137.58 682.45
00003645 00000085 761.06 130.98 452.58 780.42 914.69 468.96 1133.39 451.13 1069.85 567.83 917.58 698.65 1134.51 683.26
00003646 00000086 754.86 129.78 457.28 777.18 910.91 469.79 1132.42 452.46 1064.37 568.59 912.18 695.92 1132.30 680.21
00003647 00000087 753.47 135.49 457.38 759.62 905.99 472.43 1127.08 455.40 1055.78 572.40 909.63 692.12 1129.31 676.09
00003648 00000088 749.02 137.79 458.52 751.88 904.04 474.06 1121.65 454.98 1053.21 573.63 912.66 693.43 1125.82 675.33
00003649 00000089 749.46 137.29 455.82 748.82 900.31 475.24 1115.81 453.71 1047.29 573.84 917.09 695.76 1122.35 675.46
00003650 00000090 746.84 138.78 454.61 751.66 897.27 477.69 1110.81 456.26 1042.99 575.15 916.65 699.64 1116.97 679.05
00003651 00000091 726.41 140.88 463.75 744.16 880.67 477.01 1098.86 450.77 1032.10 576.59 913.97 705.92 1104.61 683.54
00003652 00000092 721.60 145.71 466.72 733.15 873.52 478.99 1098.67 450.97 1026.85 581.29 903.69 706.65 1099.05 683.23
00003653 00000093 716.09 148.75 469.44 728.21 869.28 481.60 1096.92 452.80 1021.76 585.14 900.90 708.61 1095.38 684.59
00003654 00000094 710.20 153.60 474.18 729.48 865.29 485.31 1094.72 457.06 1016.42 589.12 897.15 714.74 1092.98 690.93
00003655 00000095 714.37 158.07 468.07 732.77 863.00 488.03 1091.92 461.91 1012.35 593.44 895.46 720.79 1089.14 698.45
00003656 00000096 707.64 159.36 473.89 732.84 863.28 492.57 1091.96 466.50 1014.37 598.81 894.17 725.11 1087.83 702.90
00003657 00000097 720.07 162.35 466.43 744.86 872.63 496.92 1089.84 465.87 1034.34 601.03 903.91 734.29 1099.50 708.58
00003658 00000098 715.04 141.01 480.53 765.18 893.01 489.45 1114.12 457.63 1057.63 587.21 922.71 722.75 1117.78 696.33
00003659 00000099 752.72 143.32 461.32 769.17 929.34 487.66 1136.69 456.37 1092.52 579.05 944.54 711.81 1144.97 685.08
00003660 00000100 759.13 144.70 461.42 758.97 945.23 494.43 1135.52 444.76 1119.84 584.67 966.23 715.20 1166.40 674.95
00003661 00000101 780.09 152.42 445.82 745.41 963.18 495.42 1144.80 442.68 1144.92 579.29 990.83 714.56 1178.73 672.28
00003662 00000102 793.02 142.91 448.61 770.47 990.19 499.71 1187.48 444.31 1178.66 581.20 1007.99 724.88 1210.80 678.98
00003663 00000103 836.16 142.82 411.10 752.50 999.14 499.25 1190.28 448.83 1181.54 578.35 1034.98 721.23 1214.99 679.41
00003664 00000104 845.42 145.90 403.19 738.72 997.90 502.10 1191.27 453.48 1174.77 583.25 1034.36 720.21 1211.58 680.25
00003665 DELETE   813.86 143.62 429.04 740.79 991.81 503.73 1187.08 456.01 1169.40 590.13 1024.55 721.99 1205.67 682.07
00003666 DELETE   780.18 147.73 448.48 744.44 969.41 509.29 1166.02 455.55 1144.58 593.37 1014.23 729.62 1183.33 686.70
00003667 00000107 761.72 136.45 459.78 756.06 950.19 509.69 1153.80 462.44 1118.40 601.83 991.96 733.68 1163.35 694.73
00003668 00000108 749.84 149.41 459.67 751.43 929.53 511.53 1132.03 477.30 1084.35 600.21 965.31 737.64 1129.70 709.15
CROP_BBOX: 410 0 1627 1080
