Video ID: 	ptjda0izIsY
H: 	1080
W: 	1920
FPS: 	29.97002997002997

FRAME INDEX X0 Y0 W H [Landmarks (5 Points)]

00000387 00000000 630.57 127.47 536.80 735.85 818.74 453.89 1054.90 379.65 1010.45 543.22 906.47 693.57 1108.24 629.16
00000388 DELETE   630.46 127.40 536.95 735.52 818.64 453.67 1054.77 379.55 1010.37 543.12 906.27 693.56 1107.86 629.27
00000389 00000002 630.37 127.78 537.09 738.28 819.50 455.82 1056.15 380.68 1012.91 546.92 907.20 696.71 1108.79 631.65
00000390 DELETE   630.80 128.64 536.58 737.58 819.19 455.78 1056.34 380.58 1012.99 547.19 908.29 698.80 1109.13 633.71
00000391 DELETE   633.93 123.62 537.34 736.13 813.70 448.18 1048.77 384.14 1004.61 552.58 904.96 696.24 1113.13 641.83
00000392 DELETE   631.14 123.29 539.10 737.80 811.89 447.13 1046.34 383.03 1002.25 552.14 902.76 695.48 1111.97 640.84
00000393 00000006 628.01 121.38 541.41 739.05 810.29 447.13 1044.03 383.05 999.94 550.87 900.09 694.32 1109.21 639.42
00000394 00000007 627.64 121.00 541.72 738.60 809.84 447.24 1044.14 382.89 999.66 551.35 899.40 694.06 1109.04 638.91
00000395 DELETE   625.55 121.23 543.76 741.13 807.93 447.92 1043.35 382.81 998.66 552.06 897.87 695.77 1108.47 639.88
00000396 00000009 622.82 121.23 545.89 743.97 806.39 449.68 1042.13 383.17 998.13 555.46 897.58 698.30 1107.85 641.27
00000397 00000010 624.68 121.54 545.10 747.24 806.85 451.02 1043.20 384.96 997.98 556.94 898.93 699.98 1109.28 643.47
00000398 00000011 624.73 123.60 544.93 748.00 807.56 452.71 1042.99 386.11 998.54 558.27 900.33 701.12 1109.44 644.16
00000399 00000012 625.47 124.79 544.82 746.11 807.15 452.85 1044.05 386.21 998.92 559.27 901.76 702.22 1111.49 645.18
00000400 00000013 625.57 122.96 544.11 747.16 807.39 452.74 1043.58 385.67 999.08 559.22 902.44 702.64 1110.64 645.31
00000401 00000014 626.50 123.64 543.76 745.80 807.80 452.43 1044.90 385.46 1000.08 559.77 902.81 702.81 1111.93 645.64
00000402 00000015 622.18 126.13 547.37 750.32 811.71 456.60 1052.00 378.99 1007.65 552.19 905.34 705.35 1107.91 637.97
00000403 00000016 623.43 125.95 545.22 746.30 812.52 455.93 1052.83 378.45 1008.65 552.11 905.59 704.41 1107.16 637.38
00000404 00000017 624.31 124.66 545.21 751.22 813.99 454.71 1053.57 378.80 1009.13 550.64 905.99 704.68 1107.33 638.86
00000405 00000018 629.08 122.28 541.43 743.74 809.88 447.91 1046.89 384.17 1000.64 556.80 902.51 700.02 1111.07 645.60
00000406 00000019 627.89 121.94 542.83 744.18 809.34 447.89 1046.86 383.67 1000.73 556.89 902.51 700.87 1110.63 646.13
00000407 00000020 629.15 122.04 541.72 744.45 810.33 447.73 1047.57 384.30 1001.44 556.33 902.51 700.67 1110.87 646.60
00000408 00000021 629.88 123.59 541.39 742.16 810.68 447.03 1048.05 384.22 1001.33 556.37 902.75 699.68 1111.02 646.14
00000409 00000022 630.37 122.97 540.98 743.47 811.53 447.27 1047.68 384.27 1002.06 556.26 904.66 700.32 1111.63 646.60
00000410 00000023 630.94 123.60 540.54 743.58 812.18 447.25 1048.91 384.10 1003.21 555.46 905.84 701.09 1112.52 647.24
00000411 00000024 631.84 123.35 539.94 743.74 812.18 446.74 1049.68 383.92 1002.98 555.94 906.30 701.14 1112.92 647.62
00000412 00000025 631.07 122.54 540.21 745.21 812.45 446.85 1049.30 384.16 1003.13 555.81 905.92 700.50 1112.95 646.99
00000413 00000026 630.87 122.48 540.43 745.60 812.42 446.61 1049.53 384.72 1002.85 555.78 905.83 701.02 1112.01 648.19
00000414 00000027 630.92 122.98 540.91 745.85 812.57 447.22 1049.55 384.74 1003.24 556.19 906.27 701.17 1112.99 647.87
00000415 00000028 631.13 123.11 541.02 745.16 812.46 446.44 1050.34 385.04 1002.99 556.82 906.56 701.67 1112.56 649.27
00000416 00000029 631.68 123.06 540.11 744.51 812.77 446.73 1050.44 384.87 1003.53 556.43 906.90 701.09 1113.32 648.31
00000417 00000030 631.62 123.23 540.09 743.91 812.67 446.61 1050.50 384.93 1003.67 556.65 907.19 701.33 1113.31 648.70
00000418 00000031 631.93 123.04 539.55 744.67 812.53 446.59 1050.45 384.79 1003.61 556.80 906.69 701.71 1113.32 648.99
00000419 00000032 632.63 123.90 538.51 742.65 812.60 445.93 1050.11 384.70 1002.96 556.05 906.08 700.82 1112.32 648.57
00000420 00000033 632.40 123.28 538.07 743.76 813.06 445.49 1050.03 384.46 1003.51 555.95 906.75 700.34 1112.39 648.24
00000421 00000034 633.38 122.82 537.45 742.59 813.51 444.70 1050.01 384.12 1003.20 555.87 907.77 699.76 1112.02 648.04
00000422 00000035 633.55 122.45 536.60 741.83 813.38 445.02 1049.50 383.58 1002.82 555.07 908.00 699.11 1112.39 646.64
00000423 00000036 633.67 121.95 536.30 741.84 813.25 444.26 1049.09 383.17 1002.04 554.98 908.78 698.97 1111.38 646.79
00000424 00000037 633.49 121.09 536.73 743.54 813.48 444.52 1049.10 383.50 1002.26 555.01 909.50 699.10 1112.04 646.95
00000425 00000038 634.71 120.48 536.32 744.73 813.86 444.21 1049.62 383.32 1002.34 555.11 909.87 699.84 1112.84 647.82
00000426 00000039 635.17 120.42 536.10 744.88 814.05 443.87 1049.68 383.31 1002.09 554.64 910.03 699.22 1113.26 647.45
00000427 00000040 636.15 120.16 535.22 744.89 814.40 443.97 1049.76 383.50 1002.02 554.01 908.87 698.65 1113.02 646.97
00000428 00000041 636.40 120.08 534.59 744.51 814.66 444.23 1049.78 383.95 1002.21 552.89 910.11 698.97 1112.99 647.48
00000429 00000042 636.68 120.63 533.30 744.25 815.26 444.37 1050.08 384.14 1003.19 552.98 910.32 699.08 1113.07 647.64
00000430 00000043 635.47 120.18 534.95 744.94 814.82 444.26 1050.49 383.95 1003.32 553.13 910.17 699.29 1113.23 647.74
00000431 00000044 636.61 120.18 533.65 746.15 815.63 444.02 1050.52 384.34 1003.59 553.00 909.00 698.87 1112.99 647.87
00000432 00000045 637.82 121.21 532.20 743.50 816.43 444.06 1050.77 384.85 1004.22 552.61 910.26 699.70 1112.37 649.20
00000433 00000046 638.13 122.32 531.81 743.43 816.69 443.72 1051.28 385.22 1004.40 552.44 909.83 699.69 1112.28 649.73
00000434 00000047 638.99 121.01 531.31 746.07 817.85 444.35 1051.29 386.15 1004.59 550.95 910.73 699.12 1112.41 649.32
00000435 00000048 638.79 121.22 531.06 746.09 818.59 443.86 1051.41 386.09 1005.26 550.60 910.87 698.88 1111.49 649.50
00000436 00000049 639.05 120.82 531.09 747.12 818.46 443.96 1051.55 386.14 1004.95 550.08 910.96 698.77 1112.28 649.29
00000437 00000050 640.54 120.60 529.48 748.41 819.74 443.51 1051.75 386.29 1005.19 548.89 912.63 698.53 1112.75 649.47
00000438 00000051 641.10 120.10 529.58 749.09 819.91 442.86 1052.44 385.96 1005.28 548.45 912.60 698.62 1112.39 649.87
00000439 00000052 641.97 119.59 527.84 750.05 820.83 443.02 1052.73 385.98 1006.09 547.38 913.35 698.78 1112.77 649.88
00000440 00000053 641.80 120.04 527.53 749.96 820.52 442.49 1052.86 385.67 1006.04 546.96 912.83 697.78 1112.92 648.94
00000441 00000054 642.26 119.82 527.60 749.65 820.87 442.43 1053.33 386.01 1006.08 547.07 912.63 697.58 1112.59 649.07
00000442 00000055 643.09 119.99 526.85 749.23 820.76 442.34 1053.40 385.79 1005.68 546.86 912.80 697.42 1112.79 648.84
00000443 DELETE   640.90 122.20 525.21 748.14 824.54 450.10 1051.96 392.70 1011.53 545.01 913.74 698.54 1112.73 649.28
00000444 DELETE   641.23 122.34 523.82 746.84 825.25 451.29 1053.31 395.94 1011.60 544.58 913.61 697.87 1112.36 650.25
00000445 DELETE   642.18 119.93 524.69 750.63 825.71 448.88 1054.09 393.30 1011.77 543.65 912.23 696.95 1113.38 649.25
00000446 00000059 642.20 121.31 526.46 749.52 825.77 445.02 1055.66 389.17 1012.34 544.62 912.91 697.32 1113.12 649.38
00000447 00000060 642.89 120.63 527.22 751.42 824.77 443.90 1056.49 387.73 1010.69 545.16 910.52 695.80 1114.08 647.50
00000448 00000061 643.71 120.88 526.96 751.31 825.04 443.81 1056.62 388.05 1010.45 544.78 911.77 695.95 1114.44 647.96
00000449 00000062 644.65 121.69 526.43 749.16 824.70 441.75 1056.27 386.40 1010.37 544.99 913.36 695.68 1115.13 648.03
00000450 00000063 646.03 121.28 525.66 750.09 825.06 441.39 1057.13 385.84 1010.88 544.84 914.77 696.17 1116.25 648.25
00000451 00000064 646.03 120.43 526.37 751.71 825.52 439.80 1058.11 384.36 1011.84 544.78 915.95 696.80 1117.21 648.94
00000452 00000065 647.47 122.00 525.05 749.00 826.94 437.71 1059.69 383.66 1012.52 544.86 918.01 695.46 1116.69 648.72
00000453 00000066 648.85 123.02 524.48 747.95 828.00 436.61 1060.47 382.63 1013.70 544.85 919.87 696.09 1116.65 649.49
00000454 00000067 649.20 123.88 524.08 747.61 828.50 436.83 1060.59 383.01 1013.90 544.35 920.04 696.35 1116.83 649.94
00000455 00000068 650.61 123.54 522.98 747.67 828.83 436.13 1061.17 382.36 1013.81 543.74 920.50 696.54 1117.05 650.23
00000456 00000069 650.76 123.29 523.19 748.33 829.93 434.82 1061.97 382.46 1014.18 542.35 920.40 695.66 1116.69 650.45
00000457 00000070 652.51 123.67 522.74 747.31 831.12 434.11 1062.34 382.75 1014.13 541.12 919.80 694.75 1116.18 650.57
00000458 00000071 653.39 122.34 521.66 748.78 831.56 432.93 1063.25 382.25 1014.64 540.93 919.43 694.03 1116.48 650.38
00000459 00000072 654.40 121.79 520.47 748.43 833.40 432.10 1063.88 382.68 1014.99 540.94 919.45 692.69 1115.26 650.27
00000460 00000073 655.07 122.19 520.50 748.69 833.53 431.70 1064.23 382.38 1015.06 541.68 919.59 693.03 1115.25 650.75
00000461 00000074 654.90 121.32 520.31 749.57 834.70 431.17 1064.33 381.27 1016.70 540.63 921.16 692.94 1116.00 650.10
00000462 00000075 655.28 120.61 520.11 749.90 836.45 430.18 1065.78 380.87 1018.80 539.88 922.63 692.57 1116.26 650.33
00000463 00000076 655.62 120.22 520.18 750.17 837.62 430.12 1066.29 379.99 1020.65 537.96 924.56 691.65 1119.07 648.64
00000464 00000077 656.69 120.39 519.51 750.01 838.58 429.41 1066.90 379.10 1022.07 536.85 926.49 691.51 1120.44 648.23
00000465 00000078 657.09 120.57 518.07 748.78 840.08 428.01 1067.88 378.98 1023.29 535.44 927.10 690.30 1119.79 647.91
00000466 00000079 656.72 120.25 518.58 748.22 839.82 428.07 1068.00 378.53 1023.83 534.99 928.05 690.06 1121.01 647.25
00000467 00000080 657.01 119.55 518.31 749.84 840.24 426.86 1068.53 378.06 1023.78 534.78 927.88 689.30 1121.20 647.02
00000468 00000081 657.54 120.05 518.20 747.19 841.55 426.03 1070.33 377.70 1025.20 533.51 928.04 687.51 1122.15 645.60
00000469 00000082 658.37 120.89 518.49 746.89 842.34 425.82 1071.05 378.05 1025.50 532.89 928.81 687.84 1122.34 646.40
00000470 00000083 659.16 120.52 516.50 747.83 842.91 425.64 1070.40 378.26 1025.32 532.46 928.79 687.02 1122.25 645.90
00000471 00000084 659.87 121.38 517.00 747.83 843.57 425.21 1071.34 378.16 1026.06 532.31 930.04 687.43 1122.60 646.68
00000472 00000085 659.96 121.22 516.88 748.00 844.05 425.19 1071.29 378.08 1026.76 532.02 930.89 687.63 1122.87 646.74
00000473 00000086 660.30 120.59 517.09 748.22 844.61 423.82 1072.17 376.91 1027.57 531.17 930.48 686.36 1124.13 645.62
00000474 00000087 660.85 119.72 518.02 748.74 845.00 423.11 1074.19 376.85 1028.32 531.16 929.77 686.44 1124.61 646.12
00000475 00000088 662.32 120.02 518.27 749.85 846.17 423.31 1075.05 377.59 1028.99 531.37 930.07 686.50 1125.06 646.72
00000476 00000089 664.71 120.53 517.24 748.80 846.98 422.41 1077.08 377.96 1029.80 532.54 929.86 687.08 1124.88 648.37
00000477 00000090 666.65 119.15 515.51 748.55 848.15 421.94 1077.99 377.79 1030.50 532.98 929.32 686.19 1125.11 647.79
00000478 00000091 668.10 120.08 515.06 746.46 849.65 421.99 1079.36 378.52 1031.73 533.59 930.25 685.92 1125.32 648.13
00000479 00000092 667.81 120.07 515.73 747.36 850.03 421.93 1079.39 378.80 1031.85 533.41 930.58 685.91 1125.25 648.41
00000480 00000093 669.67 121.26 514.39 747.87 851.37 420.70 1080.07 378.67 1031.85 534.13 929.98 685.04 1125.12 648.40
00000481 00000094 671.49 122.54 514.68 746.24 853.29 419.73 1082.40 379.40 1033.43 534.00 930.55 685.18 1124.74 649.96
00000482 00000095 674.47 122.74 512.89 744.47 855.06 419.64 1083.84 379.94 1034.82 533.50 931.95 685.42 1124.53 650.85
00000483 00000096 674.82 123.41 513.45 743.61 857.78 418.79 1085.45 380.95 1037.11 532.45 932.83 685.19 1124.29 652.09
00000484 00000097 676.16 122.56 513.87 745.85 859.35 417.16 1086.39 379.83 1038.34 530.24 934.52 685.45 1124.80 652.72
00000485 00000098 676.11 122.04 514.06 746.75 859.50 417.05 1086.43 379.77 1038.44 530.10 934.70 685.50 1124.88 652.81
00000486 00000099 677.92 121.27 513.35 748.66 861.54 414.01 1088.90 377.61 1040.21 529.86 934.94 685.74 1124.85 653.68
00000487 00000100 679.18 117.44 514.51 751.27 865.11 409.48 1091.84 374.78 1043.23 524.94 938.02 683.80 1125.64 653.12
00000488 00000101 683.20 115.75 512.01 752.76 869.64 404.64 1095.40 370.75 1047.52 521.27 943.49 681.36 1130.73 651.16
00000489 00000102 691.38 113.58 507.62 754.16 876.28 401.41 1103.30 364.36 1051.72 518.68 946.93 680.64 1128.88 645.22
00000490 00000103 698.23 113.42 506.62 751.70 880.41 397.10 1108.24 360.72 1054.21 515.69 951.14 678.12 1131.78 643.62
00000491 00000104 698.24 113.49 506.62 751.67 880.42 397.10 1108.26 360.71 1054.22 515.72 951.14 678.13 1131.80 643.62
00000492 00000105 702.82 114.12 506.64 747.71 887.10 393.74 1114.00 359.83 1058.79 513.78 955.53 674.55 1134.68 642.35
00000493 00000106 705.82 110.91 508.08 745.15 893.56 391.18 1119.86 360.85 1064.19 510.38 960.87 670.38 1136.74 641.46
00000494 00000107 710.98 111.14 507.97 741.81 900.32 388.80 1126.25 359.31 1070.70 506.78 965.56 665.75 1141.72 637.63
00000495 00000108 710.76 101.92 512.77 744.91 905.31 382.61 1134.55 361.46 1083.04 502.09 968.94 660.72 1154.53 640.83
00000496 00000109 717.64 101.55 515.18 744.33 909.83 378.17 1141.98 360.62 1084.43 500.19 970.34 658.68 1155.87 642.17
00000497 00000110 717.68 101.60 515.14 744.16 909.82 378.16 1141.98 360.61 1084.41 500.17 970.34 658.66 1155.84 642.16
00000498 00000111 727.30 99.66 504.93 744.99 918.26 373.13 1145.07 363.02 1085.40 504.15 971.90 653.38 1154.44 642.61
00000499 00000112 733.52 98.40 501.94 743.65 925.68 369.38 1150.98 361.86 1091.46 501.42 975.32 650.21 1158.32 641.63
00000500 00000113 739.02 98.14 496.03 743.94 931.00 366.74 1154.84 360.88 1096.29 496.81 976.48 646.22 1161.01 638.83
00000501 00000114 745.17 94.40 493.76 746.23 934.84 364.91 1157.72 360.45 1098.57 491.54 978.64 641.96 1162.92 635.63
00000502 00000115 748.31 91.33 494.31 748.37 938.67 361.77 1161.19 359.07 1102.57 488.16 982.50 640.90 1165.49 636.05
00000503 00000116 748.38 91.42 494.65 748.02 938.69 361.56 1161.17 359.22 1102.37 487.67 982.42 640.26 1165.46 635.73
00000504 00000117 750.10 90.08 495.07 749.02 942.92 358.38 1165.07 358.31 1106.33 486.14 985.05 639.47 1166.32 636.77
00000505 00000118 751.55 91.42 495.72 746.40 945.93 355.57 1168.43 359.23 1109.04 484.40 983.98 636.50 1166.86 636.82
00000506 00000119 752.85 92.19 497.47 745.88 946.95 354.83 1171.18 358.67 1111.24 484.99 986.08 636.95 1168.43 637.33
00000507 00000120 753.29 91.48 498.38 746.62 950.78 356.11 1172.12 359.95 1114.55 485.15 988.00 636.02 1171.39 636.19
00000508 00000121 754.84 89.67 500.44 750.69 954.92 355.40 1176.65 359.91 1119.90 486.57 992.18 638.32 1175.41 638.86
00000509 00000122 754.12 90.50 500.92 751.30 954.76 355.42 1176.14 360.27 1119.79 486.06 991.27 638.03 1175.48 638.81
00000510 00000123 755.14 89.33 503.52 753.78 959.23 355.04 1179.32 362.37 1124.41 485.29 992.89 637.39 1178.34 640.23
00000511 00000124 755.16 88.25 504.00 756.53 965.87 359.87 1180.92 368.24 1129.42 486.85 995.62 638.13 1180.30 642.11
00000512 00000125 756.01 88.90 505.54 759.10 971.14 359.93 1184.95 370.74 1135.08 486.33 999.88 638.39 1183.32 644.52
00000513 00000126 762.46 87.03 500.81 758.58 969.38 361.46 1190.52 368.79 1134.55 486.22 1004.38 639.60 1182.87 642.11
00000514 00000127 762.44 86.75 503.88 759.36 971.26 359.61 1193.54 365.69 1137.54 485.94 1006.93 639.21 1186.12 640.76
00000515 00000128 762.37 88.53 504.07 757.95 971.34 359.63 1193.87 365.83 1137.90 485.63 1006.99 639.62 1186.56 641.27
00000516 00000129 762.45 92.64 505.34 753.66 972.30 357.50 1196.79 364.54 1140.09 485.50 1007.45 639.66 1187.97 642.17
00000517 00000130 761.73 91.59 508.26 755.75 974.54 355.26 1198.89 362.55 1141.40 485.89 1009.59 639.55 1188.22 642.37
00000518 00000131 760.86 90.30 512.13 759.67 976.14 354.53 1199.93 361.56 1143.54 485.56 1010.68 638.87 1189.53 641.61
00000519 00000132 762.16 88.71 511.34 762.11 979.16 352.77 1201.91 360.78 1146.14 484.69 1013.65 640.16 1190.47 643.86
00000520 00000133 760.17 80.71 513.75 776.06 981.49 352.21 1203.34 361.91 1148.79 482.98 1015.22 641.81 1192.37 646.67
00000521 00000134 760.10 80.94 513.47 776.14 981.54 352.19 1203.10 362.00 1148.79 482.82 1015.34 642.31 1192.18 647.28
00000522 DELETE   758.49 75.24 516.14 792.22 988.64 359.23 1204.76 373.65 1152.21 488.72 1013.51 647.88 1188.62 656.61
00000523 DELETE   759.63 78.07 515.64 799.98 990.69 362.41 1205.06 379.51 1154.96 487.26 1005.83 649.59 1188.17 660.96
00000524 DELETE   758.80 79.01 518.49 806.32 993.05 359.68 1206.89 379.89 1158.73 486.84 1003.05 650.79 1187.45 665.26
00000525 00000138 759.11 78.86 520.54 810.28 992.27 351.34 1209.16 372.45 1158.96 486.22 1000.13 647.67 1188.00 662.75
00000526 00000139 760.34 78.48 522.52 808.63 992.16 349.82 1213.38 367.45 1162.79 486.16 1000.26 647.55 1192.78 660.13
00000527 00000140 760.07 77.46 522.74 809.56 992.24 349.78 1213.29 367.44 1162.86 486.11 1000.25 647.49 1192.62 660.11
00000528 00000141 764.24 73.99 522.57 803.78 995.75 351.74 1219.88 367.89 1165.55 490.66 1004.41 644.32 1197.11 655.96
00000529 00000142 769.71 69.75 523.37 806.19 999.41 351.83 1227.32 369.47 1168.61 493.62 1007.36 643.78 1200.01 657.39
00000530 00000143 774.62 74.94 526.58 803.57 1005.15 351.58 1234.05 370.40 1173.48 497.60 1012.76 644.82 1206.15 659.80
00000531 00000144 782.98 82.05 522.04 778.48 1011.89 348.45 1243.60 378.65 1184.70 497.89 1009.55 642.51 1212.95 665.79
00000532 00000145 790.42 82.31 520.35 766.87 1021.93 348.38 1250.04 384.09 1190.16 498.82 1015.69 630.51 1219.94 658.39
00000533 00000146 790.43 82.17 520.36 767.00 1021.94 348.46 1250.07 384.18 1190.25 498.75 1015.71 630.47 1220.01 658.36
CROP_BBOX: 446 0 1671 1080
