Video ID: 	mlhL90NKU-I
H: 	1080
W: 	1920
FPS: 	25.0

FRAME INDEX X0 Y0 W H [Landmarks (5 Points)]

00005409 00000000 607.49 223.93 368.51 540.58 823.75 433.52 936.49 429.13 957.46 521.79 865.91 634.21 941.83 630.41
00005410 00000001 605.71 222.38 367.52 541.84 818.84 429.06 932.49 425.36 953.07 518.29 864.45 633.31 941.63 629.87
00005411 00000002 610.61 222.38 358.37 541.47 823.92 426.83 942.41 427.34 960.35 519.39 852.33 636.72 938.33 638.17
00005412 00000003 609.25 220.66 354.07 542.25 819.59 431.05 936.73 427.45 955.53 520.17 850.72 637.42 936.48 635.53
00005413 00000004 603.59 224.14 356.69 540.39 813.99 435.41 935.70 430.21 950.99 522.56 845.16 640.93 934.18 637.76
00005414 00000005 600.64 228.85 356.78 539.38 811.24 439.86 933.87 435.83 946.30 527.95 839.86 644.64 930.16 642.52
00005415 00000006 596.72 228.33 356.84 543.85 809.23 445.82 931.32 442.21 944.97 534.17 836.15 648.76 926.76 647.18
00005416 00000007 593.43 229.73 359.25 546.58 808.53 449.94 929.28 445.24 944.62 536.79 832.10 649.22 924.64 646.83
00005417 00000008 591.94 230.62 360.54 547.28 806.75 449.03 928.07 445.07 943.92 536.06 830.39 649.20 924.05 647.51
00005418 00000009 588.96 233.78 359.91 547.37 801.55 449.12 922.80 445.16 939.36 537.62 825.07 650.22 918.69 648.66
00005419 00000010 587.66 236.28 359.08 545.73 798.90 450.97 920.21 446.39 935.49 538.37 822.89 651.36 916.69 649.34
00005420 00000011 584.60 236.35 360.03 546.06 796.26 451.24 915.83 445.63 932.13 537.78 822.16 652.01 913.77 649.08
00005421 00000012 583.13 240.53 362.40 544.28 793.46 454.30 917.40 448.77 930.18 540.52 818.93 654.47 913.92 651.26
00005422 00000013 577.54 245.60 365.99 540.16 789.99 458.61 916.33 453.36 927.25 546.10 815.61 658.29 909.82 654.85
00005423 00000014 575.39 252.46 366.14 533.35 787.63 466.68 917.71 458.42 926.99 553.21 812.50 662.03 908.77 656.06
00005424 00000015 567.95 255.93 370.71 534.04 780.94 476.07 909.10 459.61 921.43 561.72 812.35 670.27 902.40 657.49
00005425 00000016 555.93 255.23 377.10 545.32 767.68 488.58 894.94 463.60 912.77 566.52 805.38 678.84 895.64 658.90
00005426 DELETE   550.99 255.27 377.37 551.61 761.30 494.77 891.42 465.63 907.02 577.31 801.21 689.37 889.44 666.08
00005427 00000018 547.92 262.70 382.35 556.65 758.97 486.80 889.42 462.41 903.44 577.87 800.10 697.67 892.39 678.44
00005428 00000019 547.01 256.18 379.78 564.68 760.47 482.53 882.72 459.69 904.85 570.69 803.28 693.68 892.66 675.98
00005429 00000020 547.08 252.24 377.13 555.46 757.10 487.00 880.81 463.35 904.58 559.47 804.44 678.79 894.64 659.48
00005430 00000021 550.93 246.08 374.91 551.57 759.37 481.66 882.30 458.16 903.71 554.60 808.03 673.06 896.76 653.41
00005431 00000022 547.21 243.53 376.99 550.76 756.23 477.78 882.01 457.86 898.81 554.53 805.16 670.90 894.12 653.78
00005432 00000023 545.77 242.11 379.59 550.83 755.03 475.15 884.97 456.73 897.36 554.35 801.93 669.91 893.59 654.09
00005433 00000024 547.60 238.44 379.19 553.51 754.66 470.98 886.81 453.85 896.46 552.57 802.31 670.26 894.10 655.48
00005434 00000025 549.49 237.62 379.06 553.63 758.33 469.89 888.96 454.13 900.75 549.43 806.18 668.39 897.51 654.55
00005435 00000026 550.95 240.24 377.07 551.99 760.54 470.73 887.77 454.53 902.40 548.91 806.84 667.67 897.64 653.69
00005436 00000027 548.59 237.30 376.81 550.98 758.58 469.80 885.19 452.20 899.40 547.97 806.45 666.63 894.27 651.52
00005437 00000028 548.02 236.08 377.97 552.16 755.69 468.37 885.25 449.80 897.57 547.43 803.67 666.59 893.73 650.56
00005438 00000029 543.10 233.33 382.03 559.52 753.29 468.07 880.22 444.73 895.26 546.78 797.97 665.32 888.79 645.87
00005439 00000030 536.65 234.62 386.33 558.54 748.50 465.84 876.05 444.90 892.76 544.88 790.26 661.28 883.11 644.34
00005440 00000031 534.14 231.48 386.17 561.24 746.55 462.11 870.18 442.37 890.49 540.97 786.21 657.32 877.09 641.89
00005441 00000032 532.44 230.75 383.39 560.98 743.39 459.41 868.20 440.45 885.88 541.95 781.53 656.53 871.56 641.77
00005442 00000033 532.27 226.70 380.51 556.72 742.04 457.17 866.41 438.19 881.96 539.38 785.85 654.42 872.38 639.19
00005443 00000034 531.04 227.08 381.72 555.11 740.60 455.90 865.31 436.15 880.41 539.09 784.17 653.66 871.85 637.78
00005444 00000035 529.73 228.74 383.52 555.18 738.91 455.73 866.29 435.48 878.81 539.19 779.69 651.65 870.90 635.42
00005445 00000036 527.69 229.11 385.40 556.56 738.28 453.48 865.51 434.42 881.23 539.22 773.18 650.02 866.37 635.23
00005446 00000037 526.29 227.39 385.55 559.02 737.02 451.91 864.67 433.90 880.42 539.07 767.92 648.88 862.85 635.21
00005447 00000038 530.00 227.75 381.61 555.30 744.37 447.80 874.35 431.96 888.72 539.33 759.56 648.98 864.24 637.04
00005448 00000039 528.07 222.20 379.61 558.02 741.41 446.45 873.14 431.02 886.11 536.81 756.40 647.57 862.52 636.09
00005449 00000040 526.89 220.04 377.31 553.93 737.78 443.63 871.86 430.04 883.24 533.13 755.14 644.78 861.30 634.96
00005450 00000041 524.58 216.54 377.27 550.33 736.02 439.82 871.03 427.98 881.99 529.83 755.32 642.80 859.12 634.80
00005451 00000042 523.69 216.23 377.20 551.04 733.57 439.16 869.74 426.23 880.19 528.22 753.22 642.25 859.09 633.44
00005452 00000043 523.41 216.64 376.39 549.23 732.48 436.16 870.93 425.63 879.27 525.07 753.84 641.44 859.70 634.29
00005453 00000044 522.09 216.27 376.43 549.12 731.77 436.12 870.43 424.44 878.94 525.04 753.43 640.74 859.81 632.60
00005454 00000045 520.84 214.74 375.26 549.76 731.35 434.82 869.34 423.52 876.87 525.06 752.20 640.06 857.54 632.19
00005455 00000046 519.57 214.47 374.13 549.54 731.30 434.39 868.20 423.39 876.39 524.60 752.39 639.88 856.21 632.27
00005456 00000047 519.93 212.43 368.78 549.86 732.99 441.53 864.52 435.64 874.97 523.83 752.53 636.93 853.68 633.54
00005457 00000048 518.34 209.26 369.96 556.13 732.45 440.14 861.60 438.50 872.50 522.41 750.14 634.97 850.31 635.13
00005458 DELETE   513.40 209.43 375.86 558.25 722.83 436.46 857.54 431.43 865.25 520.68 743.17 636.17 848.35 633.24
00005459 00000050 507.53 207.31 382.98 560.33 714.73 429.86 850.51 422.10 857.24 519.83 737.37 635.62 843.66 630.30
00005460 00000051 504.33 206.97 384.97 554.06 709.25 428.24 850.93 417.46 853.67 521.24 734.06 635.18 843.06 627.37
00005461 00000052 500.26 203.56 389.41 558.22 705.40 426.09 849.49 415.40 850.74 521.29 731.29 634.80 841.85 626.95
00005462 00000053 498.49 203.08 391.05 555.10 702.56 424.97 849.27 413.45 848.34 521.46 730.04 634.10 842.01 625.56
00005463 00000054 498.22 203.59 390.61 548.90 699.66 424.06 847.78 411.49 842.77 520.80 731.27 633.66 841.17 623.83
00005464 00000055 500.29 204.49 390.04 549.08 701.10 423.03 849.17 411.11 844.10 519.59 734.07 634.25 843.32 624.87
00005465 00000056 502.13 202.22 389.52 550.98 701.71 422.57 848.88 410.23 843.22 518.58 736.34 635.16 843.71 625.32
00005466 00000057 506.92 202.85 387.37 550.95 705.53 424.97 851.24 413.94 845.71 521.23 740.16 638.46 845.51 629.83
00005467 00000058 513.02 205.77 386.00 548.63 714.21 426.17 855.87 419.00 851.31 522.96 748.03 639.18 849.17 633.78
00005468 00000059 516.55 207.68 386.93 553.68 720.43 428.04 862.01 423.33 860.15 522.98 753.76 640.60 856.42 637.21
00005469 00000060 523.50 219.14 383.20 550.15 727.41 433.24 865.25 431.24 864.03 522.27 760.92 644.16 861.49 642.98
00005470 DELETE   519.40 221.65 385.83 558.40 728.78 446.16 854.36 441.12 856.39 528.26 777.74 643.79 862.09 638.41
00005471 DELETE   526.78 223.92 385.53 559.77 733.79 450.20 861.82 443.87 861.25 532.44 779.83 648.01 866.79 641.65
00005472 00000063 533.43 220.53 384.14 560.77 733.47 438.72 869.60 434.81 862.57 531.18 782.33 647.75 872.26 642.90
00005473 00000064 535.99 219.47 386.57 556.87 734.01 435.88 874.20 431.61 866.53 530.01 784.71 646.99 876.46 641.75
00005474 00000065 538.99 220.68 388.42 550.13 736.26 431.17 879.52 428.36 869.10 528.04 786.12 643.19 880.73 638.87
00005475 00000066 543.98 219.24 388.55 551.72 739.80 431.51 884.82 428.24 871.62 529.02 787.72 643.95 883.13 639.43
00005476 00000067 545.41 222.31 387.08 551.60 740.58 433.71 885.71 430.20 872.09 531.17 788.38 646.30 883.46 641.53
00005477 00000068 545.21 225.97 388.46 549.94 742.09 435.50 887.52 432.22 872.99 533.38 787.91 647.79 883.63 643.19
00005478 00000069 544.75 224.67 390.53 547.98 741.84 435.27 889.97 431.90 873.92 533.02 788.02 647.30 884.45 642.53
00005479 00000070 545.43 224.02 391.29 546.08 740.89 435.14 889.99 430.12 873.61 531.20 788.57 646.31 885.72 640.16
00005480 00000071 543.94 220.16 393.09 548.03 738.72 431.86 888.24 426.88 872.82 526.92 786.93 643.28 885.74 637.29
00005481 00000072 543.66 220.10 395.02 548.72 736.49 432.09 888.40 428.10 870.82 526.92 783.61 643.01 885.31 637.85
00005482 00000073 541.76 218.95 397.14 553.86 735.29 431.16 887.81 429.83 869.40 526.87 778.60 642.09 882.95 639.33
00005483 00000074 541.20 218.32 397.33 557.19 733.39 430.25 887.21 429.73 868.78 526.74 776.62 642.49 882.46 640.49
00005484 00000075 540.95 216.96 397.04 558.61 733.23 429.91 886.67 429.98 867.80 527.73 775.11 643.21 880.30 641.86
00005485 00000076 542.05 218.22 397.82 551.93 734.69 429.06 888.78 427.34 870.24 525.94 779.05 641.52 883.63 638.49
00005486 00000077 542.73 215.96 397.11 552.46 734.93 428.05 889.33 426.17 870.46 525.06 779.76 640.88 884.61 637.77
00005487 00000078 540.61 217.05 397.87 551.76 734.19 427.33 887.62 426.73 868.71 525.41 777.49 640.52 881.76 638.43
00005488 00000079 540.41 216.77 398.69 553.40 733.24 426.15 886.10 426.42 866.75 522.74 777.76 638.24 882.18 636.73
00005489 00000080 539.45 216.63 398.34 556.20 732.48 426.31 884.65 427.35 865.55 524.31 775.97 639.14 880.16 638.38
00005490 00000081 538.26 216.17 399.38 558.51 731.98 425.86 884.89 428.21 865.82 524.28 774.94 639.94 879.39 640.28
00005491 00000082 538.30 217.09 400.16 557.22 732.26 425.37 885.66 428.44 865.48 524.01 773.81 638.73 879.34 639.68
00005492 00000083 538.06 217.67 399.79 554.82 731.89 425.43 885.38 428.75 865.33 523.63 772.59 637.95 878.31 639.14
00005493 00000084 537.94 217.93 400.46 553.40 732.59 425.38 886.26 428.33 865.70 523.72 771.03 637.15 877.28 638.12
00005494 00000085 538.35 217.95 401.57 549.34 733.10 424.77 888.79 425.63 867.55 522.67 772.64 635.59 879.79 634.69
00005495 00000086 537.73 216.78 402.03 549.35 732.82 425.70 889.25 425.35 868.30 522.34 772.02 634.62 880.71 632.78
00005496 00000087 538.82 216.29 402.56 552.40 732.77 426.12 888.29 426.08 866.94 523.54 771.35 635.62 878.57 634.14
00005497 00000088 537.48 219.92 407.10 550.95 731.44 427.28 889.59 428.54 865.70 522.61 764.15 632.35 879.06 632.12
00005498 00000089 533.81 221.02 411.59 548.09 731.62 426.52 891.71 429.62 866.96 523.05 757.10 625.79 879.87 627.51
00005499 00000090 531.77 222.05 414.38 546.95 729.84 425.14 892.11 428.92 865.48 523.23 750.65 621.87 879.05 624.49
00005500 00000091 530.80 224.14 414.27 544.14 727.45 424.88 891.15 428.51 862.81 524.95 745.49 620.19 876.99 622.91
00005501 00000092 530.71 222.23 413.65 544.38 726.83 425.36 890.84 428.86 862.72 523.44 744.97 619.42 877.48 622.11
00005502 00000093 529.72 220.80 413.88 545.17 725.30 424.45 889.98 428.03 860.36 524.27 742.18 618.24 875.80 621.11
00005503 00000094 526.40 223.05 415.74 545.89 722.22 424.40 886.99 428.33 856.54 526.28 738.10 619.05 872.81 622.22
00005504 00000095 526.24 221.91 414.55 545.43 720.45 423.60 886.17 427.07 855.99 525.25 738.68 619.74 873.04 622.50
00005505 00000096 524.50 215.83 415.01 552.10 719.01 423.28 883.58 424.87 853.78 524.77 736.83 620.40 870.15 621.78
00005506 00000097 520.74 216.63 415.92 552.12 716.57 421.01 878.95 422.71 849.50 523.43 734.62 620.42 865.60 621.70
00005507 00000098 517.71 211.32 414.82 554.14 709.24 426.59 875.16 422.55 845.10 531.78 728.56 622.28 861.02 620.35
00005508 00000099 517.22 210.28 413.46 555.20 707.81 426.22 872.53 422.11 842.82 531.06 727.17 621.55 860.01 619.45
00005509 00000100 515.91 203.79 414.14 558.52 705.94 422.10 871.80 418.22 841.64 527.50 725.45 619.69 860.05 617.79
00005510 00000101 515.19 199.63 413.00 562.26 706.00 419.60 870.36 415.84 841.92 525.55 725.03 618.51 860.42 616.64
00005511 00000102 515.87 200.55 411.95 560.19 706.60 418.59 870.47 414.78 842.67 524.66 725.60 617.27 860.89 615.39
00005512 00000103 515.10 199.90 411.42 558.46 707.07 417.66 869.60 413.76 843.04 523.43 727.20 616.15 860.33 614.26
00005513 00000104 514.66 198.32 411.47 557.18 707.62 415.79 869.91 412.19 844.22 520.44 728.48 613.44 861.30 611.79
00005514 00000105 512.77 198.23 411.31 556.73 708.09 413.98 867.72 410.11 844.29 520.40 729.01 612.57 860.01 610.66
00005515 00000106 512.67 196.29 411.93 558.28 709.21 413.35 867.86 409.51 844.78 519.20 729.99 611.47 859.78 609.53
00005516 00000107 512.39 198.51 411.47 556.55 709.04 413.22 867.38 409.09 844.47 519.43 730.40 611.40 859.51 609.24
00005517 00000108 508.66 193.85 414.94 561.86 707.33 410.25 865.43 405.72 843.11 516.32 728.91 611.26 857.26 608.78
00005518 00000109 505.57 190.05 415.84 566.41 704.05 407.75 862.43 403.21 839.74 514.84 725.46 610.94 854.57 608.51
00005519 00000110 503.08 190.28 416.75 565.15 701.26 405.33 859.99 400.55 836.47 513.07 722.15 608.63 851.77 606.01
00005520 00000111 500.67 189.60 417.25 564.29 696.27 402.63 857.11 398.18 831.56 508.38 718.12 605.79 849.90 603.41
00005521 00000112 498.50 187.39 416.63 564.10 691.62 398.49 856.34 395.51 828.34 503.53 713.39 602.92 847.12 601.97
00005522 00000113 495.63 179.07 419.35 563.50 693.78 410.94 857.62 408.59 827.92 500.58 708.50 597.13 842.13 596.78
00005523 00000114 500.86 178.08 404.80 554.43 696.67 405.81 864.11 411.22 835.46 490.86 705.81 592.57 840.80 597.58
00005524 00000115 498.76 181.27 402.85 546.07 692.29 398.24 861.47 400.47 833.40 487.44 702.62 587.92 842.01 590.17
00005525 00000116 496.44 177.72 402.08 543.34 694.25 392.33 859.22 391.68 835.75 483.97 702.63 584.28 837.59 584.65
00005526 00000117 493.83 172.56 401.52 546.93 693.79 388.81 852.93 388.95 834.22 477.99 702.84 580.56 834.55 581.36
00005527 00000118 491.43 165.83 401.08 550.85 694.59 382.88 850.43 387.26 833.89 471.12 703.23 574.29 833.25 578.32
00005528 00000119 488.62 165.15 400.85 551.01 693.25 379.50 847.67 382.34 834.79 466.71 702.58 570.87 833.15 573.63
00005529 00000120 486.33 163.37 401.74 551.97 692.18 376.51 844.59 379.59 833.48 462.03 703.42 568.13 831.67 570.81
00005530 00000121 482.55 162.34 402.95 553.37 689.97 374.37 840.92 377.63 831.94 458.97 702.93 566.81 829.40 569.46
00005531 00000122 478.13 158.81 406.09 557.59 684.40 372.37 836.70 374.28 826.88 456.96 697.93 565.52 826.35 567.11
00005532 00000123 474.88 159.29 408.82 559.33 681.14 374.09 832.41 373.80 822.07 459.12 692.16 566.01 821.92 566.07
00005533 00000124 473.21 166.28 408.48 556.37 677.40 378.85 829.80 377.82 817.43 465.37 684.76 569.42 817.37 569.27
00005534 00000125 475.03 165.72 405.95 562.63 677.50 387.30 829.57 385.64 817.79 474.32 681.97 575.77 816.00 575.70
00005535 00000126 477.72 178.28 404.38 557.71 677.79 396.26 832.20 393.49 817.18 481.35 683.92 582.86 820.14 581.93
00005536 00000127 482.95 188.35 403.33 553.91 682.98 403.03 841.01 402.94 825.43 486.33 694.47 591.42 829.64 592.04
00005537 00000128 490.36 197.63 399.83 547.73 685.24 403.18 844.84 407.12 827.99 497.83 704.52 604.73 836.08 608.03
00005538 00000129 497.04 202.43 409.67 548.16 699.34 408.84 854.75 406.98 837.19 508.28 722.32 607.91 848.87 607.66
00005539 00000130 502.68 207.54 409.01 549.69 710.50 416.94 860.60 418.21 844.59 518.04 731.96 615.85 850.99 617.95
00005540 00000131 511.02 215.31 403.38 554.24 720.98 424.84 861.48 431.51 850.00 522.27 743.56 623.29 853.65 628.67
00005541 00000132 517.91 224.60 399.01 548.49 722.47 431.26 865.00 435.96 853.94 525.19 750.40 629.49 858.89 632.95
00005542 00000133 523.06 231.38 398.25 543.75 726.55 437.91 869.68 443.07 858.45 527.03 756.66 633.48 864.61 637.20
00005543 00000134 526.69 231.93 396.79 548.03 728.60 440.81 872.23 443.69 860.78 530.34 762.90 638.51 868.30 640.08
00005544 00000135 533.11 233.35 394.18 552.69 733.61 440.12 875.62 443.33 862.15 534.35 769.57 646.72 868.08 647.95
00005545 00000136 537.12 236.67 394.38 551.36 736.90 444.36 880.63 445.27 866.60 536.06 778.14 650.45 877.08 649.23
00005546 00000137 542.40 238.41 394.64 547.61 743.41 445.95 889.70 444.51 875.54 536.46 784.91 651.78 886.54 648.46
00005547 00000138 547.68 234.90 392.27 546.11 750.31 445.97 897.15 447.36 884.06 533.99 789.73 649.28 891.95 648.54
00005548 00000139 553.33 236.08 389.01 545.30 755.66 448.25 902.40 451.03 890.12 536.90 790.94 650.74 895.27 651.54
00005549 00000140 554.67 236.59 388.87 547.09 757.89 447.40 902.61 450.48 893.39 535.90 792.05 650.20 896.25 651.61
00005550 00000141 555.03 237.52 389.16 547.44 757.83 446.64 903.74 451.38 894.84 536.55 789.26 650.49 895.30 653.66
00005551 00000142 557.70 235.91 386.62 543.57 759.29 448.58 904.50 451.00 896.11 537.08 795.50 650.86 899.92 651.95
00005552 00000143 556.32 235.19 386.03 542.67 757.04 450.64 902.42 451.23 892.68 538.62 797.79 653.05 899.81 652.37
00005553 00000144 553.96 238.78 390.15 548.80 753.83 453.57 902.13 452.36 892.03 542.20 791.79 657.45 899.33 655.32
00005554 00000145 552.70 239.91 392.07 550.02 753.38 454.11 905.24 453.28 893.05 545.92 789.02 660.37 897.92 658.57
00005555 DELETE   562.51 241.54 386.92 542.68 771.37 461.58 922.26 466.75 909.07 550.13 795.75 659.87 903.61 663.27
00005556 00000147 573.39 241.03 378.54 543.24 784.43 456.23 928.21 460.47 921.22 547.41 806.76 658.53 911.93 662.00
00005557 00000148 583.51 239.42 369.42 541.43 798.07 451.31 930.53 456.03 932.10 544.24 820.47 655.44 916.83 660.03
00005558 00000149 590.81 240.09 365.12 542.64 806.00 452.88 934.41 453.26 941.13 545.21 830.57 658.05 925.56 659.28
00005559 00000150 593.35 244.21 363.24 539.50 806.86 458.24 935.08 455.50 942.02 548.05 832.84 659.94 928.81 658.41
00005560 00000151 592.32 245.52 362.23 539.64 805.13 458.96 932.97 458.06 938.77 549.95 832.06 662.60 925.27 662.52
00005561 00000152 584.02 248.32 366.62 537.55 796.14 460.86 925.22 457.36 929.76 553.45 824.46 664.86 917.99 662.50
00005562 00000153 577.25 245.09 368.15 540.13 789.19 460.45 919.69 456.83 923.48 554.04 820.87 665.26 911.45 662.24
00005563 00000154 571.96 242.42 367.11 540.02 782.99 461.21 909.56 454.13 916.59 551.16 820.54 663.61 907.76 657.61
00005564 00000155 563.26 236.17 369.07 545.36 776.31 459.08 898.46 450.39 909.46 547.89 818.47 660.95 900.52 653.37
00005565 00000156 558.23 231.61 372.36 548.56 770.97 455.48 893.26 443.88 904.48 543.98 814.17 658.51 896.37 648.72
00005566 00000157 551.75 231.30 376.04 547.20 765.84 451.66 890.14 439.07 901.95 541.89 808.74 656.80 891.92 646.13
00005567 00000158 550.25 230.05 376.48 546.96 759.56 445.57 887.58 435.21 892.64 537.55 805.92 652.67 890.38 642.96
00005568 00000159 547.39 228.42 377.82 546.64 756.02 440.12 886.46 431.69 887.77 536.98 801.65 651.10 884.56 642.73
00005569 00000160 541.73 225.97 378.67 548.33 752.46 439.84 880.42 433.91 883.42 536.34 797.29 649.64 877.50 643.30
00005570 00000161 536.24 229.06 381.52 542.73 750.13 441.26 876.41 434.62 881.97 534.20 792.58 644.17 874.36 637.53
00005571 00000162 532.34 226.68 380.81 541.23 747.93 442.84 870.71 435.94 878.47 532.29 789.07 640.99 868.95 634.48
00005572 00000163 528.19 226.81 375.76 536.63 743.90 442.39 865.16 435.41 873.40 531.10 782.82 637.17 862.00 630.59
00005573 00000164 534.59 228.23 362.99 528.79 745.56 438.63 873.99 440.33 878.10 531.97 765.48 638.29 855.06 640.91
00005574 00000165 529.52 223.35 359.67 532.27 738.48 438.41 869.74 440.14 872.72 533.09 757.52 637.34 850.17 640.21
00005575 00000166 526.39 230.36 355.18 517.06 731.58 436.04 864.94 437.74 863.23 531.53 752.61 636.29 842.55 639.22
00005576 00000167 516.03 230.40 358.38 516.40 724.46 436.92 856.06 438.33 856.45 530.68 746.98 635.80 835.16 638.75
00005577 00000168 510.16 228.15 360.14 516.35 715.83 436.22 847.24 432.53 846.40 527.86 740.18 633.48 828.38 632.34
00005578 00000169 502.84 233.35 359.28 512.45 704.55 440.03 835.07 440.57 837.03 524.20 734.80 629.58 825.84 631.45
00005579 00000170 495.29 235.48 365.64 509.72 700.57 448.19 829.71 447.02 834.51 522.67 731.77 628.45 824.10 628.59
