Video ID: 	s-OK0JBfWok
H: 	1080
W: 	1920
FPS: 	25.0

FRAME INDEX X0 Y0 W H [Landmarks (5 Points)]

00000646 00000000 913.94 131.10 380.89 594.17 969.26 362.56 1139.50 358.05 1015.95 471.15 995.30 576.63 1127.71 572.73
00000647 00000001 917.01 131.36 379.81 592.92 971.61 360.95 1142.14 357.26 1018.93 472.03 996.80 576.56 1129.44 573.55
00000648 00000002 918.90 131.67 380.88 593.28 974.04 361.48 1144.84 357.17 1022.45 470.67 1000.22 577.27 1132.02 573.82
00000649 00000003 920.52 132.38 382.55 589.07 977.33 361.28 1149.73 357.34 1027.78 468.64 1003.54 577.44 1134.60 574.28
00000650 00000004 923.00 131.46 380.21 587.78 984.62 356.64 1145.71 355.48 1032.59 464.55 1008.50 573.18 1139.28 573.11
00000651 00000005 926.04 131.60 380.87 586.62 989.58 356.84 1148.39 356.23 1036.64 465.52 1013.97 571.94 1142.13 572.64
00000652 00000006 933.03 137.95 376.98 574.07 994.04 360.24 1157.23 357.69 1049.96 467.03 1020.34 574.21 1147.56 572.61
00000653 00000007 935.86 137.43 377.46 575.66 996.64 360.67 1159.37 358.23 1051.58 468.49 1022.12 573.36 1151.66 571.75
00000654 00000008 938.70 137.85 376.66 573.45 999.08 361.30 1160.71 358.94 1053.20 469.15 1024.94 572.09 1153.59 570.61
00000655 00000009 941.08 138.35 377.56 572.41 1000.71 361.65 1161.30 359.07 1053.59 470.76 1027.09 572.04 1155.49 570.39
00000656 00000010 944.72 139.25 377.15 571.09 1002.68 362.36 1164.02 359.51 1054.98 471.18 1028.22 571.41 1158.47 569.63
00000657 00000011 947.93 139.78 375.73 569.55 1004.84 363.58 1165.61 359.79 1056.66 471.76 1030.24 571.52 1161.05 569.08
00000658 00000012 950.09 140.14 374.76 568.27 1006.42 364.02 1167.99 360.26 1058.84 472.68 1032.26 571.19 1164.20 568.88
00000659 00000013 952.00 140.03 374.05 567.83 1008.01 364.82 1170.04 360.08 1060.61 472.53 1034.16 571.29 1166.85 568.26
00000660 00000014 952.93 139.35 375.15 567.66 1008.81 365.45 1171.94 360.49 1061.85 474.14 1034.91 572.06 1168.43 568.76
00000661 00000015 954.79 140.21 375.27 567.67 1009.91 366.54 1173.24 360.17 1063.04 473.58 1035.96 572.23 1170.43 567.91
00000662 00000016 955.48 137.68 375.89 571.04 1011.11 367.23 1174.32 359.14 1065.35 472.96 1037.02 572.35 1172.18 567.03
00000663 DELETE   958.19 142.43 372.60 566.29 1014.55 372.94 1174.90 362.93 1068.33 472.43 1040.42 573.57 1175.17 566.45
00000664 DELETE   958.93 143.78 372.36 564.28 1015.92 373.68 1177.41 362.96 1070.68 470.89 1042.52 573.33 1178.27 565.56
00000665 00000019 959.48 141.28 373.08 566.69 1015.55 370.47 1178.74 359.33 1070.52 469.32 1041.82 572.69 1178.17 564.97
00000666 00000020 958.77 137.94 375.32 566.91 1014.11 367.35 1178.45 356.53 1069.35 468.13 1041.66 571.19 1177.64 563.69
00000667 00000021 959.22 138.23 375.09 563.91 1013.92 365.24 1179.30 355.07 1069.01 466.92 1041.71 570.32 1177.35 563.29
00000668 00000022 959.60 137.88 375.46 563.58 1014.00 364.92 1179.68 354.26 1068.68 465.66 1042.16 570.07 1177.81 562.54
00000669 00000023 959.18 138.44 376.48 562.84 1013.59 365.03 1179.27 353.76 1068.70 465.11 1042.69 569.71 1178.55 561.62
00000670 00000024 958.74 137.85 376.48 563.08 1013.20 364.72 1178.70 353.76 1068.21 464.52 1042.03 568.24 1178.65 560.25
00000671 00000025 957.92 139.10 376.77 562.45 1012.28 364.81 1176.65 354.19 1066.67 465.58 1041.13 568.39 1177.01 560.75
00000672 00000026 956.98 138.75 376.40 562.85 1011.44 364.22 1174.67 355.04 1065.07 466.35 1039.57 567.47 1174.52 561.03
00000673 00000027 956.28 138.72 376.67 563.67 1010.25 364.96 1173.03 356.33 1063.62 468.00 1038.08 567.78 1173.24 561.76
00000674 00000028 956.06 139.50 374.96 564.35 1009.29 365.74 1171.51 357.61 1062.55 470.37 1036.46 569.24 1171.96 563.84
00000675 00000029 955.66 139.49 373.97 563.42 1008.49 366.65 1171.45 358.84 1062.15 473.34 1036.11 570.57 1171.87 565.36
00000676 00000030 955.43 140.50 374.86 563.96 1009.07 366.98 1172.08 358.85 1063.07 473.06 1036.84 570.40 1172.47 565.00
00000677 00000031 955.66 141.77 374.94 563.58 1010.27 366.98 1173.49 358.77 1064.41 472.60 1037.81 570.43 1173.12 564.90
00000678 00000032 955.76 141.77 375.52 565.20 1010.54 367.16 1174.91 357.75 1065.93 472.83 1039.54 571.40 1175.45 565.00
00000679 00000033 955.84 142.43 375.20 564.45 1010.80 367.23 1175.73 357.60 1066.54 472.71 1040.24 572.03 1175.74 565.46
00000680 00000034 955.41 142.98 375.52 563.03 1010.45 367.24 1175.17 358.10 1065.95 472.40 1039.24 571.37 1174.37 565.20
00000681 00000035 955.69 143.01 374.57 563.14 1010.64 367.39 1173.69 359.19 1064.64 472.60 1038.30 570.80 1172.13 565.21
00000682 00000036 955.58 142.73 374.31 564.17 1010.33 367.39 1173.15 359.51 1064.16 473.05 1037.93 570.90 1172.01 565.54
00000683 00000037 956.27 141.92 373.86 564.64 1011.15 367.89 1172.67 359.62 1064.40 473.30 1038.00 570.91 1171.80 565.38
00000684 DELETE   956.93 145.46 372.04 561.59 1013.16 373.25 1173.65 363.28 1066.48 472.91 1039.42 571.93 1174.56 564.67
00000685 00000039 957.37 144.36 372.29 562.86 1013.41 372.65 1174.53 362.32 1066.89 472.43 1040.00 571.99 1175.43 564.48
00000686 00000040 956.86 141.01 373.66 565.38 1012.07 369.65 1174.37 359.65 1066.61 472.01 1039.04 571.56 1174.51 564.61
00000687 00000041 956.01 138.78 374.70 566.35 1011.12 366.43 1173.85 357.39 1065.88 470.91 1038.27 570.24 1173.07 564.20
00000688 00000042 956.15 138.22 375.00 566.93 1011.54 365.00 1174.39 356.09 1066.36 469.09 1038.39 569.12 1173.21 563.31
00000689 00000043 956.22 137.99 375.46 566.60 1011.69 364.65 1175.25 355.55 1066.97 468.75 1039.11 568.85 1174.35 562.81
00000690 00000044 956.46 137.93 375.75 566.46 1011.91 364.25 1175.45 354.90 1066.93 467.81 1038.93 568.51 1174.08 562.35
00000691 00000045 956.57 138.41 375.58 565.66 1012.01 364.03 1175.42 354.84 1066.64 467.03 1038.83 568.30 1173.83 562.21
00000692 00000046 956.20 136.91 376.34 566.48 1011.46 363.62 1174.81 354.00 1066.49 466.69 1038.82 568.10 1174.03 561.68
00000693 00000047 956.38 138.02 376.00 564.14 1012.04 362.64 1175.39 352.82 1067.25 464.73 1039.61 566.82 1174.40 560.24
00000694 00000048 956.51 137.61 375.97 564.19 1012.65 362.52 1175.81 352.48 1067.86 463.72 1040.09 566.52 1174.61 559.75
00000695 00000049 956.73 135.95 375.90 565.33 1012.07 362.63 1175.62 352.23 1067.20 463.95 1039.89 566.54 1175.02 559.48
00000696 00000050 956.76 135.32 375.34 565.29 1012.41 361.93 1175.61 351.89 1067.63 464.00 1040.05 565.42 1174.65 558.70
00000697 00000051 956.48 134.44 375.56 564.07 1012.36 360.94 1175.57 351.86 1067.67 462.88 1040.16 563.05 1175.12 556.94
00000698 00000052 956.29 134.16 375.42 563.06 1012.61 360.18 1174.92 351.11 1067.66 460.61 1040.33 559.89 1175.63 553.66
00000699 00000053 956.12 132.61 374.84 564.03 1012.44 358.79 1174.57 351.06 1067.51 459.46 1039.54 557.93 1174.74 552.74
00000700 00000054 955.70 130.79 375.12 565.36 1012.04 358.42 1174.42 350.93 1066.62 458.56 1039.10 557.12 1175.21 552.02
00000701 00000055 955.37 128.98 375.14 568.49 1011.73 358.06 1174.86 350.21 1066.63 457.54 1037.89 556.05 1175.91 550.64
00000702 00000056 954.79 129.53 375.25 567.28 1011.12 356.30 1174.01 349.30 1065.11 456.08 1036.95 555.38 1174.20 550.64
00000703 00000057 953.90 128.91 375.47 567.07 1010.11 356.38 1173.78 349.33 1064.42 455.54 1035.50 554.98 1173.53 550.15
00000704 00000058 953.38 127.07 375.43 567.22 1009.08 354.24 1173.75 348.28 1063.65 454.69 1034.74 553.38 1172.61 549.50
00000705 00000059 948.74 126.11 377.66 564.47 1011.24 351.49 1170.20 349.38 1057.88 457.37 1033.36 549.03 1167.13 548.42
00000706 00000060 947.80 127.06 377.41 564.34 1010.18 351.16 1168.80 349.26 1057.04 457.74 1032.33 549.67 1165.63 549.24
00000707 00000061 947.07 126.09 377.89 565.35 1009.22 351.01 1168.12 349.63 1056.79 457.81 1031.28 550.01 1164.85 549.91
00000708 00000062 948.32 125.69 376.26 565.69 1003.87 352.27 1169.03 348.42 1059.35 454.83 1029.19 552.08 1166.99 549.83
00000709 00000063 946.97 126.51 375.45 566.03 1003.46 351.21 1168.15 348.31 1058.86 454.34 1028.35 550.94 1166.03 549.46
00000710 00000064 945.01 126.26 376.30 565.49 1002.52 350.70 1167.33 348.32 1058.98 454.95 1028.59 550.76 1165.05 549.65
00000711 00000065 943.40 128.04 376.68 564.31 1001.65 350.13 1166.32 348.51 1058.09 454.89 1027.32 549.52 1164.20 549.01
00000712 00000066 940.78 128.41 377.29 563.08 1000.35 349.25 1164.20 349.13 1056.95 454.93 1026.36 548.93 1161.54 549.54
00000713 DELETE   938.72 129.74 377.27 561.12 1001.51 351.97 1162.88 353.20 1057.73 455.71 1025.29 549.66 1158.28 551.17
00000714 DELETE   935.12 126.35 378.05 563.40 1003.86 354.17 1162.72 357.41 1054.14 457.38 1023.89 549.30 1155.53 552.73
00000715 DELETE   933.63 126.17 377.66 564.55 1000.57 352.36 1158.52 355.23 1050.42 458.49 1023.02 550.89 1153.36 553.70
00000716 00000070 932.04 127.10 376.88 563.07 998.17 349.12 1152.86 352.77 1046.10 458.25 1021.97 551.54 1148.87 554.95
00000717 00000071 932.23 131.83 377.78 558.46 995.05 349.19 1156.56 350.75 1051.04 455.05 1020.23 550.90 1150.03 552.48
00000718 00000072 929.88 128.54 376.32 561.73 996.00 347.67 1151.03 350.76 1043.25 456.07 1020.05 552.31 1146.15 555.26
00000719 00000073 928.63 128.64 377.36 562.54 995.39 347.92 1150.85 350.32 1042.88 455.40 1019.70 552.81 1145.89 555.26
00000720 00000074 930.19 133.02 378.22 557.16 992.85 348.63 1155.04 350.44 1048.26 453.57 1017.86 550.97 1147.01 552.81
00000721 00000075 927.46 128.02 377.99 565.04 993.70 348.17 1150.51 350.29 1041.63 454.73 1017.76 553.91 1145.48 556.17
00000722 00000076 929.98 134.08 377.79 557.74 992.60 349.86 1154.71 351.32 1047.94 453.46 1016.87 552.36 1146.66 553.90
00000723 00000077 929.86 133.81 377.73 558.26 992.48 350.42 1154.86 351.52 1048.24 454.37 1017.30 553.54 1147.01 554.78
00000724 00000078 929.72 134.45 377.80 557.71 992.37 351.03 1155.13 351.87 1048.36 455.35 1017.88 554.46 1147.32 555.45
00000725 00000079 930.30 134.26 377.73 559.73 992.76 351.45 1156.04 352.54 1048.71 456.37 1018.03 555.30 1148.26 556.40
00000726 00000080 930.79 135.05 376.88 558.01 992.91 351.75 1155.35 352.93 1048.52 456.89 1017.97 555.73 1146.98 556.99
00000727 00000081 931.03 134.32 377.02 560.45 993.28 352.16 1155.83 353.38 1049.14 457.61 1018.38 556.22 1148.07 557.44
00000728 00000082 930.78 134.41 377.13 562.23 992.89 352.81 1155.08 352.90 1048.51 457.85 1019.35 559.10 1147.16 559.49
00000729 00000083 931.52 138.27 377.50 569.68 995.13 352.46 1154.34 350.12 1050.03 456.23 1023.78 565.41 1144.85 564.16
00000730 00000084 933.54 141.63 374.64 577.12 998.59 352.72 1153.55 349.56 1051.42 454.06 1030.49 569.18 1144.03 567.51
00000731 00000085 934.74 139.89 374.77 579.18 999.22 354.50 1158.10 351.31 1054.54 457.64 1029.26 571.07 1148.55 569.20
00000732 00000086 935.23 140.72 374.38 580.60 1000.85 355.56 1159.94 352.70 1057.53 461.62 1031.44 572.94 1151.04 571.13
00000733 00000087 935.97 141.16 376.83 582.98 1002.50 357.45 1163.83 353.25 1061.46 463.84 1034.22 575.67 1156.61 572.79
00000734 00000088 936.44 140.97 379.35 587.07 1005.07 358.11 1167.05 354.32 1064.49 467.39 1037.26 577.03 1161.10 574.10
00000735 00000089 938.32 140.55 378.45 588.86 1007.43 360.17 1168.55 355.69 1068.18 469.11 1041.05 577.76 1165.57 574.03
00000736 00000090 939.85 142.12 379.18 587.91 1009.33 360.21 1171.60 354.36 1071.07 469.43 1043.84 579.11 1168.73 574.16
00000737 00000091 940.41 142.62 380.72 589.56 1010.61 361.93 1173.17 353.92 1073.68 471.41 1047.27 581.86 1172.40 574.98
00000738 00000092 941.61 143.72 379.37 588.26 1012.31 363.30 1175.37 354.69 1076.45 471.27 1048.31 582.48 1173.70 575.13
00000739 00000093 940.72 143.94 381.32 589.43 1012.26 364.17 1176.22 354.59 1077.58 473.14 1049.61 583.95 1175.27 575.67
00000740 00000094 939.64 144.25 382.16 590.98 1012.40 363.40 1176.75 353.90 1078.73 474.43 1050.84 585.48 1176.31 577.13
00000741 00000095 939.75 142.34 382.11 598.05 1012.44 364.72 1177.88 353.76 1079.45 475.79 1051.74 587.98 1180.09 577.95
00000742 00000096 939.17 142.09 382.48 600.34 1012.19 365.14 1177.63 353.39 1079.42 476.90 1053.19 590.60 1180.19 579.78
00000743 00000097 938.84 143.23 381.91 602.57 1012.42 366.48 1177.78 353.00 1079.54 477.69 1055.06 594.78 1179.21 582.49
00000744 00000098 938.03 144.00 382.81 604.20 1012.25 368.63 1177.97 354.03 1080.31 479.38 1056.18 597.23 1180.43 583.99
00000745 00000099 938.49 144.95 382.60 603.93 1012.87 369.44 1178.99 354.55 1081.21 480.38 1056.68 598.35 1181.25 584.88
00000746 00000100 938.43 145.35 383.25 604.12 1013.09 369.59 1179.79 354.27 1082.16 479.57 1057.19 598.58 1182.07 584.72
00000747 00000101 939.33 142.54 382.33 606.25 1013.78 367.02 1181.16 352.71 1083.05 477.63 1055.89 596.35 1181.98 583.34
00000748 00000102 939.14 141.60 382.05 605.70 1014.22 366.00 1181.56 352.01 1084.21 476.31 1056.39 595.30 1181.74 582.59
00000749 00000103 938.63 141.84 382.92 604.91 1014.16 367.40 1182.34 352.86 1085.68 477.38 1056.47 595.25 1183.25 582.05
00000750 00000104 938.17 144.35 383.22 601.58 1014.07 369.06 1181.89 353.72 1086.38 478.77 1056.75 596.52 1184.04 582.75
00000751 00000105 938.71 144.15 382.39 603.02 1015.13 371.47 1181.81 355.92 1086.92 479.80 1057.75 597.75 1183.87 583.81
00000752 00000106 938.87 145.66 382.13 602.94 1015.02 372.15 1182.03 355.88 1087.31 481.17 1058.44 599.26 1185.28 584.64
00000753 00000107 938.08 145.71 383.39 600.22 1015.55 374.45 1183.71 359.49 1090.17 484.38 1057.11 597.56 1188.04 583.96
00000754 00000108 936.85 148.00 387.80 592.00 1017.23 376.68 1188.33 364.55 1096.09 489.35 1055.55 590.51 1193.23 579.37
00000755 00000109 937.68 152.47 387.87 586.81 1019.70 379.48 1190.80 367.69 1098.55 492.53 1057.18 590.53 1195.58 579.83
00000756 00000110 938.21 152.44 387.32 587.90 1019.46 379.88 1190.73 367.61 1098.24 493.24 1056.97 592.36 1195.33 581.28
00000757 00000111 936.44 152.93 386.47 583.90 1015.80 374.37 1187.15 363.16 1093.32 484.19 1052.56 587.70 1189.76 577.66
00000758 00000112 936.92 148.78 382.41 580.03 1012.44 368.60 1181.66 357.61 1087.01 473.51 1049.37 580.76 1182.26 571.44
00000759 00000113 936.38 144.39 379.52 577.67 1009.46 364.55 1176.56 355.88 1080.95 467.99 1043.86 575.87 1176.14 568.66
00000760 00000114 934.79 142.68 378.27 577.31 1008.74 360.51 1172.47 355.38 1076.82 464.76 1040.69 571.92 1168.05 567.93
00000761 00000115 933.31 142.28 377.47 580.44 1007.13 359.26 1168.30 356.58 1072.94 464.69 1039.33 572.24 1160.54 570.36
00000762 00000116 930.43 142.12 378.76 585.36 1003.77 361.04 1167.66 357.06 1070.47 464.23 1037.79 576.11 1160.46 572.97
00000763 00000117 929.03 141.76 378.33 587.26 1002.18 360.53 1166.35 356.50 1068.67 464.24 1036.60 576.93 1160.35 573.65
00000764 00000118 928.25 141.03 377.00 579.92 1000.94 361.66 1167.20 357.70 1069.10 464.85 1032.79 573.35 1161.89 570.28
00000765 00000119 927.59 142.80 377.81 577.38 1001.82 361.42 1168.01 357.75 1070.58 464.42 1033.20 571.45 1163.51 568.50
00000766 00000120 929.40 142.26 376.84 582.32 1003.45 361.09 1168.28 357.47 1071.76 463.92 1035.77 573.05 1164.72 569.91
00000767 00000121 929.14 140.98 377.29 579.71 1003.11 362.08 1170.34 358.19 1074.05 465.78 1036.66 574.08 1166.17 570.76
00000768 00000122 929.08 141.63 379.80 576.32 1003.66 361.22 1169.81 358.12 1074.75 467.15 1036.52 571.89 1167.29 569.02
00000769 00000123 929.33 143.41 380.08 578.35 1006.34 359.47 1169.63 356.41 1077.31 465.35 1040.71 571.65 1167.17 568.79
00000770 00000124 931.49 145.27 377.35 579.29 1007.67 359.89 1169.25 355.29 1077.15 464.37 1043.85 573.84 1166.99 569.83
00000771 00000125 932.97 145.04 375.80 580.25 1008.83 360.29 1170.74 355.75 1077.98 464.66 1043.78 573.95 1168.87 569.89
00000772 00000126 931.56 143.22 376.80 574.88 1007.87 360.83 1172.87 356.84 1078.80 465.11 1039.97 571.66 1169.98 568.22
00000773 00000127 931.06 143.87 377.46 573.67 1007.54 360.20 1173.44 357.11 1078.05 463.88 1037.76 568.45 1171.29 565.64
00000774 00000128 931.36 147.11 377.19 574.45 1008.84 357.41 1171.66 354.65 1078.26 460.51 1040.64 570.06 1167.04 567.61
00000775 00000129 930.66 146.62 376.89 573.22 1008.47 357.20 1172.23 354.29 1078.88 460.37 1040.57 569.42 1167.56 566.87
00000776 00000130 929.72 146.28 377.24 572.12 1008.19 357.47 1170.99 354.62 1078.70 460.20 1040.74 568.22 1167.39 565.63
00000777 00000131 928.44 146.40 377.61 571.75 1007.34 357.77 1171.08 355.01 1079.20 460.53 1040.27 568.49 1167.64 565.89
00000778 00000132 926.54 146.35 377.96 569.37 1005.35 360.81 1170.35 357.16 1078.85 462.79 1039.10 568.69 1169.44 565.26
00000779 00000133 924.21 144.41 379.30 570.50 1004.24 361.53 1169.72 358.31 1078.53 463.85 1037.31 568.19 1168.36 565.05
00000780 00000134 921.83 144.55 380.29 571.27 1002.52 361.14 1169.46 358.22 1077.88 463.63 1035.39 568.72 1168.27 565.74
00000781 00000135 920.62 145.44 380.19 571.23 1001.78 361.59 1168.08 358.84 1077.65 464.61 1035.06 570.09 1166.02 567.36
00000782 00000136 918.05 146.35 381.42 572.97 1000.27 362.60 1167.85 359.51 1077.08 466.02 1033.41 571.51 1166.06 568.43
00000783 00000137 917.14 146.42 378.84 573.91 998.55 364.08 1165.30 360.13 1075.64 466.70 1031.87 573.41 1164.21 569.76
00000784 00000138 914.87 144.93 378.17 578.10 995.77 365.94 1162.94 360.90 1074.31 469.15 1030.98 576.01 1163.42 571.54
00000785 00000139 912.56 145.15 377.01 580.61 993.16 368.04 1161.57 362.36 1072.49 471.18 1028.86 579.05 1161.57 574.17
00000786 00000140 910.44 145.85 376.50 581.24 990.70 369.62 1158.97 363.33 1070.58 472.82 1027.91 581.19 1159.55 575.94
00000787 00000141 908.06 146.48 376.80 581.29 988.25 371.63 1156.25 365.28 1068.32 476.05 1026.10 582.64 1157.68 577.46
00000788 00000142 908.21 146.49 374.83 584.02 986.60 372.27 1152.24 365.66 1064.97 476.52 1025.34 583.52 1155.40 578.14
00000789 00000143 908.22 147.31 374.18 582.76 987.94 377.53 1148.10 370.51 1064.14 476.01 1025.80 583.06 1152.32 577.54
00000790 00000144 909.91 150.51 376.96 570.10 988.55 380.98 1155.77 369.18 1065.49 478.97 1026.89 582.48 1160.83 571.04
00000791 DELETE   910.90 149.40 376.14 570.72 988.96 379.41 1157.57 366.76 1067.46 477.83 1027.67 581.32 1164.06 569.11
00000792 00000146 908.15 147.63 376.72 576.86 989.18 374.99 1152.99 367.94 1067.33 473.38 1023.66 576.26 1158.74 570.50
00000793 00000147 909.47 147.98 378.07 577.73 990.88 370.01 1153.40 363.07 1068.87 469.76 1029.14 576.58 1157.17 570.92
00000794 00000148 913.29 146.81 377.27 581.03 993.92 367.98 1157.05 361.36 1070.26 469.60 1031.56 577.74 1160.16 572.10
00000795 00000149 915.31 146.99 378.97 577.97 996.69 366.93 1159.91 360.86 1073.62 470.61 1033.77 576.41 1162.97 571.04
00000796 00000150 919.13 148.82 379.40 576.02 999.68 364.74 1161.80 358.94 1074.73 468.74 1037.15 575.99 1164.60 570.61
00000797 00000151 922.52 148.31 379.53 577.37 1003.82 362.50 1164.84 357.86 1077.42 467.61 1041.34 574.50 1166.32 570.09
00000798 00000152 926.63 148.48 377.92 576.93 1007.07 360.64 1166.10 356.01 1077.95 464.85 1044.01 574.25 1166.18 570.01
00000799 00000153 930.28 147.48 376.14 577.30 1009.95 358.62 1168.77 353.97 1079.30 461.14 1046.36 573.04 1167.06 568.96
00000800 00000154 933.26 146.95 376.09 574.84 1012.22 357.64 1171.16 352.89 1081.12 458.65 1048.00 570.80 1167.21 566.85
00000801 00000155 934.68 143.53 378.55 575.57 1013.45 358.77 1173.72 352.69 1083.95 458.49 1049.22 568.83 1171.57 563.77
00000802 00000156 936.81 141.38 378.18 569.21 1015.63 359.84 1179.05 353.32 1088.18 459.06 1048.73 564.73 1175.97 559.34
00000803 00000157 939.78 138.92 378.69 574.85 1018.13 360.56 1183.87 351.33 1091.68 457.24 1049.87 565.78 1180.69 558.61
00000804 00000158 942.79 139.68 380.40 573.21 1021.97 361.18 1188.11 351.18 1095.79 458.21 1053.36 565.98 1183.22 558.39
00000805 00000159 945.46 136.98 380.28 577.30 1024.05 362.66 1192.33 351.47 1098.73 457.37 1053.82 565.50 1188.73 557.05
00000806 00000160 946.96 135.69 380.38 576.71 1022.98 361.30 1188.09 348.31 1094.90 455.88 1054.00 564.78 1186.77 554.79
00000807 00000161 947.02 136.67 381.50 575.08 1018.79 359.99 1183.52 346.14 1086.40 453.78 1049.51 563.95 1183.30 553.40
00000808 00000162 946.27 132.78 381.02 576.37 1013.87 358.98 1177.75 347.46 1076.28 454.21 1044.85 561.69 1178.81 552.66
00000809 00000163 946.12 132.48 380.58 579.81 1009.44 360.16 1173.11 348.59 1067.95 455.47 1039.47 565.73 1172.58 557.14
