Video ID: 	S0iL-YTzfw8
H: 	1080
W: 	1920
FPS: 	25.0

FRAME INDEX X0 Y0 W H [Landmarks (5 Points)]

00097350 00000000 641.82 183.93 452.04 683.94 850.74 462.18 1027.50 477.16 976.83 578.21 859.19 688.44 998.40 701.34
00097351 00000001 640.40 184.77 451.97 691.97 861.85 464.72 1021.51 488.07 975.96 590.27 862.74 697.16 987.52 714.98
00097352 00000002 642.45 188.99 450.74 675.20 848.65 462.52 1025.99 474.67 974.32 575.47 863.54 692.56 998.00 703.18
00097353 00000003 636.07 181.35 453.03 675.21 843.62 459.52 1021.41 471.10 970.54 570.64 859.89 685.87 994.58 695.68
00097354 00000004 634.37 179.47 447.00 672.42 836.48 454.37 1014.68 466.24 963.40 563.99 853.59 679.51 989.48 689.74
00097355 00000005 631.04 175.43 442.00 675.05 830.06 453.37 1009.29 463.06 957.01 563.08 843.87 674.66 983.04 683.43
00097356 00000006 629.60 179.43 437.01 666.05 821.63 452.32 1001.32 458.47 950.79 558.86 836.62 667.47 981.32 673.92
00097357 00000007 625.88 170.46 435.63 675.26 817.34 445.33 996.05 452.49 948.41 551.08 830.55 661.74 980.40 668.62
00097358 DELETE   614.16 163.58 443.80 676.06 817.82 435.96 989.76 441.65 951.77 545.11 830.18 656.28 980.06 660.19
00097359 DELETE   609.04 159.69 445.24 669.71 810.60 427.36 986.41 434.31 946.36 537.56 827.23 646.81 980.88 651.16
00097360 00000010 604.46 158.93 445.93 662.08 804.41 422.92 982.36 428.56 941.58 530.45 826.53 642.09 979.43 645.16
00097361 00000011 609.55 144.45 434.91 665.08 803.67 422.20 976.76 424.43 935.64 524.79 820.37 636.49 973.79 637.66
00097362 00000012 608.44 144.89 434.10 663.39 800.08 421.31 974.37 423.27 932.48 522.13 818.39 635.05 972.76 635.76
00097363 00000013 606.72 143.87 433.18 662.16 795.26 420.03 970.87 421.28 929.19 517.28 815.67 633.92 969.97 634.25
00097364 00000014 604.12 143.50 431.30 663.20 792.26 420.13 965.58 419.17 926.05 516.97 815.28 636.83 964.16 635.39
00097365 00000015 599.59 144.91 432.59 658.85 787.27 418.76 961.11 415.68 922.27 515.30 813.24 636.70 960.81 633.39
00097366 00000016 594.25 147.22 434.60 659.11 783.38 418.46 957.84 415.75 918.90 513.95 811.42 637.90 958.27 634.78
00097367 00000017 590.25 146.44 437.59 660.80 781.13 417.01 955.34 414.20 916.78 512.99 809.12 637.81 956.23 634.80
00097368 00000018 589.86 146.38 436.37 661.63 779.67 419.20 953.96 415.43 915.40 513.92 808.07 638.84 954.94 635.10
00097369 00000019 588.65 147.32 436.72 661.58 779.78 420.95 953.53 417.06 915.81 514.97 808.65 639.45 954.45 635.66
00097370 00000020 589.13 147.19 436.28 661.67 781.27 421.20 954.19 416.71 917.47 515.98 810.11 639.87 955.13 635.56
00097371 00000021 590.15 147.84 435.58 660.58 781.98 421.90 954.16 416.96 917.52 517.17 810.94 640.77 954.87 636.14
00097372 00000022 592.42 147.91 434.25 659.03 783.75 420.65 954.77 415.33 918.99 515.96 812.67 639.68 955.53 634.76
00097373 00000023 595.04 144.69 432.83 658.54 784.96 418.97 955.47 415.08 919.44 513.02 813.64 636.79 956.94 632.89
00097374 00000024 597.29 142.50 431.13 658.47 785.54 417.41 955.03 413.34 920.17 510.71 814.40 634.49 957.88 630.54
00097375 00000025 600.44 140.04 429.37 659.78 788.04 415.62 955.67 412.25 922.07 508.13 815.12 631.16 959.58 627.82
00097376 00000026 602.73 139.15 429.89 658.29 792.16 412.53 958.41 411.50 924.95 506.36 817.59 627.88 961.53 626.48
00097377 00000027 603.77 135.88 429.79 659.79 795.55 408.55 960.44 409.08 928.06 502.75 820.84 624.45 963.01 624.22
00097378 00000028 605.52 135.92 428.80 657.58 796.74 407.65 961.00 408.62 929.42 498.98 823.91 622.58 964.46 622.62
00097379 00000029 606.63 132.35 427.04 659.52 798.79 404.45 962.00 404.72 931.60 496.14 829.50 624.44 964.09 623.94
00097380 00000030 608.95 134.78 426.56 656.51 799.49 402.24 963.47 405.33 931.87 492.54 829.33 621.29 965.92 622.98
00097381 00000031 612.39 130.88 424.88 660.23 803.91 400.22 967.04 403.13 936.64 491.62 835.71 621.75 971.43 623.12
00097382 DELETE   612.86 129.88 430.43 661.73 808.97 399.66 975.35 404.76 942.90 490.35 837.74 620.51 977.55 623.63
00097383 00000033 615.48 123.86 431.87 666.99 820.81 401.69 984.93 410.98 955.94 493.53 844.59 620.10 982.65 626.78
00097384 00000034 625.13 123.09 429.35 667.77 827.05 404.89 993.20 413.27 962.17 499.10 846.69 621.33 988.20 627.36
00097385 00000035 628.48 126.52 436.65 665.08 836.18 407.97 1002.59 417.61 972.08 502.18 853.88 623.20 993.95 630.38
00097386 DELETE   635.05 127.17 438.53 674.53 840.02 403.58 1002.94 422.70 962.83 511.14 850.51 621.77 988.87 636.54
00097387 DELETE   644.84 137.33 440.28 671.39 851.68 412.86 1012.99 432.70 972.80 518.39 861.65 631.16 993.39 647.00
00097388 DELETE   649.41 146.49 441.48 668.86 863.44 418.45 1023.69 436.47 986.39 529.27 870.75 640.30 999.35 655.12
00097389 00000039 662.71 160.78 437.00 664.67 871.80 423.68 1034.49 444.26 995.29 539.50 880.18 646.70 1012.68 663.49
00097390 00000040 669.36 170.72 436.75 662.54 882.36 431.18 1047.33 456.88 1005.26 549.40 888.98 653.39 1021.81 672.13
00097391 DELETE   674.50 167.29 438.37 669.25 889.34 435.54 1055.06 459.28 1011.88 551.90 896.50 659.63 1027.48 677.41
00097392 DELETE   679.84 169.62 436.14 664.61 893.13 438.00 1057.88 459.34 1015.81 551.85 901.49 660.86 1031.25 677.07
00097393 DELETE   680.22 168.28 436.12 665.54 894.06 437.14 1058.52 458.56 1017.72 550.72 902.31 659.76 1032.70 676.05
00097394 00000044 676.05 166.86 439.58 665.38 890.53 433.90 1056.21 454.81 1014.70 549.93 900.12 658.03 1031.47 673.56
00097395 DELETE   672.60 169.07 437.38 661.34 885.88 431.71 1051.42 453.12 1009.60 548.13 897.28 655.08 1029.10 670.52
00097396 DELETE   669.24 168.46 436.71 659.90 877.61 430.16 1044.84 452.47 1001.27 546.19 889.94 653.48 1021.47 669.53
00097397 DELETE   667.06 164.19 436.65 666.79 873.81 428.33 1040.11 451.60 995.15 544.82 885.81 653.07 1015.44 670.00
00097398 00000048 665.62 163.37 436.70 669.90 872.01 429.98 1037.76 452.23 992.60 545.95 886.21 656.37 1013.12 672.41
00097399 00000049 665.73 163.85 433.63 667.31 868.76 431.96 1033.69 448.58 989.67 544.57 883.83 657.76 1012.17 671.46
00097400 00000050 660.01 162.10 437.09 664.94 863.88 428.25 1028.91 443.90 984.96 538.35 881.46 654.34 1007.96 667.49
00097401 00000051 653.57 156.87 442.12 665.72 860.08 425.75 1023.73 439.59 981.81 533.85 879.03 651.77 1003.94 663.51
00097402 00000052 651.44 155.15 444.34 666.89 857.29 424.42 1023.69 437.30 981.54 533.35 877.38 651.35 1005.68 662.15
00097403 00000053 654.37 158.31 441.71 663.57 859.15 427.40 1027.53 439.91 984.96 537.70 879.03 652.87 1009.69 663.29
00097404 00000054 656.00 165.67 439.81 661.98 859.41 431.49 1029.12 443.48 985.29 541.57 879.15 657.00 1009.33 667.15
00097405 00000055 652.99 165.06 442.16 659.30 856.73 431.61 1026.68 442.81 982.65 541.26 877.34 656.70 1006.79 666.42
00097406 00000056 651.92 163.09 442.64 658.88 853.87 431.10 1024.60 440.92 980.69 540.07 875.49 655.39 1006.91 663.93
00097407 00000057 651.00 162.04 443.59 658.16 853.37 431.19 1025.17 441.29 980.84 540.90 874.45 655.09 1006.69 663.87
00097408 00000058 652.36 155.76 441.30 664.68 853.05 431.74 1023.49 440.04 979.24 542.52 873.62 655.16 1006.83 662.12
00097409 00000059 651.64 158.54 440.06 661.37 852.28 434.86 1021.64 443.04 978.25 542.19 871.69 654.44 1004.84 661.30
00097410 00000060 650.65 157.45 438.47 663.85 851.27 434.62 1019.37 442.10 977.69 540.96 871.55 653.85 1004.75 660.16
00097411 00000061 650.53 156.95 437.12 664.35 850.73 433.46 1017.35 441.53 976.10 539.01 872.67 653.38 1003.47 660.16
00097412 00000062 648.56 152.86 437.25 669.31 850.06 433.47 1014.76 441.41 974.70 537.76 870.81 652.91 1000.62 659.50
00097413 00000063 647.18 151.12 436.84 672.89 847.73 433.79 1011.41 440.42 972.49 536.81 869.52 653.41 999.03 658.97
00097414 00000064 646.31 156.33 437.32 669.13 845.39 435.33 1010.67 441.08 970.44 538.80 868.40 655.16 998.90 660.03
00097415 00000065 646.51 158.85 436.83 670.59 846.14 436.61 1010.05 443.33 970.56 539.07 869.36 657.03 998.64 662.67
00097416 00000066 645.83 162.12 436.22 667.03 844.47 439.02 1009.44 444.45 968.90 541.84 869.04 658.62 998.91 663.26
00097417 00000067 643.60 160.91 439.21 667.44 838.92 441.40 1009.74 443.34 967.43 544.50 863.17 658.70 1001.30 660.45
00097418 00000068 641.42 158.33 440.82 672.47 835.35 440.19 1009.16 441.79 966.45 545.97 859.42 660.32 1000.96 661.79
00097419 00000069 641.58 163.85 437.40 669.61 834.82 439.81 1005.89 441.06 963.50 545.38 860.03 662.42 995.75 664.05
00097420 00000070 638.01 161.97 438.59 670.88 830.70 441.12 1004.97 442.28 961.03 547.37 853.90 661.58 994.22 663.32
00097421 00000071 638.38 163.76 438.30 668.26 828.48 442.60 1004.84 442.70 959.07 549.74 851.82 661.36 995.08 662.24
00097422 00000072 638.05 164.22 438.78 667.37 827.97 443.86 1004.32 442.51 959.63 549.33 851.97 660.19 997.51 659.65
00097423 00000073 639.35 162.82 436.17 667.12 826.72 444.14 1003.40 442.43 957.79 549.48 851.46 659.79 997.41 658.90
00097424 00000074 638.98 163.31 434.70 666.12 825.56 444.14 1002.03 441.80 956.23 549.08 851.35 659.73 996.29 658.53
00097425 00000075 639.30 162.50 434.91 666.26 825.99 445.38 1002.79 442.76 957.14 550.32 852.37 660.13 997.45 658.55
00097426 00000076 640.01 161.99 436.98 667.43 828.85 446.79 1005.75 444.69 960.33 550.41 855.59 660.61 1000.81 659.16
00097427 00000077 640.93 164.52 437.72 669.12 831.72 446.45 1006.40 445.37 962.26 549.15 859.31 664.29 999.81 663.74
00097428 00000078 642.47 163.99 436.70 666.24 831.41 445.72 1006.86 444.72 961.77 549.40 858.74 663.35 999.75 662.91
00097429 00000079 643.25 164.32 436.99 663.16 832.01 445.18 1008.06 442.56 963.50 548.61 861.29 662.52 1003.10 660.71
00097430 00000080 643.30 162.55 436.40 666.62 833.64 443.69 1006.44 442.24 962.49 547.30 860.78 661.52 999.52 660.83
00097431 00000081 642.20 161.88 436.80 668.02 833.65 443.24 1006.14 441.84 962.77 546.58 860.48 661.39 999.18 660.72
00097432 00000082 642.52 160.99 436.86 668.06 833.77 443.10 1006.31 441.18 962.99 546.75 860.75 660.57 1000.32 659.39
00097433 00000083 642.70 159.19 435.89 668.08 833.84 442.44 1004.98 439.57 963.04 545.73 861.51 659.26 1001.11 657.16
00097434 00000084 641.54 161.51 437.45 664.51 831.66 441.67 1005.87 438.36 963.71 545.88 859.27 658.69 1002.21 656.34
00097435 00000085 640.51 161.70 438.80 662.85 832.55 440.82 1004.97 437.83 963.74 545.06 860.10 657.67 1001.15 655.55
00097436 00000086 641.80 161.74 436.98 660.73 832.21 439.85 1005.20 435.96 963.79 543.69 860.36 656.45 1002.14 653.54
00097437 00000087 639.37 160.70 438.42 660.22 832.12 438.04 1005.12 434.51 964.72 541.21 859.38 655.07 1000.90 652.44
00097438 00000088 638.71 155.85 437.73 665.28 832.51 434.69 1004.80 432.09 964.85 539.55 856.88 652.57 999.93 650.57
00097439 00000089 637.64 155.81 437.35 664.04 830.12 433.28 1003.63 429.76 963.90 538.07 855.16 652.02 1000.07 649.41
00097440 00000090 636.65 156.25 437.55 662.37 828.84 429.93 1003.28 426.36 963.00 537.17 854.70 651.12 1000.14 648.41
00097441 00000091 636.89 154.73 437.62 662.98 828.43 429.80 1003.10 425.90 962.84 536.76 854.58 650.37 1000.47 647.35
00097442 00000092 636.99 155.34 437.92 663.05 829.96 430.36 1004.08 426.43 964.85 536.26 855.59 650.56 1001.01 647.58
00097443 00000093 638.06 156.46 439.68 662.09 832.15 431.48 1004.72 428.24 965.23 536.60 856.90 650.30 1000.80 647.89
00097444 00000094 638.86 155.79 439.66 663.31 834.00 431.62 1005.85 429.40 966.57 537.75 857.28 650.40 1000.89 648.85
00097445 00000095 638.86 156.50 440.19 663.23 834.09 431.47 1006.11 429.50 966.65 537.92 857.22 650.59 1001.09 649.22
00097446 00000096 638.55 155.99 440.37 663.88 834.19 431.51 1006.14 429.70 967.09 537.80 856.83 650.61 1001.00 649.38
00097447 00000097 638.41 155.38 440.54 664.31 834.89 431.42 1006.30 429.70 967.66 537.87 857.71 650.79 1001.31 649.59
00097448 00000098 637.23 155.90 441.48 664.18 835.72 432.27 1006.37 430.06 968.17 539.14 858.73 651.22 1001.24 649.56
00097449 00000099 638.04 157.00 441.05 663.35 835.70 432.15 1007.09 430.76 968.79 539.71 859.16 651.72 1002.20 650.73
00097450 00000100 638.56 157.97 441.29 664.11 836.72 433.27 1007.74 431.69 969.52 540.39 860.15 652.98 1002.69 651.84
00097451 00000101 639.50 159.10 441.26 663.24 836.63 433.69 1008.01 431.83 969.00 541.49 860.63 653.56 1003.01 652.20
00097452 00000102 639.60 158.26 441.32 663.64 837.93 434.41 1009.12 433.34 969.36 542.05 860.96 653.48 1002.64 652.77
00097453 00000103 641.32 158.36 440.46 664.04 838.95 434.42 1009.83 433.59 969.76 542.51 862.31 654.28 1003.24 653.73
00097454 00000104 641.44 160.04 440.37 663.47 838.42 434.48 1010.18 433.59 970.21 543.09 862.72 655.38 1003.74 654.82
00097455 00000105 641.42 158.81 440.94 664.55 839.67 435.36 1010.69 434.39 971.07 543.54 863.83 655.16 1004.37 654.47
00097456 00000106 641.98 160.05 439.73 663.93 839.84 435.99 1010.66 435.35 971.27 543.77 863.99 655.34 1004.38 654.96
00097457 00000107 642.20 159.57 439.59 665.87 839.72 436.24 1011.17 435.34 971.54 544.08 864.08 656.09 1005.00 655.39
00097458 00000108 642.41 159.37 439.81 666.19 840.03 436.52 1011.66 435.39 972.44 544.28 865.66 657.58 1005.69 656.73
00097459 00000109 644.21 159.22 437.59 667.24 840.32 437.63 1012.77 436.49 973.31 544.54 865.62 657.48 1006.79 656.56
00097460 00000110 645.05 159.15 436.87 667.75 841.37 439.22 1013.48 437.93 974.17 545.96 865.71 657.77 1007.17 656.72
00097461 00000111 645.41 159.99 437.00 668.40 843.37 439.88 1014.38 439.75 976.09 546.25 866.84 658.29 1007.30 658.14
00097462 00000112 646.88 159.04 435.19 669.89 842.74 440.71 1014.33 440.29 975.57 546.30 866.56 658.84 1007.84 658.44
00097463 00000113 646.48 161.47 434.92 668.18 842.10 440.93 1013.44 439.89 974.92 546.35 866.65 659.19 1007.23 658.33
00097464 00000114 646.62 158.58 434.30 669.84 841.66 440.33 1012.92 439.40 974.39 545.65 865.35 658.21 1006.97 657.33
00097465 00000115 646.00 158.78 435.51 669.85 840.83 439.41 1011.99 437.95 973.64 545.08 864.63 657.96 1006.59 656.75
00097466 00000116 644.73 159.47 435.94 668.66 839.90 439.33 1011.50 437.55 973.19 544.76 864.10 657.97 1006.20 656.54
00097467 00000117 644.50 159.20 435.47 668.40 838.86 439.00 1011.14 436.63 972.77 544.22 863.69 658.12 1005.79 656.24
00097468 00000118 644.37 160.44 435.97 665.19 837.24 438.88 1009.16 435.35 971.01 543.47 864.36 658.18 1005.41 655.42
00097469 00000119 641.73 161.68 438.28 662.41 836.25 440.13 1007.62 435.48 970.16 544.17 863.14 657.29 1004.23 653.70
00097470 00000120 641.51 160.56 437.10 663.41 835.68 438.72 1006.13 434.88 969.26 542.86 861.89 656.11 1003.30 653.08
00097471 00000121 640.92 160.21 435.60 663.16 835.00 438.80 1004.91 433.69 968.99 543.07 861.55 655.64 1003.31 651.46
00097472 00000122 639.37 157.83 435.83 664.44 833.57 437.31 1003.59 432.56 967.32 542.17 860.32 654.61 1002.27 650.69
00097473 00000123 638.54 157.27 436.28 663.85 832.98 437.14 1003.43 432.19 966.92 541.78 859.27 653.99 1002.05 649.93
00097474 00000124 638.09 155.49 436.29 664.00 832.41 437.62 1003.93 432.23 967.04 542.02 858.39 654.00 1002.27 649.47
00097475 00000125 637.63 154.92 437.15 665.70 832.54 437.65 1004.32 432.65 967.66 542.15 858.46 654.66 1002.38 650.42
00097476 00000126 638.36 154.78 436.31 665.78 832.55 438.18 1005.07 432.80 968.59 542.18 859.06 655.10 1003.24 650.54
00097477 00000127 638.28 155.49 436.81 666.42 832.95 437.60 1005.47 432.70 968.96 542.37 859.11 655.31 1003.38 651.15
00097478 00000128 639.11 154.13 436.93 667.72 834.93 437.62 1006.57 433.59 970.17 542.61 860.20 654.71 1004.12 651.15
00097479 00000129 639.36 158.16 438.66 663.67 835.01 438.98 1006.78 434.76 969.81 542.57 861.35 655.61 1004.14 652.05
00097480 00000130 640.73 157.59 438.16 665.35 837.01 439.11 1008.22 436.49 971.28 542.10 862.99 656.32 1004.20 654.12
00097481 00000131 642.51 157.28 436.77 667.10 840.11 438.95 1009.34 436.87 973.21 541.49 866.73 657.08 1004.52 655.20
00097482 00000132 644.25 155.71 436.10 669.02 841.99 439.00 1011.39 437.00 975.13 541.59 868.47 657.54 1006.15 655.71
00097483 00000133 645.10 154.18 436.97 670.00 843.47 438.44 1011.65 437.54 974.86 541.88 869.10 656.78 1005.36 655.85
00097484 00000134 644.88 155.87 437.93 668.95 843.64 438.58 1013.12 437.10 975.80 541.96 869.43 657.11 1006.66 655.71
00097485 00000135 645.70 157.71 436.85 666.88 843.69 439.83 1012.85 437.67 975.17 542.36 869.84 657.52 1006.59 655.60
00097486 00000136 647.38 155.74 435.40 669.05 844.47 440.35 1013.99 438.72 976.13 542.63 869.88 657.53 1006.70 656.08
00097487 00000137 646.70 156.09 436.75 668.90 846.64 440.52 1014.16 438.67 977.83 543.26 873.02 658.38 1007.39 656.62
00097488 00000138 648.00 155.32 435.81 668.59 847.43 440.98 1015.51 439.25 979.16 544.03 874.38 659.12 1008.61 657.47
00097489 00000139 649.95 154.97 434.38 670.84 849.47 440.49 1016.81 438.72 981.31 544.11 876.35 659.67 1010.42 657.82
00097490 00000140 651.12 154.99 435.87 670.22 849.62 440.86 1019.67 438.87 983.72 545.09 876.48 659.49 1013.92 657.35
00097491 00000141 651.25 155.70 437.16 669.46 851.54 440.70 1020.72 439.52 985.33 544.73 876.64 659.09 1013.46 657.77
00097492 00000142 652.33 156.89 435.38 673.23 852.94 441.05 1021.44 439.63 986.01 545.37 878.33 661.47 1013.40 659.97
00097493 00000143 655.35 160.05 432.41 672.19 856.07 440.93 1022.77 440.34 987.24 546.72 881.99 664.73 1012.58 664.06
00097494 00000144 657.42 162.74 431.96 670.16 856.96 443.56 1025.92 443.29 989.94 549.47 880.57 664.06 1016.41 663.38
00097495 00000145 657.76 162.99 433.81 672.79 856.66 443.30 1027.41 445.43 990.36 551.08 875.90 663.82 1016.29 665.22
00097496 00000146 658.49 164.15 434.58 674.20 859.69 442.11 1026.78 447.11 990.62 549.19 875.02 661.80 1013.09 665.79
00097497 00000147 658.18 163.87 435.36 670.78 859.29 443.44 1028.61 446.80 991.69 550.53 877.28 662.82 1015.52 665.30
00097498 00000148 661.04 164.15 433.44 666.59 860.08 443.03 1030.67 446.17 992.94 551.11 879.17 662.33 1018.35 664.58
00097499 00000149 661.18 163.22 434.59 666.56 860.82 443.46 1031.61 446.48 993.23 551.84 879.68 662.06 1019.36 664.12
00097500 00000150 661.98 164.02 433.56 667.11 862.03 443.51 1031.93 446.81 993.98 551.77 880.64 661.91 1020.39 664.18
00097501 00000151 662.47 163.90 433.73 665.81 862.57 444.90 1032.59 447.78 994.20 552.62 880.65 662.10 1020.36 664.06
00097502 00000152 663.23 166.17 431.56 664.36 864.08 449.50 1031.47 450.63 994.32 554.59 881.06 663.38 1019.41 663.86
00097503 00000153 662.36 167.79 433.50 664.51 863.49 448.51 1032.80 449.81 995.17 555.80 880.90 664.24 1020.81 664.99
00097504 00000154 662.52 166.69 433.69 667.93 864.68 447.02 1032.74 449.76 995.66 556.36 881.20 664.40 1020.77 666.31
00097505 00000155 663.36 166.95 432.93 668.10 864.61 446.02 1032.69 449.17 995.44 556.54 881.71 664.81 1020.71 667.06
00097506 00000156 664.17 166.79 432.23 669.40 865.55 446.06 1032.98 449.42 995.98 556.95 881.77 665.11 1020.33 667.57
00097507 00000157 663.61 166.25 432.77 670.20 865.47 445.79 1032.80 450.06 995.73 557.11 880.75 664.40 1020.12 667.57
00097508 00000158 663.40 166.35 433.14 669.97 865.16 445.72 1032.79 449.95 995.68 557.09 880.54 664.27 1020.32 667.40
00097509 00000159 663.27 168.00 432.84 668.41 865.04 446.30 1033.28 449.58 996.15 558.03 880.55 664.72 1020.62 667.16
00097510 00000160 664.94 169.53 429.22 665.99 865.57 454.24 1033.46 454.21 996.28 559.58 878.97 666.25 1019.29 666.00
00097511 00000161 665.15 168.65 429.75 667.20 865.49 454.00 1033.59 454.01 995.88 560.27 879.41 666.00 1020.05 665.68
00097512 00000162 662.47 167.17 434.78 669.96 871.44 446.92 1034.76 455.72 998.34 558.33 885.17 664.85 1017.44 670.15
00097513 00000163 662.06 167.69 435.16 667.93 871.43 445.40 1034.53 453.29 999.59 556.06 886.40 663.81 1019.05 668.35
00097514 00000164 662.24 167.03 435.32 667.55 871.45 442.51 1034.70 451.64 999.63 553.67 886.21 662.12 1019.16 667.63
00097515 00000165 663.86 167.82 432.62 666.19 864.64 447.31 1032.26 449.29 995.69 555.54 880.49 663.51 1021.12 664.93
00097516 00000166 663.93 166.74 432.99 667.71 865.13 446.10 1032.13 448.85 995.86 554.88 880.61 663.00 1021.00 665.04
00097517 00000167 664.59 166.77 432.02 668.62 865.09 446.56 1032.51 448.97 995.77 555.68 880.92 663.55 1021.59 665.16
00097518 00000168 663.81 167.98 435.28 667.46 870.90 441.51 1036.05 450.97 999.82 553.83 885.93 662.03 1021.05 667.70
