Video ID: 	sQYoLodueSI
H: 	1080
W: 	1920
FPS: 	25.0

FRAME INDEX X0 Y0 W H [Landmarks (5 Points)]

00000949 00000000 470.08 243.65 475.75 645.08 581.94 499.17 777.18 468.43 688.23 629.31 636.10 708.75 817.89 679.43
00000950 00000001 462.74 242.75 477.04 650.04 571.00 502.42 764.59 472.14 674.10 627.00 628.76 707.57 812.80 678.61
00000951 00000002 454.89 249.28 478.95 643.95 562.85 503.16 757.49 472.43 666.99 629.01 622.76 708.92 807.08 679.82
00000952 00000003 449.12 255.14 477.84 638.11 557.23 504.75 748.33 472.14 660.26 624.64 618.67 709.53 800.80 678.92
00000953 00000004 439.99 260.44 471.31 635.84 547.92 504.86 734.89 472.85 648.29 623.62 611.52 713.06 784.72 682.98
00000954 00000005 432.97 255.34 468.66 644.51 535.33 505.96 723.99 472.14 631.97 623.43 597.80 715.48 774.51 683.71
00000955 00000006 421.93 240.67 479.82 647.79 521.55 504.20 701.55 474.75 610.05 636.01 582.23 707.44 756.41 680.74
00000956 00000007 413.73 240.26 484.13 651.68 509.05 502.61 688.75 474.87 592.47 638.13 573.26 710.45 742.87 685.40
00000957 00000008 406.46 231.75 484.87 655.56 500.18 499.35 679.85 473.38 579.24 634.73 565.21 712.03 728.75 688.58
00000958 00000009 397.45 231.44 486.38 652.69 489.83 496.73 669.83 468.75 571.10 634.61 560.93 715.43 718.83 690.26
00000959 00000010 385.47 229.17 487.88 653.39 477.86 497.39 670.77 465.97 568.49 630.58 560.31 724.62 710.69 695.24
00000960 00000011 377.20 225.59 485.16 658.20 465.75 490.61 652.12 464.96 545.18 624.34 538.98 723.29 689.09 700.78
00000961 DELETE   367.85 224.12 485.94 667.72 454.46 496.78 627.84 470.25 526.82 633.49 536.65 731.30 669.45 707.89
00000962 00000013 357.21 230.78 481.74 659.61 439.07 508.79 605.55 481.65 507.23 646.04 524.08 735.75 653.39 712.21
00000963 00000014 350.73 237.90 479.16 655.40 428.76 515.64 597.06 493.54 494.87 657.16 510.88 743.83 638.05 724.57
00000964 00000015 345.78 250.59 479.94 648.27 417.94 520.71 591.21 500.28 482.97 671.26 501.42 754.60 631.76 736.77
00000965 00000016 341.70 252.48 482.63 654.22 413.03 526.28 587.91 503.74 477.11 676.87 495.10 760.38 634.76 740.08
00000966 00000017 347.52 252.86 481.42 658.91 421.46 529.82 589.72 506.17 480.17 677.67 500.65 758.38 644.04 736.44
00000967 00000018 359.57 257.82 476.26 650.91 434.77 526.90 599.47 507.63 491.69 679.97 512.18 748.27 657.87 729.81
00000968 00000019 376.67 264.91 467.07 646.29 454.38 523.83 626.67 499.91 519.95 652.26 524.76 749.38 671.59 726.25
00000969 00000020 386.38 256.68 469.43 647.00 463.91 518.29 641.45 496.56 529.89 646.53 530.84 739.64 685.26 717.95
00000970 00000021 395.15 255.48 470.52 638.08 470.06 506.29 653.30 490.88 537.65 640.93 535.01 730.89 686.44 714.94
00000971 00000022 401.09 233.69 473.47 644.37 479.38 492.00 660.20 483.27 545.09 637.29 536.06 718.95 680.50 710.54
00000972 00000023 410.06 223.07 470.80 645.84 486.21 482.85 666.88 473.87 550.91 627.13 537.88 712.68 681.34 705.02
00000973 00000024 413.03 218.51 473.97 652.94 487.80 476.28 670.59 466.44 549.44 620.31 537.95 713.36 683.85 705.24
00000974 00000025 417.56 213.82 474.44 659.58 491.37 472.29 674.84 462.13 550.27 616.06 539.95 710.20 688.03 701.95
00000975 00000026 422.14 215.85 473.37 658.93 496.69 473.27 676.03 462.63 553.60 614.30 547.47 709.19 692.97 700.58
00000976 00000027 431.63 214.21 471.42 663.97 507.64 476.75 683.62 466.26 562.95 616.78 557.88 711.99 699.39 703.59
00000977 00000028 442.40 219.98 471.05 664.83 516.42 480.29 690.20 470.98 570.27 625.54 571.08 715.98 710.57 708.07
00000978 00000029 456.56 225.86 472.66 664.88 531.58 483.10 711.02 479.61 588.55 635.18 590.19 720.79 730.01 716.66
00000979 DELETE   467.83 228.94 473.15 665.00 546.97 483.92 733.22 481.47 608.21 638.52 604.48 721.75 748.98 718.21
00000980 00000031 478.53 236.96 476.06 649.59 563.23 491.99 749.11 486.33 633.27 637.67 617.49 722.78 761.40 717.85
00000981 00000032 491.82 230.72 472.46 653.82 575.50 484.73 759.59 478.59 641.77 631.98 628.95 717.28 773.28 712.45
00000982 DELETE   502.21 226.16 471.89 659.20 587.74 478.66 764.78 470.05 651.90 625.82 641.73 710.46 791.02 702.85
00000983 00000034 512.92 223.62 471.88 660.98 595.52 473.76 774.67 463.40 658.97 618.48 648.90 703.26 808.81 693.10
00000984 00000035 514.53 223.14 471.21 659.93 597.51 470.31 777.67 461.19 662.60 617.73 648.50 696.64 812.39 687.26
00000985 00000036 514.36 226.96 471.43 649.19 598.46 468.65 779.90 459.93 667.02 616.57 650.21 691.08 814.69 682.01
00000986 00000037 510.62 217.11 472.15 653.04 595.45 464.44 779.77 454.15 666.57 610.10 647.94 689.26 812.38 678.95
00000987 00000038 507.86 212.40 472.14 654.56 593.29 462.87 777.45 449.11 666.02 604.17 647.60 689.15 809.72 676.11
00000988 00000039 503.27 204.65 472.17 660.59 589.89 462.60 774.01 448.33 662.67 603.72 644.84 691.15 803.65 677.94
00000989 00000040 498.79 209.25 476.01 659.54 586.99 465.26 771.97 451.18 660.80 607.01 641.99 699.19 794.27 686.72
00000990 00000041 497.51 212.25 474.17 657.36 584.24 469.73 773.23 459.39 658.72 617.88 635.07 709.36 780.36 701.16
00000991 00000042 497.85 211.02 471.74 658.44 582.96 470.70 771.56 462.66 655.83 623.72 633.13 710.79 777.23 704.73
00000992 00000043 497.28 212.41 470.78 657.98 581.97 469.79 773.48 460.27 657.38 621.94 632.31 712.98 776.73 705.80
00000993 00000044 495.23 206.76 471.19 665.66 583.80 466.59 774.29 455.24 659.88 615.38 636.49 713.08 777.17 704.29
00000994 00000045 493.23 205.42 471.52 667.20 583.59 466.27 772.51 452.82 659.64 610.49 637.25 712.64 776.32 701.92
00000995 00000046 491.25 212.29 471.83 659.80 581.86 467.35 771.83 453.89 660.18 611.98 635.79 711.69 776.05 700.94
00000996 00000047 487.76 215.03 474.26 657.16 580.42 468.49 771.44 454.69 660.38 610.86 634.88 710.06 779.56 698.91
00000997 00000048 486.16 216.75 474.71 654.23 580.33 469.16 769.09 453.91 661.66 610.62 636.89 706.89 783.44 694.20
00000998 00000049 482.83 215.70 474.10 661.14 577.84 464.38 769.19 449.84 660.42 610.55 634.17 702.82 794.11 689.39
00000999 00000050 479.98 215.20 475.80 659.20 575.14 464.27 766.15 449.44 658.12 610.21 631.99 699.36 794.84 685.33
00001000 00000051 478.73 219.69 474.74 654.15 574.50 466.05 766.51 450.70 658.57 610.72 629.79 696.94 797.34 682.37
00001001 00000052 477.86 222.99 474.97 649.79 573.93 467.85 766.42 452.09 658.53 611.98 629.43 696.67 797.18 681.83
00001002 00000053 479.80 225.56 474.77 648.58 576.27 469.00 767.69 453.06 660.48 613.57 632.12 699.02 797.17 684.30
00001003 00000054 480.79 221.62 474.01 651.80 577.25 468.71 768.72 452.32 662.47 614.52 634.36 701.02 796.42 686.06
00001004 00000055 481.25 218.69 472.86 652.51 579.19 468.20 771.57 453.26 663.97 615.09 633.21 701.73 790.02 688.37
00001005 00000056 486.36 220.50 472.72 644.63 581.36 471.47 772.41 455.81 667.57 617.43 637.24 701.66 787.88 688.72
00001006 00000057 489.14 213.66 473.70 655.14 584.84 471.17 775.74 452.76 671.46 612.69 641.53 703.97 793.85 688.51
00001007 00000058 491.33 216.82 476.25 656.15 591.33 471.29 781.68 451.52 681.25 616.11 651.03 704.85 807.23 687.72
00001008 00000059 495.01 226.73 477.14 647.16 596.40 472.82 789.41 453.53 689.15 617.69 655.14 704.64 816.91 687.75
00001009 00000060 498.18 229.37 476.14 648.87 598.40 476.23 791.14 458.56 689.94 622.08 652.87 704.63 818.67 689.07
00001010 00000061 499.84 234.52 476.75 649.61 599.81 477.67 790.96 461.11 688.93 623.15 654.35 707.68 819.21 693.03
00001011 00000062 500.71 232.92 476.73 648.49 599.33 477.14 790.71 461.03 688.14 623.46 654.30 707.10 816.84 692.89
00001012 00000063 503.00 227.46 476.67 649.90 600.53 474.19 793.97 458.56 688.82 619.53 654.75 706.09 816.03 692.39
00001013 00000064 509.08 221.94 473.26 650.74 603.31 467.94 797.25 453.54 689.44 613.15 656.92 702.62 814.18 690.13
00001014 00000065 512.78 219.71 473.68 650.54 607.02 464.91 801.53 451.92 692.24 610.43 662.83 702.08 814.97 690.82
00001015 00000066 516.29 212.45 472.33 657.81 611.17 462.59 807.71 449.66 697.78 609.52 667.26 700.41 821.33 688.88
00001016 00000067 523.52 219.50 462.66 651.57 616.82 461.71 812.42 448.38 702.64 606.97 672.35 701.65 830.72 689.24
00001017 00000068 529.54 218.16 465.31 651.96 631.38 460.97 827.54 447.03 719.87 607.33 685.81 701.97 843.74 688.51
00001018 DELETE   540.69 221.27 465.97 649.47 653.36 463.51 844.62 443.24 745.96 597.63 704.92 701.13 864.98 681.12
00001019 DELETE   554.73 216.48 464.29 655.67 676.11 463.13 877.18 438.83 785.21 593.69 726.17 699.52 900.64 675.47
00001020 DELETE   572.09 204.94 458.28 656.35 698.45 459.33 890.26 432.27 819.14 584.71 750.70 685.94 927.52 661.88
00001021 00000072 584.83 202.90 457.17 660.11 717.52 457.12 906.22 425.63 842.81 584.85 769.85 685.37 946.80 656.87
00001022 00000073 590.16 206.56 457.07 652.09 727.25 454.02 916.11 420.24 855.54 581.30 777.11 680.28 955.78 649.60
00001023 00000074 593.66 204.91 460.32 652.76 733.34 451.16 923.83 420.17 860.28 581.12 778.22 677.88 957.03 649.54
00001024 00000075 595.23 202.06 462.26 654.33 737.10 449.33 928.31 419.01 864.77 577.47 781.73 675.42 958.37 647.39
00001025 00000076 598.45 199.52 461.68 656.97 741.74 446.85 933.12 415.99 869.15 573.55 785.93 673.82 962.52 644.79
00001026 00000077 599.86 199.67 461.38 656.24 745.60 444.90 935.68 414.40 872.84 571.56 789.08 672.31 964.52 643.32
00001027 00000078 600.14 200.58 461.35 657.89 746.64 448.03 935.58 416.43 873.77 573.36 789.98 673.80 965.61 643.96
00001028 00000079 596.34 201.74 460.58 657.20 738.39 453.15 927.48 419.30 866.40 574.39 783.66 675.95 962.17 644.80
00001029 DELETE   590.59 199.68 456.63 661.21 727.44 461.93 910.19 430.46 848.94 578.94 771.18 674.25 951.53 645.68
00001030 DELETE   583.20 194.82 456.88 663.82 712.13 463.78 896.18 433.45 831.76 574.52 761.80 673.17 942.64 645.24
00001031 00000082 576.34 193.24 457.23 662.98 699.33 459.46 886.80 429.51 817.51 570.30 750.17 671.47 931.36 644.34
00001032 00000083 571.83 201.84 459.93 669.13 690.29 463.01 880.99 432.29 798.10 571.62 740.20 673.22 918.84 643.91
00001033 00000084 562.09 197.06 467.93 675.16 679.29 462.74 872.87 431.92 783.66 571.42 733.20 675.20 912.43 645.43
00001034 00000085 556.63 199.90 470.44 670.42 673.34 460.44 867.19 431.05 776.54 572.47 729.70 674.75 904.98 646.32
00001035 00000086 546.91 209.44 470.12 653.93 663.24 459.18 859.34 426.71 772.83 573.08 715.49 675.34 902.83 644.29
00001036 00000087 544.60 212.08 471.44 651.24 659.48 462.13 853.64 427.49 768.02 573.75 713.35 675.54 901.16 642.95
00001037 00000088 541.66 210.06 469.80 653.26 654.84 464.23 844.75 427.93 760.75 575.04 711.00 676.12 896.27 642.05
00001038 00000089 538.53 209.45 472.45 653.90 649.23 465.33 837.48 430.03 752.90 580.20 704.73 674.61 889.75 641.39
00001039 00000090 535.81 209.55 475.23 654.58 646.18 465.61 834.14 431.31 748.62 580.38 702.43 675.41 885.89 643.15
00001040 00000091 536.23 210.56 474.35 653.84 643.96 468.12 830.90 433.67 744.98 581.36 700.83 676.75 884.80 644.26
00001041 00000092 533.65 209.06 475.01 655.38 640.25 472.54 828.34 438.59 741.21 584.00 695.39 677.71 880.94 646.14
00001042 00000093 529.83 210.80 474.88 654.83 637.80 474.49 824.36 440.37 738.41 583.54 693.31 679.70 877.58 648.13
00001043 00000094 526.25 218.49 477.24 649.63 633.29 477.66 820.86 442.77 733.41 588.04 691.31 683.51 877.25 651.49
00001044 00000095 524.55 220.34 476.77 646.97 632.08 478.72 819.14 442.72 732.56 589.56 690.97 683.99 877.43 651.11
00001045 00000096 522.52 218.83 478.12 650.39 629.99 478.92 818.54 442.47 731.36 592.16 689.77 685.10 877.37 652.01
00001046 00000097 521.36 218.49 476.89 650.32 628.96 478.65 817.30 442.72 730.06 592.89 689.13 686.10 874.61 653.71
00001047 00000098 520.16 216.70 473.80 653.95 628.13 479.01 816.60 443.73 729.49 593.74 687.50 687.73 872.32 656.08
00001048 00000099 515.92 215.37 475.12 657.00 624.92 480.26 813.37 444.77 727.43 594.99 686.73 691.32 869.39 659.63
00001049 00000100 513.78 216.49 476.53 655.15 623.30 481.16 813.91 446.07 727.78 598.55 687.16 692.60 868.88 661.38
00001050 00000101 511.66 216.39 475.74 656.54 621.42 481.10 813.13 446.40 727.32 601.45 687.70 695.68 866.29 665.05
00001051 00000102 510.75 218.29 473.77 657.54 620.39 482.27 811.73 449.13 725.71 604.10 686.59 700.37 860.07 671.57
00001052 00000103 507.90 216.23 474.70 665.96 618.87 482.76 809.10 449.22 725.08 604.54 686.19 704.41 856.84 675.44
00001053 00000104 508.58 215.79 472.63 667.19 618.93 483.38 809.81 451.47 724.70 605.22 686.36 708.46 852.33 681.31
00001054 00000105 507.89 217.69 473.53 664.17 619.86 485.87 808.00 455.03 723.46 606.68 686.61 707.35 852.97 681.00
00001055 00000106 507.64 219.03 470.39 659.52 617.99 487.12 803.39 458.55 719.73 607.33 682.91 706.63 846.27 682.23
00001056 00000107 502.04 220.92 470.86 654.15 608.42 483.98 798.01 462.41 705.30 611.80 667.56 706.53 827.87 688.11
00001057 00000108 497.07 225.87 477.56 658.28 594.85 481.19 785.87 466.32 682.19 625.24 652.11 712.65 806.13 699.94
00001058 00000109 498.02 225.15 473.44 653.07 592.02 479.72 782.94 467.88 674.24 625.56 644.66 712.97 793.04 703.51
00001059 00000110 499.83 227.42 474.20 657.49 594.39 480.68 787.61 466.41 682.29 631.27 651.59 716.36 806.75 704.39
00001060 00000111 504.28 226.27 468.99 664.29 604.44 480.11 797.89 462.62 695.97 617.99 659.41 715.32 822.59 700.47
00001061 00000112 506.75 229.58 466.92 658.32 609.08 482.36 802.36 462.19 704.40 618.36 664.74 713.41 832.72 696.34
00001062 00000113 507.72 248.04 462.50 646.16 611.14 487.59 804.95 466.68 707.16 616.10 666.17 714.09 829.87 694.29
00001063 00000114 506.85 239.31 465.30 647.40 607.26 486.78 801.85 470.51 701.14 623.87 657.24 714.73 826.19 701.10
00001064 00000115 509.97 255.43 459.90 640.05 612.30 489.13 806.08 474.28 707.19 623.22 663.58 716.10 827.37 701.40
00001065 00000116 510.83 257.28 464.65 641.16 618.38 493.93 810.60 476.14 717.34 625.98 671.47 718.23 837.15 700.83
00001066 00000117 513.80 260.78 463.65 638.12 621.45 495.58 812.48 477.84 720.19 627.03 674.61 716.74 843.48 698.97
00001067 00000118 513.84 265.66 465.53 635.17 621.23 496.90 812.59 479.03 720.37 628.40 674.79 717.64 845.52 699.72
00001068 00000119 513.09 264.38 463.97 636.16 619.72 497.94 812.34 483.46 717.54 632.85 670.73 718.94 840.80 704.08
00001069 00000120 513.07 263.92 463.66 637.42 618.45 501.27 810.87 487.94 715.06 634.71 666.49 720.08 837.00 706.47
00001070 00000121 512.32 263.69 464.96 638.69 618.36 504.32 812.90 489.05 717.67 636.99 668.28 723.31 838.95 708.03
00001071 00000122 512.00 262.33 465.32 641.30 619.68 503.42 815.25 488.43 722.14 638.66 673.71 730.25 835.28 715.43
00001072 00000123 510.92 260.79 465.17 642.87 618.80 501.06 816.65 487.65 722.51 643.34 675.52 735.36 829.53 722.31
00001073 00000124 509.24 254.93 465.38 646.61 615.21 503.23 816.36 487.08 718.32 648.36 668.84 739.73 828.78 727.45
00001074 00000125 509.10 250.16 466.27 649.86 613.15 500.72 816.03 486.21 715.14 647.89 666.05 739.51 825.87 728.60
00001075 00000126 508.97 252.94 465.81 646.35 613.25 501.38 815.23 485.84 716.00 647.45 667.97 740.62 825.75 728.97
00001076 00000127 510.50 251.67 463.83 648.24 617.99 501.06 817.38 486.00 720.76 647.29 672.12 739.22 827.76 728.00
00001077 00000128 512.55 251.12 463.45 650.01 620.87 499.76 819.04 482.47 723.70 644.84 677.45 739.04 834.24 725.56
00001078 00000129 512.30 249.99 463.95 648.65 621.11 497.83 818.48 480.54 723.47 643.29 677.48 734.99 835.87 721.35
00001079 00000130 514.75 257.61 462.19 642.10 623.72 496.64 818.99 483.68 727.30 638.39 679.66 730.20 833.54 717.37
00001080 00000131 515.56 261.09 462.57 637.70 623.83 497.51 817.79 482.87 726.73 635.40 680.49 727.93 836.82 713.38
00001081 00000132 517.54 264.74 460.91 633.09 626.82 495.03 818.01 479.83 728.35 631.31 682.09 722.96 841.25 707.70
00001082 00000133 517.34 260.41 462.38 636.62 626.65 494.63 817.74 474.80 729.25 627.20 686.16 723.21 846.32 704.03
00001083 00000134 516.56 254.76 462.18 643.10 626.12 492.53 817.08 472.47 728.23 624.90 686.00 722.24 845.22 703.00
00001084 00000135 515.19 252.04 462.42 644.44 624.64 490.57 815.46 471.17 725.77 622.66 683.18 720.83 841.82 702.23
00001085 00000136 515.09 247.92 462.16 647.42 624.58 489.36 815.87 471.03 725.59 622.95 683.24 719.90 840.42 702.26
00001086 00000137 514.57 245.94 462.74 647.00 624.09 488.81 817.59 469.74 726.30 623.22 684.22 719.84 841.01 701.53
00001087 00000138 514.28 246.31 464.63 647.04 625.28 489.69 818.10 469.44 727.99 622.25 687.78 719.83 842.76 700.44
00001088 00000139 514.30 245.42 466.37 645.67 626.09 487.73 821.09 468.38 729.62 622.52 689.03 718.82 843.43 700.22
00001089 00000140 515.69 245.86 464.59 641.94 625.38 487.03 820.78 468.25 728.13 623.20 687.99 718.45 841.53 700.33
00001090 00000141 513.90 238.02 466.04 644.60 622.00 482.26 818.25 464.00 721.67 624.50 679.27 715.23 841.72 699.96
00001091 00000142 514.16 234.45 466.03 644.85 622.44 480.42 819.11 461.83 723.01 623.65 680.32 712.97 842.47 697.30
00001092 00000143 514.61 235.17 468.25 644.89 624.08 478.83 821.76 459.62 725.82 621.97 682.88 712.20 845.87 695.85
00001093 00000144 514.55 235.77 470.70 640.43 624.63 478.32 823.14 459.36 726.15 620.59 682.67 709.66 846.52 693.53
00001094 00000145 514.05 231.28 468.37 641.58 623.60 478.31 822.02 459.53 725.87 620.90 680.46 709.10 842.97 693.29
00001095 00000146 512.66 232.58 467.20 642.36 621.92 479.11 818.23 459.15 724.30 620.17 678.03 708.38 841.03 691.67
00001096 00000147 510.65 233.31 468.07 641.71 620.64 479.11 816.86 459.69 722.60 620.23 676.34 707.90 839.32 691.75
00001097 00000148 509.83 230.37 468.13 645.57 620.69 480.26 816.51 459.88 723.53 620.23 676.84 708.96 839.95 692.00
00001098 00000149 508.72 231.44 469.13 646.58 620.78 480.92 816.25 460.26 724.42 620.77 677.21 709.70 840.71 692.54
00001099 00000150 506.70 230.45 469.37 646.80 619.37 481.39 814.06 459.85 723.81 619.59 676.73 709.52 840.22 691.74
00001100 00000151 505.09 227.57 468.43 652.43 617.35 481.77 811.42 461.13 721.55 619.86 674.29 711.07 836.59 694.04
00001101 00000152 504.39 229.20 468.56 651.25 615.87 481.93 810.79 461.53 719.59 618.71 671.63 711.09 833.73 694.33
00001102 00000153 502.71 229.25 468.35 654.44 614.36 482.61 809.22 462.18 718.61 620.66 670.69 714.04 832.38 697.32
00001103 00000154 502.41 232.45 468.44 652.66 614.93 484.43 809.38 463.26 720.11 622.81 672.28 716.80 832.53 699.53
00001104 00000155 501.81 231.87 468.23 652.70 614.31 485.59 811.28 466.07 721.51 628.56 671.10 719.06 829.81 703.48
00001105 00000156 502.34 235.86 466.57 650.33 612.96 486.92 811.11 468.99 719.24 631.47 669.37 724.43 823.10 710.67
00001106 00000157 503.20 237.54 464.23 647.12 611.67 488.36 811.45 471.12 717.94 631.83 667.39 727.80 818.70 714.75
00001107 00000158 502.34 230.41 460.53 654.85 609.69 486.12 808.48 470.06 714.99 631.19 664.77 728.65 811.72 716.66
00001108 00000159 499.04 234.84 463.56 648.15 604.61 482.48 804.61 467.08 708.32 628.80 659.89 725.74 806.83 714.40
00001109 00000160 498.38 222.95 464.30 654.25 599.76 479.91 803.00 463.96 702.41 625.26 655.44 721.44 808.16 709.06
00001110 00000161 494.78 223.74 470.07 654.18 597.85 476.74 803.36 462.30 699.54 622.53 652.65 718.75 806.24 707.42
00001111 00000162 493.95 221.75 470.25 663.29 597.09 475.87 801.91 459.79 698.71 619.51 653.23 720.32 806.89 707.59
00001112 00000163 494.43 226.75 470.10 662.96 595.86 476.07 801.46 459.18 698.25 620.12 654.38 723.52 808.58 710.20
00001113 00000164 499.49 225.35 469.94 661.77 601.34 476.28 808.30 460.70 705.27 622.65 657.80 724.51 812.42 712.46
00001114 00000165 509.87 232.60 463.94 653.46 614.22 475.18 820.44 456.18 721.47 625.68 673.38 726.06 828.52 710.78
00001115 DELETE   528.15 235.21 461.19 647.26 644.79 475.04 846.32 451.78 756.28 624.01 705.19 726.41 859.25 706.12
00001116 DELETE   547.17 228.47 461.02 650.25 680.75 479.13 884.53 447.27 807.59 619.34 746.30 732.51 896.36 703.18
00001117 DELETE   572.19 219.16 456.44 660.11 709.41 470.85 907.97 446.08 841.21 616.77 770.97 718.66 926.81 697.92
00001118 00000169 582.40 219.33 454.61 660.32 729.33 460.18 918.99 437.82 859.93 607.14 784.29 710.85 939.11 691.21
00001119 00000170 583.68 221.07 451.83 652.12 729.86 454.78 921.73 434.66 858.92 602.72 780.95 706.26 935.40 688.40
