Video ID: 	_64xupKkyb0
H: 	1080
W: 	1920
FPS: 	29.97002997002997

FRAME INDEX X0 Y0 W H [Landmarks (5 Points)]

00020031 00000000 406.90 199.06 401.75 577.39 464.98 463.76 618.79 439.89 519.16 560.40 518.91 655.22 645.21 634.82
00020032 00000001 412.37 208.80 397.03 572.49 473.68 462.18 628.58 439.90 529.65 558.51 528.72 656.26 658.13 636.78
00020033 00000002 412.34 213.21 403.02 573.82 478.97 466.64 636.30 443.29 538.89 562.30 535.58 660.62 666.04 640.16
00020034 00000003 412.97 218.85 403.90 577.26 479.28 470.90 635.91 446.93 537.69 566.91 533.50 665.25 665.20 644.55
00020035 00000004 414.01 223.31 401.76 575.69 477.94 472.35 634.88 451.26 532.71 570.05 527.91 668.74 658.08 650.60
00020036 00000005 413.72 222.92 401.98 576.00 478.00 472.77 634.92 451.47 532.71 570.10 528.14 668.91 658.14 650.58
00020037 00000006 418.38 227.03 399.82 572.60 480.57 473.15 638.03 453.79 534.93 572.44 528.03 670.08 657.61 653.52
00020038 00000007 425.57 226.96 397.68 575.22 486.85 475.18 645.19 453.83 543.67 573.90 536.66 671.98 667.77 653.88
00020039 00000008 428.77 228.52 397.03 570.47 496.70 481.25 651.60 455.92 562.88 574.24 552.24 676.91 682.99 656.28
00020040 00000009 433.18 226.05 393.59 562.29 502.56 478.66 663.82 455.36 569.29 577.75 554.64 671.23 681.66 651.61
00020041 00000010 433.21 226.22 393.59 562.21 502.56 478.66 663.72 455.42 569.11 577.73 554.62 671.19 681.63 651.61
00020042 00000011 435.31 227.10 397.11 564.22 504.13 482.50 665.63 457.33 576.26 578.53 554.82 673.57 694.00 652.83
00020043 00000012 437.42 228.41 397.21 563.72 507.85 485.40 669.64 460.24 580.97 579.23 558.76 673.05 697.83 652.34
00020044 00000013 440.85 229.21 395.83 561.59 514.49 488.49 681.59 464.50 591.96 581.73 564.25 675.17 705.61 655.70
00020045 DELETE   439.36 233.48 404.72 559.15 526.57 490.62 693.06 463.18 614.65 578.35 584.77 678.64 717.70 656.31
00020046 DELETE   439.09 233.39 405.06 559.15 526.54 490.71 692.99 463.30 614.82 578.51 584.82 678.64 717.61 656.34
00020047 DELETE   441.62 231.22 411.17 555.87 539.82 492.64 712.02 457.45 639.93 577.92 606.47 680.63 738.31 651.51
00020048 00000017 446.33 225.80 416.98 566.28 554.45 491.25 731.12 457.15 660.43 580.91 625.19 673.30 760.68 645.82
00020049 00000018 450.32 228.05 414.58 559.93 558.50 493.73 737.28 461.75 665.57 585.03 626.10 672.54 764.46 646.61
00020050 00000019 456.00 231.15 408.21 557.41 560.00 494.36 739.06 467.51 663.89 588.28 620.61 671.76 761.18 650.02
00020051 00000020 455.79 231.15 408.40 557.25 560.05 494.49 739.17 467.74 663.94 588.18 620.54 671.76 761.14 650.11
00020052 00000021 460.16 229.30 407.44 560.42 563.71 492.85 741.40 469.80 665.48 588.95 620.42 671.23 760.32 652.47
00020053 00000022 465.56 231.25 407.47 553.74 574.09 491.64 753.97 468.61 678.45 587.91 629.09 670.32 770.19 651.27
00020054 00000023 476.37 238.75 405.96 548.94 588.82 491.26 760.84 467.91 695.00 582.79 645.53 676.17 782.08 657.15
00020055 00000024 480.56 240.48 408.46 555.41 597.20 493.04 768.30 467.98 704.95 588.10 658.25 681.09 791.30 660.11
00020056 00000025 480.72 240.36 408.29 555.41 597.29 493.09 768.26 468.07 704.98 587.99 658.42 681.02 791.37 660.07
00020057 00000026 491.38 243.29 403.19 555.50 604.52 498.76 775.93 472.52 712.86 596.61 664.65 689.06 795.91 667.26
00020058 00000027 498.87 246.54 401.98 555.07 610.99 505.49 781.40 479.96 717.20 603.20 666.51 692.88 799.25 672.02
00020059 00000028 508.47 241.33 399.33 557.71 617.46 500.83 789.03 479.47 721.89 600.96 668.02 689.90 803.21 672.13
00020060 00000029 517.83 232.15 398.10 561.57 627.43 493.58 801.63 473.43 734.41 595.23 678.05 684.52 815.00 667.59
00020061 00000030 517.84 231.93 397.97 561.93 627.49 493.58 801.44 473.56 734.44 594.99 678.20 684.46 814.82 667.66
00020062 00000031 524.97 220.72 392.79 562.13 633.26 484.87 812.55 465.49 745.23 582.71 681.17 676.97 824.23 660.64
00020063 00000032 528.56 219.29 393.99 564.62 641.79 480.05 822.62 465.20 752.02 576.27 688.42 659.15 835.18 647.41
00020064 00000033 530.45 216.33 393.62 568.12 642.54 476.88 820.15 463.92 749.37 575.38 688.50 656.94 832.27 646.72
00020065 00000034 530.91 214.39 393.80 570.14 641.11 472.94 819.68 463.22 745.95 574.89 684.66 656.01 828.63 648.25
00020066 00000035 530.80 214.29 393.94 570.38 641.18 473.11 819.75 463.42 746.01 574.98 684.68 655.94 828.69 648.24
00020067 00000036 532.45 213.15 392.20 570.68 640.49 471.69 818.31 463.54 742.92 571.81 682.11 653.92 825.34 647.59
00020068 00000037 534.72 211.37 392.12 566.74 648.49 465.79 825.73 456.67 753.54 565.11 692.22 650.66 832.28 643.49
00020069 00000038 536.76 209.04 395.20 560.86 658.65 460.51 836.41 444.70 769.53 560.90 709.12 648.72 847.60 635.83
00020070 00000039 536.36 211.33 395.22 559.65 661.83 461.59 840.24 441.85 777.26 562.30 714.85 650.84 855.16 634.55
00020071 00000040 536.29 211.18 395.36 559.54 661.76 461.62 840.30 441.94 777.14 562.20 714.72 650.74 855.06 634.49
00020072 00000041 533.91 212.19 396.53 565.74 655.46 463.53 834.37 446.16 769.06 565.06 706.41 652.68 848.14 638.62
00020073 00000042 529.48 215.42 396.12 568.63 646.41 466.79 826.82 451.61 758.19 569.43 695.42 655.95 838.81 644.15
00020074 00000043 523.40 216.46 396.82 569.97 637.39 466.90 818.75 454.08 748.37 571.10 685.92 657.30 830.98 647.49
00020075 00000044 513.16 219.99 398.11 569.47 634.48 471.85 808.27 451.64 742.44 575.92 680.94 668.46 815.34 651.15
00020076 00000045 513.08 219.80 398.19 569.58 634.50 471.90 808.29 451.70 742.48 575.95 681.00 668.49 815.35 651.19
00020077 00000046 519.92 214.73 396.50 570.18 631.32 469.93 811.01 447.28 749.41 574.26 683.16 671.66 824.92 652.02
00020078 00000047 518.84 216.48 395.67 567.43 633.59 469.29 811.01 444.78 753.31 571.75 687.86 671.10 826.97 649.84
00020079 00000048 507.80 222.32 398.29 571.90 631.14 473.46 802.22 445.25 745.43 575.08 687.74 672.29 819.68 648.12
00020080 00000049 505.77 214.92 398.78 573.97 616.34 470.58 789.95 442.22 730.00 569.68 675.69 673.54 808.95 649.04
00020081 00000050 505.78 214.97 398.89 573.79 616.42 470.75 789.96 442.40 730.11 569.60 675.82 673.42 809.20 648.88
00020082 00000051 502.69 215.38 397.06 574.97 610.84 468.07 785.16 443.16 722.33 567.29 665.43 671.72 801.00 650.66
00020083 00000052 501.94 214.31 397.29 576.31 609.94 467.21 783.62 441.60 721.28 565.83 663.53 670.13 801.09 648.50
00020084 00000053 501.26 213.79 398.14 574.88 609.90 468.58 783.58 439.66 723.41 564.26 666.35 669.18 804.66 644.76
00020085 00000054 498.29 212.71 400.52 574.65 608.82 468.73 781.84 437.54 722.63 563.31 668.27 669.33 803.99 642.92
00020086 00000055 498.33 212.71 400.52 574.73 608.75 468.79 781.85 437.56 722.61 563.39 668.24 669.34 804.13 642.92
00020087 00000056 495.39 214.55 402.25 574.74 605.18 468.24 777.66 438.84 715.99 564.85 663.21 669.98 797.91 645.18
00020088 00000057 491.24 215.97 403.50 573.61 599.80 467.21 771.34 439.83 707.85 567.79 656.52 670.28 789.93 647.48
00020089 00000058 490.78 215.95 402.90 572.75 599.00 466.42 769.66 439.79 705.86 566.63 655.14 669.26 787.95 647.16
00020090 00000059 491.18 215.13 402.73 571.74 600.91 466.31 771.79 437.95 709.48 564.01 658.17 668.62 790.37 644.97
00020091 00000060 491.22 215.09 402.63 571.80 600.98 466.21 771.80 437.86 709.50 563.91 658.24 668.56 790.43 644.92
00020092 00000061 486.37 215.66 408.12 574.05 594.49 465.93 764.51 434.89 702.09 565.31 657.49 669.38 788.02 643.32
00020093 00000062 477.54 219.24 411.84 572.32 580.02 465.99 753.07 438.45 683.53 567.18 641.65 670.21 774.99 647.45
00020094 00000063 466.41 217.52 414.34 574.70 564.15 466.55 736.80 445.82 655.27 574.50 623.90 664.57 755.67 647.52
00020095 00000064 462.30 215.45 407.09 579.84 554.17 466.11 722.53 446.55 640.56 567.88 609.99 664.81 738.38 649.27
00020096 00000065 462.22 215.33 407.02 579.80 554.24 466.14 722.52 446.69 640.63 567.87 609.91 664.81 738.18 649.37
00020097 00000066 459.45 213.19 402.34 586.79 549.88 465.99 715.28 447.62 633.45 566.95 605.36 667.44 729.01 653.27
00020098 00000067 455.95 218.97 394.49 580.57 539.62 466.53 705.84 450.78 618.89 568.42 591.98 669.98 715.14 657.95
00020099 00000068 451.46 224.75 393.98 562.90 521.33 475.83 678.71 450.66 589.13 574.24 571.71 673.59 696.62 653.35
00020100 00000069 447.93 223.84 392.20 569.88 511.76 474.69 668.96 453.94 572.73 576.12 555.11 674.65 686.12 658.02
00020101 00000070 447.97 223.61 392.11 570.20 511.81 474.62 669.00 453.78 572.86 576.10 555.21 674.72 686.20 658.00
00020102 00000071 447.13 222.68 390.98 572.20 511.00 473.64 666.94 452.79 571.01 574.67 554.48 674.71 685.02 657.88
00020103 00000072 445.99 220.75 392.08 572.62 509.93 473.16 666.07 450.88 571.47 571.62 554.12 671.56 686.37 653.60
00020104 00000073 443.46 218.03 391.57 574.15 505.12 471.64 661.22 450.28 565.95 571.43 550.09 670.39 681.57 653.13
00020105 00000074 441.45 219.07 389.16 571.22 500.75 471.97 660.35 454.19 558.36 567.86 539.96 666.28 676.65 652.24
00020106 00000075 441.45 219.04 389.13 571.27 500.67 471.92 660.23 454.11 558.25 567.93 539.96 666.38 676.59 652.33
00020107 00000076 441.79 218.17 386.10 565.55 497.06 466.15 658.92 451.24 552.43 565.67 532.11 662.87 671.99 651.40
00020108 00000077 441.09 209.86 384.90 565.49 498.13 454.91 660.74 445.04 551.00 563.56 536.47 654.04 666.38 646.03
00020109 00000078 440.02 207.13 385.15 563.14 498.24 452.24 660.38 441.94 551.87 560.71 537.57 650.97 667.07 642.42
00020110 00000079 440.24 204.15 383.91 565.88 497.57 449.79 659.57 440.23 550.00 557.98 535.34 648.78 665.38 640.94
00020111 00000080 440.27 204.25 383.83 565.80 497.57 449.81 659.60 440.27 550.01 558.01 535.33 648.79 665.39 640.97
00020112 00000081 440.65 204.17 383.11 565.28 497.33 448.78 659.41 439.24 548.67 555.51 533.67 647.53 663.61 639.86
00020113 00000082 440.69 202.64 382.56 564.87 497.44 446.87 658.57 438.36 547.96 553.54 532.70 645.65 661.96 638.76
00020114 00000083 442.06 203.36 379.54 564.29 497.35 444.10 654.16 438.14 543.02 551.21 529.66 644.24 654.19 639.89
00020115 00000084 441.39 202.06 377.04 566.05 490.16 437.67 646.24 440.75 527.68 547.76 511.18 641.67 634.75 644.59
00020116 00000085 441.39 202.19 376.94 565.83 490.37 437.36 646.14 440.78 527.58 547.49 511.10 641.54 634.33 644.77
00020117 00000086 437.78 195.29 371.57 570.38 477.41 426.29 634.84 440.10 510.36 547.65 485.58 639.47 608.92 651.02
00020118 00000087 435.42 191.12 371.49 569.60 474.72 419.91 629.84 435.93 503.25 540.76 478.41 633.95 597.96 647.61
00020119 00000088 437.59 185.52 371.27 567.99 479.02 414.58 635.34 429.16 509.19 533.82 483.87 628.24 605.17 640.63
00020120 00000089 442.87 185.37 370.67 564.06 485.05 411.82 641.33 424.26 516.43 529.44 491.90 623.83 616.14 634.28
00020121 00000090 442.79 185.00 370.73 564.36 485.08 411.94 641.33 424.26 516.56 529.29 491.97 623.88 616.30 634.22
00020122 00000091 444.31 183.61 371.36 560.94 485.68 408.23 642.04 420.19 515.57 524.19 493.77 619.66 616.43 629.68
00020123 00000092 442.49 180.82 370.88 558.56 483.26 403.48 636.44 418.16 505.63 517.43 483.55 612.66 604.84 625.14
00020124 00000093 441.00 175.55 371.42 559.72 480.32 401.28 627.84 416.15 492.05 508.21 473.84 607.29 591.20 620.45
00020125 00000094 434.62 171.96 373.64 556.35 476.95 397.17 622.08 416.90 483.34 500.11 462.29 598.15 573.15 615.76
00020126 00000095 434.84 171.64 373.88 556.71 476.98 397.16 622.13 416.68 483.33 500.13 462.51 598.46 573.40 615.89
00020127 00000096 435.59 164.84 375.76 560.34 478.79 394.15 623.74 414.18 480.74 495.35 461.98 592.16 574.06 610.24
00020128 00000097 444.90 163.93 373.65 561.95 487.36 391.47 635.13 412.24 493.04 494.73 470.08 590.65 585.21 609.60
00020129 00000098 450.12 161.79 372.60 563.39 494.83 388.10 642.93 408.41 500.60 491.92 478.02 589.01 595.67 607.47
00020130 00000099 451.35 161.85 372.50 561.83 496.37 386.69 643.66 406.29 501.95 490.32 479.52 587.69 597.46 605.53
00020131 00000100 451.60 161.98 372.20 561.56 496.26 386.46 643.42 406.15 501.69 490.31 479.28 587.57 597.21 605.51
00020132 00000101 452.37 159.59 370.33 569.11 496.11 387.01 641.79 405.90 498.57 488.64 479.60 590.52 591.60 608.09
00020133 00000102 454.82 159.59 368.53 574.06 498.43 387.52 641.44 405.36 499.76 489.03 484.68 594.64 594.51 611.07
00020134 00000103 455.81 163.38 367.89 570.58 500.70 388.82 642.50 406.73 503.56 489.63 487.37 596.16 593.22 612.57
00020135 00000104 456.21 167.69 368.75 566.55 503.14 388.03 645.93 409.91 509.28 494.69 489.65 596.52 599.24 615.73
00020136 00000105 456.20 167.62 368.71 566.64 503.13 388.04 645.91 409.92 509.26 494.70 489.64 596.52 599.26 615.74
00020137 00000106 456.52 173.13 370.84 563.09 504.71 390.15 652.31 414.39 513.76 498.13 490.79 598.21 606.25 618.94
00020138 00000107 454.95 180.00 372.74 565.13 511.53 403.64 653.58 425.25 513.15 503.56 500.27 605.03 608.39 623.13
00020139 00000108 453.85 179.88 377.21 566.74 511.76 407.94 658.88 427.40 524.35 509.63 505.14 608.99 618.42 625.02
00020140 00000109 454.06 181.01 378.48 568.72 511.31 410.50 659.70 428.06 527.47 514.23 507.94 613.57 622.64 627.75
00020141 00000110 454.11 181.03 378.37 568.61 511.27 410.43 659.76 428.04 527.38 514.10 507.89 613.47 622.72 627.70
00020142 00000111 452.44 183.54 378.83 570.24 510.19 412.46 658.89 429.91 528.26 516.48 507.81 616.99 621.42 631.01
00020143 00000112 453.44 185.57 380.59 569.89 511.26 414.74 662.04 432.89 535.98 523.86 511.71 619.42 627.02 633.87
00020144 00000113 458.69 188.57 380.62 570.11 515.63 421.00 674.22 439.34 548.29 531.22 516.52 621.55 639.08 636.05
00020145 00000114 461.81 191.45 386.12 568.47 522.74 427.34 690.76 441.32 569.82 541.73 531.01 626.70 663.69 637.67
00020146 00000115 461.81 190.96 385.81 569.18 522.80 427.58 690.69 441.33 570.00 541.91 531.26 626.89 663.89 637.66
00020147 DELETE   473.84 193.30 381.30 565.41 532.55 434.14 705.14 441.38 590.29 545.47 550.08 632.13 687.15 637.60
00020148 00000117 476.37 196.76 393.75 561.16 554.84 437.02 724.08 434.18 626.45 539.93 588.98 632.99 724.73 629.86
00020149 DELETE   475.41 202.83 409.08 546.62 578.33 451.17 752.94 431.42 671.21 539.23 632.47 636.97 767.30 620.28
00020150 DELETE   481.09 199.94 409.87 545.86 603.09 462.76 775.07 422.17 717.58 535.97 676.17 642.78 806.90 608.76
00020151 DELETE   481.06 200.31 409.97 545.50 603.07 462.67 775.19 421.94 717.74 535.95 676.10 642.65 806.90 608.52
CROP_BBOX: 219 0 1119 930
