Video ID: 	Ol4ma-n0DXA
H: 	1080
W: 	1920
FPS: 	23.976023976023978

FRAME INDEX X0 Y0 W H [Landmarks (5 Points)]

00013438 00000000 729.06 185.19 374.36 531.05 781.56 402.23 930.84 391.85 817.60 485.51 803.00 587.42 931.05 579.75
00013439 00000001 727.54 183.51 377.77 547.72 779.79 401.51 929.20 389.28 814.72 488.84 806.56 591.72 938.55 582.33
00013440 DELETE   724.00 184.22 376.10 538.50 776.55 406.42 920.68 392.22 811.13 483.49 803.65 591.22 924.94 580.78
00013441 DELETE   718.84 177.49 377.43 534.19 770.00 408.96 921.83 395.23 791.42 481.45 787.97 589.80 910.86 578.61
00013442 DELETE   713.72 177.03 374.69 530.82 756.70 407.38 903.90 387.36 781.34 478.11 775.49 581.88 895.00 565.61
00013443 00000005 711.25 172.03 367.02 537.61 751.47 404.06 888.18 387.23 763.81 482.61 767.43 581.41 888.38 567.58
00013444 00000006 704.69 172.04 367.37 541.10 739.06 394.79 877.47 388.51 744.04 490.31 764.44 583.23 880.27 579.68
00013445 00000007 698.24 167.21 365.30 547.31 726.42 396.09 862.95 384.25 734.12 488.41 759.30 583.46 870.39 575.70
00013446 00000008 694.08 166.08 360.19 550.97 715.40 397.03 850.55 383.38 722.00 491.80 753.07 585.10 863.55 576.26
00013447 00000009 690.75 170.11 360.66 544.39 710.89 398.76 843.83 383.71 715.17 494.75 753.35 585.82 859.32 575.68
00013448 00000010 684.70 180.10 357.71 524.33 715.33 400.94 835.67 387.01 720.53 493.72 749.49 586.10 858.85 575.02
00013449 00000011 682.65 179.50 361.98 522.40 711.93 405.17 837.87 386.26 720.40 493.24 744.87 588.49 858.64 573.15
00013450 00000012 676.39 180.53 364.02 522.68 708.83 406.69 834.86 385.00 719.82 492.03 742.45 589.22 856.13 571.52
00013451 00000013 670.81 181.03 363.91 525.34 706.01 407.30 828.17 385.05 714.64 492.42 739.33 593.58 844.46 575.72
00013452 00000014 659.35 187.91 364.51 520.06 701.01 403.43 817.99 388.75 707.76 491.94 731.86 590.07 828.13 578.76
00013453 00000015 651.12 182.04 364.65 531.06 690.64 414.21 810.65 384.77 699.10 488.21 723.59 597.20 814.35 573.26
00013454 00000016 649.52 178.59 362.20 542.69 685.08 416.45 804.11 385.15 692.23 488.75 722.62 608.64 805.31 582.87
00013455 00000017 646.74 176.39 363.35 548.05 679.50 418.94 799.75 388.09 685.29 490.89 717.57 611.56 801.26 586.04
00013456 00000018 643.05 175.24 365.46 553.96 677.05 420.94 800.40 390.95 683.76 489.35 713.17 611.19 802.54 586.33
00013457 00000019 640.53 178.17 366.50 553.06 676.89 420.44 800.68 390.84 684.38 490.01 716.85 611.34 807.96 586.49
00013458 00000020 638.19 175.74 370.42 554.29 674.60 419.27 803.76 388.65 685.04 486.02 711.11 605.95 812.18 580.49
00013459 00000021 634.93 171.83 378.13 555.80 672.51 413.90 813.63 385.02 683.61 486.51 710.30 605.94 818.66 582.65
00013460 00000022 639.33 175.40 374.49 550.53 679.01 417.74 812.07 381.78 695.16 479.39 715.06 601.04 821.46 571.58
00013461 00000023 641.49 175.53 378.27 545.85 684.39 416.63 820.08 384.04 705.50 482.54 718.56 598.41 825.28 571.76
00013462 00000024 645.46 179.45 380.20 537.63 689.43 416.27 826.06 386.57 713.18 488.18 722.73 598.21 830.30 574.06
00013463 00000025 649.33 183.14 382.98 535.75 694.19 414.09 833.60 388.74 720.69 496.05 730.30 599.34 842.23 578.49
00013464 00000026 657.29 191.55 376.31 536.02 703.79 411.87 831.86 395.83 723.58 501.10 739.93 599.66 851.90 586.49
00013465 00000027 664.56 192.09 374.70 540.65 710.79 415.30 838.17 397.99 732.46 504.93 749.38 602.14 859.87 588.24
00013466 00000028 674.13 194.39 372.65 534.60 719.49 419.58 848.21 401.09 743.41 506.57 753.66 605.80 859.35 591.99
00013467 00000029 677.23 190.65 379.35 539.16 715.81 416.75 871.62 401.69 744.28 505.66 755.62 608.84 866.55 597.47
00013468 00000030 681.77 195.49 379.49 535.53 726.52 413.18 880.01 404.90 753.86 506.79 763.97 606.22 871.17 599.68
00013469 00000031 692.45 197.84 376.65 534.88 741.51 418.89 880.12 408.83 766.93 508.20 775.58 605.99 872.63 596.37
00013470 00000032 699.13 195.87 378.15 532.34 743.89 418.93 888.85 406.31 773.36 508.33 780.66 608.84 883.14 597.41
00013471 00000033 708.12 192.92 379.04 530.07 750.42 414.61 899.58 401.42 784.88 510.42 782.57 604.05 899.30 592.60
00013472 00000034 711.29 196.31 384.18 520.29 756.95 411.86 910.47 398.51 795.72 511.32 787.65 599.15 911.53 587.96
00013473 00000035 717.83 190.06 384.37 524.50 767.25 409.62 920.82 394.42 808.76 506.35 796.39 595.82 921.07 583.43
00013474 00000036 726.04 185.86 384.18 530.94 775.12 408.24 932.05 392.99 819.14 503.75 804.35 596.98 929.53 584.74
00013475 00000037 733.99 195.12 374.67 526.63 788.55 404.54 928.20 399.64 822.42 500.03 813.12 596.12 924.13 593.73
00013476 00000038 738.72 193.40 373.35 527.68 793.23 406.02 933.20 399.30 827.36 497.66 816.49 597.41 926.40 593.80
00013477 00000039 740.51 192.44 372.52 525.60 792.90 406.87 936.74 398.91 827.25 497.70 815.20 596.95 931.54 592.08
00013478 00000040 741.64 189.19 373.38 533.91 795.06 406.71 936.04 396.22 826.58 495.15 818.65 598.47 933.03 591.70
00013479 00000041 741.39 188.44 375.36 539.11 795.37 405.63 936.39 393.06 827.53 492.66 819.47 598.14 935.89 589.51
00013480 00000042 740.18 188.28 374.39 530.23 794.29 402.31 935.05 393.29 827.66 490.68 816.28 590.58 932.12 584.89
00013481 00000043 739.14 188.17 373.62 525.82 792.18 400.43 933.76 392.45 827.03 488.90 814.47 586.16 933.97 580.92
00013482 00000044 736.85 188.95 372.21 523.22 788.60 401.74 932.24 392.79 822.63 484.41 811.02 583.62 935.42 577.26
00013483 00000045 736.63 184.99 369.23 527.94 785.02 397.28 928.94 390.54 815.48 483.74 806.07 581.73 931.29 577.36
00013484 00000046 732.10 186.76 373.82 531.21 783.07 395.99 919.43 390.20 810.12 486.38 805.57 582.94 921.51 579.20
00013485 00000047 730.84 184.26 371.45 540.97 780.31 396.51 910.99 390.32 801.33 492.74 806.45 588.20 920.56 583.91
00013486 00000048 721.12 176.01 380.81 553.96 768.82 402.16 914.60 387.67 793.47 495.83 796.82 594.10 917.99 582.31
00013487 00000049 717.89 182.57 377.78 540.74 761.08 407.74 905.94 390.82 785.25 498.98 787.55 597.84 905.72 584.29
00013488 00000050 715.63 184.37 374.43 538.00 756.72 411.29 898.76 394.46 780.42 499.83 783.40 600.06 894.13 586.47
00013489 00000051 712.20 184.75 374.04 540.44 753.92 411.10 895.21 396.84 776.76 501.42 782.82 602.39 887.58 590.50
00013490 00000052 710.37 185.08 372.54 542.90 752.79 410.12 891.47 396.93 773.65 501.18 783.70 603.81 883.30 592.53
00013491 00000053 708.46 186.82 373.55 540.83 749.98 411.66 888.38 397.34 770.43 501.39 780.72 605.16 879.19 592.96
00013492 00000054 707.97 188.49 370.25 533.74 748.41 410.71 886.88 398.51 769.54 502.95 775.27 602.78 876.14 592.39
00013493 00000055 708.08 186.44 369.44 530.78 748.35 409.30 888.36 396.53 770.32 500.12 769.74 599.69 875.97 589.19
00013494 00000056 708.15 182.10 369.28 533.62 748.38 408.61 889.80 394.81 770.51 495.13 767.57 597.12 875.77 585.86
00013495 00000057 710.36 182.08 366.43 531.35 751.08 406.72 891.57 393.07 771.96 491.93 768.47 595.16 875.77 584.24
00013496 00000058 710.60 179.45 368.33 532.76 752.54 406.29 895.35 391.07 775.95 489.74 770.91 594.02 880.00 581.89
00013497 00000059 711.82 179.81 370.31 532.14 753.54 406.60 897.65 390.31 778.99 490.93 772.78 594.69 883.18 581.82
00013498 00000060 712.31 181.03 370.73 531.17 752.96 408.01 898.30 391.61 779.41 496.00 773.44 597.83 885.10 584.86
00013499 00000061 711.44 186.72 372.78 528.85 752.13 411.10 897.79 396.55 779.69 501.98 776.04 601.50 886.70 589.81
00013500 00000062 711.08 191.94 371.00 533.53 751.93 413.22 896.09 402.22 778.73 504.57 779.89 605.69 883.99 596.35
00013501 00000063 711.06 191.11 372.02 545.58 755.21 412.34 898.91 403.13 782.13 504.64 784.68 606.33 889.85 598.15
00013502 00000064 712.69 189.13 374.02 540.92 756.78 411.72 901.84 398.63 784.53 502.09 783.85 604.56 896.70 593.62
00013503 00000065 714.72 182.25 373.93 540.97 757.97 407.94 906.04 394.12 785.88 498.69 779.95 601.01 893.81 590.11
00013504 00000066 716.40 176.03 372.45 545.76 760.96 404.70 910.17 392.53 789.37 496.42 779.85 598.11 896.25 588.71
00013505 00000067 715.36 176.18 374.84 546.40 762.07 404.21 910.26 392.29 790.69 494.40 781.36 595.58 896.65 586.34
00013506 00000068 715.16 178.76 372.59 541.49 761.47 404.59 909.26 393.88 789.58 496.15 779.96 593.43 898.60 585.02
00013507 00000069 715.30 177.60 373.66 543.58 760.16 406.09 909.30 394.79 788.58 499.32 779.25 595.02 901.45 586.11
00013508 00000070 716.42 179.12 371.43 539.25 760.19 406.29 909.06 394.79 788.23 499.11 778.57 595.49 899.53 586.50
00013509 00000071 717.17 177.11 371.96 538.13 761.96 404.93 911.32 393.49 790.62 496.42 779.34 592.69 900.08 584.02
00013510 00000072 717.49 174.46 374.88 536.52 765.10 403.05 914.66 389.39 796.31 491.73 782.36 587.97 904.86 577.58
00013511 00000073 720.85 171.57 376.96 535.77 769.68 400.58 920.57 385.39 803.57 487.82 786.90 585.27 910.75 573.46
00013512 00000074 723.33 170.65 375.52 534.65 771.18 399.32 924.56 383.61 806.64 487.58 788.84 585.84 913.07 573.72
00013513 00000075 724.74 171.30 377.04 536.01 773.29 399.25 926.58 384.06 810.27 489.15 792.42 590.22 911.55 578.63
00013514 00000076 724.75 176.41 376.83 534.72 772.21 401.02 926.83 386.17 809.57 493.58 793.70 595.25 911.68 583.90
00013515 00000077 723.72 185.48 378.79 533.17 770.91 408.29 924.25 392.54 810.19 500.61 794.14 601.56 911.20 589.37
00013516 00000078 724.34 191.57 377.13 534.37 771.69 411.58 926.38 397.57 811.26 503.19 795.52 606.74 909.79 595.93
00013517 00000079 725.69 194.80 379.27 532.48 774.68 413.58 929.84 399.69 816.55 504.29 800.75 606.98 915.15 596.06
00013518 00000080 728.68 193.29 375.36 530.51 777.59 411.21 934.35 398.15 821.23 504.73 801.74 604.98 918.41 594.85
00013519 00000081 735.12 191.18 372.80 526.29 780.98 406.39 941.68 395.01 826.38 502.10 804.11 602.17 922.88 593.25
00013520 00000082 733.64 198.41 369.81 518.45 788.11 414.33 930.79 409.16 824.86 494.20 807.04 597.37 919.75 595.23
00013521 00000083 734.90 201.51 369.27 517.08 790.42 420.07 934.29 414.32 829.17 498.54 810.74 599.96 923.28 597.24
00013522 00000084 732.53 206.54 369.60 519.89 789.29 423.34 933.21 416.44 828.46 503.73 810.67 605.82 921.73 602.33
00013523 00000085 733.16 202.87 367.89 528.72 783.36 421.45 943.49 415.01 833.05 510.99 814.71 613.45 926.09 607.92
00013524 00000086 728.25 206.26 371.68 532.95 786.72 425.01 933.57 421.15 824.27 517.06 808.98 613.49 923.68 611.56
00013525 00000087 729.66 205.70 367.89 528.33 788.77 422.27 934.44 418.56 826.15 512.17 807.87 609.06 923.20 607.49
00013526 00000088 732.43 201.90 364.29 521.61 791.02 416.06 937.53 412.95 830.10 502.44 806.56 600.73 924.15 600.29
00013527 00000089 733.11 196.59 367.90 520.31 792.04 410.35 940.52 406.65 832.32 495.22 806.00 594.27 927.17 593.31
00013528 00000090 732.96 193.47 368.69 518.03 790.29 407.77 941.22 405.90 830.50 494.89 802.52 591.41 928.01 591.50
00013529 00000091 730.39 196.72 367.78 514.10 789.39 406.72 939.41 406.75 829.91 495.79 800.55 590.11 925.45 591.75
00013530 00000092 727.30 195.50 371.54 517.70 778.62 408.03 942.10 400.82 825.37 502.86 795.43 596.49 926.35 590.81
00013531 00000093 724.77 200.60 370.97 519.51 777.60 410.76 940.58 404.54 825.34 507.22 796.33 600.22 926.85 595.21
00013532 00000094 723.70 200.99 374.33 521.61 776.09 412.05 938.86 404.06 823.49 506.50 796.89 601.41 924.73 595.10
00013533 00000095 722.34 195.87 376.35 520.58 773.36 409.97 935.35 399.07 820.68 503.19 794.11 596.37 920.92 587.84
00013534 00000096 723.56 190.84 373.15 519.67 774.42 406.34 934.61 395.32 821.17 498.08 794.36 593.56 917.61 585.09
00013535 00000097 723.54 191.20 368.67 521.80 781.59 399.68 927.92 397.48 823.32 493.37 800.36 589.07 915.14 589.26
00013536 00000098 723.90 190.85 366.91 521.81 780.78 399.29 927.04 396.10 822.62 493.35 800.64 589.87 915.42 589.23
00013537 00000099 721.30 187.69 376.02 527.97 774.12 402.39 933.52 390.49 819.09 497.02 797.76 595.93 918.52 586.63
00013538 00000100 718.00 188.06 376.25 535.19 770.93 404.15 929.73 392.94 814.54 498.39 794.72 597.42 917.53 588.59
00013539 00000101 715.25 185.81 377.38 535.84 766.77 404.77 925.70 393.04 809.14 499.06 788.58 598.46 914.14 589.20
00013540 00000102 714.97 184.68 376.62 526.98 764.65 403.82 922.64 391.99 805.16 496.68 783.42 594.71 906.86 585.65
00013541 00000103 714.90 181.54 375.21 526.41 764.85 402.49 920.51 391.98 803.55 492.68 779.73 588.93 902.20 581.12
00013542 00000104 715.97 177.52 371.94 524.20 764.00 401.95 917.88 389.78 800.78 490.66 777.86 582.70 906.50 573.36
00013543 00000105 714.06 172.20 373.21 532.77 763.54 401.10 916.55 387.28 799.61 487.60 778.20 581.87 908.66 571.00
00013544 00000106 712.82 172.85 373.21 535.58 763.13 400.70 915.63 387.56 798.72 487.37 779.48 583.49 904.04 573.26
00013545 00000107 712.70 173.58 371.88 539.40 762.42 401.23 913.95 389.73 796.84 488.78 780.48 588.74 893.25 579.96
00013546 00000108 712.61 176.37 367.77 539.57 761.06 402.80 911.72 392.74 793.36 492.49 779.68 591.91 891.59 584.18
00013547 00000109 711.75 181.69 369.86 534.65 760.21 405.84 909.06 394.36 790.99 494.67 779.44 595.37 890.03 586.47
00013548 00000110 711.47 183.98 370.36 530.82 758.96 406.41 908.30 395.62 790.84 496.78 775.32 594.10 890.07 585.85
00013549 00000111 711.04 184.68 370.78 528.61 759.10 406.47 909.06 396.44 791.83 496.99 773.64 592.57 890.85 584.96
00013550 00000112 711.05 182.88 370.45 530.49 759.82 405.49 909.32 395.85 792.06 495.67 773.69 591.47 891.55 584.15
00013551 00000113 710.80 179.64 370.39 535.02 759.40 404.53 909.21 394.95 791.95 494.93 774.17 591.23 890.63 583.95
00013552 00000114 711.01 179.08 370.17 534.36 759.25 404.19 910.60 394.73 792.51 495.34 773.29 589.94 893.88 582.75
00013553 00000115 710.52 179.35 370.45 537.64 760.53 404.43 911.11 394.35 793.87 494.02 775.51 589.88 898.05 582.02
00013554 00000116 709.95 180.28 371.34 539.74 759.58 405.04 911.48 393.60 793.54 494.77 778.14 592.69 900.99 583.54
00013555 00000117 709.41 180.60 371.94 540.28 759.18 405.15 910.69 394.15 792.19 494.77 778.22 594.54 895.65 585.79
00013556 00000118 709.05 180.89 370.46 540.14 758.92 404.76 909.53 394.64 791.11 493.90 777.59 594.88 891.66 586.85
00013557 00000119 712.61 183.82 370.74 537.48 766.27 402.53 916.13 398.88 787.59 493.15 785.34 599.05 892.84 596.34
00013558 00000120 712.91 183.06 370.76 539.03 767.00 402.12 917.40 397.97 788.35 492.14 785.82 598.94 893.63 595.84
00013559 00000121 713.68 183.05 371.35 539.75 769.01 403.43 918.65 398.90 790.30 491.18 786.67 598.95 894.15 595.59
00013560 00000122 715.86 185.46 370.74 537.20 771.47 405.53 919.41 398.97 792.41 490.65 789.52 599.49 896.08 594.40
00013561 00000123 718.45 187.79 368.32 536.27 774.21 406.27 920.72 400.51 794.32 492.23 791.50 599.35 898.97 594.73
00013562 00000124 718.09 188.80 370.90 535.97 775.42 407.64 923.78 400.99 797.15 493.01 793.03 599.63 903.07 594.27
00013563 00000125 719.31 188.32 371.39 535.22 775.81 407.41 925.00 400.53 798.42 493.71 794.59 599.85 904.97 594.30
00013564 00000126 714.99 186.85 372.45 535.75 765.37 407.14 921.46 396.71 803.85 497.94 785.72 597.66 906.81 589.35
00013565 00000127 715.19 187.77 371.41 534.59 765.43 407.28 920.73 397.00 802.99 498.33 785.25 597.48 906.18 589.31
00013566 00000128 715.12 185.65 372.34 536.43 764.87 406.40 919.79 396.11 801.98 498.44 784.65 597.30 905.37 589.15
00013567 00000129 714.61 184.42 371.24 537.81 764.16 406.22 917.04 396.21 798.01 497.74 781.71 597.67 900.61 589.95
00013568 00000130 714.79 179.30 369.85 541.04 759.75 404.43 911.25 396.76 789.61 497.51 775.97 597.29 891.23 591.61
00013569 00000131 713.39 178.20 367.61 539.57 755.79 406.26 902.70 396.60 781.58 496.28 768.03 595.58 883.37 588.38
00013570 00000132 710.79 174.98 364.26 538.76 752.38 405.36 895.37 396.53 771.96 490.28 762.32 589.98 875.50 583.32
00013571 00000133 706.77 170.34 363.31 544.42 747.80 402.16 887.46 396.25 758.01 487.95 754.37 584.60 870.86 580.22
CROP_BBOX: 361 0 1395 963
