Video ID: 	7JI2BAVrw7w
H: 	1080
W: 	1920
FPS: 	25.0

FRAME INDEX X0 Y0 W H [Landmarks (5 Points)]

00036695 00000000 651.67 263.63 403.94 505.15 745.11 441.19 923.14 420.47 833.80 514.93 780.77 630.78 933.66 613.16
00036696 00000001 648.09 269.91 404.54 488.91 737.66 428.93 914.35 410.80 822.88 509.26 775.54 621.11 921.50 605.47
00036697 00000002 650.25 263.10 401.49 490.03 736.64 422.46 914.97 403.91 821.23 501.08 774.10 616.46 921.10 600.39
00036698 00000003 655.24 264.49 400.40 493.07 741.61 421.91 918.50 403.02 824.37 499.52 778.47 617.06 925.04 600.96
00036699 00000004 660.41 258.94 401.83 499.65 749.77 426.68 928.16 405.29 834.86 501.54 786.31 621.89 935.81 603.21
00036700 00000005 662.26 252.86 402.71 498.32 754.77 429.01 935.96 406.02 845.57 502.85 793.05 620.76 947.51 600.27
00036701 00000006 663.60 255.04 410.03 493.48 759.08 428.99 941.55 407.37 852.45 507.33 798.51 620.31 949.53 600.27
00036702 00000007 669.71 251.71 406.16 496.33 763.37 436.10 949.30 415.25 861.29 521.08 804.76 632.51 951.01 613.65
00036703 00000008 682.93 264.44 402.14 506.66 775.75 448.93 962.96 430.73 873.15 535.11 818.22 643.07 961.69 628.21
00036704 DELETE   684.22 274.61 412.89 507.69 790.17 451.90 983.87 438.92 892.07 546.83 836.00 653.78 974.92 643.16
00036705 00000010 689.85 282.44 411.79 504.51 808.90 454.49 996.01 437.44 920.27 551.18 861.24 659.11 997.37 644.63
00036706 00000011 702.96 275.57 409.01 507.41 824.69 459.62 1011.77 435.14 944.22 557.87 882.89 664.12 1023.15 642.59
00036707 00000012 712.20 270.26 404.42 509.42 837.05 467.14 1023.70 433.33 964.42 561.91 901.43 667.57 1040.43 637.75
00036708 00000013 719.43 268.72 401.55 515.70 844.63 473.03 1030.33 436.30 974.53 563.70 906.66 672.27 1048.04 639.95
00036709 00000014 715.15 267.84 399.64 531.53 845.69 476.02 1029.84 441.84 977.98 566.66 904.43 678.09 1044.36 648.22
00036710 00000015 709.43 268.31 397.24 532.19 842.32 478.08 1022.61 445.82 973.70 570.88 900.35 677.88 1037.92 649.64
00036711 00000016 700.92 266.90 400.81 534.40 838.10 479.53 1016.32 446.27 969.31 576.59 896.81 677.29 1032.69 648.54
00036712 00000017 695.67 268.56 402.23 534.87 834.31 481.80 1011.97 448.15 966.23 581.38 894.28 680.17 1029.42 651.07
00036713 00000018 691.68 268.62 401.92 536.03 830.89 484.57 1008.02 450.36 963.48 583.20 890.53 681.21 1026.12 652.11
00036714 00000019 688.76 275.42 402.67 526.49 828.19 487.09 1005.16 454.05 961.19 584.27 886.51 679.69 1023.59 652.07
00036715 00000020 687.35 277.78 401.42 520.98 827.32 487.51 1004.69 453.74 961.60 586.35 884.21 678.68 1022.47 650.66
00036716 00000021 685.01 280.03 402.58 516.80 825.58 487.51 1005.59 452.78 961.75 585.46 881.66 679.00 1021.99 650.46
00036717 00000022 684.49 279.67 402.89 516.40 823.91 486.36 1004.66 452.63 959.27 584.48 879.20 677.82 1020.76 650.21
00036718 00000023 684.49 274.02 403.73 523.06 824.56 484.17 1005.33 450.33 959.92 581.42 878.08 676.07 1021.73 648.52
00036719 00000024 685.30 271.48 404.64 525.30 825.01 477.79 1006.40 445.75 959.37 576.43 877.93 672.19 1022.31 646.03
00036720 00000025 687.07 264.68 406.39 525.64 823.58 463.71 1007.55 433.18 957.24 557.19 875.33 659.43 1024.25 634.27
00036721 00000026 686.79 254.65 408.23 527.36 826.44 450.87 1007.20 424.91 956.93 542.00 871.07 645.54 1021.46 624.11
00036722 00000027 687.90 261.81 406.76 524.94 824.27 442.63 1005.92 423.34 951.81 536.20 867.50 640.89 1017.45 624.57
00036723 00000028 688.14 270.60 408.83 510.47 823.38 444.24 1004.83 422.69 950.80 540.30 864.25 636.77 1020.18 619.24
00036724 00000029 689.09 273.71 408.51 489.37 822.38 446.48 1007.38 421.33 951.65 539.17 864.29 634.09 1022.97 613.85
00036725 00000030 690.18 265.82 406.57 502.33 820.74 457.54 1002.66 431.19 945.38 538.35 861.77 637.71 1018.59 617.02
00036726 00000031 690.76 272.43 405.53 499.59 811.22 458.61 996.00 434.19 926.52 538.25 861.94 648.62 1007.77 628.47
00036727 00000032 686.84 276.54 409.43 497.29 801.73 457.04 988.15 433.75 911.81 542.75 851.49 649.98 995.86 631.00
00036728 00000033 687.52 265.09 408.44 511.76 794.96 451.47 982.33 435.51 898.72 540.32 843.56 648.51 980.84 635.45
00036729 00000034 687.60 251.46 405.13 512.57 790.71 442.19 979.37 428.34 893.02 534.19 829.54 641.06 973.96 628.83
00036730 00000035 690.46 257.14 404.59 494.51 789.66 429.45 979.95 416.20 890.91 522.87 827.60 627.96 975.60 615.36
00036731 00000036 691.96 250.07 409.31 502.01 793.12 422.49 982.11 407.97 892.66 511.77 831.81 623.99 974.52 610.28
00036732 00000037 693.32 253.16 410.67 494.43 795.00 419.94 982.58 403.72 895.10 507.80 837.17 620.61 977.68 605.47
00036733 00000038 691.40 251.01 412.75 494.25 794.02 419.45 982.30 404.27 894.68 508.16 835.10 619.62 977.31 605.20
00036734 00000039 689.25 253.75 410.44 491.99 791.89 427.48 980.26 413.31 891.71 513.06 827.70 619.68 974.98 606.23
00036735 00000040 687.89 256.78 404.58 489.19 790.02 433.54 976.41 419.58 888.23 517.53 824.11 618.64 969.16 605.80
00036736 00000041 686.55 253.50 404.10 492.83 788.08 433.54 976.09 422.09 883.87 516.14 817.08 619.27 966.77 608.60
00036737 00000042 690.45 251.68 399.74 498.39 789.32 431.00 975.14 421.04 882.41 513.14 818.18 617.39 965.49 608.19
00036738 00000043 688.40 248.34 402.32 499.89 788.16 428.35 972.15 419.19 878.76 512.95 816.67 614.82 962.62 606.37
00036739 00000044 688.60 249.92 399.35 501.97 783.69 428.12 967.41 419.82 871.63 512.73 811.60 616.46 958.31 608.86
00036740 00000045 685.48 249.94 395.17 504.13 775.50 434.95 960.07 424.32 863.70 519.31 802.09 621.63 955.47 611.95
00036741 00000046 685.45 254.93 395.06 498.62 771.76 436.47 956.40 426.78 858.28 521.38 798.32 623.02 953.52 614.06
00036742 00000047 686.90 254.64 397.17 496.83 775.19 435.05 959.80 422.58 861.99 516.40 803.52 619.49 957.57 608.23
00036743 DELETE   688.30 232.07 405.73 509.56 787.72 428.09 979.39 415.16 880.24 511.27 818.59 611.33 977.60 600.36
00036744 DELETE   698.70 228.04 406.06 507.01 800.96 413.49 995.44 399.82 905.19 496.13 837.76 600.60 1002.02 588.63
00036745 DELETE   714.29 219.59 401.00 511.89 826.24 401.34 1011.48 379.74 933.84 488.22 858.52 598.98 1014.81 579.24
00036746 00000051 719.91 201.62 412.20 527.05 835.92 396.55 1023.20 372.89 953.34 473.27 876.44 587.84 1037.37 567.25
00036747 00000052 728.09 203.18 408.34 524.11 847.85 393.99 1033.57 367.01 975.54 466.74 891.26 585.07 1052.93 561.98
00036748 00000053 736.96 199.16 403.48 527.13 861.12 396.07 1045.37 368.07 992.22 471.26 905.40 584.10 1065.71 559.69
00036749 00000054 748.39 204.07 394.20 513.04 876.59 398.19 1061.71 374.57 1001.30 478.22 925.32 587.17 1075.05 568.96
00036750 DELETE   757.80 196.32 394.38 524.48 889.73 408.42 1071.17 380.99 1019.13 487.72 939.49 595.89 1086.37 574.61
00036751 00000056 760.52 216.63 395.82 517.18 899.56 418.93 1078.28 397.02 1027.63 508.33 947.96 610.95 1084.45 593.22
00036752 00000057 760.62 228.94 400.69 519.67 900.67 416.64 1080.09 394.43 1031.15 509.94 944.62 620.70 1087.67 600.87
00036753 00000058 758.49 234.95 396.34 523.85 897.21 423.11 1080.36 400.16 1029.59 517.01 941.91 629.39 1088.07 608.97
00036754 00000059 753.73 237.82 394.20 518.69 891.75 425.67 1075.65 402.65 1024.19 521.62 933.20 630.22 1082.05 610.46
00036755 00000060 745.75 234.37 393.78 517.45 886.71 434.54 1073.59 410.44 1020.29 530.93 930.56 628.94 1080.85 609.37
00036756 00000061 745.48 230.27 393.78 519.76 886.57 432.93 1071.12 406.68 1020.19 529.35 931.55 626.79 1080.60 605.62
00036757 00000062 744.72 228.45 394.27 527.95 880.04 434.01 1065.49 404.42 1022.34 516.72 922.40 631.35 1074.08 605.29
00036758 00000063 745.80 233.09 392.44 538.02 883.48 429.92 1062.07 406.25 1023.50 513.09 924.16 635.51 1068.25 614.23
00036759 00000064 744.65 231.97 393.08 542.48 885.64 430.72 1061.52 407.47 1023.98 511.66 925.45 635.86 1067.66 614.79
00036760 00000065 743.36 229.71 391.22 549.53 884.61 434.05 1060.32 409.58 1024.20 513.10 925.33 639.63 1068.67 617.68
00036761 00000066 741.50 235.95 389.31 542.25 882.01 444.52 1057.71 413.24 1024.03 521.45 925.19 644.13 1071.38 616.93
00036762 00000067 739.57 241.50 387.00 535.06 879.51 461.77 1055.25 420.47 1025.18 537.46 922.26 650.29 1072.16 615.23
00036763 00000068 741.17 246.22 381.07 529.57 882.20 466.10 1056.02 421.22 1028.77 542.42 927.99 655.79 1073.24 617.91
00036764 00000069 744.61 229.13 379.63 530.09 885.47 457.18 1062.18 418.37 1026.64 538.27 930.16 649.64 1072.15 616.47
00036765 00000070 742.99 228.87 381.33 518.73 882.13 440.76 1065.15 411.62 1022.60 530.58 923.54 637.60 1066.47 612.46
00036766 00000071 742.31 237.97 381.96 508.03 879.90 430.58 1063.42 408.56 1015.94 519.98 919.40 631.43 1061.65 611.74
00036767 00000072 738.49 237.23 387.97 519.11 876.78 426.20 1061.56 408.45 1012.51 518.93 911.54 631.47 1057.02 615.29
00036768 00000073 737.83 232.00 389.05 529.51 878.00 424.01 1060.85 408.76 1012.13 521.03 910.40 632.68 1053.93 618.52
00036769 00000074 738.74 234.79 388.17 524.99 877.55 424.31 1060.12 407.96 1010.02 521.24 910.26 632.32 1053.05 617.45
00036770 00000075 737.25 240.21 387.76 512.65 876.41 427.35 1058.57 408.75 1008.13 523.89 911.53 631.99 1052.27 615.49
00036771 00000076 736.12 238.38 386.73 513.06 874.13 429.53 1055.91 407.67 1006.43 522.27 915.09 634.12 1052.76 614.45
00036772 00000077 733.49 237.24 388.15 513.04 871.57 431.65 1054.14 408.94 1004.27 522.75 912.07 633.06 1052.19 612.47
00036773 00000078 730.90 240.47 391.67 505.88 868.09 430.56 1051.21 406.38 1001.85 522.50 909.02 629.18 1051.98 607.45
00036774 00000079 734.05 238.05 390.41 500.74 866.84 429.20 1049.32 403.43 999.05 517.87 909.56 625.17 1052.35 602.25
00036775 00000080 733.35 234.38 390.53 502.92 865.73 428.06 1046.95 406.63 994.23 510.89 908.40 622.36 1049.38 602.23
00036776 DELETE   731.25 232.88 392.78 504.90 861.17 423.53 1040.19 405.86 983.50 503.03 898.68 617.82 1038.00 600.98
00036777 00000082 727.23 215.11 397.33 525.68 854.16 418.50 1034.52 400.59 975.97 497.62 889.97 611.74 1035.85 595.03
00036778 00000083 726.86 215.60 398.84 521.15 852.02 409.43 1034.43 393.66 972.15 494.16 886.74 606.57 1032.22 591.69
00036779 00000084 728.62 223.81 398.60 505.98 852.22 403.03 1034.33 390.27 968.07 491.54 884.02 600.97 1029.90 588.53
00036780 00000085 732.54 225.16 397.61 500.09 852.14 395.19 1034.77 383.74 964.10 484.65 879.44 591.91 1028.25 580.62
00036781 00000086 733.17 216.57 399.88 509.62 852.01 390.97 1033.66 379.09 963.06 481.56 877.82 587.36 1028.40 575.55
00036782 00000087 733.98 211.89 400.76 515.39 851.37 387.80 1033.90 376.98 959.66 477.39 873.99 584.47 1027.35 573.72
00036783 00000088 732.22 209.67 403.27 521.17 850.80 386.18 1033.63 377.35 958.29 477.76 871.66 583.53 1026.70 574.58
00036784 00000089 732.92 212.64 403.63 526.40 848.85 387.72 1033.79 378.97 955.64 482.44 870.41 589.19 1025.26 580.49
00036785 00000090 734.20 218.14 401.18 525.33 847.39 390.75 1032.62 383.31 951.43 485.90 868.19 594.54 1021.81 587.06
00036786 00000091 733.16 222.58 404.09 515.58 845.76 391.32 1030.99 384.47 947.92 488.16 868.34 593.37 1020.57 586.13
00036787 00000092 731.77 219.80 406.06 511.20 846.75 393.04 1032.28 383.13 953.18 487.83 871.72 590.99 1026.70 581.14
00036788 00000093 737.78 224.76 400.98 503.13 853.60 396.61 1037.20 381.66 965.92 486.91 885.93 596.26 1031.58 581.78
00036789 00000094 742.12 240.17 404.67 486.63 861.49 391.75 1050.51 378.97 972.65 490.92 896.95 595.73 1038.90 582.81
00036790 00000095 749.98 207.79 405.15 515.13 877.72 386.81 1063.38 379.71 990.09 479.31 918.26 586.45 1060.55 580.65
00036791 00000096 758.52 203.27 404.38 507.90 892.49 383.92 1079.06 373.89 1011.58 478.77 937.07 581.84 1078.31 573.68
00036792 00000097 766.35 196.43 403.69 513.74 903.38 382.13 1090.06 371.48 1025.19 477.83 951.83 585.01 1087.12 575.14
00036793 00000098 773.34 177.92 397.91 538.77 909.79 387.64 1092.75 376.08 1033.13 475.15 960.41 590.77 1093.46 579.90
00036794 00000099 775.74 186.72 392.91 536.72 913.29 397.88 1094.43 382.41 1039.59 482.85 966.65 600.73 1098.86 586.99
00036795 00000100 771.68 193.63 392.40 537.02 912.78 405.78 1093.51 388.98 1042.03 492.20 965.03 606.20 1100.05 591.38
00036796 00000101 768.39 193.81 392.27 540.21 908.26 412.99 1087.33 392.70 1038.89 498.23 960.25 610.43 1098.19 592.74
00036797 00000102 763.63 207.60 393.03 530.64 905.79 416.50 1083.11 396.17 1037.11 506.61 958.33 614.20 1093.89 596.82
00036798 00000103 762.45 212.78 390.12 526.53 905.11 419.70 1082.30 399.28 1035.14 516.16 957.64 617.58 1091.13 600.09
00036799 00000104 765.22 224.52 393.61 521.75 908.90 417.03 1081.16 393.99 1038.26 511.43 957.87 622.75 1088.18 602.20
00036800 00000105 765.96 224.79 391.98 523.25 908.77 417.33 1081.61 395.05 1037.75 511.82 958.63 625.05 1086.24 604.99
00036801 00000106 765.49 228.71 391.54 522.10 907.54 415.96 1081.86 395.83 1035.51 511.74 954.98 624.15 1082.55 605.70
00036802 00000107 761.07 225.77 392.14 525.28 904.40 415.12 1079.53 396.70 1032.62 513.06 949.28 624.31 1078.44 607.17
00036803 00000108 753.36 231.00 392.56 517.89 897.77 415.98 1075.63 396.24 1029.77 514.00 941.18 623.91 1077.97 605.73
00036804 00000109 746.59 237.78 387.95 506.35 884.43 427.54 1065.23 400.54 1021.65 515.96 929.04 629.11 1069.93 604.62
00036805 00000110 741.49 230.08 388.36 517.09 876.43 430.43 1060.36 403.91 1014.92 514.04 920.15 629.46 1066.49 605.74
00036806 00000111 735.87 231.33 391.41 515.53 871.10 430.78 1056.75 403.89 1010.40 512.81 913.47 627.39 1064.07 603.35
00036807 00000112 733.73 231.86 392.18 515.21 869.06 428.56 1055.26 404.29 1007.04 512.83 906.94 624.18 1061.19 602.55
00036808 00000113 730.84 231.33 393.98 515.77 867.13 426.90 1051.57 402.82 1003.35 509.99 903.59 620.83 1057.34 599.58
00036809 00000114 727.89 228.77 394.23 518.21 863.40 425.77 1048.08 403.28 998.74 510.35 896.90 618.61 1053.09 598.89
00036810 00000115 721.65 227.57 394.52 523.11 859.27 425.36 1042.76 406.36 993.41 515.07 888.77 616.63 1047.20 600.10
00036811 00000116 712.31 230.61 395.57 526.66 855.66 424.38 1037.05 409.02 989.36 518.97 881.67 616.94 1039.61 603.96
00036812 00000117 703.74 230.31 398.96 542.38 849.11 424.85 1025.78 412.06 980.24 520.18 877.87 622.95 1029.68 611.68
00036813 00000118 693.07 236.51 404.38 540.47 840.93 426.71 1015.46 413.72 970.63 523.99 872.80 625.18 1022.51 613.75
00036814 00000119 689.03 237.63 401.38 532.46 832.65 429.91 1010.44 414.11 965.02 524.98 864.87 622.90 1021.10 610.25
00036815 00000120 688.02 234.71 398.26 526.48 828.73 427.34 1008.73 409.20 960.88 521.95 861.55 619.73 1019.15 605.05
00036816 00000121 687.41 235.40 397.64 522.53 827.12 425.88 1008.22 406.39 959.62 521.21 861.09 617.69 1020.08 601.66
00036817 00000122 687.91 236.27 396.24 523.86 828.52 425.52 1007.72 405.94 961.64 521.74 862.73 618.51 1019.21 602.55
00036818 00000123 689.01 237.95 398.50 524.93 830.56 428.14 1008.51 408.05 964.45 524.30 864.03 618.80 1022.20 602.48
00036819 00000124 687.99 235.01 406.36 535.86 838.38 432.09 1012.47 411.16 970.67 527.57 874.87 624.98 1025.77 607.28
00036820 00000125 696.08 236.88 404.42 542.04 847.51 448.40 1016.87 417.83 983.19 534.79 884.74 635.18 1031.13 609.53
00036821 00000126 706.79 238.83 396.84 543.83 851.01 465.34 1017.73 420.94 991.28 542.70 892.89 646.29 1038.76 609.64
00036822 00000127 710.14 235.94 396.62 548.60 851.99 472.04 1021.06 421.91 995.60 549.31 897.65 652.58 1044.87 611.10
00036823 00000128 710.44 241.32 393.74 550.08 855.93 483.75 1020.07 433.47 996.44 557.64 901.72 660.15 1045.54 618.62
00036824 00000129 708.36 249.15 393.09 545.11 858.55 490.88 1020.27 439.35 999.22 566.10 903.39 666.21 1043.07 624.20
00036825 00000130 705.39 252.31 393.56 550.75 856.84 495.70 1019.26 448.86 994.66 577.67 898.67 673.16 1038.59 634.74
00036826 00000131 706.05 264.46 391.81 536.26 853.98 498.93 1021.33 456.19 990.08 587.85 897.49 676.37 1037.60 641.39
00036827 00000132 706.06 269.67 392.86 529.07 854.66 497.61 1024.04 457.64 990.73 594.11 900.53 678.58 1035.78 645.53
00036828 00000133 710.15 261.18 391.65 530.76 857.42 495.14 1028.77 453.69 993.23 588.48 904.19 674.69 1040.61 640.36
00036829 00000134 713.61 259.26 388.60 529.15 858.73 496.67 1030.98 449.66 998.95 585.36 908.80 675.14 1046.45 636.26
CROP_BBOX: 470 0 1348 929
