Video ID: 	hetDJe7w3Ok
H: 	1080
W: 	1920
FPS: 	29.97002997002997

FRAME INDEX X0 Y0 W H [Landmarks (5 Points)]

00018080 00000000 756.31 332.59 417.74 534.49 918.40 498.79 1120.76 535.70 1034.29 635.59 896.21 691.34 1083.58 724.18
00018081 00000001 769.29 319.70 406.72 548.03 934.66 491.01 1130.57 534.83 1048.09 634.77 902.99 686.69 1086.72 725.53
00018082 DELETE   772.93 324.86 409.89 541.52 945.86 490.54 1141.87 545.30 1053.52 640.15 907.22 684.82 1088.50 732.34
00018083 00000003 779.77 308.58 414.82 559.94 953.34 489.79 1149.41 548.52 1063.69 638.33 915.69 686.04 1091.70 736.82
00018084 DELETE   791.77 323.03 406.92 544.95 963.45 491.20 1153.54 552.68 1068.22 638.46 920.89 685.83 1096.89 739.54
00018085 00000005 801.34 323.27 401.62 545.84 968.75 492.70 1153.90 554.98 1067.35 639.69 924.00 684.23 1100.98 738.64
00018086 00000006 801.62 310.42 415.51 555.56 973.89 492.99 1163.62 558.04 1072.01 645.68 925.63 681.32 1107.37 737.90
00018087 00000007 808.23 315.02 412.46 549.71 980.99 495.13 1168.48 560.35 1077.76 652.21 932.28 683.50 1111.37 740.63
00018088 00000008 808.73 319.95 413.72 549.15 981.24 496.01 1170.16 558.82 1078.19 653.45 933.26 686.45 1114.79 741.34
00018089 00000009 809.18 315.23 414.12 556.84 981.38 499.37 1170.18 560.93 1079.82 660.88 934.25 691.35 1117.46 745.28
00018090 00000010 809.24 328.76 410.56 548.22 979.88 501.83 1170.88 564.78 1079.61 664.51 934.74 693.95 1118.43 749.18
00018091 00000011 808.92 312.65 413.32 563.34 980.11 505.48 1171.49 566.47 1078.89 666.65 935.76 696.04 1118.90 749.43
00018092 00000012 807.56 302.51 409.65 572.20 980.61 511.09 1170.72 569.66 1080.79 671.40 935.76 697.76 1118.88 749.41
00018093 00000013 805.13 314.20 407.40 557.81 980.89 517.69 1171.27 575.22 1083.12 676.95 937.25 698.66 1120.31 749.16
00018094 00000014 803.55 310.54 407.69 553.56 974.91 518.10 1170.96 568.82 1081.35 674.29 932.97 698.58 1120.44 743.83
00018095 00000015 799.97 320.66 409.80 544.97 970.88 514.94 1170.84 558.59 1084.83 666.28 934.79 703.69 1122.11 742.69
00018096 00000016 794.09 318.66 410.31 550.30 969.90 511.23 1167.43 552.08 1088.78 661.58 941.07 707.78 1121.04 743.89
00018097 00000017 794.48 321.39 403.91 544.12 967.20 505.03 1167.68 543.55 1089.85 654.02 943.97 705.63 1122.60 739.59
00018098 00000018 795.22 320.92 404.90 543.12 968.98 504.72 1168.07 535.02 1096.36 651.79 952.42 707.55 1128.88 734.43
00018099 00000019 792.41 327.53 409.25 536.08 969.17 501.84 1169.29 531.00 1100.68 646.66 952.47 703.81 1132.04 729.94
00018100 00000020 793.51 323.01 407.24 538.19 969.37 503.63 1168.63 533.04 1101.76 643.90 951.95 700.45 1133.41 727.02
00018101 00000021 792.21 321.05 406.19 540.96 967.76 503.64 1165.63 533.61 1098.99 644.57 947.16 694.66 1131.06 722.15
00018102 00000022 794.35 324.19 402.32 528.76 972.80 503.44 1166.00 539.57 1096.16 644.64 950.27 694.06 1123.16 726.39
00018103 00000023 794.01 325.73 399.77 530.30 971.45 506.65 1163.59 539.59 1095.52 643.49 948.42 696.38 1121.69 726.40
00018104 00000024 788.48 325.31 410.19 543.72 963.63 503.82 1158.74 531.73 1093.30 637.63 947.40 700.93 1126.71 725.78
00018105 00000025 786.86 343.54 411.33 536.08 956.74 502.07 1152.82 524.81 1091.51 637.59 945.67 707.03 1128.72 727.60
00018106 00000026 786.01 335.18 412.17 533.42 955.66 500.52 1156.09 521.14 1090.62 636.59 947.20 705.84 1129.31 724.48
00018107 00000027 786.78 333.44 408.87 534.74 957.04 500.65 1155.98 520.02 1093.46 638.58 950.23 705.60 1130.53 723.11
00018108 00000028 787.81 322.52 409.95 552.14 966.68 507.17 1162.96 529.40 1100.52 646.16 955.19 710.64 1133.99 729.73
00018109 00000029 788.93 327.84 410.28 551.18 968.88 515.38 1164.59 542.25 1100.32 654.29 954.35 716.54 1130.90 739.17
00018110 DELETE   784.22 331.44 415.74 545.81 961.82 522.21 1160.87 538.94 1098.78 660.55 953.87 725.84 1130.73 739.66
00018111 DELETE   778.38 329.55 415.48 552.53 954.03 532.19 1152.73 546.57 1087.57 667.37 944.08 727.70 1125.14 740.05
00018112 DELETE   773.80 329.69 414.59 560.54 944.59 532.34 1146.88 542.03 1078.73 670.87 933.65 730.19 1119.66 739.37
00018113 00000033 767.45 348.34 423.03 545.29 930.09 534.02 1133.30 540.05 1063.65 669.91 925.17 730.40 1114.87 736.50
00018114 00000034 759.14 350.28 427.45 544.82 923.36 533.39 1126.17 538.99 1058.40 667.71 921.80 731.45 1110.28 736.83
00018115 00000035 755.08 342.48 424.93 546.44 916.64 531.63 1120.70 535.63 1051.93 664.48 919.07 730.93 1102.72 735.62
00018116 00000036 751.59 343.41 420.59 541.73 912.41 535.02 1115.64 534.09 1051.31 661.83 920.56 732.02 1101.10 732.94
00018117 00000037 749.93 340.99 425.73 543.66 910.60 535.67 1115.94 532.80 1052.43 661.35 918.96 731.36 1102.94 730.76
00018118 00000038 749.51 332.45 424.94 547.72 912.47 531.84 1116.81 529.90 1051.62 659.40 920.95 728.37 1101.96 728.36
00018119 00000039 747.05 330.34 427.32 554.55 911.52 527.13 1115.71 526.65 1051.62 655.93 919.63 726.65 1102.60 727.61
00018120 00000040 747.18 342.55 425.58 537.84 906.68 528.91 1112.77 524.31 1050.77 653.62 921.06 725.12 1107.69 722.91
00018121 00000041 745.11 345.91 427.00 532.56 905.53 526.50 1111.24 523.23 1049.79 650.87 920.70 722.37 1105.86 721.66
00018122 00000042 744.95 351.44 426.51 524.72 905.05 524.32 1111.47 521.25 1049.87 650.58 919.29 720.79 1105.29 720.45
00018123 00000043 745.08 337.65 430.21 541.38 909.46 526.23 1115.01 524.27 1052.00 649.17 922.28 721.57 1106.84 721.38
00018124 00000044 747.61 341.89 430.35 535.76 911.31 525.81 1116.42 522.03 1057.33 648.40 927.19 722.85 1109.11 720.95
00018125 00000045 749.12 344.36 429.62 531.08 913.95 524.60 1119.55 521.17 1062.30 647.90 932.86 724.28 1112.56 722.46
00018126 00000046 750.55 346.04 431.11 530.38 916.68 524.56 1120.46 517.38 1066.61 648.35 933.97 722.78 1115.37 717.87
00018127 00000047 749.19 340.56 434.74 534.78 914.13 523.97 1118.87 512.79 1066.34 647.00 933.92 722.00 1117.66 713.75
00018128 00000048 744.75 339.22 437.57 533.96 909.10 526.84 1116.93 512.65 1066.40 645.10 933.74 723.31 1119.09 712.67
00018129 00000049 742.11 344.34 434.57 524.38 903.46 527.62 1116.24 511.67 1062.55 648.27 930.64 722.57 1120.35 711.32
00018130 DELETE   739.81 329.36 434.90 533.24 901.57 525.44 1116.22 511.29 1057.29 646.39 926.31 716.40 1119.14 706.68
00018131 00000051 740.31 332.68 426.55 533.04 897.86 525.71 1113.89 505.88 1052.28 641.39 929.09 720.94 1121.56 703.45
00018132 DELETE   734.38 321.92 432.96 541.25 891.56 521.47 1110.05 507.34 1048.29 643.57 919.67 714.24 1117.44 704.31
00018133 00000053 734.97 311.66 432.71 554.76 889.71 522.17 1106.22 500.68 1049.71 644.07 918.64 716.19 1117.50 700.07
00018134 DELETE   733.62 312.46 434.68 553.81 886.95 527.21 1104.25 502.25 1046.87 643.26 917.77 719.14 1117.22 699.84
00018135 00000055 734.58 319.63 431.25 543.66 887.97 531.43 1103.49 501.30 1044.61 644.47 923.69 724.77 1115.13 698.56
00018136 00000056 729.93 308.67 435.11 558.16 884.36 529.77 1099.48 499.46 1044.52 643.64 915.97 718.74 1116.13 695.27
00018137 00000057 729.34 316.77 433.89 547.94 885.50 529.67 1098.12 503.04 1043.34 642.55 917.98 718.58 1113.03 698.19
00018138 00000058 731.75 309.40 434.02 560.41 887.95 526.50 1101.84 499.25 1048.07 641.72 919.72 720.48 1114.87 699.21
00018139 DELETE   737.40 324.25 431.41 544.61 892.02 524.66 1105.93 501.63 1052.16 641.59 922.44 719.25 1116.51 701.68
00018140 00000060 738.51 334.99 435.26 530.48 896.58 524.93 1109.34 502.03 1056.73 642.45 925.32 716.77 1116.68 699.82
00018141 00000061 740.65 318.13 437.57 548.58 902.53 520.25 1114.89 495.45 1063.39 640.46 932.58 717.13 1122.46 698.32
00018142 DELETE   742.44 326.53 433.87 532.08 903.51 514.07 1116.54 487.93 1065.95 637.21 934.77 713.24 1124.68 693.39
00018143 00000063 740.36 318.54 436.51 537.30 909.02 513.35 1119.20 486.33 1070.66 632.84 940.96 711.55 1125.63 690.45
00018144 00000064 747.38 323.15 436.44 527.50 915.41 512.80 1122.63 490.46 1072.96 630.26 949.25 709.62 1128.88 692.18
00018145 DELETE   751.02 312.37 432.91 543.34 925.15 510.14 1120.60 480.11 1085.44 619.45 964.19 710.14 1134.70 685.61
00018146 DELETE   760.01 302.21 424.82 549.57 935.27 508.00 1130.01 471.84 1109.47 612.19 972.46 709.05 1144.71 680.17
00018147 DELETE   764.88 306.76 434.16 535.11 944.00 502.39 1137.96 460.05 1120.43 609.26 985.44 704.74 1157.29 670.79
00018148 00000068 768.96 276.18 435.95 553.14 949.22 498.49 1145.34 454.92 1121.90 604.76 991.33 697.47 1166.79 661.73
00018149 00000069 767.34 282.47 435.41 540.32 949.58 505.81 1144.68 464.11 1123.72 602.67 996.06 693.18 1161.62 658.19
00018150 00000070 765.06 302.71 431.37 521.49 949.19 512.99 1140.36 454.90 1129.36 607.55 999.56 708.43 1162.61 661.80
00018151 DELETE   754.90 318.16 432.60 511.38 935.68 512.60 1129.89 463.93 1104.75 611.16 981.72 707.92 1146.58 669.84
00018152 DELETE   741.88 304.62 435.60 535.98 912.15 501.79 1112.56 466.28 1073.18 607.89 958.44 703.64 1128.73 674.52
00018153 00000073 736.82 288.56 433.02 548.11 899.16 502.18 1104.42 469.41 1056.33 610.29 940.19 701.72 1114.26 674.98
00018154 00000074 737.42 266.79 429.20 572.50 889.11 502.44 1102.56 468.23 1047.26 612.54 924.68 703.47 1113.41 675.79
00018155 00000075 741.73 274.79 424.91 562.70 892.75 499.99 1106.15 468.81 1048.95 611.55 928.75 702.85 1115.45 677.48
00018156 DELETE   738.98 294.31 434.33 558.67 909.87 498.94 1117.18 469.87 1073.46 616.35 944.15 706.26 1126.91 682.85
00018157 DELETE   743.42 298.51 431.15 559.62 920.88 505.53 1120.72 480.59 1079.62 619.13 954.77 709.20 1128.02 688.61
00018158 00000078 747.51 306.94 435.07 538.73 931.61 509.49 1131.81 484.43 1095.42 621.63 966.33 709.90 1134.94 689.70
00018159 DELETE   753.33 309.66 430.47 537.27 934.08 508.38 1136.34 478.17 1110.05 621.51 970.23 717.22 1137.40 693.56
00018160 DELETE   749.25 306.48 436.51 549.21 935.88 509.52 1136.15 477.74 1109.04 626.58 972.12 719.23 1140.80 693.60
00018161 00000081 757.18 308.51 430.04 551.27 931.49 508.35 1136.55 480.04 1102.13 629.58 966.79 722.51 1136.63 699.70
00018162 00000082 754.37 315.03 430.20 541.32 930.90 508.01 1132.74 483.24 1094.78 632.81 966.35 721.29 1131.26 701.40
00018163 00000083 757.20 319.54 427.82 534.83 929.71 504.82 1137.40 487.80 1090.45 628.76 962.45 716.83 1135.32 703.16
00018164 00000084 756.71 304.32 427.48 546.49 927.19 505.96 1132.34 481.59 1090.79 623.35 963.57 714.51 1136.23 694.53
00018165 00000085 753.43 309.16 429.32 544.44 927.55 504.90 1129.16 481.98 1087.75 620.78 962.46 713.84 1132.74 695.10
00018166 00000086 755.09 318.08 426.86 533.15 925.57 508.30 1127.97 486.20 1085.55 625.05 960.80 716.07 1130.79 698.45
00018167 00000087 754.95 313.23 426.39 542.07 927.36 507.10 1129.07 484.03 1087.33 626.59 960.39 717.60 1129.27 699.21
00018168 00000088 752.67 305.77 428.25 548.80 925.03 508.72 1126.21 484.54 1086.64 623.95 959.10 714.77 1129.15 695.23
00018169 00000089 752.45 302.68 426.95 551.05 924.63 503.71 1125.09 482.07 1084.02 619.43 959.00 713.68 1127.47 696.06
00018170 00000090 752.30 297.27 424.33 553.63 926.19 502.52 1121.81 476.80 1085.94 614.35 960.72 711.99 1124.58 691.44
00018171 00000091 750.67 288.38 422.49 563.49 926.07 500.64 1122.46 477.94 1086.26 613.92 958.29 710.51 1121.52 692.45
00018172 00000092 749.13 290.30 425.21 560.01 925.88 502.26 1121.45 476.65 1085.43 615.98 957.29 710.88 1120.17 690.59
00018173 00000093 750.78 302.67 426.73 545.79 923.95 504.46 1122.71 481.58 1083.66 621.27 953.98 709.19 1122.51 691.20
00018174 00000094 751.48 307.42 424.87 544.06 924.94 506.56 1123.40 483.66 1087.69 624.79 951.45 711.22 1121.39 693.82
00018175 00000095 749.82 307.88 424.77 548.78 922.81 510.14 1122.45 486.76 1085.74 626.95 949.81 714.99 1120.04 697.17
00018176 00000096 752.23 317.22 428.76 546.92 921.08 510.04 1122.38 485.06 1085.50 632.19 946.44 715.98 1122.87 696.74
00018177 00000097 750.33 322.06 428.29 544.16 919.32 516.77 1121.32 487.20 1089.19 638.60 947.47 718.70 1126.58 695.96
00018178 00000098 749.18 312.91 428.99 557.65 919.21 521.90 1123.39 490.58 1089.18 640.61 947.50 720.32 1129.67 695.73
00018179 00000099 748.49 320.83 426.62 553.54 919.68 526.85 1121.06 499.64 1087.62 641.75 947.59 726.50 1124.25 705.02
00018180 00000100 748.27 322.25 426.89 553.22 917.98 526.58 1123.01 496.81 1088.60 644.41 944.17 726.90 1127.39 703.65
00018181 00000101 743.72 323.26 433.60 549.58 914.62 527.92 1121.75 498.38 1084.30 643.89 942.61 724.93 1129.57 701.91
00018182 00000102 744.39 338.51 427.99 529.82 912.02 524.72 1122.60 497.37 1083.78 645.03 941.29 723.08 1128.10 702.38
00018183 00000103 746.59 325.90 431.26 540.14 912.40 522.56 1122.47 497.54 1077.34 642.07 944.69 718.96 1131.93 699.45
00018184 00000104 745.87 319.42 430.14 543.70 914.99 523.94 1124.05 499.50 1079.51 641.09 945.66 718.99 1130.25 699.80
00018185 00000105 748.13 311.89 432.92 552.89 918.15 522.65 1126.85 495.22 1081.91 642.32 948.65 718.96 1134.44 696.87
00018186 00000106 747.52 308.98 432.88 553.43 921.38 524.81 1127.67 498.34 1084.35 643.39 952.18 719.94 1133.08 698.77
00018187 00000107 752.05 307.95 431.31 554.37 924.62 520.63 1133.37 497.46 1086.50 643.17 956.38 720.17 1135.96 701.12
00018188 00000108 757.15 303.04 430.04 558.96 928.32 514.14 1138.89 493.12 1090.90 639.48 954.38 716.91 1137.21 699.60
00018189 00000109 753.42 297.01 432.08 568.94 932.00 507.77 1138.44 485.43 1096.36 639.42 957.83 719.23 1134.88 700.39
00018190 00000110 753.15 294.71 432.17 575.63 931.71 507.20 1134.74 484.66 1095.17 638.18 955.20 719.14 1130.56 700.36
00018191 00000111 753.66 309.23 427.75 562.48 930.17 512.91 1131.70 491.28 1091.99 637.74 956.99 723.76 1128.39 706.07
00018192 00000112 752.83 313.48 425.26 558.75 932.04 516.33 1130.43 493.55 1094.62 639.61 958.52 725.59 1128.10 707.16
00018193 00000113 754.61 310.25 428.75 566.10 931.11 518.27 1130.72 495.13 1095.92 641.26 957.22 728.40 1129.33 709.65
00018194 00000114 757.24 316.73 427.78 557.25 933.31 516.25 1137.94 500.62 1096.93 643.75 956.52 726.88 1132.18 714.33
00018195 00000115 757.37 306.98 431.11 568.27 934.91 519.50 1142.02 502.51 1099.37 646.72 958.14 728.99 1134.76 715.12
00018196 00000116 756.27 298.25 435.07 578.66 933.88 516.50 1142.74 499.96 1098.20 647.30 956.80 729.14 1135.26 715.27
00018197 00000117 758.48 306.58 434.02 566.91 931.64 518.40 1141.81 501.51 1095.19 647.46 956.56 729.58 1136.21 715.38
00018198 00000118 756.52 299.03 434.86 577.84 930.96 516.15 1140.56 498.11 1094.34 646.15 957.69 730.29 1136.41 714.83
00018199 00000119 756.98 301.54 434.29 578.40 929.95 513.30 1140.50 498.03 1093.41 644.50 955.97 729.98 1135.72 716.69
00018200 00000120 757.21 306.90 432.58 570.35 932.11 514.76 1141.90 496.27 1100.15 644.85 957.08 729.94 1137.38 714.56
00018201 00000121 759.65 311.72 433.05 562.19 933.32 512.59 1143.34 497.93 1097.75 642.07 955.45 726.52 1136.29 714.44
00018202 00000122 759.19 318.84 435.02 558.01 934.07 512.50 1142.68 498.37 1097.49 641.64 953.24 726.69 1134.24 715.34
00018203 00000123 760.11 321.73 435.16 553.29 933.60 513.59 1142.91 501.83 1094.79 643.76 953.10 726.66 1134.24 717.32
00018204 00000124 758.89 314.81 435.01 560.41 932.14 511.41 1142.33 500.08 1092.62 644.36 951.92 725.03 1134.52 715.80
00018205 00000125 755.19 304.59 432.63 569.72 930.50 511.20 1138.08 494.35 1095.26 642.80 951.99 723.69 1132.55 709.97
00018206 00000126 755.80 306.24 431.26 571.50 928.66 514.69 1133.40 491.58 1094.28 643.11 951.90 725.59 1133.12 706.75
00018207 00000127 751.30 319.59 433.04 554.18 925.17 516.35 1131.85 494.65 1092.95 644.23 949.90 726.38 1129.41 709.21
00018208 00000128 748.11 319.26 431.32 553.04 921.65 516.72 1126.45 496.22 1088.42 642.59 946.84 720.55 1127.58 704.56
00018209 00000129 745.79 328.72 431.93 537.12 918.62 513.04 1121.59 497.36 1079.30 638.68 941.98 713.98 1122.22 702.29
00018210 00000130 747.99 322.64 435.92 538.86 918.13 504.79 1128.40 493.94 1075.38 633.13 944.46 714.32 1126.50 705.80
00018211 00000131 744.97 312.72 432.13 539.98 914.63 500.38 1123.98 490.12 1068.68 624.78 942.72 704.59 1125.34 696.00
00018212 00000132 744.07 317.37 430.05 536.44 911.58 499.83 1121.20 487.14 1070.27 625.68 939.98 703.19 1125.14 693.22
00018213 00000133 740.96 314.46 436.38 538.86 906.14 503.08 1118.38 487.93 1065.39 626.00 933.49 700.22 1126.46 688.60
00018214 00000134 740.23 313.11 432.45 542.25 906.13 505.68 1116.49 486.50 1065.84 631.55 932.69 705.48 1122.71 690.96
00018215 00000135 736.18 315.89 435.52 542.82 902.21 511.40 1113.68 485.83 1068.16 637.80 928.32 709.82 1121.81 690.69
00018216 00000136 740.07 334.34 432.91 525.51 903.83 511.93 1113.72 489.42 1067.59 638.42 931.70 713.94 1119.83 697.48
00018217 00000137 739.33 333.94 435.36 532.00 910.89 512.06 1114.20 492.03 1072.53 637.52 937.10 714.68 1118.44 699.83
00018218 00000138 751.80 337.19 424.61 532.81 921.36 510.16 1120.89 499.06 1077.77 637.37 942.10 714.91 1120.01 706.76
00018219 00000139 753.07 330.02 433.74 547.35 924.63 516.36 1126.08 496.41 1085.65 642.27 942.35 717.79 1128.84 702.48
00018220 00000140 756.63 336.74 436.85 538.90 930.08 516.10 1131.81 495.72 1090.11 645.28 948.94 720.76 1131.28 704.99
CROP_BBOX: 499 0 1522 1077
