Video ID: 	dAdUOgX6zXE
H: 	1080
W: 	1920
FPS: 	25.0

FRAME INDEX X0 Y0 W H [Landmarks (5 Points)]

00015068 00000000 576.89 133.67 424.27 612.28 730.57 354.74 924.85 358.44 851.77 467.90 746.11 585.60 905.95 588.55
00015069 DELETE   581.80 132.95 428.02 602.84 734.16 351.60 932.52 359.35 857.37 463.20 746.82 577.19 912.61 583.57
00015070 00000002 586.24 122.01 431.66 609.77 737.20 341.37 942.39 354.55 864.49 455.54 753.90 566.12 923.16 578.27
00015071 00000003 591.88 130.60 430.58 599.01 743.95 334.30 946.91 349.57 867.89 450.01 763.24 563.68 917.44 574.68
00015072 00000004 593.94 127.08 429.13 596.08 747.65 327.18 950.99 344.15 870.83 443.29 764.14 559.32 919.43 571.67
00015073 00000005 594.35 128.31 429.30 590.69 748.46 324.53 951.64 342.36 871.11 439.92 763.20 556.28 917.83 569.28
00015074 00000006 592.15 115.53 429.25 593.65 741.49 328.63 947.30 345.13 867.84 441.33 757.71 553.76 920.78 568.81
00015075 00000007 588.01 119.68 428.59 592.66 738.94 336.74 944.87 351.91 862.62 449.72 752.31 558.18 917.40 572.23
00015076 00000008 585.24 130.11 421.10 581.73 728.57 354.92 933.75 361.26 853.63 463.08 741.40 575.24 910.24 580.80
00015077 00000009 579.99 131.64 417.86 583.15 727.10 357.90 927.69 365.02 850.63 470.00 739.75 578.27 903.99 584.32
00015078 00000010 570.37 132.14 422.99 587.45 722.03 356.12 923.18 361.00 847.85 469.86 738.71 582.10 899.29 586.08
00015079 00000011 560.27 132.16 427.04 590.82 716.42 355.40 921.17 363.45 844.69 473.13 734.91 585.37 895.35 591.75
00015080 00000012 553.22 130.89 428.76 595.04 708.11 356.38 912.64 362.45 837.69 472.63 730.99 585.65 889.50 589.80
00015081 00000013 548.88 133.36 428.84 597.09 702.69 358.91 905.19 364.76 831.52 472.77 728.58 587.74 884.93 591.20
00015082 00000014 544.51 130.67 429.42 607.69 698.35 362.73 899.02 367.24 829.05 474.69 725.38 590.33 881.28 592.75
00015083 00000015 541.88 130.08 429.32 614.32 697.43 369.57 895.69 373.29 828.01 478.76 723.54 590.22 881.32 592.28
00015084 00000016 537.85 130.71 431.18 624.49 695.98 373.33 897.43 379.36 829.86 483.11 719.28 593.51 882.71 597.54
00015085 00000017 535.15 132.39 432.33 623.98 697.25 376.01 893.75 382.08 829.40 485.91 721.70 596.01 878.94 600.03
00015086 00000018 529.37 131.39 434.56 628.03 697.94 378.25 890.06 386.71 829.57 491.83 720.72 601.57 872.91 607.49
00015087 00000019 527.06 131.81 433.82 628.73 697.44 381.12 887.56 388.80 827.95 496.12 722.94 606.58 871.11 611.89
00015088 00000020 526.61 130.96 433.12 627.10 694.17 386.72 888.30 393.16 824.36 504.65 721.23 612.16 869.81 616.36
00015089 00000021 526.33 133.43 431.94 621.81 694.55 389.90 887.31 396.36 821.13 510.76 721.40 614.67 865.75 618.94
00015090 00000022 524.35 136.46 432.53 618.41 695.12 390.96 887.68 395.85 820.86 517.37 723.50 619.09 865.92 621.97
00015091 00000023 523.77 137.26 432.68 619.37 696.25 390.90 887.77 395.90 821.86 518.21 726.29 622.29 864.64 625.37
00015092 00000024 523.52 136.03 433.85 628.06 697.67 390.63 889.02 395.52 824.39 519.02 727.38 624.76 866.30 627.72
00015093 00000025 523.84 134.30 433.89 633.05 697.64 390.44 888.95 395.15 825.85 518.26 727.26 625.34 867.61 628.15
00015094 00000026 523.85 135.10 432.92 630.76 696.37 390.54 889.71 395.32 825.77 517.66 725.85 625.31 868.00 628.23
00015095 00000027 521.65 133.75 433.85 634.76 693.26 389.50 888.96 394.31 824.09 516.29 722.77 624.04 868.78 626.90
00015096 00000028 523.40 133.37 431.82 633.72 690.60 389.94 885.98 394.54 820.72 513.43 720.48 620.52 868.69 623.22
00015097 00000029 523.73 135.78 431.43 627.75 689.65 391.11 883.72 393.84 819.66 513.16 720.71 620.34 867.96 621.66
00015098 00000030 524.00 137.77 430.97 628.98 690.18 394.06 882.73 393.33 821.44 516.37 722.66 624.00 870.43 622.64
00015099 00000031 524.87 141.31 430.29 625.42 692.46 398.55 886.58 395.71 826.06 520.86 724.89 628.53 873.02 625.61
00015100 00000032 524.01 143.78 431.13 621.13 692.46 401.25 887.86 396.62 827.76 523.31 729.19 631.79 875.23 627.27
00015101 00000033 525.37 143.39 429.98 621.79 693.40 401.67 889.56 396.72 829.67 523.65 731.51 634.35 877.63 629.43
00015102 00000034 524.00 141.86 431.82 629.65 695.67 399.97 888.24 395.25 829.94 524.36 733.05 635.69 875.88 630.94
00015103 00000035 525.03 141.05 428.90 634.90 696.08 398.95 887.39 394.49 830.20 524.35 733.22 637.44 874.85 632.90
00015104 00000036 524.30 139.64 430.50 639.26 696.82 398.19 887.96 395.05 830.66 524.02 732.15 636.12 875.57 632.54
00015105 00000037 524.98 139.69 431.35 646.53 696.55 398.31 890.06 395.96 831.42 525.67 730.19 639.18 876.99 636.22
00015106 00000038 524.34 141.82 431.41 650.70 700.20 400.03 891.12 399.06 834.01 529.63 730.43 641.77 877.13 639.98
00015107 00000039 525.23 143.69 430.77 647.45 700.48 402.25 892.40 400.37 835.85 530.90 730.94 643.08 878.42 640.86
00015108 00000040 525.33 143.34 430.49 649.78 701.52 402.98 892.67 401.07 836.65 531.55 731.34 644.22 878.55 641.98
00015109 00000041 524.64 143.14 430.62 649.38 700.78 402.03 892.62 400.14 836.39 531.39 730.52 643.79 878.36 641.58
00015110 00000042 524.06 142.66 429.60 651.49 698.38 401.74 892.10 400.05 835.75 530.91 727.51 644.03 878.13 641.83
00015111 00000043 523.55 141.83 430.58 654.58 697.97 401.92 892.25 401.23 835.67 531.01 723.64 642.55 877.98 641.17
00015112 00000044 521.11 143.16 433.72 647.14 696.66 403.32 893.73 402.03 836.46 530.04 722.58 638.45 881.49 636.54
00015113 00000045 519.55 144.55 435.10 635.54 695.34 405.91 896.13 403.53 837.41 531.27 720.52 634.77 882.97 632.26
00015114 00000046 520.49 143.74 434.75 634.98 695.72 408.59 896.85 405.84 839.23 531.44 716.91 630.57 886.23 628.33
00015115 00000047 521.61 144.36 434.74 633.69 696.51 408.56 897.63 406.17 839.30 531.52 716.47 628.16 888.33 626.25
00015116 00000048 520.47 145.77 436.21 632.73 696.99 408.61 897.17 406.87 837.92 532.86 715.24 628.06 886.86 626.72
00015117 00000049 519.45 146.22 437.61 634.23 694.48 409.12 896.85 409.82 833.40 533.31 710.09 627.61 884.67 628.19
00015118 00000050 520.07 145.35 436.82 632.88 689.01 410.21 894.64 412.44 826.38 536.02 701.46 627.93 878.67 630.10
00015119 00000051 520.32 146.99 436.47 628.85 685.67 413.20 892.34 415.39 820.25 539.55 696.24 628.11 874.64 630.51
00015120 00000052 521.78 147.06 433.71 627.16 682.52 415.07 889.07 417.25 815.70 540.50 692.81 627.83 870.22 630.54
00015121 00000053 520.43 148.89 433.48 626.83 680.12 417.10 887.08 418.87 812.61 542.81 691.15 629.91 868.05 632.37
00015122 00000054 521.06 150.94 433.04 628.96 680.05 419.46 885.84 420.77 811.12 546.36 688.83 631.61 865.82 634.14
00015123 00000055 518.95 152.39 433.51 632.89 679.13 424.19 883.04 422.37 810.42 550.52 686.24 634.10 863.44 634.34
00015124 00000056 516.24 154.87 435.09 635.43 678.55 428.23 881.98 425.28 809.53 556.07 688.08 639.12 861.80 638.45
00015125 00000057 513.54 153.86 434.39 642.46 674.27 432.32 877.38 429.07 805.05 558.39 685.19 642.04 859.44 640.90
00015126 00000058 513.04 156.60 433.30 637.65 671.89 435.30 877.61 431.95 801.99 559.30 683.55 644.08 859.37 642.65
00015127 00000059 513.15 159.35 430.57 638.01 669.45 436.38 875.65 433.30 800.44 560.34 681.80 647.47 857.90 646.27
00015128 00000060 511.93 157.05 431.31 645.29 667.55 437.81 874.09 434.83 798.93 561.09 680.89 651.32 855.63 650.24
00015129 00000061 511.92 158.74 431.66 645.64 668.68 437.43 873.69 434.11 800.32 560.61 685.52 654.34 854.92 652.95
00015130 00000062 512.36 159.33 430.50 647.39 669.18 437.42 873.59 434.80 801.16 561.41 686.48 657.86 852.44 657.21
00015131 00000063 513.78 160.10 429.89 642.32 670.83 437.06 874.74 432.88 803.66 562.32 692.60 659.81 854.03 657.93
00015132 00000064 514.30 160.68 429.86 643.15 672.79 435.53 875.16 432.55 804.66 562.14 694.64 660.65 853.56 659.66
00015133 00000065 516.12 159.15 428.51 649.27 676.23 434.02 874.60 431.92 806.46 561.83 698.34 661.39 854.89 660.86
00015134 00000066 516.21 159.27 429.92 652.98 678.08 432.85 873.89 430.51 808.27 559.58 701.45 662.55 855.28 661.68
00015135 00000067 516.01 159.31 430.60 654.57 680.12 429.86 875.57 428.12 810.80 558.20 703.92 662.37 857.64 661.75
00015136 00000068 517.49 160.91 429.69 650.66 681.33 428.22 876.74 427.01 812.25 556.67 704.88 659.82 860.52 659.43
00015137 00000069 517.55 158.45 431.54 650.77 683.37 425.81 878.73 425.46 813.92 555.42 705.25 656.75 862.67 656.95
00015138 00000070 515.71 156.18 434.06 648.96 683.36 422.59 879.01 422.42 813.91 554.17 704.56 653.09 862.51 653.51
00015139 00000071 515.29 156.74 434.64 648.92 683.50 420.64 878.22 421.21 814.03 550.34 705.42 652.08 863.31 653.00
00015140 00000072 514.62 155.50 434.43 648.02 682.89 418.79 878.86 419.71 814.68 549.09 705.10 650.38 864.35 651.57
00015141 00000073 512.71 155.81 437.51 652.12 682.83 417.47 878.94 418.11 815.41 547.85 705.28 649.67 866.97 650.45
00015142 00000074 512.89 153.33 437.39 652.41 681.25 416.43 877.49 416.31 814.27 545.92 702.58 647.29 866.49 647.55
00015143 00000075 511.34 154.28 438.07 648.67 680.34 415.95 876.45 414.92 813.75 544.16 702.44 645.37 865.91 645.11
00015144 00000076 509.67 153.93 439.34 643.92 678.99 415.32 875.77 413.42 812.25 541.31 701.54 642.22 866.38 641.17
00015145 00000077 508.96 151.36 439.01 644.79 677.29 415.36 873.32 410.42 811.13 538.34 703.03 640.87 867.52 637.14
00015146 00000078 507.97 151.19 439.16 641.91 672.79 414.09 870.44 407.51 809.22 534.62 700.77 638.81 866.98 633.66
00015147 00000079 507.06 153.52 438.05 640.60 667.01 411.68 862.69 404.60 801.76 531.79 699.78 637.55 863.56 631.70
00015148 00000080 501.27 148.92 440.94 651.16 662.98 401.17 857.71 399.97 796.69 521.41 692.31 631.45 854.75 630.38
00015149 00000081 496.67 138.29 439.36 647.69 655.82 384.95 853.75 388.36 787.56 502.00 679.88 616.21 845.30 618.34
00015150 00000082 501.51 134.37 428.71 632.01 648.72 376.42 848.32 369.96 782.39 486.15 680.49 608.45 844.65 602.25
00015151 00000083 502.67 130.80 426.11 614.25 645.39 369.92 846.37 362.27 778.12 475.46 679.92 596.34 841.82 588.98
00015152 00000084 504.28 129.16 419.54 584.81 650.01 368.00 847.26 358.11 778.75 469.18 686.28 585.28 838.42 576.68
00015153 00000085 501.56 126.76 428.58 583.95 649.22 360.43 842.82 357.06 773.05 458.91 684.13 566.05 834.85 564.86
00015154 DELETE   500.71 141.25 432.09 573.47 655.93 366.38 854.96 346.93 791.97 443.58 699.31 581.54 853.17 563.96
00015155 00000087 507.98 132.64 429.58 570.47 664.08 346.99 858.36 349.24 791.47 441.81 709.16 555.48 857.68 558.11
00015156 DELETE   517.44 130.25 423.79 524.43 669.96 340.46 859.33 336.39 797.66 430.11 719.26 524.58 866.78 520.86
00015157 DELETE   506.28 123.24 430.58 596.25 650.65 332.18 844.41 327.15 765.72 427.14 678.31 562.56 825.10 557.44
00015158 00000090 502.49 113.16 435.27 589.44 651.85 329.19 856.08 340.69 771.43 427.47 672.16 544.98 837.17 555.47
00015159 00000091 493.16 113.96 430.49 582.78 642.86 333.56 843.49 337.13 769.41 430.70 663.72 546.01 828.92 547.87
00015160 00000092 491.73 103.57 433.95 585.97 641.31 325.53 845.32 334.55 767.24 423.49 660.59 537.10 830.28 545.54
00015161 00000093 491.22 98.92 435.15 586.90 641.34 323.78 845.94 332.11 768.89 421.25 661.31 534.60 830.98 542.41
00015162 00000094 494.73 97.69 434.93 580.76 642.91 322.37 847.28 328.79 770.85 419.55 666.96 533.33 833.07 539.19
00015163 00000095 504.06 100.40 428.43 575.38 651.85 323.41 852.15 329.47 778.46 421.69 679.66 534.43 838.96 539.98
00015164 DELETE   509.18 105.15 436.54 583.28 660.13 328.44 872.53 339.88 787.78 431.38 685.73 539.71 856.57 549.45
00015165 DELETE   522.12 108.01 444.40 580.01 677.30 340.76 877.41 344.04 804.67 447.87 710.22 548.35 866.29 552.12
00015166 DELETE   529.45 107.31 441.22 605.54 684.37 341.83 890.19 344.95 814.68 451.35 723.57 566.45 873.21 567.09
00015167 00000099 537.16 112.79 440.16 620.43 693.15 348.57 898.36 352.28 823.51 459.16 721.41 571.77 883.17 573.61
00015168 00000100 543.84 118.63 435.27 611.17 697.65 353.61 900.44 358.34 826.15 465.17 720.10 573.80 886.34 576.78
00015169 00000101 544.98 124.17 435.27 605.73 696.28 357.20 901.46 364.76 823.86 470.69 716.04 575.02 885.44 580.35
00015170 00000102 543.66 126.95 431.23 604.37 693.24 361.12 897.79 369.69 820.75 474.69 714.32 579.12 881.05 584.81
00015171 00000103 534.96 120.17 435.20 615.31 686.50 368.55 890.03 372.01 812.83 488.13 706.40 586.67 871.52 590.12
00015172 00000104 531.27 119.70 434.45 622.03 685.43 372.31 888.15 376.41 811.20 492.40 707.17 592.78 867.92 596.88
00015173 00000105 553.01 123.70 407.52 631.18 691.13 373.94 883.28 379.09 814.81 489.38 721.56 599.43 869.64 602.04
00015174 00000106 564.40 123.25 396.41 626.59 698.88 374.36 891.60 377.68 826.44 483.38 725.37 599.59 875.33 601.46
00015175 00000107 559.40 122.81 399.54 636.61 702.78 366.28 894.95 371.69 835.76 479.59 726.79 598.65 876.06 602.14
00015176 00000108 527.04 120.22 429.20 644.05 702.58 354.67 893.70 369.20 836.13 475.16 724.49 591.03 871.27 600.88
00015177 00000109 514.79 116.97 438.82 650.72 697.43 350.99 888.97 369.38 827.92 474.10 716.90 585.91 869.24 598.74
00015178 00000110 513.57 117.88 435.01 640.52 690.61 353.13 885.89 371.23 821.76 473.74 708.76 582.64 866.65 595.57
CROP_BBOX: 216 0 1372 1075
