Video ID: 	mIX3uop3Bbk
H: 	1080
W: 	1920
FPS: 	23.976023976023978

FRAME INDEX X0 Y0 W H [Landmarks (5 Points)]

00026787 00000000 564.95 221.49 490.26 692.37 869.09 499.85 1008.99 482.20 1033.84 662.01 842.80 766.37 941.32 757.61
00026788 DELETE   567.96 225.46 487.78 689.71 871.09 501.98 1010.81 484.83 1036.14 664.91 844.06 767.70 943.43 759.55
00026789 DELETE   568.01 229.08 490.49 691.15 872.33 504.85 1012.64 486.02 1038.80 667.45 844.92 771.39 944.45 762.02
00026790 DELETE   568.96 231.20 490.64 694.83 872.90 505.24 1012.00 487.01 1040.17 668.38 847.03 774.86 945.07 765.71
00026791 00000004 572.49 232.11 487.40 695.72 877.21 504.61 1013.01 487.28 1043.08 669.31 850.68 774.43 945.89 766.02
00026792 00000005 570.97 229.84 487.05 701.28 877.42 504.86 1011.47 488.31 1042.78 668.60 850.74 775.53 944.07 767.64
00026793 00000006 571.05 233.61 487.18 697.63 875.16 505.41 1012.13 489.72 1039.49 668.97 848.52 776.02 943.07 768.77
00026794 00000007 569.25 231.99 489.43 698.96 873.33 505.32 1012.12 489.25 1038.25 668.62 847.41 778.10 941.54 770.44
00026795 00000008 567.89 233.50 489.38 707.80 875.06 507.49 1009.44 492.11 1038.40 671.79 844.62 781.17 936.58 774.35
00026796 00000009 566.61 233.29 491.65 710.12 871.68 508.98 1010.17 493.03 1034.63 673.09 843.05 784.60 935.95 777.18
00026797 00000010 562.82 231.46 493.42 715.07 868.57 512.20 1005.44 496.13 1031.80 673.97 840.51 789.04 931.43 781.42
00026798 00000011 561.26 232.75 493.30 714.80 865.62 513.18 1004.26 497.87 1028.33 673.90 838.66 789.95 929.99 782.63
00026799 00000012 558.81 234.11 493.36 714.01 862.94 515.26 1001.75 501.36 1025.41 676.49 835.86 792.92 926.65 786.66
00026800 00000013 557.85 236.60 492.31 713.23 861.14 516.32 999.77 504.16 1023.89 677.88 836.37 794.63 927.16 789.54
00026801 00000014 557.92 242.70 490.54 703.91 859.69 518.72 999.73 505.65 1022.51 680.14 832.87 794.67 925.08 789.19
00026802 00000015 555.68 240.73 493.06 703.08 858.13 517.76 1000.21 504.25 1021.62 678.73 831.79 793.50 924.73 787.56
00026803 00000016 555.91 234.03 487.86 709.52 861.41 514.31 996.89 501.05 1022.02 675.93 831.06 789.43 921.48 783.95
00026804 00000017 553.22 229.87 488.23 704.21 861.21 516.00 993.04 492.64 1022.08 673.91 828.85 783.82 920.06 771.01
00026805 00000018 551.71 225.60 492.32 704.72 857.82 516.56 989.48 491.26 1020.29 670.32 826.29 782.44 918.78 768.01
00026806 DELETE   543.84 222.81 497.28 701.30 855.66 512.84 989.47 492.00 1015.65 668.60 823.81 778.22 916.97 767.11
00026807 00000020 543.32 215.01 497.66 708.58 853.09 508.06 988.92 487.37 1013.62 663.70 820.57 774.62 916.60 763.81
00026808 00000021 541.97 212.30 499.71 707.61 849.89 504.67 988.34 483.97 1012.28 660.40 821.35 773.09 918.28 762.07
00026809 00000022 542.08 213.18 496.33 699.34 847.48 502.67 985.17 479.26 1010.72 655.46 822.33 770.80 917.24 757.72
00026810 00000023 540.33 203.00 496.65 707.90 846.92 494.64 984.08 473.22 1010.15 650.14 821.16 766.87 916.21 755.17
00026811 00000024 539.71 209.57 496.03 695.15 847.60 489.12 983.63 467.62 1013.23 646.36 823.44 762.37 917.01 750.73
00026812 00000025 540.36 215.61 497.44 683.52 846.16 482.80 986.75 461.52 1015.64 640.61 823.86 758.47 920.32 746.85
00026813 00000026 541.22 218.31 496.56 675.71 847.44 480.53 988.89 459.31 1018.47 638.99 825.92 754.62 923.77 742.88
00026814 00000027 542.23 213.08 496.55 682.79 850.63 479.92 988.17 460.35 1019.09 638.03 827.03 753.59 922.36 743.03
00026815 00000028 549.01 220.05 490.98 675.25 853.63 479.98 992.30 460.57 1022.03 641.10 830.59 754.09 926.15 744.02
00026816 00000029 548.93 215.31 493.28 681.84 854.59 482.89 992.16 463.49 1021.36 642.37 831.54 755.43 925.36 745.27
00026817 00000030 550.85 216.59 492.00 681.89 856.03 486.25 993.08 467.49 1021.67 645.22 833.89 757.82 926.83 748.01
00026818 00000031 552.85 211.53 492.14 689.40 858.01 492.45 995.05 473.04 1022.29 650.43 838.91 762.01 930.90 751.47
00026819 00000032 556.52 217.24 489.60 685.50 855.85 499.36 999.91 479.29 1021.24 654.83 841.06 766.27 937.84 754.74
00026820 00000033 559.10 219.00 487.06 687.03 858.31 501.90 1004.39 483.96 1022.63 660.26 840.09 768.50 939.02 758.79
00026821 00000034 562.69 236.14 487.74 676.04 863.18 504.74 1008.70 486.19 1029.32 665.98 844.02 773.11 940.16 763.69
00026822 00000035 566.90 244.35 487.03 678.65 868.16 513.39 1011.80 495.24 1032.13 673.69 848.76 781.23 940.58 772.01
00026823 00000036 574.68 262.02 481.11 666.90 876.95 522.40 1010.67 502.54 1037.67 678.61 856.86 787.24 939.05 776.56
00026824 00000037 579.91 260.65 479.08 670.45 879.87 523.08 1011.19 505.60 1040.47 679.43 859.42 785.98 942.52 777.08
00026825 00000038 580.98 265.61 479.03 664.37 879.70 524.70 1011.59 506.10 1040.51 678.52 863.09 787.40 944.49 777.53
00026826 00000039 580.64 264.94 478.70 667.29 878.05 526.51 1011.37 509.51 1038.46 681.38 860.36 789.11 942.88 780.47
00026827 00000040 577.87 254.79 480.33 680.86 878.38 531.64 1009.80 517.00 1035.73 686.88 854.85 792.49 937.43 785.62
00026828 00000041 576.53 256.73 481.34 679.69 878.35 535.72 1009.61 519.39 1036.09 689.76 856.20 794.64 938.63 786.59
00026829 00000042 572.06 259.66 483.48 680.17 875.84 536.56 1007.83 519.47 1033.81 690.06 855.42 796.41 937.17 787.83
00026830 00000043 570.30 263.61 483.22 675.51 872.01 538.63 1005.42 519.29 1030.80 691.58 853.11 799.39 934.42 789.06
00026831 00000044 564.87 264.35 489.01 676.48 865.53 539.73 1004.63 518.83 1025.63 691.14 846.48 799.97 934.02 788.27
00026832 00000045 563.48 276.04 489.60 667.09 863.61 539.71 998.69 522.36 1021.80 690.51 842.85 799.92 928.16 790.99
00026833 00000046 547.38 271.08 497.34 672.32 868.93 537.44 996.36 532.09 1020.78 699.98 833.54 798.21 920.10 796.81
00026834 00000047 560.47 263.18 487.91 676.71 862.41 550.58 984.17 527.38 1016.11 701.09 846.48 801.42 920.47 788.84
00026835 00000048 555.14 259.17 488.92 679.14 857.43 547.73 977.83 524.55 1009.51 697.38 839.77 799.34 911.89 786.80
00026836 00000049 550.23 242.32 489.31 692.02 854.26 544.55 977.83 521.21 1009.81 696.32 833.70 798.74 909.57 785.88
00026837 00000050 549.85 242.36 490.39 695.17 854.04 539.21 974.41 515.79 1008.87 693.19 830.00 795.79 904.72 782.97
00026838 00000051 548.21 244.89 491.54 691.89 852.43 535.91 973.98 510.83 1008.48 691.49 828.62 794.47 903.96 780.53
00026839 00000052 543.88 240.57 499.10 697.47 849.87 530.42 975.53 505.64 1005.77 689.69 821.46 791.86 900.78 778.57
00026840 00000053 533.11 244.07 507.44 695.97 854.64 517.70 976.46 516.63 1001.15 685.78 812.89 786.86 891.81 790.23
00026841 00000054 539.09 240.36 498.07 683.04 842.58 516.82 984.22 500.54 998.00 680.35 797.26 777.02 895.69 770.50
00026842 00000055 536.82 251.20 495.23 661.65 836.31 520.90 985.25 498.50 996.31 682.07 798.77 772.96 902.67 762.50
00026843 00000056 534.03 264.80 499.62 643.01 837.99 525.21 988.86 502.89 999.19 683.52 803.14 774.74 903.32 764.45
00026844 00000057 530.46 264.01 503.15 644.54 834.94 536.43 974.44 500.42 999.49 682.83 822.37 782.63 909.07 761.05
00026845 DELETE   531.08 260.83 499.51 647.53 838.67 525.42 985.57 498.62 1003.06 679.92 810.35 777.15 907.42 763.12
00026846 00000059 532.96 251.60 495.38 654.26 836.69 521.09 983.97 493.03 1003.49 675.83 810.53 773.53 909.82 758.48
00026847 00000060 535.20 251.29 492.52 648.75 836.25 516.47 983.59 488.45 1004.49 668.92 815.80 769.05 914.68 753.63
00026848 00000061 533.30 234.24 492.39 662.92 835.99 509.02 979.47 481.02 1002.55 659.72 813.53 764.61 912.43 748.50
00026849 00000062 532.70 233.43 493.00 659.20 837.15 502.53 977.06 472.46 1007.12 652.13 816.38 760.93 913.87 743.41
00026850 00000063 529.79 224.18 495.50 666.69 841.60 497.99 973.75 467.82 1008.96 644.40 819.99 756.25 912.80 738.58
00026851 00000064 529.25 219.77 495.42 669.89 843.20 496.93 972.73 467.97 1008.08 643.01 822.09 755.16 912.53 738.34
00026852 00000065 527.45 219.18 496.42 668.76 843.40 494.65 973.33 465.64 1007.90 641.76 820.16 753.32 911.13 736.50
00026853 00000066 526.91 216.32 495.63 669.44 842.47 492.97 972.89 464.68 1005.89 640.35 818.56 751.60 910.12 735.20
00026854 00000067 524.19 216.38 496.23 666.11 840.58 488.97 971.30 462.93 1003.26 638.84 813.79 747.63 906.55 732.90
00026855 00000068 535.27 209.17 486.52 670.69 837.57 498.41 964.82 459.15 1002.31 644.74 831.62 749.38 911.57 724.78
00026856 00000069 533.19 203.03 483.62 677.40 835.26 497.77 961.40 461.67 999.83 643.38 828.90 748.27 908.46 725.84
00026857 00000070 520.47 209.63 485.62 673.36 829.28 490.94 952.43 462.35 991.50 641.04 820.01 745.83 902.23 728.02
00026858 00000071 523.60 216.08 482.43 670.88 827.95 492.48 950.74 463.02 989.73 644.81 817.14 750.05 898.66 732.11
00026859 00000072 520.03 224.62 483.88 667.18 821.49 500.89 952.78 467.79 989.46 652.38 811.25 758.15 898.45 737.61
00026860 00000073 524.09 230.47 478.18 664.94 818.13 509.62 953.54 474.44 984.40 659.29 809.30 764.58 899.23 742.50
00026861 00000074 522.23 239.53 476.47 656.91 819.04 517.75 954.51 483.13 985.67 664.93 810.61 766.63 901.27 745.48
00026862 00000075 523.25 241.45 473.22 657.39 818.28 518.96 952.86 484.72 985.79 665.10 812.05 767.99 902.39 746.87
00026863 00000076 520.75 239.83 473.11 657.58 816.42 519.67 952.80 485.24 984.48 665.53 809.71 768.85 901.14 747.47
00026864 00000077 516.69 242.70 476.42 657.64 812.49 519.85 951.78 487.48 982.11 666.75 804.10 768.64 898.79 748.87
00026865 00000078 514.99 238.94 474.19 661.07 810.41 518.68 951.61 486.38 981.68 667.21 800.79 769.43 898.34 749.50
00026866 00000079 509.11 233.23 475.22 667.60 806.56 518.56 949.62 487.63 977.73 666.92 793.45 768.90 894.14 749.87
00026867 00000080 501.81 233.28 479.45 667.64 800.03 517.11 946.18 485.53 972.80 664.96 786.14 767.81 889.52 748.38
00026868 00000081 498.54 235.61 481.93 663.33 794.99 514.48 943.86 483.01 968.83 662.80 783.36 765.83 887.79 746.79
00026869 00000082 496.55 234.07 484.12 664.14 792.22 512.23 943.38 481.62 965.70 661.14 780.90 764.22 886.88 745.82
00026870 00000083 493.78 234.65 485.68 662.52 791.31 510.77 941.13 481.81 963.92 660.64 778.91 762.48 883.33 745.55
00026871 00000084 496.65 232.42 482.82 663.34 791.95 509.34 940.04 479.84 963.14 659.34 778.65 761.66 881.82 744.45
00026872 00000085 495.66 228.79 484.27 664.45 792.91 506.10 939.11 476.32 964.81 657.07 778.26 759.27 881.09 741.78
00026873 00000086 494.60 224.65 486.03 667.95 793.49 502.90 938.87 473.60 965.12 655.37 777.99 758.04 879.64 740.80
00026874 00000087 493.79 223.35 487.29 667.47 793.45 503.05 939.59 472.45 965.97 655.39 778.45 757.65 880.54 739.39
00026875 00000088 496.76 223.92 483.58 667.28 793.24 503.48 940.81 473.80 965.23 655.62 778.26 757.81 881.65 740.19
00026876 00000089 491.75 229.40 485.49 661.92 790.17 505.55 937.62 475.89 963.27 656.90 775.84 758.75 879.24 741.47
00026877 00000090 493.20 228.65 484.15 662.40 790.22 506.63 937.07 476.68 962.38 656.79 776.39 758.48 879.55 740.92
00026878 00000091 493.15 231.22 484.85 659.58 791.66 506.05 938.11 475.81 963.38 657.20 775.76 757.36 879.37 739.80
00026879 00000092 496.72 230.26 483.68 660.26 794.63 503.51 940.31 474.15 966.21 656.89 777.78 756.60 880.38 739.73
00026880 00000093 497.64 228.28 486.20 662.97 796.91 500.15 942.18 471.95 967.71 656.31 777.98 754.62 880.04 738.56
00026881 00000094 498.45 224.84 486.80 667.63 799.25 498.82 941.73 471.21 970.15 654.16 778.05 753.43 880.23 737.78
00026882 00000095 501.54 223.09 484.15 669.84 801.87 498.67 943.06 472.66 970.07 653.15 780.96 753.49 881.92 738.63
00026883 00000096 504.43 227.25 479.58 666.39 803.14 501.94 943.99 473.20 973.47 654.33 785.32 755.99 885.62 739.08
00026884 00000097 507.44 230.95 476.98 663.68 804.28 505.43 946.18 474.46 975.68 656.86 788.06 759.58 888.13 740.79
00026885 00000098 509.75 227.96 478.15 671.35 807.78 509.77 948.57 479.63 977.53 662.10 789.51 763.78 889.24 745.52
00026886 00000099 514.96 240.19 477.47 664.92 814.21 514.92 950.25 487.70 980.05 668.00 793.46 764.59 890.57 749.08
00026887 00000100 515.03 241.91 488.60 663.04 822.79 528.13 958.90 496.58 985.18 679.26 792.35 770.59 888.52 752.42
00026888 00000101 514.85 256.62 496.92 656.93 820.63 539.10 960.28 510.99 979.47 689.96 789.58 778.35 883.48 762.71
00026889 00000102 512.43 273.12 504.06 644.74 823.60 559.87 957.22 532.27 975.30 707.41 786.83 788.13 876.22 772.64
00026890 00000103 506.54 297.06 517.84 635.14 827.51 566.39 961.97 541.39 976.00 718.15 789.59 802.27 872.05 786.75
00026891 00000104 511.92 323.82 520.57 621.61 827.04 587.43 964.99 560.36 972.67 738.38 784.06 816.22 869.32 801.80
00026892 00000105 514.97 333.62 529.57 618.31 828.18 611.99 967.23 578.58 969.30 759.84 775.04 825.99 862.29 808.05
00026893 00000106 518.06 344.38 527.08 612.69 829.92 623.84 968.96 590.66 967.63 770.42 778.64 835.45 861.37 817.91
00026894 00000107 520.45 354.51 526.41 605.34 830.04 635.68 969.99 602.79 965.32 781.03 771.81 840.39 857.36 823.62
00026895 00000108 522.45 357.86 520.86 602.73 829.11 649.57 964.99 614.22 959.56 790.64 764.25 846.48 849.39 827.46
00026896 00000109 519.95 379.91 527.28 584.25 830.56 658.23 962.58 619.04 964.80 790.25 774.75 849.53 853.23 824.88
00026897 00000110 525.52 390.07 516.93 578.79 830.62 654.22 971.09 614.84 962.59 799.68 760.87 855.90 854.21 833.64
00026898 00000111 523.96 391.54 525.33 582.20 827.19 663.67 974.90 619.64 957.80 806.01 755.33 862.26 850.39 836.64
00026899 00000112 519.93 388.88 539.29 589.26 835.55 680.34 971.11 645.41 959.33 814.76 766.17 866.98 840.79 846.74
00026900 00000113 521.57 396.51 537.82 585.12 835.91 684.58 971.47 655.18 953.30 823.05 760.95 870.48 834.82 855.37
00026901 00000114 518.47 408.56 540.94 575.99 836.60 684.61 965.92 656.53 945.44 823.81 756.66 871.65 822.96 857.65
00026902 00000115 516.41 398.44 539.72 586.00 834.65 687.46 962.91 657.66 943.77 826.10 757.32 875.45 821.37 859.62
00026903 00000116 517.87 407.00 542.83 578.47 836.56 691.69 965.35 662.78 941.31 830.82 755.34 876.39 817.40 861.69
00026904 00000117 522.06 413.91 538.91 571.37 837.03 693.52 966.65 666.68 939.86 833.11 755.16 876.54 817.57 863.40
00026905 00000118 522.82 412.38 541.12 571.75 839.79 694.35 968.78 666.62 942.53 834.90 754.93 876.74 817.13 863.23
00026906 00000119 526.41 414.88 541.43 569.62 845.53 696.99 972.24 668.82 946.49 837.94 758.85 878.44 819.43 864.87
00026907 00000120 529.39 414.10 542.11 569.94 848.03 699.45 971.95 671.57 946.96 838.75 762.68 878.12 821.41 864.59
00026908 00000121 539.29 426.76 528.10 558.45 844.61 701.37 972.18 671.43 938.87 841.08 751.60 876.65 822.44 862.95
00026909 00000122 540.52 425.89 531.51 562.01 847.45 706.55 974.48 674.47 944.17 843.04 756.02 880.40 825.59 865.13
00026910 00000123 546.19 421.90 525.58 570.73 846.56 718.26 975.52 680.16 945.02 848.53 758.26 888.60 826.65 869.39
00026911 00000124 670.97 150.61 404.60 600.11 805.37 347.08 999.12 355.18 944.34 450.16 833.62 587.19 993.45 593.49
00026912 00000125 664.31 147.40 408.80 599.25 802.33 357.77 996.38 359.71 939.97 450.18 833.00 585.99 994.32 586.51
00026913 00000126 662.60 143.23 412.51 600.56 802.38 358.12 996.79 358.87 941.08 447.25 834.04 583.60 995.68 583.00
00026914 00000127 661.87 138.11 411.79 599.79 801.34 356.60 997.65 356.27 939.86 447.82 832.45 582.68 994.04 581.18
00026915 00000128 660.65 138.79 410.61 593.22 800.45 354.64 997.07 352.60 938.64 445.48 831.96 579.18 993.84 576.03
00026916 00000129 662.12 135.32 412.90 591.05 801.62 351.76 1000.79 349.68 939.56 440.41 832.86 574.87 995.51 571.79
00026917 00000130 664.10 124.26 420.02 599.52 805.69 339.12 1006.87 349.28 941.54 439.63 834.40 563.09 998.81 572.44
00026918 00000131 665.00 123.68 419.76 598.45 807.77 338.86 1008.03 349.62 943.63 437.05 835.73 561.33 999.04 571.21
00026919 00000132 666.67 127.11 417.28 594.58 810.06 337.14 1011.03 349.51 947.68 435.89 837.62 560.64 1000.65 571.86
00026920 00000133 668.12 134.20 414.66 589.88 816.97 332.59 1017.31 344.60 955.11 432.96 841.16 564.36 998.88 573.12
00026921 00000134 669.45 133.64 413.77 590.11 817.60 332.58 1018.91 345.67 956.25 432.76 840.35 564.37 999.08 573.97
00026922 00000135 664.68 125.89 411.24 593.43 811.24 344.24 1012.04 353.24 951.80 427.85 835.79 565.08 999.34 571.37
00026923 00000136 661.62 134.19 405.68 586.70 811.27 344.65 1008.45 354.13 950.72 430.92 834.61 566.09 994.96 572.87
00026924 00000137 658.66 134.18 406.40 587.28 810.74 344.19 1007.43 354.22 950.06 431.21 833.89 566.66 992.99 573.82
00026925 00000138 655.43 131.31 407.57 590.61 810.40 342.38 1005.72 353.91 950.89 431.09 833.32 566.07 990.81 574.19
00026926 00000139 647.00 131.43 410.77 589.80 809.82 346.07 997.05 359.53 950.73 434.29 833.71 564.30 984.74 573.70
00026927 00000140 642.84 131.03 411.84 588.28 806.69 346.58 994.97 361.67 949.45 432.34 831.88 562.46 982.64 573.05
00026928 00000141 643.26 120.94 411.25 595.10 805.42 343.75 992.40 360.46 948.42 426.96 830.87 559.99 981.26 572.13
00026929 00000142 644.46 120.96 408.36 591.60 803.78 337.33 991.30 350.32 946.66 424.01 831.32 558.08 980.39 567.09
00026930 00000143 641.45 115.16 408.74 592.43 803.02 332.91 989.94 345.81 945.94 422.57 830.44 554.27 978.38 563.21
00026931 00000144 642.66 115.12 408.52 585.93 803.71 330.24 991.54 343.41 946.25 420.30 832.45 551.80 979.25 560.99
00026932 00000145 643.99 106.52 408.84 591.27 807.26 328.35 995.16 342.40 950.63 419.35 837.08 550.15 981.72 560.09
00026933 00000146 650.34 107.22 411.55 594.20 812.63 319.82 998.07 340.65 949.80 420.50 839.70 544.54 985.75 563.14
00026934 00000147 650.89 110.86 412.55 592.39 814.72 320.48 1002.44 342.28 952.31 422.84 840.39 546.51 986.80 565.96
00026935 00000148 650.85 106.35 413.71 598.14 815.99 320.03 1003.20 342.69 952.50 424.11 840.51 546.70 986.11 566.76
00026936 00000149 651.73 108.28 413.56 602.69 816.21 321.96 1003.13 343.81 952.47 426.82 840.88 550.70 984.53 570.28
00026937 00000150 652.49 106.58 413.85 607.16 818.56 326.25 1005.39 346.62 953.84 430.95 842.93 555.81 985.23 574.17
00026938 00000151 653.44 108.10 412.35 606.04 819.13 329.00 1006.49 348.31 955.64 434.48 844.48 557.89 987.35 575.41
00026939 00000152 655.40 108.71 411.17 600.44 818.90 329.00 1007.54 347.39 957.18 436.39 846.03 557.48 990.58 574.12
00026940 00000153 658.85 109.72 407.39 595.78 821.86 328.64 1008.39 347.73 959.70 435.05 848.41 555.24 991.51 572.51
00026941 00000154 660.44 110.23 408.12 591.37 821.51 326.30 1010.32 344.05 961.56 431.73 851.45 550.21 1000.08 565.77
00026942 00000155 659.45 109.65 411.01 590.34 822.60 324.22 1010.75 341.16 963.65 430.26 853.59 545.92 1004.37 560.47
00026943 00000156 663.01 106.94 409.83 594.51 823.30 322.50 1009.67 338.43 964.31 427.58 853.86 545.25 1004.62 558.73
00026944 00000157 665.64 100.51 408.49 607.70 825.13 319.87 1009.19 337.64 963.50 426.43 851.22 546.93 998.84 561.98
00026945 00000158 664.92 96.75 409.89 609.36 822.67 317.56 1015.61 335.39 965.18 426.92 847.07 543.75 1007.92 558.31
00026946 00000159 662.23 95.91 411.29 605.92 821.23 316.04 1012.84 333.52 963.11 424.22 845.02 539.35 1006.43 553.65
00026947 00000160 660.56 95.36 408.77 605.59 817.61 311.90 1006.74 328.36 960.36 417.68 843.44 538.69 1001.65 552.49
00026948 00000161 660.10 94.24 407.45 610.39 815.48 309.42 1005.54 324.50 959.75 417.09 841.09 539.51 1000.86 552.07
00026949 00000162 655.84 93.28 409.12 609.54 813.31 310.81 1002.81 324.74 956.83 416.51 837.51 536.62 999.53 548.42
00026950 00000163 650.04 93.08 409.98 608.29 814.77 312.06 1004.86 324.76 955.62 412.26 836.87 538.80 993.20 548.25
00026951 00000164 650.99 90.79 408.91 605.75 815.84 309.21 1007.38 324.75 956.07 409.62 834.89 534.41 993.40 546.29
00026952 00000165 653.14 93.36 408.11 597.38 815.97 306.68 1005.88 321.53 955.30 404.89 836.63 530.72 993.74 542.13
00026953 00000166 655.01 93.63 407.65 592.11 814.62 304.50 1007.34 318.73 955.42 403.19 836.13 528.51 995.80 539.35
00026954 00000167 653.58 97.64 408.39 588.71 814.18 305.71 1008.38 319.48 955.11 405.69 836.76 530.28 996.81 540.57
00026955 00000168 653.34 94.94 408.28 593.02 813.08 307.77 1007.98 321.07 954.10 411.63 835.41 533.23 997.05 543.18
00026956 00000169 654.94 97.62 406.42 592.82 811.53 309.65 1007.93 322.18 953.71 413.69 833.23 535.58 998.05 545.03
