Video ID: 	riLJvRqnR9E
H: 	1080
W: 	1920
FPS: 	25.0

FRAME INDEX X0 Y0 W H [Landmarks (5 Points)]

00001107 00000000 680.46 196.01 529.81 733.45 727.45 480.12 931.01 472.11 752.22 628.26 772.84 750.73 950.03 743.92
00001108 00000001 683.33 191.56 528.95 739.70 729.68 477.57 924.50 468.12 744.49 622.84 774.37 750.37 945.77 741.86
00001109 00000002 684.68 191.31 530.27 744.33 731.76 475.66 924.41 464.53 744.16 620.52 776.60 751.27 947.31 741.17
00001110 00000003 685.18 184.91 529.17 749.90 730.86 475.03 923.87 461.96 744.90 617.53 776.02 751.00 947.43 739.52
00001111 00000004 685.24 186.74 529.69 741.61 729.33 474.52 923.51 462.63 743.97 617.76 773.98 749.74 941.00 739.82
00001112 00000005 682.70 187.59 532.13 729.36 724.81 475.76 920.94 465.97 737.83 618.29 763.43 750.86 927.24 743.44
00001113 00000006 683.89 187.08 522.93 719.64 718.81 473.46 918.28 468.28 734.18 618.64 752.50 746.59 919.59 743.26
00001114 00000007 673.66 193.01 530.52 709.50 714.68 469.89 926.00 474.08 733.15 627.40 755.27 742.41 915.52 744.70
00001115 00000008 683.09 188.83 523.46 702.76 716.06 479.49 929.89 474.48 749.06 622.25 750.99 748.11 926.63 745.48
00001116 00000009 686.01 186.18 527.53 702.48 727.62 480.89 953.51 480.00 771.73 623.62 757.02 745.67 938.29 746.67
00001117 DELETE   686.33 178.53 543.79 724.62 748.78 494.17 975.38 494.04 794.33 636.54 776.07 751.01 952.67 750.62
00001118 DELETE   703.05 174.79 537.89 721.50 773.04 490.56 1004.08 486.53 838.93 627.88 801.58 748.32 986.64 745.59
00001119 DELETE   710.50 178.48 542.32 720.91 790.60 488.06 1036.99 483.97 870.73 632.25 824.43 752.39 1014.35 748.71
00001120 00000013 719.66 176.62 542.44 735.14 809.16 481.06 1057.61 480.29 894.83 630.36 845.71 755.24 1031.32 754.71
00001121 00000014 724.54 170.07 549.67 765.85 820.51 479.48 1066.57 468.86 910.15 626.93 860.20 762.42 1045.26 755.26
00001122 00000015 726.43 168.27 548.55 761.87 821.11 477.63 1068.18 470.13 909.70 626.00 857.10 749.25 1049.91 744.25
00001123 00000016 722.77 165.68 550.00 773.79 812.00 478.84 1059.27 473.92 895.58 629.40 844.70 748.62 1044.32 744.57
00001124 00000017 713.93 168.34 560.01 794.06 813.56 483.66 1054.41 476.37 893.01 633.20 849.77 771.25 1027.12 766.73
00001125 00000018 719.75 179.39 554.78 793.64 813.38 489.47 1051.64 477.38 893.46 633.57 852.80 778.47 1033.31 768.43
00001126 00000019 722.49 178.60 552.16 781.72 819.24 489.77 1063.53 480.71 909.82 638.42 858.07 769.96 1050.66 761.26
00001127 00000020 718.80 168.83 550.51 785.70 822.15 488.70 1075.84 476.59 926.72 636.52 860.67 771.58 1068.21 760.94
00001128 00000021 722.03 170.59 550.88 788.27 829.53 489.08 1082.09 473.61 938.10 635.59 869.82 772.83 1077.98 759.16
00001129 00000022 723.18 171.01 550.96 784.09 830.38 485.66 1091.08 472.90 941.78 638.77 870.27 769.25 1078.31 758.47
00001130 00000023 723.55 176.77 547.33 774.48 829.97 487.21 1084.00 474.40 935.71 637.28 869.69 767.89 1073.37 757.77
00001131 00000024 719.87 175.77 553.47 785.16 822.72 487.37 1074.06 475.71 925.35 637.55 861.89 767.04 1064.64 755.88
00001132 00000025 717.80 178.34 553.20 793.56 821.38 485.84 1064.38 477.27 913.91 638.06 859.36 771.87 1054.27 763.76
00001133 00000026 711.80 175.47 555.05 783.21 811.66 489.00 1058.56 479.87 903.96 639.07 847.64 764.78 1044.30 756.25
00001134 00000027 711.84 174.47 552.04 764.19 808.32 489.18 1058.87 480.06 903.71 641.79 845.25 753.41 1048.25 744.44
00001135 00000028 713.67 175.77 550.50 765.58 810.22 487.50 1059.76 478.83 905.52 641.00 848.05 753.67 1049.49 745.00
00001136 00000029 715.09 179.70 552.49 766.37 817.34 487.63 1065.22 480.03 914.23 641.18 857.66 761.51 1049.66 754.06
00001137 00000030 716.43 177.56 546.30 772.37 822.22 489.80 1070.50 476.43 927.20 638.53 868.10 772.91 1053.91 762.27
00001138 00000031 712.81 172.35 551.51 784.13 825.83 489.23 1075.75 478.10 933.29 637.02 870.73 784.15 1053.80 775.35
00001139 00000032 727.94 171.86 537.97 765.41 833.44 489.97 1081.35 478.66 938.07 641.39 876.73 778.59 1058.05 769.58
00001140 00000033 735.96 178.09 532.79 730.59 834.86 485.61 1090.07 477.06 941.09 643.85 879.36 765.90 1060.86 759.39
00001141 00000034 744.02 177.80 529.11 720.86 842.42 476.94 1096.75 472.80 948.04 634.48 882.55 754.39 1064.70 751.67
00001142 00000035 750.69 173.73 526.70 715.66 850.03 469.16 1104.02 466.98 956.87 624.57 886.55 743.75 1071.31 742.69
00001143 00000036 755.17 170.06 523.53 717.33 851.69 464.28 1105.79 462.00 958.84 618.27 887.42 738.93 1074.81 737.64
00001144 00000037 754.56 167.90 522.98 718.75 850.09 461.33 1105.15 458.95 957.24 614.23 886.08 736.23 1074.17 734.88
00001145 00000038 750.89 168.90 524.01 719.97 847.92 460.95 1099.56 458.26 951.50 610.75 883.20 736.04 1065.63 734.70
00001146 00000039 744.71 166.76 526.22 729.98 842.67 461.56 1091.34 457.68 941.03 605.94 877.43 739.32 1054.70 737.11
00001147 00000040 740.32 166.30 526.40 736.43 837.85 462.35 1085.62 457.22 934.26 603.79 873.10 742.80 1047.75 739.62
00001148 00000041 737.51 164.12 527.03 747.25 836.30 463.25 1082.11 458.72 930.06 604.37 871.36 745.88 1044.41 743.17
00001149 00000042 737.67 164.50 534.33 757.90 843.35 467.31 1084.43 453.45 933.66 597.81 881.00 750.90 1048.50 742.16
00001150 00000043 742.35 165.26 534.02 763.92 851.37 465.40 1101.65 455.92 953.21 602.96 889.26 752.93 1064.29 746.54
00001151 00000044 746.81 166.44 533.02 774.46 863.31 465.02 1117.10 456.26 973.39 601.56 901.73 755.83 1077.32 749.97
00001152 00000045 747.50 161.98 533.44 786.96 866.21 464.32 1120.30 455.81 976.51 599.90 902.34 757.66 1080.52 751.96
00001153 00000046 745.00 163.22 535.38 791.63 860.50 464.31 1115.86 456.20 967.35 599.31 894.80 759.51 1074.28 754.25
00001154 00000047 736.62 167.10 544.15 789.07 854.29 462.45 1103.65 455.42 949.79 602.12 885.57 761.70 1061.47 758.18
00001155 00000048 729.87 167.57 544.68 789.17 847.02 464.61 1094.50 457.16 940.19 603.87 877.08 764.27 1054.00 760.01
00001156 00000049 730.23 168.41 544.13 793.22 848.81 467.24 1097.63 458.29 945.51 606.42 880.86 767.84 1059.97 762.05
00001157 00000050 731.35 168.70 546.38 800.53 855.46 467.05 1109.14 459.87 959.89 608.60 889.47 771.91 1070.99 767.40
00001158 00000051 738.54 165.69 538.05 810.18 857.41 466.99 1108.52 459.06 971.74 613.29 904.89 764.85 1086.37 757.62
00001159 00000052 740.33 159.76 536.63 807.58 859.16 469.72 1110.56 461.61 974.97 615.02 902.21 757.52 1092.92 749.78
00001160 00000053 737.72 158.41 529.64 789.32 851.14 467.70 1110.09 457.57 969.59 612.12 885.57 753.88 1085.44 746.19
00001161 00000054 737.87 157.60 523.37 768.68 845.26 468.03 1105.05 462.13 964.35 613.75 878.13 755.80 1074.25 751.20
00001162 00000055 732.47 158.96 526.97 765.91 840.75 470.17 1099.74 463.20 957.35 615.54 872.32 752.50 1072.15 746.98
00001163 00000056 733.49 157.73 527.06 766.21 847.95 470.37 1108.21 464.06 969.97 618.69 877.47 748.50 1082.32 743.37
00001164 00000057 737.93 158.49 530.34 762.64 858.71 469.27 1116.52 460.76 983.69 618.32 895.62 740.77 1096.42 733.83
00001165 00000058 749.51 159.25 523.31 763.55 870.27 470.39 1125.70 462.60 999.39 620.01 908.63 743.40 1107.08 737.38
00001166 00000059 751.90 158.06 524.76 762.47 875.47 470.40 1129.46 459.78 1007.51 615.86 917.42 741.32 1114.39 732.79
00001167 00000060 761.92 157.82 522.89 759.38 880.87 464.85 1136.20 453.98 1011.02 612.34 916.85 738.23 1124.57 729.58
00001168 00000061 763.75 157.06 524.36 759.40 882.90 462.86 1138.39 453.78 1011.59 611.02 916.43 735.77 1126.20 728.60
00001169 00000062 767.67 156.02 524.23 758.16 885.73 461.38 1142.33 452.97 1014.73 610.21 918.67 734.20 1130.03 727.67
00001170 00000063 771.24 152.69 521.51 756.93 890.66 459.10 1146.39 449.41 1020.97 607.80 925.98 732.84 1135.04 725.74
00001171 00000064 775.31 147.65 522.27 763.79 893.07 453.80 1149.02 443.77 1025.16 603.06 932.81 734.13 1139.16 726.91
00001172 00000065 773.90 144.25 516.41 772.79 890.41 452.23 1143.72 443.50 1021.43 600.82 928.53 734.33 1131.18 728.01
00001173 00000066 772.59 142.95 513.35 774.19 886.19 452.50 1139.69 442.75 1018.45 600.10 924.83 736.85 1126.76 729.61
00001174 00000067 770.31 146.80 515.99 770.80 885.47 453.85 1139.56 444.37 1017.82 603.33 924.46 737.83 1126.26 730.72
00001175 00000068 768.16 148.27 517.88 768.34 883.68 453.73 1138.40 444.52 1015.24 605.94 924.27 739.09 1123.81 732.27
00001176 00000069 767.95 147.45 518.06 767.76 883.70 453.52 1138.15 443.63 1015.82 605.62 925.18 738.81 1123.55 731.39
00001177 00000070 768.97 146.15 518.01 769.46 884.82 452.71 1139.45 442.54 1017.40 603.44 925.87 738.31 1124.87 730.72
00001178 00000071 769.73 138.18 520.83 777.00 887.71 446.91 1142.54 439.08 1020.66 596.56 927.68 735.26 1125.31 729.75
00001179 00000072 769.10 133.97 525.18 781.58 887.99 445.44 1142.95 438.43 1019.23 593.34 926.39 734.07 1124.85 729.20
00001180 00000073 767.40 130.82 523.59 783.25 882.78 451.73 1131.58 446.42 1006.37 587.99 915.36 726.70 1111.13 722.74
00001181 DELETE   746.81 135.83 529.72 752.85 860.71 450.14 1116.05 449.04 968.66 578.75 882.52 720.50 1078.55 720.64
00001182 DELETE   725.01 126.17 533.59 769.97 831.07 444.94 1083.68 445.79 932.66 582.11 852.03 715.94 1055.40 717.41
00001183 DELETE   716.40 139.35 539.38 752.58 813.67 437.90 1050.65 439.69 894.70 579.80 835.11 699.43 1020.92 702.04
00001184 00000077 715.37 130.95 541.05 768.71 804.37 431.66 1041.24 431.40 877.26 574.03 825.60 703.93 1012.89 704.93
00001185 00000078 726.35 127.65 536.73 769.24 805.69 435.22 1041.54 430.51 873.84 573.06 830.39 707.79 1017.75 704.65
00001186 00000079 731.12 127.81 536.54 773.01 812.97 439.27 1052.53 434.25 885.90 576.40 837.10 707.82 1029.65 703.98
00001187 00000080 735.50 129.46 540.34 783.35 825.48 441.75 1062.23 426.31 902.47 580.79 861.52 719.34 1051.91 709.11
00001188 00000081 748.80 134.88 535.69 769.06 842.06 444.42 1082.52 437.17 923.43 583.08 871.59 715.20 1068.60 709.86
00001189 00000082 757.47 139.58 535.35 762.67 853.35 443.23 1094.13 434.73 938.64 585.05 885.64 713.77 1084.57 707.41
00001190 00000083 762.56 135.77 540.60 778.06 858.68 436.93 1100.14 429.37 942.31 580.49 890.05 717.44 1087.79 712.05
00001191 00000084 759.80 134.53 545.13 777.28 856.40 435.63 1094.14 426.18 935.14 573.30 889.57 716.24 1076.68 709.34
00001192 00000085 757.39 127.56 540.97 763.30 847.47 433.43 1084.47 427.98 921.51 567.46 873.56 699.27 1065.48 695.79
00001193 00000086 749.65 123.81 541.25 761.95 835.66 426.13 1073.65 425.18 904.36 562.04 856.90 691.51 1052.50 691.61
00001194 00000087 746.53 122.82 542.68 761.19 833.96 425.75 1074.06 423.74 905.61 560.99 855.55 693.05 1051.38 692.38
00001195 00000088 745.54 123.89 547.02 759.44 838.33 427.52 1080.98 424.88 915.86 562.73 862.31 691.16 1061.81 689.62
00001196 00000089 746.32 123.88 548.64 763.31 842.00 429.12 1086.53 422.35 926.44 565.25 870.03 696.82 1068.24 691.98
00001197 00000090 746.37 125.35 547.78 766.21 839.95 433.78 1082.89 427.67 920.74 571.26 868.57 705.07 1062.02 701.09
00001198 00000091 746.40 133.21 537.25 760.32 832.39 443.43 1072.08 436.60 907.04 582.00 861.21 713.13 1052.39 708.40
00001199 00000092 744.34 135.59 535.53 757.52 829.26 445.80 1068.15 440.81 905.26 589.05 857.24 712.11 1050.17 708.71
00001200 00000093 748.91 136.49 535.90 753.52 831.83 445.94 1069.98 441.87 906.34 589.76 860.32 708.60 1056.19 705.82
00001201 00000094 752.65 133.81 536.60 759.77 836.78 443.69 1074.47 439.09 908.42 582.25 861.44 708.45 1058.01 705.58
00001202 00000095 756.38 133.54 536.99 784.81 845.44 439.88 1073.89 429.66 910.90 572.56 873.52 718.80 1055.65 713.65
00001203 00000096 754.50 126.02 539.61 780.76 843.10 442.96 1083.10 436.30 917.14 579.42 868.64 721.52 1053.05 717.61
00001204 00000097 752.76 127.64 540.76 774.34 839.98 445.94 1082.36 438.62 917.70 582.50 866.87 720.15 1053.98 715.75
00001205 00000098 752.32 126.83 542.05 780.20 841.36 446.26 1084.51 436.62 920.33 581.03 871.06 726.57 1054.13 720.12
00001206 00000099 753.78 130.76 539.99 777.52 842.62 447.97 1082.32 438.00 921.11 582.57 871.48 727.55 1052.66 721.02
00001207 00000100 753.66 133.01 539.05 764.78 841.34 448.34 1082.73 440.83 922.07 585.70 868.32 721.95 1052.46 717.59
00001208 00000101 754.79 129.73 540.38 762.95 841.31 444.69 1085.74 439.61 921.96 583.70 867.72 713.62 1059.61 710.82
00001209 00000102 753.66 126.56 541.54 773.08 842.00 441.98 1086.43 435.90 920.79 579.51 868.32 715.07 1058.85 711.62
00001210 00000103 752.03 125.48 542.83 788.87 841.87 440.58 1085.73 432.53 919.12 576.09 868.59 720.94 1060.74 715.62
00001211 00000104 751.63 132.51 541.72 796.68 843.51 441.44 1076.81 426.79 915.26 572.51 875.49 725.14 1062.62 715.75
00001212 00000105 747.57 135.42 541.68 796.42 840.92 443.52 1073.37 430.48 911.26 575.79 870.88 726.00 1057.06 718.03
00001213 00000106 738.29 130.64 548.15 790.31 831.45 443.69 1069.29 430.31 907.32 574.32 863.81 727.11 1050.30 719.17
00001214 00000107 733.77 129.39 546.94 775.11 826.71 440.27 1068.02 424.81 907.15 570.52 862.69 720.25 1050.57 710.65
00001215 00000108 730.31 123.59 544.83 764.93 825.89 436.84 1068.56 426.61 907.82 571.71 859.64 710.88 1048.07 703.35
00001216 00000109 734.48 125.03 541.15 757.15 828.02 437.21 1073.26 427.34 911.08 568.54 857.76 705.02 1052.76 697.84
00001217 00000110 739.10 131.20 541.45 749.55 837.69 436.52 1085.77 427.58 929.90 568.01 866.41 701.01 1065.17 694.49
00001218 00000111 745.63 134.24 543.19 746.20 851.41 432.92 1099.28 428.94 945.54 570.92 877.15 697.68 1073.98 695.17
00001219 00000112 750.79 134.73 544.22 747.59 864.86 431.56 1115.23 427.90 964.15 570.36 888.83 698.47 1083.93 696.62
00001220 00000113 750.27 135.71 544.17 754.28 870.20 427.80 1119.89 423.37 972.77 565.79 896.95 703.02 1084.92 700.77
00001221 00000114 748.78 131.11 541.51 759.03 869.02 425.29 1121.64 420.70 974.14 561.38 893.78 705.33 1082.26 703.02
00001222 00000115 746.26 129.03 538.02 761.84 866.06 424.09 1123.16 420.23 974.33 560.26 889.55 707.53 1081.62 705.82
00001223 00000116 741.12 126.26 536.64 757.63 861.26 423.29 1120.57 418.79 971.83 559.03 886.67 705.05 1079.30 702.72
00001224 00000117 743.93 117.42 524.83 764.59 852.71 425.68 1108.98 413.15 969.58 555.03 884.76 701.57 1085.92 692.32
00001225 00000118 736.63 115.65 528.39 768.45 853.01 429.56 1112.16 420.33 976.15 557.78 881.27 705.65 1088.55 698.28
00001226 00000119 737.33 120.48 527.55 769.45 855.55 433.41 1112.29 422.72 977.19 557.78 886.38 712.17 1086.52 704.13
00001227 00000120 736.65 117.61 527.96 778.47 856.15 431.54 1110.68 422.68 975.17 556.78 888.39 717.34 1080.33 711.13
00001228 00000121 737.30 117.98 526.64 778.78 858.50 430.52 1113.31 420.74 981.88 555.11 892.49 715.93 1086.16 708.50
00001229 00000122 736.40 124.86 528.66 778.67 857.68 429.97 1106.76 414.44 976.43 559.96 898.61 716.06 1080.08 703.43
00001230 00000123 738.39 114.54 523.93 783.63 860.11 422.94 1115.98 417.44 982.78 552.07 886.81 710.11 1087.22 706.05
00001231 00000124 733.95 117.97 525.15 772.24 857.31 426.86 1116.24 420.51 982.62 556.29 883.44 707.38 1088.64 702.66
00001232 00000125 731.65 120.65 525.64 769.02 853.52 431.93 1111.81 424.06 979.27 563.18 881.44 707.92 1090.12 701.59
00001233 00000126 729.07 124.08 528.05 768.15 851.13 434.25 1111.95 429.22 976.31 569.67 878.89 713.67 1086.16 709.81
00001234 00000127 724.65 124.84 527.71 770.58 847.97 432.87 1109.25 431.17 973.42 570.44 872.25 712.91 1081.05 711.60
00001235 00000128 720.46 127.48 526.61 769.22 847.22 432.00 1108.17 432.39 974.69 573.43 871.39 712.99 1079.07 713.33
00001236 00000129 723.28 129.12 525.19 765.10 853.33 430.62 1114.55 432.23 982.06 570.21 876.70 713.89 1081.61 715.27
00001237 00000130 726.95 130.31 525.78 775.46 865.38 429.57 1109.22 424.69 985.66 572.90 901.85 712.56 1078.51 708.88
00001238 00000131 730.31 131.64 525.22 774.68 875.35 426.09 1115.63 418.31 1000.71 563.87 914.10 715.88 1081.37 709.62
00001239 00000132 736.06 123.43 514.61 773.65 880.32 420.56 1131.37 424.09 1016.56 554.78 910.03 712.47 1097.50 715.01
00001240 00000133 731.65 121.26 514.21 777.79 881.06 424.34 1133.28 424.99 1022.41 561.29 909.96 712.69 1103.74 712.75
00001241 00000134 735.20 124.50 511.46 772.67 881.27 431.71 1137.33 426.02 1029.47 570.68 904.87 711.15 1116.98 706.46
00001242 00000135 736.15 125.85 510.77 777.18 887.36 433.08 1138.72 427.74 1035.60 571.14 908.03 710.50 1122.24 705.94
00001243 00000136 737.74 129.30 507.30 767.37 892.71 433.76 1141.62 427.25 1043.62 570.29 915.82 706.04 1128.22 700.34
00001244 00000137 740.17 129.03 505.61 763.44 900.38 435.57 1145.56 426.45 1053.85 567.40 928.58 704.75 1135.08 696.70
00001245 00000138 747.63 127.51 504.07 774.40 907.61 435.70 1152.68 425.92 1064.06 566.02 940.33 710.14 1143.98 701.49
00001246 00000139 748.80 127.00 504.50 779.22 910.81 438.13 1156.15 429.12 1068.01 572.20 942.03 712.37 1147.03 704.36
00001247 00000140 750.55 130.74 505.23 781.13 913.18 441.39 1158.78 430.96 1070.97 577.66 945.24 715.81 1149.93 706.80
00001248 00000141 748.37 136.25 507.96 774.26 912.00 449.15 1155.27 440.59 1068.95 592.02 952.05 724.07 1144.87 715.08
00001249 00000142 750.10 138.73 504.24 775.27 910.69 450.92 1153.41 441.01 1069.59 595.50 951.68 729.67 1143.51 719.85
00001250 00000143 748.41 140.87 505.14 774.84 909.02 455.79 1153.47 444.51 1069.68 598.66 950.17 732.35 1144.32 721.25
00001251 00000144 744.80 142.47 508.77 776.88 908.41 456.44 1153.74 445.88 1068.91 600.94 948.25 732.20 1145.69 721.58
00001252 00000145 742.40 142.92 510.83 778.87 907.59 456.43 1152.38 446.17 1067.68 601.84 947.20 733.55 1144.37 723.19
00001253 00000146 737.20 143.62 515.64 778.75 905.79 456.27 1150.67 446.60 1065.53 601.90 944.64 732.96 1143.06 723.08
00001254 00000147 734.61 143.00 517.05 777.61 904.50 455.04 1148.83 445.92 1062.76 600.48 944.08 732.54 1140.52 723.08
00001255 00000148 730.69 144.95 518.06 774.86 902.17 454.77 1146.95 445.59 1061.56 600.56 943.49 736.15 1137.48 726.86
00001256 00000149 735.70 140.67 510.13 779.13 898.31 453.88 1148.11 438.57 1061.55 592.32 940.72 738.12 1139.94 724.94
00001257 00000150 732.38 139.16 511.97 778.62 893.90 453.64 1145.60 437.42 1057.85 591.06 937.94 737.99 1137.86 724.02
00001258 00000151 730.66 139.20 512.91 777.74 892.26 453.80 1144.00 436.66 1055.41 592.61 936.67 737.46 1135.73 722.77
00001259 00000152 726.21 138.77 514.83 779.64 888.17 456.06 1141.01 438.40 1050.24 594.01 932.00 739.27 1131.63 724.09
00001260 00000153 723.01 137.38 516.09 781.35 882.15 457.92 1138.06 439.07 1044.44 597.10 927.19 742.04 1128.65 725.82
00001261 00000154 719.81 138.89 518.99 779.73 878.17 458.68 1137.21 439.30 1041.83 599.22 924.39 742.95 1127.49 726.15
00001262 00000155 718.83 140.89 518.96 777.42 878.39 461.09 1136.53 441.30 1041.74 601.60 924.82 745.33 1125.96 728.27
00001263 00000156 722.19 142.09 516.30 777.79 880.16 462.35 1137.83 442.60 1043.64 603.03 926.13 747.46 1127.62 730.50
00001264 00000157 721.45 143.54 516.82 777.02 880.07 463.46 1138.04 443.65 1044.11 603.93 926.45 748.71 1128.22 731.59
00001265 00000158 721.56 144.55 517.32 775.41 880.47 464.58 1138.01 444.71 1044.74 604.16 927.86 750.26 1128.24 733.04
00001266 00000159 722.36 145.02 516.16 775.05 880.80 464.47 1137.96 444.73 1044.30 604.14 927.81 750.20 1127.53 733.18
00001267 00000160 721.90 142.52 516.46 778.68 880.78 462.58 1137.70 442.93 1044.27 601.64 929.12 749.74 1126.98 732.83
00001268 00000161 720.77 141.45 517.87 780.89 879.82 460.25 1136.90 441.41 1043.38 600.37 929.72 749.78 1123.90 733.51
00001269 00000162 708.70 143.39 530.33 779.22 879.39 458.19 1128.74 443.10 1036.59 602.74 929.32 748.35 1115.85 734.91
CROP_BBOX: 349 0 1648 1080
