Video ID: 	UcdUd7lzw34
H: 	1080
W: 	1920
FPS: 	29.97002997002997

FRAME INDEX X0 Y0 W H [Landmarks (5 Points)]

00005526 00000000 885.06 187.23 463.97 678.41 977.52 441.00 1197.52 440.69 1061.63 541.57 990.24 684.75 1159.97 685.10
00005527 00000001 883.64 179.52 464.87 683.12 977.94 439.07 1195.80 436.68 1062.63 532.45 993.15 679.87 1161.21 678.32
00005528 00000002 883.04 174.12 466.37 686.82 978.57 435.13 1197.06 433.59 1064.87 528.87 994.24 674.07 1160.74 673.37
00005529 00000003 883.40 169.37 466.74 690.79 976.47 435.68 1194.52 431.46 1062.58 525.55 993.31 673.39 1160.38 670.52
00005530 00000004 883.91 174.64 466.42 681.26 972.90 437.00 1191.93 430.21 1058.22 524.70 991.73 672.70 1162.31 667.58
00005531 00000005 884.89 169.25 467.20 680.30 969.09 439.24 1191.21 430.33 1053.68 526.53 989.47 671.94 1164.88 664.80
00005532 00000006 890.44 166.42 457.27 669.56 971.06 436.86 1186.20 426.36 1046.41 528.05 983.29 665.92 1164.44 657.43
00005533 00000007 888.87 170.19 458.80 661.01 969.88 436.60 1186.37 426.77 1046.53 528.13 981.24 661.80 1164.63 653.65
00005534 00000008 889.75 169.71 458.98 659.01 969.71 436.38 1187.03 427.34 1046.70 528.96 980.53 658.78 1166.97 650.96
00005535 00000009 889.68 169.70 457.73 657.13 969.21 436.63 1186.54 427.68 1046.36 527.93 978.49 655.33 1168.10 647.36
00005536 00000010 889.73 160.65 456.72 664.49 965.25 441.47 1182.47 430.19 1044.99 522.57 980.73 657.02 1164.65 648.10
00005537 00000011 890.03 170.39 458.01 649.53 968.77 436.80 1187.03 425.70 1046.63 524.46 979.34 651.71 1170.70 641.82
00005538 00000012 890.07 172.41 458.58 645.06 970.49 435.38 1183.96 421.92 1047.69 520.78 984.66 649.59 1169.17 638.03
00005539 00000013 888.40 191.45 467.14 628.34 971.19 427.55 1186.35 410.50 1051.70 499.48 994.07 649.47 1156.85 636.18
00005540 DELETE   886.00 193.81 471.70 624.01 971.32 421.24 1188.14 398.49 1055.56 477.56 995.47 649.90 1157.01 632.46
00005541 DELETE   892.44 148.90 468.16 650.40 973.98 418.01 1184.88 392.29 1048.42 475.20 997.83 634.32 1156.13 613.44
00005542 00000016 894.68 147.17 467.83 647.53 972.35 404.68 1194.43 380.94 1050.43 466.85 989.48 626.01 1178.13 605.86
00005543 00000017 896.66 142.71 469.17 656.74 971.99 406.48 1195.29 382.12 1047.82 466.52 988.63 631.02 1177.26 610.32
00005544 00000018 897.70 150.46 467.39 647.31 972.23 409.24 1194.62 384.95 1046.17 469.85 988.64 632.37 1175.52 611.46
00005545 00000019 897.82 160.27 470.29 634.25 973.47 407.93 1196.79 391.95 1045.13 478.24 983.52 627.86 1174.28 613.57
00005546 00000020 901.16 174.11 467.15 618.73 975.84 412.98 1196.78 399.57 1047.73 493.89 986.89 629.34 1177.89 617.14
00005547 00000021 903.02 169.02 463.10 627.48 979.92 416.72 1200.05 407.01 1053.79 502.76 989.33 631.76 1183.50 622.65
00005548 00000022 906.05 168.18 463.63 635.70 984.54 424.57 1201.74 414.38 1056.51 510.20 996.16 638.61 1185.66 629.29
00005549 00000023 906.36 166.89 461.92 643.76 984.04 431.19 1201.48 420.86 1059.85 518.85 998.11 644.17 1188.78 634.76
00005550 00000024 904.13 180.43 469.77 642.68 976.96 442.38 1205.23 426.96 1060.36 521.15 999.74 663.69 1191.19 650.01
00005551 00000025 902.19 180.42 467.00 654.04 972.37 442.66 1201.00 426.45 1053.02 521.04 994.41 670.32 1184.31 656.49
00005552 00000026 896.02 182.78 471.48 665.32 969.96 443.88 1196.31 423.34 1048.38 516.78 990.85 674.97 1177.66 657.94
00005553 00000027 893.81 176.39 471.61 671.57 967.46 442.05 1194.13 419.72 1044.74 513.94 988.53 674.98 1176.59 656.57
00005554 00000028 898.84 176.15 460.07 662.90 967.46 443.61 1182.68 420.14 1039.39 513.32 990.56 672.22 1162.30 653.42
00005555 00000029 890.82 194.47 466.22 654.68 966.43 440.47 1190.64 420.79 1045.60 517.51 987.91 674.32 1169.01 658.28
00005556 00000030 887.90 175.99 473.08 679.93 963.96 446.94 1188.82 425.78 1043.91 526.65 989.41 684.46 1166.25 667.18
00005557 00000031 883.60 177.97 473.90 680.60 962.71 450.77 1187.86 430.91 1043.63 535.31 988.77 689.24 1164.97 673.03
00005558 00000032 884.73 202.05 469.98 651.40 960.17 453.14 1185.97 431.32 1042.93 541.58 988.76 691.11 1165.88 672.96
00005559 00000033 884.49 197.16 469.14 656.52 960.24 456.42 1187.82 434.76 1044.68 546.71 988.93 692.65 1170.41 674.22
00005560 00000034 884.62 204.63 471.16 651.05 961.50 460.19 1190.87 438.23 1047.80 551.53 990.99 695.79 1176.58 676.60
00005561 00000035 885.87 183.60 473.68 678.33 963.10 465.91 1193.65 442.12 1051.11 555.80 992.07 700.05 1182.48 679.24
00005562 00000036 890.07 181.88 470.78 685.86 966.06 477.16 1186.30 452.79 1052.88 560.26 996.84 703.83 1176.66 683.77
00005563 00000037 887.16 183.07 476.19 703.55 969.39 485.34 1186.28 459.17 1048.56 563.76 998.26 712.22 1176.80 690.40
00005564 00000038 887.19 181.96 474.13 712.15 971.30 490.20 1184.00 464.35 1047.86 563.46 1000.45 717.25 1172.15 696.17
00005565 00000039 888.59 184.29 473.54 711.07 970.66 488.77 1186.05 461.04 1050.06 564.41 1003.19 719.04 1175.94 696.23
00005566 00000040 891.37 191.34 474.90 699.08 971.46 486.60 1188.16 459.27 1054.75 568.73 1008.17 718.87 1179.32 696.15
00005567 00000041 891.72 202.85 474.06 682.03 966.95 485.79 1188.76 457.65 1055.79 573.69 1006.55 721.03 1181.40 697.40
00005568 00000042 887.82 206.09 475.44 673.61 964.40 484.40 1186.78 459.29 1054.02 576.72 1004.03 719.29 1178.25 698.16
00005569 00000043 881.97 212.70 476.19 663.21 958.34 486.97 1183.18 461.82 1050.24 581.89 1000.70 719.29 1177.19 698.26
00005570 00000044 877.84 217.24 478.54 659.09 950.72 489.07 1178.26 462.80 1044.24 585.67 994.61 722.20 1174.87 700.25
00005571 00000045 875.55 231.16 484.97 644.37 947.42 489.62 1174.24 463.03 1039.40 589.56 993.30 723.66 1171.58 701.42
00005572 00000046 872.82 228.57 484.27 648.95 945.45 491.05 1170.64 464.65 1037.40 593.10 992.47 725.38 1169.47 703.30
00005573 00000047 871.68 222.56 485.96 658.91 945.67 492.75 1170.90 467.06 1036.72 595.74 991.98 727.64 1169.61 706.15
00005574 00000048 870.91 233.51 489.60 653.23 945.05 496.21 1172.30 467.86 1038.32 598.71 993.49 731.15 1173.26 707.22
00005575 00000049 876.61 241.49 488.58 652.24 947.78 499.02 1174.62 465.91 1041.00 599.21 999.53 736.37 1179.48 708.16
00005576 00000050 879.61 244.89 486.51 657.60 951.38 501.52 1175.51 464.88 1044.55 598.08 1006.90 741.59 1183.28 710.22
00005577 00000051 881.75 251.26 492.56 654.55 955.03 501.27 1178.29 462.87 1047.54 595.62 1013.29 742.77 1187.70 709.90
00005578 00000052 881.84 239.43 492.26 660.83 954.78 502.62 1175.38 461.21 1046.86 596.02 1014.49 742.03 1186.85 706.76
00005579 00000053 882.55 239.44 493.02 654.83 952.34 503.66 1172.09 462.48 1041.90 596.93 1011.75 740.27 1182.55 705.26
00005580 00000054 882.33 222.87 495.30 668.56 952.66 501.82 1170.51 464.87 1038.41 600.83 1009.65 737.63 1178.61 706.26
00005581 00000055 884.09 237.79 491.91 650.34 951.49 501.74 1171.51 466.69 1038.29 602.60 1007.29 736.34 1178.33 706.54
00005582 00000056 888.48 236.27 490.88 651.15 954.19 501.81 1174.44 468.42 1039.32 603.97 1007.50 735.43 1180.61 707.00
00005583 00000057 890.93 225.47 492.22 662.68 956.46 503.29 1179.28 469.39 1042.27 604.45 1008.85 737.88 1186.17 709.08
00005584 00000058 890.73 228.86 491.28 659.93 958.13 503.42 1182.21 468.83 1046.35 605.88 1012.31 739.02 1190.80 709.57
00005585 00000059 891.12 237.22 493.66 648.05 957.53 502.74 1184.43 467.42 1048.33 605.18 1013.30 738.54 1194.90 708.15
00005586 00000060 891.69 239.76 489.30 641.57 956.49 500.62 1186.77 465.34 1049.78 600.16 1008.99 735.79 1195.37 705.75
00005587 00000061 889.17 223.92 482.88 651.76 954.17 498.20 1186.00 462.90 1050.54 595.91 1005.06 732.42 1193.01 702.61
00005588 00000062 889.52 227.05 485.16 648.69 952.95 500.30 1185.36 466.32 1047.55 597.14 1002.65 733.44 1191.14 704.84
00005589 00000063 892.17 244.91 483.68 630.97 952.89 498.00 1184.35 469.30 1042.96 598.32 998.55 731.14 1184.62 707.03
00005590 00000064 892.10 231.51 485.20 641.14 953.57 493.89 1181.14 468.96 1038.51 596.93 996.76 726.51 1176.10 705.67
00005591 00000065 892.59 212.31 479.24 658.65 953.22 490.97 1172.81 469.45 1031.15 594.55 993.32 722.68 1165.95 704.89
00005592 00000066 893.03 202.94 479.05 668.48 952.38 492.48 1164.16 472.28 1022.91 593.29 988.85 723.29 1155.60 706.90
00005593 00000067 894.00 211.35 476.00 662.35 951.62 491.20 1161.01 473.93 1017.85 595.62 986.40 723.22 1152.28 709.07
00005594 00000068 895.98 188.82 476.89 688.50 955.21 493.03 1164.02 475.81 1021.30 597.45 988.66 725.07 1153.21 711.25
00005595 00000069 898.93 186.26 473.29 696.62 960.21 495.40 1172.92 477.65 1030.69 600.26 994.21 728.04 1162.29 713.68
00005596 00000070 902.30 204.37 476.93 676.12 964.53 499.47 1180.23 479.22 1040.26 600.48 1001.30 730.24 1171.34 713.48
00005597 00000071 904.47 196.88 476.18 683.57 968.39 500.96 1185.85 479.95 1046.92 600.44 1002.48 729.91 1176.37 712.52
00005598 00000072 904.81 209.48 476.53 670.92 967.66 498.82 1186.97 479.03 1047.79 601.62 1002.35 728.96 1177.96 712.47
00005599 00000073 903.13 202.96 473.01 677.70 967.30 498.77 1183.69 478.63 1046.60 599.21 1001.37 728.67 1174.09 712.04
00005600 00000074 901.06 203.11 472.46 677.99 966.77 498.37 1182.66 478.25 1046.29 599.35 1001.27 728.41 1173.02 711.96
00005601 00000075 900.01 202.73 472.01 679.74 966.79 497.74 1182.80 477.95 1045.67 599.87 1000.72 728.07 1173.40 711.90
00005602 00000076 900.00 204.72 473.89 677.08 966.93 499.60 1184.53 479.53 1048.46 601.61 1001.96 728.67 1175.04 712.30
00005603 00000077 900.22 203.74 471.27 676.81 968.49 502.23 1185.67 480.59 1051.56 602.43 1004.42 729.49 1176.40 711.82
00005604 00000078 900.79 207.84 469.44 674.45 968.14 503.70 1185.86 482.39 1051.95 604.66 1004.70 732.08 1177.92 714.55
00005605 00000079 899.89 207.23 471.09 675.56 967.47 504.11 1184.92 483.69 1051.32 607.17 1004.60 732.96 1177.82 716.14
00005606 00000080 899.22 210.34 471.40 673.32 965.85 503.68 1185.49 483.59 1050.46 608.10 1003.53 733.68 1176.88 717.29
00005607 00000081 899.60 214.08 470.23 669.92 965.78 502.73 1185.65 483.89 1049.71 607.95 1002.02 732.52 1176.28 717.17
00005608 00000082 900.74 213.06 469.35 669.87 965.43 503.87 1185.91 484.70 1050.29 607.69 1002.32 733.65 1175.47 718.11
00005609 00000083 902.20 207.45 467.51 673.38 968.92 503.10 1188.35 485.54 1054.14 606.32 1003.36 731.58 1176.80 717.48
00005610 00000084 904.17 201.16 466.81 679.50 971.00 503.00 1191.04 484.31 1056.14 604.06 1004.67 731.41 1177.48 716.39
00005611 00000085 905.45 209.89 467.52 668.06 972.54 501.27 1190.42 482.10 1056.26 602.22 1007.93 729.98 1175.91 714.50
00005612 00000086 904.07 207.98 469.46 669.73 970.87 499.60 1188.95 479.99 1054.82 599.99 1006.73 728.79 1173.24 713.02
00005613 00000087 904.23 208.47 470.04 669.46 969.26 497.97 1186.75 479.47 1051.96 600.13 1004.40 728.43 1170.44 713.73
00005614 00000088 903.07 212.79 468.04 665.55 966.03 499.09 1185.24 481.16 1049.56 602.63 1001.38 730.76 1170.44 716.49
00005615 00000089 901.43 211.70 468.50 668.02 964.11 502.77 1184.19 485.01 1046.16 603.71 999.42 733.87 1169.95 719.57
00005616 00000090 900.75 197.44 466.75 683.79 967.69 506.60 1184.24 486.24 1046.37 599.88 1000.95 736.46 1167.89 720.31
00005617 00000091 901.20 194.22 460.66 687.84 968.12 506.64 1180.57 488.85 1044.55 599.13 999.15 735.65 1164.71 721.53
00005618 00000092 901.86 202.52 458.33 678.80 966.77 507.41 1178.32 489.40 1042.31 599.09 997.76 735.07 1162.54 720.74
00005619 00000093 902.74 182.00 458.88 698.32 965.47 506.59 1175.49 489.04 1037.84 599.63 994.50 734.16 1158.87 720.56
00005620 00000094 901.03 182.24 459.77 697.71 963.24 508.28 1169.07 490.20 1033.12 600.66 992.11 734.01 1154.90 719.99
00005621 00000095 900.39 175.86 460.83 703.23 961.90 508.13 1163.90 491.94 1027.27 602.05 989.54 732.03 1151.00 719.57
00005622 00000096 900.18 179.40 461.73 698.30 962.36 509.54 1163.18 496.16 1025.57 604.11 987.66 730.64 1149.63 720.59
00005623 00000097 900.41 182.71 462.80 696.84 962.68 511.80 1162.87 498.87 1024.58 605.30 987.60 733.14 1148.19 723.44
00005624 00000098 902.59 185.09 463.66 693.84 963.13 509.60 1162.24 497.25 1024.16 605.53 989.96 733.00 1149.33 723.72
00005625 00000099 903.45 181.36 462.73 698.30 963.32 507.00 1165.39 492.82 1027.65 605.66 991.77 734.07 1151.32 723.37
00005626 00000100 902.46 188.91 461.28 691.54 961.61 501.19 1169.56 486.66 1030.05 605.94 992.52 734.28 1153.76 723.32
00005627 00000101 901.74 188.82 467.13 692.75 960.72 496.06 1172.65 481.54 1030.10 606.89 994.19 734.68 1155.26 723.58
00005628 00000102 902.83 197.81 468.92 682.86 960.54 492.28 1172.09 478.87 1029.40 605.42 994.85 733.55 1153.95 723.25
00005629 00000103 903.76 198.21 467.39 681.78 961.10 490.04 1172.21 476.98 1029.62 604.28 994.91 732.45 1152.96 722.59
00005630 00000104 902.76 197.90 468.50 682.26 960.90 489.53 1173.43 475.90 1030.51 603.71 995.00 733.11 1153.62 722.77
00005631 00000105 903.28 202.29 469.54 678.22 959.89 489.73 1174.61 476.66 1031.07 606.08 994.70 732.88 1155.35 722.93
00005632 00000106 902.19 201.48 470.35 678.85 958.46 490.00 1174.27 477.07 1030.56 606.41 993.66 733.09 1154.99 723.26
00005633 00000107 901.23 199.79 469.74 680.42 957.61 489.88 1172.34 476.79 1029.05 606.09 992.47 733.41 1153.12 723.57
00005634 00000108 899.95 199.52 470.57 680.20 956.25 488.42 1171.74 475.27 1027.94 605.45 990.85 733.28 1152.26 723.51
00005635 00000109 898.38 203.13 473.97 678.63 955.06 487.96 1169.99 474.57 1025.64 605.03 990.24 732.98 1151.96 722.89
00005636 00000110 897.85 199.46 473.72 682.93 954.94 487.98 1168.35 474.80 1023.95 604.93 989.47 732.72 1150.93 722.86
00005637 00000111 897.82 197.53 473.34 685.78 954.92 489.09 1168.28 475.06 1024.07 604.96 989.26 733.21 1150.96 722.66
00005638 00000112 897.89 205.08 473.67 678.95 954.91 489.63 1168.72 475.42 1024.06 605.43 990.53 734.05 1151.62 723.27
00005639 00000113 898.18 205.70 474.27 678.46 954.86 490.02 1169.07 475.57 1024.34 605.56 990.86 734.23 1152.37 723.18
00005640 00000114 899.01 201.96 473.72 681.28 956.08 489.64 1170.19 475.53 1025.47 605.33 991.73 733.83 1152.78 723.03
00005641 00000115 899.64 209.53 474.24 675.41 956.38 490.26 1169.86 475.07 1025.70 605.50 993.78 734.41 1153.96 722.52
00005642 00000116 898.65 223.50 476.66 662.07 953.52 490.01 1167.89 473.41 1023.52 606.96 994.77 735.87 1154.27 722.55
00005643 00000117 898.68 212.06 475.86 673.72 953.69 492.01 1165.11 473.50 1020.31 607.25 993.82 736.37 1154.51 721.53
00005644 00000118 897.23 212.12 474.66 674.88 950.68 493.39 1159.25 473.83 1015.93 607.82 990.87 736.89 1150.46 721.31
00005645 00000119 896.71 206.80 474.34 679.30 950.88 491.68 1159.84 472.86 1015.29 606.22 989.62 734.90 1150.73 719.97
00005646 00000120 895.46 215.32 476.31 670.73 949.53 490.78 1160.58 473.50 1015.54 606.82 988.75 734.65 1151.07 720.89
00005647 00000121 896.04 214.40 476.91 670.69 951.07 490.40 1161.76 472.87 1017.69 607.03 991.33 735.29 1151.91 721.32
00005648 00000122 895.80 217.84 477.50 666.74 949.49 491.27 1160.06 473.60 1015.39 607.07 988.60 734.72 1150.90 720.58
00005649 00000123 895.93 206.58 473.65 676.52 948.24 491.34 1157.50 473.40 1011.96 605.75 984.55 732.49 1147.69 718.39
00005650 00000124 896.62 196.78 471.06 681.70 949.00 488.75 1156.40 473.45 1010.02 604.13 982.62 730.04 1144.41 718.36
00005651 00000125 896.34 201.39 469.44 674.56 947.54 490.24 1156.36 473.88 1010.16 603.98 981.27 729.92 1144.17 717.39
00005652 00000126 895.55 194.56 469.82 681.96 947.35 490.29 1154.96 476.02 1008.97 606.07 979.69 729.22 1143.71 718.49
CROP_BBOX: 593 0 1662 1058
