Video ID: 	SQu4I8XOXqs
H: 	2160
W: 	3840
FPS: 	25.0

FRAME INDEX X0 Y0 W H [Landmarks (5 Points)]

00001527 00000000 1751.71 283.54 509.73 705.68 1904.10 543.33 2136.09 566.60 2018.75 654.79 1905.69 792.31 2078.86 812.67
00001528 00000001 1751.49 285.70 508.42 717.05 1901.17 548.21 2134.10 569.93 2017.15 658.44 1905.97 804.07 2077.48 822.57
00001529 00000002 1756.83 291.49 511.19 724.59 1908.32 554.14 2150.83 573.81 2034.61 671.51 1915.26 821.02 2098.77 837.01
00001530 00000003 1763.56 297.61 503.82 728.21 1928.10 561.89 2167.57 581.28 2062.78 683.35 1925.34 822.97 2127.09 838.42
00001531 00000004 1766.47 296.16 503.45 726.48 1941.92 566.62 2177.30 583.44 2083.86 689.32 1937.17 826.26 2150.13 840.04
00001532 00000005 1768.68 297.47 502.26 724.04 1947.69 568.24 2180.20 584.26 2092.01 694.61 1945.45 828.97 2152.87 841.86
00001533 00000006 1764.27 297.97 507.73 730.35 1945.52 567.39 2179.12 583.29 2088.28 691.56 1952.26 832.80 2143.61 844.43
00001534 00000007 1759.43 296.01 507.70 734.94 1936.94 566.79 2170.51 581.82 2076.63 690.56 1944.90 832.26 2129.71 843.02
00001535 00000008 1749.21 300.64 514.10 731.69 1915.82 568.25 2153.01 581.58 2051.37 688.92 1922.55 831.43 2109.67 841.49
00001536 00000009 1736.42 298.28 516.63 752.71 1901.28 568.38 2129.44 581.96 2022.56 683.67 1903.88 834.20 2092.99 847.11
00001537 00000010 1731.34 300.30 512.85 757.35 1882.60 562.88 2122.82 577.72 2004.87 679.30 1882.07 836.09 2089.10 850.46
00001538 00000011 1731.84 298.34 511.01 753.97 1882.49 563.38 2123.33 576.00 2007.57 681.28 1881.85 836.87 2096.82 849.39
00001539 00000012 1736.20 298.25 511.90 745.20 1902.01 568.99 2130.14 578.36 2030.28 686.52 1897.47 831.36 2110.20 841.97
00001540 00000013 1745.85 300.01 503.98 734.59 1921.84 568.10 2145.60 577.34 2056.15 688.05 1920.75 828.17 2128.76 837.31
00001541 DELETE   1755.00 300.15 501.49 724.94 1938.13 569.25 2170.68 582.33 2084.91 687.38 1936.14 824.13 2143.85 834.54
00001542 DELETE   1764.27 298.04 500.13 724.74 1961.23 570.07 2181.40 582.64 2114.21 691.85 1956.47 824.28 2161.91 834.71
00001543 00000016 1772.33 303.11 497.47 714.04 1983.16 577.19 2195.33 587.73 2143.01 694.01 1979.18 820.36 2178.89 829.68
00001544 00000017 1776.38 304.45 495.35 711.43 1996.06 581.86 2201.48 592.01 2154.66 694.43 1992.33 820.22 2183.76 829.23
00001545 00000018 1773.80 305.78 495.50 714.19 2000.46 587.60 2201.12 597.18 2158.39 702.05 1992.62 821.49 2179.79 830.58
00001546 00000019 1768.76 304.86 495.64 718.49 1999.08 589.13 2195.59 599.27 2154.54 705.53 1988.43 824.45 2171.11 834.09
00001547 00000020 1760.72 306.00 497.40 723.95 1986.53 588.38 2185.31 595.72 2145.39 706.51 1974.12 829.92 2161.29 837.67
00001548 00000021 1746.36 311.07 496.23 738.47 1965.61 584.38 2167.28 593.53 2124.45 709.57 1956.41 838.21 2143.14 846.10
00001549 00000022 1728.68 319.27 497.54 734.15 1940.74 589.91 2151.40 592.63 2101.86 707.62 1946.58 844.21 2134.26 847.67
00001550 00000023 1715.58 322.18 496.66 718.97 1923.32 589.35 2135.45 594.75 2077.92 709.44 1933.17 839.93 2123.12 844.49
00001551 00000024 1707.30 313.80 496.52 726.12 1904.09 583.87 2119.81 588.14 2059.44 700.59 1915.47 836.27 2108.32 839.57
00001552 00000025 1696.06 302.99 501.16 744.12 1887.46 570.25 2110.82 579.30 2041.00 686.89 1898.55 837.74 2093.89 844.16
00001553 00000026 1684.58 294.21 506.84 735.58 1874.40 562.86 2105.72 573.28 2030.07 670.88 1889.43 830.09 2089.24 837.34
00001554 00000027 1670.96 279.77 510.83 733.17 1871.08 556.97 2089.81 561.67 2022.06 659.24 1894.49 812.41 2076.99 814.92
00001555 00000028 1661.49 275.61 514.41 725.90 1862.88 550.25 2081.83 554.78 2011.23 647.98 1893.17 803.34 2066.74 804.45
00001556 00000029 1652.02 270.63 515.44 721.85 1855.89 547.58 2073.73 552.02 2004.63 647.78 1886.52 798.05 2059.39 798.74
00001557 00000030 1646.82 272.87 513.60 714.12 1847.08 546.68 2067.43 549.43 1997.05 646.02 1879.98 799.14 2052.69 798.15
00001558 00000031 1643.06 274.23 511.76 712.87 1841.12 550.58 2061.36 551.07 1991.33 644.93 1876.16 802.50 2047.59 799.63
00001559 00000032 1638.05 275.12 510.95 712.84 1833.91 555.49 2056.72 554.71 1986.94 646.07 1865.92 805.61 2043.75 802.39
00001560 00000033 1633.92 283.49 508.86 706.06 1829.26 560.51 2050.91 559.53 1981.42 650.22 1859.04 807.54 2038.74 804.36
00001561 00000034 1629.31 289.95 506.77 704.77 1823.79 566.40 2043.78 564.39 1976.08 656.66 1853.62 813.20 2031.84 809.02
00001562 00000035 1628.44 295.26 504.65 722.12 1814.42 567.02 2045.52 567.59 1968.44 656.59 1853.43 824.45 2022.08 823.32
00001563 00000036 1627.20 299.09 503.10 721.33 1813.09 569.45 2041.86 567.27 1966.89 653.41 1857.92 826.70 2020.76 823.26
00001564 00000037 1623.70 291.81 507.09 721.81 1812.78 567.76 2039.73 561.85 1966.78 653.17 1861.03 818.20 2022.55 812.34
00001565 00000038 1624.58 286.84 506.95 717.42 1813.03 563.12 2041.28 557.83 1967.98 653.49 1858.78 814.87 2026.37 809.41
00001566 00000039 1626.09 283.69 506.53 721.45 1811.16 561.79 2041.42 555.91 1965.04 651.38 1856.74 818.08 2026.50 811.93
00001567 00000040 1625.52 287.21 505.35 722.87 1809.27 560.24 2040.39 557.44 1963.05 649.26 1853.15 821.00 2023.03 816.99
00001568 00000041 1624.41 283.35 506.11 728.77 1809.20 559.29 2039.08 556.97 1962.02 649.99 1850.58 819.34 2022.44 815.98
00001569 00000042 1623.40 281.74 506.38 728.88 1807.19 558.77 2037.11 554.96 1959.62 650.18 1848.04 816.23 2022.56 811.86
00001570 00000043 1620.86 280.80 506.76 728.40 1805.31 555.95 2034.50 552.67 1957.17 648.31 1844.18 812.22 2019.81 808.43
00001571 00000044 1619.89 284.25 506.80 732.25 1800.91 557.24 2031.63 554.15 1953.95 644.35 1838.49 812.76 2017.11 809.53
00001572 00000045 1619.47 287.30 505.11 733.03 1800.66 560.29 2032.46 559.04 1953.20 649.48 1835.95 820.07 2015.41 818.03
00001573 00000046 1620.84 294.78 500.57 732.80 1802.48 567.33 2032.90 567.56 1957.70 658.11 1832.08 828.60 2016.63 828.05
00001574 00000047 1624.29 306.26 497.62 733.80 1806.83 575.16 2034.20 576.76 1963.54 670.50 1828.03 837.92 2016.54 838.53
00001575 00000048 1627.10 310.28 494.13 736.69 1812.15 583.34 2032.79 582.42 1969.43 685.03 1828.92 845.67 2017.04 844.24
00001576 00000049 1625.08 312.81 495.72 737.21 1815.39 592.73 2032.48 591.55 1970.75 694.90 1827.66 849.85 2018.29 848.69
00001577 00000050 1624.29 313.26 494.37 737.44 1816.67 601.45 2032.27 599.38 1973.28 707.01 1828.34 854.79 2020.56 852.99
00001578 00000051 1617.34 315.46 501.49 748.79 1815.60 610.89 2039.00 608.78 1972.25 725.65 1828.42 862.56 2020.79 861.43
00001579 00000052 1612.18 314.06 505.41 763.47 1813.75 613.30 2036.86 612.55 1971.57 728.12 1827.00 869.43 2014.86 869.41
00001580 00000053 1609.88 314.59 505.87 774.17 1810.46 614.48 2034.66 614.17 1968.72 729.46 1823.87 879.57 2011.38 879.66
00001581 00000054 1606.31 309.53 507.84 779.60 1809.24 615.28 2033.17 613.76 1967.90 728.73 1823.83 879.01 2010.67 878.26
00001582 00000055 1602.41 308.40 506.96 779.65 1806.07 614.47 2030.03 610.45 1966.06 726.64 1821.56 876.14 2009.28 873.57
00001583 00000056 1598.46 307.78 504.76 778.51 1800.99 613.62 2025.93 609.87 1961.83 724.25 1815.72 873.50 2006.27 871.45
00001584 00000057 1594.39 310.24 505.04 776.70 1797.30 613.77 2022.59 610.51 1957.68 721.92 1812.30 872.61 2002.91 871.12
00001585 00000058 1591.29 312.08 504.85 778.62 1794.75 616.05 2019.28 612.96 1954.23 723.35 1810.80 875.49 1998.82 874.09
00001586 00000059 1586.21 321.39 509.12 773.71 1796.64 619.92 2012.28 616.86 1954.20 731.85 1811.99 880.82 1999.19 880.09
00001587 00000060 1580.66 318.72 511.10 780.46 1793.17 624.28 2010.73 622.58 1950.02 738.09 1804.92 881.83 1995.84 882.67
00001588 00000061 1574.33 323.94 509.08 776.95 1781.89 625.91 2011.20 626.30 1943.07 740.82 1800.86 885.67 1993.81 887.59
00001589 00000062 1570.80 330.42 506.34 757.65 1777.31 627.06 2008.19 627.37 1939.04 739.51 1798.14 885.92 1991.84 887.08
00001590 00000063 1565.53 336.84 500.29 757.21 1770.94 631.41 2001.59 631.69 1935.91 739.55 1793.28 887.66 1984.36 888.69
00001591 00000064 1559.38 339.31 502.20 763.03 1765.31 627.98 1996.47 629.94 1926.82 735.74 1790.53 888.33 1975.57 890.07
00001592 00000065 1554.88 334.02 502.83 768.89 1760.82 627.73 1988.79 629.82 1920.77 732.31 1785.97 887.94 1967.69 889.76
00001593 00000066 1545.00 319.02 507.13 784.16 1753.01 622.83 1979.79 623.46 1914.75 727.56 1778.97 884.00 1958.87 884.83
00001594 00000067 1538.46 316.48 509.56 785.05 1743.27 617.71 1968.36 615.18 1904.53 723.94 1769.03 881.12 1949.05 879.35
00001595 00000068 1532.63 309.90 507.72 782.09 1736.24 615.36 1959.93 609.98 1901.03 721.41 1759.93 872.74 1950.63 869.33
00001596 00000069 1523.17 316.56 516.28 764.94 1739.55 618.20 1953.43 612.25 1903.03 721.56 1756.02 868.24 1949.03 863.96
00001597 00000070 1519.41 314.97 516.35 763.73 1735.57 619.40 1949.14 612.08 1899.95 721.06 1752.74 867.13 1945.90 861.97
00001598 00000071 1518.87 314.83 513.50 754.40 1726.14 616.37 1945.22 607.70 1892.37 726.12 1750.71 866.98 1944.81 860.63
00001599 00000072 1517.96 315.19 513.68 756.11 1721.19 618.16 1941.86 608.23 1886.82 728.58 1744.16 869.61 1942.85 862.52
00001600 00000073 1516.76 316.93 514.33 751.24 1714.68 619.76 1937.53 607.00 1879.21 729.14 1739.38 868.60 1941.03 859.20
00001601 00000074 1515.75 316.78 512.85 750.19 1710.94 618.86 1933.60 605.12 1873.67 725.64 1735.80 867.66 1938.50 857.52
00001602 00000075 1515.30 313.85 513.76 751.45 1710.51 613.27 1933.08 601.68 1869.80 718.90 1736.04 863.31 1933.70 854.92
00001603 00000076 1516.73 312.77 513.08 748.86 1708.84 607.02 1931.59 595.56 1868.10 710.63 1736.46 860.52 1931.56 852.15
00001604 00000077 1514.93 313.67 514.47 748.91 1710.59 601.81 1926.83 590.11 1868.55 698.14 1736.82 853.95 1933.12 844.94
00001605 00000078 1523.52 312.61 507.44 734.89 1706.40 592.20 1931.03 579.10 1866.46 688.59 1741.43 846.89 1935.53 837.12
00001606 00000079 1525.57 305.29 511.26 739.25 1711.52 584.08 1932.16 571.72 1864.13 670.95 1743.51 837.89 1937.27 828.24
00001607 00000080 1535.31 297.44 513.07 761.60 1710.45 571.10 1948.13 559.29 1869.23 660.90 1747.40 841.36 1942.18 831.53
00001608 00000081 1542.38 299.19 514.29 764.25 1720.39 571.58 1958.32 561.64 1878.07 662.61 1755.28 844.37 1951.81 836.06
00001609 00000082 1555.93 308.16 512.76 763.28 1736.49 580.15 1967.62 569.51 1891.08 674.61 1765.69 849.94 1966.20 841.24
00001610 00000083 1567.62 309.32 513.08 757.18 1753.87 592.11 1980.02 580.41 1908.35 696.11 1781.94 857.29 1980.59 847.51
00001611 00000084 1583.63 318.46 509.29 742.66 1768.71 600.52 1994.33 588.19 1921.57 704.97 1796.82 862.21 1994.85 852.77
00001612 00000085 1595.65 320.16 508.38 736.18 1781.41 605.84 2007.48 593.60 1933.44 716.78 1809.05 862.88 2006.66 854.07
00001613 00000086 1611.20 316.83 497.09 734.48 1793.65 606.35 2016.72 596.00 1950.10 713.75 1812.71 858.90 2017.67 849.11
00001614 00000087 1618.16 315.40 500.30 728.47 1805.23 605.58 2024.42 592.33 1964.29 711.56 1824.59 855.22 2028.92 843.68
00001615 00000088 1625.16 313.01 500.24 728.92 1817.88 601.95 2032.73 589.34 1980.96 707.34 1832.19 851.58 2036.88 841.56
00001616 00000089 1633.04 313.11 501.37 726.37 1829.38 596.31 2041.13 588.04 1989.02 705.56 1843.42 848.72 2042.33 841.81
00001617 00000090 1640.83 312.52 504.91 721.04 1836.37 590.62 2051.47 583.56 1997.31 701.54 1849.82 843.59 2050.73 838.06
00001618 00000091 1643.83 311.45 505.62 712.16 1841.20 584.31 2060.74 580.74 2004.57 697.31 1854.05 834.46 2059.77 832.14
00001619 00000092 1647.34 305.35 505.06 709.12 1844.33 576.30 2069.60 576.67 2007.46 690.11 1858.52 827.16 2064.79 827.93
00001620 00000093 1643.43 295.97 513.08 713.90 1852.03 563.69 2072.21 570.52 2011.16 676.79 1861.79 815.94 2063.78 820.43
00001621 00000094 1643.09 288.27 513.76 708.26 1851.66 556.14 2072.12 563.54 2007.35 661.48 1864.51 804.73 2061.08 808.97
00001622 00000095 1643.69 281.45 510.32 707.92 1849.76 551.13 2069.11 558.03 2005.54 650.61 1865.00 797.05 2059.57 800.82
00001623 00000096 1643.23 276.70 505.13 698.88 1850.24 538.83 2067.71 548.91 2004.42 635.71 1869.25 785.06 2052.57 790.58
00001624 00000097 1643.34 271.66 498.79 689.54 1850.67 526.96 2063.37 542.88 1999.17 625.73 1863.51 769.47 2045.33 779.49
00001625 00000098 1642.74 266.44 491.74 693.40 1846.60 519.66 2058.08 537.78 1994.79 618.21 1859.34 762.83 2039.35 774.67
00001626 00000099 1638.66 262.99 490.25 699.15 1841.70 514.78 2051.87 538.94 1989.43 613.34 1852.90 759.72 2029.73 776.49
00001627 00000100 1634.78 261.21 494.96 698.82 1838.00 510.90 2050.04 543.43 1984.80 609.86 1848.09 756.53 2020.15 780.11
00001628 00000101 1634.49 258.07 493.61 700.36 1836.06 505.59 2051.05 539.91 1984.52 603.90 1844.58 752.63 2021.02 777.99
00001629 00000102 1634.50 258.18 494.09 688.84 1831.22 500.86 2051.79 535.30 1980.67 594.69 1841.35 747.76 2024.00 773.56
00001630 00000103 1633.42 256.58 496.32 686.32 1829.22 497.67 2053.63 532.61 1979.91 589.10 1838.59 744.77 2026.95 771.46
00001631 00000104 1634.35 257.80 495.84 685.58 1830.54 500.80 2053.46 537.50 1982.11 594.79 1837.26 744.64 2027.12 772.98
00001632 00000105 1637.67 266.41 491.82 683.73 1836.09 511.30 2051.94 546.24 1985.30 610.54 1835.85 753.88 2026.51 780.65
00001633 00000106 1636.30 277.62 494.50 691.68 1841.54 526.23 2050.71 558.15 1986.85 629.67 1840.01 769.24 2023.04 792.79
00001634 00000107 1636.16 292.47 496.49 694.93 1841.99 544.36 2052.53 571.88 1986.85 656.29 1833.72 789.80 2024.35 810.07
00001635 00000108 1639.98 301.88 496.67 702.64 1840.46 555.95 2057.75 589.44 1983.70 679.60 1825.82 803.45 2019.69 830.21
00001636 00000109 1641.20 305.62 495.18 708.23 1841.08 563.33 2055.68 595.58 1981.56 695.25 1822.31 812.89 2016.97 839.10
00001637 00000110 1643.15 310.28 493.17 709.19 1840.78 571.90 2054.22 601.04 1982.75 702.01 1820.84 819.89 2018.20 844.16
00001638 00000111 1645.04 310.05 491.57 711.17 1842.83 574.33 2054.12 602.58 1984.22 706.98 1821.78 820.94 2018.50 844.71
00001639 00000112 1645.74 308.98 491.70 709.61 1843.17 574.10 2055.19 602.97 1984.55 705.86 1823.03 819.37 2019.28 843.52
00001640 00000113 1646.30 308.18 492.20 703.02 1842.28 571.78 2056.24 601.27 1983.84 700.46 1822.90 813.56 2021.17 838.26
00001641 00000114 1645.29 303.45 495.47 706.32 1840.53 564.85 2058.64 595.45 1982.45 694.32 1825.08 809.28 2023.13 834.31
00001642 00000115 1646.02 300.53 497.05 705.44 1840.26 559.08 2060.92 590.82 1983.15 684.80 1826.32 804.63 2024.77 830.25
00001643 00000116 1642.60 292.21 503.11 703.51 1843.40 553.68 2057.90 582.44 1984.41 673.77 1830.08 797.51 2025.22 820.01
00001644 00000117 1642.32 293.66 504.65 693.85 1844.32 546.62 2061.25 575.09 1985.95 665.72 1834.15 792.20 2029.79 813.72
00001645 00000118 1644.32 288.80 503.87 695.99 1846.43 542.23 2063.27 569.23 1988.87 658.00 1841.67 790.51 2031.78 810.32
00001646 00000119 1647.72 282.00 503.62 703.06 1848.64 539.39 2065.81 565.36 1990.96 651.51 1847.44 789.33 2034.24 808.22
00001647 00000120 1649.46 278.69 503.04 709.01 1851.42 536.42 2066.62 562.54 1993.56 643.70 1854.17 786.99 2034.78 805.67
00001648 00000121 1650.90 279.30 504.39 709.87 1852.56 535.53 2067.70 562.58 1995.29 638.18 1859.00 785.13 2036.27 804.59
00001649 00000122 1652.16 278.27 503.86 711.00 1854.37 533.52 2068.93 561.75 1996.98 635.33 1861.47 782.78 2037.15 803.31
00001650 00000123 1652.81 277.49 503.39 713.26 1855.57 533.49 2069.36 561.93 1998.83 634.34 1863.38 782.76 2038.29 803.52
00001651 00000124 1653.35 277.12 501.10 711.90 1856.96 532.10 2069.22 560.31 2001.11 632.69 1865.87 781.33 2039.59 801.86
00001652 00000125 1654.66 278.64 499.46 707.85 1859.06 532.13 2068.91 561.96 2003.52 629.19 1870.46 778.95 2040.45 800.77
00001653 00000126 1654.44 274.17 500.93 712.85 1861.06 531.41 2069.36 562.42 2005.50 627.92 1875.12 777.58 2039.91 800.35
00001654 00000127 1655.97 273.59 499.09 712.34 1864.52 531.38 2069.48 560.83 2007.14 629.27 1881.81 778.38 2039.62 799.33
00001655 00000128 1657.90 277.40 499.45 710.95 1868.65 534.00 2071.14 563.08 2009.04 630.80 1886.92 779.86 2040.75 800.30
00001656 00000129 1656.21 284.92 498.38 703.26 1867.49 536.62 2072.40 564.87 2008.76 632.44 1886.35 781.65 2040.71 801.11
00001657 00000130 1655.99 284.29 500.48 705.01 1867.65 537.91 2073.95 566.85 2008.89 634.73 1887.56 783.75 2041.90 803.53
00001658 00000131 1655.94 279.64 503.97 713.98 1869.42 539.59 2074.75 563.69 2012.13 635.33 1892.45 788.70 2044.80 804.48
00001659 00000132 1658.73 276.40 503.24 721.43 1871.39 540.70 2075.81 563.71 2013.90 637.19 1896.12 793.31 2046.38 808.13
00001660 00000133 1657.80 276.40 506.57 722.97 1871.12 543.75 2077.03 564.40 2012.83 642.51 1896.41 797.84 2048.44 810.23
00001661 00000134 1657.51 276.64 505.93 721.15 1868.94 545.84 2079.81 566.19 2014.09 653.43 1884.22 798.28 2056.64 811.22
00001662 00000135 1654.75 280.69 508.27 715.49 1868.66 549.28 2078.73 571.04 2012.31 663.98 1880.22 800.84 2052.84 814.89
00001663 00000136 1653.03 285.86 506.51 712.34 1866.06 551.24 2077.25 573.88 2010.68 671.04 1873.74 803.91 2050.79 818.99
00001664 00000137 1655.63 282.22 504.80 709.28 1867.33 546.30 2079.50 564.79 2013.50 658.30 1885.97 800.33 2055.82 811.15
00001665 DELETE   1660.31 266.02 498.73 710.68 1874.23 528.82 2079.07 543.65 2019.13 628.41 1909.45 777.05 2055.77 785.17
00001666 00000139 1664.58 249.15 489.53 707.78 1872.87 507.34 2075.89 524.62 2023.80 590.92 1921.93 747.91 2063.64 759.72
00001667 00000140 1670.24 231.85 488.95 707.78 1886.13 490.48 2073.09 507.78 2034.39 565.38 1932.36 720.73 2068.85 733.38
00001668 00000141 1669.46 217.74 493.51 702.80 1886.29 480.33 2078.24 508.15 2040.75 549.46 1934.08 703.45 2071.95 725.53
00001669 00000142 1669.35 218.62 496.73 709.89 1885.18 484.39 2079.20 511.04 2037.48 556.46 1926.63 710.21 2070.32 731.15
00001670 DELETE   1667.13 231.06 498.44 713.74 1872.36 498.95 2078.37 519.03 2025.96 576.45 1909.18 740.03 2070.11 755.48
00001671 DELETE   1662.97 256.81 508.34 717.10 1867.87 522.08 2085.44 544.63 2016.08 619.44 1894.38 773.82 2057.79 788.99
00001672 00000145 1658.66 276.09 513.59 729.46 1865.96 545.86 2082.87 566.70 2005.00 658.88 1881.61 809.00 2048.37 822.42
00001673 00000146 1657.61 296.31 508.46 727.61 1860.42 565.10 2081.51 590.26 2005.26 695.99 1864.45 827.01 2048.27 846.09
00001674 00000147 1659.12 305.95 510.44 745.37 1858.95 586.94 2076.94 607.39 1999.71 721.72 1859.81 850.14 2038.96 866.01
00001675 00000148 1657.75 312.80 512.34 746.56 1856.78 593.67 2077.63 613.33 1997.43 736.05 1856.12 860.12 2040.10 875.08
00001676 00000149 1653.29 314.72 515.28 749.42 1854.58 596.10 2077.05 615.35 1997.08 738.33 1853.54 862.67 2039.48 877.38
00001677 00000150 1650.29 311.27 515.80 748.99 1853.06 595.85 2074.03 611.84 1997.71 737.58 1853.12 860.92 2039.94 873.00
00001678 00000151 1646.27 306.46 517.46 745.60 1850.08 594.29 2070.94 607.10 1998.50 733.79 1850.47 856.68 2040.56 866.60
00001679 00000152 1646.32 305.31 516.76 742.89 1849.52 591.07 2069.68 603.41 1998.51 729.63 1850.55 852.81 2040.65 862.43
00001680 00000153 1646.25 305.65 516.00 740.08 1850.31 589.21 2069.46 601.78 1999.89 725.94 1851.26 849.90 2042.30 859.70
00001681 00000154 1646.73 300.96 516.63 741.89 1851.01 587.71 2071.00 601.34 2001.45 721.79 1851.33 847.07 2044.92 858.14
00001682 00000155 1648.35 300.56 515.16 738.30 1851.91 586.04 2071.73 599.95 2002.42 719.91 1853.90 845.36 2046.69 856.47
00001683 00000156 1647.91 299.64 515.42 736.03 1852.42 584.91 2072.90 599.44 2004.79 717.29 1854.96 843.62 2048.23 855.24
00001684 00000157 1646.28 298.51 515.70 727.86 1852.41 583.59 2074.41 598.21 2006.89 715.65 1854.97 840.88 2052.13 852.46
00001685 00000158 1646.65 300.21 513.18 719.21 1853.04 580.79 2074.43 596.38 2006.80 712.88 1856.19 837.05 2052.33 849.16
00001686 00000159 1645.91 297.94 515.38 735.05 1851.30 577.70 2074.82 594.23 2004.31 711.64 1858.62 843.85 2047.62 856.16
00001687 00000160 1649.29 297.00 512.84 752.63 1853.39 574.28 2073.52 590.60 2006.31 704.23 1860.92 849.17 2043.22 861.14
00001688 00000161 1653.04 293.43 512.32 747.24 1853.48 559.21 2079.83 579.83 2004.44 683.19 1863.34 834.55 2048.71 850.04
00001689 00000162 1651.07 273.92 517.15 745.55 1852.71 538.49 2084.95 561.59 2003.99 646.65 1874.38 804.68 2050.77 821.76
