Video ID: 	PmZZuiu-nCY
H: 	1080
W: 	1920
FPS: 	25.0

FRAME INDEX X0 Y0 W H [Landmarks (5 Points)]

00008164 00000000 493.31 56.87 270.42 357.71
00008165 DELETE   494.23 57.31 270.83 357.52
00008166 00000002 495.14 57.76 271.24 357.33
00008167 00000003 496.06 58.20 271.65 357.15
00008168 DELETE   496.97 58.65 272.06 356.96
00008169 DELETE   497.89 59.09 272.47 356.77
00008170 00000006 499.74 58.55 273.17 357.28
00008171 00000007 501.58 58.01 273.86 357.78
00008172 00000008 503.43 57.47 274.56 358.29
00008173 00000009 505.28 56.92 275.26 358.79
00008174 00000010 507.12 56.38 275.95 359.30
00008175 00000011 507.21 56.30 276.45 359.80
00008176 00000012 507.29 56.22 276.94 360.30
00008177 00000013 507.37 56.14 277.44 360.79
00008178 00000014 507.45 56.06 277.93 361.29
00008179 00000015 507.54 55.98 278.43 361.79
00008180 00000016 507.06 55.76 278.66 361.90
00008181 00000017 506.58 55.55 278.89 362.01
00008182 00000018 506.11 55.34 279.12 362.11
00008183 00000019 505.63 55.12 279.35 362.22
00008184 00000020 505.16 54.91 279.59 362.33
00008185 00000021 504.75 55.10 279.64 362.22
00008186 00000022 504.34 55.28 279.69 362.11
00008187 00000023 503.92 55.47 279.74 362.00
00008188 00000024 503.51 55.66 279.79 361.89
00008189 00000025 503.10 55.84 279.84 361.78
00008190 00000026 502.87 56.28 279.91 361.82
00008191 00000027 502.64 56.71 279.98 361.85
00008192 00000028 502.41 57.14 280.05 361.89
00008193 00000029 502.17 57.57 280.12 361.92
00008194 00000030 501.94 58.01 280.19 361.96
00008195 00000031 502.26 58.88 280.09 362.19
00008196 00000032 502.57 59.75 280.00 362.41
00008197 00000033 502.88 60.62 279.91 362.64
00008198 00000034 503.20 61.49 279.81 362.87
00008199 00000035 503.51 62.36 279.72 363.10
00008200 00000036 504.29 62.56 279.74 362.87
00008201 00000037 505.06 62.76 279.75 362.65
00008202 00000038 505.83 62.97 279.77 362.42
00008203 00000039 506.61 63.17 279.79 362.20
00008204 00000040 507.38 63.37 279.81 361.97
00008205 00000041 507.41 63.74 279.82 361.97
00008206 00000042 507.44 64.12 279.84 361.97
00008207 00000043 507.47 64.49 279.85 361.96
00008208 00000044 507.50 64.86 279.86 361.96
00008209 00000045 507.53 65.23 279.88 361.96
00008210 00000046 507.36 65.46 279.77 361.92
00008211 00000047 507.18 65.69 279.67 361.89
00008212 00000048 507.00 65.92 279.57 361.85
00008213 00000049 506.83 66.15 279.46 361.81
00008214 00000050 506.65 66.38 279.36 361.77
00008215 00000051 506.76 66.48 279.28 361.74
00008216 00000052 506.87 66.58 279.21 361.70
00008217 00000053 506.98 66.68 279.14 361.67
00008218 00000054 507.09 66.79 279.07 361.63
00008219 00000055 507.19 66.89 278.99 361.59
00008220 00000056 506.66 66.39 279.19 361.93
00008221 00000057 506.13 65.90 279.40 362.27
00008222 00000058 505.60 65.40 279.60 362.61
00008223 00000059 505.07 64.91 279.80 362.95
00008224 00000060 504.54 64.41 280.00 363.28
00008225 00000061 503.68 63.96 279.98 363.25
00008226 00000062 502.83 63.51 279.96 363.22
00008227 00000063 501.98 63.05 279.93 363.18
00008228 00000064 501.13 62.60 279.91 363.15
00008229 00000065 500.28 62.15 279.89 363.12
00008230 00000066 500.60 62.03 279.88 362.78
00008231 00000067 500.93 61.90 279.87 362.45
00008232 00000068 501.25 61.78 279.87 362.12
00008233 00000069 501.58 61.66 279.86 361.79
00008234 00000070 501.91 61.54 279.85 361.45
00008235 00000071 502.78 61.52 279.60 360.98
00008236 00000072 503.65 61.50 279.35 360.50
00008237 00000073 504.52 61.49 279.10 360.03
00008238 00000074 505.39 61.47 278.85 359.55
00008239 00000075 506.26 61.45 278.59 359.08
00008240 00000076 506.14 61.92 278.55 358.73
00008241 00000077 506.02 62.39 278.51 358.39
00008242 00000078 505.89 62.85 278.46 358.04
00008243 00000079 505.77 63.32 278.42 357.70
00008244 00000080 505.65 63.79 278.37 357.35
00008245 00000081 505.77 63.50 278.45 357.25
00008246 00000082 505.89 63.21 278.54 357.16
00008247 00000083 506.01 62.91 278.62 357.06
00008248 00000084 506.13 62.62 278.70 356.96
00008249 00000085 506.24 62.33 278.78 356.87
00008250 00000086 506.33 62.64 278.73 356.78
00008251 00000087 506.41 62.94 278.69 356.70
00008252 00000088 506.50 63.24 278.65 356.61
00008253 00000089 506.59 63.54 278.60 356.53
00008254 00000090 506.67 63.85 278.56 356.44
00008255 00000091 506.79 64.27 278.41 356.46
00008256 00000092 506.91 64.68 278.27 356.49
00008257 00000093 507.04 65.10 278.12 356.51
00008258 00000094 507.16 65.52 277.98 356.53
00008259 00000095 507.28 65.94 277.83 356.56
00008260 00000096 506.88 66.10 277.80 356.77
00008261 00000097 506.49 66.25 277.77 356.98
00008262 00000098 506.09 66.41 277.74 357.19
00008263 00000099 505.70 66.56 277.70 357.41
00008264 00000100 505.30 66.72 277.67 357.62
00008265 00000101 505.03 67.08 277.39 357.73
00008266 00000102 504.77 67.45 277.12 357.83
00008267 00000103 504.50 67.81 276.84 357.94
00008268 00000104 504.23 68.17 276.57 358.05
00008269 00000105 503.97 68.54 276.29 358.16
00008270 00000106 505.43 69.34 276.04 358.24
00008271 00000107 506.89 70.13 275.78 358.33
00008272 00000108 508.35 70.93 275.53 358.42
00008273 00000109 509.81 71.73 275.27 358.50
00008274 00000110 511.26 72.53 275.02 358.59
00008275 00000111 511.78 72.88 274.88 358.70
00008276 00000112 512.29 73.22 274.74 358.82
00008277 00000113 512.80 73.57 274.60 358.93
00008278 00000114 513.31 73.92 274.46 359.05
00008279 00000115 513.82 74.27 274.32 359.16
00008280 00000116 513.48 73.84 274.33 359.44
00008281 00000117 513.14 73.41 274.34 359.72
00008282 00000118 512.80 72.98 274.34 359.99
00008283 00000119 512.46 72.55 274.35 360.27
00008284 00000120 512.12 72.12 274.36 360.55
00008285 00000121 511.86 71.63 274.30 360.61
00008286 00000122 511.61 71.15 274.24 360.68
00008287 00000123 511.35 70.67 274.18 360.74
00008288 00000124 511.09 70.18 274.12 360.81
00008289 00000125 949.86 179.45 384.31 537.87 1029.02 376.48 1193.97 386.13 1081.94 456.83 1026.92 549.47 1188.20 558.63
00008290 00000126 510.62 69.38 274.09 360.67
00008291 00000127 510.40 69.06 274.12 360.47
00008292 00000128 510.19 68.74 274.15 360.27
00008293 00000129 509.97 68.42 274.19 360.07
00008294 00000130 509.75 68.10 274.22 359.86
00008295 00000131 509.22 67.87 274.34 359.78
00008296 00000132 508.68 67.64 274.45 359.70
00008297 00000133 508.15 67.41 274.57 359.61
00008298 00000134 507.61 67.18 274.68 359.53
00008299 00000135 507.07 66.95 274.80 359.44
00008300 00000136 506.85 66.86 274.88 359.28
00008301 00000137 506.63 66.77 274.97 359.11
00008302 00000138 506.41 66.68 275.06 358.95
00008303 00000139 506.18 66.60 275.14 358.78
00008304 00000140 505.96 66.51 275.23 358.61
00008305 00000141 506.06 66.23 275.27 358.39
00008306 00000142 506.17 65.95 275.31 358.18
00008307 00000143 506.27 65.67 275.36 357.96
00008308 00000144 506.37 65.39 275.40 357.74
00008309 00000145 506.48 65.10 275.44 357.52
00008310 00000146 506.54 64.87 275.46 357.32
00008311 00000147 506.60 64.64 275.47 357.12
00008312 00000148 506.66 64.41 275.48 356.92
00008313 00000149 506.72 64.18 275.49 356.72
00008314 00000150 506.78 63.95 275.50 356.52
00008315 00000151 506.69 63.65 275.63 356.31
00008316 00000152 506.60 63.34 275.76 356.11
00008317 00000153 506.50 63.04 275.89 355.90
00008318 00000154 506.41 62.74 276.02 355.69
00008319 00000155 506.31 62.44 276.15 355.48
00008320 00000156 506.53 62.04 276.01 355.29
00008321 00000157 506.76 61.64 275.87 355.10
00008322 00000158 506.98 61.24 275.73 354.91
00008323 00000159 507.20 60.84 275.60 354.72
00008324 00000160 507.42 60.44 275.46 354.53
CROP_BBOX: 765 0 1518 824
