Video ID: 	Da8-QfGemgo
H: 	2160
W: 	3840
FPS: 	23.976023976023978

FRAME INDEX X0 Y0 W H [Landmarks (5 Points)]

00025278 00000000 2172.87 198.11 807.08 1070.34 2295.00 611.45 2625.18 660.98 2344.36 803.57 2272.23 979.54 2560.98 1019.48
00025279 00000001 2167.37 200.22 802.03 1067.81 2292.69 623.02 2617.32 669.76 2344.24 808.77 2270.17 987.16 2553.67 1024.89
00025280 00000002 2163.66 203.82 797.34 1069.12 2288.31 629.71 2609.80 676.80 2340.85 815.92 2267.90 993.17 2547.47 1030.74
00025281 00000003 2162.71 208.47 791.50 1059.89 2288.17 637.81 2604.57 686.54 2340.25 823.12 2265.69 997.48 2535.27 1036.30
00025282 00000004 2164.61 206.74 784.03 1053.56 2288.33 642.82 2600.86 693.52 2340.76 828.82 2256.29 1001.03 2514.07 1040.70
00025283 DELETE   2163.34 209.67 785.77 1063.48 2287.79 646.11 2598.96 696.47 2334.24 833.08 2251.99 1012.73 2505.09 1052.95
00025284 00000006 2165.24 214.54 784.63 1079.88 2289.70 648.90 2603.01 695.93 2337.84 836.85 2257.54 1026.73 2511.68 1065.91
00025285 00000007 2165.76 215.74 791.50 1095.75 2295.77 659.83 2614.47 707.80 2346.27 841.60 2260.55 1039.12 2518.92 1079.28
00025286 00000008 2169.81 225.00 795.95 1095.64 2304.77 663.55 2619.41 710.42 2350.43 844.14 2271.89 1033.08 2530.23 1072.61
00025287 DELETE   2172.49 226.00 788.86 1104.92 2304.75 666.79 2614.22 711.13 2344.65 851.56 2279.90 1046.87 2526.95 1085.00
00025288 DELETE   2175.84 223.17 792.65 1128.52 2303.74 671.92 2622.09 711.46 2346.11 859.41 2287.04 1058.20 2552.84 1091.78
00025289 00000011 2181.57 219.94 793.54 1145.63 2304.21 674.10 2629.54 712.12 2347.24 863.95 2290.86 1060.38 2570.34 1092.48
00025290 00000012 2188.90 222.26 788.13 1153.80 2309.25 674.44 2631.23 709.65 2350.16 867.61 2299.89 1066.13 2576.37 1096.76
00025291 00000013 2192.12 220.49 784.92 1149.26 2315.29 678.14 2632.22 710.30 2359.46 867.97 2308.73 1061.71 2581.10 1090.24
00025292 00000014 2193.54 221.31 787.10 1118.68 2314.55 680.53 2638.18 719.76 2366.61 871.83 2311.23 1041.07 2595.74 1073.54
00025293 00000015 2189.29 229.43 801.46 1104.67 2325.49 690.13 2661.20 726.36 2384.34 872.70 2311.20 1038.72 2606.73 1066.50
00025294 00000016 2195.77 230.22 796.35 1086.58 2327.41 692.18 2664.16 729.44 2390.26 873.14 2311.02 1032.55 2604.54 1061.55
00025295 00000017 2200.90 238.50 793.00 1072.89 2330.30 696.92 2668.92 734.36 2394.62 872.42 2315.08 1028.18 2610.53 1057.14
00025296 00000018 2205.21 254.49 790.07 1056.15 2333.47 700.70 2672.74 736.58 2401.38 874.70 2321.53 1030.56 2613.65 1058.68
00025297 00000019 2209.83 258.72 788.44 1052.96 2337.69 699.86 2679.63 739.67 2412.62 883.69 2324.98 1033.35 2621.52 1064.75
00025298 00000020 2212.68 259.65 783.95 1049.78 2338.04 701.43 2681.41 741.93 2415.85 887.84 2325.57 1034.14 2624.38 1066.17
00025299 00000021 2214.60 256.58 781.65 1048.43 2340.44 702.43 2683.42 745.05 2421.15 887.15 2323.86 1034.46 2618.53 1068.37
00025300 00000022 2215.17 251.99 780.89 1051.82 2340.76 699.43 2684.66 743.05 2424.88 888.39 2324.29 1036.03 2620.06 1070.95
00025301 00000023 2214.69 251.62 777.20 1051.22 2341.07 698.19 2683.72 744.33 2424.46 891.03 2321.07 1035.44 2616.74 1072.50
00025302 00000024 2213.12 241.07 775.54 1063.92 2340.74 692.84 2685.96 740.94 2424.24 889.50 2319.16 1035.90 2618.82 1074.31
00025303 00000025 2212.54 243.02 775.58 1067.14 2343.08 696.12 2686.44 741.18 2427.77 885.51 2322.95 1037.94 2617.18 1074.16
00025304 00000026 2214.47 237.98 770.13 1077.79 2345.08 695.29 2686.16 740.74 2428.75 886.16 2328.44 1043.55 2614.64 1079.97
00025305 00000027 2211.28 233.29 773.33 1092.20 2345.39 698.58 2684.08 742.96 2426.28 882.80 2331.68 1048.52 2606.59 1084.21
00025306 00000028 2207.29 237.61 774.49 1094.93 2342.93 697.61 2684.04 744.10 2424.42 881.37 2326.73 1049.97 2601.95 1087.41
00025307 00000029 2205.33 234.29 778.67 1095.48 2342.83 702.60 2684.75 743.29 2422.10 883.99 2326.77 1046.96 2613.32 1079.80
00025308 00000030 2200.99 234.89 786.88 1081.78 2331.82 697.76 2680.31 730.25 2406.82 877.99 2318.38 1033.66 2624.20 1060.91
00025309 00000031 2198.46 232.04 790.61 1085.95 2330.53 693.34 2680.91 725.64 2406.45 874.47 2320.35 1031.95 2628.80 1059.03
00025310 00000032 2197.98 224.96 789.62 1096.13 2332.84 689.14 2680.19 724.24 2408.97 871.33 2322.83 1030.90 2628.38 1060.70
00025311 00000033 2198.22 220.28 785.68 1096.09 2333.90 685.94 2678.26 722.13 2406.48 867.95 2320.71 1031.25 2619.33 1062.34
00025312 00000034 2196.89 217.86 783.36 1098.23 2334.56 681.30 2677.58 721.09 2407.74 863.89 2319.38 1029.35 2615.95 1063.85
00025313 00000035 2195.13 216.80 788.16 1100.73 2333.85 678.24 2677.44 715.69 2406.88 860.98 2318.52 1028.88 2616.01 1061.48
00025314 00000036 2193.37 221.02 789.43 1097.81 2332.34 674.08 2673.58 710.56 2401.98 856.64 2314.89 1033.44 2606.32 1065.40
00025315 00000037 2186.56 217.73 790.49 1106.35 2332.70 666.70 2670.60 705.83 2405.31 850.71 2312.96 1030.85 2601.61 1065.96
00025316 00000038 2182.52 213.27 794.28 1088.52 2326.61 671.65 2673.40 709.70 2406.28 846.96 2316.00 1038.68 2599.46 1072.24
00025317 00000039 2162.85 215.37 806.89 1130.41 2321.23 672.62 2659.96 712.67 2399.67 849.03 2305.21 1035.97 2590.73 1070.39
00025318 00000040 2163.85 206.81 802.52 1126.61 2322.62 661.51 2650.95 724.67 2373.47 849.76 2285.38 1037.12 2539.49 1086.34
00025319 00000041 2169.48 210.26 798.36 1139.90 2308.91 676.61 2637.09 706.54 2388.90 854.09 2313.46 1053.49 2584.59 1078.33
00025320 00000042 2158.92 214.71 806.58 1153.59 2304.78 676.64 2641.52 708.49 2385.44 846.76 2299.73 1047.51 2594.47 1073.48
00025321 00000043 2154.83 217.94 804.21 1141.04 2303.73 670.94 2634.66 718.56 2379.35 865.34 2287.95 1041.98 2581.41 1079.14
00025322 00000044 2146.34 220.63 807.51 1134.74 2300.65 666.92 2639.75 721.94 2378.11 865.96 2269.80 1032.87 2585.33 1075.24
00025323 00000045 2145.29 228.66 802.86 1124.01 2300.67 672.03 2641.71 729.91 2373.58 868.43 2263.93 1034.64 2575.39 1080.50
00025324 00000046 2138.96 225.43 805.89 1125.03 2290.89 676.47 2629.37 739.88 2359.06 875.75 2256.79 1035.94 2561.87 1084.27
00025325 00000047 2134.22 227.64 797.67 1138.90 2287.55 682.10 2632.32 745.21 2363.40 885.62 2251.98 1044.13 2567.23 1092.03
00025326 00000048 2133.20 234.58 798.61 1127.98 2287.00 690.31 2634.04 749.36 2366.11 890.08 2251.58 1048.85 2564.22 1093.45
00025327 00000049 2136.53 229.08 799.69 1127.74 2293.48 694.17 2620.95 743.58 2361.29 878.84 2261.07 1055.12 2534.41 1095.02
00025328 00000050 2139.36 242.34 792.10 1098.02 2294.81 701.32 2618.29 743.95 2362.27 872.83 2264.66 1051.04 2532.65 1085.79
00025329 00000051 2134.18 239.64 798.47 1099.46 2294.96 697.51 2621.27 747.79 2366.95 879.37 2267.62 1048.48 2547.07 1088.90
00025330 00000052 2124.96 236.52 812.35 1121.44 2287.46 699.86 2619.57 749.03 2356.01 873.85 2263.54 1055.55 2543.84 1094.79
00025331 00000053 2119.59 238.52 815.50 1119.70 2282.41 706.07 2613.88 746.94 2355.50 876.02 2262.11 1063.27 2537.52 1097.05
00025332 00000054 2135.00 250.11 809.10 1113.06 2296.64 709.72 2617.84 745.84 2363.74 879.16 2280.69 1053.45 2561.33 1081.43
00025333 00000055 2134.54 257.67 802.43 1096.61 2298.81 703.95 2617.74 748.85 2366.34 880.21 2275.81 1042.41 2554.73 1077.59
00025334 00000056 2127.04 254.41 804.69 1119.77 2296.57 706.30 2618.24 751.33 2366.21 881.28 2274.52 1047.57 2553.17 1082.55
00025335 00000057 2129.75 258.24 794.16 1117.66 2298.10 711.42 2616.65 752.33 2371.81 880.40 2286.06 1060.37 2546.42 1093.02
00025336 00000058 2130.03 280.53 772.32 1095.60 2287.82 721.82 2606.41 758.20 2366.91 891.63 2277.96 1069.73 2543.50 1099.40
00025337 00000059 2131.39 283.44 774.59 1089.26 2285.62 721.76 2610.54 756.64 2368.88 891.81 2276.60 1070.60 2548.71 1098.70
00025338 00000060 2133.44 272.92 776.17 1089.24 2294.19 716.79 2614.49 755.62 2375.97 892.70 2282.75 1062.59 2554.95 1093.51
00025339 00000061 2138.05 258.37 775.49 1075.39 2302.77 711.24 2618.64 751.80 2383.82 886.19 2284.73 1050.55 2553.54 1084.10
00025340 00000062 2137.37 260.76 777.82 1064.21 2305.51 706.89 2625.90 747.16 2392.10 878.93 2285.52 1045.77 2560.68 1079.63
00025341 00000063 2138.98 245.80 779.44 1076.49 2314.94 701.75 2634.16 745.05 2399.79 874.36 2288.49 1038.36 2565.43 1074.48
00025342 00000064 2137.17 240.15 785.96 1079.51 2320.01 696.48 2641.26 741.99 2407.41 869.64 2289.90 1032.86 2569.68 1070.43
00025343 00000065 2134.51 244.86 788.33 1079.18 2320.38 700.03 2642.30 743.34 2413.18 866.12 2294.40 1038.48 2566.50 1074.14
00025344 00000066 2135.82 244.62 786.86 1080.67 2321.04 700.88 2643.41 740.18 2415.31 865.87 2300.68 1043.07 2569.71 1075.30
00025345 00000067 2135.21 241.03 792.50 1085.15 2321.74 699.79 2645.98 738.02 2418.60 866.03 2304.45 1042.76 2576.28 1073.85
00025346 00000068 2134.15 242.61 792.19 1086.47 2318.93 700.04 2644.87 736.88 2418.97 868.98 2304.63 1046.21 2579.18 1076.25
00025347 00000069 2123.37 233.86 797.87 1123.74 2309.96 701.85 2643.56 739.10 2413.18 876.38 2299.42 1058.96 2585.20 1089.11
00025348 00000070 2104.24 251.36 801.63 1143.14 2291.40 705.29 2639.41 742.10 2406.07 880.48 2291.89 1092.00 2563.93 1122.41
00025349 00000071 2100.60 251.78 795.26 1177.33 2278.91 708.50 2629.40 737.71 2385.54 881.64 2283.77 1124.22 2538.31 1149.31
00025350 00000072 2092.12 258.91 790.73 1157.41 2267.65 712.85 2614.41 739.83 2375.58 878.48 2274.33 1116.21 2529.94 1139.91
00025351 00000073 2086.07 276.47 782.67 1088.16 2259.65 719.52 2597.38 742.80 2384.49 887.01 2268.49 1071.33 2552.15 1091.32
00025352 00000074 2085.99 270.22 770.65 1057.83 2243.15 716.55 2594.01 737.76 2378.56 894.04 2246.89 1054.03 2571.64 1072.34
00025353 00000075 2079.85 268.02 759.22 1041.75 2226.92 710.28 2575.39 736.93 2357.90 889.17 2223.67 1046.22 2540.48 1071.17
00025354 00000076 2063.30 262.28 770.43 1042.15 2226.32 703.09 2564.34 741.64 2339.69 881.88 2204.75 1036.71 2512.73 1067.43
00025355 00000077 2050.65 264.53 776.03 1039.19 2212.59 705.36 2556.99 738.77 2330.45 884.83 2193.74 1037.66 2512.27 1064.10
00025356 00000078 2042.39 261.89 783.59 1043.85 2199.88 708.82 2543.50 736.93 2316.16 885.30 2188.04 1040.44 2503.72 1062.21
00025357 00000079 2038.22 273.99 782.78 1029.18 2193.27 710.46 2536.47 740.13 2308.88 888.06 2181.63 1038.21 2497.02 1061.05
00025358 00000080 2035.45 266.46 783.16 1035.21 2189.60 711.89 2529.63 742.15 2302.66 886.83 2178.02 1039.49 2483.75 1062.72
00025359 00000081 2031.25 273.65 778.86 1021.24 2185.23 711.32 2518.58 743.37 2295.57 883.82 2171.52 1034.65 2464.70 1059.84
00025360 00000082 2022.66 277.12 775.44 1022.20 2183.46 714.41 2509.36 746.92 2289.16 879.59 2168.40 1034.55 2449.86 1060.22
00025361 00000083 2011.93 270.56 783.05 1043.75 2177.86 710.94 2500.35 750.70 2278.83 887.91 2160.98 1039.55 2441.32 1071.45
00025362 00000084 2006.22 276.98 771.94 1054.30 2169.01 715.39 2490.03 756.02 2270.89 900.39 2153.13 1055.81 2432.08 1089.98
00025363 00000085 1995.34 276.28 769.30 1075.77 2149.98 721.44 2480.31 751.00 2254.31 906.64 2156.44 1100.99 2409.04 1127.02
00025364 00000086 1992.43 281.03 774.01 1083.41 2143.06 726.14 2473.42 750.75 2244.40 908.79 2152.30 1110.28 2406.24 1131.87
00025365 00000087 1989.90 288.40 771.94 1083.83 2140.01 731.26 2463.83 746.71 2236.51 897.65 2161.42 1097.89 2407.25 1111.03
00025366 00000088 1989.92 281.81 775.96 1086.55 2138.80 736.14 2457.85 750.82 2232.59 905.98 2153.59 1077.31 2423.56 1087.17
00025367 00000089 1985.02 289.46 785.70 1054.67 2136.11 735.15 2468.03 747.61 2244.36 906.40 2145.37 1065.41 2441.16 1074.50
00025368 00000090 1982.72 280.60 779.68 1040.24 2123.08 732.65 2465.25 744.40 2239.56 909.66 2135.22 1069.18 2440.72 1079.15
00025369 00000091 1981.22 283.98 775.53 1032.91 2122.42 735.94 2462.18 748.83 2239.39 911.58 2136.33 1070.33 2435.20 1081.32
00025370 00000092 1980.12 280.64 775.65 1032.03 2120.19 736.09 2459.12 748.82 2239.54 912.13 2136.43 1065.85 2434.75 1076.82
00025371 00000093 1983.47 281.11 773.31 1031.53 2121.45 734.51 2458.99 749.10 2237.93 912.11 2134.68 1064.77 2433.17 1077.61
00025372 00000094 1981.19 276.58 775.76 1034.42 2123.06 735.18 2460.35 750.42 2240.01 910.21 2136.77 1065.67 2431.71 1078.90
00025373 00000095 1978.07 273.25 776.24 1035.27 2123.75 735.53 2459.02 749.35 2241.30 908.95 2139.51 1068.17 2426.80 1080.37
00025374 00000096 1978.50 276.12 774.11 1033.08 2121.45 736.68 2460.33 750.29 2241.95 910.34 2138.25 1071.30 2427.34 1083.36
00025375 00000097 1981.11 288.05 770.84 1021.99 2121.27 734.23 2460.02 750.47 2239.59 913.60 2138.26 1073.47 2425.57 1087.41
00025376 00000098 1981.47 285.03 771.36 1022.98 2122.73 733.76 2463.44 751.77 2241.89 912.89 2140.11 1079.36 2427.96 1094.28
00025377 00000099 1983.54 276.53 770.25 1034.66 2127.40 734.55 2464.68 747.37 2245.79 911.42 2153.03 1089.30 2427.10 1099.74
00025378 00000100 1981.28 269.36 774.54 1044.58 2132.49 736.41 2468.58 747.66 2251.01 906.94 2152.57 1089.87 2425.84 1099.71
00025379 00000101 1977.24 268.60 780.12 1066.01 2137.35 737.66 2466.61 747.78 2253.63 900.85 2160.20 1091.46 2420.42 1099.79
00025380 00000102 1977.60 270.11 781.89 1074.02 2140.04 734.44 2464.18 752.61 2246.68 893.21 2153.71 1080.86 2402.94 1096.82
00025381 00000103 1973.84 279.23 786.61 1074.38 2133.20 734.95 2458.37 755.42 2237.39 894.34 2143.46 1082.77 2388.99 1101.02
00025382 00000104 1970.71 269.81 785.97 1088.23 2131.66 734.31 2458.26 755.38 2234.90 892.85 2142.88 1087.86 2383.13 1106.75
00025383 00000105 1975.51 272.92 779.16 1079.65 2131.16 736.08 2458.42 755.49 2239.08 902.39 2146.74 1088.44 2392.98 1105.61
00025384 00000106 1974.00 286.61 786.39 1067.85 2127.71 729.98 2472.71 752.62 2248.26 906.64 2149.98 1089.01 2410.86 1107.07
00025385 00000107 1976.00 281.80 786.45 1074.63 2128.14 733.13 2475.63 750.03 2252.88 909.35 2152.41 1090.13 2422.72 1103.28
00025386 00000108 1980.13 283.32 782.15 1070.87 2132.04 732.92 2475.60 751.89 2252.81 912.37 2150.66 1086.31 2425.69 1100.98
00025387 00000109 1980.91 286.08 783.62 1072.10 2130.85 737.06 2470.34 754.11 2248.27 917.19 2145.99 1086.99 2426.73 1099.79
00025388 00000110 1984.51 282.03 778.69 1089.48 2131.83 737.92 2469.06 753.62 2243.64 914.97 2146.10 1089.84 2428.37 1100.31
00025389 00000111 1987.62 281.69 778.63 1081.71 2133.29 737.03 2466.36 752.38 2242.63 912.03 2153.07 1092.45 2420.37 1103.09
00025390 00000112 1980.04 280.01 783.31 1091.35 2131.60 737.81 2463.90 750.42 2244.35 910.47 2156.37 1092.56 2423.92 1100.65
00025391 00000113 1979.69 291.02 781.73 1077.49 2128.64 741.52 2462.10 753.31 2245.52 921.42 2156.38 1088.86 2440.19 1095.66
00025392 00000114 1975.74 292.11 783.37 1051.82 2121.88 744.09 2460.04 756.22 2248.78 929.17 2148.37 1077.61 2447.07 1085.27
00025393 00000115 1976.17 294.69 777.22 1028.24 2115.30 745.17 2456.83 755.00 2245.29 928.64 2141.60 1073.82 2448.27 1081.15
00025394 00000116 1971.18 290.03 779.18 1028.16 2110.98 745.24 2455.34 753.57 2245.55 927.07 2139.04 1071.81 2446.17 1078.68
00025395 00000117 1972.70 287.90 774.15 1023.86 2113.30 748.22 2450.69 754.55 2244.03 922.32 2141.51 1070.59 2439.25 1076.07
00025396 00000118 1970.40 288.19 774.28 1024.77 2112.31 749.49 2449.44 754.06 2244.71 922.72 2140.51 1075.44 2435.94 1080.22
00025397 00000119 1966.19 285.36 766.88 1021.32 2107.85 742.53 2441.75 754.29 2236.74 923.40 2133.15 1074.05 2420.32 1085.43
00025398 00000120 1962.28 279.66 766.69 1027.04 2106.69 741.71 2440.28 755.80 2233.67 920.80 2133.33 1077.72 2410.17 1091.06
00025399 00000121 1959.50 282.75 764.50 1027.08 2102.57 742.74 2436.31 760.06 2228.62 923.93 2124.72 1074.88 2406.61 1091.24
00025400 00000122 1952.46 288.63 762.33 1026.91 2098.24 744.77 2433.68 763.92 2227.29 924.58 2119.31 1076.19 2400.54 1094.56
00025401 00000123 1940.41 277.81 773.04 1075.11 2090.79 742.50 2424.56 757.34 2219.64 922.91 2118.81 1087.58 2399.68 1101.23
00025402 00000124 1934.50 275.12 774.41 1087.43 2084.23 735.75 2420.37 751.28 2213.52 925.33 2114.36 1092.73 2399.47 1106.16
00025403 00000125 1932.49 281.32 771.89 1085.04 2079.72 736.95 2415.14 749.42 2209.99 926.13 2114.32 1094.33 2402.76 1105.14
00025404 00000126 1928.81 290.02 771.65 1070.99 2075.45 737.64 2412.48 750.31 2206.20 925.06 2109.65 1090.61 2400.75 1102.22
00025405 00000127 1922.59 283.53 767.34 1078.01 2064.02 734.86 2402.75 745.47 2192.49 924.91 2098.53 1090.66 2388.93 1101.17
00025406 00000128 1918.92 292.75 763.41 1073.06 2052.13 751.28 2389.24 749.13 2161.89 919.21 2077.36 1100.67 2374.46 1098.62
00025407 00000129 1911.05 280.84 769.98 1087.19 2052.04 744.69 2386.78 756.50 2162.83 915.47 2079.70 1093.72 2353.05 1101.23
00025408 00000130 1907.06 275.73 771.77 1077.50 2045.54 747.19 2383.79 758.20 2162.85 924.57 2070.07 1092.03 2360.59 1099.37
00025409 00000131 1886.05 295.10 791.35 1053.66 2032.47 754.79 2373.04 765.20 2133.47 939.22 2054.35 1078.81 2356.97 1087.19
00025410 00000132 1893.37 292.90 784.34 1040.22 2031.41 749.62 2375.54 765.76 2152.61 936.52 2051.32 1084.49 2363.20 1095.22
00025411 00000133 1889.86 298.30 781.82 1027.94 2028.03 748.95 2364.21 769.19 2142.38 927.62 2043.28 1073.12 2345.76 1087.53
00025412 00000134 1888.04 299.25 778.47 1025.76 2023.64 750.11 2356.41 770.41 2135.24 928.51 2037.37 1073.07 2337.82 1087.83
00025413 00000135 1891.49 311.61 773.51 1014.41 2019.57 755.66 2350.27 774.90 2125.53 931.17 2032.21 1078.75 2328.94 1092.83
00025414 00000136 1891.45 307.24 765.14 1020.59 2018.36 750.12 2342.38 776.31 2116.26 930.81 2028.29 1080.74 2308.82 1100.70
CROP_BBOX: 1586 0 3377 1717
