Video ID: 	ogNpTqdB3zE
H: 	1080
W: 	1920
FPS: 	25.0

FRAME INDEX X0 Y0 W H [Landmarks (5 Points)]

00026096 00000000 947.00 205.16 386.00 596.43 1016.89 411.24 1202.92 404.98 1090.84 524.72 1040.40 637.41 1194.48 633.10
00026097 00000001 937.21 204.83 387.19 587.15 1005.22 407.65 1188.62 405.83 1073.19 520.87 1028.18 628.69 1178.18 627.65
00026098 00000002 928.19 196.21 386.85 581.27 995.28 402.65 1175.49 408.79 1054.01 516.02 1015.50 619.87 1161.46 625.32
00026099 00000003 927.78 200.70 390.80 571.82 989.69 403.88 1171.81 408.07 1044.73 520.76 1008.05 624.20 1152.04 626.47
00026100 00000004 925.29 197.92 385.45 570.48 980.97 401.67 1167.34 410.13 1035.56 525.35 996.77 623.83 1142.47 631.27
00026101 00000005 927.11 195.86 384.15 566.19 981.45 399.22 1168.85 409.48 1036.81 524.05 995.35 621.86 1142.56 630.78
00026102 00000006 931.18 195.02 392.46 564.20 993.69 402.84 1178.73 408.44 1053.78 520.22 1011.57 620.82 1154.03 625.36
00026103 00000007 935.78 205.35 389.33 559.80 1004.29 407.68 1187.52 413.80 1067.21 521.45 1019.13 616.97 1168.24 622.72
00026104 00000008 944.87 191.62 388.46 578.77 1017.31 414.55 1201.76 416.14 1086.90 527.62 1035.50 624.35 1184.73 625.91
00026105 00000009 949.58 210.83 390.90 562.78 1028.42 419.10 1219.48 418.88 1106.89 533.62 1048.37 631.48 1199.55 630.82
00026106 00000010 953.21 216.15 385.23 559.12 1035.64 421.54 1225.67 420.05 1117.31 534.44 1058.26 633.52 1207.24 631.60
00026107 DELETE   950.90 226.66 380.71 554.46 1034.32 418.82 1219.57 419.00 1114.97 533.65 1054.59 633.53 1199.27 633.54
00026108 DELETE   940.55 216.28 387.62 571.49 1020.13 419.32 1204.97 418.90 1097.57 532.04 1041.01 635.62 1187.97 635.28
00026109 00000013 927.76 224.24 383.18 563.17 1002.81 406.98 1183.13 413.50 1071.40 521.99 1020.79 626.27 1163.26 632.04
00026110 DELETE   911.89 209.36 382.67 567.36 979.79 405.39 1162.76 410.45 1041.98 517.41 1000.67 628.18 1141.55 630.30
00026111 DELETE   902.17 211.83 384.34 550.18 961.32 403.43 1135.88 405.82 1005.37 504.65 974.28 617.55 1104.61 619.42
00026112 00000016 889.50 204.19 395.17 540.02 947.23 396.72 1121.57 401.03 988.31 504.32 956.66 606.57 1091.72 610.19
00026113 00000017 889.34 191.06 391.72 542.54 941.51 393.44 1110.70 395.36 974.00 492.23 948.46 599.64 1078.22 601.82
00026114 00000018 894.55 184.74 387.67 544.10 945.18 385.66 1110.36 389.87 970.00 486.13 948.27 593.72 1074.82 597.70
00026115 00000019 905.42 194.80 387.99 534.05 958.12 386.33 1117.24 388.36 977.54 479.63 960.45 593.02 1080.52 595.33
00026116 00000020 918.53 195.89 392.78 535.03 969.05 381.78 1130.81 382.02 993.63 474.70 977.96 592.20 1101.60 592.97
00026117 DELETE   931.93 182.35 391.34 541.16 980.89 375.27 1158.06 374.31 1016.92 470.37 990.40 585.98 1140.89 585.36
00026118 DELETE   936.87 177.77 402.26 531.15 1000.45 365.72 1177.25 367.45 1041.71 453.06 1008.90 564.45 1162.93 566.70
00026119 00000023 944.92 167.75 395.60 530.79 1011.22 360.76 1186.81 361.31 1057.93 444.73 1017.39 548.68 1181.21 550.23
00026120 00000024 955.93 156.63 388.22 527.55 1026.56 352.97 1209.88 350.69 1081.72 433.57 1032.04 542.53 1198.61 541.03
00026121 00000025 961.42 141.79 388.96 544.36 1039.78 344.05 1226.46 343.84 1104.02 424.89 1046.28 538.30 1209.11 538.64
00026122 00000026 962.44 163.68 392.08 535.46 1048.15 332.29 1233.85 330.09 1114.37 415.19 1055.76 540.37 1209.29 539.61
00026123 00000027 961.23 163.18 390.94 544.36 1047.25 325.40 1234.90 322.74 1114.78 410.57 1052.55 541.54 1205.66 541.53
00026124 00000028 955.17 156.11 390.34 547.55 1036.67 327.72 1218.09 320.05 1095.66 405.26 1042.34 538.82 1187.82 535.20
00026125 DELETE   940.77 161.54 395.04 531.07 1020.14 334.91 1198.23 326.25 1077.33 409.44 1029.71 536.91 1166.85 532.21
00026126 00000030 929.56 158.00 397.07 522.25 1001.69 344.31 1176.52 332.30 1054.90 413.57 1011.05 534.55 1150.97 526.23
00026127 00000031 922.72 171.75 392.54 505.50 984.46 345.85 1161.91 345.99 1029.81 421.12 991.30 541.27 1126.76 540.97
00026128 00000032 912.69 185.33 392.34 492.98 975.48 346.81 1152.62 345.07 1023.22 422.16 983.86 546.51 1120.92 544.02
00026129 00000033 912.28 182.21 387.57 509.63 974.34 357.90 1150.58 351.20 1025.20 436.69 982.42 559.35 1126.85 553.95
00026130 00000034 906.32 191.04 395.51 505.36 972.08 351.35 1150.68 353.54 1025.59 449.27 988.11 561.67 1125.46 564.23
00026131 00000035 911.58 185.31 389.62 524.00 981.08 370.64 1164.97 365.57 1043.62 458.40 997.72 572.84 1149.05 568.65
00026132 00000036 911.97 176.68 393.17 549.23 987.12 377.36 1172.49 375.27 1056.52 471.07 1009.70 586.49 1160.77 585.32
00026133 00000037 906.46 187.23 402.58 563.17 988.80 382.29 1182.74 380.00 1066.00 481.19 1012.10 598.92 1175.12 597.02
00026134 00000038 906.35 189.94 402.64 572.55 989.43 390.39 1184.25 386.35 1071.00 494.67 1011.85 607.24 1181.09 603.43
00026135 00000039 904.57 194.66 402.69 574.00 985.83 400.75 1177.11 395.05 1064.98 506.93 1010.68 615.29 1177.15 609.97
00026136 00000040 906.61 206.19 398.23 558.01 982.55 403.74 1171.49 398.50 1062.40 517.37 1008.60 622.37 1162.92 616.98
00026137 00000041 901.32 208.74 397.06 562.26 967.29 412.92 1159.32 405.41 1046.07 532.82 991.13 625.27 1155.01 619.20
00026138 00000042 895.72 212.75 394.77 565.16 956.66 418.54 1151.03 412.88 1032.51 537.54 982.29 630.87 1145.46 625.95
00026139 00000043 891.28 220.26 395.82 567.06 949.81 423.81 1139.24 417.63 1018.11 544.24 978.14 637.84 1135.81 632.28
00026140 00000044 887.26 223.82 398.01 576.17 949.09 435.53 1129.88 423.20 1007.41 544.77 980.29 649.65 1137.17 638.21
00026141 00000045 888.62 225.31 393.77 581.16 949.97 438.03 1129.93 423.76 1007.79 546.87 982.73 653.31 1142.01 640.07
00026142 00000046 889.42 226.10 397.70 582.79 951.25 428.94 1138.88 423.69 1015.54 550.71 987.71 654.21 1149.61 648.95
00026143 00000047 893.40 222.52 396.62 589.44 960.73 427.48 1146.81 425.62 1024.51 555.58 991.57 651.52 1157.66 648.58
00026144 00000048 904.69 223.01 393.38 586.58 971.44 428.55 1157.92 428.11 1038.83 560.41 998.23 649.28 1165.24 647.93
00026145 00000049 907.20 226.78 400.63 577.86 977.99 432.53 1169.07 428.86 1054.28 563.73 1007.17 653.35 1172.41 650.28
00026146 00000050 915.44 220.68 393.22 583.05 989.77 436.95 1175.91 438.66 1063.95 557.93 1012.54 649.10 1175.51 649.81
00026147 00000051 919.17 222.14 393.37 590.16 991.50 437.29 1179.03 436.66 1065.80 558.65 1016.95 656.86 1179.74 655.45
00026148 00000052 920.51 219.49 389.87 596.89 989.79 436.86 1177.97 436.96 1059.40 558.43 1016.27 661.20 1175.68 660.47
00026149 00000053 916.53 228.09 388.31 582.78 982.24 433.85 1169.23 433.99 1048.55 556.11 1008.81 660.40 1164.19 659.86
00026150 00000054 912.39 234.68 391.46 566.16 976.24 425.48 1162.56 431.25 1038.80 559.72 1002.96 658.17 1147.17 663.07
00026151 00000055 909.98 231.08 394.95 563.84 972.08 422.62 1159.94 430.77 1033.48 557.43 995.79 655.46 1141.25 662.69
00026152 00000056 911.54 231.03 392.31 561.78 974.67 422.67 1161.26 430.47 1035.18 555.82 996.61 651.13 1141.44 658.28
00026153 00000057 914.65 224.13 397.47 568.92 977.54 421.75 1168.63 425.78 1042.48 555.12 1001.25 648.55 1153.41 652.39
00026154 00000058 923.45 219.86 388.53 570.25 993.78 431.92 1177.93 438.10 1061.46 546.27 1009.73 638.98 1170.18 644.17
00026155 DELETE   930.02 225.07 393.23 561.76 1003.69 429.89 1188.13 433.49 1077.27 543.14 1019.85 633.95 1184.88 637.11
00026156 00000060 938.45 214.15 395.24 572.47 1011.12 427.18 1196.80 425.07 1085.29 542.88 1031.58 631.95 1196.75 630.23
00026157 00000061 944.28 217.73 394.63 566.75 1019.07 426.26 1207.96 421.45 1097.00 535.64 1040.39 628.94 1208.15 625.16
00026158 00000062 947.96 216.21 394.25 561.49 1024.40 423.70 1213.89 417.17 1104.70 532.90 1044.93 624.78 1212.80 619.44
00026159 00000063 950.44 209.96 390.74 556.52 1023.79 419.32 1213.72 414.19 1101.37 527.51 1040.28 614.15 1212.42 609.97
00026160 00000064 949.36 205.29 390.19 556.35 1021.11 410.86 1210.55 409.07 1094.86 519.80 1036.01 607.65 1205.15 605.97
00026161 00000065 947.36 207.53 392.52 567.37 1018.05 404.76 1203.58 402.07 1085.25 513.65 1034.46 613.04 1194.75 610.61
00026162 00000066 944.27 207.81 392.64 571.67 1014.05 403.80 1197.28 400.66 1077.08 510.81 1031.04 613.69 1187.69 611.45
00026163 00000067 941.82 212.11 391.67 572.47 1011.19 401.05 1192.65 398.43 1071.30 507.56 1029.14 614.01 1183.26 612.42
00026164 00000068 940.22 216.43 393.31 572.83 1009.31 401.47 1190.50 398.90 1070.06 509.31 1028.88 618.81 1179.33 617.41
00026165 00000069 938.92 217.84 392.21 569.69 1009.25 401.40 1193.40 402.13 1071.57 512.03 1027.23 620.28 1176.59 621.64
00026166 00000070 939.00 219.05 389.70 562.30 1010.75 404.98 1193.39 410.13 1074.16 517.03 1024.73 618.33 1173.84 623.32
00026167 00000071 938.56 205.54 391.21 563.86 1011.43 405.80 1194.00 410.60 1077.19 518.22 1027.21 617.72 1172.48 622.45
00026168 00000072 938.89 200.52 391.83 560.60 1014.14 405.99 1197.53 409.72 1082.96 515.78 1029.56 615.15 1173.25 618.89
00026169 00000073 937.98 204.74 393.85 551.53 1016.81 402.56 1202.32 405.82 1087.76 512.04 1033.58 613.82 1174.46 617.09
00026170 00000074 939.10 205.36 393.82 550.94 1017.58 402.40 1202.47 402.73 1089.90 511.57 1037.22 615.61 1172.78 616.55
00026171 00000075 939.91 198.74 391.00 559.47 1015.02 402.86 1197.67 402.41 1085.98 514.24 1036.01 617.75 1169.82 618.21
00026172 00000076 937.43 201.89 390.83 557.09 1009.31 401.89 1193.47 404.30 1078.08 517.33 1029.33 617.88 1165.76 620.74
00026173 00000077 934.18 197.41 392.33 565.93 1002.23 404.08 1183.58 409.16 1066.63 521.13 1023.69 622.39 1158.89 627.46
00026174 00000078 929.87 197.33 392.94 569.44 995.26 406.70 1177.53 412.54 1058.09 524.11 1015.41 625.10 1154.59 630.63
00026175 00000079 927.96 193.65 394.39 576.21 993.85 408.14 1175.61 414.81 1055.64 525.47 1014.19 627.16 1152.42 633.33
00026176 00000080 929.11 195.07 393.22 576.98 996.76 408.54 1178.59 415.23 1061.09 527.49 1017.36 628.79 1155.53 635.09
00026177 00000081 933.42 200.94 390.02 571.18 1003.64 410.16 1185.74 414.34 1072.68 526.83 1027.37 631.15 1162.41 635.36
00026178 00000082 939.60 195.89 391.22 576.23 1011.24 414.94 1195.71 411.90 1085.05 530.07 1037.38 636.69 1174.70 635.50
00026179 00000083 942.33 203.24 393.13 571.45 1018.34 419.26 1208.04 414.76 1097.35 532.85 1043.64 638.72 1186.88 635.68
00026180 00000084 945.25 207.34 394.38 572.25 1023.56 425.63 1213.19 418.21 1106.91 539.88 1053.43 643.50 1199.29 637.50
00026181 00000085 948.27 213.14 389.52 567.28 1025.76 429.91 1215.98 425.43 1109.00 546.51 1054.23 645.30 1205.85 641.72
00026182 00000086 945.76 216.09 393.27 563.56 1022.19 432.56 1214.53 427.55 1106.35 551.34 1051.21 644.94 1210.20 640.51
00026183 00000087 943.85 216.72 397.30 559.63 1018.49 432.07 1210.10 428.30 1099.89 552.95 1047.57 642.50 1206.12 638.85
00026184 00000088 941.57 218.86 395.73 556.22 1013.55 428.89 1202.45 428.05 1087.84 552.52 1039.91 639.87 1194.98 638.90
00026185 00000089 938.79 216.00 390.66 563.34 1006.56 427.92 1190.23 429.85 1077.22 549.62 1031.71 639.68 1181.93 641.42
00026186 00000090 932.46 209.46 388.27 577.28 998.33 425.72 1179.21 429.11 1063.76 546.41 1022.81 642.53 1169.67 645.67
00026187 00000091 926.49 215.13 387.44 582.32 991.83 420.50 1171.47 425.90 1054.56 542.49 1020.18 647.81 1157.19 652.36
00026188 00000092 926.38 212.94 384.81 592.06 988.72 420.26 1169.93 425.27 1047.92 543.81 1016.69 654.41 1153.83 658.83
00026189 00000093 920.14 213.55 392.38 597.14 991.52 421.83 1176.22 424.86 1046.14 551.88 1018.71 662.27 1149.44 665.65
00026190 00000094 921.29 213.83 392.77 597.48 992.43 427.87 1180.34 429.12 1051.82 558.39 1019.52 666.06 1154.82 668.18
00026191 00000095 925.11 214.41 389.43 595.71 997.54 434.60 1181.35 439.93 1064.17 559.12 1021.47 662.98 1167.47 667.02
00026192 00000096 928.21 216.47 388.96 588.44 1002.09 438.80 1189.38 442.18 1074.40 563.27 1023.27 660.64 1177.67 663.31
00026193 00000097 931.31 232.31 388.38 566.39 1006.93 437.33 1197.29 440.36 1081.84 565.43 1026.89 658.96 1182.13 661.39
00026194 00000098 933.49 239.61 390.42 559.33 1009.44 436.94 1201.87 438.18 1086.50 565.37 1030.40 657.22 1190.34 657.97
00026195 00000099 934.09 237.45 390.15 561.91 1013.02 436.01 1204.41 438.31 1090.28 565.10 1033.04 656.67 1189.51 658.52
00026196 00000100 934.76 236.68 388.63 558.23 1013.77 435.59 1204.59 440.33 1089.99 564.29 1031.99 652.80 1189.15 656.76
00026197 00000101 934.80 241.53 389.93 548.06 1011.63 433.48 1199.90 438.43 1085.45 559.91 1030.01 648.54 1184.47 652.99
00026198 00000102 934.38 236.19 386.12 548.39 1008.80 428.12 1191.71 436.68 1076.11 549.72 1024.15 638.45 1174.98 646.20
00026199 00000103 932.27 214.04 383.88 569.01 1003.51 422.20 1185.98 432.24 1071.16 545.28 1017.47 630.28 1169.79 639.25
00026200 00000104 930.52 215.20 385.63 563.82 1000.78 417.50 1180.66 430.45 1062.33 538.33 1012.65 622.68 1164.09 634.03
00026201 00000105 934.51 215.03 383.70 558.89 1000.65 413.80 1176.85 426.88 1056.06 531.62 1011.21 617.72 1161.50 629.42
00026202 00000106 939.17 198.64 385.01 568.99 999.47 410.70 1178.92 423.22 1053.79 528.91 1011.29 613.61 1167.66 624.61
00026203 00000107 941.29 198.68 384.86 567.53 1002.45 408.70 1181.90 417.80 1058.37 526.42 1016.52 610.87 1173.56 618.87
00026204 00000108 942.18 206.55 387.59 557.44 1006.91 408.52 1186.52 416.19 1062.94 522.79 1018.16 607.20 1179.04 613.94
00026205 00000109 943.47 204.72 387.93 557.28 1009.72 407.05 1191.96 413.91 1068.31 523.21 1019.75 603.90 1185.14 609.92
00026206 00000110 945.47 206.29 387.74 554.18 1014.17 406.61 1197.32 415.45 1076.00 528.40 1024.27 601.63 1191.51 609.12
00026207 00000111 944.15 205.91 391.75 559.09 1018.50 407.91 1204.41 416.15 1085.40 528.98 1025.97 599.44 1199.80 606.16
00026208 00000112 944.21 211.37 392.04 553.56 1021.87 408.68 1209.37 416.97 1090.91 529.29 1026.07 597.01 1205.12 603.67
00026209 00000113 945.05 210.29 389.36 557.80 1022.60 411.23 1209.89 417.87 1094.45 532.86 1028.09 598.98 1208.53 604.35
00026210 00000114 943.67 211.89 388.73 564.68 1020.01 415.06 1205.84 418.17 1092.56 535.33 1027.46 603.52 1209.31 606.38
00026211 00000115 937.42 220.43 387.38 565.47 1010.95 414.97 1196.47 421.45 1079.96 536.53 1019.03 606.52 1200.50 611.67
00026212 00000116 928.64 225.85 388.60 563.64 998.05 416.74 1182.29 426.54 1063.80 539.58 1008.70 608.97 1190.08 616.22
00026213 00000117 919.03 235.90 387.50 557.75 985.49 423.89 1167.53 434.02 1043.20 547.81 996.97 616.80 1177.71 623.33
CROP_BBOX: 573 0 1641 1056
