Video ID: 	pwfx5ZMKWXg
H: 	1080
W: 	1920
FPS: 	25.0

FRAME INDEX X0 Y0 W H [Landmarks (5 Points)]

00033209 00000000 999.70 185.57 462.29 656.62 1095.74 421.60 1299.36 451.53 1157.87 572.98 1089.79 653.58 1258.97 679.32
00033210 DELETE   996.88 186.26 466.91 654.15 1096.69 422.49 1298.04 458.20 1154.75 569.74 1086.01 648.18 1255.47 678.40
00033211 00000002 994.16 181.99 469.47 656.27 1096.49 417.58 1298.62 453.66 1152.60 558.27 1082.72 641.91 1253.52 672.49
00033212 DELETE   992.19 178.21 467.86 654.35 1095.21 410.81 1297.05 445.74 1151.67 551.85 1083.03 637.55 1251.59 667.35
00033213 DELETE   990.72 168.36 467.79 658.02 1093.82 406.78 1292.90 436.80 1151.69 542.71 1084.28 634.46 1248.91 660.49
00033214 00000005 989.65 162.02 467.10 655.91 1093.67 397.42 1293.88 427.75 1154.06 536.62 1083.54 627.04 1247.45 653.43
00033215 00000006 990.34 155.87 466.17 660.57 1093.57 391.58 1294.17 421.16 1153.30 532.39 1081.07 623.04 1249.05 648.86
00033216 00000007 990.59 152.92 466.11 662.86 1093.01 391.68 1292.09 420.44 1152.01 530.96 1079.33 620.42 1250.25 645.56
00033217 00000008 988.90 153.47 466.79 664.30 1090.26 391.94 1289.82 420.24 1149.22 531.80 1077.01 621.44 1249.31 646.10
00033218 00000009 987.60 153.12 463.00 665.72 1088.93 395.92 1288.03 423.66 1147.04 532.13 1076.42 624.58 1246.57 648.65
00033219 00000010 985.85 158.08 463.02 666.25 1085.14 400.89 1286.40 427.26 1144.20 536.74 1075.35 630.71 1246.35 653.46
00033220 00000011 983.93 164.71 464.48 663.48 1084.42 404.51 1284.94 430.85 1142.83 539.39 1076.09 634.50 1243.64 657.13
00033221 00000012 982.02 166.02 466.34 661.96 1081.48 404.06 1282.59 430.22 1139.16 540.17 1073.84 634.64 1242.99 657.02
00033222 00000013 981.46 164.53 464.90 659.64 1080.66 401.34 1280.94 428.45 1137.35 538.55 1072.43 632.35 1241.70 655.39
00033223 00000014 980.80 160.06 465.18 660.60 1079.44 396.89 1280.53 424.51 1136.74 536.05 1070.22 628.71 1242.15 652.15
00033224 00000015 980.44 157.85 465.53 655.79 1079.70 394.49 1279.91 421.52 1138.79 533.29 1070.82 624.39 1241.84 647.34
00033225 00000016 978.99 157.54 463.35 650.75 1075.86 386.15 1275.13 414.08 1139.00 530.82 1072.80 617.37 1242.47 640.74
00033226 00000017 979.53 158.44 463.54 650.13 1076.17 385.80 1275.44 413.63 1139.15 530.66 1073.50 617.03 1243.34 640.29
00033227 00000018 980.44 160.27 462.18 647.32 1077.48 387.75 1276.06 416.19 1140.77 533.62 1074.28 617.73 1242.78 641.65
00033228 00000019 982.20 158.83 463.10 654.96 1083.05 401.47 1281.11 431.53 1139.44 534.83 1071.34 624.29 1244.62 649.66
00033229 00000020 986.10 162.32 458.68 654.36 1086.01 406.21 1280.51 436.15 1139.19 534.85 1072.57 625.60 1244.83 650.85
00033230 00000021 986.10 162.72 457.92 653.43 1086.07 405.43 1280.85 436.08 1139.18 534.95 1072.26 625.12 1244.50 650.94
00033231 00000022 982.99 162.66 459.63 646.89 1081.08 395.28 1278.52 425.56 1142.09 535.12 1074.65 619.53 1243.31 644.96
00033232 00000023 981.71 157.58 461.34 648.84 1080.98 389.22 1279.13 418.35 1144.24 529.89 1075.69 615.32 1245.82 639.56
00033233 00000024 982.15 153.66 464.29 651.71 1081.80 383.49 1280.79 411.66 1144.81 523.97 1077.47 612.09 1249.20 635.23
00033234 00000025 982.23 152.29 466.49 654.10 1082.37 381.12 1281.53 408.37 1145.76 520.44 1078.82 609.85 1250.22 632.13
00033235 00000026 981.35 152.09 468.30 654.56 1082.39 380.00 1282.34 407.08 1146.12 519.11 1078.62 609.22 1250.98 631.36
00033236 00000027 980.73 152.51 468.56 654.55 1081.87 380.68 1282.20 408.19 1146.41 521.28 1078.33 610.86 1251.47 633.38
00033237 00000028 980.75 153.72 466.49 653.18 1081.86 382.92 1281.93 410.38 1146.31 523.20 1078.00 612.73 1250.66 635.24
00033238 00000029 981.78 153.73 464.84 653.77 1081.98 383.32 1281.02 411.53 1144.57 524.34 1077.87 613.34 1249.46 636.51
00033239 00000030 981.23 153.00 465.85 654.17 1081.82 382.81 1281.68 410.49 1145.16 522.83 1077.79 612.69 1250.77 635.35
00033240 00000031 980.16 153.20 467.65 651.90 1080.94 380.48 1281.02 407.66 1145.35 519.39 1077.94 609.11 1251.65 631.22
00033241 00000032 981.08 151.44 467.71 650.12 1080.80 379.31 1281.29 405.14 1144.73 516.54 1078.05 606.74 1251.81 627.74
00033242 00000033 981.25 148.30 468.59 652.48 1080.70 377.68 1282.30 402.84 1144.36 515.04 1078.51 606.56 1250.89 627.15
00033243 00000034 981.77 146.67 468.73 654.78 1081.32 376.87 1284.28 402.22 1146.01 514.25 1078.52 606.09 1250.38 627.03
00033244 00000035 982.03 148.45 470.82 654.22 1082.00 377.61 1284.57 403.85 1145.90 515.80 1078.76 606.44 1252.11 627.92
00033245 00000036 983.17 150.89 469.87 653.28 1083.88 378.87 1286.05 405.73 1148.71 518.90 1080.93 608.74 1253.85 630.67
00033246 00000037 986.56 152.47 466.36 651.34 1085.67 380.15 1286.19 407.34 1149.52 522.47 1083.49 612.07 1252.03 634.58
00033247 00000038 986.83 151.52 464.54 650.38 1085.79 380.10 1285.94 407.88 1149.91 523.70 1083.63 613.25 1248.98 636.51
00033248 00000039 987.57 150.55 467.05 649.77 1089.30 386.94 1288.94 412.79 1150.12 524.55 1081.44 616.52 1248.74 638.43
00033249 00000040 986.48 148.99 467.58 649.97 1088.36 386.10 1289.42 411.78 1150.28 523.90 1080.63 616.28 1249.10 637.90
00033250 00000041 986.40 154.61 460.51 636.67 1085.28 383.36 1291.36 413.42 1148.70 520.50 1074.59 610.11 1250.03 634.08
00033251 00000042 985.02 154.44 460.26 634.28 1083.40 382.98 1288.07 412.84 1145.67 519.53 1073.40 609.60 1245.48 633.33
00033252 00000043 982.68 154.43 460.11 633.26 1080.60 383.98 1285.50 412.71 1143.40 519.01 1072.48 610.91 1243.26 633.80
00033253 00000044 979.38 155.46 462.24 632.83 1078.53 384.84 1283.49 413.33 1141.36 518.19 1070.58 612.08 1241.37 634.79
00033254 00000045 977.75 157.45 462.25 630.55 1076.58 385.61 1281.49 413.48 1139.87 519.32 1069.58 613.24 1238.83 635.51
00033255 00000046 975.56 158.83 460.89 626.86 1073.99 385.84 1279.21 413.77 1137.34 520.95 1068.01 614.34 1235.16 636.71
00033256 00000047 972.50 157.24 463.40 629.51 1072.40 385.25 1276.22 412.57 1135.78 519.85 1067.42 613.80 1232.42 635.78
00033257 00000048 971.45 156.02 462.53 628.08 1071.52 383.72 1274.75 411.31 1134.99 518.42 1065.86 611.45 1229.55 633.75
00033258 00000049 972.00 153.53 460.94 627.18 1069.99 382.96 1273.48 409.81 1133.33 517.52 1064.57 611.15 1226.53 633.08
00033259 00000050 971.69 153.36 460.69 625.27 1069.38 381.71 1273.00 409.16 1131.94 515.87 1062.95 610.10 1225.03 632.57
00033260 00000051 971.58 153.43 459.80 624.37 1069.30 381.26 1272.66 409.02 1131.38 515.26 1062.15 609.13 1224.05 631.75
00033261 00000052 970.68 152.07 460.09 625.05 1069.04 380.11 1272.63 408.19 1131.02 513.35 1061.63 607.73 1223.39 630.63
00033262 00000053 971.18 150.82 459.59 623.66 1068.93 378.43 1271.90 406.36 1130.97 510.18 1061.44 605.52 1222.74 628.29
00033263 00000054 970.88 147.10 461.34 625.18 1068.85 374.47 1272.52 403.36 1130.46 504.21 1059.99 601.66 1221.42 625.05
00033264 00000055 972.77 145.41 458.47 623.75 1069.16 373.52 1273.72 401.68 1131.00 503.58 1060.62 600.84 1221.70 623.79
00033265 00000056 974.56 142.99 458.33 627.35 1071.39 371.11 1275.24 400.02 1132.51 500.55 1061.46 599.24 1222.06 622.94
00033266 00000057 974.24 134.26 463.84 629.89 1072.88 372.56 1275.11 397.23 1133.59 497.68 1066.62 597.96 1223.10 619.32
00033267 00000058 977.09 132.64 460.74 628.82 1074.96 372.12 1276.03 396.55 1134.55 496.25 1068.40 597.42 1223.05 618.68
00033268 00000059 978.52 133.35 460.35 628.98 1076.56 371.75 1277.45 395.90 1136.29 495.84 1069.76 598.14 1223.40 619.22
00033269 00000060 982.68 133.27 454.62 629.17 1079.34 375.60 1276.55 399.87 1136.06 494.35 1070.96 597.83 1224.07 618.98
00033270 00000061 983.93 135.83 454.82 625.25 1081.71 377.15 1278.12 403.80 1137.41 493.65 1071.35 596.83 1223.37 619.91
00033271 00000062 984.66 135.28 454.75 624.45 1081.71 376.89 1278.20 403.60 1137.12 491.54 1071.43 595.76 1222.70 618.85
00033272 00000063 984.97 134.95 455.89 623.97 1081.77 374.11 1278.22 400.43 1136.90 490.47 1071.72 594.79 1222.65 617.65
00033273 00000064 986.02 132.02 456.47 627.62 1081.25 370.92 1278.98 395.02 1137.65 489.01 1072.70 594.69 1224.16 615.61
00033274 00000065 985.26 129.07 458.53 628.94 1080.23 368.42 1278.80 392.16 1137.07 487.32 1072.08 591.98 1223.68 612.62
00033275 00000066 984.57 129.64 460.26 627.42 1080.32 365.45 1278.77 390.48 1136.48 484.01 1071.89 589.62 1222.12 611.27
00033276 00000067 984.18 126.39 461.25 629.79 1080.44 364.35 1278.11 388.42 1136.97 481.35 1072.37 587.84 1222.04 608.80
00033277 00000068 983.47 126.63 462.47 628.15 1079.63 363.97 1278.01 387.05 1137.18 479.99 1072.49 587.54 1222.03 607.64
00033278 00000069 987.19 132.64 458.64 623.37 1078.41 361.02 1283.09 388.99 1135.92 482.66 1066.64 587.71 1224.94 610.86
00033279 00000070 986.37 133.01 458.15 624.29 1078.48 361.08 1282.16 389.85 1135.65 483.09 1066.10 587.90 1223.29 611.74
00033280 00000071 985.10 129.52 456.08 625.53 1076.72 363.53 1280.28 393.58 1134.18 487.35 1063.46 589.54 1221.22 614.42
00033281 00000072 984.19 131.25 454.95 624.55 1076.20 364.19 1278.27 394.43 1133.84 489.64 1062.75 590.66 1218.49 615.90
00033282 00000073 983.83 131.99 454.61 624.84 1075.60 364.78 1277.88 394.68 1133.48 489.87 1061.80 591.51 1218.00 616.51
00033283 00000074 983.35 132.04 455.06 624.55 1075.58 364.38 1278.10 394.40 1133.78 489.80 1062.26 591.30 1218.49 616.37
00033284 00000075 983.51 131.61 455.33 624.52 1075.85 364.20 1279.08 394.61 1134.34 489.50 1062.72 590.80 1219.87 616.13
00033285 00000076 983.82 131.65 455.58 624.53 1076.84 364.08 1279.85 394.70 1135.33 489.67 1063.55 590.73 1220.20 616.18
00033286 00000077 983.53 133.43 456.27 623.96 1077.66 364.78 1280.87 395.05 1136.51 489.91 1064.28 591.39 1221.47 616.45
00033287 00000078 979.82 128.75 461.01 629.39 1078.97 368.77 1278.29 392.60 1138.04 488.38 1071.21 593.84 1220.72 614.72
00033288 00000079 980.50 131.89 461.09 628.22 1078.94 369.58 1279.14 393.09 1138.11 491.30 1071.53 597.07 1221.25 617.72
00033289 00000080 981.50 133.12 461.71 627.51 1080.00 370.71 1280.19 394.74 1138.39 491.34 1072.04 598.06 1221.43 619.15
00033290 00000081 983.60 131.18 459.72 629.29 1081.79 371.42 1281.03 396.16 1140.16 493.32 1073.54 598.46 1222.57 620.10
00033291 00000082 983.89 131.26 458.49 629.46 1084.65 371.97 1283.10 396.25 1145.09 493.76 1076.35 598.73 1224.58 620.05
00033292 00000083 983.63 131.98 459.28 629.26 1085.13 372.08 1284.02 396.58 1146.13 494.16 1077.01 599.30 1225.26 620.78
00033293 00000084 983.53 132.70 459.38 628.97 1084.37 372.56 1283.84 396.89 1145.45 495.51 1076.59 600.02 1225.41 621.36
00033294 00000085 983.44 131.78 459.43 630.83 1083.35 373.61 1283.16 397.39 1144.13 495.32 1075.57 600.67 1225.05 621.66
00033295 00000086 982.80 134.03 460.33 628.66 1082.26 373.69 1282.83 397.14 1142.89 494.72 1074.61 600.67 1224.16 621.33
00033296 00000087 981.93 135.54 460.81 626.44 1080.82 373.10 1282.18 396.78 1140.98 494.06 1073.86 601.34 1224.14 622.06
00033297 00000088 981.59 135.76 460.01 625.98 1080.13 373.16 1281.73 397.00 1140.23 493.79 1072.77 600.79 1223.44 621.65
00033298 00000089 980.73 134.83 460.22 626.97 1079.54 373.40 1281.61 397.11 1140.25 493.88 1072.30 600.96 1223.43 621.73
00033299 00000090 980.53 135.57 460.14 626.50 1079.33 374.07 1280.87 396.91 1139.93 493.71 1072.79 601.73 1222.93 621.78
00033300 00000091 980.50 136.60 459.38 625.36 1079.07 374.12 1280.62 397.08 1139.72 494.40 1072.33 601.56 1222.96 621.70
00033301 00000092 979.71 137.70 459.64 624.06 1078.72 373.85 1280.32 396.99 1139.13 494.58 1072.10 601.52 1222.64 621.75
00033302 00000093 978.68 137.87 460.32 624.27 1078.51 373.97 1279.87 396.77 1138.81 494.07 1072.14 601.85 1221.85 621.85
00033303 00000094 977.60 138.19 460.77 623.71 1077.52 373.74 1279.38 396.98 1138.00 495.08 1070.89 602.04 1220.75 622.38
00033304 00000095 976.78 137.35 460.48 624.41 1077.93 374.14 1278.75 397.53 1138.27 494.92 1071.32 601.89 1220.16 622.35
00033305 00000096 976.40 136.61 460.87 626.36 1077.41 374.80 1277.61 397.72 1137.48 495.53 1070.86 602.03 1220.04 622.06
00033306 00000097 976.23 136.58 460.08 626.58 1076.72 375.29 1277.18 397.58 1137.47 495.91 1071.07 603.09 1219.95 622.57
00033307 00000098 976.03 136.37 460.74 627.51 1076.60 375.95 1276.88 397.97 1137.27 495.77 1071.06 603.46 1219.67 622.75
00033308 00000099 975.40 136.56 461.55 628.08 1076.50 376.47 1276.55 398.39 1136.81 495.80 1070.83 603.66 1219.46 622.89
00033309 00000100 975.68 136.77 460.97 628.22 1076.91 376.56 1276.48 398.56 1136.70 495.91 1071.27 603.38 1220.14 622.59
00033310 00000101 975.79 137.39 460.55 627.17 1077.04 376.54 1277.12 398.76 1137.18 495.99 1071.73 603.43 1220.56 622.83
00033311 00000102 975.68 138.29 461.09 626.86 1077.48 376.25 1277.73 398.68 1137.90 495.86 1071.95 603.55 1220.95 623.14
00033312 00000103 976.55 135.39 461.54 630.36 1078.13 376.07 1277.65 398.68 1138.36 497.78 1072.78 604.01 1221.05 623.82
00033313 00000104 976.45 135.54 461.27 629.94 1077.82 376.55 1277.29 398.99 1138.09 497.52 1072.62 603.86 1220.74 623.52
00033314 00000105 975.09 135.18 462.19 631.82 1077.02 377.10 1276.12 398.72 1137.27 497.51 1071.90 604.62 1220.14 623.60
00033315 00000106 975.85 135.98 458.30 628.47 1077.65 380.30 1273.38 401.22 1135.17 495.62 1071.43 604.48 1218.76 622.82
00033316 00000107 975.19 137.57 457.03 625.59 1079.24 381.82 1270.92 407.70 1132.95 493.65 1068.58 600.79 1214.34 623.14
00033317 00000108 974.45 137.60 455.67 625.14 1077.61 382.41 1270.10 408.74 1132.22 494.92 1066.69 600.63 1213.48 623.30
00033318 00000109 972.19 136.35 458.20 626.16 1075.58 381.11 1268.53 407.85 1130.31 495.23 1064.52 600.72 1211.31 623.73
00033319 00000110 972.07 135.70 456.59 628.69 1071.79 380.29 1267.52 403.84 1129.03 497.22 1063.48 603.88 1210.41 624.47
00033320 00000111 971.33 134.97 457.18 627.12 1069.43 379.14 1265.69 401.62 1127.41 497.84 1062.17 604.23 1208.26 623.90
00033321 00000112 966.41 133.35 460.18 637.61 1065.73 374.26 1260.26 401.06 1125.60 501.71 1062.08 606.29 1203.42 629.93
00033322 00000113 964.78 134.10 459.85 634.70 1064.07 372.94 1259.40 400.24 1124.09 501.66 1060.05 605.68 1200.80 629.80
00033323 00000114 963.88 134.22 459.45 632.16 1062.62 372.60 1258.13 401.00 1122.44 501.36 1058.32 604.26 1198.97 629.25
00033324 00000115 963.54 135.29 460.76 630.16 1061.90 373.07 1256.57 400.90 1121.30 500.82 1058.61 604.34 1197.73 628.81
00033325 00000116 963.56 135.09 459.54 629.40 1061.70 372.74 1255.75 400.87 1120.58 500.65 1057.77 603.81 1196.14 628.56
00033326 00000117 963.48 134.79 459.89 630.37 1061.58 372.86 1256.30 400.60 1120.93 500.83 1058.26 604.40 1197.01 628.81
00033327 00000118 964.60 136.01 461.56 629.62 1062.98 372.85 1257.09 400.61 1121.69 500.99 1059.63 604.13 1198.25 628.51
00033328 00000119 969.69 136.42 460.12 624.03 1065.81 375.26 1264.91 398.51 1125.25 497.33 1059.31 603.28 1205.69 623.57
00033329 00000120 971.36 134.92 461.94 627.12 1068.30 375.83 1268.40 398.14 1128.21 496.88 1062.79 604.26 1210.27 623.82
00033330 00000121 974.28 135.69 462.21 626.81 1072.29 375.95 1272.37 396.67 1132.07 494.69 1067.15 605.05 1213.81 623.38
00033331 00000122 976.70 134.73 461.15 627.76 1075.96 375.54 1276.94 397.41 1136.25 495.10 1070.78 604.21 1219.18 623.42
00033332 00000123 980.64 133.96 460.52 629.67 1078.80 374.56 1279.74 396.55 1137.53 493.43 1072.67 604.51 1220.38 623.88
00033333 00000124 983.21 133.40 460.28 629.86 1081.96 373.89 1282.24 397.00 1140.78 494.54 1075.21 603.76 1223.28 624.07
00033334 00000125 984.73 135.14 458.88 629.20 1084.07 374.06 1285.27 397.28 1144.85 494.45 1077.70 604.30 1226.97 624.75
00033335 00000126 986.18 136.10 459.14 629.05 1085.10 373.00 1286.83 396.99 1145.97 494.77 1078.15 604.52 1227.90 625.59
00033336 00000127 990.03 137.37 456.31 627.58 1084.38 370.34 1288.83 397.64 1146.43 494.46 1077.46 603.28 1231.24 625.53
00033337 00000128 990.04 137.90 457.86 628.73 1084.51 369.92 1289.90 397.45 1146.70 494.85 1077.92 603.52 1232.40 625.89
00033338 00000129 990.17 137.72 457.41 629.41 1084.59 369.95 1289.90 397.58 1146.79 494.84 1077.85 603.40 1232.68 625.84
00033339 00000130 990.19 137.61 457.53 630.41 1084.43 369.79 1289.89 397.44 1146.43 494.91 1077.81 603.60 1233.07 626.06
00033340 00000131 989.56 138.11 456.41 630.13 1084.10 370.23 1288.93 397.60 1146.23 495.02 1077.31 604.01 1232.03 626.33
00033341 00000132 989.10 140.19 455.67 627.72 1082.97 370.88 1287.01 397.38 1144.00 494.09 1076.20 604.15 1229.96 625.84
00033342 00000133 988.13 139.41 454.00 628.84 1081.27 372.01 1283.73 398.44 1141.66 495.39 1074.49 604.49 1227.77 626.13
00033343 00000134 986.96 140.68 452.99 622.80 1085.69 379.39 1281.40 403.13 1140.62 492.81 1077.78 602.89 1224.28 623.62
00033344 00000135 983.02 141.95 454.44 619.96 1086.43 381.06 1278.84 408.95 1139.88 491.25 1075.38 599.11 1220.02 623.16
00033345 00000136 981.54 141.77 452.96 621.46 1084.35 381.90 1277.59 408.49 1137.87 492.45 1073.32 600.80 1219.38 623.64
00033346 00000137 979.80 139.76 454.27 623.69 1082.31 380.78 1277.19 406.49 1136.92 492.18 1071.99 601.43 1218.48 623.57
00033347 00000138 979.59 139.55 455.05 624.52 1080.60 379.32 1277.91 403.58 1136.78 493.22 1071.62 603.19 1218.32 624.29
00033348 00000139 978.57 137.18 457.70 627.03 1078.69 378.04 1276.54 400.55 1136.11 494.37 1072.55 604.61 1218.43 624.29
00033349 00000140 978.05 137.13 458.64 627.02 1078.62 376.66 1277.04 399.96 1136.68 494.21 1072.24 604.02 1218.09 624.34
00033350 00000141 978.59 138.21 458.37 624.57 1078.53 374.68 1278.34 398.64 1137.59 494.33 1072.42 603.24 1218.70 624.03
00033351 00000142 979.15 137.55 458.88 624.63 1078.82 374.14 1279.83 398.21 1138.76 494.00 1072.51 603.33 1219.74 624.31
00033352 00000143 980.94 136.77 459.01 624.15 1078.66 373.51 1280.20 397.10 1137.79 492.24 1071.90 602.42 1219.93 623.05
00033353 00000144 981.63 136.19 458.49 624.91 1079.55 373.20 1280.95 396.98 1138.35 491.86 1072.59 601.98 1221.08 622.76
00033354 00000145 982.90 135.69 458.42 624.84 1080.96 371.84 1282.08 396.52 1139.79 492.22 1073.64 600.70 1222.25 622.21
00033355 00000146 984.00 135.25 457.83 623.44 1082.15 371.87 1282.62 396.80 1141.22 492.33 1074.88 600.01 1222.22 621.72
00033356 00000147 985.30 134.53 457.03 624.66 1083.06 372.30 1283.46 396.81 1142.58 492.71 1076.54 600.16 1224.03 621.53
00033357 00000148 985.71 135.97 458.06 623.88 1084.06 371.11 1285.28 396.22 1144.76 492.90 1077.70 599.89 1226.20 621.76
00033358 00000149 987.26 134.88 456.44 623.86 1084.98 370.45 1286.15 395.20 1146.65 493.12 1078.55 598.70 1227.91 620.24
00033359 00000150 989.79 136.68 457.19 619.43 1084.57 367.57 1289.99 395.97 1145.93 490.55 1075.45 596.33 1231.48 619.41
00033360 00000151 987.94 135.27 456.87 621.55 1086.15 369.78 1286.83 395.62 1148.05 493.52 1079.42 596.30 1230.37 618.63
00033361 00000152 987.63 135.18 456.53 621.63 1086.24 369.65 1286.87 395.55 1148.43 493.72 1079.61 596.12 1230.50 618.50
00033362 00000153 990.06 136.92 454.25 618.72 1084.12 367.37 1288.32 395.34 1144.99 492.32 1075.56 595.84 1230.93 618.66
00033363 00000154 985.65 133.86 456.38 624.07 1083.91 371.87 1284.13 396.67 1144.61 493.98 1077.31 598.18 1227.38 619.70
00033364 00000155 984.12 134.22 457.35 623.40 1082.17 372.15 1282.67 397.06 1142.23 494.66 1075.60 598.82 1225.19 620.43
00033365 00000156 981.27 137.32 460.32 621.25 1079.14 373.51 1281.64 397.21 1139.21 494.39 1072.96 601.06 1223.47 621.70
00033366 00000157 978.98 136.94 460.01 621.03 1077.44 374.43 1279.41 398.27 1138.01 495.88 1071.41 601.18 1221.42 621.91
00033367 00000158 976.76 135.89 460.45 622.19 1076.00 374.82 1277.09 399.15 1136.64 497.67 1069.93 600.28 1219.78 621.39
00033368 00000159 974.40 134.59 460.95 623.80 1073.98 375.69 1275.07 399.45 1134.68 497.34 1067.29 600.95 1216.60 621.67
00033369 00000160 972.80 135.68 461.86 622.10 1071.54 376.60 1274.19 399.91 1133.29 498.00 1065.59 602.07 1215.75 622.35
00033370 00000161 971.72 135.58 461.64 622.17 1069.63 376.50 1272.23 399.12 1131.96 498.78 1064.61 602.62 1214.09 622.35
00033371 00000162 971.17 135.97 461.30 622.77 1068.66 376.54 1271.18 399.28 1131.74 499.58 1063.74 602.85 1213.46 622.66
00033372 00000163 970.58 136.35 461.25 622.37 1068.24 376.91 1271.02 399.97 1131.23 500.22 1063.31 602.83 1213.16 622.89
