Video ID: 	PFhFjjPiojw
H: 	1080
W: 	1920
FPS: 	23.976023976023978

FRAME INDEX X0 Y0 W H [Landmarks (5 Points)]

00000451 00000000 534.39 131.18 379.75 587.72 680.38 356.47 841.83 358.47 803.79 459.31 719.64 580.21 829.70 582.13
00000452 00000001 532.42 137.50 380.48 568.43 672.63 360.60 838.49 351.87 796.63 449.18 710.77 574.72 832.66 568.28
00000453 DELETE   520.90 123.96 387.22 577.29 646.25 355.44 822.42 345.10 766.64 443.89 682.80 570.64 812.67 561.78
00000454 00000003 513.39 124.71 383.70 566.75 627.84 349.10 811.93 336.93 745.22 439.78 665.40 565.25 799.03 554.47
00000455 00000004 503.45 115.10 391.08 566.63 619.27 341.26 805.89 340.27 727.74 434.28 653.16 547.38 799.69 547.23
00000456 00000005 505.40 113.19 389.01 562.87 623.23 338.08 806.66 336.95 733.26 426.74 657.94 542.66 801.19 542.12
00000457 00000006 508.29 110.63 388.17 561.44 627.96 339.18 810.18 335.71 741.27 425.05 665.25 540.77 808.20 538.01
00000458 00000007 510.54 110.01 388.10 559.63 630.56 338.83 813.97 335.14 745.49 423.86 669.19 539.09 814.03 536.10
00000459 00000008 510.36 111.45 388.16 559.78 630.21 339.45 814.13 334.40 746.68 423.86 669.84 540.52 815.53 536.54
00000460 00000009 510.46 112.86 387.51 561.03 629.51 341.50 812.49 335.37 745.81 426.08 670.49 543.70 814.81 539.08
00000461 00000010 511.87 112.33 386.63 570.14 635.09 339.13 818.04 334.94 755.47 425.33 673.67 546.86 818.40 543.88
00000462 00000011 515.91 111.59 384.18 589.17 643.02 341.06 823.57 329.08 769.39 420.66 678.73 558.78 817.78 548.29
00000463 00000012 516.94 110.16 382.81 591.63 642.90 336.88 825.28 325.40 770.73 411.27 679.00 556.48 821.37 546.46
00000464 00000013 515.93 103.75 382.39 590.56 641.17 327.25 821.61 325.09 766.28 409.67 675.89 541.92 823.17 540.91
00000465 00000014 512.83 107.04 384.40 574.57 637.03 328.88 819.81 324.25 763.34 410.02 676.78 539.30 823.97 536.25
00000466 00000015 512.41 104.95 384.69 567.26 637.68 327.81 819.70 325.16 761.71 410.63 676.29 533.65 822.02 532.08
00000467 00000016 512.46 102.83 384.92 566.57 637.68 330.84 822.36 325.69 763.54 412.30 678.36 534.47 827.24 530.94
00000468 00000017 510.20 104.79 385.40 564.28 635.55 333.52 816.73 326.06 759.90 414.37 678.84 537.21 822.23 531.68
00000469 00000018 508.34 108.97 385.66 559.19 632.12 337.26 814.84 329.03 755.95 418.74 676.54 539.67 821.13 533.60
00000470 00000019 507.73 109.80 387.36 560.63 632.35 341.52 817.16 334.75 756.46 422.71 675.85 541.89 823.46 536.99
00000471 00000020 509.25 110.22 388.30 563.60 635.39 346.84 818.98 339.20 759.67 427.64 678.96 545.81 826.50 540.05
00000472 00000021 508.40 113.34 390.63 574.46 637.41 351.00 819.65 342.84 762.69 433.68 679.03 553.95 827.28 547.42
00000473 00000022 511.94 117.69 386.08 574.75 640.08 355.57 819.59 339.98 769.49 436.15 679.33 564.56 818.33 550.59
00000474 00000023 514.01 118.05 382.72 572.92 638.11 357.48 820.14 340.77 767.78 440.05 678.64 565.12 822.59 549.92
00000475 00000024 514.98 119.72 382.42 573.35 638.04 358.31 821.03 342.77 767.01 443.29 677.19 566.85 823.07 552.66
00000476 00000025 515.29 119.94 385.20 578.95 641.25 359.15 822.91 346.00 771.04 445.86 679.06 569.04 824.28 556.97
00000477 00000026 516.57 121.08 385.31 583.96 643.76 361.12 823.02 348.49 773.25 446.63 683.95 574.06 823.91 563.22
00000478 00000027 516.74 126.23 384.14 584.46 645.01 364.51 823.71 351.81 775.32 451.46 685.86 578.18 825.35 567.63
00000479 00000028 518.05 131.80 384.03 581.00 645.30 368.20 823.48 353.76 775.73 454.85 687.21 581.62 826.36 569.58
00000480 00000029 519.24 134.80 385.07 578.69 646.82 372.64 825.28 360.10 776.14 461.47 687.42 583.99 827.53 573.45
00000481 00000030 522.52 139.43 384.11 574.19 647.95 375.72 827.74 363.49 775.87 466.13 687.43 585.94 829.49 575.89
00000482 00000031 525.12 141.69 383.21 572.17 649.31 377.63 830.86 366.12 776.46 469.35 688.75 588.40 831.16 579.02
00000483 00000032 526.75 142.84 383.71 571.91 652.43 379.05 833.43 368.57 780.55 470.78 689.17 586.92 833.65 578.40
00000484 00000033 529.26 142.49 384.40 570.62 654.30 380.58 837.59 368.28 783.90 472.07 689.57 584.98 839.79 574.92
00000485 00000034 530.41 143.23 384.32 570.17 656.45 380.57 839.25 368.94 785.80 472.38 691.35 585.04 840.55 575.67
00000486 00000035 531.02 146.69 384.29 574.92 659.65 380.08 838.32 368.93 787.10 473.69 698.06 591.86 836.55 583.37
00000487 00000036 530.49 147.26 386.81 581.41 660.28 383.63 839.50 371.98 787.82 478.16 700.96 600.22 835.89 591.44
00000488 00000037 529.41 150.61 388.43 583.93 659.26 386.85 839.78 375.66 787.72 485.63 700.15 604.52 837.37 596.48
00000489 00000038 529.98 154.46 387.83 584.80 657.97 390.33 840.60 380.23 785.05 493.63 698.87 610.30 837.09 602.93
00000490 00000039 529.35 157.84 387.89 581.77 655.64 394.72 837.67 383.48 782.17 498.20 699.39 613.08 837.49 604.65
00000491 00000040 529.56 158.94 388.45 579.97 654.66 396.53 837.20 384.14 780.68 498.52 699.41 611.91 839.33 602.40
00000492 00000041 530.11 159.86 391.64 580.83 660.01 389.18 836.47 380.92 785.51 490.86 708.98 608.48 846.94 600.97
00000493 00000042 533.23 161.48 390.31 578.40 664.61 391.35 838.16 380.37 790.98 491.88 717.08 608.82 852.89 599.08
00000494 00000043 534.15 162.34 388.97 579.21 665.52 391.91 839.03 379.03 793.20 495.50 719.16 610.89 855.31 599.37
00000495 00000044 534.02 163.53 387.57 580.62 664.45 392.86 836.92 379.92 791.14 498.91 719.93 617.03 851.80 605.37
00000496 00000045 532.48 163.49 388.64 583.14 663.91 395.34 835.67 383.26 789.18 502.40 717.89 620.92 847.25 610.27
00000497 00000046 531.67 161.49 390.02 584.74 663.13 395.74 835.43 384.78 786.85 502.97 715.83 620.75 844.01 611.38
00000498 00000047 531.79 160.69 389.51 582.35 661.54 396.80 838.52 385.60 787.46 503.53 711.15 616.84 850.23 606.73
00000499 00000048 532.55 162.25 389.12 581.95 662.72 397.49 839.79 386.27 789.06 505.16 710.99 617.09 851.09 607.05
00000500 00000049 532.49 161.90 390.54 591.13 663.18 397.12 837.17 384.63 789.57 505.10 713.17 621.30 849.56 610.27
00000501 00000050 534.07 162.62 389.61 594.08 664.58 398.67 836.31 385.05 791.20 506.96 714.81 621.07 851.11 609.04
00000502 00000051 534.78 164.04 390.09 587.31 665.50 401.35 840.89 387.79 794.00 509.57 713.54 619.53 855.69 607.68
00000503 00000052 535.39 165.58 389.62 583.84 666.64 402.06 841.21 388.32 794.60 509.93 716.18 619.07 857.21 607.01
00000504 00000053 536.10 166.56 387.84 580.09 667.34 401.61 840.48 386.78 795.60 507.41 720.63 620.77 856.81 607.98
00000505 00000054 535.18 168.05 388.42 575.96 665.67 400.88 840.64 386.33 793.98 506.17 720.34 620.78 857.79 608.23
00000506 00000055 533.99 167.39 388.97 574.95 664.74 400.48 840.05 385.98 793.52 505.80 718.77 619.35 858.00 606.89
00000507 00000056 534.76 166.69 388.06 576.18 664.91 400.01 839.79 385.38 793.10 505.44 719.53 618.74 858.50 606.07
00000508 00000057 534.44 165.62 387.97 576.57 665.00 398.62 840.66 384.52 794.68 503.75 718.94 617.78 859.25 605.53
00000509 00000058 534.36 164.53 388.32 576.89 665.92 397.18 841.24 383.67 795.51 502.63 719.10 615.88 859.16 603.72
00000510 00000059 533.93 164.27 388.71 577.27 665.80 395.88 840.88 382.17 795.37 501.94 719.83 616.06 858.30 603.66
00000511 00000060 534.16 162.95 387.88 580.09 666.54 394.49 840.49 381.49 795.97 500.65 720.21 616.90 855.80 605.18
00000512 00000061 534.27 159.02 386.83 583.30 667.60 392.19 839.78 380.49 795.16 497.71 721.38 615.54 852.15 605.08
00000513 00000062 534.91 155.86 386.35 584.65 668.53 388.98 839.82 379.45 795.64 492.10 720.35 610.48 850.21 601.96
00000514 00000063 536.15 147.95 386.19 588.68 670.37 385.42 841.08 373.55 800.32 485.60 723.75 604.57 856.58 593.86
00000515 00000064 537.63 145.96 384.68 588.00 673.61 383.16 842.38 370.71 804.55 480.59 729.01 602.98 858.94 592.14
00000516 00000065 538.12 145.53 384.14 587.99 674.53 382.49 842.77 369.55 807.29 479.68 731.60 603.96 859.89 592.73
00000517 00000066 536.83 145.85 384.32 589.75 673.75 382.15 841.71 369.82 806.81 479.65 730.61 605.30 859.02 594.55
00000518 00000067 535.26 146.72 385.47 591.00 672.07 379.70 841.80 369.54 805.19 478.63 723.05 603.00 857.13 593.84
00000519 00000068 535.36 146.09 384.39 594.15 673.57 375.37 843.58 368.31 806.66 477.21 721.03 601.72 855.76 595.15
00000520 00000069 537.16 144.54 383.89 597.52 675.49 372.07 846.34 366.77 808.42 474.07 717.88 598.87 855.07 594.14
00000521 00000070 538.99 140.59 384.81 595.83 678.36 371.98 848.94 366.63 808.93 470.00 717.74 592.19 856.38 587.30
00000522 00000071 541.15 138.21 383.85 588.71 679.61 372.23 850.52 365.33 809.36 466.49 719.42 586.29 858.13 580.36
00000523 00000072 543.87 135.47 386.26 589.44 683.47 368.41 856.78 364.07 813.63 461.19 722.89 584.51 860.22 580.49
00000524 00000073 546.35 130.52 389.37 600.58 692.02 361.57 863.38 361.85 822.46 454.80 731.48 585.81 860.39 585.08
00000525 00000074 550.74 129.84 390.49 609.01 703.05 354.91 867.60 357.60 831.86 448.82 743.28 585.05 860.79 586.36
00000526 00000075 557.13 126.12 388.95 614.82 710.13 352.29 872.95 357.55 838.38 442.82 745.61 584.43 864.32 588.18
00000527 00000076 562.24 126.81 387.00 613.22 712.88 350.73 876.19 356.50 840.40 441.19 745.79 582.59 865.98 586.92
00000528 00000077 564.73 126.53 388.34 611.67 719.68 354.25 878.72 360.35 844.48 444.39 747.02 579.69 868.53 584.43
00000529 00000078 567.28 125.57 389.47 608.86 725.08 362.30 885.62 368.18 850.73 445.75 751.08 576.53 875.42 581.19
00000530 00000079 575.53 122.25 383.36 604.91 727.15 365.07 890.78 367.53 855.23 453.06 755.25 579.15 882.21 581.24
00000531 00000080 579.98 124.21 380.60 597.97 728.56 366.14 891.71 367.23 857.95 453.11 759.27 578.10 886.30 579.28
00000532 00000081 582.24 124.36 380.22 594.90 729.26 366.35 894.11 366.03 859.52 454.71 760.58 578.23 888.73 578.26
00000533 00000082 584.79 125.95 380.20 591.05 731.05 366.24 898.91 366.18 862.22 456.01 762.24 578.67 892.27 578.94
00000534 00000083 587.39 127.08 379.17 589.94 732.74 365.30 901.96 365.15 864.16 457.07 762.99 578.50 894.34 578.74
00000535 00000084 588.91 127.77 380.24 588.01 733.89 364.92 905.63 364.61 866.67 456.96 763.46 578.19 897.67 578.24
00000536 00000085 589.80 123.72 380.87 590.90 736.19 365.25 906.05 364.91 868.86 456.27 764.99 577.18 898.67 577.41
00000537 00000086 591.40 124.43 382.65 588.45 739.14 367.56 911.15 367.42 871.52 453.82 765.45 576.08 900.75 576.97
00000538 00000087 592.08 118.74 385.64 592.80 738.85 361.59 907.63 359.78 870.04 449.52 769.12 573.28 899.95 572.05
00000539 00000088 599.69 112.70 385.00 602.42 745.73 353.77 913.26 358.12 868.58 445.23 777.52 569.65 902.66 575.13
00000540 00000089 606.35 117.14 389.82 597.06 755.79 338.75 920.57 341.22 880.16 439.59 795.27 567.81 902.97 569.19
00000541 00000090 618.56 113.38 388.91 597.91 767.37 335.64 936.57 339.52 890.84 439.96 806.55 569.38 911.68 571.59
00000542 00000091 632.03 109.33 388.16 598.52 780.06 334.08 947.41 340.11 902.98 436.10 816.22 565.90 919.93 570.46
00000543 00000092 643.96 100.10 388.82 606.73 794.34 332.92 961.27 341.06 916.17 434.65 824.50 562.24 932.97 568.98
00000544 00000093 653.38 91.10 387.21 605.25 806.93 333.32 972.19 342.64 925.77 433.40 834.02 558.46 953.03 566.00
00000545 00000094 662.83 96.75 386.71 594.05 813.95 330.72 981.89 339.25 934.24 430.54 840.91 553.39 962.76 560.69
00000546 00000095 670.36 98.94 391.55 593.78 818.99 332.45 983.55 345.03 934.12 431.74 845.94 550.36 964.19 562.36
00000547 00000096 678.13 103.84 389.57 591.49 826.64 332.57 990.64 345.47 940.56 436.28 854.55 554.24 972.19 566.17
00000548 00000097 683.25 114.86 392.96 587.34 827.91 332.26 1002.05 337.22 948.01 440.66 861.64 563.11 970.08 566.44
00000549 00000098 689.79 118.25 394.82 584.80 831.54 334.90 1009.03 339.87 951.03 446.49 863.09 566.33 972.87 569.46
00000550 00000099 694.91 121.66 394.88 584.85 834.31 336.09 1012.96 342.03 953.50 449.39 862.39 568.62 975.66 572.73
00000551 00000100 700.80 123.69 392.11 590.48 838.23 338.79 1015.18 345.53 959.09 452.64 863.18 574.03 980.67 579.02
00000552 00000101 704.17 125.27 391.26 599.45 843.30 339.71 1018.17 348.41 962.53 454.30 862.93 577.09 981.58 584.01
00000553 00000102 703.65 123.05 393.87 607.73 842.63 334.82 1020.28 343.76 961.84 450.08 859.84 575.89 981.75 582.91
00000554 00000103 702.27 121.40 395.16 607.17 840.65 332.32 1019.52 342.85 956.95 444.00 855.34 569.19 981.24 577.49
00000555 00000104 700.91 123.79 394.60 602.62 837.31 331.19 1017.86 342.52 953.59 439.54 851.64 564.64 982.06 573.48
00000556 00000105 698.27 124.51 395.13 596.88 834.72 330.24 1015.86 340.59 950.77 437.72 849.57 561.86 981.94 569.87
00000557 00000106 695.00 125.68 397.10 592.09 832.07 329.44 1014.11 338.92 947.73 437.26 848.65 559.06 981.35 566.34
00000558 00000107 692.80 125.69 396.79 589.03 829.67 329.30 1011.39 337.99 945.11 437.29 847.09 558.40 979.33 565.08
00000559 00000108 690.73 123.72 393.93 586.43 827.76 329.12 1009.63 338.31 943.78 437.48 845.99 555.66 978.82 562.78
00000560 00000109 688.68 122.37 393.69 583.34 826.25 329.72 1007.65 338.52 942.40 437.89 844.39 555.24 978.72 562.02
00000561 00000110 686.77 121.42 393.25 582.03 824.47 331.40 1005.02 338.53 941.22 439.31 843.12 555.47 977.44 560.92
00000562 00000111 685.26 112.10 392.76 587.33 820.41 332.24 997.12 348.85 934.25 438.11 839.24 547.03 980.80 561.36
00000563 00000112 683.99 112.37 391.17 584.02 817.87 332.89 993.99 348.18 932.24 436.95 838.54 546.24 979.44 559.50
00000564 00000113 681.47 113.07 393.23 583.14 815.82 332.38 991.83 347.35 929.37 435.51 836.39 546.12 976.20 559.36
CROP_BBOX: 334 0 1266 889
