Video ID: 	J8oxIvEGIdY
H: 	2160
W: 	3840
FPS: 	23.976023976023978

FRAME INDEX X0 Y0 W H [Landmarks (5 Points)]

00005763 00000000 1526.21 412.87 475.97 650.76 1679.43 669.61 1886.50 681.36 1794.80 792.08 1688.10 896.28 1863.94 904.68
00005764 00000001 1535.46 414.64 473.93 645.05 1689.02 672.15 1896.58 683.25 1804.05 796.94 1700.61 898.37 1871.74 906.06
00005765 00000002 1542.75 414.81 472.29 647.56 1694.20 672.01 1900.37 682.41 1806.91 796.50 1704.52 897.91 1875.66 905.49
00005766 00000003 1547.39 414.17 471.15 646.58 1695.03 672.41 1901.54 681.94 1806.62 797.25 1704.64 896.46 1877.83 903.77
00005767 00000004 1548.27 416.92 470.74 637.22 1691.41 673.77 1898.55 682.11 1801.74 799.02 1702.76 893.63 1875.68 900.00
00005768 00000005 1545.86 417.03 472.22 638.65 1682.87 673.85 1893.09 681.97 1791.46 796.14 1692.70 891.86 1871.15 898.55
00005769 00000006 1539.61 416.64 474.06 642.25 1673.05 675.35 1882.81 683.11 1779.16 798.53 1681.25 892.13 1863.07 898.62
00005770 00000007 1528.33 416.93 478.94 655.83 1661.72 674.11 1870.60 683.76 1762.76 797.45 1669.49 896.43 1845.99 903.67
00005771 00000008 1518.94 414.04 476.05 658.29 1648.38 671.41 1857.58 682.55 1743.85 793.00 1654.13 897.18 1825.76 905.19
00005772 00000009 1513.02 415.05 468.95 651.97 1637.04 672.06 1839.03 682.08 1724.35 793.30 1639.48 896.97 1806.54 904.87
00005773 DELETE   1506.69 414.78 466.29 651.75 1623.46 672.51 1824.72 682.41 1704.73 793.04 1621.55 896.09 1790.43 904.45
00005774 00000011 1497.75 421.85 472.06 646.88 1612.26 672.82 1812.69 683.48 1691.81 792.21 1610.55 895.67 1775.65 904.20
00005775 00000012 1492.33 424.47 472.77 639.80 1605.71 672.60 1806.68 685.06 1684.74 792.37 1603.74 895.53 1767.29 905.54
00005776 00000013 1489.94 423.74 473.96 643.25 1606.24 671.57 1807.81 685.21 1685.72 791.77 1603.50 894.52 1766.67 905.35
00005777 00000014 1495.36 423.93 469.92 632.06 1607.22 672.30 1810.19 688.56 1692.51 795.04 1609.51 892.25 1775.60 906.45
00005778 00000015 1493.27 417.69 473.19 636.14 1611.99 669.86 1813.36 684.85 1693.50 790.34 1609.32 884.56 1773.76 896.31
00005779 00000016 1494.36 414.91 473.70 637.91 1612.96 668.73 1812.63 684.26 1692.72 788.62 1609.97 883.23 1771.03 895.63
00005780 00000017 1495.25 418.61 471.69 633.47 1611.61 667.56 1809.36 685.18 1687.86 788.05 1609.11 885.59 1761.05 899.71
00005781 00000018 1495.15 419.61 470.63 631.00 1607.17 666.18 1805.37 685.48 1680.52 785.69 1601.81 884.73 1753.96 900.57
00005782 00000019 1496.49 412.80 471.35 638.61 1607.45 662.25 1806.64 681.76 1680.81 780.46 1602.21 883.03 1753.27 899.46
00005783 00000020 1497.15 406.71 475.94 653.90 1614.93 660.61 1813.03 678.43 1692.37 775.89 1612.13 885.92 1760.52 901.12
00005784 00000021 1501.43 401.20 474.21 656.88 1623.57 661.40 1821.73 677.99 1704.08 780.72 1620.49 884.22 1776.33 898.11
00005785 00000022 1507.43 406.70 474.37 655.90 1636.75 664.27 1833.17 680.39 1720.89 785.64 1636.12 890.28 1793.43 902.99
00005786 00000023 1508.68 410.02 477.72 658.42 1641.80 665.37 1842.84 681.78 1729.57 790.63 1642.60 894.54 1802.88 907.21
00005787 00000024 1509.41 411.79 476.33 657.29 1642.25 665.79 1842.21 682.17 1729.21 789.99 1643.11 895.97 1801.01 908.62
00005788 00000025 1507.11 407.01 475.27 659.47 1638.21 664.95 1833.72 680.34 1722.39 781.94 1638.64 894.17 1788.77 906.60
00005789 00000026 1502.30 403.07 475.43 659.41 1628.15 660.63 1826.26 677.30 1712.33 775.17 1626.56 888.23 1777.94 902.28
00005790 00000027 1500.09 401.41 474.29 651.61 1621.93 659.81 1821.05 676.52 1704.05 776.26 1618.25 882.93 1772.64 897.25
00005791 00000028 1501.36 400.23 474.01 648.42 1626.26 662.16 1823.88 679.08 1709.93 779.76 1622.55 881.79 1777.94 896.16
00005792 00000029 1505.01 405.63 472.69 644.31 1633.35 665.48 1830.03 680.03 1719.72 783.02 1634.93 886.53 1788.06 898.49
00005793 00000030 1505.60 408.36 472.11 647.99 1635.80 666.43 1834.13 680.48 1723.52 784.72 1637.76 890.24 1795.04 901.45
00005794 00000031 1502.21 410.29 474.01 658.41 1631.85 666.91 1831.33 679.89 1719.03 782.77 1632.28 893.97 1793.62 904.23
00005795 00000032 1502.11 406.34 470.73 657.25 1627.13 666.40 1827.36 680.00 1712.00 787.47 1623.60 891.81 1790.96 902.87
00005796 00000033 1502.56 404.45 469.35 652.68 1625.83 667.81 1827.36 680.62 1711.79 788.32 1621.68 889.04 1792.86 899.68
00005797 00000034 1502.54 406.72 470.68 651.94 1627.68 669.74 1829.13 681.93 1714.67 790.06 1625.05 890.84 1794.93 900.84
00005798 00000035 1501.58 410.82 471.10 650.71 1627.56 670.82 1827.41 683.53 1713.06 791.04 1626.02 893.81 1790.95 904.07
00005799 00000036 1501.76 416.41 470.31 646.04 1625.37 670.87 1825.18 684.82 1708.51 794.06 1623.05 894.65 1785.60 905.75
00005800 00000037 1501.52 414.87 471.01 644.77 1626.51 671.56 1826.07 686.46 1709.82 794.22 1623.64 891.96 1786.78 903.90
00005801 00000038 1501.71 415.48 472.26 645.27 1628.45 674.28 1829.02 687.82 1714.30 795.93 1627.34 894.75 1792.37 905.57
00005802 00000039 1501.07 415.19 473.13 645.89 1628.54 676.43 1828.34 688.22 1714.98 797.95 1630.67 897.07 1792.50 906.49
00005803 00000040 1500.30 414.95 473.48 648.46 1626.79 677.87 1825.55 689.09 1712.22 799.36 1628.37 899.18 1790.43 908.26
00005804 00000041 1498.84 416.62 474.42 650.53 1626.48 677.92 1825.84 689.53 1711.91 799.38 1627.65 900.58 1789.20 909.85
00005805 00000042 1499.38 418.63 474.15 649.22 1628.20 678.92 1827.90 691.24 1714.13 801.80 1629.31 901.48 1790.97 911.21
00005806 00000043 1499.11 420.93 475.30 651.26 1631.11 679.66 1830.07 692.22 1717.67 803.99 1632.28 903.41 1793.87 913.05
00005807 00000044 1498.72 420.75 476.19 654.82 1631.66 681.08 1829.22 692.71 1717.52 804.58 1632.67 905.10 1792.91 914.02
00005808 00000045 1500.31 425.76 475.44 648.94 1631.50 685.81 1830.07 696.75 1718.31 805.62 1631.57 904.67 1796.72 913.12
00005809 00000046 1501.90 434.60 477.11 642.15 1633.31 690.23 1838.35 699.99 1726.75 809.00 1637.32 908.10 1804.23 915.07
00005810 DELETE   1507.40 443.12 476.30 643.89 1640.16 696.35 1846.46 702.36 1741.85 815.88 1648.55 912.36 1819.03 915.68
00005811 DELETE   1511.86 448.94 477.79 636.86 1650.41 702.53 1854.34 707.71 1753.91 822.47 1663.89 917.45 1827.70 919.52
00005812 DELETE   1517.09 448.10 478.51 636.75 1659.81 707.77 1861.85 711.48 1766.20 827.28 1671.30 917.70 1837.18 919.40
00005813 00000050 1522.48 451.21 479.27 632.68 1669.41 712.44 1869.58 715.93 1778.95 831.38 1679.74 917.77 1848.10 919.68
00005814 00000051 1525.03 449.97 479.99 632.32 1675.03 715.65 1874.30 718.91 1784.88 830.42 1687.01 918.88 1852.41 920.56
00005815 00000052 1526.36 448.92 479.90 631.80 1676.90 716.26 1875.29 719.32 1785.87 828.95 1690.61 918.78 1852.50 920.13
00005816 00000053 1525.91 449.46 480.61 634.41 1677.77 715.44 1875.30 718.27 1787.04 827.18 1692.72 919.81 1852.16 920.91
00005817 00000054 1526.20 448.89 480.97 635.26 1678.04 715.24 1876.10 718.39 1787.20 828.32 1692.68 920.52 1852.14 921.90
00005818 00000055 1526.88 449.80 480.34 634.18 1676.83 715.16 1875.87 718.24 1786.59 831.47 1689.58 920.98 1852.25 922.51
00005819 00000056 1526.06 450.61 480.30 638.83 1675.69 714.27 1875.67 717.63 1786.92 832.30 1686.92 923.24 1851.36 925.20
00005820 00000057 1525.18 450.17 479.24 643.30 1674.35 713.45 1875.41 716.13 1788.13 832.22 1683.97 923.08 1853.84 924.86
00005821 00000058 1525.23 449.92 478.11 644.18 1672.75 712.86 1874.91 715.82 1787.16 831.61 1681.03 922.56 1853.82 924.86
00005822 00000059 1525.65 449.35 477.36 644.98 1672.26 712.56 1874.78 715.78 1786.86 831.51 1680.10 922.29 1853.86 924.89
00005823 00000060 1526.02 449.40 477.01 642.93 1672.37 712.80 1874.69 716.03 1786.44 831.62 1680.13 921.77 1853.65 924.36
00005824 00000061 1526.04 449.66 477.06 642.51 1672.18 713.34 1874.69 717.04 1785.55 831.12 1679.33 921.06 1853.25 924.12
00005825 00000062 1525.97 450.18 477.31 640.70 1671.83 713.14 1874.35 717.04 1784.65 831.13 1679.09 920.06 1852.70 923.24
00005826 00000063 1525.01 449.69 477.16 640.87 1670.17 712.53 1873.18 715.88 1783.71 830.53 1678.59 919.79 1852.17 922.45
00005827 00000064 1525.25 448.59 477.33 641.95 1670.04 712.35 1872.98 715.65 1783.27 830.19 1678.50 919.85 1851.60 922.52
00005828 00000065 1525.24 448.30 477.63 642.30 1670.42 712.24 1873.09 715.72 1783.31 829.87 1678.66 919.64 1851.48 922.45
00005829 00000066 1525.26 448.18 478.13 641.85 1671.07 712.09 1873.93 716.12 1783.68 830.37 1679.04 919.74 1851.59 922.93
00005830 00000067 1525.33 447.51 478.44 642.41 1671.35 712.10 1874.35 716.14 1783.92 830.49 1679.56 919.88 1851.85 923.07
00005831 00000068 1525.58 447.84 478.12 641.87 1671.60 712.11 1874.11 715.99 1783.85 829.94 1679.98 920.01 1851.72 923.05
00005832 00000069 1525.59 447.60 478.33 642.21 1671.75 712.23 1874.14 715.93 1784.05 829.88 1680.34 920.07 1851.77 922.97
00005833 00000070 1525.76 446.84 477.61 642.11 1671.65 712.07 1873.47 715.47 1783.68 829.33 1680.01 919.39 1851.62 922.12
00005834 00000071 1525.30 445.22 477.43 643.81 1670.71 712.44 1872.36 715.05 1783.05 829.01 1679.83 919.27 1851.20 921.37
00005835 00000072 1525.23 444.41 477.62 645.26 1669.61 712.48 1871.70 714.64 1782.39 828.32 1678.79 918.84 1850.94 920.66
00005836 00000073 1524.74 444.71 478.05 645.63 1668.94 711.88 1871.64 714.11 1781.96 827.96 1678.25 918.84 1851.16 920.72
00005837 00000074 1524.59 444.98 477.63 644.83 1668.63 711.88 1871.40 714.04 1781.59 827.34 1678.00 918.66 1851.07 920.46
00005838 00000075 1525.02 444.23 477.41 645.10 1668.72 711.49 1871.61 713.93 1781.67 827.46 1677.95 918.55 1850.88 920.59
00005839 00000076 1524.53 444.95 477.51 644.48 1668.13 711.03 1871.71 713.71 1781.47 826.97 1677.35 917.80 1851.25 920.05
00005840 00000077 1523.11 445.47 476.80 643.82 1666.02 706.55 1870.44 709.19 1780.49 825.08 1675.61 916.58 1850.62 918.59
00005841 00000078 1520.03 445.80 474.78 644.32 1658.88 702.85 1862.35 703.56 1768.02 815.33 1671.36 915.61 1844.21 915.42
00005842 DELETE   1512.29 438.13 475.70 648.96 1650.10 689.42 1855.24 691.28 1752.70 804.28 1662.11 909.09 1833.69 908.91
00005843 DELETE   1506.22 418.80 471.43 651.90 1634.84 674.26 1841.48 679.75 1729.30 788.84 1641.58 895.83 1812.22 899.34
00005844 DELETE   1501.14 408.32 467.95 645.62 1616.65 665.70 1820.48 672.08 1704.40 774.31 1619.42 881.85 1793.39 887.27
00005845 00000082 1493.41 404.79 468.24 638.27 1594.99 659.02 1808.46 671.08 1679.68 766.95 1597.73 875.44 1778.36 887.98
00005846 00000083 1485.92 400.51 463.62 638.83 1587.52 656.00 1796.90 671.13 1668.75 761.70 1585.63 873.12 1758.55 887.92
00005847 00000084 1479.96 397.37 461.65 638.55 1581.88 656.02 1787.75 672.72 1662.30 762.57 1579.53 871.96 1746.37 887.68
00005848 00000085 1475.16 387.99 467.95 651.32 1580.22 655.98 1782.22 670.87 1658.06 759.49 1578.84 869.82 1745.05 883.21
00005849 00000086 1472.54 389.08 467.62 651.75 1578.31 657.85 1780.18 672.42 1657.12 762.15 1576.94 871.78 1742.93 885.01
00005850 00000087 1472.42 399.54 465.91 643.67 1578.07 660.11 1781.64 678.41 1658.97 770.76 1575.73 877.44 1737.06 894.12
00005851 00000088 1470.76 397.44 468.51 653.86 1575.78 662.27 1780.23 679.72 1655.27 772.57 1574.25 882.57 1733.41 898.95
00005852 00000089 1469.63 398.36 468.59 651.45 1575.81 664.96 1778.28 682.28 1656.11 776.02 1574.30 884.27 1732.95 900.38
00005853 00000090 1469.87 400.50 467.24 647.87 1576.21 665.77 1777.41 682.17 1655.59 777.71 1576.56 882.91 1732.52 898.03
00005854 00000091 1468.77 402.59 467.26 644.14 1577.70 666.71 1776.70 682.90 1655.98 780.26 1578.00 880.98 1732.89 895.78
00005855 00000092 1468.68 403.46 467.24 642.73 1577.98 667.52 1775.02 683.40 1656.18 783.34 1580.89 881.14 1732.24 895.46
00005856 00000093 1468.72 404.60 467.09 639.93 1578.59 667.99 1774.97 683.75 1656.82 783.80 1581.97 881.05 1731.76 895.26
00005857 00000094 1469.78 405.67 467.77 639.48 1579.86 667.96 1778.03 683.81 1659.18 783.73 1583.17 881.00 1735.66 895.33
00005858 00000095 1471.05 409.89 468.94 635.42 1581.45 667.31 1782.62 683.84 1662.95 783.61 1585.16 880.42 1741.17 895.03
00005859 00000096 1473.91 410.68 469.90 634.18 1585.46 667.92 1788.09 685.25 1667.20 785.40 1587.84 880.00 1747.26 895.11
00005860 00000097 1478.86 414.39 469.44 629.81 1590.97 669.27 1792.88 686.16 1673.38 787.61 1592.11 881.84 1755.82 896.41
00005861 00000098 1484.59 414.31 470.23 630.98 1597.33 668.06 1800.88 684.80 1682.16 786.16 1598.74 882.27 1765.90 896.88
00005862 00000099 1492.50 413.80 467.27 629.94 1606.41 667.93 1811.13 681.19 1696.60 785.90 1611.16 882.78 1781.24 894.46
00005863 00000100 1498.42 411.33 470.70 637.68 1623.94 669.93 1822.79 677.30 1715.45 783.57 1632.11 891.97 1791.72 897.80
00005864 00000101 1501.44 405.53 477.22 657.75 1638.22 669.62 1839.17 677.74 1734.59 784.09 1649.89 897.59 1807.24 903.78
00005865 00000102 1508.31 408.70 480.19 664.14 1653.56 673.01 1856.38 680.92 1756.98 789.21 1667.91 902.27 1827.96 907.27
00005866 00000103 1520.09 417.95 479.25 654.85 1666.88 677.77 1867.69 681.48 1773.79 793.82 1687.66 904.75 1845.06 905.73
00005867 00000104 1528.87 419.93 478.01 644.46 1679.78 679.93 1875.78 683.24 1787.18 795.40 1704.19 903.84 1854.06 904.33
00005868 00000105 1537.08 420.58 476.12 637.55 1686.79 679.52 1886.84 682.80 1795.94 796.38 1713.96 902.29 1863.52 902.72
00005869 00000106 1542.83 425.95 473.64 632.80 1694.28 680.22 1892.17 683.50 1803.49 798.30 1720.87 902.30 1869.93 902.61
00005870 00000107 1545.77 421.76 473.07 636.19 1696.90 679.88 1894.39 683.80 1805.45 799.20 1722.17 901.35 1871.91 902.43
00005871 00000108 1545.78 421.30 472.80 630.92 1694.67 678.65 1893.83 683.97 1802.44 800.33 1718.69 899.59 1869.31 901.79
00005872 00000109 1541.50 421.70 476.16 632.57 1687.99 677.62 1889.89 683.59 1795.02 799.13 1710.43 899.21 1863.77 902.27
00005873 00000110 1533.84 424.38 480.32 644.54 1682.76 677.67 1880.51 685.52 1785.45 794.91 1703.73 902.76 1852.38 907.25
00005874 00000111 1526.95 425.93 482.72 643.43 1670.65 676.87 1872.98 684.22 1774.56 798.43 1690.31 903.24 1844.24 907.31
00005875 00000112 1519.27 426.99 481.79 644.77 1658.21 678.34 1863.65 687.86 1758.42 800.61 1675.12 904.84 1829.77 910.69
00005876 00000113 1510.96 429.86 481.98 644.20 1648.81 678.54 1849.04 688.96 1742.39 798.20 1664.59 907.68 1810.41 914.74
00005877 00000114 1505.01 427.28 480.79 643.70 1640.42 679.60 1836.72 690.88 1729.13 800.81 1654.29 907.34 1797.86 915.61
00005878 00000115 1503.69 424.31 476.23 642.99 1634.38 681.12 1829.48 692.48 1719.80 802.18 1643.93 904.34 1791.62 913.12
00005879 00000116 1502.77 424.49 474.18 634.84 1629.46 681.73 1824.53 693.12 1712.77 804.43 1637.32 900.34 1787.86 909.38
00005880 00000117 1500.79 426.04 474.75 632.43 1625.39 681.23 1820.88 693.38 1707.99 804.33 1632.88 898.94 1783.48 908.16
00005881 00000118 1498.43 427.38 476.40 632.34 1623.90 681.94 1820.25 693.95 1707.17 805.72 1631.52 899.95 1781.89 908.93
00005882 00000119 1497.80 428.41 477.69 635.03 1626.38 683.17 1822.59 694.87 1710.58 806.43 1636.12 902.65 1783.68 911.36
00005883 00000120 1498.49 429.54 479.66 641.05 1630.98 687.49 1825.33 696.48 1716.24 807.07 1644.90 907.31 1789.46 913.77
00005884 00000121 1500.29 438.41 479.74 634.78 1634.75 691.59 1830.09 698.69 1723.74 810.60 1650.29 910.98 1796.41 915.50
00005885 00000122 1503.72 445.74 477.57 627.95 1636.25 700.45 1836.05 705.19 1730.14 817.35 1655.81 915.90 1804.71 917.79
00005886 00000123 1506.25 446.89 477.63 634.27 1640.68 705.61 1843.53 708.76 1740.27 823.07 1657.78 917.28 1818.34 917.70
CROP_BBOX: 1173 53 2283 1274
