Video ID: 	o3dc6zII4p4
H: 	1080
W: 	1920
FPS: 	25.0

FRAME INDEX X0 Y0 W H [Landmarks (5 Points)]

00006946 00000000 729.19 148.91 400.78 639.87 798.96 370.95 986.83 389.80 835.75 496.94 789.52 616.79 944.58 631.63
00006947 00000001 726.59 149.57 402.45 640.07 796.06 372.66 984.25 390.84 833.06 497.59 787.71 616.99 943.95 631.30
00006948 00000002 726.10 149.97 403.81 638.51 795.44 373.06 984.53 391.36 833.54 499.22 787.86 616.31 945.44 630.63
00006949 DELETE   729.77 150.18 400.83 634.96 801.17 384.26 983.14 404.34 834.76 501.19 791.26 612.27 949.14 627.89
00006950 DELETE   728.92 153.01 402.60 631.94 799.42 384.62 983.04 403.05 834.76 500.84 790.34 612.98 949.34 627.31
00006951 00000005 725.88 153.50 409.27 630.90 794.33 377.57 980.67 395.21 831.69 497.92 786.85 613.63 945.23 627.10
00006952 00000006 722.42 152.20 412.70 638.47 786.09 382.26 983.57 397.29 830.82 499.14 788.18 617.92 952.02 629.44
00006953 00000007 723.61 153.54 413.31 647.83 788.39 379.18 987.21 393.51 830.67 499.09 789.91 622.65 952.64 633.59
00006954 00000008 724.99 152.28 408.23 657.09 791.19 377.89 988.40 391.66 833.68 499.63 794.57 625.66 954.31 635.90
00006955 00000009 726.69 151.04 403.17 658.51 792.33 377.00 988.83 390.28 835.25 498.80 795.89 627.47 953.18 637.60
00006956 00000010 722.87 146.17 409.62 657.20 792.17 369.48 982.80 384.90 830.02 493.86 785.32 621.55 941.42 633.67
00006957 00000011 717.18 146.68 412.66 635.62 789.15 367.21 978.55 385.20 828.46 487.14 779.36 607.51 935.86 622.04
00006958 00000012 717.89 147.47 413.27 628.19 789.08 363.34 978.32 383.75 826.09 483.74 774.37 599.56 936.41 615.93
00006959 00000013 719.47 146.48 411.94 632.14 790.89 362.87 981.79 383.94 829.86 485.56 776.97 599.55 943.40 616.15
00006960 00000014 721.15 146.23 408.07 635.79 793.59 364.72 983.09 384.56 833.86 486.51 782.05 602.81 946.24 618.43
00006961 00000015 723.19 144.18 406.06 641.38 793.21 367.15 981.09 383.13 831.92 488.71 786.39 610.12 942.81 622.69
00006962 00000016 722.17 146.12 408.04 643.80 788.64 369.90 977.52 383.31 825.57 489.61 782.01 616.89 936.86 627.55
00006963 00000017 721.32 147.12 410.47 643.65 786.11 372.57 976.01 385.84 823.40 492.34 779.91 619.22 935.36 629.80
00006964 00000018 720.59 147.69 408.39 641.84 785.52 375.05 974.97 389.20 822.57 495.55 778.00 620.15 933.30 631.59
00006965 00000019 720.30 150.18 411.19 637.05 784.21 375.91 975.18 390.89 821.61 499.05 777.20 619.93 934.41 631.84
00006966 00000020 720.14 153.10 413.33 635.61 784.68 376.39 975.55 391.83 822.45 500.84 778.39 618.79 938.43 630.71
00006967 00000021 722.90 149.69 411.02 643.66 780.90 383.38 978.02 395.63 824.96 505.47 786.72 624.36 948.42 633.91
00006968 00000022 727.79 153.60 403.88 643.65 785.13 384.99 981.10 395.69 828.73 507.37 792.51 627.74 951.93 635.83
00006969 00000023 729.35 151.72 406.82 640.13 787.43 386.94 984.80 398.87 832.83 510.39 792.76 628.69 953.24 637.93
00006970 00000024 730.28 153.62 409.09 635.28 790.42 385.67 989.25 401.82 836.30 511.12 790.30 625.92 952.12 638.87
00006971 00000025 729.54 154.95 411.42 634.10 790.35 386.28 989.34 403.90 835.45 511.39 787.92 625.60 950.38 639.85
00006972 00000026 728.08 159.62 408.00 630.71 793.95 379.14 985.44 398.60 831.37 506.05 782.55 621.83 943.44 637.09
00006973 00000027 727.96 160.04 407.73 629.21 793.19 379.03 984.47 397.91 830.39 505.84 782.19 621.99 942.25 636.88
00006974 00000028 728.17 158.53 407.65 631.36 793.61 378.45 985.84 396.75 830.93 505.06 782.31 622.45 942.99 636.83
00006975 00000029 728.53 155.38 408.44 633.20 794.67 378.72 987.29 396.31 833.10 503.66 783.96 622.23 943.81 636.21
00006976 00000030 729.65 152.89 404.82 635.73 794.07 376.97 985.87 391.05 831.53 500.30 785.74 623.72 942.41 635.03
00006977 00000031 728.45 151.46 399.30 634.49 796.24 374.45 988.08 388.24 836.51 495.38 788.17 620.36 944.32 631.70
00006978 00000032 731.78 147.34 402.27 629.40 800.91 371.92 997.93 385.59 846.15 490.57 794.17 612.09 957.29 623.01
00006979 00000033 734.56 140.36 417.12 623.55 807.92 371.69 1010.18 391.61 858.38 492.09 801.33 605.60 967.15 621.28
00006980 00000034 738.28 136.57 423.64 626.16 819.09 374.64 1027.01 397.58 880.85 495.22 812.50 602.70 985.07 620.78
00006981 00000035 752.84 149.76 424.14 620.69 838.19 378.18 1045.54 402.12 903.02 497.24 824.01 601.64 1001.80 620.72
00006982 00000036 756.67 145.64 431.18 625.99 846.32 377.90 1057.27 403.15 918.64 501.08 832.70 602.84 1014.45 622.90
00006983 00000037 760.03 153.68 435.59 621.10 853.58 381.97 1065.92 405.73 932.56 503.83 841.36 607.46 1025.44 625.94
00006984 00000038 764.03 154.87 432.89 623.94 856.17 383.33 1068.12 403.92 936.00 503.00 845.79 610.61 1030.79 626.56
00006985 00000039 762.79 151.52 431.28 633.22 853.17 382.14 1064.27 398.42 935.07 501.96 848.34 615.89 1028.33 628.48
00006986 00000040 763.17 150.10 428.22 643.30 852.22 384.36 1062.51 399.71 933.89 505.44 846.81 622.19 1024.60 634.18
00006987 00000041 764.55 152.74 428.23 644.24 854.17 386.68 1063.62 401.32 937.56 508.52 850.09 625.04 1027.50 636.46
00006988 00000042 768.71 152.48 429.51 646.67 860.16 386.07 1065.11 398.67 940.41 506.02 860.45 625.49 1032.08 634.99
00006989 00000043 769.14 150.55 427.51 646.22 862.21 383.73 1068.72 395.95 945.02 504.27 864.97 624.75 1035.37 633.87
00006990 00000044 766.01 148.63 429.42 639.97 859.35 381.26 1071.07 394.46 946.50 499.19 860.76 618.47 1039.23 628.18
00006991 00000045 765.18 147.78 428.52 635.37 858.71 378.11 1071.58 392.22 946.74 495.28 857.65 612.60 1040.86 623.13
00006992 00000046 767.39 146.51 428.00 638.02 860.76 375.55 1073.19 388.03 949.14 494.86 861.13 612.47 1044.00 621.75
00006993 00000047 771.27 143.39 423.49 648.08 866.09 372.09 1076.35 383.65 952.68 496.17 869.72 616.99 1040.99 625.35
00006994 00000048 771.74 143.29 427.25 643.53 866.24 373.88 1080.52 383.62 958.51 495.67 871.20 616.81 1048.07 623.64
00006995 00000049 769.02 145.10 430.15 638.75 862.55 375.51 1079.74 385.82 956.52 494.99 865.24 612.72 1052.60 620.04
00006996 00000050 768.47 144.16 428.69 639.42 861.75 375.82 1077.31 385.75 953.98 494.63 864.10 611.62 1051.58 618.63
00006997 00000051 769.95 144.24 427.70 638.97 863.60 373.87 1079.71 383.52 955.37 493.53 866.84 613.19 1050.12 619.85
00006998 00000052 772.29 144.29 425.41 639.56 868.55 372.06 1082.88 381.77 961.31 492.93 873.37 614.26 1049.29 620.86
00006999 00000053 771.47 143.91 427.36 640.38 869.26 372.20 1086.51 382.00 966.56 491.00 875.68 615.79 1053.14 622.37
00007000 00000054 772.80 143.54 426.55 635.83 870.53 371.78 1088.12 382.12 967.99 490.26 875.99 614.08 1054.39 621.18
00007001 00000055 767.60 146.16 428.91 633.08 866.40 373.77 1084.25 385.72 963.21 493.00 869.25 612.92 1049.70 621.55
00007002 00000056 761.76 149.25 432.42 630.02 860.65 374.50 1078.20 386.89 957.23 494.70 863.25 611.62 1045.84 620.64
00007003 00000057 760.79 150.54 432.62 629.74 859.55 376.43 1075.26 388.37 955.54 495.52 862.29 612.65 1044.87 621.32
00007004 00000058 759.61 152.13 432.14 628.50 858.74 376.93 1074.60 388.01 956.29 495.41 862.89 612.96 1045.92 620.91
00007005 00000059 759.06 149.67 431.68 627.64 857.91 375.70 1075.22 385.72 956.81 493.79 862.67 611.63 1047.25 618.53
00007006 00000060 759.81 149.21 427.40 626.40 855.19 376.16 1071.55 384.59 951.60 492.23 860.45 610.47 1046.09 616.18
00007007 00000061 758.32 146.71 425.95 628.34 854.30 375.82 1070.49 384.64 950.50 491.69 859.84 609.55 1045.26 615.56
00007008 00000062 759.36 147.35 425.47 632.94 856.35 374.56 1069.10 383.85 950.63 491.59 860.91 611.05 1040.19 617.84
00007009 00000063 760.86 147.42 423.80 636.71 856.58 375.07 1068.38 384.08 949.41 493.22 861.76 614.11 1038.71 620.71
00007010 00000064 761.59 147.23 423.59 636.82 857.18 376.26 1070.44 385.32 951.75 495.20 861.37 614.96 1040.81 621.53
00007011 00000065 761.34 147.66 423.17 635.10 857.06 375.87 1071.10 385.55 951.94 494.79 860.85 614.58 1040.69 621.66
00007012 00000066 761.62 146.96 425.90 635.38 858.37 373.22 1073.41 383.10 954.10 492.72 862.70 612.80 1043.52 620.01
00007013 00000067 761.37 144.91 425.00 637.01 858.51 371.45 1073.26 380.64 955.92 491.94 863.96 612.45 1042.67 619.12
00007014 00000068 760.47 145.43 428.60 634.05 857.35 370.68 1074.32 378.95 956.62 490.81 864.08 611.70 1045.67 617.51
00007015 00000069 760.86 144.50 427.68 632.42 857.14 369.69 1075.95 378.22 957.15 491.09 863.65 611.06 1044.96 617.08
00007016 00000070 760.33 145.17 428.57 631.19 857.22 369.05 1075.66 378.63 956.92 491.42 862.59 610.69 1041.56 617.79
00007017 00000071 762.03 144.51 425.86 633.26 857.98 369.83 1075.38 379.44 955.86 493.87 861.79 611.14 1039.06 618.44
00007018 00000072 765.65 143.24 425.84 644.36 857.19 372.63 1073.36 380.66 951.42 495.94 862.44 616.58 1040.84 622.36
00007019 00000073 770.58 139.77 417.75 664.57 861.18 367.17 1072.68 377.07 946.53 495.69 861.04 621.21 1035.92 628.12
00007020 00000074 768.49 138.23 422.55 674.60 861.27 365.55 1072.51 374.24 948.03 494.23 862.90 622.07 1044.90 627.72
00007021 00000075 768.79 138.43 422.98 675.93 861.66 367.19 1073.10 374.42 949.05 494.03 865.76 624.24 1047.62 628.62
00007022 00000076 771.91 142.76 423.32 667.86 861.01 373.23 1074.80 379.65 949.51 488.35 874.49 625.66 1044.36 629.74
00007023 00000077 771.08 138.80 415.13 664.48 862.14 367.93 1071.42 376.15 946.96 492.79 868.15 623.32 1035.67 628.55
00007024 00000078 770.26 138.73 416.18 656.01 860.02 369.06 1070.98 379.41 946.74 491.96 862.54 618.30 1035.94 625.66
00007025 00000079 770.67 135.71 418.04 649.97 860.34 366.82 1073.88 377.04 951.72 488.39 862.39 613.56 1040.70 621.21
00007026 00000080 771.00 135.05 421.04 644.43 862.55 363.97 1076.61 374.21 957.13 485.20 864.83 609.86 1042.74 617.60
00007027 00000081 772.63 133.19 419.35 643.03 863.89 362.29 1076.81 371.20 958.30 481.38 868.63 608.17 1042.03 614.60
00007028 00000082 773.07 130.19 419.74 644.80 865.79 359.11 1077.07 369.26 958.35 479.88 867.98 603.77 1039.69 611.04
00007029 00000083 773.45 130.43 420.41 642.97 865.19 360.08 1076.09 369.53 957.24 479.21 867.59 601.62 1041.15 608.32
00007030 00000084 774.74 131.66 418.75 636.00 865.42 360.40 1076.09 368.37 957.43 477.68 869.53 599.94 1040.12 605.65
00007031 00000085 777.05 127.95 416.75 634.33 867.91 358.34 1078.18 365.60 960.96 471.66 873.89 598.09 1041.05 603.22
00007032 00000086 777.09 128.03 416.85 634.96 868.54 355.89 1079.74 364.88 961.13 469.87 873.24 597.94 1040.30 604.44
00007033 00000087 776.02 129.75 417.19 636.34 868.06 357.94 1078.14 367.07 959.91 473.87 872.72 600.24 1041.39 606.56
00007034 00000088 773.59 137.20 418.65 631.52 866.09 361.76 1076.47 372.32 956.50 479.91 868.56 601.96 1041.28 609.56
00007035 00000089 771.25 143.00 419.53 627.34 865.04 365.56 1075.44 378.31 952.96 484.11 862.69 602.00 1042.20 611.78
00007036 00000090 772.14 143.55 419.60 625.50 865.60 366.98 1077.57 380.78 952.19 486.12 861.07 600.38 1044.88 610.92
00007037 00000091 771.44 145.62 422.36 629.00 865.95 369.99 1077.46 382.77 952.60 489.79 861.80 602.29 1048.41 611.85
00007038 00000092 773.97 144.18 419.72 643.27 869.16 368.14 1076.77 380.16 953.12 492.04 865.64 604.52 1051.48 613.01
00007039 00000093 775.21 143.62 418.72 643.76 867.68 368.75 1075.01 377.59 952.67 489.78 867.56 604.25 1057.07 609.94
00007040 00000094 774.70 139.02 419.56 643.43 866.65 367.06 1073.76 374.76 952.39 484.53 866.98 599.88 1057.07 604.60
00007041 00000095 771.11 136.30 420.53 637.96 862.31 366.04 1070.24 375.42 947.28 479.30 860.74 594.46 1050.70 600.74
00007042 00000096 768.31 133.73 416.61 636.26 856.32 365.92 1062.71 377.57 938.09 478.72 851.23 590.21 1040.59 598.62
00007043 00000097 762.00 129.57 414.31 642.15 850.99 362.73 1052.32 377.50 926.30 482.82 845.59 585.99 1030.16 597.21
00007044 00000098 755.75 132.44 413.86 643.44 841.32 363.12 1042.81 379.65 909.40 487.45 836.44 588.58 1020.99 601.54
00007045 00000099 755.19 128.68 407.16 654.87 830.02 366.68 1030.92 383.61 895.95 491.73 830.47 595.98 1005.60 609.99
00007046 00000100 742.61 134.28 406.73 632.85 819.52 372.16 1024.76 380.82 889.23 496.59 825.00 605.27 1000.77 610.96
00007047 00000101 738.58 137.60 409.59 625.69 812.77 374.03 1015.25 381.47 878.00 498.13 819.63 605.54 993.68 610.05
00007048 00000102 736.24 139.43 409.04 622.64 807.73 373.57 1007.41 382.61 868.05 498.77 814.73 603.14 989.42 608.73
00007049 00000103 733.47 139.71 411.05 622.09 805.83 372.80 1003.79 383.86 864.48 497.86 810.62 599.33 987.72 606.32
00007050 00000104 730.50 140.53 414.16 620.28 802.71 372.77 1000.27 384.01 860.24 496.39 807.04 599.88 983.00 606.92
00007051 00000105 725.66 142.45 418.94 620.64 799.98 372.47 999.35 385.53 857.88 494.80 800.96 598.94 980.03 607.39
00007052 00000106 722.60 144.20 422.39 623.85 797.13 373.63 996.69 386.76 854.59 494.86 797.40 600.72 976.95 609.35
00007053 00000107 720.58 146.02 422.49 626.72 795.20 376.96 993.92 388.11 852.15 496.53 795.73 604.15 975.20 611.17
00007054 00000108 719.30 148.15 418.94 629.78 793.23 379.93 990.36 389.65 849.69 502.32 794.54 608.82 972.85 614.73
00007055 00000109 718.14 150.13 419.31 629.20 791.80 381.72 988.14 392.06 848.77 505.46 793.07 610.44 971.05 616.94
00007056 00000110 717.59 154.15 417.26 626.78 791.44 384.54 986.90 395.20 848.88 507.23 792.20 611.95 969.66 618.93
00007057 00000111 717.84 153.66 416.96 628.56 790.59 384.42 985.89 395.43 847.93 508.42 791.47 612.86 969.47 620.05
00007058 00000112 718.46 153.32 416.73 632.96 790.74 384.72 986.22 395.24 848.08 509.97 792.00 615.64 969.12 622.41
00007059 00000113 722.78 149.60 407.88 649.89 792.29 380.37 987.09 387.82 845.00 506.03 795.44 623.08 966.74 627.49
00007060 00000114 728.36 144.61 399.15 658.10 800.38 371.83 990.62 380.57 847.28 496.78 799.33 621.28 960.78 627.35
00007061 00000115 727.41 144.81 406.02 648.94 800.57 368.93 993.94 377.83 851.36 493.31 800.09 616.91 961.35 623.13
00007062 00000116 730.21 140.06 406.39 646.68 803.29 368.58 996.40 377.67 855.29 491.71 803.79 614.08 963.59 620.51
00007063 00000117 732.17 141.32 404.99 644.10 805.64 370.48 1001.65 378.62 861.08 494.60 807.87 613.82 971.83 619.35
00007064 00000118 735.46 150.87 417.74 638.75 811.31 383.36 1016.31 388.40 874.05 504.36 817.93 620.10 986.57 622.92
00007065 00000119 741.06 151.89 421.58 648.44 817.33 381.01 1013.91 390.55 875.00 509.10 818.91 616.27 986.14 623.68
00007066 00000120 740.89 160.22 415.76 643.03 818.38 387.50 1019.27 393.17 880.22 511.14 823.86 620.55 998.33 623.59
00007067 00000121 740.45 161.28 412.41 634.77 818.25 384.38 1019.23 390.64 880.66 507.74 823.41 615.47 997.34 619.25
00007068 00000122 738.31 147.62 405.55 635.00 818.73 372.25 1017.09 377.96 884.79 496.19 822.26 606.65 996.73 609.96
00007069 00000123 738.52 133.25 405.70 631.37 819.56 368.79 1019.70 370.29 891.54 488.52 828.03 599.10 1000.70 598.88
00007070 00000124 743.13 130.15 410.90 619.29 824.66 362.82 1029.98 360.07 898.77 471.79 836.71 592.70 1004.66 589.18
00007071 00000125 747.64 127.34 408.62 616.14 828.35 358.45 1036.26 353.08 905.59 461.14 842.01 589.30 1009.97 584.91
00007072 00000126 753.83 126.68 411.82 614.89 831.60 354.67 1036.11 354.88 905.37 456.33 843.57 580.61 1009.64 581.16
00007073 00000127 761.14 134.62 402.29 609.80 837.84 355.26 1040.44 355.63 914.90 458.51 847.26 584.36 1011.66 585.92
00007074 00000128 761.02 133.86 401.28 613.62 839.30 358.32 1042.97 359.33 917.46 463.98 848.38 589.84 1012.73 592.07
CROP_BBOX: 475 0 1438 951
