Video ID: 	YmNt0kpaZGE
H: 	2160
W: 	3840
FPS: 	23.976023976023978

FRAME INDEX X0 Y0 W H [Landmarks (5 Points)]

00013791 00000000 2481.76 168.00 470.02 699.82 2548.63 485.32 2728.10 485.62 2574.08 584.13 2549.95 715.62 2707.29 717.37
00013792 00000001 2482.28 168.36 469.84 696.25 2549.91 483.46 2729.04 482.18 2575.04 579.51 2548.52 714.24 2709.65 715.13
00013793 00000002 2479.38 169.00 471.02 693.94 2547.66 486.09 2730.81 485.93 2575.45 586.47 2548.48 718.10 2713.10 719.65
00013794 00000003 2474.90 178.84 473.00 693.07 2543.25 495.18 2725.50 499.44 2572.06 600.73 2547.78 724.78 2704.85 728.81
00013795 DELETE   2470.44 189.08 475.30 698.05 2534.59 511.73 2724.73 517.44 2568.74 620.54 2546.85 743.53 2704.27 748.85
00013796 00000005 2466.98 196.26 475.33 715.52 2531.62 526.67 2717.67 533.50 2565.83 638.90 2544.55 756.50 2696.45 762.83
00013797 00000006 2462.54 203.35 480.51 718.69 2537.29 536.21 2726.63 543.88 2576.67 653.61 2542.44 767.61 2701.69 776.69
00013798 00000007 2460.80 206.19 486.02 723.82 2538.49 539.08 2729.77 549.24 2578.79 659.22 2543.01 772.87 2701.96 783.53
00013799 00000008 2462.71 204.01 486.37 728.80 2539.19 537.65 2728.85 547.46 2576.71 655.63 2543.92 770.87 2703.10 781.37
00013800 00000009 2463.86 201.18 485.92 731.37 2540.14 533.46 2728.01 543.18 2576.04 650.23 2545.41 768.27 2703.32 778.95
00013801 00000010 2467.50 200.59 483.86 732.72 2541.53 530.35 2728.92 538.76 2576.93 644.52 2547.70 767.34 2705.01 777.11
00013802 00000011 2471.11 202.58 482.14 726.77 2542.87 528.25 2732.36 539.02 2579.73 644.01 2548.45 763.32 2707.59 774.73
00013803 00000012 2472.59 202.92 481.27 725.85 2543.86 529.23 2734.73 539.96 2582.17 645.24 2550.29 763.55 2711.62 774.92
00013804 00000013 2474.57 203.29 481.52 730.62 2546.24 529.81 2736.42 541.12 2582.91 646.46 2552.84 765.70 2713.34 777.42
00013805 00000014 2474.77 201.87 482.16 732.50 2546.12 530.24 2737.84 542.35 2583.80 650.43 2552.08 767.49 2715.29 779.64
00013806 00000015 2473.34 201.30 484.25 727.97 2546.07 531.75 2738.78 544.54 2586.40 653.63 2550.20 765.51 2716.19 778.22
00013807 00000016 2472.36 203.29 486.09 730.27 2545.90 530.86 2741.28 544.85 2587.34 653.64 2551.10 765.38 2720.24 779.07
00013808 00000017 2473.99 202.69 485.98 735.86 2547.50 529.56 2738.53 543.90 2584.92 653.40 2554.58 766.56 2716.90 780.35
00013809 00000018 2473.43 203.17 486.46 735.68 2547.28 528.85 2738.34 541.80 2585.54 650.79 2555.78 765.36 2718.57 778.31
00013810 00000019 2473.06 204.13 487.02 731.07 2546.70 528.07 2737.25 541.12 2585.00 648.30 2554.29 762.44 2717.12 775.50
00013811 00000020 2470.90 203.20 488.53 724.49 2545.99 527.51 2737.94 541.58 2587.79 648.37 2552.74 759.78 2716.48 773.92
00013812 00000021 2471.71 204.88 488.90 726.11 2546.44 527.27 2738.54 541.46 2587.79 647.43 2553.92 758.80 2717.61 772.87
00013813 00000022 2474.23 207.03 485.57 732.77 2548.00 526.83 2737.82 540.32 2586.18 647.72 2556.92 761.93 2719.40 775.22
00013814 00000023 2473.14 206.81 485.02 733.24 2547.80 527.96 2736.81 540.59 2586.93 649.13 2557.12 762.35 2720.05 775.12
00013815 00000024 2470.54 212.08 487.29 725.26 2546.30 529.78 2736.54 542.36 2587.87 650.99 2556.11 758.56 2721.59 771.34
00013816 00000025 2470.45 211.58 487.05 722.69 2546.63 531.43 2736.62 543.13 2589.46 651.64 2555.56 758.37 2721.77 770.51
00013817 00000026 2471.71 211.11 487.25 719.91 2548.97 532.53 2738.81 545.02 2592.28 651.46 2555.74 757.05 2721.75 769.71
00013818 00000027 2472.99 213.05 486.96 716.16 2551.52 530.25 2742.74 545.00 2595.93 648.89 2557.30 753.83 2723.46 768.08
00013819 00000028 2475.56 215.73 484.54 714.65 2553.41 526.88 2746.82 543.85 2599.60 648.40 2558.60 749.34 2729.56 765.09
00013820 00000029 2479.65 217.19 484.58 713.30 2557.78 526.91 2752.37 545.36 2603.45 648.18 2561.49 746.53 2735.31 763.24
00013821 00000030 2480.79 219.91 485.19 708.71 2559.70 527.32 2760.07 546.11 2609.11 648.41 2563.01 743.70 2744.18 760.51
00013822 00000031 2486.43 217.44 482.81 708.14 2564.09 524.43 2767.97 543.18 2614.90 644.16 2566.57 741.85 2750.94 758.90
00013823 00000032 2481.83 208.66 494.27 708.22 2567.00 523.20 2774.72 542.27 2621.04 641.04 2564.90 734.05 2748.67 750.35
00013824 00000033 2483.98 210.19 495.47 704.58 2569.88 520.91 2778.79 540.01 2624.28 638.30 2567.00 731.80 2751.94 748.46
00013825 00000034 2485.80 209.23 495.83 699.12 2573.07 519.10 2782.78 538.75 2627.74 635.33 2568.17 727.89 2755.73 745.26
00013826 00000035 2494.86 205.51 487.13 700.14 2577.30 524.06 2786.80 540.66 2631.31 639.88 2574.87 731.03 2760.52 746.13
00013827 00000036 2495.44 197.09 491.35 707.32 2581.54 523.09 2791.78 542.48 2634.66 641.27 2576.72 730.09 2762.78 747.41
00013828 00000037 2497.94 197.79 490.86 711.71 2586.81 521.93 2793.80 544.44 2639.20 643.75 2579.66 731.46 2762.97 751.57
00013829 00000038 2498.85 196.70 496.01 712.82 2591.21 522.72 2798.95 548.93 2643.35 644.34 2580.02 729.67 2766.47 752.78
00013830 00000039 2505.86 200.99 495.42 716.57 2599.46 522.89 2805.13 553.81 2652.64 652.43 2587.91 731.83 2776.19 758.16
00013831 00000040 2514.99 208.43 501.98 725.44 2610.92 521.50 2809.35 562.65 2657.75 658.72 2595.58 738.34 2776.22 771.52
00013832 00000041 2516.24 217.21 503.86 723.00 2615.32 520.30 2814.27 571.32 2656.97 665.64 2594.97 740.64 2776.58 780.98
00013833 00000042 2515.98 227.02 502.92 712.49 2612.65 522.08 2809.02 578.35 2650.32 671.19 2592.41 741.70 2773.69 785.02
00013834 00000043 2512.73 223.21 503.20 716.70 2603.64 529.18 2799.34 585.31 2639.69 675.20 2589.40 745.37 2768.54 787.51
00013835 00000044 2506.47 234.40 502.60 709.39 2596.38 529.58 2789.73 588.99 2630.91 677.02 2580.69 744.03 2760.13 788.60
00013836 00000045 2496.59 231.09 507.66 704.59 2582.53 525.34 2778.62 587.49 2615.97 675.53 2569.60 735.83 2748.54 782.18
00013837 00000046 2497.22 229.53 505.93 697.72 2581.87 517.93 2778.28 580.83 2613.86 668.01 2566.14 726.38 2746.44 773.72
00013838 00000047 2509.11 220.30 498.30 706.29 2589.52 520.60 2781.03 573.08 2622.16 659.45 2579.25 734.99 2749.55 774.43
00013839 00000048 2522.29 201.90 485.95 724.79 2602.62 520.96 2788.83 558.35 2636.46 656.68 2591.97 743.65 2751.36 773.99
00013840 00000049 2535.22 198.63 483.74 726.89 2611.29 517.36 2801.58 554.28 2645.13 652.50 2602.36 741.79 2763.75 771.63
00013841 00000050 2538.73 194.55 485.66 731.72 2612.14 517.87 2805.60 551.31 2647.65 646.88 2606.91 743.20 2769.57 770.59
00013842 00000051 2531.82 195.54 487.09 730.88 2606.58 519.94 2798.19 546.26 2641.87 639.79 2603.32 742.07 2767.43 764.00
00013843 00000052 2519.36 196.80 491.42 718.93 2597.43 518.27 2793.32 543.47 2635.78 639.76 2595.67 736.42 2764.17 757.38
00013844 00000053 2515.44 189.16 492.67 723.90 2594.08 518.85 2788.82 542.13 2631.23 638.99 2592.16 736.15 2760.61 755.90
00013845 00000054 2511.38 189.29 494.97 727.63 2591.77 517.09 2786.20 542.30 2625.62 636.04 2585.73 734.29 2754.18 755.77
00013846 00000055 2508.31 187.50 496.24 725.27 2588.81 517.94 2784.99 542.65 2622.84 636.69 2582.30 735.24 2750.42 756.42
00013847 00000056 2504.35 187.71 498.42 720.28 2586.02 518.69 2785.28 543.59 2621.58 637.23 2579.52 736.51 2746.71 758.06
00013848 00000057 2501.04 190.81 499.07 717.40 2583.21 518.83 2784.03 544.22 2620.73 639.88 2577.32 736.63 2745.71 758.69
00013849 00000058 2497.43 202.29 504.45 718.00 2576.74 520.21 2779.39 544.56 2618.70 637.82 2572.29 743.05 2739.41 764.70
00013850 00000059 2488.88 211.76 501.20 713.21 2568.85 523.41 2770.52 547.18 2611.40 645.36 2564.29 750.51 2728.53 771.59
00013851 00000060 2482.19 230.91 492.42 696.68 2558.13 528.27 2757.98 549.36 2604.52 651.09 2555.86 755.66 2729.69 773.86
00013852 00000061 2464.66 225.15 496.83 704.44 2546.03 540.12 2744.17 553.57 2592.83 654.03 2544.02 758.29 2720.07 771.52
00013853 00000062 2451.89 224.82 496.48 706.58 2533.62 544.62 2729.85 554.82 2579.86 655.28 2531.22 759.70 2707.72 770.59
00013854 00000063 2443.18 222.29 496.78 709.12 2522.49 544.92 2719.10 553.41 2567.75 656.82 2520.79 761.49 2693.94 771.12
00013855 00000064 2439.33 215.95 491.08 716.16 2512.70 539.82 2708.94 550.42 2555.01 655.38 2509.86 762.83 2681.60 773.70
00013856 00000065 2439.20 215.64 483.97 722.18 2500.43 535.74 2697.06 551.89 2543.60 654.01 2499.31 770.01 2671.53 784.74
00013857 00000066 2429.84 218.85 479.61 738.86 2494.44 541.02 2678.28 559.38 2522.14 657.10 2486.75 782.99 2642.77 798.84
00013858 DELETE   2413.08 244.94 475.93 749.48 2486.57 550.43 2657.46 566.14 2499.51 663.35 2479.02 799.99 2626.30 813.53
00013859 DELETE   2401.58 260.75 479.92 761.68 2473.76 564.79 2646.08 586.26 2482.87 683.72 2463.37 817.59 2612.17 834.87
00013860 DELETE   2386.24 274.75 491.54 772.36 2462.82 585.72 2640.59 610.44 2474.62 711.94 2456.08 842.78 2605.11 863.64
00013861 00000070 2382.97 298.67 489.81 766.91 2461.63 613.45 2637.03 638.20 2478.98 738.83 2454.61 862.46 2602.66 883.92
00013862 00000071 2375.23 316.06 498.74 768.37 2451.73 634.55 2634.04 663.07 2473.72 760.96 2446.26 876.72 2599.82 901.59
00013863 00000072 2371.53 324.25 501.68 760.12 2447.74 642.92 2635.73 674.59 2470.78 770.13 2442.72 882.74 2599.71 909.95
00013864 00000073 2375.78 325.18 502.06 749.74 2450.85 643.11 2639.23 673.38 2474.89 770.19 2447.39 879.16 2604.79 904.64
00013865 00000074 2382.97 314.92 501.46 738.74 2457.18 639.39 2646.29 668.12 2481.07 763.46 2453.59 870.67 2609.20 894.25
00013866 00000075 2389.13 304.50 493.09 723.56 2462.40 618.86 2653.26 641.92 2488.02 748.21 2458.40 855.15 2624.32 873.87
00013867 00000076 2394.92 284.88 500.94 725.33 2465.39 600.48 2655.53 617.30 2492.71 727.33 2463.66 837.29 2633.99 851.89
00013868 00000077 2403.40 269.60 495.94 723.37 2470.33 586.00 2658.54 594.09 2499.56 699.21 2475.40 820.55 2640.59 830.08
00013869 00000078 2409.54 252.40 476.29 720.79 2466.94 571.18 2658.54 573.72 2498.06 687.56 2480.95 810.49 2645.61 813.82
00013870 00000079 2401.25 243.63 478.68 715.25 2462.37 568.64 2655.56 562.64 2498.75 676.93 2477.98 804.14 2645.18 801.49
00013871 00000080 2391.74 235.25 484.97 718.67 2453.90 570.31 2650.64 558.60 2494.23 674.82 2473.40 801.06 2645.11 794.26
00013872 00000081 2382.55 240.24 484.75 715.71 2445.70 576.93 2643.75 558.56 2490.10 675.19 2472.37 804.81 2640.84 792.56
00013873 00000082 2380.32 252.07 481.79 712.79 2444.12 581.88 2640.03 562.62 2486.72 678.31 2473.22 811.48 2635.89 798.29
00013874 00000083 2379.34 259.72 477.88 721.39 2446.40 586.15 2634.16 565.26 2484.41 680.91 2479.28 818.58 2631.33 803.83
00013875 00000084 2376.80 261.56 476.75 721.37 2444.58 590.62 2634.40 566.26 2484.78 683.07 2480.03 821.97 2633.72 804.31
00013876 00000085 2374.21 258.06 478.61 715.81 2443.15 588.58 2636.64 564.60 2488.29 681.45 2479.26 817.09 2636.23 799.66
00013877 00000086 2374.16 249.93 478.24 714.89 2440.50 585.58 2642.03 562.57 2490.06 682.23 2471.11 813.83 2641.65 797.26
00013878 00000087 2370.33 252.30 482.69 700.51 2438.79 583.26 2645.87 561.89 2495.45 681.24 2468.02 804.80 2644.31 789.67
00013879 00000088 2369.31 251.47 485.82 694.48 2440.78 582.26 2647.84 561.33 2501.41 678.68 2469.50 799.84 2645.53 785.35
00013880 00000089 2370.82 251.95 484.70 693.37 2443.34 580.56 2649.92 560.36 2506.15 677.96 2473.02 799.97 2647.07 786.15
00013881 00000090 2372.19 252.99 483.21 692.82 2446.22 579.58 2653.35 562.20 2510.22 678.34 2474.89 799.70 2647.22 787.99
00013882 00000091 2371.05 254.14 483.19 696.80 2446.16 580.57 2653.45 563.44 2510.36 680.02 2474.76 803.34 2647.21 791.82
00013883 00000092 2370.16 255.10 480.55 698.70 2446.41 581.50 2652.35 564.47 2510.05 680.22 2474.77 805.37 2644.21 793.83
00013884 00000093 2367.56 256.84 479.92 700.31 2444.81 582.89 2651.39 566.98 2508.21 681.90 2472.43 808.53 2640.10 797.71
00013885 00000094 2363.74 257.71 481.36 709.12 2442.63 586.24 2644.19 569.80 2504.32 683.42 2475.10 815.17 2628.38 804.04
00013886 00000095 2358.83 261.57 484.31 710.27 2439.98 587.50 2639.70 570.82 2499.07 683.84 2473.44 817.28 2623.10 805.87
00013887 00000096 2351.13 260.48 488.61 714.79 2435.39 580.42 2635.22 568.41 2500.18 687.84 2468.04 815.12 2620.11 808.45
00013888 00000097 2347.37 264.16 489.23 706.30 2428.90 582.48 2629.87 571.43 2494.60 691.07 2463.92 814.54 2616.30 808.18
00013889 00000098 2344.30 263.91 490.34 701.29 2422.99 584.66 2627.44 572.73 2489.08 692.72 2456.73 813.79 2618.00 806.39
00013890 00000099 2342.14 266.44 489.70 693.21 2420.49 586.27 2626.81 574.17 2487.33 692.88 2451.86 812.64 2617.78 805.03
00013891 00000100 2341.98 265.98 489.39 693.97 2420.64 586.37 2626.74 575.15 2487.24 693.62 2451.47 812.70 2615.90 805.83
00013892 00000101 2341.63 266.56 489.72 696.10 2419.71 587.12 2626.77 575.57 2485.92 693.73 2449.62 812.78 2616.15 805.59
00013893 00000102 2340.79 267.69 490.41 698.44 2416.93 589.12 2625.43 577.50 2480.89 694.51 2444.08 814.86 2614.78 807.62
00013894 00000103 2337.67 264.95 490.84 702.38 2412.13 589.80 2616.23 579.68 2470.31 696.02 2435.84 814.08 2609.00 807.96
00013895 00000104 2336.85 261.92 488.31 708.38 2408.75 589.02 2609.01 582.15 2457.79 696.31 2428.84 814.77 2597.71 811.22
CROP_BBOX: 2022 0 3305 1267
