Video ID: 	b4hhZTcTYeU
H: 	1080
W: 	1920
FPS: 	25.0

FRAME INDEX X0 Y0 W H [Landmarks (5 Points)]

00028877 00000000 1193.05 181.40 483.58 600.02 1237.19 464.63 1409.67 419.14 1271.10 529.82 1279.64 653.75 1422.79 616.28
00028878 00000001 1190.24 180.98 484.15 593.38 1235.61 459.66 1414.55 418.12 1276.23 527.02 1276.02 649.04 1427.34 614.79
00028879 00000002 1188.23 178.58 485.76 602.40 1238.57 457.21 1417.97 416.34 1280.83 524.63 1278.39 648.60 1431.24 615.12
00028880 00000003 1186.50 183.60 485.03 616.99 1241.56 457.47 1417.33 413.65 1282.12 522.98 1287.05 655.25 1434.68 619.14
00028881 00000004 1180.00 186.70 487.43 613.04 1236.93 459.31 1414.67 414.37 1279.89 528.57 1285.43 658.10 1432.95 620.95
00028882 00000005 1168.00 188.74 487.92 601.30 1222.28 473.85 1404.35 424.29 1270.97 536.03 1267.56 663.81 1421.19 622.77
00028883 00000006 1155.26 196.59 484.25 594.57 1212.20 479.96 1389.29 430.86 1261.78 541.66 1259.57 666.94 1409.14 625.91
00028884 00000007 1147.24 205.99 484.40 588.83 1206.45 482.06 1388.20 435.18 1260.63 546.31 1255.16 670.58 1405.44 631.17
00028885 00000008 1143.30 206.10 488.16 589.35 1203.66 483.81 1391.18 435.47 1264.70 549.29 1255.53 673.19 1410.00 632.58
00028886 00000009 1141.54 204.32 487.91 590.69 1205.59 483.35 1392.84 435.86 1269.50 549.46 1258.20 671.83 1413.01 631.74
00028887 00000010 1137.63 206.65 486.21 591.60 1203.50 481.55 1390.99 434.12 1268.07 548.32 1257.42 673.04 1410.09 633.06
00028888 00000011 1131.47 208.84 485.89 591.42 1195.60 481.42 1386.33 430.86 1262.61 550.27 1252.26 673.19 1411.94 630.25
00028889 00000012 1128.18 205.50 486.23 602.49 1189.97 481.22 1378.25 428.49 1251.45 549.65 1249.61 678.13 1406.61 633.12
00028890 00000013 1124.15 204.77 487.60 606.79 1187.51 480.88 1373.09 426.63 1244.66 545.73 1248.70 681.87 1401.69 635.51
00028891 00000014 1124.04 204.29 487.72 609.95 1186.67 481.28 1374.64 424.86 1244.42 544.34 1248.35 684.12 1403.96 635.80
00028892 00000015 1125.39 205.69 488.33 607.79 1188.90 482.72 1378.82 425.92 1249.17 544.36 1250.82 683.83 1407.42 635.39
00028893 00000016 1126.17 204.78 490.29 610.34 1191.06 484.73 1381.26 427.57 1252.79 545.25 1253.71 685.65 1409.53 637.02
00028894 00000017 1124.27 203.80 491.49 612.32 1187.39 492.61 1379.49 430.97 1251.03 545.29 1249.77 689.00 1408.26 636.68
00028895 DELETE   1119.07 204.54 495.85 611.94 1182.25 483.30 1375.37 427.62 1244.64 546.65 1245.10 686.78 1400.83 639.58
00028896 00000019 1118.82 201.12 491.04 617.16 1179.86 484.67 1370.90 428.05 1237.74 546.44 1240.24 690.98 1392.14 643.33
00028897 00000020 1121.22 200.67 486.92 616.05 1180.27 478.09 1368.51 426.67 1235.98 548.56 1240.74 688.95 1389.25 645.52
00028898 00000021 1122.03 202.69 489.08 610.28 1184.07 474.02 1375.22 423.97 1245.18 546.85 1245.90 684.62 1395.25 642.38
00028899 00000022 1123.19 203.77 491.07 605.84 1188.06 474.21 1381.85 424.07 1253.06 546.18 1250.55 681.75 1402.23 639.37
00028900 00000023 1123.63 206.75 489.86 599.80 1189.18 473.35 1385.46 423.46 1257.19 546.07 1251.01 679.15 1404.47 637.19
00028901 00000024 1121.32 204.70 489.40 600.10 1185.28 474.25 1380.00 424.18 1252.02 546.02 1246.63 678.89 1398.89 636.81
00028902 00000025 1120.78 204.28 488.70 599.60 1182.81 472.63 1375.00 423.85 1246.06 547.15 1243.86 679.07 1393.43 638.05
00028903 00000026 1120.66 204.38 488.16 601.36 1182.47 471.40 1375.58 421.61 1246.42 547.62 1243.73 678.13 1397.92 635.96
00028904 00000027 1122.01 201.44 489.08 615.83 1185.33 473.45 1380.66 418.16 1248.87 544.83 1248.46 682.63 1407.43 635.55
00028905 00000028 1122.33 204.35 492.20 620.83 1189.69 476.89 1385.11 417.39 1255.35 542.23 1257.45 688.21 1414.69 637.54
00028906 00000029 1121.35 206.81 496.37 620.80 1188.69 482.50 1387.68 419.02 1258.92 546.87 1259.88 692.73 1424.61 638.09
00028907 00000030 1116.67 211.65 497.40 611.33 1183.21 489.07 1383.45 423.45 1257.77 552.31 1255.75 694.45 1421.99 638.16
00028908 00000031 1112.51 212.45 495.15 606.84 1179.01 500.78 1370.48 434.98 1248.66 562.14 1248.52 697.53 1408.13 641.54
00028909 00000032 1106.31 217.28 495.35 595.91 1171.52 499.04 1361.81 438.17 1235.86 566.39 1239.06 698.42 1390.17 646.82
00028910 00000033 1112.75 217.77 491.62 598.97 1169.33 504.88 1344.58 443.59 1220.99 567.25 1232.93 695.66 1375.08 643.96
00028911 00000034 1107.20 218.42 489.21 596.82 1163.94 505.49 1339.61 442.88 1217.71 566.52 1228.24 696.54 1371.17 643.74
00028912 00000035 1102.08 216.55 492.54 594.83 1161.81 505.53 1338.97 441.20 1220.13 564.04 1228.08 694.68 1371.75 640.53
00028913 00000036 1098.03 214.37 494.81 594.44 1159.15 503.40 1339.96 438.29 1222.43 561.08 1227.13 692.85 1372.94 638.16
00028914 00000037 1094.61 214.77 494.38 593.14 1157.64 503.37 1338.68 436.60 1224.33 557.52 1225.88 691.31 1371.69 635.42
00028915 00000038 1088.82 215.69 494.89 591.27 1153.54 501.95 1335.10 436.42 1221.87 559.19 1222.87 690.46 1369.13 635.61
00028916 00000039 1080.97 223.25 490.76 589.10 1150.72 497.63 1340.62 445.30 1212.82 561.81 1207.91 685.64 1362.66 641.38
00028917 00000040 1074.96 226.10 492.40 588.35 1141.83 500.93 1332.45 443.62 1204.37 562.66 1201.94 690.41 1356.99 642.25
00028918 00000041 1069.77 220.52 497.91 584.94 1134.08 503.62 1323.52 436.18 1207.99 562.09 1207.59 695.19 1358.61 638.69
00028919 00000042 1068.55 220.23 498.42 584.61 1135.20 502.39 1324.90 435.77 1210.89 562.47 1207.80 693.86 1359.08 638.16
00028920 00000043 1072.02 226.04 494.58 588.01 1141.55 501.53 1335.15 443.47 1210.71 563.05 1203.62 690.56 1361.71 641.68
00028921 00000044 1071.99 218.41 498.01 587.88 1141.01 504.53 1330.67 436.40 1219.25 562.10 1213.56 694.11 1366.75 637.21
00028922 00000045 1072.69 219.28 496.53 589.10 1141.56 507.16 1330.40 437.36 1220.27 563.46 1214.97 696.78 1367.80 638.43
00028923 00000046 1071.48 219.60 497.63 590.38 1140.21 510.21 1328.78 439.83 1217.74 563.89 1213.17 697.81 1365.41 638.78
00028924 00000047 1067.78 217.64 499.29 590.41 1137.35 505.47 1327.63 440.00 1214.80 566.03 1208.19 695.53 1358.81 640.91
00028925 00000048 1068.42 216.41 498.20 588.91 1135.06 493.47 1320.08 434.10 1205.26 564.21 1206.01 690.07 1351.41 640.23
00028926 00000049 1072.71 211.72 498.58 589.57 1136.97 484.60 1323.07 428.69 1205.11 559.57 1206.70 684.08 1351.69 637.24
00028927 00000050 1079.16 216.32 490.96 588.75 1145.83 477.89 1341.43 430.18 1210.31 551.99 1201.73 675.64 1361.16 635.15
00028928 00000051 1086.46 211.83 486.96 588.69 1154.42 472.04 1352.00 425.44 1221.39 549.58 1208.21 671.19 1372.99 631.48
00028929 00000052 1092.31 207.52 489.02 592.29 1161.12 467.67 1361.27 421.46 1230.15 545.39 1215.68 669.55 1382.32 630.42
00028930 00000053 1098.72 208.08 484.92 593.61 1166.80 469.13 1368.02 420.13 1239.10 543.37 1223.06 670.75 1390.89 629.49
00028931 00000054 1100.06 208.55 485.19 593.90 1168.80 469.78 1370.62 420.45 1242.39 543.52 1225.15 671.21 1393.45 629.76
00028932 00000055 1098.77 206.66 485.78 593.38 1166.81 469.69 1368.56 420.72 1238.44 542.02 1222.05 670.94 1388.92 629.72
00028933 00000056 1097.67 208.51 486.59 592.45 1165.78 469.00 1368.18 422.47 1237.31 544.24 1219.44 670.73 1386.92 631.48
00028934 00000057 1099.13 210.46 485.51 588.87 1171.75 465.58 1374.60 422.04 1246.00 541.96 1223.58 666.15 1392.01 629.64
00028935 00000058 1103.70 208.00 481.89 589.52 1176.23 465.06 1382.90 418.32 1254.38 536.59 1229.41 664.19 1404.37 625.12
00028936 00000059 1107.03 208.92 478.74 589.63 1178.51 463.31 1384.88 416.47 1256.40 535.56 1231.97 664.31 1406.37 625.15
00028937 00000060 1102.78 208.71 481.34 593.16 1175.45 465.28 1379.22 420.04 1251.72 539.92 1228.04 667.46 1398.01 629.77
00028938 00000061 1097.31 212.15 481.42 593.30 1169.99 468.06 1372.26 425.57 1246.43 547.38 1223.16 671.25 1389.35 636.01
00028939 00000062 1095.23 213.24 484.13 592.17 1168.66 470.18 1373.01 426.85 1247.21 548.41 1223.52 672.33 1390.95 636.31
00028940 00000063 1098.29 216.08 484.49 589.07 1172.56 469.34 1376.09 425.14 1250.27 547.25 1227.54 669.97 1396.75 633.03
00028941 00000064 1099.08 217.73 484.49 589.42 1171.17 471.17 1378.00 422.75 1250.00 548.16 1228.35 673.04 1404.14 632.15
00028942 00000065 1097.75 219.74 485.97 592.19 1170.24 471.63 1377.08 424.19 1248.26 550.64 1227.22 676.88 1402.10 636.69
00028943 00000066 1097.10 218.22 486.16 595.26 1167.57 473.61 1375.04 426.14 1244.00 552.02 1223.96 679.24 1399.27 638.96
00028944 00000067 1096.70 218.93 485.99 589.15 1165.74 475.74 1372.84 428.58 1240.66 552.69 1220.51 676.76 1396.19 636.67
00028945 00000068 1096.97 216.61 484.46 589.49 1164.78 476.63 1370.24 431.97 1238.28 555.79 1218.47 676.12 1392.81 638.15
00028946 00000069 1097.01 218.91 484.74 589.56 1163.78 476.99 1368.51 434.38 1234.61 557.87 1215.38 676.74 1389.34 640.36
00028947 00000070 1097.59 220.35 484.57 590.22 1164.09 476.63 1368.27 435.05 1233.95 559.21 1214.99 677.26 1387.84 641.76
00028948 00000071 1099.11 218.91 484.73 594.00 1166.28 475.47 1368.66 434.11 1235.41 558.59 1217.81 677.71 1388.02 642.60
00028949 00000072 1100.26 221.08 485.08 593.89 1166.49 475.98 1370.93 434.04 1236.46 560.52 1218.23 678.69 1392.10 643.02
00028950 00000073 1106.94 212.09 492.02 602.19 1169.00 481.08 1362.72 432.54 1237.85 559.62 1227.63 684.08 1385.93 643.05
00028951 00000074 1108.55 210.72 492.14 602.57 1170.28 477.96 1365.45 430.44 1238.83 556.55 1227.83 682.00 1387.06 641.95
00028952 00000075 1104.36 216.89 484.98 595.45 1170.22 471.32 1377.21 429.77 1240.16 557.45 1221.76 676.27 1398.88 640.75
00028953 00000076 1104.54 216.79 485.09 593.27 1170.43 470.77 1377.72 429.96 1239.97 557.96 1222.10 675.24 1399.73 640.31
00028954 00000077 1102.70 225.87 483.82 590.17 1169.44 478.60 1382.02 430.85 1246.82 558.23 1227.27 687.08 1405.74 644.64
00028955 00000078 1102.32 226.93 483.86 608.03 1172.69 477.84 1376.95 428.63 1246.12 558.08 1235.71 692.25 1405.33 648.76
00028956 00000079 1101.74 224.37 487.74 620.75 1173.35 478.81 1377.47 425.10 1247.72 558.38 1241.05 696.68 1412.64 649.26
00028957 00000080 1102.00 223.64 486.55 621.75 1173.66 479.05 1376.35 424.87 1246.98 558.37 1241.67 696.24 1413.37 648.35
00028958 00000081 1102.50 224.31 486.30 617.71 1173.32 479.58 1376.09 426.25 1246.60 558.91 1241.04 694.58 1412.30 647.38
00028959 00000082 1103.79 226.83 485.77 609.01 1172.97 481.08 1377.59 428.72 1246.30 559.99 1239.46 694.42 1411.41 648.36
00028960 00000083 1104.05 226.04 486.68 603.71 1172.34 482.89 1378.58 431.56 1245.33 561.40 1237.16 695.00 1409.86 650.01
00028961 00000084 1106.09 212.76 490.19 602.83 1173.61 481.94 1381.20 428.65 1252.53 558.66 1231.89 691.06 1402.66 645.14
00028962 00000085 1106.63 212.16 488.55 596.33 1172.67 479.19 1381.37 428.80 1254.01 561.30 1230.61 686.25 1402.61 642.68
00028963 00000086 1105.97 212.55 488.17 590.26 1171.64 475.39 1380.24 428.47 1253.50 560.84 1227.85 680.36 1399.54 639.72
00028964 00000087 1108.17 221.66 487.13 586.78 1173.24 474.01 1381.79 431.56 1243.19 561.18 1226.13 676.42 1403.90 639.93
00028965 00000088 1108.14 219.51 487.51 587.30 1174.23 472.50 1380.57 430.31 1243.63 560.31 1228.27 673.86 1404.45 637.53
00028966 00000089 1108.87 217.62 486.65 588.65 1173.78 470.02 1381.81 428.77 1242.70 557.54 1226.36 672.55 1404.44 637.16
00028967 00000090 1109.43 210.87 487.58 587.21 1174.31 470.40 1381.47 426.43 1253.00 551.10 1228.25 674.27 1396.23 636.56
00028968 00000091 1109.79 207.66 487.19 599.16 1177.35 469.34 1381.79 423.88 1252.49 547.19 1231.29 677.18 1394.58 638.59
00028969 00000092 1111.37 222.21 480.99 593.10 1177.73 469.77 1389.36 426.63 1249.31 547.89 1230.98 681.48 1404.19 643.48
00028970 00000093 1112.02 220.07 478.99 598.46 1178.86 467.35 1388.84 425.22 1249.68 546.00 1232.18 680.67 1403.59 643.58
00028971 00000094 1112.73 217.33 477.75 602.48 1179.95 465.58 1389.48 423.71 1250.39 543.78 1233.05 681.40 1403.90 644.56
00028972 00000095 1113.49 214.85 473.88 601.02 1182.66 462.42 1391.32 423.18 1254.94 539.25 1234.16 678.14 1400.31 643.94
00028973 00000096 1120.45 190.58 479.45 623.20 1189.72 458.10 1381.27 417.61 1250.96 521.79 1237.45 672.43 1372.14 639.94
00028974 DELETE   1101.94 168.40 482.65 629.03 1164.17 448.79 1349.17 406.19 1213.47 507.47 1203.84 655.96 1338.69 622.22
00028975 DELETE   1077.10 162.37 471.97 636.15 1126.79 444.77 1306.90 406.67 1158.61 505.09 1153.66 653.72 1284.81 622.68
00028976 DELETE   1075.67 153.25 474.68 634.57 1128.66 440.08 1307.87 398.88 1160.42 497.49 1157.96 647.27 1287.98 613.38
00028977 00000100 1080.91 146.26 485.95 619.97 1140.73 430.68 1327.60 389.47 1185.61 489.06 1173.33 636.30 1313.27 603.98
00028978 00000101 1074.74 146.82 481.68 612.29 1133.42 431.16 1318.01 388.06 1177.49 483.53 1167.34 631.30 1299.43 597.37
00028979 00000102 1068.67 151.51 469.03 602.90 1125.40 422.68 1312.97 389.32 1164.52 475.15 1148.60 625.80 1285.03 598.60
00028980 00000103 1067.85 145.69 470.11 605.77 1130.00 416.69 1316.05 382.55 1171.28 466.69 1154.01 616.32 1289.79 589.06
00028981 DELETE   1064.94 145.37 474.29 608.29 1128.52 410.85 1317.07 374.39 1173.98 458.96 1157.74 615.68 1294.89 586.60
00028982 DELETE   1059.52 135.66 469.60 633.97 1117.36 411.39 1301.07 373.99 1146.76 458.65 1143.67 626.49 1276.41 595.86
00028983 DELETE   1048.40 136.30 480.06 651.95 1102.81 419.75 1274.22 370.70 1117.98 459.46 1121.24 635.31 1244.93 597.53
00028984 00000107 1039.53 137.45 480.40 654.35 1096.44 413.03 1269.34 363.88 1112.03 451.66 1114.25 630.62 1242.97 592.48
00028985 00000108 1029.37 136.11 488.80 646.78 1091.22 410.36 1271.63 357.35 1116.48 442.14 1114.97 623.77 1243.75 582.59
00028986 00000109 1015.25 134.11 491.07 649.12 1078.98 412.24 1259.79 358.36 1111.25 446.06 1108.94 625.87 1239.73 583.68
CROP_BBOX: 751 0 1862 1056
