Video ID: 	KSpnWSgCtc0
H: 	1080
W: 	1920
FPS: 	23.976077233792022

FRAME INDEX X0 Y0 W H [Landmarks (5 Points)]

00019629 00000000 1000.92 65.11 373.63 569.17 1086.48 261.29 1249.78 282.64 1139.68 362.99 1076.54 468.25 1200.53 487.67
00019630 00000001 998.83 47.90 375.17 572.27 1088.20 254.81 1249.64 279.79 1136.73 359.86 1072.38 456.15 1205.82 478.88
00019631 00000002 995.89 45.63 378.06 565.76 1086.43 251.55 1249.31 276.91 1135.14 354.10 1070.35 449.56 1201.63 472.46
00019632 00000003 993.80 47.59 378.43 561.41 1085.42 251.74 1246.92 274.29 1136.92 351.46 1075.66 450.76 1201.23 471.34
00019633 00000004 997.16 58.49 373.41 564.76 1083.36 250.15 1247.84 269.78 1145.31 355.82 1078.41 455.83 1201.78 473.16
00019634 00000005 998.96 62.25 372.94 567.19 1083.19 250.67 1246.21 268.71 1144.48 355.73 1080.74 463.09 1199.82 478.95
00019635 00000006 1005.79 64.99 367.59 567.92 1087.11 252.03 1248.03 269.09 1143.66 356.00 1083.33 468.57 1197.48 484.27
00019636 00000007 1008.77 64.11 368.39 569.15 1091.65 253.09 1251.94 271.35 1145.39 358.76 1085.94 470.44 1197.57 487.40
00019637 00000008 1012.08 66.60 369.01 566.38 1096.09 254.65 1258.43 272.26 1150.87 361.98 1092.26 472.37 1203.07 488.72
00019638 00000009 1017.80 64.72 366.07 571.02 1102.34 258.57 1264.33 276.79 1156.54 363.32 1094.97 475.54 1207.87 492.89
00019639 00000010 1023.27 73.32 361.64 565.41 1105.61 263.76 1268.09 281.62 1160.79 370.70 1101.25 483.37 1210.76 500.61
00019640 00000011 1028.65 73.34 353.55 575.49 1106.93 266.05 1273.21 284.60 1163.30 372.38 1101.56 487.96 1219.30 505.69
00019641 00000012 1028.72 78.33 361.26 573.56 1111.23 271.33 1280.54 294.61 1164.40 381.81 1097.59 483.08 1229.78 504.21
00019642 00000013 1029.32 73.17 365.93 596.18 1116.38 281.86 1286.97 303.72 1173.64 389.03 1106.08 498.52 1242.79 517.71
00019643 00000014 1034.54 82.88 366.02 607.79 1125.75 288.99 1295.27 313.10 1178.84 401.86 1108.51 510.51 1251.73 531.01
00019644 00000015 1034.25 91.83 374.49 621.94 1126.58 304.34 1298.87 332.08 1183.23 418.02 1106.50 524.83 1260.99 548.25
00019645 00000016 1032.78 113.34 378.35 604.01 1125.74 323.52 1304.77 345.40 1185.31 428.85 1112.09 535.38 1262.80 555.05
00019646 00000017 1040.29 126.98 377.63 602.87 1135.31 334.88 1310.56 360.42 1193.20 450.36 1119.17 546.89 1270.64 568.60
00019647 00000018 1046.30 131.04 376.76 608.31 1147.57 347.22 1315.70 375.06 1208.66 465.09 1130.93 556.90 1277.24 579.83
00019648 DELETE   1048.00 133.52 381.48 604.83 1150.56 359.34 1320.51 390.98 1215.71 480.35 1137.86 563.00 1286.01 587.84
00019649 00000020 1052.01 130.55 381.53 608.70 1156.30 364.92 1320.72 399.67 1217.98 491.87 1136.85 567.36 1274.21 597.16
00019650 00000021 1056.21 133.99 379.39 597.96 1159.31 363.15 1321.77 400.91 1217.76 490.44 1137.67 563.93 1273.41 596.33
00019651 00000022 1058.26 127.60 379.54 601.34 1160.83 357.09 1324.61 394.19 1220.51 485.27 1140.64 560.52 1274.65 592.19
00019652 00000023 1061.22 125.26 381.42 603.99 1163.73 351.64 1327.93 387.45 1222.30 479.71 1145.39 557.25 1273.39 588.00
00019653 00000024 1064.63 122.95 376.28 603.33 1164.96 344.66 1328.86 381.43 1221.70 473.91 1144.71 553.03 1271.36 584.50
00019654 00000025 1066.94 122.10 374.70 602.44 1165.96 338.86 1329.79 375.78 1220.34 469.49 1144.22 548.79 1272.15 580.30
00019655 00000026 1071.10 118.64 375.05 607.22 1169.40 340.72 1333.48 375.35 1223.21 469.05 1149.03 549.04 1277.05 578.21
00019656 00000027 1078.89 119.05 370.84 609.74 1173.88 346.88 1339.03 379.20 1229.35 473.57 1156.54 557.39 1286.17 584.24
00019657 00000028 1083.20 122.19 369.65 607.54 1179.14 354.09 1342.88 386.66 1235.30 483.61 1162.66 564.48 1290.95 591.72
00019658 00000029 1088.13 125.43 368.50 609.08 1185.04 357.99 1345.19 393.39 1237.22 486.91 1165.58 566.12 1289.48 595.84
00019659 00000030 1089.40 127.87 368.78 608.79 1185.98 359.93 1343.81 395.18 1236.40 491.84 1168.41 573.09 1284.19 603.12
00019660 00000031 1087.45 127.62 370.23 610.52 1186.40 361.25 1343.18 395.58 1236.81 492.74 1169.21 578.83 1277.27 608.39
00019661 00000032 1089.49 115.98 370.62 621.54 1186.90 355.44 1349.14 391.80 1240.59 486.73 1165.60 571.61 1284.71 603.87
00019662 00000033 1081.82 118.27 368.44 615.20 1179.76 352.33 1338.57 385.96 1231.18 485.21 1161.99 572.85 1272.42 601.91
00019663 00000034 1081.01 118.59 369.19 617.83 1179.35 349.00 1340.97 383.91 1230.22 478.96 1159.18 568.49 1275.59 598.06
00019664 00000035 1086.40 122.33 368.63 614.44 1182.91 350.50 1347.09 383.14 1234.75 479.25 1164.15 568.03 1286.31 595.80
00019665 00000036 1088.95 124.43 373.18 611.97 1187.16 356.33 1349.33 391.43 1239.88 487.46 1169.07 569.32 1292.76 598.56
00019666 00000037 1092.05 124.16 374.45 611.49 1189.85 358.94 1351.89 397.23 1243.61 489.05 1170.58 568.54 1297.04 600.05
00019667 00000038 1093.33 129.93 373.17 605.44 1192.04 360.44 1350.32 399.45 1242.85 492.40 1171.26 568.58 1294.67 600.98
00019668 00000039 1095.15 136.71 372.61 599.89 1194.08 361.28 1351.06 400.83 1243.35 496.76 1172.57 570.07 1296.15 603.22
00019669 00000040 1092.42 138.69 378.78 604.94 1196.31 365.76 1352.98 406.66 1245.61 502.25 1172.85 574.66 1299.59 608.59
00019670 00000041 1091.26 140.45 378.26 606.77 1193.40 369.51 1350.18 408.68 1240.29 506.66 1171.14 582.29 1295.37 614.98
00019671 00000042 1087.40 137.90 377.32 615.86 1188.11 367.42 1346.66 406.81 1235.12 504.88 1166.27 589.96 1285.45 623.01
00019672 00000043 1085.66 130.80 369.05 621.49 1180.95 364.96 1339.78 400.77 1227.63 499.85 1160.43 592.97 1270.57 623.61
00019673 00000044 1083.93 122.94 368.10 621.96 1177.83 367.22 1336.07 400.47 1224.48 497.92 1158.01 585.93 1273.15 614.44
00019674 00000045 1089.19 112.89 369.52 636.60 1174.55 359.58 1341.85 397.58 1224.91 494.32 1152.31 581.78 1276.94 615.39
00019675 00000046 1085.63 125.14 372.04 625.19 1179.46 366.05 1338.49 401.66 1225.40 498.47 1156.84 584.92 1278.93 615.15
00019676 00000047 1085.63 128.35 377.12 625.78 1179.87 369.18 1342.74 406.58 1226.89 506.21 1154.94 582.94 1292.30 613.56
00019677 00000048 1082.68 130.32 382.05 626.94 1180.87 372.68 1342.95 410.57 1227.52 509.54 1154.35 585.26 1293.88 616.23
00019678 00000049 1080.07 130.81 385.22 626.33 1179.38 374.60 1342.06 412.86 1228.06 512.25 1153.74 585.82 1295.56 616.88
00019679 00000050 1080.01 133.02 384.59 621.30 1179.11 376.72 1341.01 415.38 1227.46 513.56 1153.36 584.78 1294.93 616.19
00019680 00000051 1078.93 131.62 384.06 623.11 1178.99 375.57 1340.80 415.94 1225.92 514.91 1152.44 583.64 1292.82 616.53
00019681 00000052 1078.77 128.25 381.60 627.46 1177.64 377.71 1338.67 417.03 1224.68 514.99 1152.76 584.94 1291.92 616.88
00019682 00000053 1076.17 129.40 381.37 625.69 1174.78 379.71 1337.36 418.34 1222.06 516.71 1150.05 585.79 1290.17 617.13
00019683 00000054 1074.40 129.79 380.18 624.07 1173.14 379.90 1336.05 417.97 1219.36 516.05 1148.19 586.34 1286.90 617.40
00019684 00000055 1072.79 126.27 379.15 626.49 1171.34 379.39 1334.95 417.65 1218.28 514.50 1146.93 584.54 1286.90 615.56
00019685 00000056 1070.27 123.87 381.48 630.33 1170.06 378.88 1334.41 415.39 1218.59 513.08 1147.00 585.03 1286.69 614.62
00019686 00000057 1068.14 124.13 382.47 629.20 1168.93 377.40 1333.87 413.19 1218.85 510.28 1145.07 584.61 1285.06 613.62
00019687 00000058 1068.93 121.89 379.82 630.64 1168.86 372.80 1333.35 408.76 1218.15 505.82 1145.04 580.76 1284.79 610.07
00019688 00000059 1068.22 116.28 377.84 633.92 1166.68 368.73 1331.21 402.99 1218.84 501.35 1145.13 578.30 1280.29 606.49
00019689 00000060 1065.69 115.88 377.59 631.75 1162.20 365.32 1325.65 398.98 1215.53 496.39 1142.30 575.06 1274.94 603.30
00019690 00000061 1063.59 113.53 377.47 629.74 1160.11 359.90 1322.74 393.35 1214.57 491.49 1141.19 571.27 1272.83 599.42
00019691 00000062 1064.69 112.28 377.79 624.62 1158.40 356.27 1323.93 397.87 1209.72 490.15 1133.36 564.39 1270.88 600.45
00019692 00000063 1062.00 111.34 377.25 624.11 1156.69 356.68 1319.08 398.36 1205.61 490.46 1132.19 563.05 1266.49 599.05
00019693 00000064 1059.10 106.12 376.08 626.31 1153.60 351.80 1316.07 393.26 1202.06 486.63 1130.35 561.19 1264.10 596.87
00019694 00000065 1057.22 102.62 372.96 627.24 1150.82 344.10 1309.74 383.82 1197.59 475.41 1127.67 559.89 1256.18 594.15
00019695 00000066 1050.91 103.12 374.74 621.92 1144.57 338.77 1303.01 375.65 1190.14 466.57 1122.21 554.05 1250.39 586.01
00019696 00000067 1044.59 98.29 372.11 626.42 1139.43 336.95 1297.62 370.60 1184.97 461.57 1117.16 554.09 1242.43 583.93
00019697 00000068 1038.64 89.72 373.13 627.99 1129.04 332.80 1293.92 363.49 1181.26 456.15 1108.07 548.95 1240.97 575.79
00019698 00000069 1033.81 88.12 372.22 621.96 1117.38 326.77 1286.54 357.08 1174.18 452.51 1097.06 546.50 1232.14 573.01
00019699 00000070 1026.83 91.51 375.21 610.70 1112.83 325.77 1282.65 355.41 1165.52 451.22 1096.66 539.14 1239.30 564.92
00019700 00000071 1026.03 92.18 368.75 611.23 1104.46 327.84 1275.37 353.58 1163.35 453.69 1088.87 545.61 1226.79 568.97
00019701 00000072 1019.62 88.30 374.00 627.91 1105.84 340.37 1270.56 371.88 1157.13 463.05 1090.29 547.73 1232.32 574.66
00019702 00000073 1021.24 105.74 369.02 619.99 1102.96 345.56 1266.97 371.25 1154.96 471.12 1091.72 553.92 1231.04 575.30
00019703 00000074 1016.53 109.58 372.08 631.82 1100.90 356.81 1273.77 380.72 1157.09 477.27 1089.05 565.76 1239.16 585.13
00019704 00000075 1008.02 112.21 376.62 628.92 1096.27 358.81 1269.65 383.68 1153.84 481.53 1084.64 567.13 1235.54 587.31
00019705 00000076 1005.28 109.15 375.92 628.20 1094.42 355.12 1267.17 381.32 1152.31 479.04 1082.06 560.12 1234.03 581.37
00019706 00000077 1006.99 107.91 373.53 622.98 1092.37 349.04 1265.35 374.45 1148.88 473.33 1080.26 553.55 1231.20 574.21
00019707 00000078 1005.45 94.82 377.72 629.80 1095.53 341.34 1267.24 375.81 1150.61 470.93 1074.57 546.55 1230.38 575.28
00019708 00000079 1006.08 101.92 373.30 624.30 1089.95 342.41 1261.73 367.26 1147.12 467.28 1079.12 547.32 1227.85 567.43
00019709 00000080 1004.69 102.96 372.19 622.48 1088.88 339.35 1259.62 364.96 1146.16 465.55 1078.88 547.36 1224.14 568.19
00019710 00000081 1004.16 103.08 370.52 623.34 1088.21 337.09 1257.92 362.78 1144.87 464.06 1078.92 548.50 1222.75 569.45
00019711 00000082 1002.84 101.80 373.71 623.84 1087.40 334.92 1257.30 361.39 1145.16 464.05 1078.75 545.91 1221.69 567.26
00019712 00000083 1002.11 88.61 374.92 632.77 1090.92 331.62 1259.53 365.10 1145.15 464.54 1071.99 546.13 1222.88 574.02
00019713 00000084 1000.09 100.84 374.71 625.28 1085.37 334.95 1255.76 361.04 1143.94 465.09 1077.68 550.03 1219.55 571.29
00019714 00000085 999.40 102.49 376.58 629.11 1086.60 340.43 1258.38 365.95 1146.91 470.21 1077.85 556.08 1220.73 577.20
00019715 00000086 998.59 104.58 377.97 629.96 1087.31 345.85 1259.24 372.91 1147.52 476.53 1076.93 561.79 1220.00 584.12
00019716 00000087 997.04 110.42 379.54 626.49 1087.67 350.85 1261.18 379.61 1147.51 480.98 1074.54 565.29 1220.80 589.20
00019717 00000088 997.29 112.39 379.44 626.52 1088.69 355.08 1263.49 384.62 1148.25 487.82 1073.58 569.33 1221.72 593.81
00019718 00000089 997.79 113.45 379.45 627.12 1088.88 357.22 1263.60 386.80 1147.45 490.53 1073.74 571.38 1220.90 596.00
00019719 00000090 998.65 116.39 380.17 626.25 1089.79 357.47 1263.96 388.19 1146.69 491.80 1073.20 572.52 1218.90 598.11
00019720 00000091 998.82 117.45 379.69 621.91 1090.78 357.57 1261.35 388.80 1145.98 490.71 1073.35 569.60 1212.73 596.03
00019721 00000092 999.59 117.72 380.76 610.25 1089.21 354.47 1260.29 387.20 1142.74 486.03 1070.67 563.93 1211.59 591.44
00019722 00000093 1000.22 112.39 379.49 606.80 1088.57 348.58 1259.00 381.50 1142.59 480.38 1071.51 559.10 1211.63 586.59
00019723 00000094 1001.24 99.70 378.97 615.33 1092.49 342.13 1261.18 380.42 1145.23 475.67 1071.30 553.16 1210.29 586.12
00019724 00000095 1003.79 98.18 375.21 615.87 1093.88 337.70 1261.49 375.33 1145.59 473.77 1073.05 552.51 1211.16 584.94
00019725 00000096 1005.34 94.78 373.69 617.83 1094.05 334.82 1260.39 371.69 1144.87 469.52 1073.49 550.38 1211.19 582.12
00019726 00000097 1007.36 92.62 371.32 621.40 1094.10 331.36 1258.72 367.22 1142.96 466.23 1074.42 549.89 1210.44 580.60
00019727 00000098 1008.52 102.01 368.84 614.88 1089.40 330.70 1255.37 358.51 1140.09 460.75 1078.13 551.67 1206.35 575.33
00019728 00000099 1004.49 89.08 372.64 621.43 1095.97 327.65 1253.87 362.37 1143.01 460.55 1076.42 546.64 1204.76 576.61
00019729 00000100 1001.89 89.44 376.18 610.64 1094.96 327.71 1254.68 362.22 1143.51 460.08 1075.74 540.77 1206.92 570.49
00019730 00000101 1002.33 88.47 376.74 612.00 1096.20 329.25 1255.12 364.31 1144.49 461.51 1076.52 538.87 1208.46 568.99
00019731 00000102 1002.83 88.53 375.55 614.80 1095.81 330.92 1255.41 366.22 1144.58 464.54 1076.50 542.35 1208.03 572.77
00019732 00000103 1003.96 91.55 374.34 623.03 1095.17 332.23 1253.36 366.45 1144.16 464.90 1079.43 551.83 1204.83 581.67
00019733 00000104 1002.28 102.58 373.58 627.98 1089.64 337.96 1253.99 364.65 1144.27 468.84 1082.97 567.32 1199.84 590.07
00019734 00000105 1006.27 101.17 370.57 629.35 1088.10 341.14 1254.14 367.34 1138.55 473.83 1077.45 569.96 1203.50 592.06
00019735 00000106 1004.37 103.55 372.00 628.08 1087.85 345.12 1255.51 372.41 1139.15 478.35 1075.53 571.62 1205.50 594.46
00019736 00000107 1001.73 98.80 376.64 630.55 1086.76 345.49 1258.19 381.61 1139.96 480.71 1069.34 565.98 1208.51 597.19
00019737 00000108 999.86 112.21 374.22 627.15 1089.00 354.98 1258.13 383.48 1144.17 490.84 1074.41 576.05 1209.67 599.96
00019738 00000109 996.68 113.27 377.55 634.04 1089.95 355.57 1258.71 383.74 1145.79 489.32 1075.47 576.54 1207.67 600.47
00019739 00000110 997.32 113.96 376.73 632.49 1089.29 353.17 1258.92 380.67 1145.17 485.67 1075.27 574.71 1209.90 597.99
00019740 00000111 996.93 111.58 376.17 630.38 1088.24 347.57 1254.55 375.60 1142.41 479.02 1077.06 571.19 1203.62 595.21
00019741 00000112 1002.10 107.31 373.92 620.53 1086.45 343.58 1254.77 371.41 1137.83 479.02 1075.19 566.24 1208.15 589.45
00019742 00000113 1004.10 105.75 375.15 620.59 1088.20 344.31 1256.99 372.01 1139.21 479.76 1076.14 566.61 1210.28 589.71
00019743 00000114 1002.79 106.65 375.66 622.41 1088.97 345.78 1256.66 375.25 1140.26 482.11 1075.71 568.24 1206.82 592.90
00019744 00000115 1002.19 109.93 373.59 624.81 1090.82 351.78 1253.63 380.08 1143.31 486.00 1080.72 575.31 1200.41 599.32
00019745 00000116 1001.63 114.41 373.22 616.67 1090.62 350.24 1254.75 379.18 1144.04 485.61 1079.94 573.96 1200.11 598.78
00019746 00000117 1000.68 113.20 375.38 613.18 1088.91 350.64 1256.45 380.74 1142.60 487.26 1076.42 570.97 1204.00 596.40
00019747 00000118 1002.28 105.03 376.86 618.87 1090.28 347.26 1258.03 383.23 1141.77 484.07 1072.38 565.79 1205.18 597.55
00019748 00000119 1002.37 108.89 378.40 624.67 1090.76 350.36 1260.63 387.20 1142.83 489.84 1072.44 570.05 1208.65 602.45
00019749 00000120 1001.12 112.62 376.69 630.59 1091.73 358.25 1261.30 386.04 1146.76 496.62 1079.88 582.12 1209.28 605.64
00019750 00000121 1001.41 111.83 377.65 642.15 1091.77 358.89 1263.15 384.91 1146.53 496.68 1079.46 589.06 1214.20 610.99
00019751 00000122 1002.42 110.41 375.95 640.88 1091.58 361.50 1262.20 388.21 1146.95 500.08 1079.49 589.11 1214.58 611.30
00019752 00000123 1001.43 110.07 376.59 634.59 1090.10 363.15 1261.80 390.94 1145.60 503.18 1077.60 587.01 1214.54 609.76
00019753 00000124 1001.91 112.59 376.81 628.02 1090.06 365.36 1261.35 393.10 1146.10 504.26 1078.49 585.01 1215.99 607.58
00019754 00000125 1003.23 112.61 375.15 627.64 1090.93 366.45 1260.80 394.27 1146.50 505.83 1080.07 585.93 1215.15 608.51
00019755 00000126 1004.82 113.57 374.17 625.90 1093.09 366.81 1260.45 394.66 1147.51 507.79 1082.71 586.27 1214.09 608.99
00019756 00000127 1007.49 115.94 376.31 617.39 1094.45 361.24 1264.76 388.78 1150.05 503.67 1084.23 582.22 1215.17 605.17
00019757 00000128 1010.21 108.88 379.61 612.81 1098.61 355.68 1268.97 389.41 1152.94 493.28 1081.59 568.14 1219.05 597.72
00019758 00000129 1011.95 96.64 380.04 616.41 1103.48 345.89 1268.87 380.05 1156.78 483.34 1088.83 556.90 1223.71 586.27
00019759 00000130 1013.26 87.59 381.96 622.60 1103.60 337.18 1269.58 371.65 1153.14 474.41 1087.96 549.13 1226.06 578.21
CROP_BBOX: 709 0 1729 920
