Video ID: 	O3RFXlK1tqY
H: 	1080
W: 	1920
FPS: 	23.976023976023978

FRAME INDEX X0 Y0 W H [Landmarks (5 Points)]

00019630 00000000 763.33 245.41 441.90 662.37 815.22 511.06 970.76 496.38 839.94 635.35 867.37 751.53 982.06 739.21
00019631 00000001 756.53 248.81 448.13 664.33 812.04 515.33 965.70 494.46 835.61 638.04 872.78 755.72 989.30 737.56
00019632 00000002 751.71 249.51 452.89 658.65 807.87 515.37 958.76 491.42 832.14 636.48 870.49 749.77 990.12 728.73
00019633 00000003 749.41 240.26 456.56 656.92 807.75 509.33 956.22 487.06 830.62 628.81 863.61 736.38 986.64 716.92
00019634 00000004 753.10 231.05 450.76 642.55 806.45 505.85 961.15 485.08 833.88 626.23 856.42 724.19 987.60 706.61
00019635 00000005 755.92 225.73 448.17 639.71 809.44 498.64 969.99 479.40 840.33 618.73 854.66 714.97 991.78 699.00
00019636 00000006 760.72 224.34 443.34 640.16 811.23 493.94 976.04 475.92 843.84 614.08 853.20 712.55 993.59 697.83
00019637 00000007 764.52 225.76 441.82 641.70 812.57 492.60 978.40 477.09 845.16 616.53 853.97 714.59 993.20 701.97
00019638 00000008 768.83 222.82 441.75 644.68 815.67 491.97 981.09 477.43 847.25 616.59 857.54 716.74 994.32 704.62
00019639 00000009 773.99 219.30 442.39 649.47 818.96 490.27 985.07 473.00 848.96 611.42 862.20 717.39 998.72 702.71
00019640 00000010 778.38 216.56 444.98 652.46 823.19 487.76 990.54 471.63 853.40 610.33 865.77 716.67 1003.35 702.58
00019641 00000011 784.22 218.80 445.49 653.99 829.62 485.33 996.90 470.75 858.11 606.92 868.61 714.66 1006.19 701.53
00019642 00000012 787.06 219.87 441.96 654.24 834.50 485.19 1002.63 472.20 864.90 608.13 871.04 715.49 1006.86 703.72
00019643 00000013 790.37 226.54 440.45 655.65 842.82 486.52 1009.32 475.11 873.91 611.44 879.39 721.75 1007.05 711.35
00019644 00000014 795.92 218.31 441.61 663.01 852.54 482.42 1023.82 470.85 888.74 601.24 884.06 721.45 1010.39 710.96
00019645 DELETE   801.93 207.12 448.89 658.95 860.12 484.09 1034.47 466.47 898.18 592.03 889.89 711.91 1030.49 697.94
00019646 00000016 804.46 199.61 445.46 678.96 858.65 487.56 1028.39 456.26 892.96 588.63 896.46 716.71 1040.98 691.18
00019647 DELETE   797.07 200.58 442.08 690.79 848.02 479.04 1009.75 447.07 874.07 579.78 886.33 720.10 1021.00 691.57
00019648 00000018 796.72 193.65 435.85 673.45 837.73 473.08 993.11 447.48 853.36 572.45 872.13 707.92 993.73 686.54
00019649 00000019 796.51 201.94 437.62 656.15 837.78 470.52 995.11 445.87 856.04 571.76 873.20 702.70 995.93 681.83
00019650 00000020 795.29 204.67 439.80 657.64 840.54 469.55 999.09 447.36 859.61 571.56 874.05 702.01 999.82 682.77
00019651 00000021 792.00 204.83 440.83 664.45 838.27 468.71 993.68 447.51 852.54 571.09 871.79 703.27 997.50 684.79
00019652 00000022 783.78 203.44 437.84 663.00 828.41 470.35 985.20 448.18 845.86 573.82 864.22 703.00 991.13 684.23
00019653 00000023 777.62 199.04 433.49 660.89 821.72 475.13 981.61 455.06 841.08 578.04 853.05 700.53 986.19 684.27
00019654 00000024 772.56 207.34 441.11 653.33 815.21 480.44 970.81 459.50 828.80 581.07 847.04 702.36 976.77 685.69
00019655 00000025 766.65 213.61 439.13 651.10 811.63 482.62 960.14 462.37 820.33 584.60 841.39 704.82 965.69 689.23
00019656 00000026 761.93 216.19 440.22 652.97 810.15 485.98 956.93 468.36 815.48 588.01 836.77 706.92 960.45 693.41
00019657 00000027 753.67 218.47 443.00 655.18 806.17 489.72 953.60 476.88 813.71 595.01 831.09 710.47 954.24 700.75
00019658 00000028 744.83 221.31 449.30 665.18 801.80 491.93 950.43 479.27 813.36 601.11 832.47 719.23 952.49 709.40
00019659 00000029 740.88 226.61 447.22 673.85 797.10 497.66 946.56 481.44 808.79 603.06 832.78 728.80 954.57 715.79
00019660 00000030 733.74 229.30 446.05 677.55 790.48 501.43 944.42 482.40 806.24 606.02 828.44 735.23 954.10 719.61
00019661 00000031 725.86 230.44 446.41 682.74 780.65 497.63 938.53 479.93 799.53 613.89 818.10 740.27 945.00 724.08
00019662 00000032 719.31 231.14 450.68 677.55 772.98 498.21 933.52 483.02 793.00 623.53 816.78 740.54 944.78 726.44
00019663 00000033 717.73 228.28 447.13 670.46 766.64 496.23 933.06 485.92 791.99 628.84 808.42 736.62 940.22 726.85
00019664 00000034 715.48 233.59 446.72 664.05 762.52 498.85 928.51 487.25 790.47 630.01 805.41 737.87 936.41 727.27
00019665 00000035 714.36 233.76 445.97 664.33 760.60 499.80 927.05 487.82 789.51 631.82 804.35 737.43 937.56 726.49
00019666 00000036 713.68 233.72 444.47 663.26 759.47 500.25 927.58 488.39 790.16 631.86 802.35 735.37 938.65 724.59
00019667 DELETE   711.65 234.40 443.09 665.71 760.15 509.86 924.42 497.09 791.32 634.18 805.52 737.41 938.88 725.85
00019668 DELETE   712.68 235.71 440.71 670.88 762.02 512.08 924.25 497.29 792.20 634.67 809.21 741.91 940.70 728.57
00019669 00000039 713.50 239.50 439.15 670.99 763.21 509.68 927.02 495.22 792.33 637.90 810.86 743.40 946.04 730.07
00019670 00000040 713.26 240.58 441.18 671.01 764.49 507.67 931.21 491.89 795.67 636.07 812.43 744.26 949.13 729.92
00019671 00000041 713.42 240.60 443.17 670.68 767.17 505.12 933.47 490.35 798.83 633.51 812.96 742.74 949.73 729.19
00019672 00000042 715.67 240.44 441.06 669.30 768.95 503.36 935.48 488.24 800.67 631.63 814.00 740.82 950.43 727.14
00019673 00000043 715.92 242.67 442.01 663.08 769.06 502.87 936.97 487.68 802.50 631.19 814.26 739.56 950.12 725.87
00019674 00000044 718.27 240.60 443.45 659.88 770.92 503.39 940.22 488.23 805.64 629.91 813.77 736.89 950.96 723.08
00019675 00000045 719.38 237.28 445.05 653.88 772.46 502.49 943.95 489.07 810.52 629.45 814.35 734.61 949.56 722.40
00019676 00000046 722.18 236.06 444.05 646.91 775.21 503.08 947.06 491.01 815.18 629.17 816.18 731.48 952.19 720.19
00019677 00000047 726.98 236.18 441.69 640.84 779.02 502.59 950.80 491.44 819.73 628.03 817.84 726.81 954.64 716.06
00019678 00000048 731.25 233.54 441.32 640.42 782.91 500.58 955.47 490.53 822.83 625.96 819.63 722.64 958.54 712.64
00019679 00000049 734.06 233.90 441.18 636.62 785.68 500.66 957.02 489.72 824.50 623.75 821.76 720.47 960.00 709.64
00019680 00000050 735.50 231.65 441.22 636.26 786.78 498.98 957.54 486.98 825.03 621.73 822.75 718.22 961.21 706.41
00019681 00000051 737.35 228.66 438.91 636.31 787.40 496.66 958.76 484.11 825.60 619.46 823.13 716.33 963.07 703.92
00019682 00000052 737.95 228.14 440.55 637.40 788.73 495.60 961.23 482.62 826.17 616.63 821.86 715.43 964.13 702.56
00019683 00000053 738.42 227.63 442.10 637.12 790.27 493.37 961.43 480.86 825.88 614.38 822.71 713.27 964.17 700.65
00019684 00000054 738.94 225.59 443.75 637.90 791.12 491.70 963.08 479.73 825.41 610.89 821.29 711.88 962.98 699.77
00019685 00000055 735.47 221.47 451.73 642.00 794.15 492.96 961.48 482.70 826.65 607.16 823.75 708.20 963.07 700.02
00019686 00000056 735.69 219.03 451.69 642.60 795.58 489.68 962.33 480.26 826.60 604.02 823.51 706.19 961.74 698.81
00019687 00000057 735.48 217.53 454.05 642.53 794.77 488.35 961.82 476.61 826.64 601.23 823.39 705.91 961.57 696.68
00019688 00000058 736.52 214.23 451.64 644.52 794.54 486.87 960.87 474.08 825.89 597.45 822.52 705.35 959.64 695.32
00019689 00000059 736.40 214.12 451.46 644.65 793.27 486.36 960.17 471.89 824.83 595.72 822.16 706.25 958.42 694.90
00019690 00000060 736.44 213.61 451.62 644.84 793.54 484.98 959.56 470.56 824.57 593.62 822.23 705.59 956.50 694.39
00019691 00000061 736.28 213.18 451.77 645.90 793.64 484.93 960.02 469.28 825.14 592.48 822.96 706.04 956.80 693.84
00019692 00000062 736.18 213.54 450.87 645.88 793.75 484.52 960.48 468.23 826.10 592.10 823.16 706.44 957.28 693.77
00019693 00000063 735.53 213.06 452.06 649.74 793.45 484.63 960.95 466.91 825.89 591.63 823.52 710.00 955.84 696.45
00019694 00000064 735.69 215.67 451.84 649.67 794.33 484.65 958.87 465.42 825.14 589.87 827.29 712.61 954.05 697.69
00019695 00000065 736.47 216.01 450.62 651.50 794.96 484.89 958.99 465.23 824.56 589.54 828.55 712.80 955.39 697.38
00019696 00000066 738.03 215.54 449.09 650.64 795.04 484.54 959.53 464.55 823.76 589.65 827.52 713.26 955.92 697.59
00019697 00000067 736.97 214.69 450.26 649.18 793.31 484.69 960.40 464.37 824.27 591.27 825.35 713.32 956.35 697.43
00019698 00000068 736.77 212.49 449.25 646.39 793.06 484.14 961.89 463.82 826.47 592.57 824.67 712.22 958.95 696.32
00019699 00000069 738.55 212.44 448.63 649.57 795.03 484.63 963.03 463.66 826.48 591.31 826.09 712.62 960.77 696.28
00019700 00000070 740.55 212.54 449.29 656.25 799.11 485.72 963.27 466.12 825.93 591.52 830.48 712.38 962.97 697.12
00019701 00000071 742.25 212.93 446.68 660.32 800.10 488.44 962.64 472.18 825.30 598.51 830.55 713.78 965.30 701.11
00019702 00000072 744.06 219.77 445.92 670.54 803.05 494.39 963.93 479.20 827.40 607.76 836.74 721.45 972.67 709.44
00019703 00000073 745.87 221.69 444.38 665.12 803.42 495.20 965.41 480.42 828.11 611.00 836.84 721.29 976.10 709.52
00019704 00000074 750.41 216.53 439.66 652.00 804.98 491.38 966.87 476.17 829.21 600.18 832.91 712.06 971.67 700.26
00019705 DELETE   754.61 218.34 433.17 652.60 806.90 493.66 973.89 474.45 833.83 594.74 833.05 713.40 982.96 695.35
00019706 DELETE   761.71 209.15 432.52 665.58 814.71 490.70 977.75 474.11 839.99 593.41 842.35 709.93 984.62 696.70
00019707 00000077 762.82 208.04 434.10 664.54 816.80 482.50 985.01 469.86 848.44 594.48 843.85 713.32 978.32 703.95
00019708 00000078 763.50 213.93 436.42 669.36 818.53 483.43 988.22 472.49 851.66 603.54 849.08 720.68 984.54 712.45
00019709 00000079 766.51 223.53 437.31 668.36 821.94 487.59 990.51 477.41 858.14 615.07 857.32 727.81 991.89 719.62
00019710 00000080 768.29 231.97 436.15 668.10 823.71 491.96 991.43 482.12 859.18 624.59 862.75 736.46 993.13 728.50
00019711 00000081 770.05 233.94 435.09 664.42 824.19 493.60 994.16 484.13 862.12 629.24 864.41 735.47 999.57 727.76
00019712 00000082 772.07 231.83 432.25 657.77 824.02 493.39 996.34 485.44 864.96 629.19 860.93 729.33 1001.74 723.02
00019713 00000083 775.97 229.21 426.87 656.70 827.15 490.23 998.81 483.11 866.72 624.15 860.67 725.60 1000.63 720.03
00019714 00000084 779.65 224.42 425.11 656.28 828.72 486.46 1001.25 480.20 867.28 619.27 860.23 722.45 999.03 717.64
00019715 00000085 781.08 225.04 424.58 656.52 831.29 484.49 1004.91 478.67 870.65 617.10 861.03 720.92 1000.42 716.50
00019716 00000086 782.20 228.42 425.94 660.74 835.03 484.77 1006.98 478.15 874.33 616.02 866.02 724.37 1001.91 719.14
00019717 00000087 782.84 230.81 426.93 668.28 836.81 484.43 1007.06 479.22 874.10 617.82 869.32 730.08 1002.20 725.87
00019718 00000088 782.95 231.53 427.95 670.90 836.83 486.08 1007.09 480.16 872.25 620.71 870.87 732.86 1004.89 727.87
00019719 00000089 782.40 232.47 429.23 669.22 835.39 486.37 1005.55 479.62 870.07 621.55 870.61 732.63 1006.46 726.78
00019720 00000090 781.60 225.95 426.59 659.69 830.62 484.08 1004.68 479.80 868.22 620.03 860.65 722.72 1002.73 719.35
00019721 00000091 782.21 224.49 427.39 648.58 829.36 482.40 1004.90 477.21 867.89 616.31 860.77 717.03 1003.23 712.80
00019722 00000092 782.14 222.40 427.08 647.43 829.29 481.62 1006.04 476.73 869.36 615.84 860.39 715.47 1004.21 711.49
00019723 00000093 782.17 225.55 425.74 646.51 830.22 484.12 1003.69 479.97 868.45 618.28 860.98 716.13 1002.68 712.79
00019724 00000094 780.27 227.94 425.15 661.48 830.83 487.72 1000.21 482.15 867.23 621.59 861.70 725.59 997.52 721.33
00019725 00000095 778.21 230.84 427.42 671.08 831.01 488.98 998.87 482.80 866.45 622.36 863.68 732.56 996.12 727.78
00019726 00000096 777.61 230.73 428.28 670.64 829.42 487.64 998.35 479.95 864.44 618.45 860.92 729.66 997.74 723.51
00019727 00000097 776.23 227.51 428.10 664.20 826.90 484.47 996.41 478.45 861.54 613.41 854.41 721.04 994.86 716.44
00019728 00000098 775.20 224.65 427.45 666.03 824.89 482.40 995.80 477.19 860.28 611.05 852.00 718.77 992.27 715.02
00019729 00000099 773.48 225.05 428.49 668.17 825.60 481.38 994.88 476.45 860.95 610.94 853.30 723.63 986.22 720.43
00019730 00000100 772.76 225.14 427.67 655.84 822.35 482.11 991.86 478.77 858.65 612.19 848.40 721.07 977.62 719.76
00019731 00000101 769.94 222.72 429.06 656.85 821.10 482.37 989.69 478.20 856.87 611.50 848.43 720.76 976.24 718.72
00019732 00000102 769.67 225.07 431.66 660.89 821.63 481.40 989.94 475.16 855.73 608.50 851.47 723.84 979.37 719.82
00019733 00000103 769.87 224.29 432.51 664.42 821.90 482.00 989.44 474.46 855.79 608.23 852.09 724.30 982.63 718.98
00019734 DELETE   770.78 219.82 429.55 662.38 821.07 494.52 986.08 488.62 849.78 612.67 848.63 722.68 983.03 718.58
00019735 DELETE   771.31 218.82 426.33 652.12 819.13 492.85 985.52 488.65 851.61 616.80 844.49 720.62 979.85 718.33
00019736 00000106 769.97 222.82 427.20 649.74 817.79 488.95 985.71 483.52 852.79 619.42 845.13 723.63 978.68 720.45
00019737 00000107 767.52 230.14 431.56 658.77 819.10 488.68 984.66 483.62 851.67 620.74 848.36 729.15 976.21 726.22
00019738 00000108 766.79 233.14 431.52 656.50 819.54 488.34 984.75 483.55 852.41 620.86 850.51 730.92 976.00 728.02
00019739 00000109 767.98 233.69 429.76 656.29 820.19 487.41 986.07 482.84 853.31 619.88 849.57 729.45 977.08 726.78
00019740 00000110 769.86 227.66 427.96 654.85 819.75 486.15 987.59 481.92 853.34 617.99 845.79 723.74 980.08 721.53
00019741 00000111 771.79 228.56 427.67 648.02 820.04 483.22 988.69 480.32 852.98 615.96 846.03 719.08 980.86 717.78
00019742 00000112 773.03 226.41 429.15 651.87 821.95 481.85 991.23 478.38 855.52 612.61 848.70 719.52 981.22 717.75
00019743 00000113 776.57 226.26 427.32 652.26 823.66 480.91 994.05 477.84 856.42 613.14 851.41 719.23 985.41 717.41
00019744 00000114 776.50 225.82 429.05 660.08 825.75 481.13 996.29 476.03 858.43 613.25 855.86 719.68 993.98 715.77
00019745 00000115 776.36 227.47 432.33 669.64 828.29 481.68 997.20 474.00 860.46 610.56 860.68 721.15 1001.66 714.54
00019746 00000116 776.79 225.92 431.69 672.38 828.30 481.34 996.93 473.88 858.92 609.99 858.78 720.51 1002.67 714.02
00019747 00000117 776.85 224.89 431.46 671.73 828.44 480.50 997.62 473.20 859.07 609.69 859.01 718.54 1004.65 712.06
00019748 00000118 777.14 223.10 430.53 670.10 828.08 480.56 997.41 473.40 858.58 608.81 857.80 717.14 1003.34 710.91
00019749 00000119 777.08 223.19 430.65 669.25 827.85 480.54 997.40 473.78 858.29 608.96 856.86 717.02 1002.76 711.20
00019750 00000120 777.29 224.86 430.61 668.72 827.98 481.16 997.25 473.99 858.14 609.12 857.38 717.34 1003.57 711.05
00019751 00000121 777.33 225.05 430.14 669.62 828.34 481.22 997.04 474.22 857.70 609.64 857.60 717.47 1004.02 711.25
00019752 00000122 776.58 224.56 430.79 666.32 826.40 482.17 995.47 474.57 856.20 609.77 856.87 716.36 1003.34 709.74
00019753 00000123 776.70 223.10 430.73 666.04 825.71 481.83 994.80 474.04 854.58 609.15 856.04 715.83 1002.53 709.11
00019754 00000124 776.20 224.20 431.13 666.29 825.51 481.80 995.09 473.33 854.57 608.90 856.51 717.14 1002.89 709.88
00019755 00000125 775.52 223.10 430.48 666.99 826.14 483.31 993.87 474.42 856.15 609.04 856.80 717.02 1001.68 709.43
00019756 00000126 775.87 221.13 431.26 666.02 827.45 498.15 990.92 488.64 855.24 610.48 857.34 717.48 1001.18 709.03
00019757 00000127 775.56 221.39 432.03 663.94 825.83 492.87 991.12 485.61 852.83 610.60 856.22 716.34 1000.40 709.91
00019758 00000128 775.88 220.77 431.67 664.47 825.22 488.72 992.88 479.54 854.45 609.30 854.99 717.23 999.79 709.45
00019759 00000129 774.38 220.77 433.52 664.95 825.12 486.26 993.54 476.57 855.42 607.37 854.22 717.36 998.28 709.38
00019760 00000130 774.15 221.64 434.12 665.55 824.92 484.79 992.59 475.25 854.77 606.86 854.08 717.82 997.42 709.96
00019761 00000131 773.64 221.04 434.54 666.19 824.71 483.66 991.94 474.02 854.78 606.29 854.33 717.43 997.50 709.47
00019762 00000132 772.79 222.48 434.61 662.81 823.71 483.04 990.79 473.51 853.54 605.29 852.98 716.94 995.19 709.23
00019763 00000133 772.45 219.58 430.85 654.90 820.53 482.03 988.56 473.90 851.24 605.68 848.24 713.31 988.89 707.34
00019764 00000134 772.28 218.48 429.72 650.87 819.78 489.53 986.85 482.38 850.71 608.39 845.94 710.90 986.81 705.74
00019765 00000135 770.58 217.14 428.10 651.07 820.09 497.20 983.98 489.60 848.59 609.05 845.49 710.45 986.70 704.68
00019766 DELETE   770.15 216.54 426.98 651.18 819.22 495.67 983.19 489.39 846.51 607.64 843.99 709.12 984.29 704.47
00019767 00000137 769.55 216.23 428.16 652.04 818.17 490.17 983.53 483.41 846.33 604.77 842.37 708.63 982.21 703.90
00019768 00000138 765.28 221.28 431.17 648.82 815.52 486.44 983.89 476.98 845.29 603.28 840.59 714.53 985.33 705.06
00019769 00000139 763.12 219.62 432.78 650.02 814.07 484.47 982.73 474.49 844.82 602.11 839.90 714.31 983.70 704.45
00019770 00000140 761.37 220.50 434.67 649.77 812.85 482.89 981.88 471.51 844.76 600.60 840.61 715.62 982.69 704.68
00019771 00000141 764.33 213.72 433.50 656.43 814.04 484.79 981.30 473.63 843.26 600.12 839.56 712.85 976.70 704.95
00019772 00000142 764.57 214.68 434.54 660.30 813.81 484.47 981.74 472.19 842.59 599.55 839.82 715.92 977.36 707.12
00019773 00000143 764.70 216.65 434.99 658.76 814.14 483.47 982.19 471.14 842.56 599.08 840.85 715.90 977.93 707.04
00019774 00000144 765.16 215.88 434.54 658.26 814.72 482.40 982.60 469.91 843.00 598.40 842.79 715.15 978.46 706.11
00019775 00000145 766.00 215.74 434.19 659.28 815.43 481.88 982.62 469.32 843.45 597.46 844.63 714.77 977.67 705.65
00019776 00000146 765.68 214.70 434.28 659.14 815.98 481.92 982.20 468.90 843.78 596.00 845.02 714.58 975.64 705.11
00019777 00000147 766.41 214.16 433.96 660.61 816.78 481.99 982.29 468.00 843.58 595.30 846.35 715.59 976.39 705.25
00019778 00000148 766.59 215.12 433.51 659.07 816.94 481.15 982.03 466.92 843.60 594.06 846.38 715.28 975.11 704.82
00019779 00000149 766.90 213.56 433.22 659.51 817.05 480.53 982.47 466.34 843.87 593.64 846.30 714.81 975.30 704.41
00019780 00000150 766.32 214.32 433.34 657.89 817.20 479.83 982.45 465.77 844.11 592.02 845.57 713.74 973.90 703.50
00019781 00000151 766.21 214.56 434.12 658.10 817.48 479.61 982.80 465.48 844.06 591.47 846.18 713.98 974.06 703.66
00019782 00000152 766.20 213.77 433.37 657.39 817.73 479.03 982.80 465.08 845.01 590.32 846.00 713.71 972.57 703.61
00019783 00000153 765.15 214.49 435.00 656.49 817.44 478.98 982.81 464.84 845.38 589.48 846.05 713.08 972.19 702.77
00019784 00000154 764.34 215.03 435.54 656.19 816.10 479.36 981.72 464.50 844.46 589.36 845.66 713.55 971.17 702.62
00019785 00000155 762.24 214.91 437.02 655.27 815.11 479.38 981.10 464.68 844.07 588.69 844.58 713.23 969.86 702.43
00019786 00000156 761.90 214.18 437.18 655.58 814.63 479.43 980.51 464.89 843.77 588.93 843.95 712.88 969.20 702.24
00019787 00000157 761.21 215.10 437.72 654.57 814.40 479.58 980.30 465.02 843.53 589.05 844.06 712.55 969.69 701.85
00019788 00000158 760.57 213.48 437.31 655.14 814.30 479.48 980.13 465.12 843.32 588.88 844.30 712.08 969.52 701.46
00019789 00000159 759.06 214.32 438.03 654.01 813.68 479.85 978.79 465.20 842.50 589.15 843.89 712.48 967.93 701.62
00019790 00000160 758.10 212.36 438.87 656.22 813.40 479.86 977.90 465.36 841.57 589.58 843.04 712.17 967.72 701.51
00019791 00000161 757.73 213.44 439.72 655.99 812.71 479.83 977.27 465.18 840.62 589.48 842.17 712.19 967.28 701.43
00019792 00000162 756.79 210.93 439.41 657.79 812.04 479.81 976.58 464.77 838.95 589.10 840.89 711.91 967.57 700.83
00019793 00000163 756.46 210.21 439.52 658.20 811.69 480.21 976.27 464.90 838.56 588.93 840.34 711.60 967.46 700.28
00019794 00000164 755.89 212.20 441.00 656.53 811.30 480.17 975.37 464.97 837.79 589.17 840.16 711.42 966.90 700.18
00019795 00000165 755.63 211.71 440.80 656.84 811.01 481.23 974.99 465.53 837.70 589.45 840.72 712.26 967.03 700.56
00019796 00000166 756.16 212.45 440.20 659.13 811.48 481.33 975.50 465.38 838.04 589.59 841.43 713.82 967.79 701.94
00019797 00000167 756.74 211.80 439.58 660.75 812.24 481.78 976.12 465.16 838.79 589.86 842.41 714.28 970.12 701.82
00019798 00000168 758.11 211.59 439.91 660.93 812.96 482.03 976.68 464.81 839.40 589.86 843.69 714.60 972.01 701.63
00019799 00000169 759.01 211.32 438.79 661.85 813.51 481.05 978.45 464.15 840.91 589.54 844.24 714.63 973.51 701.85
00019800 00000170 761.15 212.62 436.74 661.10 814.42 480.51 979.83 464.05 842.35 590.11 845.69 714.55 975.50 702.08
