Video ID: 	gfV3d17Hgow
H: 	1080
W: 	1920
FPS: 	25.0

FRAME INDEX X0 Y0 W H [Landmarks (5 Points)]

00007408 00000000 510.19 222.43 392.36 578.81 635.32 441.81 820.31 430.25 760.51 555.12 672.39 663.94 818.53 653.15
00007409 00000001 508.40 221.10 390.37 577.53 631.89 441.61 814.23 428.58 755.65 554.24 671.36 662.02 814.38 650.35
00007410 00000002 503.83 223.59 391.43 574.58 628.25 439.63 809.07 427.25 751.07 553.64 667.81 661.47 808.77 649.76
00007411 00000003 502.07 225.21 390.20 569.83 626.01 439.13 807.69 426.79 748.48 549.75 666.78 660.72 807.55 648.72
00007412 00000004 500.47 226.09 390.34 568.59 625.24 438.72 807.04 426.83 748.70 548.07 665.80 659.59 807.60 648.14
00007413 00000005 500.30 226.22 386.82 564.16 624.71 438.99 806.65 425.77 749.44 545.44 666.71 658.89 807.97 646.41
00007414 00000006 499.29 226.03 386.54 563.98 625.97 437.78 807.14 423.88 752.24 544.69 668.11 658.15 808.06 645.05
00007415 00000007 499.36 223.79 386.28 562.84 626.97 436.86 806.75 421.94 754.06 543.26 670.05 656.59 808.19 642.59
00007416 00000008 498.83 221.85 385.71 562.58 627.86 434.28 806.92 419.25 755.92 539.52 670.64 653.93 808.76 639.71
00007417 00000009 498.58 220.82 386.29 562.39 626.88 430.58 807.88 414.26 756.37 535.26 670.79 652.27 809.55 636.93
00007418 00000010 497.58 216.87 385.15 565.69 624.48 428.71 804.66 412.23 752.58 533.18 667.14 650.28 805.93 634.99
00007419 00000011 494.79 216.79 385.41 564.77 619.96 426.73 799.55 410.78 745.56 530.31 662.48 647.92 800.06 633.17
00007420 00000012 491.53 216.27 386.56 564.62 617.23 424.60 796.59 409.95 740.95 529.61 658.24 646.91 794.36 633.20
00007421 00000013 490.37 217.34 387.67 565.73 614.74 423.81 794.51 410.19 736.91 527.87 654.95 647.43 790.85 634.55
00007422 00000014 489.44 218.14 391.11 574.08 613.96 423.58 793.97 409.80 735.91 529.30 652.19 648.42 790.60 635.50
00007423 00000015 489.77 218.38 392.05 576.29 615.11 424.13 795.73 410.30 737.87 533.89 652.39 649.66 792.98 636.59
00007424 00000016 490.76 216.40 392.99 575.11 619.73 423.02 800.91 408.94 745.92 534.26 657.33 647.96 798.93 634.57
00007425 00000017 494.85 213.14 390.42 572.43 626.60 422.07 809.73 409.05 756.38 529.86 663.47 645.40 806.81 633.01
00007426 DELETE   498.81 219.41 390.86 563.28 634.86 418.77 816.48 409.07 766.38 525.60 669.50 640.73 812.44 631.04
00007427 DELETE   505.42 214.88 387.34 561.02 643.06 417.46 826.48 407.92 777.26 515.29 677.36 636.06 823.88 626.30
00007428 DELETE   509.52 213.91 387.38 556.53 653.23 414.13 832.63 406.77 788.30 508.02 685.13 627.30 832.99 619.37
00007429 00000021 512.84 214.20 386.86 556.52 657.16 415.00 836.73 409.02 793.22 507.22 686.83 626.44 835.81 619.83
00007430 00000022 514.41 215.62 385.43 553.14 656.15 415.08 838.38 410.86 791.26 510.04 684.36 626.40 834.81 621.37
00007431 00000023 514.48 215.53 385.64 552.23 652.63 413.29 835.66 410.47 786.44 509.01 679.75 624.24 831.37 620.49
00007432 00000024 515.46 213.02 389.08 561.48 651.99 409.31 834.83 409.47 783.54 508.15 674.67 620.73 829.60 619.51
00007433 00000025 517.35 212.11 389.63 561.07 653.96 407.58 837.44 407.50 786.17 506.94 676.55 619.28 832.15 618.11
00007434 00000026 522.97 212.66 386.07 551.28 660.69 409.23 843.15 406.79 793.60 505.34 684.72 617.75 839.17 615.03
00007435 00000027 527.96 213.04 384.72 549.61 666.64 408.59 848.49 405.14 800.23 505.28 691.16 618.36 844.18 614.89
00007436 00000028 528.03 211.66 385.69 551.92 667.18 408.53 849.54 405.65 799.81 506.15 691.52 618.71 844.90 615.62
00007437 00000029 527.06 212.34 384.96 551.55 661.86 409.73 844.85 406.83 791.47 506.67 687.28 619.97 840.34 616.64
00007438 00000030 525.04 210.51 389.21 557.31 657.79 409.62 840.74 406.76 785.43 509.96 682.70 621.76 835.54 618.58
00007439 00000031 525.64 211.87 390.63 566.55 659.10 409.83 840.96 408.10 785.28 512.75 682.87 626.41 834.68 624.15
00007440 00000032 528.28 217.30 390.36 567.71 665.79 411.38 845.81 410.50 792.06 517.35 687.03 631.95 837.53 630.72
00007441 00000033 531.20 222.78 391.82 568.98 672.95 411.95 852.32 411.05 800.22 519.50 693.45 636.82 842.01 635.66
00007442 00000034 533.52 222.56 389.70 560.37 677.23 416.03 856.95 414.24 805.89 523.65 701.86 639.21 845.19 637.34
00007443 00000035 534.91 223.90 387.27 555.35 675.45 417.33 857.63 415.31 803.47 526.40 701.74 640.65 844.45 638.49
00007444 00000036 531.79 224.14 389.94 560.62 672.18 418.51 853.91 415.23 799.92 527.58 699.17 643.49 842.50 640.10
00007445 00000037 531.30 224.88 389.51 560.81 669.56 419.03 850.13 415.09 795.15 529.14 695.68 643.92 839.00 639.94
00007446 00000038 530.02 222.94 387.66 550.07 664.11 420.39 848.32 417.94 788.36 530.58 689.85 639.97 835.62 637.32
00007447 00000039 526.65 221.45 388.91 554.10 660.68 423.00 844.05 419.34 785.17 531.33 688.46 641.34 833.15 637.48
00007448 00000040 521.45 220.85 392.19 559.96 657.41 422.29 837.66 418.04 781.59 533.01 688.54 643.91 826.72 639.24
00007449 00000041 519.36 219.02 391.45 559.28 651.32 422.54 832.79 415.63 776.25 532.05 686.85 644.86 822.84 637.89
00007450 00000042 514.86 215.87 395.50 562.76 644.68 418.56 826.94 410.49 768.30 530.55 679.55 642.58 815.55 634.46
00007451 DELETE   510.61 214.57 395.97 564.09 635.30 415.68 821.60 409.10 758.63 530.43 668.06 640.30 808.42 633.40
00007452 00000044 511.85 211.99 393.05 565.70 629.91 412.32 817.61 408.38 747.41 528.28 659.33 637.80 799.41 633.22
00007453 00000045 514.20 205.46 390.21 568.85 630.39 410.86 817.78 406.44 747.29 523.63 658.91 634.10 802.19 629.73
00007454 DELETE   516.49 202.88 388.96 562.06 633.73 410.65 821.48 403.07 754.50 517.19 665.77 629.56 812.12 622.57
00007455 DELETE   519.18 204.17 391.41 561.03 640.46 411.57 828.46 404.24 765.71 517.36 673.60 629.69 821.58 622.72
00007456 00000048 520.94 205.92 390.28 559.53 646.20 413.13 833.19 403.67 773.36 518.64 680.17 631.25 828.00 622.19
00007457 00000049 520.07 208.13 391.13 557.49 647.18 414.01 832.92 403.04 774.12 519.65 683.15 632.70 828.56 622.22
00007458 00000050 516.85 207.94 393.53 559.49 644.92 414.32 830.06 403.06 771.93 520.32 679.31 632.17 825.45 621.44
00007459 00000051 515.08 207.48 393.90 558.03 640.64 414.04 827.38 403.13 767.54 519.10 675.07 631.45 821.77 621.09
00007460 00000052 514.81 209.36 394.56 556.07 640.18 415.21 827.74 403.57 767.92 519.42 675.71 632.38 823.30 621.26
00007461 00000053 514.64 212.81 396.08 557.48 643.80 417.64 830.96 404.27 773.93 522.97 680.35 636.10 828.20 623.49
00007462 00000054 515.69 219.43 393.80 554.32 647.50 424.05 832.20 409.06 779.64 526.59 686.69 641.20 832.58 626.93
00007463 00000055 514.49 218.15 391.99 556.51 646.76 429.63 830.02 414.91 778.30 531.57 683.92 642.94 831.46 629.08
00007464 DELETE   511.27 219.07 393.16 556.19 640.90 431.52 823.90 418.39 769.03 534.56 673.49 641.41 824.38 629.00
00007465 DELETE   505.47 223.14 391.15 546.73 632.17 430.73 817.80 423.22 756.00 540.18 658.12 636.85 813.81 629.65
00007466 00000058 499.00 224.84 396.01 550.20 628.93 430.82 812.62 426.55 749.07 542.56 650.19 633.84 805.38 629.45
00007467 DELETE   497.49 228.07 396.93 546.55 629.30 432.55 813.85 428.30 750.61 542.62 648.55 631.18 808.61 626.89
00007468 00000060 499.88 230.78 395.33 541.94 635.06 435.51 820.08 431.63 760.03 544.28 654.08 631.84 815.39 628.21
00007469 00000061 501.67 230.80 393.93 541.90 639.90 437.91 825.07 432.39 768.40 545.40 660.05 633.03 822.06 628.32
00007470 00000062 502.87 231.09 392.58 541.97 641.49 437.37 824.73 432.22 769.28 546.03 661.20 633.01 821.47 628.62
00007471 00000063 501.08 230.51 393.81 541.10 637.87 436.41 822.34 430.73 765.17 544.43 659.21 634.36 817.47 629.35
00007472 00000064 499.08 229.99 393.70 539.64 633.60 432.97 817.73 427.41 758.58 541.92 654.94 632.56 812.05 627.58
00007473 00000065 497.92 227.51 395.61 543.33 630.92 429.87 814.89 425.02 754.14 540.42 654.04 633.01 808.07 628.31
00007474 00000066 501.80 227.33 389.93 540.61 632.71 432.51 817.26 424.12 758.76 541.17 660.38 636.90 813.51 629.44
00007475 00000067 506.19 226.17 389.63 547.70 638.39 436.16 823.95 428.61 766.84 541.74 667.68 643.61 818.98 636.40
00007476 DELETE   511.95 226.55 386.01 549.71 647.29 440.74 826.85 436.79 771.79 543.27 676.08 646.62 820.12 642.45
00007477 DELETE   511.80 227.50 386.80 547.25 643.20 443.39 823.66 439.76 765.92 544.17 673.72 649.69 816.12 645.89
00007478 DELETE   508.15 227.74 387.14 551.25 635.80 440.45 817.99 435.85 758.35 544.84 667.58 652.01 811.43 647.13
00007479 00000071 506.70 225.60 386.92 550.68 630.81 436.82 812.38 429.53 752.07 543.14 664.24 651.36 806.16 644.26
00007480 00000072 505.66 224.59 385.12 552.72 628.75 432.60 810.31 423.96 750.98 540.45 663.80 649.86 804.31 641.52
00007481 00000073 502.35 224.30 392.89 571.93 633.51 427.71 810.83 423.57 753.88 541.73 663.16 652.56 800.86 647.87
00007482 00000074 501.24 225.96 392.30 570.02 632.22 428.08 810.15 423.75 753.15 542.69 660.29 651.94 801.50 647.20
00007483 00000075 499.71 225.96 391.20 563.84 629.50 429.96 808.39 423.18 750.66 544.30 658.07 651.43 799.71 644.77
00007484 00000076 498.00 226.37 393.26 563.88 628.02 430.50 808.02 424.28 748.21 544.93 655.43 650.89 798.07 644.65
00007485 00000077 499.29 224.27 393.91 572.92 631.19 427.22 809.60 422.29 751.77 544.25 658.60 651.79 799.35 646.44
00007486 00000078 501.89 222.70 393.72 575.50 636.09 427.78 812.75 421.41 759.19 542.07 667.03 653.74 803.96 647.15
00007487 00000079 506.83 222.53 394.30 569.69 641.21 428.95 818.89 421.57 766.37 539.50 674.07 650.87 813.10 643.41
00007488 00000080 511.56 221.50 391.29 566.67 646.48 430.65 823.68 420.69 773.84 536.94 680.73 648.99 822.24 639.41
00007489 00000081 514.20 218.84 393.04 561.53 650.40 430.80 831.27 419.00 781.01 536.11 685.20 645.68 831.40 634.50
00007490 00000082 516.72 217.03 393.10 564.83 651.88 428.42 831.85 415.43 782.02 535.87 688.95 646.13 832.58 633.91
00007491 00000083 518.97 218.56 392.86 564.94 651.38 427.56 830.33 414.40 778.94 533.71 690.69 647.12 829.51 634.83
00007492 00000084 521.36 219.86 391.74 560.51 653.37 425.83 832.79 413.49 780.35 533.87 690.79 645.57 830.07 634.08
00007493 00000085 525.36 220.41 387.82 557.25 656.30 425.51 835.65 414.13 783.40 533.17 693.18 644.04 832.69 633.82
00007494 00000086 527.52 219.58 384.97 553.67 657.41 426.16 840.81 414.64 786.29 533.16 693.45 646.01 836.61 635.82
00007495 00000087 526.64 219.20 385.65 556.07 656.91 429.83 839.38 418.49 784.68 534.79 690.61 646.71 836.45 636.46
00007496 00000088 524.24 219.29 388.61 558.10 654.52 430.57 837.00 419.37 782.15 538.34 687.40 645.87 835.27 635.78
00007497 00000089 522.02 219.73 389.89 555.48 651.14 431.85 834.59 421.59 776.75 540.65 683.69 647.47 829.53 638.15
00007498 00000090 516.80 219.49 392.97 560.38 646.86 431.03 828.58 422.31 770.80 541.87 678.67 647.48 822.71 639.06
00007499 00000091 514.86 220.40 395.43 569.84 649.27 427.87 826.19 420.93 770.03 540.05 679.95 649.26 818.09 642.24
00007500 00000092 516.76 221.72 394.00 569.66 650.30 427.43 827.06 420.46 771.28 537.62 680.00 648.17 820.07 641.41
00007501 00000093 521.23 221.66 391.40 564.45 653.29 428.07 830.84 420.68 775.56 538.13 684.68 648.22 823.48 641.07
00007502 00000094 526.51 226.50 389.38 559.99 659.05 431.18 835.01 421.98 781.11 538.89 691.05 648.90 831.57 640.10
00007503 00000095 532.88 227.80 385.99 557.07 665.15 431.17 842.57 422.01 788.56 539.90 696.38 650.15 837.95 641.59
00007504 DELETE   537.06 225.03 385.95 551.05 669.43 427.75 850.80 419.43 794.36 539.09 700.73 646.71 844.51 639.10
00007505 DELETE   543.52 224.83 385.66 553.44 676.58 421.66 855.46 417.89 794.39 542.14 704.47 643.19 837.86 639.35
00007506 00000098 547.36 224.56 384.62 556.88 681.40 424.70 859.74 421.63 797.86 547.54 709.71 648.71 840.56 645.55
00007507 00000099 548.95 225.84 388.01 561.65 688.76 425.00 864.25 422.40 804.34 548.52 715.08 650.49 843.42 647.60
00007508 00000100 550.77 225.81 387.47 559.85 693.09 426.35 867.44 423.65 810.81 546.86 721.00 651.21 848.21 648.21
00007509 00000101 551.51 226.01 386.76 558.64 695.02 427.73 868.18 425.62 812.55 547.42 721.42 651.92 848.45 649.51
00007510 00000102 550.22 229.20 387.75 555.53 691.30 429.81 867.56 428.53 808.59 547.31 716.23 651.35 849.38 649.73
00007511 00000103 547.65 230.24 390.17 563.98 687.83 428.99 866.21 429.12 805.08 548.89 709.14 651.49 846.24 651.00
00007512 00000104 545.10 230.28 389.77 566.70 686.23 428.19 865.06 428.28 804.79 548.26 707.30 651.28 845.77 650.68
00007513 00000105 544.38 231.16 388.27 565.01 686.00 428.61 865.01 429.38 805.25 548.51 706.09 651.43 845.29 651.54
00007514 00000106 543.29 232.27 388.95 562.51 686.88 429.86 865.31 430.36 806.99 548.21 706.97 651.72 846.21 651.80
00007515 00000107 542.64 234.37 388.80 562.96 686.56 432.15 864.23 432.91 806.60 548.85 707.39 651.74 847.26 652.08
00007516 00000108 542.17 234.11 386.31 562.04 684.63 433.31 863.10 434.36 805.82 549.08 705.87 652.63 846.73 653.30
00007517 00000109 538.73 237.93 388.25 555.40 682.55 441.74 859.99 437.69 808.95 547.25 705.30 652.41 853.94 648.91
00007518 00000110 539.43 237.76 385.65 545.46 679.53 441.77 860.62 437.09 806.15 547.41 703.87 651.50 852.22 647.48
00007519 00000111 538.94 236.63 386.34 546.03 681.41 442.10 861.35 435.89 808.64 547.48 706.43 650.73 854.19 645.39
00007520 00000112 539.06 237.54 386.81 548.63 683.96 440.22 861.97 433.93 811.71 545.99 709.29 651.50 855.20 646.10
00007521 00000113 540.70 231.51 386.95 573.03 685.26 426.28 860.34 429.21 805.75 547.23 708.24 651.61 840.72 653.51
00007522 00000114 539.91 230.25 387.90 575.16 683.11 424.96 858.69 428.48 803.27 546.53 703.72 649.86 838.34 652.39
00007523 00000115 539.63 228.87 388.26 573.31 681.04 421.75 856.91 426.35 798.63 544.07 700.30 646.71 835.04 650.18
00007524 00000116 539.54 224.83 388.47 574.29 676.01 417.79 856.04 421.24 796.34 539.16 697.26 644.10 834.48 646.72
00007525 00000117 535.22 225.66 389.11 572.86 675.32 421.01 853.99 415.14 802.61 528.67 700.93 647.65 846.42 642.18
00007526 00000118 540.03 222.12 387.26 578.07 673.51 407.54 855.73 409.48 797.21 528.36 699.92 641.44 835.26 642.56
00007527 00000119 541.04 215.40 385.84 564.33 682.94 409.02 863.73 405.54 807.74 525.16 712.06 637.54 845.16 633.82
00007528 00000120 538.25 205.31 389.45 559.42 682.61 411.58 870.69 411.47 812.77 522.64 719.30 629.43 863.64 630.03
00007529 00000121 540.72 207.80 389.10 561.90 691.72 403.51 870.54 401.00 818.88 520.06 723.87 629.36 853.43 626.16
00007530 00000122 536.97 197.92 387.03 567.19 680.98 403.23 864.59 404.65 811.75 517.82 715.12 623.26 857.48 625.13
00007531 00000123 536.08 199.59 384.67 555.90 676.85 402.10 860.59 403.89 803.71 513.94 712.38 620.63 851.45 622.94
00007532 00000124 537.23 204.65 377.08 553.47 671.30 407.81 856.80 405.32 801.17 508.27 698.41 627.79 844.08 625.94
00007533 00000125 533.23 209.08 384.77 570.28 672.11 408.68 849.55 407.17 799.37 509.05 696.12 630.01 839.80 628.77
00007534 00000126 532.15 217.86 387.59 571.74 671.90 411.31 848.25 407.34 799.45 514.00 695.36 633.90 842.11 630.29
00007535 00000127 531.96 221.26 387.26 564.52 672.63 415.47 851.58 409.88 803.35 520.72 696.56 636.03 846.20 631.07
00007536 00000128 534.72 219.46 384.83 561.64 676.50 420.04 856.50 412.33 809.02 524.11 698.63 635.63 851.34 629.31
00007537 00000129 536.23 219.95 383.12 553.34 679.26 422.41 859.39 414.68 812.72 524.65 702.59 636.21 852.00 630.20
00007538 00000130 537.72 222.75 382.16 550.84 680.03 425.11 859.96 416.99 813.12 526.15 703.83 638.21 852.84 631.84
00007539 00000131 537.87 224.25 382.32 551.43 676.21 427.71 859.46 418.95 809.09 529.94 700.89 640.76 853.46 633.61
00007540 00000132 537.31 226.06 382.70 550.27 674.89 428.50 857.56 421.00 806.24 532.29 699.31 641.90 850.70 635.71
00007541 00000133 537.61 226.45 383.93 550.01 674.74 429.23 857.49 421.62 805.02 533.57 699.45 642.24 850.56 636.03
00007542 00000134 539.14 226.06 384.15 549.34 675.96 429.63 858.14 421.66 804.79 532.98 701.15 641.84 851.36 635.44
00007543 00000135 542.93 220.59 383.54 557.05 681.24 421.68 860.93 417.13 804.87 535.70 705.04 642.23 843.24 638.13
00007544 00000136 545.60 218.28 385.77 560.08 685.95 423.57 864.82 418.89 809.20 537.56 711.08 644.59 847.33 640.45
00007545 00000137 546.21 220.83 387.84 561.89 689.92 424.32 869.02 420.17 813.22 538.82 713.97 646.55 849.90 642.66
00007546 00000138 547.20 222.28 389.08 564.39 692.09 425.15 870.02 421.76 814.97 540.84 716.59 649.30 849.91 646.09
00007547 00000139 546.59 224.31 390.35 565.54 691.14 425.29 869.59 421.85 814.21 541.26 715.47 649.79 850.47 646.53
00007548 00000140 545.59 226.21 389.23 566.69 686.26 427.09 866.11 423.68 810.54 542.19 711.68 650.16 849.88 646.97
00007549 00000141 543.67 226.90 386.63 567.72 682.54 426.92 861.82 423.89 807.10 542.49 709.23 649.28 848.90 646.29
CROP_BBOX: 226 0 1183 1000
