Video ID: 	pg84D67a_sU
H: 	1080
W: 	1920
FPS: 	23.976023976023978

FRAME INDEX X0 Y0 W H [Landmarks (5 Points)]

00003406 00000000 690.84 305.29 394.75 598.86 786.59 558.12 984.80 579.84 867.52 697.50 786.88 776.43 933.62 795.70
00003407 DELETE   691.57 292.92 402.43 613.81 785.17 541.16 981.07 550.20 871.92 671.06 797.94 773.53 935.38 781.66
00003408 00000002 691.87 275.14 400.46 616.25 788.32 525.19 984.95 534.25 875.94 648.78 798.92 760.12 932.98 767.31
00003409 00000003 696.76 253.39 406.42 622.26 788.88 502.05 989.39 520.41 870.48 630.72 792.68 739.08 932.06 755.95
00003410 00000004 696.59 244.01 410.87 627.11 791.20 495.60 993.01 516.52 872.33 625.06 790.20 728.63 936.22 747.41
00003411 00000005 697.75 240.22 411.18 630.09 792.09 492.26 997.58 514.21 874.34 621.91 788.58 720.76 946.71 739.68
00003412 00000006 698.81 238.19 407.20 632.51 792.72 487.37 1000.15 510.26 875.62 613.83 786.78 713.22 953.61 732.24
00003413 00000007 704.25 234.48 407.42 632.71 797.06 481.70 1003.05 503.27 879.54 608.35 793.59 714.19 955.80 732.21
00003414 00000008 705.46 232.44 409.57 631.46 799.34 478.91 1006.41 499.77 883.33 606.14 796.73 714.34 958.13 731.82
00003415 00000009 704.56 231.81 411.18 630.24 799.72 478.24 1009.11 500.32 884.80 605.98 795.35 710.80 961.36 728.94
00003416 00000010 702.68 234.39 410.98 629.15 799.77 480.08 1009.38 503.29 886.22 607.75 795.28 709.01 964.49 727.90
00003417 00000011 701.01 235.95 410.68 639.43 797.32 484.85 1007.02 506.28 884.61 612.72 793.81 713.77 966.67 731.25
00003418 00000012 698.73 239.03 411.98 637.84 793.46 490.09 1003.48 512.57 879.61 619.42 787.07 717.31 959.40 735.83
00003419 00000013 695.41 241.55 410.65 625.75 790.47 494.41 1001.27 514.53 878.38 625.63 785.51 720.76 951.21 738.09
00003420 00000014 690.32 247.21 412.45 623.26 784.95 499.85 997.87 517.93 874.36 631.92 781.70 724.06 949.84 739.53
00003421 00000015 686.10 244.57 411.80 637.05 776.53 506.96 988.58 522.49 861.07 636.79 776.24 729.71 945.06 743.08
00003422 00000016 667.20 252.52 415.43 626.22 755.86 510.78 957.61 526.80 830.85 651.79 767.56 742.04 919.59 756.36
00003423 00000017 659.98 251.57 415.80 627.74 748.33 508.23 950.38 527.58 821.48 649.99 755.53 738.88 909.16 755.91
00003424 00000018 659.36 252.37 412.57 626.10 746.93 506.76 948.22 527.04 819.72 649.21 754.67 742.74 902.70 760.95
00003425 00000019 658.49 250.20 414.79 629.03 748.38 505.96 948.25 524.26 821.63 646.50 758.48 745.60 901.14 762.53
00003426 00000020 659.11 250.69 414.70 633.46 747.15 507.75 947.90 524.75 821.47 649.49 759.98 751.03 902.25 766.92
00003427 00000021 660.61 252.10 416.64 633.76 747.24 515.68 952.24 529.82 825.98 656.00 762.73 756.44 910.10 769.53
00003428 00000022 659.29 250.36 417.20 632.19 744.76 515.84 951.70 532.21 822.48 656.28 757.02 751.23 910.81 765.74
00003429 00000023 655.72 248.98 420.27 631.34 742.99 512.71 950.74 529.96 820.77 648.52 751.90 741.88 912.64 756.69
00003430 00000024 653.57 248.74 422.46 639.97 741.95 510.87 951.96 527.98 821.52 645.52 749.07 740.42 917.17 755.10
00003431 00000025 652.73 250.33 422.40 647.55 739.23 518.69 951.88 533.32 820.50 652.27 746.96 745.13 921.36 757.48
00003432 00000026 643.84 264.91 433.78 635.73 741.47 531.62 955.10 542.34 828.25 659.52 748.57 747.03 935.44 754.25
00003433 00000027 647.11 285.58 433.69 633.48 744.75 543.45 957.34 556.55 834.48 682.51 756.79 765.83 936.40 775.72
00003434 00000028 657.64 290.81 425.16 628.85 751.68 552.63 965.99 565.11 845.05 701.25 769.71 779.51 944.29 789.19
00003435 00000029 679.94 285.22 414.91 644.79 776.38 553.33 993.71 564.84 873.25 692.90 782.91 778.54 958.26 788.53
00003436 00000030 691.23 284.41 428.37 650.55 793.38 545.58 1010.94 558.14 893.78 682.71 802.28 779.59 976.10 789.47
00003437 00000031 703.48 281.02 437.76 644.16 811.74 538.64 1021.68 550.35 908.09 675.50 823.60 771.53 990.84 779.83
00003438 00000032 718.45 276.07 433.66 632.19 820.61 537.64 1032.75 547.69 914.66 676.34 834.35 765.06 1003.49 771.67
00003439 00000033 725.64 279.90 428.41 627.46 827.66 544.08 1039.76 560.26 921.68 692.88 839.60 766.95 1010.87 779.23
00003440 00000034 734.84 292.98 419.44 623.84 831.98 557.30 1043.68 572.37 924.37 712.94 843.48 780.60 1015.94 792.93
00003441 00000035 745.51 305.06 412.88 630.62 842.83 566.43 1060.57 585.20 936.47 710.58 843.48 789.49 1016.52 806.38
00003442 00000036 746.24 313.62 412.39 632.53 842.03 570.94 1056.72 590.55 932.90 713.68 840.31 794.07 1012.49 811.63
00003443 00000037 746.19 313.82 410.14 627.45 841.69 572.56 1056.97 594.83 929.07 707.76 837.22 786.97 1014.07 806.22
00003444 00000038 741.06 311.75 413.30 625.90 832.33 571.69 1038.98 590.57 914.98 716.60 837.20 791.37 1009.02 807.40
00003445 00000039 737.21 308.97 415.65 621.29 830.07 570.30 1038.84 590.59 914.33 719.69 836.50 791.46 1007.46 808.34
00003446 00000040 739.51 309.12 416.23 627.19 836.40 576.57 1054.53 597.41 929.53 720.17 833.92 792.91 1006.43 811.90
00003447 00000041 732.50 319.47 419.19 628.79 825.60 580.69 1034.89 601.59 911.13 733.68 831.67 802.36 1005.40 819.70
00003448 00000042 729.71 313.09 420.55 639.10 825.74 571.99 1037.47 589.80 915.71 719.89 828.89 793.91 1013.17 808.62
00003449 00000043 731.40 306.90 417.95 635.32 828.13 566.89 1042.70 579.81 923.37 706.23 832.74 785.11 1023.27 795.90
00003450 00000044 733.59 298.94 419.13 632.47 830.85 559.47 1046.95 568.52 929.10 694.72 835.88 777.41 1028.49 785.01
00003451 00000045 730.67 296.32 421.23 633.25 829.24 559.65 1043.98 570.85 926.04 699.20 834.81 775.33 1026.20 784.63
00003452 00000046 726.92 305.82 419.79 633.96 823.94 563.20 1035.03 578.57 916.36 707.14 827.71 781.08 1013.23 794.11
00003453 00000047 723.79 307.36 418.67 634.93 821.70 563.44 1030.19 580.70 910.79 705.34 824.73 783.06 1004.79 797.35
00003454 00000048 723.46 303.04 417.98 627.90 821.86 557.72 1030.48 574.36 911.71 695.97 825.96 777.08 1003.25 790.80
00003455 00000049 724.11 292.60 419.99 623.43 821.93 550.87 1028.61 567.58 908.79 682.32 828.99 772.70 994.63 785.77
00003456 00000050 721.73 289.34 421.62 613.48 822.92 546.01 1028.12 562.60 908.53 675.48 828.14 763.46 992.28 776.00
00003457 00000051 723.17 285.15 417.15 603.62 822.61 541.73 1024.04 554.60 907.76 668.58 830.59 753.21 993.66 762.41
00003458 00000052 723.28 279.29 413.69 604.18 822.67 534.78 1021.78 548.88 905.36 659.33 824.01 743.16 990.26 753.21
00003459 00000053 720.96 269.95 408.04 603.38 816.32 516.45 1016.47 534.68 893.91 643.40 812.74 724.75 979.85 740.47
00003460 00000054 715.76 253.41 407.73 611.60 813.04 497.11 1016.36 523.66 890.83 628.42 803.67 710.03 974.29 732.78
00003461 00000055 707.84 247.62 407.71 612.31 806.63 485.93 1007.33 520.48 877.83 620.65 789.73 701.73 955.30 731.09
00003462 00000056 701.46 250.63 410.49 605.78 800.09 486.49 996.76 529.27 861.09 619.95 775.53 696.05 935.82 732.09
00003463 00000057 700.41 252.32 397.42 607.53 786.43 489.47 976.95 537.93 826.81 624.57 756.90 691.40 917.02 731.28
00003464 00000058 694.61 250.56 390.75 610.38 769.58 488.65 946.96 535.55 795.06 618.70 742.43 697.20 885.75 735.40
00003465 DELETE   690.38 244.92 394.54 620.21 760.90 494.67 937.64 535.79 789.07 619.11 739.32 703.10 881.52 736.68
00003466 00000060 695.44 250.07 392.17 623.95 761.31 503.94 941.87 532.10 797.58 623.69 748.86 715.48 894.01 738.70
00003467 00000061 700.02 254.08 391.17 621.77 762.34 506.95 943.94 533.08 801.96 627.63 754.47 717.34 902.81 738.93
00003468 00000062 701.48 252.00 394.25 623.84 763.34 506.23 947.80 535.48 803.57 631.90 755.79 716.47 907.85 740.50
00003469 00000063 700.58 255.04 393.43 626.98 763.64 510.58 948.31 539.88 805.31 637.49 755.77 720.56 908.64 744.68
00003470 00000064 699.94 263.07 394.36 625.75 762.14 519.64 947.88 548.81 805.69 649.08 756.48 730.82 907.41 754.81
00003471 00000065 696.14 272.76 398.51 640.20 763.29 535.76 953.45 562.50 809.50 665.26 759.08 751.27 911.20 774.12
00003472 00000066 691.02 290.85 400.10 635.10 762.15 546.70 959.56 571.30 816.00 680.80 753.42 767.85 907.51 787.80
00003473 00000067 687.99 287.97 391.46 644.96 749.80 555.05 943.17 578.12 802.01 686.72 746.99 781.01 894.94 799.96
00003474 00000068 682.54 289.27 390.51 642.56 740.27 553.71 931.22 576.99 791.21 688.71 740.64 781.69 883.81 801.10
00003475 00000069 668.36 292.64 401.65 631.55 728.19 548.76 913.83 574.64 770.39 689.95 729.90 779.66 876.72 801.30
00003476 00000070 666.06 288.58 404.13 630.43 726.09 545.08 912.84 569.01 772.87 683.55 730.54 774.46 878.70 794.17
00003477 00000071 667.20 276.15 407.87 639.11 730.91 540.19 920.17 561.96 781.37 677.13 736.13 770.51 886.10 788.23
00003478 00000072 671.20 274.49 407.68 636.47 736.41 538.25 928.31 557.46 790.63 674.91 745.83 770.30 894.77 786.01
00003479 00000073 670.36 273.69 411.47 635.47 734.81 535.76 929.61 556.24 787.70 673.01 743.08 769.51 894.38 786.36
00003480 00000074 666.01 274.17 411.15 640.78 728.76 536.52 923.26 558.14 778.21 673.50 732.34 773.04 886.16 791.02
00003481 00000075 656.28 272.06 415.55 653.11 720.58 538.64 917.60 560.37 772.86 677.56 724.40 777.49 883.03 795.32
00003482 00000076 649.81 271.18 421.68 661.12 710.54 537.99 909.29 556.69 761.70 677.02 716.19 780.22 875.47 795.37
00003483 00000077 642.63 276.67 423.32 654.31 702.19 535.71 898.63 551.92 752.68 671.71 707.79 774.28 868.54 786.51
00003484 00000078 632.94 269.22 424.98 656.61 694.99 531.78 890.57 546.09 745.06 665.80 699.67 764.47 859.95 774.96
00003485 00000079 628.25 263.15 421.05 649.84 685.05 523.22 884.12 535.53 733.33 654.16 686.89 751.32 850.89 760.30
00003486 00000080 625.91 249.46 415.00 651.03 678.81 513.66 868.66 528.64 725.69 639.19 685.06 740.58 840.39 752.14
00003487 00000081 625.58 239.34 413.50 652.34 680.99 506.20 874.53 523.02 731.88 636.32 686.54 731.46 847.77 744.27
00003488 00000082 628.70 243.23 404.81 643.07 690.18 504.63 888.21 525.69 747.69 638.98 695.65 726.67 860.68 743.09
00003489 DELETE   636.95 247.84 416.31 645.75 705.53 513.81 916.85 534.70 771.89 646.98 704.87 735.07 879.46 751.77
00003490 DELETE   653.64 257.44 412.59 648.29 730.15 526.71 943.71 550.42 801.98 667.49 728.76 751.20 906.51 769.91
00003491 DELETE   663.18 282.47 417.47 632.73 753.66 542.01 963.47 564.63 833.72 684.96 750.82 757.22 938.00 776.21
00003492 00000086 677.36 290.59 415.74 641.54 766.41 549.47 987.84 573.12 851.46 691.33 760.67 772.57 947.50 791.66
00003493 00000087 668.50 294.31 416.58 637.84 754.27 555.08 969.74 574.53 835.05 698.26 756.11 780.93 940.39 798.22
00003494 00000088 660.93 288.32 417.63 642.13 743.78 550.76 959.23 568.24 823.58 688.41 746.88 775.08 934.30 790.16
00003495 00000089 640.95 274.36 433.14 658.64 729.90 542.74 941.80 556.20 811.31 674.16 736.57 770.09 921.23 780.29
00003496 00000090 629.45 263.54 426.89 652.29 711.70 534.04 925.68 538.76 793.61 659.52 722.38 766.77 893.92 769.07
00003497 00000091 623.31 245.96 419.86 657.64 695.68 519.00 908.24 525.97 773.77 645.28 705.88 752.18 871.77 757.94
00003498 00000092 614.32 236.09 409.37 650.29 690.70 506.71 893.87 510.63 768.08 628.29 706.04 737.32 864.61 741.37
00003499 00000093 604.68 239.01 408.30 647.47 678.78 496.69 877.75 502.63 751.28 625.80 702.52 736.77 854.66 743.15
00003500 00000094 603.62 237.53 410.83 643.97 682.01 491.80 886.09 502.03 757.24 623.81 697.06 725.87 862.32 735.76
00003501 00000095 613.37 227.89 410.69 644.56 701.03 492.33 911.51 508.32 783.04 618.55 700.59 711.34 879.21 724.47
00003502 00000096 626.08 236.84 424.56 642.05 717.59 500.16 937.57 525.03 801.04 633.31 711.33 722.76 895.79 742.36
00003503 DELETE   650.39 256.25 420.11 634.50 741.92 519.59 958.57 544.19 822.40 663.15 740.10 742.15 919.84 762.85
00003504 00000098 658.35 265.58 427.68 641.96 762.73 528.86 973.10 554.13 845.78 669.60 758.13 747.61 939.78 768.13
00003505 00000099 676.92 269.78 421.95 654.39 774.68 530.24 983.87 552.96 854.44 664.84 768.34 753.51 941.59 772.64
00003506 00000100 681.02 262.96 418.32 645.92 770.96 527.49 982.03 545.76 851.96 655.38 769.58 751.81 936.44 767.30
00003507 00000101 682.63 250.96 409.79 646.02 763.36 520.19 969.07 539.15 839.23 644.19 763.48 744.94 920.89 761.51
00003508 00000102 662.92 248.11 410.73 632.12 739.04 517.52 936.58 528.08 802.92 638.25 747.02 739.94 896.26 747.77
00003509 00000103 652.04 239.69 398.41 634.47 713.88 502.16 912.11 516.94 772.54 630.16 722.24 731.04 873.19 744.12
00003510 00000104 637.01 235.12 402.71 630.88 691.83 492.16 887.94 505.10 744.70 619.18 700.34 716.99 859.87 726.81
00003511 00000105 626.00 227.87 400.94 630.82 680.96 489.23 870.81 500.61 728.08 611.49 685.60 705.57 847.21 713.36
00003512 00000106 608.67 241.65 399.09 627.41 663.65 496.97 850.58 511.08 708.36 623.81 673.39 715.27 827.31 727.09
00003513 DELETE   597.82 260.34 405.42 616.63 670.11 521.83 857.96 538.44 723.10 652.25 675.97 728.40 842.56 739.86
00003514 00000108 599.43 285.50 404.98 613.85 671.50 537.34 867.64 556.48 735.89 675.89 680.34 748.98 851.68 763.79
00003515 00000109 600.35 299.48 406.94 614.34 676.40 551.27 877.91 575.08 744.15 699.25 689.23 773.81 852.91 792.80
00003516 00000110 614.54 300.55 404.71 634.82 695.56 559.33 905.22 581.83 772.36 702.65 698.05 789.11 859.62 808.84
00003517 00000111 624.66 308.62 413.37 639.07 708.74 568.11 917.90 589.87 786.37 709.86 712.26 805.95 866.62 825.36
00003518 00000112 641.91 303.61 410.95 659.28 724.99 568.42 928.48 590.21 796.80 710.92 733.56 820.80 876.01 839.91
00003519 00000113 668.54 296.30 407.36 670.11 742.22 561.19 960.18 581.72 834.70 711.23 757.30 820.44 899.35 840.24
00003520 00000114 675.51 288.69 412.13 675.49 761.56 550.52 971.89 563.33 845.90 684.42 775.52 811.23 912.23 824.77
00003521 00000115 685.30 273.78 419.06 675.89 773.95 537.41 984.07 540.84 861.56 660.81 788.49 798.90 926.87 803.47
00003522 DELETE   692.40 252.40 417.73 675.90 783.72 523.76 994.84 522.54 873.76 643.02 807.65 785.45 944.30 784.65
00003523 DELETE   695.58 242.10 422.34 669.24 790.44 504.67 1004.84 500.29 890.77 623.58 822.15 764.29 966.34 759.83
00003524 DELETE   700.74 223.24 431.41 663.41 805.27 487.51 1010.50 476.10 915.59 602.67 847.07 740.37 996.46 730.55
00003525 00000119 701.52 219.97 438.72 648.97 818.52 484.30 1028.66 466.82 944.00 588.92 862.82 721.22 1027.29 705.52
00003526 00000120 695.38 219.30 439.81 639.83 816.63 478.34 1027.49 464.18 943.27 582.98 852.66 705.27 1027.07 692.42
00003527 00000121 687.12 220.75 427.18 640.43 797.83 478.27 1005.23 471.04 915.19 584.56 820.78 699.93 1002.08 693.09
00003528 00000122 673.25 218.93 419.07 633.85 765.15 475.81 978.77 472.12 867.55 591.74 781.22 697.18 964.52 693.94
00003529 00000123 648.56 226.18 422.95 627.33 741.58 477.26 949.17 480.01 832.36 595.40 752.87 693.01 937.14 695.06
00003530 00000124 637.90 222.50 428.85 634.25 734.59 476.46 941.46 481.99 822.24 597.81 742.68 692.17 929.04 695.57
00003531 00000125 647.13 221.91 423.57 632.35 742.26 481.24 953.27 490.13 832.38 600.75 747.28 693.99 936.92 700.45
00003532 DELETE   660.92 226.83 418.00 635.62 755.46 492.82 968.86 498.53 849.72 607.76 760.26 702.67 955.04 707.54
00003533 DELETE   676.86 228.54 413.75 643.48 770.81 501.07 992.24 507.40 871.81 615.62 773.07 711.98 969.47 716.72
00003534 00000128 671.33 232.63 417.51 643.54 765.68 501.72 988.17 514.81 863.13 625.60 764.96 713.21 960.51 723.69
00003535 00000129 645.19 241.36 427.42 641.89 736.05 498.40 951.70 513.57 819.41 630.34 739.58 719.88 929.35 732.38
00003536 00000130 630.34 231.68 428.54 660.61 718.20 487.03 931.74 504.28 799.47 616.19 718.91 718.58 902.26 731.88
00003537 00000131 621.73 226.13 422.17 665.27 709.60 483.18 923.47 499.10 795.08 614.44 706.48 715.25 892.34 727.41
00003538 00000132 617.79 224.64 418.21 658.40 708.79 488.73 924.11 499.17 803.32 618.49 711.39 716.38 898.65 724.21
00003539 00000133 614.56 230.70 421.74 651.22 707.10 495.89 923.04 504.58 803.90 625.03 711.88 719.73 899.24 726.54
00003540 00000134 610.14 229.63 421.11 653.45 701.25 494.90 915.43 504.83 791.62 625.88 703.23 717.71 889.03 726.15
00003541 00000135 603.10 219.59 420.57 661.90 691.92 484.97 907.31 496.18 779.69 615.37 693.56 709.38 880.28 718.58
00003542 00000136 593.78 229.11 421.96 646.21 686.36 482.26 893.65 493.36 774.88 607.78 696.88 703.97 880.57 712.70
00003543 00000137 591.69 222.66 423.29 643.44 690.11 478.57 896.82 488.86 782.64 601.69 699.52 696.10 883.15 703.55
00003544 00000138 588.68 221.38 421.70 628.86 685.54 474.49 889.13 483.81 776.07 592.57 697.26 686.03 877.42 692.29
00003545 00000139 575.12 201.45 430.20 642.06 667.72 463.48 869.59 473.83 744.34 578.09 675.32 674.96 851.98 681.54
00003546 00000140 568.62 191.65 423.28 635.75 650.14 451.57 853.92 462.20 719.36 566.01 652.31 661.74 832.68 668.06
00003547 00000141 569.43 178.22 418.25 638.68 645.42 433.97 855.95 458.10 713.05 559.45 638.83 648.90 818.79 668.53
00003548 00000142 572.35 175.00 422.95 634.03 664.77 423.08 870.11 450.78 738.23 551.65 658.77 639.64 838.28 661.84
00003549 00000143 582.94 174.57 419.85 631.07 682.29 419.93 879.18 449.43 754.52 549.26 676.05 634.88 849.27 658.90
00003550 00000144 583.73 181.00 416.81 625.96 678.38 418.19 875.77 448.97 747.13 547.82 669.22 632.43 844.20 657.65
00003551 00000145 576.35 182.46 422.03 622.31 663.31 423.51 863.52 457.40 723.87 551.46 650.89 634.33 825.89 661.88
00003552 00000146 577.18 183.27 421.18 622.31 662.88 423.93 861.63 465.16 714.91 557.12 644.84 638.03 811.87 671.47
CROP_BBOX: 275 0 1467 1080
