Video ID: 	luoyBt9pc0Q
H: 	2160
W: 	3840
FPS: 	25.0

FRAME INDEX X0 Y0 W H [Landmarks (5 Points)]

00000887 00000000 1650.29 292.15 555.64 723.75 1827.02 532.31 2071.53 545.86 1951.64 595.85 1846.62 779.67 2051.23 791.45
00000888 00000001 1664.02 297.32 550.21 714.29 1837.94 529.72 2081.20 543.41 1962.41 592.63 1860.39 774.23 2058.64 786.11
00000889 00000002 1678.78 290.68 548.83 715.86 1844.38 526.40 2097.21 538.90 1977.51 591.31 1860.66 773.09 2063.59 786.15
00000890 00000003 1684.90 294.28 546.82 730.05 1850.38 529.71 2101.20 543.63 1979.43 595.86 1864.97 779.59 2064.13 793.69
00000891 00000004 1684.40 306.78 545.91 719.45 1852.15 528.85 2100.45 548.49 1982.60 600.20 1862.50 781.60 2064.22 800.74
00000892 00000005 1686.00 299.83 544.49 726.69 1851.05 531.50 2101.53 545.84 1980.40 603.91 1860.82 788.02 2063.72 802.24
00000893 00000006 1683.06 301.37 544.83 728.32 1848.47 530.87 2100.41 545.19 1978.59 603.64 1861.13 788.94 2060.31 802.80
00000894 00000007 1677.57 311.81 546.51 716.97 1845.89 533.68 2097.75 547.37 1977.81 602.13 1860.66 786.12 2057.04 799.26
00000895 00000008 1671.35 307.44 551.58 721.06 1841.59 534.26 2093.13 548.08 1975.00 603.60 1858.50 785.77 2053.60 799.03
00000896 00000009 1667.35 308.21 550.66 724.62 1842.70 533.76 2089.76 549.09 1974.52 601.90 1856.33 783.33 2052.32 797.66
00000897 00000010 1668.86 308.12 547.26 712.66 1839.88 533.68 2090.32 547.58 1975.15 599.71 1853.80 784.62 2057.56 797.88
00000898 00000011 1668.58 302.53 546.74 717.14 1840.18 534.67 2090.20 551.02 1974.02 601.14 1850.32 784.23 2055.59 799.66
00000899 00000012 1662.48 311.65 550.79 713.38 1835.40 532.94 2087.11 550.67 1966.46 604.29 1855.59 785.55 2058.56 802.20
00000900 00000013 1663.19 317.56 549.91 707.79 1834.65 537.25 2085.92 552.43 1965.73 606.46 1852.18 786.97 2059.00 801.63
00000901 00000014 1657.74 317.94 553.35 711.67 1833.16 535.62 2086.77 555.18 1966.65 611.24 1851.29 789.34 2057.56 807.68
00000902 00000015 1660.02 320.06 550.46 713.20 1832.59 539.69 2087.81 554.70 1966.49 610.08 1851.21 789.38 2061.18 803.48
00000903 DELETE   1660.91 315.22 548.53 715.40 1832.07 543.81 2087.28 554.69 1966.75 610.72 1843.92 791.59 2066.09 802.13
00000904 DELETE   1652.70 315.47 553.82 723.67 1825.45 539.98 2083.12 556.32 1957.92 614.30 1832.49 788.45 2058.40 804.59
00000905 00000018 1647.90 306.03 553.51 740.07 1820.60 534.56 2078.88 556.73 1953.16 613.07 1828.12 793.46 2050.26 814.37
00000906 00000019 1640.67 293.24 560.66 751.85 1812.02 540.64 2070.51 557.46 1944.34 612.05 1809.19 804.14 2037.25 822.28
00000907 00000020 1633.94 303.35 562.17 749.57 1804.09 553.30 2062.01 568.94 1935.65 621.98 1799.25 813.34 2028.50 831.17
00000908 DELETE   1614.36 326.08 561.16 736.10 1785.45 561.49 2049.53 576.36 1930.23 629.78 1793.62 828.56 2021.66 844.73
00000909 DELETE   1610.89 347.59 545.77 711.33 1777.92 569.23 2031.29 579.09 1911.75 640.14 1789.70 825.86 1997.30 836.06
00000910 00000023 1596.42 355.13 545.08 703.10 1762.04 575.48 2017.54 587.15 1899.06 645.48 1771.73 825.83 1982.19 838.22
00000911 DELETE   1589.09 357.93 547.04 726.31 1757.72 588.52 1995.22 594.94 1880.03 647.39 1761.40 839.64 1969.97 848.29
00000912 DELETE   1581.18 359.40 546.55 733.49 1744.24 585.38 1987.50 589.73 1870.42 647.15 1752.81 852.18 1963.06 858.27
00000913 00000026 1568.94 349.81 546.48 723.61 1728.24 574.44 1980.50 577.30 1858.32 638.73 1736.52 845.58 1957.96 851.44
00000914 00000027 1563.42 345.82 544.32 724.88 1719.89 572.73 1972.38 573.15 1847.24 634.86 1733.18 843.56 1949.61 847.00
00000915 00000028 1561.85 341.63 541.61 724.19 1715.20 571.25 1966.20 567.01 1841.48 629.71 1734.04 842.99 1945.57 841.78
00000916 00000029 1561.07 340.14 538.50 724.43 1714.04 571.91 1964.81 565.57 1839.80 627.49 1733.43 843.42 1945.05 840.35
00000917 00000030 1562.53 341.25 537.71 728.14 1714.31 568.92 1963.30 562.77 1840.00 626.63 1733.72 846.08 1943.97 843.01
00000918 00000031 1563.86 347.13 539.65 718.08 1717.04 573.56 1964.49 565.79 1843.19 626.18 1737.40 842.85 1948.68 838.28
00000919 00000032 1564.91 347.99 540.72 716.03 1721.00 570.46 1970.27 568.08 1850.77 625.02 1743.01 841.88 1953.28 841.83
00000920 00000033 1568.61 349.14 537.65 718.43 1724.13 575.98 1972.93 573.99 1853.20 632.55 1744.49 845.64 1958.05 846.15
00000921 00000034 1572.22 359.45 536.71 711.02 1729.49 579.92 1974.41 573.24 1860.78 634.23 1752.02 848.02 1965.98 844.17
00000922 00000035 1577.02 356.51 535.29 712.65 1734.20 578.27 1979.48 573.82 1863.22 636.50 1757.33 847.93 1964.65 846.60
00000923 00000036 1583.86 351.19 531.95 717.41 1739.72 574.09 1983.96 573.34 1866.36 634.33 1760.12 845.39 1966.94 847.56
00000924 00000037 1582.46 349.01 538.60 733.32 1743.02 584.98 1985.62 580.35 1872.73 635.78 1760.96 850.63 1968.23 848.55
00000925 00000038 1581.28 348.19 541.44 728.37 1743.90 583.39 1988.59 579.36 1873.70 637.42 1761.42 847.39 1970.26 845.91
00000926 00000039 1590.12 344.75 534.76 723.98 1750.66 584.16 1988.00 580.12 1873.44 638.06 1765.08 845.42 1970.05 844.13
00000927 00000040 1591.19 355.61 534.41 708.56 1747.44 579.24 1993.35 578.59 1871.09 642.65 1764.03 841.98 1975.84 844.99
00000928 00000041 1589.32 362.24 539.27 725.91 1756.29 588.61 1992.87 582.10 1878.28 644.44 1764.72 848.42 1977.71 845.10
00000929 00000042 1592.85 358.90 539.01 735.45 1760.51 587.41 2000.85 583.45 1885.33 641.04 1767.37 850.00 1983.64 848.75
00000930 00000043 1594.87 363.39 537.41 724.81 1757.65 572.02 2006.81 574.84 1887.35 646.54 1771.34 846.95 1994.71 850.05
00000931 00000044 1599.95 349.43 539.08 729.03 1760.50 569.16 2012.40 573.14 1887.49 645.98 1770.77 847.38 1994.34 851.69
00000932 00000045 1604.88 344.32 532.04 713.47 1762.21 575.01 2012.76 572.94 1895.97 647.58 1774.21 839.62 1994.68 839.31
00000933 00000046 1607.32 356.99 538.27 708.48 1761.91 575.30 2017.07 578.60 1890.04 654.26 1770.82 841.13 1992.58 843.45
00000934 00000047 1607.72 354.71 535.89 719.22 1755.11 573.91 2009.31 577.78 1877.07 655.00 1766.11 847.89 1981.53 850.62
00000935 DELETE   1604.37 354.22 530.72 711.22 1733.63 582.23 1984.97 574.03 1858.80 648.07 1753.91 854.16 1969.08 849.23
00000936 00000049 1606.07 351.46 531.71 703.62 1728.67 585.70 1980.74 574.72 1848.01 646.33 1746.25 852.48 1968.66 846.08
00000937 00000050 1607.22 356.37 536.98 698.67 1724.40 598.64 1983.45 580.77 1836.97 645.41 1743.78 858.72 1976.76 844.17
00000938 00000051 1605.51 357.84 543.44 709.65 1725.66 590.86 1981.67 580.38 1835.34 646.95 1735.73 857.11 1972.12 847.18
00000939 00000052 1600.63 346.63 546.65 716.32 1717.08 592.80 1973.66 577.02 1829.94 651.92 1725.72 863.86 1962.58 854.00
00000940 00000053 1602.25 345.64 550.13 717.41 1716.94 587.94 1979.27 575.16 1826.53 648.02 1728.95 858.02 1964.23 851.07
00000941 00000054 1609.70 343.86 543.45 703.25 1720.48 585.30 1978.51 571.58 1824.89 644.69 1735.09 850.36 1967.27 842.77
00000942 00000055 1613.70 340.77 537.52 697.72 1720.91 587.70 1980.06 571.77 1822.57 640.58 1733.13 844.77 1967.19 835.43
00000943 00000056 1615.18 347.17 531.42 680.19 1724.54 584.65 1977.68 572.45 1825.53 642.14 1736.57 835.21 1961.15 829.77
00000944 00000057 1606.32 341.04 537.75 695.31 1722.63 585.06 1978.04 574.55 1829.70 644.33 1735.13 838.38 1957.56 834.43
00000945 00000058 1601.76 346.67 539.84 694.58 1723.12 586.03 1976.07 578.43 1831.69 650.75 1732.51 841.52 1954.43 839.58
00000946 00000059 1600.11 353.38 539.99 683.65 1719.80 592.13 1971.33 582.55 1827.37 654.45 1730.31 837.64 1951.07 834.08
00000947 00000060 1595.79 353.27 543.74 683.21 1716.31 598.62 1966.56 588.57 1819.91 661.06 1727.21 839.44 1944.68 835.75
00000948 00000061 1596.60 349.23 543.78 688.03 1716.88 599.97 1963.96 589.33 1818.25 662.78 1726.37 838.81 1939.49 834.97
00000949 00000062 1594.56 348.26 548.45 686.88 1717.23 601.56 1964.95 589.05 1820.22 662.55 1728.29 837.97 1941.37 832.60
00000950 00000063 1598.61 349.08 547.09 684.75 1720.09 599.77 1971.10 590.51 1822.65 665.12 1732.19 836.42 1947.03 833.45
00000951 00000064 1602.21 353.85 544.06 672.96 1721.19 601.85 1971.81 590.07 1825.72 663.89 1737.72 837.64 1951.51 832.85
00000952 00000065 1607.65 350.31 539.85 668.10 1724.34 599.34 1973.85 584.89 1828.26 659.05 1743.11 829.48 1953.92 822.99
00000953 00000066 1610.17 348.42 536.51 667.68 1724.73 597.22 1974.05 583.35 1828.13 655.81 1739.74 829.00 1953.51 823.13
00000954 00000067 1611.24 349.07 540.52 672.59 1725.54 597.25 1974.65 583.22 1828.01 657.83 1740.87 831.89 1954.23 825.68
00000955 00000068 1610.14 346.22 541.72 677.71 1726.85 595.83 1976.51 583.83 1830.84 658.33 1737.43 834.91 1960.20 830.38
00000956 00000069 1610.23 342.79 544.89 685.04 1725.79 593.17 1980.37 582.26 1833.28 659.92 1739.69 842.06 1962.44 838.61
00000957 00000070 1613.49 340.66 542.52 678.66 1728.17 590.60 1979.56 579.46 1831.46 655.04 1741.31 836.88 1961.69 833.62
00000958 00000071 1618.74 341.04 540.44 693.13 1733.12 592.50 1986.30 584.42 1833.96 655.38 1746.26 840.29 1968.59 838.29
00000959 00000072 1619.51 340.34 541.96 695.63 1734.72 590.88 1984.68 587.00 1834.33 655.95 1749.71 836.42 1962.52 837.84
00000960 00000073 1617.05 353.58 542.37 691.97 1740.80 585.76 1989.81 588.28 1843.96 648.17 1745.50 837.01 1968.14 839.80
00000961 00000074 1620.56 351.35 541.08 719.00 1739.28 585.21 1995.66 586.54 1843.92 653.71 1746.67 849.78 1973.42 851.60
00000962 00000075 1615.55 351.20 551.22 730.27 1737.74 587.39 2001.01 590.91 1845.06 655.83 1746.83 855.38 1977.92 859.41
00000963 00000076 1618.87 354.96 550.63 725.51 1743.42 592.42 2003.99 596.65 1848.93 660.69 1749.62 857.94 1983.78 862.43
00000964 00000077 1620.28 353.20 554.62 725.64 1748.21 593.91 2006.57 597.27 1853.60 667.82 1757.54 862.57 1990.49 865.64
00000965 00000078 1619.65 336.02 565.76 741.98 1747.04 599.39 2008.10 596.37 1854.21 673.31 1754.06 872.43 1991.26 870.85
00000966 00000079 1632.91 340.68 557.42 729.26 1757.25 605.99 2012.23 602.34 1859.72 677.78 1761.02 875.27 1994.42 872.99
00000967 00000080 1652.03 353.86 549.13 718.29 1766.57 617.71 2016.95 610.81 1863.10 682.00 1772.16 878.71 1995.09 873.55
00000968 00000081 1668.65 356.05 535.97 725.40 1772.88 624.83 2027.88 617.54 1866.42 682.85 1775.80 884.28 1996.11 879.44
00000969 00000082 1675.48 353.17 537.09 730.27 1776.71 629.11 2031.37 619.68 1864.33 689.91 1776.30 892.74 1996.41 886.16
00000970 00000083 1676.53 354.41 539.57 735.86 1778.38 627.63 2030.42 620.16 1865.76 697.85 1782.03 898.80 2000.41 894.41
00000971 00000084 1676.59 348.00 539.68 748.52 1779.80 628.11 2030.77 623.71 1864.37 702.16 1780.55 898.83 1995.90 897.81
00000972 00000085 1674.38 350.30 541.46 755.25 1776.80 627.70 2030.96 624.59 1864.19 702.51 1777.61 901.05 1995.07 901.31
00000973 00000086 1680.03 350.92 536.72 747.07 1779.36 630.34 2030.38 624.93 1863.20 701.80 1779.24 899.66 1996.97 897.63
00000974 00000087 1678.72 352.26 537.64 733.50 1779.19 631.94 2029.90 625.46 1867.07 703.46 1782.42 894.34 1997.37 891.11
00000975 00000088 1678.33 347.64 541.86 743.92 1783.74 630.00 2034.54 627.35 1871.43 703.16 1783.64 893.22 1999.37 893.39
00000976 00000089 1685.56 341.82 533.55 762.58 1786.78 629.59 2029.92 630.84 1868.31 699.01 1788.12 890.58 1993.09 894.60
00000977 00000090 1688.72 344.80 526.45 766.35 1783.61 633.60 2033.07 626.60 1872.56 702.38 1795.29 890.11 1994.94 887.74
00000978 00000091 1692.72 332.50 534.91 766.46 1795.81 631.53 2048.70 627.69 1888.44 700.23 1808.26 882.60 2011.28 883.03
00000979 DELETE   1695.55 335.06 541.43 754.27 1811.46 620.90 2062.01 622.29 1910.25 705.16 1818.93 870.34 2033.27 875.03
00000980 00000093 1689.87 336.06 547.52 750.91 1822.30 613.72 2080.83 625.01 1929.94 702.09 1824.15 869.90 2043.40 882.35
00000981 00000094 1695.48 335.60 542.04 750.84 1829.47 612.92 2083.25 623.48 1937.99 702.83 1834.80 873.56 2044.21 884.89
00000982 00000095 1700.43 338.58 539.47 750.52 1834.64 610.57 2088.46 625.58 1939.47 700.79 1838.73 875.28 2040.30 889.98
00000983 00000096 1700.22 346.22 539.42 747.65 1833.22 610.64 2087.17 626.20 1939.44 705.97 1832.65 881.36 2040.16 896.60
00000984 00000097 1698.02 356.48 541.24 750.59 1836.24 609.96 2092.58 631.16 1936.31 701.52 1822.68 885.09 2038.29 907.35
00000985 00000098 1696.53 355.16 542.54 754.39 1833.02 612.56 2091.25 630.49 1934.70 701.16 1820.52 889.11 2040.17 908.43
00000986 00000099 1694.71 348.98 547.16 768.89 1826.93 618.65 2088.83 631.44 1936.20 707.99 1822.06 901.99 2044.93 914.94
00000987 00000100 1692.37 347.00 548.43 759.36 1827.38 618.83 2088.58 632.03 1936.19 708.49 1822.30 896.54 2043.91 910.01
00000988 00000101 1698.56 346.24 541.41 746.29 1831.65 617.19 2088.86 629.57 1939.95 707.67 1829.78 890.95 2046.61 903.77
00000989 00000102 1701.55 346.55 539.40 742.51 1832.18 615.64 2086.38 626.51 1937.36 706.47 1831.10 887.08 2045.53 898.83
00000990 00000103 1694.09 340.88 544.68 753.13 1825.31 616.05 2083.66 625.83 1934.53 703.90 1826.21 887.37 2045.80 898.24
00000991 DELETE   1693.14 335.43 544.12 755.63 1809.81 620.63 2072.13 627.32 1911.10 700.64 1807.19 889.80 2031.53 898.92
00000992 DELETE   1689.84 341.61 539.52 752.05 1789.98 634.76 2042.93 625.88 1882.36 698.64 1793.13 896.92 2012.10 892.16
00000993 DELETE   1672.91 361.90 542.50 743.91 1766.31 631.61 2017.93 624.41 1859.61 703.61 1774.18 902.58 1980.07 899.97
00000994 00000107 1671.24 348.48 540.44 759.21 1758.58 621.77 1998.03 609.39 1836.08 699.79 1767.08 894.43 1959.82 890.68
00000995 00000108 1668.66 352.49 540.68 771.68 1748.43 622.26 1987.72 606.53 1823.53 701.57 1756.81 900.33 1945.64 893.63
00000996 00000109 1665.48 343.32 544.30 786.04 1746.62 624.00 1986.55 603.41 1820.79 703.01 1749.68 910.23 1953.92 898.67
00000997 00000110 1667.60 339.90 540.53 781.55 1746.96 624.11 1983.99 602.02 1820.66 703.03 1749.72 906.98 1951.98 894.37
00000998 00000111 1674.24 351.81 530.73 738.79 1752.55 632.61 1981.32 614.41 1820.47 711.81 1762.42 898.90 1952.24 889.63
00000999 00000112 1673.36 353.94 536.47 727.60 1745.59 634.46 1980.53 616.63 1822.14 714.96 1762.06 899.45 1944.51 888.94
00001000 00000113 1674.03 356.24 534.41 741.56 1755.56 627.10 1984.79 612.55 1823.44 714.72 1765.17 892.85 1941.97 887.27
00001001 00000114 1679.94 352.92 530.77 757.27 1758.84 629.57 1989.69 615.93 1825.64 718.62 1767.77 899.92 1947.57 894.84
00001002 00000115 1687.06 359.94 529.25 770.02 1760.02 636.22 1990.90 619.51 1821.07 723.09 1771.11 913.27 1960.10 905.35
00001003 00000116 1689.53 356.28 528.41 772.79 1763.05 637.65 1989.46 622.10 1820.39 724.06 1768.87 914.96 1959.16 908.01
00001004 00000117 1685.01 346.13 531.34 772.73 1762.51 634.99 1988.24 620.29 1827.04 723.87 1770.40 906.27 1949.51 900.20
00001005 00000118 1682.48 340.66 535.50 786.16 1761.40 633.78 1990.32 617.15 1830.87 717.15 1767.30 910.30 1950.37 902.60
00001006 00000119 1681.19 349.29 536.60 763.51 1761.52 632.40 1990.63 616.22 1832.09 716.84 1770.14 906.07 1954.33 898.85
00001007 00000120 1687.16 346.88 531.05 743.01 1764.83 632.48 1989.07 614.04 1835.68 716.12 1777.44 898.85 1958.76 890.19
00001008 00000121 1689.70 342.48 527.61 734.96 1764.17 629.16 1991.43 612.00 1832.69 711.71 1780.25 888.86 1962.05 881.67
00001009 00000122 1686.77 342.27 530.06 760.09 1759.27 627.58 1991.30 608.81 1828.67 711.45 1777.87 893.51 1964.22 884.66
00001010 00000123 1683.97 347.91 535.61 758.58 1757.25 630.51 1988.49 606.41 1826.08 713.13 1776.25 902.72 1972.17 889.65
00001011 00000124 1686.88 348.26 526.56 770.02 1757.43 638.34 1992.22 606.24 1823.28 713.31 1768.71 915.23 1986.46 893.63
00001012 00000125 1680.78 375.36 535.79 741.50 1755.09 650.37 1989.66 621.85 1814.75 723.90 1769.22 922.07 1983.70 904.81
00001013 00000126 1679.26 373.82 546.71 739.18 1759.31 660.38 2000.54 635.29 1819.60 728.89 1770.88 920.57 1987.13 907.33
00001014 00000127 1676.77 351.44 548.08 765.90 1750.65 661.79 2000.95 635.64 1827.14 729.84 1766.90 916.98 1981.63 898.79
00001015 00000128 1687.48 342.12 549.11 746.49 1769.40 652.93 2005.70 630.30 1834.53 714.15 1783.46 902.46 1980.77 886.97
00001016 00000129 1692.67 327.75 536.66 762.29 1770.31 632.05 2000.95 609.51 1839.62 710.23 1789.76 890.14 1979.21 878.89
00001017 00000130 1700.71 321.42 537.86 763.56 1775.52 634.87 2012.98 623.50 1848.42 707.98 1784.80 884.43 1973.20 879.91
00001018 00000131 1703.67 315.37 535.35 780.87 1782.59 631.55 2020.98 612.65 1849.13 699.65 1793.15 890.66 1995.67 878.47
00001019 00000132 1712.68 321.86 530.30 779.44 1791.87 625.70 2028.69 605.74 1854.59 703.55 1800.10 888.64 2020.60 874.75
00001020 00000133 1708.88 345.81 540.17 759.31 1787.84 611.84 2026.94 593.51 1852.93 699.43 1799.75 892.54 2018.46 882.64
00001021 00000134 1709.53 340.88 543.19 752.26 1791.77 608.81 2028.84 595.56 1853.31 701.36 1798.96 885.55 2018.43 880.03
00001022 00000135 1714.09 338.35 537.13 727.93 1794.37 609.50 2024.42 595.16 1858.54 702.51 1807.47 875.18 2012.63 869.07
00001023 00000136 1713.24 346.68 533.23 709.50 1793.59 612.28 2018.00 597.61 1858.69 706.58 1805.94 872.08 2009.31 865.22
00001024 00000137 1712.31 357.35 527.01 689.19 1790.96 621.37 2014.21 604.70 1861.12 717.71 1806.19 873.89 2005.36 864.43
00001025 00000138 1707.73 362.71 526.11 689.03 1787.92 622.64 2012.65 606.61 1856.02 721.14 1799.82 876.08 2009.22 866.93
00001026 00000139 1703.61 360.26 529.34 708.65 1780.86 621.62 2010.66 608.06 1848.78 722.46 1790.86 883.96 2004.27 876.00
00001027 00000140 1695.39 365.30 536.10 710.37 1771.40 629.72 2000.76 610.54 1841.17 722.54 1786.91 891.52 1995.34 879.30
00001028 00000141 1702.50 362.47 512.96 706.69 1768.91 624.83 1992.87 610.74 1829.88 717.08 1788.89 886.80 1988.65 879.15
00001029 00000142 1689.14 368.89 531.10 675.17 1764.98 628.76 1982.77 607.36 1831.44 724.09 1784.16 881.22 1980.80 868.21
00001030 00000143 1686.42 373.96 527.98 671.71 1764.60 627.84 1979.16 609.49 1829.19 727.46 1783.71 884.05 1967.84 873.42
00001031 00000144 1683.11 373.02 531.61 676.89 1765.22 627.00 1981.39 614.16 1830.29 730.15 1779.42 886.60 1961.32 880.62
00001032 00000145 1690.09 360.23 526.37 673.92 1775.42 615.12 1985.26 610.32 1835.51 717.55 1778.97 867.30 1952.44 868.01
00001033 00000146 1690.29 353.22 528.80 687.81 1775.33 614.04 1988.67 610.05 1835.61 715.24 1777.52 870.10 1944.95 871.57
00001034 00000147 1696.52 360.78 524.61 673.94 1780.76 612.63 1989.20 610.01 1839.31 714.71 1788.52 858.55 1944.39 861.73
00001035 00000148 1700.07 338.79 525.39 696.05 1782.36 609.85 1994.88 606.43 1841.75 713.34 1789.47 861.79 1955.21 863.88
00001036 00000149 1697.92 331.09 535.69 753.50 1776.58 623.06 2003.91 618.37 1838.69 717.56 1780.76 882.88 1966.22 883.19
00001037 00000150 1699.58 330.38 535.21 778.51 1778.31 634.53 2002.62 626.88 1837.24 725.03 1778.61 895.22 1968.22 893.29
00001038 00000151 1703.97 350.66 525.47 757.23 1785.19 634.98 2003.18 628.54 1838.33 727.68 1791.93 891.45 1977.18 890.88
00001039 00000152 1704.32 341.08 534.10 763.10 1792.24 638.33 2018.96 629.44 1853.70 726.28 1791.31 894.97 1993.63 891.23
00001040 00000153 1714.12 333.45 526.20 785.42 1795.41 632.66 2023.51 620.26 1852.87 722.68 1795.86 895.73 1997.82 891.61
00001041 00000154 1717.34 350.03 532.40 738.21 1794.36 639.91 2024.02 624.73 1858.10 725.37 1796.28 887.72 2008.49 879.29
00001042 00000155 1711.60 354.47 539.28 750.44 1792.49 642.79 2030.41 621.18 1861.51 716.87 1796.38 896.46 2013.79 882.09
00001043 00000156 1720.02 352.45 534.98 729.77 1789.94 638.53 2022.22 612.76 1853.70 708.31 1810.98 890.37 2006.60 872.22
00001044 00000157 1714.58 347.77 537.55 748.43 1791.94 630.33 2028.47 610.50 1861.19 712.53 1801.80 898.13 2005.39 888.80
00001045 00000158 1716.85 352.37 535.99 731.61 1797.33 627.77 2027.26 616.37 1861.18 727.89 1810.84 897.20 2002.90 894.03
00001046 00000159 1718.18 352.66 533.36 748.83 1798.82 636.28 2033.08 627.85 1858.97 738.78 1811.58 907.44 2012.96 906.32
00001047 00000160 1721.67 360.07 528.77 725.27 1800.64 634.70 2030.60 625.15 1860.32 742.22 1819.09 900.02 2016.69 897.25
00001048 00000161 1716.71 363.98 534.89 730.87 1798.88 636.68 2029.13 625.89 1858.75 742.70 1815.20 902.93 2023.62 899.06
00001049 00000162 1720.85 367.19 526.29 717.82 1802.34 632.80 2029.68 619.05 1862.90 737.56 1821.01 903.04 2024.91 896.90
