Video ID: 	pnkKGbDArcA
H: 	1080
W: 	1920
FPS: 	30.0

FRAME INDEX X0 Y0 W H [Landmarks (5 Points)]

00006464 00000000 876.75 161.22 466.81 641.47 989.04 418.06 1204.98 367.24 1124.76 510.14 1067.82 651.36 1243.99 609.83
00006465 00000001 877.93 157.86 463.86 637.47 987.90 415.66 1204.68 364.99 1122.81 506.38 1064.72 644.17 1245.03 602.71
00006466 00000002 878.35 156.14 460.41 631.70 986.10 413.30 1202.89 363.97 1119.07 500.86 1058.82 637.41 1242.69 596.87
00006467 00000003 879.03 156.13 457.02 627.38 984.00 409.68 1201.31 362.26 1115.77 501.00 1055.09 632.73 1238.60 593.47
00006468 00000004 879.28 156.53 456.66 622.83 983.76 408.65 1201.10 361.60 1114.98 499.46 1055.92 631.39 1236.91 592.18
00006469 00000005 880.54 153.57 456.19 625.45 982.98 403.37 1201.06 355.67 1115.09 495.91 1058.20 630.33 1238.58 590.20
00006470 00000006 879.01 151.61 458.06 624.39 983.51 397.88 1199.24 347.90 1113.51 481.82 1058.51 625.05 1239.21 582.68
00006471 00000007 879.01 147.35 458.52 624.43 982.33 394.58 1197.68 343.34 1110.21 471.99 1055.81 619.87 1238.24 575.99
00006472 DELETE   880.08 142.20 456.71 616.44 981.51 388.54 1197.54 334.12 1107.75 452.91 1053.69 610.27 1239.08 564.03
00006473 DELETE   875.00 124.05 456.05 599.20 973.38 372.98 1193.46 318.06 1097.13 427.25 1042.25 579.40 1233.17 534.02
00006474 00000010 874.97 117.70 453.15 595.92 973.46 366.71 1192.12 311.34 1098.47 419.27 1042.18 570.51 1230.58 525.47
00006475 00000011 875.15 113.55 453.10 594.53 973.78 364.53 1188.39 306.44 1096.48 411.22 1043.67 565.13 1229.52 517.49
00006476 00000012 872.75 116.66 456.69 599.68 973.16 364.48 1181.29 306.39 1093.03 412.06 1047.22 568.62 1224.70 520.90
00006477 00000013 871.64 116.31 456.36 604.35 970.61 366.39 1179.63 307.18 1091.14 413.15 1045.69 573.05 1224.37 524.68
00006478 00000014 871.98 118.21 452.95 600.81 968.73 369.30 1180.17 310.21 1089.72 417.35 1041.91 574.89 1223.43 526.44
00006479 00000015 871.06 118.03 452.09 594.76 968.02 368.61 1182.51 310.13 1090.47 417.54 1038.29 570.42 1225.06 522.48
00006480 00000016 870.22 116.35 453.55 592.62 966.60 368.46 1181.78 308.55 1088.49 415.16 1036.45 568.84 1224.24 519.73
00006481 00000017 867.34 112.30 455.30 589.97 963.70 368.84 1178.81 306.87 1084.26 411.43 1034.95 566.33 1222.14 515.06
00006482 00000018 862.76 113.32 460.16 591.58 961.50 368.88 1173.01 305.60 1079.96 407.04 1036.04 566.21 1218.66 513.71
00006483 00000019 859.98 114.80 460.40 592.77 960.21 370.38 1169.31 309.31 1076.75 407.12 1036.02 568.60 1213.01 518.05
00006484 00000020 852.47 116.98 462.18 603.89 953.62 374.18 1161.02 315.60 1069.12 417.41 1025.29 577.97 1199.67 529.91
00006485 00000021 847.05 125.07 465.10 612.50 949.01 385.86 1153.24 329.17 1060.15 431.67 1021.40 595.60 1186.41 548.79
00006486 00000022 846.16 128.97 464.85 616.63 943.19 391.76 1152.37 332.89 1055.55 443.94 1017.87 605.73 1185.90 557.45
00006487 00000023 842.03 147.92 461.41 609.19 933.53 397.63 1144.93 343.08 1041.87 457.88 1005.64 619.44 1174.21 573.05
00006488 00000024 835.99 160.47 458.65 604.10 917.95 409.44 1127.81 354.16 1023.45 479.82 985.96 626.65 1161.11 580.00
00006489 DELETE   833.71 164.53 458.31 601.73 912.04 412.90 1122.02 358.61 1014.70 487.04 977.52 627.89 1157.67 581.90
00006490 00000026 826.62 167.29 464.89 606.43 900.85 417.15 1113.96 361.50 1001.40 496.93 967.81 633.97 1152.54 586.11
00006491 00000027 821.74 170.17 466.79 612.52 898.15 419.37 1111.46 366.02 997.92 502.91 963.45 639.15 1146.31 593.82
00006492 00000028 821.11 171.04 467.02 613.75 898.32 421.54 1111.12 369.02 997.37 505.00 962.85 641.32 1145.12 596.83
00006493 00000029 821.04 173.74 468.30 614.56 900.39 425.48 1110.63 373.18 998.35 510.82 968.22 648.79 1141.11 605.39
00006494 00000030 822.78 174.76 469.82 620.33 903.70 428.43 1112.31 374.86 1001.63 515.83 974.29 655.83 1143.93 611.60
00006495 00000031 825.47 175.67 469.72 620.94 905.42 428.62 1114.19 375.53 1004.21 517.85 976.68 657.07 1146.02 613.08
00006496 00000032 831.72 175.26 470.93 627.08 914.45 428.75 1122.23 378.80 1015.73 520.71 986.81 659.46 1152.55 617.79
00006497 00000033 837.99 177.67 467.48 628.52 924.00 436.07 1139.57 384.33 1036.71 529.24 995.97 669.34 1168.89 625.25
00006498 00000034 841.78 178.30 465.95 629.21 928.67 438.66 1144.95 387.76 1041.73 532.29 998.80 671.79 1172.34 628.27
00006499 00000035 849.11 175.78 464.70 631.50 934.66 440.41 1151.04 390.06 1046.50 536.49 1001.03 666.75 1183.95 624.79
00006500 00000036 857.13 173.94 461.86 628.85 938.29 438.20 1156.24 389.91 1049.94 535.24 1001.00 660.67 1189.91 619.96
00006501 00000037 861.99 175.11 459.54 622.66 940.63 437.36 1159.60 389.17 1052.54 533.07 1001.99 657.13 1193.55 616.32
00006502 00000038 866.68 173.90 460.64 621.84 945.48 434.68 1164.87 385.32 1057.63 530.42 1005.69 650.87 1201.21 608.93
00006503 00000039 871.11 174.47 457.62 612.89 950.37 429.66 1170.19 380.89 1063.02 526.13 1009.61 642.89 1206.98 601.26
00006504 00000040 872.80 174.17 459.53 611.23 952.98 427.54 1173.42 378.60 1066.37 523.83 1011.99 640.16 1211.54 598.43
00006505 00000041 876.17 173.05 461.48 610.50 957.05 425.21 1176.80 374.27 1070.73 519.24 1017.05 637.20 1217.44 593.74
00006506 00000042 878.33 171.44 463.66 611.18 961.18 422.78 1179.07 372.21 1074.92 516.02 1018.56 631.72 1220.75 588.61
00006507 00000043 879.86 171.30 462.87 611.46 962.49 422.76 1180.57 372.28 1076.07 514.89 1018.70 630.49 1222.70 587.40
00006508 00000044 881.15 172.07 463.13 613.36 964.63 424.37 1182.16 374.28 1076.81 516.15 1019.79 631.09 1224.73 588.28
00006509 00000045 882.47 173.28 460.88 614.82 964.70 426.90 1183.63 376.75 1075.85 518.07 1019.29 634.67 1225.49 591.88
00006510 00000046 883.46 173.93 460.06 613.64 965.74 427.96 1183.43 377.52 1075.81 519.63 1019.84 634.29 1226.17 591.24
00006511 00000047 884.04 175.00 460.57 619.34 968.55 430.40 1183.28 379.53 1078.72 524.58 1022.95 637.33 1228.25 594.31
00006512 00000048 886.62 175.23 459.30 622.52 972.06 431.02 1185.89 380.69 1083.16 525.95 1026.31 639.22 1230.41 596.87
00006513 00000049 887.34 174.95 459.05 623.51 973.12 431.08 1186.91 381.97 1083.93 526.74 1027.02 639.71 1230.50 598.43
00006514 00000050 888.79 175.22 458.33 623.73 974.38 430.18 1188.82 382.43 1085.31 527.20 1027.81 639.63 1231.60 599.30
00006515 00000051 890.08 175.86 457.64 623.30 975.57 429.61 1190.19 382.87 1086.07 527.24 1028.39 639.58 1231.93 600.11
00006516 00000052 889.98 176.12 457.52 623.05 975.57 429.39 1190.50 383.07 1085.88 527.29 1028.00 639.48 1231.77 600.39
00006517 00000053 889.20 177.02 458.15 619.87 974.95 429.92 1190.77 383.21 1085.91 527.02 1027.73 639.14 1231.94 599.71
00006518 00000054 888.30 175.15 457.92 618.82 973.13 430.53 1188.97 382.91 1084.62 525.73 1026.52 638.44 1230.87 598.26
00006519 00000055 887.46 175.91 459.31 618.02 971.76 430.95 1187.25 382.38 1082.36 525.44 1025.52 638.68 1229.67 597.63
00006520 00000056 884.93 175.86 459.82 616.37 968.62 430.30 1184.64 381.00 1079.10 524.89 1023.28 638.28 1227.40 596.49
00006521 00000057 881.91 175.60 459.99 613.94 964.75 430.17 1180.92 380.00 1075.72 523.46 1020.39 637.79 1223.89 595.15
00006522 00000058 879.79 176.17 461.30 611.53 962.68 429.78 1178.79 378.77 1073.51 522.17 1019.42 637.42 1222.11 593.94
00006523 00000059 877.03 174.73 462.02 610.87 958.86 429.74 1174.23 376.71 1068.51 520.15 1017.42 636.47 1219.11 591.14
00006524 00000060 875.54 175.40 461.15 606.98 953.37 429.42 1170.83 374.44 1060.63 517.19 1013.06 636.76 1215.38 589.73
00006525 00000061 873.69 173.21 462.31 608.86 950.27 429.54 1168.12 373.37 1056.59 516.29 1011.05 638.30 1211.73 590.38
00006526 00000062 870.04 170.40 463.57 611.41 946.26 430.84 1161.59 373.61 1049.58 516.09 1007.56 639.03 1204.84 590.10
00006527 00000063 863.53 168.65 468.49 613.53 940.16 432.87 1156.67 375.25 1042.52 517.22 1001.66 640.98 1197.17 591.30
00006528 00000064 861.45 168.99 468.36 613.10 937.57 434.19 1154.49 375.82 1040.79 517.73 999.24 641.92 1194.25 591.70
00006529 00000065 856.42 165.92 471.43 613.97 932.82 438.15 1143.70 378.87 1036.70 517.40 996.18 640.98 1185.07 590.50
00006530 00000066 850.83 176.13 467.53 612.10 932.04 435.42 1137.85 377.92 1030.80 518.06 994.97 642.09 1176.80 591.97
00006531 00000067 848.83 176.06 467.45 612.38 930.39 435.67 1136.39 379.41 1029.83 520.18 993.22 642.85 1174.57 594.21
00006532 00000068 843.33 178.41 469.59 611.01 925.44 435.92 1131.51 380.42 1025.76 522.18 988.84 643.48 1170.32 595.92
00006533 00000069 839.60 178.97 470.30 610.98 920.82 437.30 1126.84 379.26 1020.82 522.95 985.80 644.89 1168.94 595.22
00006534 00000070 837.27 179.19 471.88 611.11 918.65 437.70 1124.82 378.82 1019.57 524.29 984.93 645.63 1168.46 595.29
00006535 00000071 834.02 178.14 472.58 614.10 914.78 437.98 1121.70 378.51 1015.58 524.75 981.36 647.50 1165.89 596.91
00006536 00000072 831.39 178.88 473.05 613.19 910.59 438.68 1117.98 377.70 1011.55 524.15 978.56 648.59 1163.79 596.92
00006537 00000073 829.97 179.35 473.83 612.50 908.66 438.93 1115.80 377.92 1009.05 524.60 977.69 649.22 1162.51 597.40
00006538 00000074 826.17 180.61 474.50 609.04 904.85 438.02 1111.50 377.86 1003.84 524.72 976.36 650.05 1158.48 598.87
00006539 00000075 825.11 182.56 472.38 607.99 902.15 438.49 1109.24 377.85 1000.86 525.00 973.69 652.01 1155.78 600.36
00006540 00000076 823.69 182.06 472.77 607.46 900.92 438.58 1108.52 377.63 999.85 524.64 972.70 652.19 1154.71 600.43
00006541 00000077 822.44 182.66 471.77 607.10 898.72 440.08 1106.87 379.55 998.08 527.29 970.29 653.84 1152.66 602.35
00006542 00000078 821.53 183.47 472.28 606.39 897.20 441.16 1105.21 379.96 996.53 527.62 968.88 654.11 1151.66 601.95
00006543 00000079 821.73 183.94 472.19 605.99 897.48 441.77 1105.16 380.41 996.84 528.32 969.08 654.25 1151.96 601.92
00006544 00000080 820.94 184.57 473.21 605.09 896.49 441.31 1104.26 379.55 996.15 527.97 968.62 653.76 1152.13 601.00
00006545 00000081 820.28 181.59 474.22 607.42 896.42 439.71 1104.37 377.12 996.08 525.32 968.76 652.28 1152.30 599.14
00006546 00000082 819.86 181.10 474.54 608.35 896.17 439.60 1104.28 377.23 995.89 525.27 968.54 652.26 1152.37 599.36
00006547 00000083 820.46 181.40 474.57 608.71 896.61 439.40 1104.43 377.05 995.88 525.08 968.90 652.26 1152.38 599.42
00006548 00000084 820.84 181.60 474.31 608.94 897.30 438.80 1104.72 377.49 996.27 525.76 969.39 652.48 1152.00 600.47
00006549 00000085 821.28 182.37 473.68 607.64 897.08 439.78 1104.61 378.20 995.80 526.11 969.10 653.25 1151.41 600.92
00006550 00000086 821.38 182.94 473.08 607.85 897.06 440.88 1104.62 378.98 995.64 526.27 968.66 654.05 1151.19 601.44
00006551 00000087 821.81 183.01 472.97 608.09 896.70 440.70 1104.59 379.18 995.15 526.27 967.35 653.77 1150.79 601.45
00006552 00000088 821.77 183.58 473.30 607.16 896.50 440.88 1104.52 379.39 994.75 525.86 966.78 653.40 1150.65 601.10
00006553 00000089 819.90 183.55 472.74 606.73 895.55 441.46 1103.22 379.57 994.55 526.27 965.50 652.61 1150.10 599.94
00006554 00000090 816.91 183.53 474.04 608.15 894.47 441.06 1100.36 379.29 993.84 526.55 964.59 652.01 1148.45 599.42
00006555 00000091 816.44 182.54 474.05 612.89 895.24 441.21 1099.09 379.07 993.85 526.13 965.21 652.78 1147.13 600.16
00006556 00000092 813.92 183.06 473.82 624.35 896.00 441.79 1096.09 377.72 993.64 524.51 968.38 657.11 1147.30 603.61
00006557 00000093 814.45 184.08 474.25 632.35 896.22 441.85 1097.14 377.08 994.72 526.14 968.64 659.80 1151.65 605.70
00006558 00000094 817.88 190.51 472.76 631.06 898.33 445.97 1102.59 379.73 1000.47 529.08 975.18 668.83 1156.45 611.04
00006559 00000095 816.96 184.82 474.19 630.66 897.58 440.93 1100.30 377.19 998.06 529.23 970.53 660.13 1154.27 606.45
00006560 00000096 822.72 190.56 473.35 630.22 900.08 446.45 1105.71 379.72 1000.29 531.78 977.69 670.26 1158.76 612.41
00006561 00000097 823.40 190.06 473.37 630.41 900.71 447.11 1105.98 380.29 1000.58 531.68 977.69 670.07 1159.30 612.20
00006562 00000098 824.21 190.31 473.63 632.48 900.90 447.03 1106.32 380.87 999.62 531.61 977.39 670.57 1159.30 613.18
00006563 00000099 822.88 191.87 473.58 634.79 898.79 446.70 1104.67 381.72 996.44 530.86 973.54 671.38 1156.51 614.71
00006564 00000100 822.77 192.96 472.17 636.55 898.04 446.61 1102.30 382.82 994.58 531.96 971.85 672.22 1154.19 616.51
00006565 00000101 821.81 195.20 470.10 637.92 894.54 445.47 1098.64 385.36 987.24 533.34 964.28 672.59 1148.08 620.12
00006566 00000102 819.37 196.23 468.14 638.74 889.39 446.88 1092.49 387.42 978.34 532.29 958.42 673.71 1140.95 621.55
00006567 00000103 819.18 196.08 466.79 642.87 887.85 445.84 1088.93 388.85 973.06 533.43 954.31 674.39 1134.95 624.15
00006568 00000104 817.21 196.84 467.55 644.56 883.55 444.59 1082.09 390.01 964.26 535.08 949.27 674.35 1125.35 626.14
00006569 00000105 819.05 184.47 473.64 651.42 885.04 439.54 1076.04 387.40 954.76 534.25 945.08 665.25 1115.24 620.93
00006570 00000106 818.53 185.62 474.17 651.34 883.32 438.65 1073.81 387.50 952.11 534.17 942.72 665.29 1112.05 621.91
00006571 00000107 818.55 185.59 475.00 649.79 878.51 438.09 1070.34 387.72 946.03 535.35 937.57 665.08 1108.22 622.29
00006572 00000108 819.69 186.04 472.87 646.81 877.89 438.61 1068.95 388.22 943.51 534.71 936.48 664.54 1105.85 621.81
00006573 00000109 819.92 186.29 472.97 644.61 877.52 439.33 1068.70 388.82 942.30 534.89 935.26 664.48 1104.55 621.66
00006574 00000110 820.33 185.78 472.99 637.09 876.62 439.54 1067.82 391.16 940.58 538.96 935.18 663.80 1100.26 623.07
00006575 00000111 816.70 184.43 476.06 633.36 873.29 439.74 1067.82 392.94 940.44 541.55 931.57 663.88 1096.97 624.78
00006576 00000112 816.18 183.85 476.34 633.36 872.24 439.71 1068.45 392.68 940.01 540.77 930.11 663.33 1097.91 623.96
00006577 00000113 816.55 184.63 475.84 637.35 873.20 440.19 1068.00 392.46 939.91 541.44 930.94 664.90 1098.89 624.79
00006578 00000114 818.44 185.15 473.96 645.69 875.05 439.43 1066.66 390.97 938.46 538.64 932.28 667.08 1099.47 626.15
00006579 00000115 819.02 185.70 473.81 649.06 875.69 439.83 1067.65 390.10 939.74 537.84 934.08 669.12 1102.08 627.03
00006580 00000116 820.39 190.43 472.72 645.03 877.90 445.43 1066.93 397.13 941.39 540.26 936.21 670.61 1101.26 629.59
00006581 00000117 817.07 191.30 475.26 640.08 877.56 448.87 1066.31 403.34 941.79 542.16 936.12 671.93 1095.48 633.43
00006582 00000118 819.48 190.84 471.97 637.36 877.17 447.57 1065.20 401.11 941.04 542.84 937.77 673.54 1091.48 634.54
00006583 00000119 817.55 190.31 472.59 631.24 876.28 445.93 1066.16 402.25 942.62 542.35 935.54 671.36 1083.19 635.47
00006584 00000120 817.34 187.17 473.11 629.16 874.31 443.46 1065.26 400.00 940.66 540.42 931.05 670.15 1078.20 634.89
00006585 00000121 817.38 186.92 473.86 626.99 874.35 442.97 1065.70 400.10 940.74 540.24 930.00 668.63 1077.35 633.90
00006586 00000122 816.56 185.38 472.01 624.47 873.57 442.53 1065.25 399.23 939.80 538.39 926.91 666.11 1075.80 631.16
00006587 00000123 816.00 186.02 472.24 622.68 873.68 443.18 1065.79 400.32 941.66 539.85 927.26 666.51 1076.35 631.94
00006588 00000124 815.90 186.64 472.56 622.73 874.36 443.67 1066.22 400.58 942.72 539.68 928.06 666.97 1077.22 632.14
00006589 00000125 817.44 187.57 472.06 624.48 876.41 445.48 1067.61 401.46 945.09 540.73 931.52 669.79 1078.63 634.11
00006590 00000126 819.71 187.98 471.81 626.43 877.90 445.07 1068.56 400.97 945.35 542.71 934.97 670.70 1082.47 634.65
00006591 00000127 819.13 188.63 471.63 626.99 878.28 445.73 1068.90 401.18 945.92 542.19 935.48 671.03 1082.81 634.62
00006592 00000128 819.13 187.52 472.74 625.55 877.83 445.76 1069.22 400.12 945.93 542.53 936.21 670.22 1085.74 632.81
00006593 00000129 818.17 186.74 473.84 623.84 876.69 444.81 1069.34 399.61 946.55 543.51 935.40 669.39 1086.26 632.41
00006594 00000130 818.13 185.41 472.86 624.05 876.67 444.43 1069.55 399.07 947.13 543.10 935.39 669.06 1086.20 632.02
00006595 00000131 814.56 189.02 470.09 623.50 874.29 440.39 1074.41 396.87 948.85 541.79 934.04 671.15 1093.82 635.29
00006596 00000132 816.01 186.12 476.10 624.92 874.13 445.10 1069.06 399.39 946.49 548.11 935.82 672.74 1088.09 635.20
00006597 00000133 815.56 185.94 476.50 623.25 872.09 445.01 1068.28 400.11 945.63 551.06 933.33 673.95 1087.41 637.25
00006598 00000134 815.28 185.22 478.16 624.21 871.26 446.33 1068.77 399.61 944.82 550.02 933.56 676.09 1089.11 637.87
00006599 00000135 812.92 187.77 474.42 634.11 872.57 441.39 1077.07 394.69 950.54 543.52 937.31 681.06 1097.63 642.64
00006600 00000136 813.12 188.46 475.50 636.49 875.83 442.07 1076.36 393.36 954.21 540.66 943.80 680.94 1098.07 641.16
00006601 00000137 819.54 186.14 478.46 634.47 880.85 447.68 1073.64 396.30 951.33 539.23 946.34 678.97 1094.44 636.31
00006602 00000138 815.50 188.87 475.74 629.96 878.82 443.23 1083.25 393.58 957.97 542.17 945.73 680.22 1108.68 639.12
00006603 00000139 816.53 188.45 475.53 627.79 878.59 443.68 1085.30 394.00 957.94 544.84 946.21 680.55 1112.80 639.13
00006604 00000140 817.97 191.44 474.18 619.82 882.10 444.27 1088.66 396.21 962.75 544.70 946.37 673.82 1117.50 633.57
00006605 00000141 820.61 194.52 473.09 617.13 889.17 445.90 1096.38 396.08 975.80 543.61 955.41 672.78 1125.24 631.26
00006606 00000142 821.92 196.17 473.49 615.96 892.66 445.24 1100.63 396.63 982.43 544.17 959.31 672.14 1129.09 631.53
00006607 00000143 833.14 197.83 468.48 615.91 898.85 450.49 1111.01 399.86 994.48 548.30 973.42 686.56 1139.06 644.18
00006608 00000144 838.72 195.07 467.60 620.61 913.04 449.34 1123.65 399.82 1011.51 548.93 986.86 685.31 1148.59 644.45
00006609 00000145 840.64 183.65 471.88 632.54 922.83 445.03 1135.33 396.85 1022.70 543.56 990.13 677.64 1152.99 637.96
00006610 00000146 846.47 178.08 464.55 625.49 930.56 438.17 1146.78 392.36 1038.90 539.31 997.95 668.67 1169.14 630.66
00006611 00000147 851.28 176.29 460.58 618.09 933.02 436.37 1149.49 390.21 1042.36 536.34 999.89 662.68 1174.73 624.14
00006612 00000148 851.91 176.97 460.55 620.07 934.10 436.47 1150.69 389.78 1044.24 536.20 1000.86 662.71 1177.37 623.80
00006613 DELETE   851.14 180.78 458.38 629.79 943.13 440.59 1149.38 396.60 1051.25 531.94 1005.48 663.75 1174.23 628.11
00006614 DELETE   851.46 179.82 457.62 628.02 941.39 443.37 1150.50 395.36 1052.03 531.42 1007.43 666.66 1179.87 627.35
00006615 00000151 851.18 178.58 457.81 625.14 938.77 441.82 1150.87 392.59 1049.15 531.98 1003.69 663.96 1181.44 623.14
00006616 00000152 850.96 180.78 454.99 613.90 940.83 439.90 1152.93 390.84 1053.93 532.59 1004.80 659.09 1183.74 616.26
00006617 00000153 848.79 179.56 459.66 614.84 944.37 432.16 1154.34 385.58 1059.20 528.23 1011.23 656.11 1180.03 615.26
00006618 00000154 848.67 178.64 461.90 618.98 946.30 430.55 1155.55 383.65 1061.84 525.79 1014.03 656.78 1179.45 615.68
00006619 00000155 849.50 171.82 459.14 631.95 945.05 429.46 1151.36 380.55 1060.26 516.67 1013.07 653.43 1184.35 613.54
00006620 00000156 849.40 170.09 459.18 637.48 944.98 428.27 1151.16 379.35 1059.91 513.68 1011.08 652.93 1185.22 613.10
00006621 00000157 848.19 169.80 460.31 635.58 942.70 428.57 1150.87 378.71 1057.59 513.01 1007.86 652.27 1185.55 611.23
00006622 00000158 845.69 177.18 463.86 621.00 940.57 429.44 1146.25 380.11 1050.33 514.02 1008.36 650.60 1179.25 607.34
00006623 00000159 843.64 177.19 463.25 611.96 937.69 431.28 1141.72 381.29 1045.63 515.08 1006.26 647.34 1175.72 603.93
00006624 00000160 843.87 177.05 461.70 610.00 937.94 431.66 1140.85 381.64 1044.83 514.44 1006.45 646.59 1174.51 603.27
00006625 00000161 844.05 177.78 459.17 605.90 937.81 432.87 1140.05 383.88 1044.54 515.99 1005.37 646.31 1171.91 604.04
00006626 00000162 845.56 178.50 456.97 603.78 938.99 433.44 1141.25 385.56 1044.88 517.06 1005.35 646.80 1170.31 605.59
00006627 00000163 846.33 178.69 456.03 602.16 938.96 432.91 1140.99 385.84 1044.15 516.99 1005.17 646.11 1169.33 605.63
00006628 00000164 849.83 177.56 455.06 601.37 941.48 430.23 1144.95 383.60 1046.61 512.99 1005.97 644.06 1171.18 603.89
00006629 00000165 852.63 176.38 455.70 602.55 945.70 427.99 1148.33 381.60 1050.38 508.62 1009.93 641.35 1174.83 601.32
00006630 00000166 854.14 174.85 454.44 601.77 946.58 426.68 1149.71 379.82 1051.45 504.78 1011.13 640.17 1175.58 599.83
