Video ID: 	v5ErHv7hOxE
H: 	1080
W: 	1920
FPS: 	29.97002997002997

FRAME INDEX X0 Y0 W H [Landmarks (5 Points)]

00001303 00000000 509.52 243.55 423.90 577.86 713.16 471.96 875.16 471.04 839.77 588.77 721.24 683.25 839.29 685.72
00001304 00000001 515.34 232.37 419.72 588.55 715.08 469.03 878.84 472.78 845.22 580.10 725.02 678.37 844.17 684.51
00001305 00000002 523.25 221.85 416.97 583.45 716.69 464.34 888.32 468.66 846.47 578.74 727.12 667.62 852.74 674.23
00001306 00000003 515.26 231.82 420.09 582.23 721.02 449.41 886.68 459.20 850.78 562.49 731.47 662.01 853.25 671.41
00001307 00000004 518.19 210.86 422.31 593.52 712.09 440.75 894.03 446.84 848.35 565.44 725.92 658.26 858.97 665.98
00001308 00000005 514.51 226.62 424.42 580.60 717.13 431.55 888.05 443.11 849.98 548.14 729.81 649.59 858.99 659.41
00001309 00000006 513.37 226.60 424.99 582.63 716.74 427.01 886.23 441.39 850.10 542.67 728.89 645.71 859.19 657.58
00001310 00000007 513.34 225.13 423.76 583.09 717.09 424.91 884.87 439.65 848.26 541.30 729.13 644.59 857.17 656.55
00001311 00000008 512.59 231.11 422.51 576.15 715.16 423.62 885.02 437.92 848.91 542.07 728.76 644.92 858.30 656.48
00001312 00000009 510.38 234.47 424.19 571.06 713.87 423.19 885.59 436.97 848.23 543.75 727.32 645.30 858.11 656.42
00001313 00000010 508.02 233.16 423.85 570.17 711.09 422.81 883.18 437.48 844.28 543.62 722.63 644.54 853.87 656.41
00001314 00000011 507.33 234.82 421.06 565.98 710.79 421.79 882.47 437.48 841.10 545.47 718.84 643.54 849.58 656.09
00001315 00000012 507.72 242.64 416.47 560.13 702.93 423.14 877.24 437.83 832.69 551.48 703.45 645.07 846.04 658.04
00001316 00000013 496.50 252.49 423.04 553.99 684.95 424.83 865.21 445.62 809.97 554.83 683.82 644.84 829.43 662.68
00001317 DELETE   482.82 245.28 432.96 570.90 668.95 426.91 849.41 449.39 790.37 551.37 663.27 648.18 809.00 667.76
00001318 DELETE   474.82 247.16 440.39 566.46 654.67 420.87 840.35 452.39 764.66 554.27 638.49 643.62 786.37 670.61
00001319 DELETE   468.62 235.89 433.80 577.25 637.93 419.34 823.04 456.69 736.85 552.99 615.22 640.62 758.05 671.41
00001320 00000017 467.41 239.01 431.90 571.17 621.57 415.52 812.75 454.66 713.63 549.95 599.25 636.68 745.24 668.81
00001321 00000018 464.98 236.69 429.17 570.79 612.22 413.23 807.76 451.23 703.83 548.20 594.00 635.88 739.81 666.61
00001322 00000019 464.71 236.17 430.67 573.00 613.18 413.10 810.13 451.06 706.47 549.15 594.92 637.40 742.83 668.17
00001323 00000020 468.19 233.77 432.30 579.43 621.67 414.76 818.47 451.52 719.87 551.39 602.86 641.56 754.51 671.69
00001324 00000021 472.88 231.69 431.90 578.09 638.80 419.80 828.88 451.23 744.09 553.47 624.74 640.58 771.68 666.61
00001325 DELETE   475.49 242.61 434.37 564.65 647.80 418.85 842.78 445.22 764.31 554.97 640.84 641.96 793.35 664.07
00001326 00000023 479.02 235.33 438.05 582.58 659.38 424.79 848.72 446.55 780.49 556.85 653.33 646.36 809.00 664.22
00001327 DELETE   487.84 236.86 428.72 583.05 668.93 432.48 857.85 452.56 799.58 559.38 668.57 653.20 824.33 670.13
00001328 00000025 494.78 248.15 422.06 565.69 680.58 435.63 865.58 454.90 810.07 564.49 682.70 657.09 829.35 673.65
00001329 00000026 501.02 250.11 420.33 562.41 690.69 439.99 874.40 456.35 820.81 571.51 693.81 661.01 837.65 674.98
00001330 00000027 501.96 249.86 418.29 563.22 694.54 443.02 876.05 456.69 827.12 573.50 698.47 664.53 839.14 676.53
00001331 00000028 499.79 247.72 417.44 565.70 688.05 444.74 872.13 457.43 821.93 573.85 696.45 666.83 836.82 677.75
00001332 00000029 494.78 251.46 421.24 564.48 678.56 448.40 863.37 460.13 813.22 574.38 687.67 667.50 829.15 678.08
00001333 00000030 485.93 267.85 428.02 551.18 667.89 441.60 851.78 455.55 797.27 577.91 673.67 667.83 815.21 678.67
00001334 00000031 477.96 266.46 433.27 556.80 659.52 439.13 842.58 454.22 786.26 577.20 666.60 668.13 805.29 679.48
00001335 00000032 474.07 254.02 434.17 570.97 653.70 437.14 838.65 453.99 778.99 577.02 664.06 669.19 799.65 682.00
00001336 00000033 471.42 253.47 431.70 569.84 649.55 433.54 838.14 450.63 776.07 575.90 660.97 669.36 796.67 682.19
00001337 00000034 472.25 251.29 429.02 570.28 648.67 431.89 836.46 448.64 774.94 572.95 660.22 666.13 796.91 678.74
00001338 00000035 476.09 241.82 424.47 578.51 647.61 433.52 836.94 442.40 778.42 562.64 663.90 666.88 805.47 673.84
00001339 00000036 478.52 240.86 420.25 573.72 647.41 429.67 836.90 438.48 779.29 556.96 663.63 661.73 806.77 668.91
00001340 00000037 474.44 234.76 422.53 577.43 644.87 425.46 829.91 431.24 775.93 546.75 664.49 655.47 805.19 659.60
00001341 00000038 472.24 231.22 423.51 579.44 642.75 418.67 828.20 425.45 776.20 537.02 663.01 650.70 802.98 655.38
00001342 00000039 473.28 224.59 424.01 584.43 637.58 413.02 827.58 420.20 771.47 531.55 659.90 645.95 804.50 650.56
00001343 00000040 474.51 225.63 422.19 579.22 633.93 409.39 821.76 414.86 763.60 525.23 659.25 640.70 802.46 643.67
00001344 00000041 476.27 219.56 418.95 581.50 632.94 402.62 821.03 410.64 761.72 516.71 658.35 633.19 803.02 637.98
00001345 00000042 477.30 219.57 416.55 575.67 631.51 398.13 819.35 405.09 760.64 509.66 656.42 627.05 803.33 630.88
00001346 00000043 474.78 217.12 414.35 569.24 630.86 392.09 819.36 399.69 762.68 503.84 655.52 622.77 801.83 626.95
00001347 00000044 473.11 204.29 416.15 580.09 628.48 387.51 817.57 393.09 759.31 495.94 654.66 617.75 801.96 620.37
00001348 00000045 471.64 198.40 414.55 578.74 629.57 382.86 816.35 390.71 758.15 489.06 653.10 609.99 800.71 614.59
00001349 00000046 469.72 192.45 417.11 577.02 630.65 381.86 817.87 391.34 757.12 485.74 649.64 603.00 799.17 609.06
00001350 00000047 468.26 167.24 416.32 595.74 623.63 380.18 810.99 391.40 754.03 475.94 640.78 594.34 800.72 603.85
00001351 00000048 467.45 162.41 419.56 596.68 619.99 375.69 810.55 386.53 748.61 467.73 639.13 589.19 799.54 597.85
00001352 00000049 467.17 171.12 421.68 581.68 614.68 367.12 809.47 379.12 742.40 459.98 637.85 583.69 797.64 593.03
00001353 00000050 467.65 174.06 419.39 573.05 615.04 362.24 808.14 373.90 743.32 455.17 640.37 579.04 796.40 588.01
00001354 00000051 467.03 170.16 417.71 573.01 613.37 358.33 804.93 366.26 741.32 449.89 643.79 577.81 794.42 583.42
00001355 00000052 467.14 166.84 416.64 574.80 610.86 355.46 800.90 361.40 737.25 442.83 642.91 575.18 792.79 578.94
00001356 00000053 465.36 166.00 416.55 575.16 608.10 352.95 798.61 358.00 735.03 440.15 640.95 573.62 792.05 576.59
00001357 00000054 463.36 169.92 416.86 569.98 605.26 352.36 795.41 356.51 732.24 439.49 638.43 572.46 789.55 574.86
00001358 00000055 460.28 175.10 418.89 565.00 602.17 353.28 790.87 356.94 729.68 440.26 636.47 572.11 787.89 574.18
00001359 00000056 459.27 174.35 418.14 565.98 600.13 353.53 789.93 356.95 727.93 440.64 632.28 571.10 787.89 572.92
00001360 00000057 457.57 182.61 416.81 557.53 596.78 351.74 786.22 353.80 725.77 441.51 630.89 571.08 786.93 572.00
00001361 00000058 455.21 184.14 417.83 554.91 593.68 352.86 783.68 353.78 723.67 441.16 628.31 571.24 786.35 571.36
00001362 00000059 453.01 186.41 418.22 551.84 591.57 352.96 781.75 354.25 721.49 440.57 626.63 570.76 786.08 571.33
00001363 00000060 451.61 185.68 417.10 551.67 588.92 353.13 779.86 353.31 720.70 440.93 625.25 571.13 787.09 570.82
00001364 00000061 450.73 182.49 416.43 553.71 586.37 357.17 780.44 355.27 718.42 445.80 620.95 572.44 786.78 570.26
00001365 00000062 450.18 177.89 414.83 559.48 584.58 364.56 779.92 360.01 717.96 451.24 621.82 578.00 789.14 573.72
00001366 00000063 446.29 180.42 417.58 560.29 582.62 371.53 783.95 363.49 721.23 459.52 622.90 587.52 792.02 580.73
00001367 00000064 447.56 188.49 416.64 559.61 583.38 376.79 783.80 367.19 720.02 466.94 624.52 593.76 793.25 586.19
00001368 00000065 445.59 195.76 418.67 564.85 581.11 379.33 780.63 369.41 720.73 474.64 625.24 601.26 794.51 593.54
00001369 00000066 443.26 202.68 419.04 574.83 580.20 383.92 774.45 371.56 722.57 483.69 627.61 613.06 794.00 603.28
00001370 00000067 440.46 217.04 415.37 572.52 581.21 398.81 770.83 377.07 727.53 489.40 621.08 620.59 788.89 600.78
00001371 00000068 440.27 215.12 415.41 578.08 579.63 402.23 768.85 378.07 726.95 490.33 623.27 625.95 787.91 604.02
00001372 00000069 437.01 213.48 417.24 576.88 579.33 401.90 764.96 377.86 726.15 486.09 625.92 626.51 782.21 604.40
00001373 00000070 435.59 217.18 413.50 562.54 574.95 396.08 757.52 373.90 718.77 481.14 625.40 620.05 773.03 599.17
00001374 00000071 431.59 209.10 414.44 563.92 569.43 390.70 751.33 366.25 711.28 474.17 621.65 613.45 767.09 590.62
00001375 00000072 423.51 186.56 421.41 575.39 567.14 389.71 747.16 360.41 705.53 468.69 617.41 604.17 764.48 577.13
00001376 00000073 423.60 163.24 423.47 581.67 558.89 377.28 750.91 346.35 704.56 453.78 616.27 597.23 772.39 569.33
00001377 00000074 424.71 160.74 421.07 569.97 557.19 376.24 747.62 345.58 698.47 450.62 617.09 591.64 769.92 563.51
00001378 00000075 424.49 165.45 421.05 563.50 557.19 375.55 747.68 345.47 698.23 450.85 615.53 590.17 769.76 562.67
00001379 00000076 422.96 165.85 423.74 568.44 555.09 376.76 745.41 345.41 695.44 452.20 613.92 592.29 768.11 563.86
00001380 00000077 424.59 173.08 422.24 565.87 555.07 379.60 747.03 348.04 697.25 456.02 613.37 595.59 770.72 567.37
00001381 00000078 424.48 194.87 416.44 541.83 559.93 385.19 740.63 352.94 696.56 460.78 612.71 597.06 763.67 567.82
00001382 00000079 426.21 205.62 411.23 529.09 560.63 387.75 740.86 355.92 696.29 469.84 612.51 599.48 761.93 570.77
00001383 00000080 426.36 190.59 410.85 548.26 560.37 396.19 743.61 366.47 695.30 476.66 608.13 602.85 762.54 575.76
00001384 00000081 423.93 176.78 413.15 568.58 555.53 402.23 748.76 370.28 695.18 476.36 607.78 607.33 771.65 579.60
00001385 00000082 419.19 174.58 415.41 569.89 554.19 407.85 745.01 378.23 690.99 483.73 607.64 610.26 768.05 584.42
00001386 00000083 413.29 177.47 416.01 571.22 550.45 413.68 740.82 383.69 690.07 490.26 606.25 615.66 766.50 589.47
00001387 00000084 411.01 176.69 416.62 577.74 544.61 416.48 738.12 383.93 687.72 496.01 601.77 623.14 762.39 595.21
00001388 00000085 405.97 196.10 421.52 560.56 541.13 421.08 732.29 383.00 682.54 502.66 605.28 632.96 760.10 597.40
00001389 00000086 399.47 215.01 427.55 555.53 535.18 426.21 727.19 386.26 675.48 510.79 599.10 639.59 756.23 603.15
00001390 00000087 397.81 214.76 425.88 565.70 529.96 428.89 723.19 385.77 670.86 515.34 594.16 645.34 752.46 606.61
00001391 00000088 397.61 214.77 424.11 570.87 528.49 430.10 719.33 388.03 666.96 517.76 592.49 646.15 748.39 608.66
00001392 00000089 396.77 217.63 421.45 568.47 525.06 428.28 716.88 386.47 663.93 517.93 591.99 647.07 744.55 609.76
00001393 00000090 394.88 221.74 421.90 565.12 521.85 427.60 714.34 385.30 660.89 516.41 593.83 649.18 742.80 611.10
00001394 00000091 392.30 222.95 425.50 568.34 517.89 425.49 712.14 382.45 658.53 514.87 592.68 650.07 741.89 611.23
00001395 00000092 393.80 227.02 422.17 560.80 517.12 421.77 711.57 379.23 659.73 512.56 594.63 648.63 741.93 609.90
00001396 00000093 390.87 219.94 423.15 566.20 515.55 419.73 710.73 376.12 659.84 507.57 594.30 647.32 741.53 607.85
00001397 00000094 389.63 218.73 423.65 565.47 514.65 416.75 710.94 371.99 662.05 503.84 594.53 646.27 743.34 605.63
00001398 00000095 389.97 221.89 424.20 562.23 515.07 414.54 708.89 369.47 663.77 500.28 595.14 642.79 745.62 601.52
00001399 00000096 390.59 202.83 426.16 578.05 516.67 412.74 709.14 365.88 664.63 494.08 595.25 638.02 745.63 595.66
00001400 00000097 391.30 196.58 425.48 581.72 516.44 411.17 708.30 363.46 664.58 491.30 595.14 636.13 746.04 592.86
00001401 00000098 391.88 198.00 423.64 577.15 515.16 409.60 707.46 360.74 661.96 490.66 594.82 634.62 744.33 590.59
00001402 00000099 391.82 196.22 424.07 577.09 516.38 410.19 707.90 360.86 661.79 490.12 595.50 634.06 743.88 589.56
00001403 00000100 393.46 195.22 422.99 575.36 516.91 410.41 708.85 360.20 662.84 490.22 596.18 635.33 744.34 590.07
00001404 00000101 394.59 193.01 423.56 577.49 518.49 411.15 708.71 359.54 663.64 489.87 598.21 635.89 745.33 589.51
00001405 00000102 394.72 191.14 424.03 578.22 519.49 411.42 709.61 359.80 664.63 489.39 599.14 635.67 745.78 589.28
00001406 00000103 394.94 189.91 424.17 579.98 520.75 412.42 711.07 360.79 666.80 488.87 600.16 636.69 747.76 590.23
00001407 00000104 395.39 195.88 424.76 578.87 521.57 412.65 711.80 360.25 668.18 489.04 600.65 637.57 749.80 590.40
00001408 00000105 397.02 198.62 423.75 585.24 522.56 414.40 710.90 363.50 668.97 489.66 599.37 638.86 751.68 593.09
00001409 00000106 395.31 209.50 424.25 587.29 521.36 416.67 709.63 369.45 667.26 494.68 597.04 642.38 748.32 600.28
00001410 00000107 396.52 225.11 422.33 577.42 521.55 420.13 712.09 380.94 664.44 509.35 590.48 646.47 747.50 611.11
00001411 00000108 396.65 223.22 417.87 576.03 521.11 426.47 715.88 389.12 662.75 522.23 583.90 648.91 744.64 615.37
00001412 00000109 391.71 226.85 418.18 564.41 519.28 431.27 715.27 394.87 660.39 529.09 577.82 648.31 740.48 616.30
00001413 00000110 389.21 224.49 417.25 559.51 515.73 434.92 714.63 395.00 656.89 530.24 576.59 650.44 737.75 615.71
00001414 00000111 390.03 233.81 416.37 547.66 512.56 436.56 713.42 394.42 654.49 530.55 575.50 651.07 739.78 614.48
00001415 00000112 390.05 231.03 417.37 549.65 514.48 436.98 713.82 394.28 656.26 530.01 577.54 649.62 741.73 612.64
00001416 00000113 391.25 220.51 418.07 566.70 520.18 437.89 713.07 397.03 659.01 530.21 579.79 649.05 739.62 613.46
00001417 00000114 392.14 214.67 419.20 579.85 524.66 442.35 712.89 402.32 662.23 531.52 583.17 652.86 738.98 618.22
00001418 00000115 393.03 224.14 421.82 574.13 525.11 443.56 718.69 403.79 664.69 535.67 583.24 654.96 745.03 620.29
00001419 00000116 393.88 231.73 423.40 568.77 524.45 444.47 718.93 404.19 665.22 537.36 585.05 658.04 746.44 622.74
00001420 00000117 395.77 241.62 419.77 557.74 522.27 446.01 717.66 404.62 662.61 541.02 583.31 660.00 744.78 624.21
00001421 00000118 389.27 238.30 422.48 556.47 516.94 451.06 715.71 407.05 659.20 544.50 580.58 661.82 745.85 624.07
00001422 00000119 385.84 234.98 421.89 564.14 510.98 453.69 708.87 408.91 652.96 545.95 574.38 663.20 742.70 624.76
00001423 00000120 382.44 232.83 418.63 568.80 504.80 452.92 701.13 409.40 646.09 544.13 571.11 664.86 736.24 627.88
00001424 00000121 377.07 230.82 422.58 574.89 498.65 452.92 693.44 407.56 636.85 540.10 567.05 664.16 731.46 625.65
00001425 00000122 369.65 243.26 423.33 563.65 487.78 450.31 686.74 402.20 629.26 536.00 560.91 662.84 730.62 621.79
00001426 00000123 356.55 242.94 429.97 559.14 481.72 454.53 675.32 395.69 630.04 543.58 548.70 662.29 717.42 611.06
00001427 00000124 349.44 235.44 432.63 560.41 473.20 451.63 665.60 388.93 620.91 539.48 544.21 659.57 710.96 605.12
00001428 00000125 343.47 228.80 434.07 565.48 465.45 448.23 656.76 385.66 611.36 532.21 539.02 657.35 704.71 602.57
00001429 00000126 341.83 222.42 428.73 568.51 463.32 442.89 651.24 384.53 602.75 527.46 536.56 655.70 695.78 604.22
00001430 00000127 334.86 203.73 434.16 584.62 461.07 441.08 650.09 384.64 599.12 525.81 533.33 653.76 693.89 603.42
00001431 00000128 333.23 204.88 434.31 581.36 459.24 440.06 649.40 383.05 597.32 525.68 532.15 653.28 691.91 602.40
00001432 00000129 332.77 206.36 435.49 580.87 458.78 439.21 649.48 382.78 597.03 526.40 532.31 653.97 691.31 603.53
00001433 00000130 332.48 207.19 436.23 578.76 461.05 439.45 651.51 384.56 599.12 526.70 532.58 652.06 692.82 603.06
00001434 00000131 335.03 214.16 436.32 572.80 463.81 439.09 656.40 385.34 604.58 526.96 533.66 651.80 697.01 603.83
00001435 00000132 337.81 217.28 435.11 566.87 465.14 439.85 660.15 384.77 609.39 529.01 537.41 652.30 702.86 603.24
00001436 00000133 340.03 212.39 435.24 572.44 468.05 442.62 664.93 385.25 615.02 531.37 538.59 651.60 708.85 600.65
00001437 00000134 342.98 221.37 436.10 566.65 471.24 444.96 666.64 386.16 618.87 534.99 542.89 653.15 711.33 601.54
00001438 00000135 348.01 232.54 434.00 554.03 475.36 450.11 669.50 390.15 622.13 539.30 547.28 656.04 713.47 603.96
00001439 00000136 353.92 242.20 431.49 549.33 484.44 451.24 676.96 393.10 633.21 539.22 555.12 656.03 718.91 605.61
00001440 00000137 359.71 223.54 427.65 576.92 494.98 454.90 683.72 400.90 645.00 533.84 558.34 656.88 722.52 610.10
00001441 00000138 367.25 206.71 435.12 595.62 507.52 461.52 690.37 412.47 649.10 528.85 566.50 652.01 736.68 610.85
00001442 DELETE   374.47 204.64 432.86 586.74 517.90 464.01 700.19 409.55 663.05 526.86 581.89 653.12 745.27 607.16
00001443 00000140 383.07 192.80 427.69 590.77 522.93 464.01 706.84 403.21 669.87 525.24 590.26 651.90 754.80 600.01
00001444 00000141 388.70 189.26 424.84 592.55 529.27 461.38 710.48 399.77 676.61 523.24 600.34 654.48 755.96 601.41
00001445 00000142 396.85 187.24 420.31 594.86 533.02 458.12 711.29 397.33 678.16 522.72 605.36 656.01 757.03 603.35
00001446 00000143 396.86 179.46 422.55 600.57 534.39 457.30 714.53 395.40 682.11 524.51 606.62 656.02 759.83 602.26
00001447 00000144 398.90 176.80 422.67 602.36 539.44 452.65 719.02 393.67 688.01 522.79 611.11 654.18 761.81 602.41
00001448 00000145 399.71 179.62 422.16 602.35 542.74 452.67 720.94 396.90 691.15 524.50 613.73 655.19 762.53 606.00
00001449 00000146 401.55 177.52 422.18 615.05 545.00 453.11 723.08 398.11 693.35 524.52 615.40 658.46 764.00 609.78
00001450 00000147 403.04 187.32 421.88 611.17 547.40 451.22 726.21 399.29 695.56 524.89 615.87 658.38 765.14 612.23
00001451 00000148 404.60 188.30 421.81 603.17 548.30 455.20 728.98 400.90 697.01 525.61 617.72 659.34 766.41 611.12
00001452 00000149 405.53 184.91 422.00 600.17 550.82 454.83 732.03 399.87 699.87 527.64 618.07 656.71 767.76 608.07
00001453 00000150 404.08 186.41 423.34 596.28 550.34 455.10 733.44 398.65 700.52 525.34 617.74 654.69 768.89 604.57
00001454 00000151 403.81 185.87 422.26 596.54 548.77 456.48 730.84 400.24 699.10 526.53 615.90 655.52 766.72 605.90
00001455 00000152 403.19 181.35 422.04 602.76 547.45 458.08 726.90 400.82 696.59 526.60 616.68 658.04 764.80 607.63
00001456 00000153 404.82 184.02 419.28 597.54 546.65 458.37 726.11 400.96 694.63 527.57 615.99 657.37 764.40 607.00
00001457 00000154 404.66 182.67 418.50 597.92 546.61 458.05 725.48 401.11 694.96 527.06 615.26 656.28 763.62 606.37
00001458 00000155 403.18 186.52 419.41 593.44 545.86 457.35 724.68 400.70 694.72 526.92 613.99 655.72 763.45 606.03
00001459 00000156 401.52 186.10 421.09 591.08 545.41 455.20 725.13 397.08 695.25 523.89 614.84 654.74 763.67 603.94
00001460 00000157 400.49 179.95 422.12 595.55 546.45 452.07 726.19 395.36 695.77 522.60 614.40 652.16 762.87 602.59
00001461 00000158 401.53 179.46 421.58 592.29 547.08 450.08 727.50 395.17 696.13 521.91 615.31 650.75 764.12 602.61
00001462 00000159 402.84 182.58 419.45 588.31 548.15 447.39 728.54 394.88 697.36 520.11 615.38 648.28 764.27 602.10
00001463 00000160 401.32 183.37 422.71 593.38 548.67 446.77 728.41 394.96 697.79 520.19 615.92 648.16 765.68 602.39
00001464 00000161 402.69 186.70 423.12 598.06 546.82 450.14 726.63 397.53 695.42 522.96 613.34 652.22 765.36 605.79
00001465 00000162 400.02 181.88 425.00 612.61 545.85 451.33 725.62 398.46 695.01 522.33 611.22 653.34 765.96 606.54
00001466 00000163 401.48 189.13 425.85 611.87 547.13 451.79 728.17 398.97 696.40 523.50 610.04 653.42 769.09 606.74
00001467 00000164 402.22 187.06 427.07 614.73 548.10 453.15 728.94 399.81 697.13 523.13 610.80 654.13 770.54 607.06
00001468 00000165 402.59 188.86 427.76 612.74 549.29 454.57 730.83 401.42 699.20 526.24 610.71 654.24 771.18 607.39
00001469 00000166 404.62 186.52 427.25 613.97 550.70 456.15 732.95 400.12 701.96 527.07 613.55 656.18 774.29 606.94
00001470 00000167 406.73 186.53 427.34 610.56 552.46 456.57 737.55 397.84 705.76 527.29 616.14 656.66 778.60 605.09
00001471 00000168 407.98 186.98 428.11 606.14 554.78 456.37 742.48 395.03 710.44 527.18 618.14 655.92 782.45 602.01
00001472 00000169 408.82 188.05 428.85 600.97 555.46 454.13 745.25 393.12 712.24 525.32 620.76 654.67 785.94 600.67
00001473 00000170 408.94 189.27 430.92 597.08 555.03 449.74 746.20 389.39 711.75 523.02 621.23 652.62 787.38 599.07
