Video ID: 	DiaMVeM1BHk
H: 	1080
W: 	1920
FPS: 	25.0

FRAME INDEX X0 Y0 W H [Landmarks (5 Points)]

00015188 00000000 700.58 172.60 494.97 596.64 848.25 367.44 1081.29 348.97 992.48 487.49 905.25 615.60 1079.91 597.40
00015189 00000001 699.02 175.19 496.43 609.52 843.83 372.06 1076.04 357.55 982.45 496.57 898.87 625.72 1067.81 611.98
00015190 00000002 699.32 179.65 493.89 606.14 845.38 377.76 1077.16 366.73 981.32 506.34 898.16 631.72 1062.23 621.95
00015191 00000003 699.69 197.08 498.55 590.51 842.11 380.74 1080.25 373.58 978.34 518.52 894.26 636.62 1062.11 630.71
00015192 00000004 702.05 195.18 497.52 597.19 845.22 390.48 1080.09 379.93 979.92 529.02 895.27 642.77 1062.81 634.50
00015193 00000005 702.40 196.45 498.50 604.51 847.09 404.83 1075.90 389.15 982.01 537.61 902.81 650.94 1066.98 638.99
00015194 00000006 706.14 222.60 490.94 591.25 849.51 409.86 1079.40 394.39 984.78 547.00 908.08 663.80 1067.48 647.41
00015195 00000007 702.71 211.09 500.45 602.07 847.22 433.65 1070.37 405.16 985.22 562.05 913.57 673.02 1075.12 650.13
00015196 00000008 706.59 208.97 497.04 607.49 848.61 442.27 1070.47 407.89 989.10 566.16 918.04 677.31 1083.09 649.33
00015197 00000009 715.40 223.25 486.54 599.03 848.31 433.13 1079.70 403.62 990.52 561.89 921.31 682.82 1088.81 654.40
00015198 00000010 714.86 227.65 488.03 595.33 848.02 432.73 1080.83 403.12 991.01 562.64 922.23 683.94 1089.48 655.48
00015199 00000011 715.37 223.21 487.24 602.61 847.77 432.95 1080.10 404.54 989.63 563.73 919.95 683.85 1087.84 656.22
00015200 00000012 714.39 223.89 486.94 600.07 846.54 430.87 1079.22 404.36 987.15 561.70 916.80 682.23 1084.83 656.33
00015201 00000013 708.32 211.95 495.90 607.88 846.29 439.61 1068.77 407.76 983.95 565.28 912.57 679.07 1078.25 653.13
00015202 00000014 707.41 205.04 496.57 611.32 846.27 438.16 1069.13 404.90 984.86 562.32 912.69 676.14 1080.24 649.12
00015203 00000015 708.01 199.61 497.01 614.12 847.65 434.54 1071.31 401.23 986.72 560.19 913.04 671.55 1082.98 644.57
00015204 00000016 715.08 231.96 492.17 585.59 855.38 432.63 1082.75 399.75 994.35 564.23 914.53 676.15 1084.14 645.91
00015205 DELETE   716.41 215.10 489.98 612.51 863.21 436.11 1088.11 410.99 1005.37 552.90 921.88 673.38 1096.03 649.01
00015206 00000018 720.08 218.25 493.39 607.52 876.58 443.03 1099.56 418.27 1019.23 555.87 931.18 673.33 1104.98 649.51
00015207 00000019 723.52 216.00 495.32 607.71 884.84 439.26 1107.66 413.48 1031.52 555.12 939.90 673.85 1112.78 649.18
00015208 00000020 731.65 212.75 492.91 608.27 894.53 432.91 1116.59 407.29 1042.62 554.58 948.57 673.41 1118.31 649.25
00015209 00000021 736.28 215.17 492.68 604.04 900.60 427.55 1124.30 401.61 1052.02 549.77 955.39 672.09 1123.06 647.71
00015210 00000022 740.03 197.26 494.33 621.85 907.15 419.79 1130.25 395.92 1060.67 540.35 959.03 666.57 1128.06 643.57
00015211 00000023 739.98 189.71 494.08 620.61 912.76 414.71 1131.80 389.20 1067.15 532.75 964.61 660.82 1131.47 636.15
00015212 00000024 738.39 185.67 496.90 616.12 914.12 407.96 1132.38 382.35 1068.62 526.89 969.91 656.97 1131.29 631.64
00015213 00000025 736.60 190.09 494.71 603.96 914.71 402.44 1131.44 375.80 1071.57 521.57 971.68 651.10 1132.26 624.92
00015214 00000026 735.55 185.53 491.16 602.89 915.65 397.69 1129.70 369.29 1073.88 515.32 975.47 647.26 1132.26 619.36
00015215 00000027 734.09 178.09 492.09 605.39 916.86 393.00 1131.30 364.82 1075.68 512.69 977.57 642.90 1132.94 615.23
00015216 00000028 731.26 170.86 491.69 609.97 919.16 390.99 1130.89 363.65 1078.62 507.68 977.82 635.54 1134.16 608.89
00015217 00000029 729.26 166.34 493.08 625.12 920.63 389.98 1129.23 362.37 1080.20 502.05 976.34 634.46 1135.13 607.67
00015218 00000030 729.12 169.68 494.90 625.81 920.78 389.62 1130.72 360.47 1082.56 500.06 972.86 635.35 1136.23 607.87
00015219 00000031 728.69 162.50 491.86 618.93 921.53 389.84 1131.15 362.04 1083.21 499.19 976.81 631.80 1136.71 605.08
00015220 00000032 729.47 154.08 488.80 618.51 912.52 384.84 1130.25 354.60 1079.65 493.74 984.22 628.16 1144.16 600.43
00015221 00000033 727.37 152.15 488.13 617.50 910.46 383.73 1128.29 353.95 1077.89 492.07 984.45 627.51 1141.90 599.79
00015222 00000034 724.03 152.63 489.75 618.07 908.31 383.94 1125.73 353.31 1076.38 491.16 983.07 627.16 1140.94 598.86
00015223 00000035 721.84 155.16 489.85 615.88 905.54 381.19 1124.08 351.51 1073.28 490.24 979.25 624.32 1138.68 596.83
00015224 00000036 717.50 152.76 491.31 618.21 904.12 378.43 1120.32 349.30 1071.61 487.04 976.15 620.77 1135.56 593.74
00015225 00000037 723.15 160.87 484.23 605.84 911.98 379.48 1119.94 350.87 1073.73 484.94 975.79 625.14 1128.65 597.03
00015226 00000038 723.89 163.24 485.10 601.67 915.49 374.78 1119.66 347.05 1075.92 479.47 979.19 621.37 1129.04 593.98
00015227 00000039 726.13 164.21 488.16 597.64 919.27 366.19 1122.96 339.71 1079.59 470.65 979.55 613.73 1132.87 587.48
00015228 00000040 723.94 150.08 489.77 605.68 919.22 356.65 1128.41 330.95 1087.77 456.42 989.16 603.61 1145.68 578.75
00015229 00000041 728.01 136.85 488.24 610.55 926.28 347.56 1131.32 324.04 1093.76 446.46 997.49 596.45 1149.45 573.46
00015230 00000042 732.49 134.86 485.98 605.43 926.76 343.02 1132.11 320.32 1090.43 440.49 996.08 589.93 1148.14 567.29
00015231 00000043 730.62 133.23 486.99 605.49 926.58 341.43 1130.34 319.06 1089.12 438.01 995.72 587.82 1146.86 565.36
00015232 00000044 729.54 130.04 487.07 606.95 926.36 339.83 1129.78 317.35 1089.27 437.20 995.73 586.72 1146.44 564.16
00015233 00000045 729.50 128.63 486.83 603.60 928.02 336.35 1131.06 315.91 1089.16 436.18 994.46 583.58 1143.88 562.61
00015234 00000046 731.06 130.43 485.10 598.42 928.24 331.36 1132.54 311.84 1090.48 433.61 994.60 580.61 1143.12 560.22
00015235 00000047 731.39 126.68 485.11 598.27 928.12 328.76 1133.21 309.68 1091.07 429.92 995.61 577.85 1144.44 557.44
00015236 00000048 731.51 126.70 484.11 596.27 927.57 325.54 1131.40 305.11 1091.54 423.92 996.94 573.24 1146.23 551.42
00015237 00000049 731.54 120.80 485.27 599.47 926.25 322.58 1131.37 301.18 1091.03 420.56 996.93 569.14 1148.23 546.41
00015238 00000050 733.35 117.10 485.47 599.49 928.40 321.35 1132.77 299.99 1092.61 417.99 999.47 566.80 1150.34 543.96
00015239 00000051 736.54 117.91 488.23 598.84 931.73 323.14 1136.25 300.40 1096.49 422.69 1001.46 568.61 1153.79 544.83
00015240 00000052 739.73 138.66 487.68 577.03 938.27 325.90 1142.18 302.71 1106.65 428.42 1004.93 569.61 1159.46 545.86
00015241 00000053 739.60 131.09 498.47 592.77 937.05 327.22 1145.72 309.25 1109.09 426.46 1008.39 568.04 1163.86 553.63
00015242 00000054 747.71 118.40 493.88 607.90 949.35 332.90 1152.19 315.50 1116.37 435.85 1014.51 572.89 1165.47 559.27
00015243 00000055 755.60 118.89 493.81 613.68 966.28 336.15 1164.93 320.91 1131.26 441.85 1026.10 578.87 1171.48 567.21
00015244 00000056 772.99 134.69 482.95 601.81 986.17 337.39 1182.28 327.41 1147.09 444.95 1046.77 581.60 1191.06 569.57
00015245 00000057 781.17 119.63 480.60 614.02 996.37 338.03 1191.20 325.63 1158.71 442.02 1058.36 582.81 1202.48 568.40
00015246 00000058 791.57 111.54 477.27 616.69 1000.12 339.86 1196.79 321.21 1164.68 437.12 1066.86 578.64 1214.37 558.30
00015247 00000059 794.98 116.38 477.36 609.91 1003.80 337.30 1197.37 316.11 1169.18 434.76 1073.69 577.57 1217.32 555.22
00015248 00000060 798.49 113.59 476.28 618.85 1006.56 336.58 1198.05 313.08 1172.88 431.65 1078.41 580.11 1222.93 556.11
00015249 00000061 798.06 109.04 476.92 625.13 1007.70 336.71 1198.47 313.41 1174.18 430.81 1080.14 580.79 1224.87 556.97
00015250 00000062 796.59 110.60 475.56 620.33 1007.22 336.18 1198.58 313.94 1174.07 431.29 1080.33 580.80 1223.36 557.62
00015251 00000063 795.17 111.53 473.65 616.38 1006.75 336.81 1197.88 316.10 1173.51 432.53 1080.30 580.82 1221.23 558.74
00015252 00000064 794.72 97.76 476.08 622.80 1001.62 340.49 1196.86 316.14 1173.10 433.22 1072.71 575.94 1219.35 555.07
00015253 00000065 794.04 99.32 476.17 617.20 1000.97 339.48 1197.10 315.28 1172.98 432.86 1072.17 573.39 1218.73 552.54
00015254 00000066 794.50 97.54 476.55 617.58 1001.38 337.69 1198.43 310.72 1175.24 431.71 1073.17 572.30 1219.66 549.00
00015255 00000067 796.16 94.45 474.73 619.61 1005.26 337.48 1199.56 311.10 1178.08 430.58 1076.92 571.07 1221.04 547.97
00015256 00000068 796.04 94.02 474.15 620.01 1007.52 338.10 1200.53 313.33 1180.64 430.42 1077.70 571.03 1221.13 549.35
00015257 00000069 796.38 112.94 469.55 602.37 1011.67 335.14 1203.00 318.30 1180.62 435.29 1084.04 578.30 1221.24 559.09
00015258 00000070 796.39 111.67 469.20 608.42 1013.63 337.84 1202.56 320.45 1182.52 436.73 1085.49 581.29 1221.62 561.72
00015259 00000071 797.82 115.68 467.77 609.65 1015.87 341.01 1204.16 322.50 1185.07 440.45 1088.15 586.30 1223.52 566.30
00015260 00000072 802.09 121.05 463.63 606.84 1020.28 342.32 1207.05 323.31 1190.78 442.60 1091.20 588.74 1225.36 568.68
00015261 00000073 804.96 124.18 460.66 604.72 1023.84 344.22 1209.12 322.96 1196.48 444.15 1094.14 591.06 1227.08 569.40
00015262 00000074 804.85 128.52 462.00 606.48 1023.05 346.71 1211.05 324.77 1196.66 448.97 1092.78 596.08 1228.00 574.13
00015263 00000075 803.76 133.46 463.05 603.83 1022.04 350.69 1211.16 330.59 1195.88 451.81 1091.75 597.86 1228.59 577.66
00015264 00000076 802.22 135.27 462.65 604.06 1022.03 353.26 1211.15 333.49 1196.09 454.72 1090.25 599.69 1227.60 579.76
00015265 00000077 801.63 137.71 462.59 601.22 1021.26 355.37 1209.95 336.06 1194.44 456.68 1089.67 600.42 1225.98 580.98
00015266 00000078 804.52 137.80 460.50 600.29 1022.85 355.33 1211.49 335.38 1195.30 457.61 1091.13 600.12 1227.06 580.05
00015267 00000079 804.88 137.86 461.85 598.96 1025.14 354.04 1213.62 335.28 1197.60 455.89 1093.45 598.48 1228.51 579.21
00015268 00000080 807.27 138.14 462.56 598.30 1027.94 351.88 1215.15 331.09 1202.89 453.46 1096.97 597.80 1231.54 576.99
00015269 00000081 809.02 137.96 463.43 597.42 1031.30 347.35 1217.49 330.47 1206.09 447.91 1100.60 594.42 1234.85 576.57
00015270 00000082 810.42 117.65 459.73 613.27 1031.56 347.26 1215.06 328.82 1202.46 443.93 1100.22 590.66 1231.15 571.78
00015271 00000083 805.43 119.22 464.35 608.09 1027.36 345.30 1211.51 330.25 1195.21 439.52 1094.44 586.71 1227.58 570.18
00015272 DELETE   797.72 126.63 467.34 599.76 1018.16 336.63 1207.10 328.90 1183.23 438.46 1084.16 583.09 1218.71 572.22
00015273 00000085 794.99 128.34 466.77 594.97 1015.00 328.64 1205.62 324.77 1178.88 437.14 1078.45 578.04 1213.11 570.33
00015274 00000086 792.28 132.47 468.32 588.59 1011.83 323.01 1205.69 320.80 1176.70 435.88 1074.17 574.91 1211.07 568.54
00015275 00000087 788.65 131.52 470.99 586.71 1011.40 317.80 1204.53 318.23 1176.41 433.64 1073.39 571.52 1208.43 567.30
00015276 00000088 786.57 122.81 471.20 593.28 1011.29 315.89 1203.68 317.22 1176.05 430.84 1072.72 568.28 1207.29 564.61
00015277 00000089 784.72 119.63 471.81 595.01 1008.53 314.79 1202.08 317.36 1171.66 428.70 1068.70 566.70 1203.30 564.15
00015278 00000090 779.37 124.12 476.55 586.75 1003.07 320.52 1198.37 323.99 1163.37 429.10 1057.83 562.38 1195.65 560.73
00015279 00000091 774.69 120.12 481.48 588.45 994.95 320.52 1198.24 326.62 1155.79 428.89 1048.24 561.95 1191.85 562.67
00015280 DELETE   761.96 120.77 494.85 587.18 972.86 321.86 1185.03 328.11 1132.58 424.45 1019.00 551.27 1176.28 556.91
00015281 DELETE   753.99 119.72 501.99 591.07 957.36 313.74 1173.90 323.58 1113.21 416.71 1000.97 546.93 1164.23 555.24
00015282 00000094 748.21 119.86 505.71 588.84 947.13 309.16 1166.53 320.21 1099.17 412.51 990.51 544.00 1154.97 552.65
00015283 00000095 745.97 116.52 504.62 592.23 936.92 304.82 1157.05 317.38 1082.30 408.55 977.37 541.32 1143.69 550.69
00015284 00000096 742.93 114.96 505.85 605.29 926.30 305.25 1148.01 317.41 1066.72 414.70 966.68 550.32 1126.95 559.51
00015285 DELETE   745.33 142.65 504.93 584.95 925.63 316.30 1152.35 322.82 1068.81 437.82 964.41 572.70 1120.56 574.98
00015286 DELETE   746.36 158.44 501.90 588.21 920.53 334.86 1148.34 340.77 1059.69 464.16 957.14 588.18 1114.25 590.30
00015287 00000099 747.65 169.28 497.33 585.17 912.43 348.22 1145.04 354.13 1053.12 479.43 950.64 602.37 1111.71 605.27
00015288 00000100 743.71 185.38 508.23 578.39 914.38 353.55 1145.83 365.27 1052.61 493.20 944.88 615.74 1099.51 622.63
00015289 00000101 742.08 189.91 508.03 577.24 911.03 357.58 1143.05 369.33 1048.94 498.45 941.03 616.46 1098.69 623.55
00015290 00000102 737.54 200.56 509.07 575.83 908.99 360.91 1139.46 370.73 1045.81 502.49 938.19 619.38 1098.30 625.14
00015291 00000103 735.23 204.16 506.65 574.32 901.88 365.34 1134.56 374.96 1036.67 504.40 933.16 623.79 1092.16 629.36
00015292 00000104 732.52 207.44 504.27 569.73 893.23 367.17 1129.69 376.71 1027.25 507.68 926.06 627.17 1086.55 632.85
00015293 00000105 728.87 203.02 505.50 568.19 888.15 368.88 1126.61 379.34 1021.69 508.69 920.93 624.22 1084.66 630.81
00015294 00000106 730.66 192.34 495.93 584.72 880.91 372.99 1113.63 376.36 1014.34 502.90 917.63 621.61 1088.29 623.99
00015295 00000107 728.94 185.79 495.74 595.68 885.15 378.46 1113.10 383.38 1014.54 502.83 915.41 623.35 1086.25 627.46
00015296 DELETE   723.29 186.06 497.52 586.47 884.17 381.68 1111.02 388.40 1013.38 501.93 914.75 616.21 1084.61 621.88
00015297 DELETE   717.64 190.83 497.29 568.52 880.94 378.82 1109.52 387.77 1011.24 496.47 910.99 608.69 1083.06 615.90
00015298 DELETE   714.48 188.50 495.28 562.58 881.85 376.64 1108.68 384.63 1013.85 491.18 911.16 601.82 1084.16 608.05
00015299 00000111 715.40 187.17 493.52 560.79 887.42 374.71 1111.60 380.09 1023.35 487.34 920.34 599.31 1090.38 603.17
00015300 DELETE   713.17 182.71 497.65 563.54 894.41 370.46 1117.52 371.96 1037.48 484.13 930.86 595.84 1101.39 595.85
00015301 DELETE   714.81 177.19 498.87 566.78 906.03 361.19 1129.64 360.00 1057.47 477.90 941.22 590.95 1114.21 588.46
00015302 DELETE   713.18 162.78 498.95 582.34 917.74 354.82 1133.84 356.86 1071.16 470.75 953.77 587.64 1118.80 586.76
00015303 00000115 714.68 155.60 497.68 585.81 925.83 348.05 1135.25 349.63 1081.54 461.27 968.10 583.95 1123.99 582.03
00015304 00000116 721.54 144.10 488.29 594.05 931.97 347.51 1137.37 342.59 1091.65 453.88 981.55 585.34 1134.12 577.79
00015305 00000117 727.34 133.69 483.65 600.63 938.34 346.00 1141.78 335.52 1100.44 451.89 994.86 589.56 1141.75 577.15
00015306 00000118 731.77 125.45 478.53 604.44 941.78 344.25 1142.85 332.75 1104.11 448.10 1000.85 588.65 1145.78 575.15
00015307 00000119 732.22 121.00 479.04 605.00 942.98 344.07 1143.26 328.05 1110.39 442.72 1006.89 585.24 1154.08 567.38
00015308 00000120 734.30 126.76 475.83 599.43 943.95 343.19 1141.06 325.47 1111.50 439.72 1009.47 583.15 1154.82 564.14
00015309 00000121 735.15 123.12 473.54 611.54 946.96 345.56 1139.77 326.28 1115.50 440.34 1014.02 587.53 1157.54 567.82
00015310 00000122 735.85 125.26 473.09 614.38 948.56 345.75 1139.87 326.51 1117.42 441.43 1016.34 590.61 1159.09 570.95
00015311 00000123 735.33 125.36 473.18 616.47 951.44 347.32 1141.79 326.42 1123.62 444.49 1018.95 593.72 1159.97 572.78
00015312 00000124 736.58 130.63 472.11 610.03 955.08 351.69 1145.43 329.71 1129.95 446.68 1021.89 595.71 1162.36 573.86
00015313 00000125 741.08 133.79 469.14 600.92 957.99 355.57 1146.66 333.89 1130.53 447.42 1025.45 594.51 1162.86 572.76
00015314 00000126 742.32 136.37 469.97 595.82 958.51 358.52 1150.39 335.08 1133.67 449.56 1026.78 595.25 1165.73 572.19
00015315 00000127 742.22 121.47 476.73 616.30 955.30 365.56 1146.48 340.50 1127.98 456.96 1032.79 599.22 1167.51 580.12
00015316 00000128 748.64 144.93 466.17 596.79 966.58 365.97 1156.81 343.38 1141.85 463.31 1027.43 602.77 1167.99 581.46
00015317 00000129 747.02 134.40 475.51 618.46 964.38 372.41 1153.94 349.57 1137.76 468.68 1039.31 609.26 1171.64 592.39
00015318 00000130 750.39 141.08 475.71 615.60 976.19 373.15 1158.91 362.92 1134.67 474.12 1037.61 604.93 1168.60 594.51
00015319 00000131 755.18 131.52 476.11 632.72 973.32 377.31 1166.38 359.89 1143.77 473.91 1049.04 619.56 1179.26 606.57
00015320 00000132 758.73 130.90 475.25 636.93 978.00 380.19 1170.24 361.75 1150.06 479.91 1051.78 623.16 1182.98 609.15
00015321 00000133 761.20 136.98 476.13 627.92 988.38 384.19 1171.03 373.05 1148.14 487.50 1047.43 616.14 1178.07 605.07
00015322 00000134 765.37 139.35 474.51 626.58 993.37 389.04 1175.90 375.42 1154.70 491.09 1048.24 619.46 1179.52 606.93
00015323 00000135 768.20 144.76 475.62 622.27 999.56 394.56 1184.34 382.83 1162.75 495.48 1047.82 620.05 1181.93 609.60
00015324 00000136 769.76 159.78 479.01 616.45 1003.49 399.83 1187.59 389.43 1164.18 502.10 1044.62 624.20 1176.56 616.07
00015325 DELETE   771.52 172.01 482.67 622.11 1009.81 396.41 1193.24 392.72 1168.14 509.96 1048.60 636.56 1184.09 630.88
00015326 DELETE   773.39 156.81 481.91 643.62 1008.09 408.41 1190.80 391.17 1172.71 515.79 1042.21 647.02 1180.13 634.06
00015327 DELETE   781.73 158.21 477.30 644.82 1008.46 414.10 1196.35 395.48 1173.85 520.92 1048.11 653.28 1189.49 638.66
00015328 00000140 785.97 154.04 475.79 647.45 1010.69 415.75 1200.46 396.99 1175.26 524.94 1053.81 654.96 1194.12 639.78
00015329 00000141 786.68 167.67 480.18 635.93 1014.65 411.55 1207.65 399.78 1179.01 527.41 1062.29 659.54 1203.29 646.19
00015330 DELETE   789.94 168.56 478.06 633.80 1015.48 412.92 1208.99 399.15 1180.52 527.86 1066.74 661.19 1207.87 646.01
00015331 00000143 791.24 157.84 473.11 638.33 1015.98 419.23 1204.86 395.86 1182.69 525.51 1068.08 656.00 1204.07 636.92
00015332 00000144 789.70 156.70 474.39 631.79 1017.35 420.57 1205.38 397.52 1183.45 522.98 1069.85 652.40 1202.29 633.76
00015333 DELETE   788.38 154.71 473.08 634.61 1011.16 418.97 1201.19 398.36 1176.86 521.79 1066.98 651.33 1201.10 634.31
00015334 DELETE   788.25 152.78 471.25 640.20 1009.51 414.77 1197.92 394.24 1173.67 520.23 1065.80 652.65 1199.74 635.36
00015335 00000147 787.86 151.88 472.13 645.76 1011.30 413.73 1198.02 392.55 1176.86 518.85 1065.27 653.60 1199.19 635.92
00015336 DELETE   787.29 163.03 476.88 640.68 1017.80 409.26 1202.78 391.51 1182.99 518.57 1070.66 655.91 1207.93 637.59
00015337 00000149 790.07 167.34 477.70 636.60 1020.76 408.43 1205.81 389.48 1186.16 518.21 1072.38 654.76 1210.87 635.32
00015338 00000150 794.65 168.55 475.08 636.48 1023.59 409.88 1208.94 388.42 1190.95 518.42 1076.61 657.47 1215.59 636.01
00015339 00000151 798.61 171.08 475.39 631.86 1025.95 411.73 1214.92 390.62 1195.96 521.57 1078.74 659.83 1218.98 638.87
00015340 00000152 800.72 160.20 475.21 641.37 1032.42 414.33 1218.20 393.85 1202.55 524.02 1081.82 660.09 1220.12 639.92
00015341 00000153 802.42 160.88 475.28 643.22 1035.61 414.45 1220.57 394.79 1207.19 525.70 1081.84 660.90 1221.19 641.87
00015342 00000154 804.99 153.82 474.54 656.08 1040.50 416.34 1223.26 396.39 1212.46 528.07 1082.67 661.72 1223.04 643.08
00015343 00000155 804.43 154.98 476.34 656.51 1042.42 416.85 1224.84 398.24 1214.55 529.38 1082.22 661.94 1223.23 644.73
00015344 00000156 802.87 146.97 478.04 666.00 1037.90 423.69 1218.91 399.61 1210.68 528.25 1081.36 661.00 1222.25 642.22
00015345 00000157 804.83 142.29 477.21 669.55 1039.45 423.61 1220.35 399.47 1211.39 528.30 1082.30 660.84 1222.92 641.93
00015346 00000158 804.40 143.21 478.49 666.86 1040.72 421.94 1220.94 397.81 1213.32 527.17 1083.48 659.94 1223.33 641.11
00015347 00000159 806.65 143.96 477.55 663.10 1040.48 419.53 1220.86 395.82 1211.30 525.54 1085.86 658.59 1224.47 639.85
00015348 00000160 806.33 139.83 478.12 664.83 1041.75 417.81 1218.91 395.28 1209.94 523.35 1087.16 656.07 1223.21 638.09
00015349 00000161 807.33 144.42 477.46 655.95 1043.33 417.18 1220.53 394.15 1211.61 523.50 1088.28 654.27 1222.89 636.16
00015350 00000162 808.58 146.08 476.75 652.24 1045.61 415.10 1220.55 393.92 1211.46 521.56 1091.22 651.96 1222.83 635.14
00015351 00000163 808.59 149.37 476.88 646.27 1044.50 414.24 1220.11 393.73 1210.62 520.58 1091.36 650.84 1222.15 634.59
00015352 00000164 810.79 146.85 475.47 646.58 1046.31 412.82 1221.00 390.87 1212.34 519.25 1093.13 648.97 1222.79 631.52
00015353 00000165 809.03 145.65 477.38 645.11 1044.03 410.00 1220.34 389.95 1210.90 514.86 1092.34 645.30 1223.21 629.18
