Video ID: 	YsqfoEr4zQM
H: 	1080
W: 	1920
FPS: 	60.0

FRAME INDEX X0 Y0 W H [Landmarks (5 Points)]

00020895 00000000 982.27 227.15 373.28 566.12 1110.98 487.07 1266.29 509.28 1191.63 607.33 1090.33 657.31 1222.01 676.65
00020896 00000001 982.53 227.72 373.16 566.03 1111.01 487.48 1266.25 509.48 1191.25 607.10 1090.61 657.07 1222.62 676.23
00020897 DELETE   975.04 228.33 370.90 568.15 1102.08 492.72 1260.85 511.13 1185.96 609.30 1083.56 663.72 1217.06 679.99
00020898 DELETE   975.13 229.73 370.52 566.85 1101.96 492.86 1260.46 510.92 1185.75 609.70 1083.33 663.99 1216.62 680.08
00020899 DELETE   970.90 240.43 367.80 561.30 1092.65 496.40 1247.41 515.47 1177.64 621.34 1081.67 669.66 1217.27 687.28
00020900 00000005 970.61 240.83 368.22 561.32 1093.03 496.42 1247.36 515.23 1177.66 621.44 1082.05 669.96 1217.23 687.30
00020901 00000006 962.31 247.69 367.30 562.41 1084.85 505.04 1233.40 522.49 1164.73 630.43 1075.82 675.68 1205.67 691.63
00020902 00000007 962.57 247.32 366.63 563.01 1085.03 505.35 1233.25 522.47 1164.99 630.36 1076.15 676.06 1205.64 691.73
00020903 00000008 951.64 255.79 368.19 558.10 1072.90 513.29 1225.59 527.45 1155.06 636.60 1070.53 682.03 1202.81 694.68
00020904 00000009 951.67 255.96 368.32 558.42 1072.99 513.56 1225.46 527.64 1154.92 636.53 1070.32 681.97 1202.59 694.60
00020905 00000010 942.27 261.31 370.58 562.33 1061.37 521.62 1220.20 534.30 1144.57 641.88 1063.07 694.25 1194.56 705.78
00020906 00000011 942.68 261.69 369.96 561.99 1061.89 521.74 1220.32 534.57 1145.16 642.69 1063.44 694.38 1194.56 706.04
00020907 00000012 936.29 271.42 369.61 553.59 1047.87 536.34 1214.87 541.32 1138.47 648.74 1065.97 711.64 1194.11 716.54
00020908 00000013 936.25 270.49 369.28 554.70 1048.21 536.44 1214.52 541.04 1138.49 649.13 1065.72 711.22 1194.02 715.91
00020909 00000014 921.24 283.98 375.44 542.06 1036.95 554.77 1211.84 551.27 1135.85 661.30 1063.09 724.33 1193.26 721.78
00020910 00000015 921.14 284.59 375.52 541.40 1036.99 554.83 1211.87 551.24 1135.92 661.39 1063.18 724.37 1193.20 721.75
00020911 00000016 911.15 293.94 379.30 545.62 1035.85 570.26 1210.00 563.64 1138.28 674.64 1061.73 736.34 1190.55 731.56
00020912 00000017 911.23 293.49 378.95 545.84 1035.90 570.24 1209.97 563.51 1138.43 674.46 1061.97 736.37 1190.51 731.49
00020913 00000018 910.70 302.93 382.76 551.81 1033.09 582.03 1208.02 574.77 1132.29 692.18 1058.06 752.42 1184.44 747.61
00020914 00000019 910.74 302.54 382.54 552.69 1032.98 582.06 1207.99 574.91 1132.38 692.14 1057.93 752.71 1184.47 748.01
00020915 00000020 903.91 309.91 381.88 548.78 1027.34 595.19 1200.46 591.60 1123.21 704.13 1058.90 769.01 1176.55 766.60
00020916 00000021 902.02 307.55 388.33 551.55 1013.06 599.03 1186.30 591.12 1106.36 714.95 1051.47 769.71 1175.96 762.76
00020917 00000022 891.25 326.48 389.49 556.15 1010.05 619.91 1173.94 603.15 1104.15 739.36 1059.39 795.50 1171.41 780.39
00020918 00000023 891.83 326.52 389.18 555.88 1010.33 619.56 1174.17 602.99 1104.30 739.34 1059.81 796.38 1171.21 781.43
00020919 00000024 885.46 341.26 391.11 566.62 1007.42 645.77 1167.17 627.57 1099.07 762.00 1051.80 822.53 1164.52 805.49
00020920 00000025 885.91 341.53 391.03 567.74 1007.27 645.62 1167.34 627.81 1098.77 764.04 1052.59 824.13 1165.21 807.34
00020921 00000026 887.35 373.97 386.45 549.78 1001.43 678.09 1162.48 657.88 1098.65 784.66 1055.60 846.93 1164.40 828.45
00020922 00000027 887.11 374.16 385.85 550.35 1000.67 676.71 1162.53 657.76 1097.59 786.59 1054.76 847.47 1164.30 829.86
00020923 00000028 869.09 403.38 393.36 550.56 991.98 710.68 1160.94 682.44 1093.58 813.35 1052.79 873.99 1168.49 848.32
00020924 00000029 868.79 402.01 394.65 552.40 991.82 711.41 1161.09 682.12 1093.75 814.58 1053.68 874.91 1169.60 848.37
00020925 00000030 858.47 430.16 395.85 551.35 988.17 743.16 1158.87 719.12 1090.37 852.94 1037.21 892.63 1167.50 870.91
00020926 00000031 857.73 433.12 396.42 550.27 987.86 742.56 1160.31 718.35 1091.08 853.14 1035.55 893.40 1167.12 871.79
00020927 00000032 839.46 459.47 409.04 538.26 965.86 768.98 1143.50 740.17 1075.99 878.16 1022.11 912.72 1158.87 886.66
00020928 00000033 839.23 458.62 409.43 539.99 966.66 770.51 1143.57 740.77 1077.47 879.96 1025.82 916.04 1160.79 889.63
00020929 00000034 839.94 475.37 402.83 528.99 955.93 775.12 1138.75 753.94 1061.34 885.72 1031.20 925.81 1156.18 905.25
00020930 00000035 841.04 477.48 400.58 526.00 957.18 773.71 1138.17 754.43 1061.56 884.99 1032.14 923.67 1155.67 904.93
00020931 00000036 821.05 463.14 417.56 552.86 948.72 788.42 1128.22 762.64 1054.81 886.72 1004.58 937.10 1135.33 914.25
00020932 00000037 822.96 465.29 413.47 537.54 944.59 782.04 1129.18 760.89 1048.58 887.22 1015.52 930.43 1140.86 910.50
00020933 00000038 809.14 455.70 422.80 563.69 933.70 775.44 1116.72 756.78 1041.90 883.91 997.26 934.51 1125.47 917.95
00020934 00000039 809.13 455.63 422.81 563.80 933.70 775.43 1116.75 756.79 1041.91 883.93 997.24 934.51 1125.48 917.96
00020935 00000040 800.69 439.51 428.57 571.44 920.51 765.49 1104.62 741.24 1029.97 874.46 996.14 921.52 1129.22 900.70
00020936 00000041 800.03 439.92 428.69 569.30 920.81 765.95 1104.97 742.16 1030.11 874.09 995.29 921.31 1127.33 901.01
00020937 00000042 797.62 426.31 425.09 554.76 920.27 747.33 1100.90 714.69 1030.65 855.96 998.77 896.86 1127.53 869.43
00020938 00000043 798.83 424.51 423.51 555.92 920.89 747.50 1100.35 714.74 1030.46 855.17 1000.19 895.88 1128.02 868.27
00020939 00000044 780.21 389.47 429.42 575.89 906.77 722.35 1072.31 691.94 1007.47 840.82 997.85 875.79 1118.63 848.36
00020940 00000045 780.50 390.88 428.96 574.21 907.01 722.48 1072.67 691.98 1007.86 841.16 998.42 875.70 1119.07 848.21
00020941 00000046 786.81 362.06 423.66 592.52 898.41 683.14 1072.98 654.00 1003.57 813.33 991.48 850.69 1123.01 825.25
00020942 00000047 786.69 361.61 424.33 592.44 898.46 683.67 1072.85 653.91 1003.30 813.87 991.45 849.22 1124.54 823.29
00020943 00000048 782.69 350.12 415.81 580.82 904.08 647.45 1067.86 617.22 1006.09 774.97 985.96 829.99 1108.14 801.88
00020944 00000049 790.79 341.91 419.01 591.04 906.19 650.76 1084.20 618.29 1015.88 773.12 981.81 820.87 1118.64 794.26
00020945 00000050 776.92 311.70 424.53 590.99 893.36 612.28 1067.16 581.33 1000.44 742.76 980.97 793.87 1108.91 766.59
00020946 00000051 777.99 313.95 423.28 588.65 893.39 612.57 1067.05 581.23 1000.16 742.64 979.91 792.42 1109.77 764.84
00020947 00000052 788.51 295.93 412.18 573.91 896.43 586.50 1069.06 556.39 1002.76 711.85 981.76 768.16 1108.10 741.76
00020948 00000053 789.97 296.40 410.29 572.81 897.16 586.18 1069.33 556.60 1003.06 711.37 980.67 766.82 1107.85 741.02
00020949 00000054 791.59 282.33 406.51 566.14 900.22 549.57 1076.14 521.58 1003.06 673.61 971.08 736.08 1107.75 710.93
00020950 00000055 792.20 282.64 405.87 565.73 900.42 549.67 1076.66 521.62 1003.20 673.88 970.86 735.36 1108.77 710.21
00020951 00000056 804.77 264.34 392.99 558.48 905.04 534.39 1079.69 504.42 1005.06 651.50 972.02 716.46 1110.31 690.57
00020952 00000057 804.65 264.47 393.06 558.26 905.01 534.30 1079.60 504.28 1005.12 651.40 972.10 716.45 1110.30 690.52
00020953 00000058 815.91 247.03 384.89 559.30 909.61 513.38 1079.59 484.95 1006.11 636.68 978.31 703.88 1108.18 679.50
00020954 00000059 816.42 247.82 383.29 558.14 910.16 513.18 1079.59 484.76 1006.57 636.17 978.09 703.19 1107.94 678.80
00020955 00000060 824.71 235.66 375.15 559.41 912.40 491.40 1079.22 466.05 1006.96 619.80 975.77 682.47 1109.35 660.75
00020956 00000061 825.74 235.80 374.26 558.89 912.88 491.42 1079.58 465.75 1006.82 619.76 975.82 682.37 1109.53 660.39
00020957 00000062 828.90 212.84 367.00 576.09 914.70 469.59 1079.30 445.74 1009.93 589.72 967.49 661.79 1109.90 641.46
00020958 00000063 828.70 212.56 366.87 576.27 914.67 469.35 1079.31 445.83 1009.77 589.51 967.70 661.83 1109.65 641.76
00020959 00000064 846.71 214.56 348.90 563.42 922.24 455.24 1076.41 436.27 1001.95 566.63 964.01 633.70 1106.53 616.63
00020960 00000065 846.87 213.43 348.59 564.88 922.45 455.31 1076.86 436.02 1002.14 566.88 964.09 633.51 1107.01 616.16
00020961 00000066 854.65 215.12 341.08 543.37 920.36 444.95 1073.76 427.01 993.26 546.11 957.74 619.74 1099.21 604.41
00020962 00000067 854.54 216.62 340.45 540.63 920.45 445.39 1073.71 426.70 994.43 547.23 958.50 620.26 1098.98 604.42
00020963 00000068 853.60 206.30 334.65 544.13 926.18 435.62 1074.95 421.42 993.44 532.34 954.59 611.56 1092.81 597.76
00020964 00000069 854.09 207.09 334.46 543.98 926.32 435.65 1074.51 421.29 993.32 532.03 954.45 611.32 1093.33 597.31
00020965 00000070 860.40 206.37 327.64 534.34 928.25 431.48 1075.78 418.24 992.44 526.40 957.54 607.98 1090.70 595.80
00020966 00000071 860.40 206.38 327.67 534.29 928.26 431.48 1075.79 418.22 992.46 526.40 957.60 607.97 1090.70 595.78
00020967 00000072 863.81 201.10 324.86 537.32 929.08 430.83 1075.08 416.80 993.13 525.84 953.07 607.03 1087.95 595.26
00020968 00000073 863.54 201.57 325.12 535.79 929.06 430.85 1075.50 416.79 993.52 524.94 952.79 606.88 1087.78 595.23
00020969 00000074 862.73 199.00 324.62 530.92 927.20 433.18 1075.28 417.70 992.59 529.02 957.15 615.16 1082.90 603.07
00020970 00000075 862.76 198.97 324.62 530.96 927.22 433.17 1075.27 417.69 992.58 529.01 957.17 615.15 1082.90 603.07
00020971 00000076 863.02 201.35 322.10 522.46 927.34 435.80 1074.01 422.75 991.59 533.68 958.83 617.06 1075.79 607.03
00020972 00000077 863.54 201.53 321.29 521.64 927.54 435.99 1073.76 423.10 991.49 533.44 958.78 617.03 1075.82 607.13
00020973 00000078 863.27 202.87 320.28 520.35 927.13 439.12 1072.45 425.96 990.58 535.50 959.79 618.66 1072.47 608.74
00020974 00000079 863.01 202.90 320.74 521.20 926.91 438.64 1072.21 425.79 990.38 535.34 959.79 619.09 1072.17 609.36
00020975 00000080 865.35 204.66 317.22 525.67 930.02 440.64 1072.93 425.95 991.30 538.27 960.76 623.73 1072.44 613.11
00020976 00000081 863.44 203.25 320.41 524.02 927.86 442.28 1070.64 429.42 990.23 538.43 961.15 622.03 1071.25 612.36
00020977 00000082 865.96 205.66 317.43 528.00 930.72 442.53 1070.78 426.69 990.62 539.92 963.68 628.62 1070.98 617.13
00020978 00000083 866.19 205.43 317.43 528.03 930.80 442.83 1070.63 426.77 990.18 539.80 963.69 628.45 1071.22 616.82
00020979 00000084 867.26 206.49 316.64 530.01 931.55 444.01 1068.07 426.85 989.75 539.61 965.70 632.55 1069.19 620.30
00020980 00000085 867.27 206.24 316.48 530.10 931.64 443.93 1068.22 426.83 990.01 539.54 965.76 632.33 1069.37 620.07
00020981 00000086 864.92 205.97 319.83 527.24 929.13 445.18 1065.82 430.91 988.17 538.41 965.84 629.54 1066.83 619.14
00020982 00000087 864.91 205.98 319.84 527.20 929.13 445.19 1065.83 430.92 988.19 538.41 965.84 629.54 1066.84 619.14
00020983 00000088 864.63 205.77 319.51 520.04 928.06 442.57 1063.56 429.32 985.01 535.30 964.58 625.59 1063.06 616.02
00020984 00000089 865.01 206.01 318.77 519.36 928.31 442.40 1063.26 429.24 984.97 535.57 964.57 625.31 1062.72 615.77
00020985 00000090 864.47 202.79 319.55 516.87 927.21 439.32 1062.42 427.42 981.99 533.74 961.35 621.89 1059.91 613.45
00020986 00000091 864.52 202.77 319.50 516.82 927.25 439.30 1062.43 427.40 982.01 533.77 961.41 621.89 1059.91 613.46
00020987 00000092 864.23 201.64 319.40 513.22 925.92 437.31 1064.75 426.10 982.59 533.10 958.63 618.02 1062.56 610.07
00020988 00000093 864.21 201.68 319.55 513.63 926.35 437.22 1064.76 425.82 982.58 532.94 958.81 617.75 1062.79 609.70
00020989 00000094 864.29 200.29 321.06 518.34 926.08 437.82 1063.75 424.80 981.52 532.54 957.51 615.57 1066.02 606.29
00020990 00000095 864.24 200.09 321.31 519.61 926.00 437.63 1064.18 424.85 981.40 532.33 957.03 615.42 1066.63 606.26
00020991 00000096 866.17 199.02 319.09 525.60 926.26 445.85 1060.41 429.93 981.61 533.14 959.17 616.22 1068.10 605.22
00020992 00000097 866.15 198.95 319.11 525.65 926.26 445.87 1060.41 429.93 981.62 533.15 959.20 616.22 1068.12 605.20
00020993 00000098 867.04 204.94 325.94 532.59 928.11 455.35 1064.51 433.76 984.86 539.41 972.06 628.43 1084.19 609.25
00020994 00000099 866.87 205.29 326.52 532.03 927.51 454.48 1064.80 433.21 984.52 538.98 971.79 627.88 1084.78 608.93
00020995 00000100 867.96 202.40 327.50 535.29 928.93 455.84 1065.38 432.82 986.68 543.39 973.34 631.29 1090.52 611.11
00020996 00000101 867.98 202.39 327.50 535.31 928.94 455.82 1065.37 432.83 986.68 543.39 973.34 631.28 1090.52 611.13
00020997 00000102 865.86 206.23 330.34 540.74 929.28 455.37 1066.48 434.45 989.17 544.97 971.16 631.94 1092.10 613.28
00020998 00000103 866.00 205.61 330.95 542.09 929.01 455.85 1066.14 434.44 989.04 545.58 971.27 632.87 1092.38 613.70
00020999 00000104 865.83 211.28 331.34 547.17 929.17 457.59 1066.76 435.65 988.31 546.59 970.75 636.02 1093.58 615.91
00021000 00000105 865.64 210.90 332.05 548.04 928.65 457.67 1066.20 435.25 988.39 546.51 970.67 636.37 1093.72 615.89
00021001 00000106 865.92 211.59 332.89 553.31 927.47 460.97 1064.48 439.11 986.38 552.29 970.91 642.43 1090.75 622.57
00021002 00000107 865.90 211.60 332.90 553.30 927.47 460.99 1064.47 439.12 986.40 552.30 970.91 642.44 1090.74 622.57
00021003 00000108 866.94 212.72 336.17 545.24 926.08 465.12 1066.16 441.60 988.61 557.04 972.74 649.07 1085.58 629.05
00021004 00000109 867.10 213.47 335.97 543.29 926.25 464.90 1066.80 441.79 988.22 556.40 971.74 648.05 1085.60 628.50
00021005 00000110 865.32 215.05 337.22 543.96 923.80 468.00 1066.81 445.70 988.71 562.16 966.42 652.46 1082.33 633.91
00021006 00000111 865.32 215.17 337.20 543.82 923.80 468.00 1066.82 445.66 988.73 562.15 966.44 652.46 1082.33 633.89
00021007 00000112 863.39 216.49 344.90 542.20 916.30 467.11 1067.35 445.35 977.91 570.24 964.61 656.32 1077.79 638.66
00021008 00000113 863.23 216.62 344.87 542.10 916.26 467.11 1067.23 445.34 977.86 570.21 964.58 656.31 1077.72 638.64
00021009 00000114 863.89 221.18 346.84 541.26 916.92 470.25 1066.64 449.79 978.61 574.81 964.61 662.16 1076.49 645.51
00021010 00000115 863.72 221.22 347.05 541.27 916.85 470.25 1066.61 449.90 978.52 574.91 964.51 662.12 1076.38 645.56
00021011 00000116 863.60 225.88 347.12 542.17 916.68 474.42 1065.15 454.55 979.18 578.44 964.73 666.33 1075.43 650.01
00021012 00000117 863.64 225.95 347.11 542.09 916.71 474.42 1065.16 454.58 979.20 578.46 964.76 666.29 1075.43 650.00
00021013 00000118 860.58 230.51 349.79 542.20 916.82 479.56 1064.76 460.05 979.62 583.09 967.90 671.39 1075.91 655.10
00021014 00000119 860.35 229.21 350.50 543.75 916.73 479.57 1064.83 459.98 979.58 583.10 967.74 671.48 1075.83 655.11
00021015 00000120 857.70 233.11 354.83 546.01 917.11 485.98 1064.49 467.52 980.83 588.96 971.21 677.93 1073.99 662.03
00021016 00000121 857.59 233.00 354.93 546.12 917.09 486.01 1064.50 467.54 980.81 588.99 971.21 677.96 1073.99 662.05
00021017 00000122 856.43 236.51 358.34 552.18 915.29 489.68 1064.77 472.87 978.86 595.14 970.20 682.77 1075.40 667.82
00021018 00000123 856.03 237.14 358.82 551.03 915.37 489.80 1064.63 472.60 978.64 594.44 970.42 682.57 1075.09 667.26
00021019 00000124 855.52 241.79 360.68 553.64 912.87 491.92 1062.96 477.28 975.51 602.03 967.80 686.10 1076.54 672.66
00021020 00000125 855.61 241.76 360.60 553.71 912.88 491.98 1062.94 477.27 975.55 602.01 967.79 686.17 1076.55 672.67
00021021 00000126 857.71 247.32 363.21 550.71 913.76 495.69 1063.91 479.01 977.54 606.28 968.47 690.48 1079.06 675.29
00021022 00000127 857.36 245.67 364.02 552.30 913.41 495.72 1063.68 478.75 977.44 606.08 968.46 690.88 1078.85 675.46
00021023 00000128 859.75 247.55 365.51 556.24 915.45 497.41 1067.06 481.20 978.99 610.49 967.33 693.71 1081.01 678.85
00021024 00000129 860.23 247.83 364.42 556.16 915.60 497.43 1066.86 481.19 978.60 610.77 967.60 693.75 1081.03 678.86
00021025 00000130 861.34 246.90 367.19 562.08 916.60 497.73 1070.13 482.02 980.10 613.28 967.08 696.25 1083.02 681.53
00021026 00000131 861.19 247.03 367.32 561.95 916.58 497.73 1070.09 482.03 980.09 613.23 966.97 696.01 1083.03 681.30
00021027 00000132 863.37 244.59 360.90 567.39 924.74 492.72 1070.36 491.43 980.88 613.40 967.31 689.09 1081.24 687.47
00021028 00000133 863.52 244.47 360.51 568.07 924.59 492.93 1070.25 491.61 980.09 612.92 966.67 688.81 1080.98 687.14
00021029 00000134 864.36 246.43 360.63 564.90 926.54 491.34 1072.21 490.66 982.01 612.51 971.04 691.29 1080.83 690.33
00021030 00000135 864.41 246.34 360.56 565.02 926.55 491.36 1072.23 490.67 982.03 612.52 970.97 691.32 1080.79 690.35
00021031 00000136 865.79 246.70 359.94 565.42 930.19 489.81 1072.74 490.94 984.75 610.20 974.34 692.14 1078.09 693.03
00021032 00000137 866.19 246.61 359.65 565.56 930.25 490.06 1072.91 490.74 985.08 609.83 974.52 691.90 1078.66 692.42
00021033 00000138 866.98 242.18 358.48 568.27 931.33 487.93 1074.42 488.64 986.36 605.91 977.09 694.41 1077.84 695.01
00021034 00000139 867.35 242.77 357.61 567.95 931.64 488.68 1074.73 488.84 987.11 606.13 977.65 694.56 1078.41 694.71
00021035 00000140 867.00 239.27 359.14 566.03 934.45 486.03 1077.95 487.86 991.29 604.41 979.34 693.11 1079.59 694.60
00021036 00000141 866.98 239.22 359.13 566.05 934.38 486.01 1077.99 487.83 991.26 604.49 979.28 693.15 1079.60 694.63
00021037 00000142 869.54 235.00 358.30 571.24 935.09 484.23 1078.93 485.84 991.62 603.94 979.70 691.32 1081.32 692.70
00021038 00000143 869.44 234.62 358.05 571.21 935.51 483.77 1079.31 485.97 992.21 603.67 979.30 691.45 1080.88 693.31
00021039 00000144 871.38 233.42 356.60 569.95 934.71 481.78 1078.75 482.49 990.82 602.15 978.20 687.41 1082.06 688.21
00021040 00000145 871.33 233.48 356.60 569.92 934.64 481.79 1078.75 482.49 990.80 602.18 978.19 687.43 1082.05 688.23
00021041 00000146 872.13 229.46 357.57 574.21 935.12 479.51 1079.74 478.38 991.60 600.32 977.42 682.64 1086.85 681.52
00021042 00000147 872.28 229.63 357.37 573.24 934.97 479.71 1079.09 478.91 990.96 600.48 977.58 682.24 1086.77 681.29
00021043 00000148 871.62 228.31 358.13 574.78 934.27 478.54 1079.74 474.40 992.25 598.41 979.49 679.83 1092.06 675.96
00021044 00000149 871.55 227.35 358.28 577.11 934.38 478.46 1079.50 474.27 992.37 598.60 979.46 679.91 1092.47 675.95
00021045 00000150 871.50 229.17 356.39 574.04 936.11 478.10 1077.90 470.99 992.91 592.58 981.55 674.77 1093.90 668.42
00021046 00000151 871.44 229.34 356.40 573.87 936.06 478.17 1077.92 470.98 992.89 592.56 981.54 674.77 1093.91 668.36
00021047 00000152 872.94 225.05 355.48 575.15 936.83 478.72 1081.10 469.49 994.90 590.21 979.19 669.76 1098.73 661.41
00021048 00000153 872.78 225.31 355.25 574.63 936.81 478.67 1081.61 469.61 994.98 589.76 979.29 669.64 1098.33 661.52
00021049 00000154 872.00 217.90 359.59 578.74 936.84 475.77 1085.60 465.67 998.61 580.75 983.24 660.30 1103.77 652.19
00021050 00000155 871.98 217.87 359.59 578.78 936.82 475.78 1085.56 465.68 998.58 580.76 983.22 660.31 1103.73 652.20
00021051 00000156 872.77 213.94 358.88 580.75 935.95 471.74 1088.56 460.71 998.25 576.11 980.96 654.68 1110.38 645.56
00021052 00000157 872.95 213.89 358.41 581.13 935.80 471.69 1088.55 461.11 997.99 576.82 980.20 654.42 1110.44 645.67
00021053 00000158 874.37 209.33 357.04 574.60 935.53 467.16 1091.86 458.37 999.15 573.64 979.20 648.88 1112.18 641.53
00021054 00000159 873.80 208.95 357.48 574.00 935.61 467.58 1092.00 458.62 999.68 573.21 979.25 648.29 1112.39 640.78
00021055 00000160 874.56 204.82 358.28 575.64 937.87 463.47 1093.24 455.27 1002.61 569.92 981.54 645.54 1112.79 638.65
00021056 00000161 874.49 204.80 358.33 575.70 937.89 463.43 1093.26 455.25 1002.63 569.88 981.56 645.50 1112.80 638.63
00021057 00000162 876.40 202.53 357.35 575.84 941.55 460.71 1091.42 453.11 1004.50 569.18 987.34 644.07 1111.76 637.88
00021058 00000163 876.28 201.34 357.31 576.58 941.50 460.70 1091.80 452.90 1004.42 569.12 987.21 644.17 1111.94 637.74
00021059 00000164 878.16 201.91 355.47 571.38 943.16 458.56 1093.01 450.77 1006.58 568.49 991.02 643.94 1111.99 637.57
00021060 00000165 878.16 201.93 355.47 571.36 943.12 458.53 1093.00 450.75 1006.57 568.50 990.96 643.92 1111.96 637.56
00021061 00000166 878.81 199.53 355.22 570.67 944.63 456.38 1093.12 449.77 1007.68 566.51 992.56 642.89 1109.92 637.62
