Video ID: 	y0PsMpXRgOc
H: 	2160
W: 	3840
FPS: 	23.976023976023978

FRAME INDEX X0 Y0 W H [Landmarks (5 Points)]

00053859 00000000 1717.73 637.29 659.03 916.80 1787.02 953.28 2054.67 976.16 1815.55 1119.16 1772.66 1313.68 1965.59 1334.35
00053860 00000001 1734.66 608.17 670.24 934.17 1813.26 951.84 2090.12 975.24 1849.56 1120.79 1798.42 1306.41 2005.33 1327.72
00053861 00000002 1742.64 618.52 673.28 919.70 1822.76 951.44 2107.19 974.52 1866.49 1114.12 1805.14 1304.71 2024.02 1324.01
00053862 00000003 1742.15 601.29 673.62 930.28 1816.30 947.45 2101.41 971.51 1855.26 1112.21 1798.97 1299.32 2020.75 1320.09
00053863 00000004 1725.21 589.39 678.57 947.76 1804.43 937.39 2084.59 972.12 1829.77 1107.74 1778.13 1290.88 2002.41 1320.92
00053864 00000005 1723.16 604.65 662.55 938.15 1791.40 928.95 2051.91 968.35 1805.38 1109.37 1768.10 1293.72 1962.06 1325.11
00053865 00000006 1710.65 621.85 659.93 925.91 1784.52 929.67 2011.85 960.28 1768.27 1108.88 1750.61 1300.30 1928.86 1324.24
00053866 00000007 1681.11 662.60 682.09 873.61 1768.74 927.44 2001.92 966.04 1735.78 1093.29 1736.34 1283.73 1909.99 1311.96
00053867 00000008 1660.90 666.22 690.24 864.79 1759.79 924.52 1977.13 960.76 1708.62 1087.24 1720.66 1283.44 1876.62 1310.27
00053868 00000009 1649.51 635.31 692.92 895.98 1756.01 920.54 1958.48 959.08 1689.52 1081.93 1712.55 1280.22 1856.02 1309.04
00053869 00000010 1635.02 564.17 707.19 966.84 1753.40 914.72 1944.57 969.08 1671.36 1079.71 1702.97 1271.11 1837.01 1310.93
00053870 00000011 1636.75 573.51 709.33 959.50 1765.85 912.75 1944.37 965.80 1671.62 1076.43 1708.79 1271.61 1832.23 1310.11
00053871 00000012 1653.47 638.55 703.26 890.89 1763.69 916.48 1966.93 958.70 1693.86 1076.83 1717.55 1277.16 1860.53 1308.23
00053872 DELETE   1673.58 663.30 691.95 869.29 1773.95 931.59 1987.95 963.29 1722.68 1082.85 1734.96 1281.90 1884.02 1305.35
00053873 DELETE   1713.68 663.40 674.48 871.64 1798.39 928.22 2014.38 964.30 1761.14 1096.57 1756.30 1287.47 1923.71 1315.20
00053874 DELETE   1739.16 589.51 676.92 944.20 1806.83 910.74 2069.55 959.50 1813.61 1096.12 1778.03 1271.93 1981.39 1312.63
00053875 00000016 1770.39 600.96 655.48 914.10 1841.21 927.93 2081.82 951.91 1836.48 1096.03 1815.85 1277.83 2005.80 1296.94
00053876 00000017 1782.52 568.95 656.70 933.39 1848.34 910.71 2111.92 942.06 1858.51 1085.95 1824.24 1274.56 2028.96 1299.76
00053877 00000018 1785.52 570.61 655.83 933.20 1853.67 909.20 2116.80 939.39 1866.41 1079.10 1826.57 1273.29 2024.68 1298.01
00053878 00000019 1777.28 535.58 670.07 969.32 1848.75 904.64 2107.24 937.52 1851.39 1071.25 1820.19 1267.08 2008.70 1294.13
00053879 00000020 1772.03 574.72 659.66 919.82 1847.81 911.93 2084.83 939.34 1836.76 1077.00 1813.62 1264.20 1982.51 1286.28
00053880 00000021 1748.58 590.12 673.68 899.06 1831.89 907.14 2076.78 947.91 1821.00 1073.61 1786.99 1258.83 1963.47 1289.79
00053881 00000022 1721.95 610.07 701.84 902.84 1822.47 900.79 2066.87 953.83 1799.78 1067.99 1764.34 1253.29 1941.38 1298.57
00053882 00000023 1708.84 635.77 692.69 878.10 1816.55 900.77 2047.74 955.88 1782.56 1069.71 1753.95 1250.23 1923.09 1296.35
00053883 00000024 1703.12 603.85 696.11 918.93 1812.48 903.49 2039.14 958.14 1771.05 1070.71 1748.28 1256.39 1908.55 1301.63
00053884 00000025 1707.28 609.83 691.28 914.83 1812.74 903.20 2039.24 957.48 1772.03 1073.69 1750.51 1259.77 1908.90 1304.22
00053885 00000026 1714.06 598.69 696.11 923.76 1814.04 902.45 2051.93 962.20 1783.66 1077.58 1754.97 1258.06 1926.09 1307.70
00053886 00000027 1724.09 592.84 690.67 927.03 1817.31 914.27 2063.41 968.70 1805.50 1085.01 1763.56 1265.97 1942.25 1312.27
00053887 00000028 1736.85 633.78 692.54 892.30 1820.00 918.16 2072.35 966.14 1808.79 1092.80 1780.80 1279.23 1957.82 1319.32
00053888 00000029 1748.75 656.15 662.64 872.01 1821.30 926.54 2074.97 971.71 1825.44 1110.35 1789.67 1293.20 1969.20 1329.59
00053889 00000030 1748.13 664.07 659.43 870.01 1814.88 942.09 2072.60 978.69 1830.03 1124.64 1786.93 1318.16 1965.75 1347.39
00053890 00000031 1735.36 671.02 675.94 903.46 1800.21 957.77 2061.32 999.52 1804.14 1144.07 1768.82 1330.52 1955.18 1366.27
00053891 00000032 1714.16 653.75 697.90 948.48 1796.62 967.94 2040.39 1012.91 1776.24 1156.69 1757.18 1353.61 1924.10 1390.13
00053892 00000033 1703.79 658.47 687.05 964.53 1786.28 998.46 2001.20 1036.89 1742.23 1188.42 1753.64 1382.61 1904.72 1410.61
00053893 00000034 1700.54 722.91 680.22 888.60 1764.40 1007.08 2000.77 1053.58 1735.79 1208.04 1733.75 1396.25 1902.38 1427.81
00053894 00000035 1696.54 683.07 683.39 963.70 1754.10 1029.97 2006.33 1080.77 1738.67 1240.16 1740.11 1409.89 1927.75 1445.46
00053895 00000036 1705.41 772.14 673.03 894.29 1760.65 1034.41 2021.72 1087.34 1771.32 1257.76 1754.95 1411.89 1963.87 1453.46
00053896 00000037 1722.44 768.75 674.57 903.68 1789.34 1058.15 2056.90 1089.05 1815.50 1265.52 1783.39 1431.90 2005.87 1457.46
00053897 00000038 1734.69 756.45 688.03 914.51 1795.67 1050.85 2089.36 1075.40 1834.72 1258.26 1793.17 1441.35 2038.76 1460.80
00053898 00000039 1739.29 805.96 676.94 869.13 1798.34 1047.82 2092.59 1072.43 1838.98 1241.06 1794.21 1436.49 2038.77 1455.69
00053899 00000040 1729.86 736.28 681.35 931.83 1794.69 1042.97 2078.44 1071.42 1823.49 1230.47 1782.53 1419.33 2017.15 1444.80
00053900 00000041 1714.72 717.90 681.95 915.70 1773.86 1021.77 2044.49 1054.05 1791.52 1221.42 1758.38 1397.35 1970.72 1424.07
00053901 00000042 1700.31 735.57 671.01 897.67 1756.33 1009.52 2013.25 1048.48 1757.73 1209.22 1737.34 1379.26 1935.76 1409.88
00053902 00000043 1686.40 733.76 663.38 878.35 1751.12 1003.69 2004.89 1045.87 1749.89 1194.37 1722.99 1368.24 1915.98 1399.93
00053903 00000044 1682.43 724.50 663.16 882.29 1751.38 995.23 2004.28 1041.54 1746.68 1187.46 1720.79 1357.98 1912.05 1393.60
00053904 00000045 1690.70 704.69 667.74 903.04 1758.24 985.36 2008.89 1031.73 1744.79 1185.15 1731.65 1355.07 1920.30 1391.73
00053905 00000046 1711.02 698.42 674.84 903.17 1770.64 967.52 2031.92 1021.63 1769.91 1180.76 1742.26 1343.34 1945.82 1387.85
00053906 00000047 1723.43 696.27 682.02 903.86 1787.01 975.94 2051.34 1017.80 1793.70 1172.08 1761.98 1345.98 1966.54 1381.87
00053907 00000048 1728.49 712.41 680.88 873.57 1791.83 981.60 2067.76 1014.36 1812.38 1165.23 1771.30 1347.93 1983.65 1376.84
00053908 00000049 1725.95 671.31 682.20 916.24 1793.67 978.12 2069.15 1013.30 1811.73 1162.19 1770.50 1343.20 1984.54 1374.28
00053909 00000050 1725.96 687.03 673.54 900.09 1784.88 972.35 2051.01 1005.30 1799.41 1153.77 1763.75 1338.67 1968.67 1368.25
00053910 00000051 1725.73 671.81 664.28 911.93 1781.37 967.41 2039.49 1004.88 1792.34 1150.59 1759.82 1331.33 1956.57 1364.24
00053911 00000052 1726.17 691.03 656.41 887.80 1781.22 963.03 2034.32 1001.23 1792.94 1145.75 1758.00 1328.58 1941.19 1362.54
00053912 00000053 1717.96 668.75 670.19 915.46 1788.42 964.24 2036.20 1001.61 1789.80 1140.98 1753.81 1326.27 1930.98 1358.61
00053913 00000054 1720.66 682.60 663.78 886.93 1795.76 953.19 2042.24 994.14 1794.13 1128.81 1760.27 1312.24 1937.26 1347.53
00053914 00000055 1717.80 676.60 662.46 878.91 1804.45 939.47 2043.56 984.92 1794.86 1117.56 1762.33 1299.92 1932.54 1338.08
00053915 00000056 1717.85 629.25 663.51 899.78 1792.65 920.06 2037.46 967.70 1790.12 1096.41 1756.81 1280.06 1926.26 1319.71
00053916 00000057 1717.91 633.04 657.66 892.52 1800.28 924.73 2013.31 952.14 1769.16 1083.61 1755.47 1282.50 1911.39 1304.36
00053917 00000058 1702.60 625.85 668.72 871.22 1791.23 914.03 2012.39 937.84 1763.16 1064.12 1742.46 1271.60 1893.57 1288.16
00053918 00000059 1697.86 637.43 673.59 849.64 1799.82 905.71 2010.53 934.00 1757.78 1051.52 1738.15 1255.76 1879.44 1275.53
00053919 00000060 1711.91 601.32 670.74 881.99 1815.65 896.02 2017.03 922.39 1763.34 1041.69 1750.13 1243.40 1885.65 1264.21
00053920 DELETE   1733.62 581.33 669.42 888.32 1830.35 888.02 2047.74 917.88 1789.82 1034.25 1767.18 1233.20 1914.44 1256.83
00053921 DELETE   1743.88 585.52 676.79 873.34 1835.04 872.31 2077.91 907.28 1829.77 1027.67 1793.93 1225.12 1953.27 1254.77
00053922 00000063 1785.89 581.17 661.36 865.28 1875.98 867.29 2102.19 894.53 1857.62 1018.05 1828.00 1220.04 1976.60 1243.10
00053923 00000064 1800.36 576.66 661.35 864.17 1873.44 855.97 2122.97 888.77 1869.33 1005.20 1842.42 1202.07 2017.61 1230.78
00053924 00000065 1805.48 564.64 662.53 876.16 1880.81 855.77 2130.95 885.72 1881.38 991.58 1845.85 1196.74 2024.60 1223.60
00053925 00000066 1797.62 520.78 673.52 923.49 1882.73 845.36 2129.36 884.64 1874.07 987.31 1835.57 1187.33 2014.84 1220.68
00053926 00000067 1783.95 543.75 667.29 892.10 1872.77 840.15 2108.67 879.01 1855.50 982.43 1824.58 1182.91 1996.08 1215.52
00053927 00000068 1748.67 545.25 677.68 901.58 1857.47 846.76 2081.27 870.56 1823.79 982.15 1804.36 1200.32 1961.27 1220.14
00053928 00000069 1727.92 585.21 688.58 854.46 1843.97 849.81 2078.93 875.79 1805.52 978.57 1784.24 1196.33 1951.66 1216.79
00053929 00000070 1717.35 589.47 696.20 857.55 1840.06 852.94 2070.01 877.80 1796.66 976.95 1773.79 1196.08 1935.26 1216.43
00053930 00000071 1718.13 577.65 695.45 873.90 1836.77 857.60 2072.50 886.99 1806.19 985.42 1772.12 1198.46 1936.64 1223.33
00053931 00000072 1731.86 580.51 692.51 875.05 1835.69 860.23 2082.76 899.46 1824.41 1004.53 1785.56 1205.24 1954.51 1239.44
00053932 00000073 1762.40 569.00 666.00 900.24 1859.75 874.06 2089.40 906.32 1840.64 1023.93 1807.83 1224.84 1965.17 1252.35
00053933 00000074 1774.20 576.46 667.41 894.19 1867.56 878.11 2102.60 909.25 1848.69 1035.25 1815.80 1232.93 1977.10 1259.27
00053934 00000075 1778.29 569.10 668.73 909.37 1869.47 886.38 2108.60 910.92 1853.32 1037.93 1820.63 1241.97 1983.16 1263.70
00053935 00000076 1774.82 588.09 659.66 880.95 1863.17 887.52 2103.12 916.22 1848.37 1043.17 1814.50 1238.97 1980.14 1263.17
00053936 00000077 1756.11 584.46 660.47 877.10 1841.44 892.59 2088.26 928.76 1838.61 1044.64 1794.75 1232.99 1970.91 1261.14
00053937 00000078 1745.08 587.18 651.14 877.97 1828.97 886.55 2066.56 924.61 1813.06 1043.60 1775.08 1227.78 1946.23 1257.60
00053938 00000079 1722.32 602.70 665.09 876.21 1814.73 893.45 2033.77 920.63 1781.59 1039.79 1761.55 1237.56 1916.16 1259.93
00053939 00000080 1707.64 601.91 674.42 871.60 1809.43 890.76 2014.15 909.04 1759.36 1032.82 1753.31 1236.94 1898.77 1252.44
00053940 00000081 1699.29 590.10 681.39 891.75 1816.69 887.28 2016.77 907.33 1755.76 1020.47 1747.51 1237.19 1885.96 1254.13
00053941 00000082 1710.22 599.68 676.91 869.14 1821.62 878.77 2020.53 904.24 1765.24 1017.12 1754.41 1226.91 1889.65 1247.70
00053942 00000083 1710.74 578.06 690.37 872.57 1823.33 867.94 2049.52 900.61 1784.69 1009.08 1758.19 1212.08 1903.81 1240.33
00053943 00000084 1730.35 604.65 680.99 841.93 1831.44 860.85 2076.79 898.30 1824.82 1006.29 1778.68 1208.79 1937.56 1242.22
00053944 00000085 1763.49 590.35 657.40 860.45 1856.32 860.57 2092.93 892.24 1846.71 1009.46 1802.17 1210.61 1957.82 1238.56
00053945 00000086 1779.94 585.49 653.42 860.04 1870.28 867.49 2108.87 888.99 1863.15 1002.02 1820.34 1211.01 1982.42 1231.27
00053946 00000087 1784.65 572.89 658.88 874.03 1872.02 870.30 2118.01 882.99 1869.35 999.30 1830.09 1213.60 2002.06 1227.24
00053947 00000088 1784.43 561.48 659.16 891.60 1872.96 868.02 2114.31 881.49 1864.95 1001.29 1831.70 1218.34 2002.24 1231.98
00053948 00000089 1778.66 585.53 655.35 868.43 1867.40 865.38 2099.53 884.12 1859.48 998.64 1820.56 1210.65 1979.39 1228.98
00053949 00000090 1760.65 571.67 657.71 886.39 1853.06 857.31 2086.79 883.55 1841.55 1002.46 1801.47 1210.33 1963.31 1233.89
00053950 00000091 1741.54 587.45 675.75 863.34 1836.30 855.05 2081.35 890.01 1830.30 1000.78 1791.94 1206.29 1955.26 1236.20
00053951 00000092 1721.87 586.06 682.35 855.57 1833.70 853.18 2069.42 888.64 1807.66 994.88 1772.88 1206.23 1925.93 1236.61
00053952 00000093 1713.43 566.85 689.23 880.70 1828.18 851.74 2048.91 886.24 1782.85 994.14 1766.03 1204.23 1911.81 1233.11
00053953 00000094 1714.06 591.35 678.83 869.01 1835.88 861.27 2028.49 886.53 1765.45 994.29 1762.28 1218.41 1889.44 1238.63
00053954 00000095 1702.40 608.96 682.11 868.05 1845.26 859.99 2019.24 882.81 1752.35 990.17 1754.98 1224.03 1873.58 1241.67
00053955 00000096 1697.39 584.05 683.62 883.86 1842.29 859.79 2009.09 885.51 1745.66 996.41 1753.96 1223.91 1869.08 1242.80
00053956 00000097 1693.59 579.15 691.00 882.61 1839.40 861.39 2005.40 885.77 1741.68 996.73 1748.10 1224.57 1862.64 1242.37
00053957 00000098 1696.26 619.57 691.04 846.03 1827.70 867.19 2017.81 896.89 1746.92 1005.57 1744.75 1222.99 1874.18 1245.77
00053958 00000099 1719.30 640.69 667.48 830.86 1829.16 877.90 2035.37 917.58 1776.79 1020.14 1761.72 1217.66 1909.50 1249.19
00053959 00000100 1750.37 606.43 664.63 859.02 1843.56 891.97 2080.00 939.24 1827.25 1046.66 1790.47 1232.85 1956.95 1268.99
00053960 00000101 1787.47 589.54 656.47 896.66 1864.99 888.30 2124.64 935.19 1870.02 1060.93 1826.95 1247.77 2013.58 1285.62
00053961 00000102 1809.26 595.95 657.46 932.00 1885.81 915.23 2168.26 952.68 1917.24 1071.62 1867.72 1277.61 2077.29 1308.97
00053962 00000103 1806.01 618.40 675.42 977.56 1899.12 929.04 2201.54 949.64 1943.83 1069.18 1887.44 1314.49 2108.44 1330.84
00053963 00000104 1804.86 637.24 675.51 970.38 1903.13 931.81 2195.14 956.20 1934.37 1080.90 1882.02 1315.42 2095.99 1335.84
00053964 00000105 1789.84 622.75 678.38 972.25 1883.11 942.01 2161.82 968.57 1903.69 1090.75 1856.24 1317.59 2064.78 1339.29
00053965 DELETE   1780.68 637.28 656.73 883.56 1852.42 930.15 2118.17 974.42 1867.98 1095.37 1817.00 1289.67 2007.81 1323.74
00053966 DELETE   1754.97 650.48 656.93 881.48 1835.84 930.79 2063.55 960.33 1816.53 1089.84 1791.26 1283.47 1959.22 1307.92
00053967 00000108 1723.87 622.58 691.73 908.33 1821.06 906.83 2064.84 963.06 1799.73 1074.36 1763.31 1262.78 1936.21 1309.72
00053968 00000109 1742.14 642.86 681.45 859.83 1832.28 914.85 2067.76 957.38 1804.41 1074.23 1774.05 1268.84 1940.98 1302.36
00053969 DELETE   1783.66 613.87 660.26 882.90 1863.41 906.29 2103.20 942.69 1850.15 1076.28 1819.76 1266.75 1985.09 1295.39
00053970 DELETE   1813.17 599.57 661.33 906.56 1897.26 903.72 2165.81 946.47 1913.83 1061.57 1863.85 1260.65 2051.56 1296.50
00053971 DELETE   1838.02 606.68 652.26 901.60 1926.45 901.26 2204.17 923.03 1947.79 1054.01 1897.02 1254.00 2109.72 1274.98
00053972 00000113 1839.31 586.42 662.99 924.43 1930.10 886.64 2213.99 909.61 1951.05 1041.98 1898.49 1247.24 2124.35 1268.88
00053973 DELETE   1834.44 621.93 650.53 869.94 1911.89 879.49 2186.77 914.52 1927.49 1025.34 1878.90 1230.44 2091.53 1259.92
00053974 DELETE   1800.81 604.58 673.72 863.62 1892.35 859.78 2144.67 899.41 1892.23 1012.69 1850.56 1213.97 2022.89 1247.86
00053975 DELETE   1781.20 614.58 664.77 849.12 1881.30 871.89 2099.17 904.25 1853.21 1022.07 1822.18 1226.18 1964.10 1253.08
00053976 00000117 1759.39 562.43 670.80 924.28 1863.41 879.68 2088.05 911.76 1837.44 1033.84 1802.95 1241.69 1948.46 1268.83
00053977 00000118 1769.54 589.40 660.58 885.71 1865.87 885.62 2103.49 920.28 1851.16 1038.59 1810.42 1237.62 1967.80 1267.37
00053978 00000119 1785.92 587.99 665.56 937.79 1868.84 925.97 2135.23 950.84 1884.40 1052.23 1840.61 1260.22 2040.21 1282.43
00053979 00000120 1791.38 625.92 665.75 906.52 1872.60 961.10 2154.52 960.53 1923.82 1070.25 1871.33 1294.47 2091.68 1296.24
00053980 00000121 1776.52 652.27 661.65 893.36 1856.00 972.66 2136.64 960.46 1906.26 1095.87 1860.83 1318.38 2091.29 1312.10
00053981 DELETE   1738.53 685.94 665.66 881.40 1803.26 991.37 2078.93 976.31 1836.98 1124.41 1812.39 1335.75 2030.01 1326.14
00053982 DELETE   1699.84 650.28 659.25 941.13 1750.75 1011.70 1999.89 993.64 1759.79 1145.89 1748.82 1361.43 1933.24 1347.74
00053983 DELETE   1634.82 629.89 691.74 959.43 1699.17 1030.55 1921.28 1012.54 1680.02 1167.32 1698.40 1378.75 1855.63 1365.94
00053984 00000125 1598.55 706.79 683.80 884.20 1671.51 1030.56 1884.20 1016.57 1647.53 1159.63 1663.78 1372.54 1812.74 1364.19
00053985 00000126 1598.56 721.06 652.79 868.88 1661.94 1017.36 1882.90 1002.86 1649.88 1148.93 1668.85 1370.50 1819.36 1361.34
00053986 00000127 1617.90 689.16 660.72 895.81 1674.48 1006.96 1910.50 984.55 1674.19 1146.87 1685.14 1365.68 1852.69 1351.84
00053987 00000128 1650.58 670.98 669.03 919.77 1696.64 1008.08 1946.45 979.40 1712.60 1142.26 1715.68 1364.34 1903.06 1343.30
00053988 00000129 1666.23 686.55 670.58 893.44 1716.58 1013.16 1975.31 976.59 1738.46 1132.22 1736.94 1355.46 1944.68 1327.91
00053989 00000130 1669.90 674.80 666.71 900.05 1723.45 1004.86 1985.45 971.55 1748.23 1123.59 1740.91 1349.01 1952.58 1324.03
00053990 00000131 1666.02 675.12 669.84 902.68 1718.53 1007.71 1976.75 974.58 1739.85 1122.57 1735.31 1349.21 1936.40 1324.50
00053991 00000132 1662.87 660.25 669.88 924.10 1718.40 997.87 1968.88 971.66 1734.81 1118.41 1730.98 1342.98 1919.17 1323.94
00053992 00000133 1670.62 664.96 660.60 908.30 1722.90 985.40 1970.71 961.98 1734.31 1103.63 1731.09 1329.98 1918.55 1313.02
00053993 00000134 1680.61 650.02 649.19 903.16 1728.70 961.20 1977.72 939.60 1734.98 1080.46 1740.60 1311.64 1936.76 1294.04
00053994 00000135 1682.19 615.14 657.69 904.04 1734.17 956.60 1988.88 921.92 1743.83 1053.03 1735.93 1293.46 1952.09 1265.78
00053995 00000136 1701.67 612.35 645.44 842.23 1752.75 915.22 1996.42 876.93 1750.06 1011.53 1747.56 1249.30 1957.93 1218.70
00053996 00000137 1710.07 582.16 637.49 823.82 1759.30 888.87 2004.90 850.08 1764.49 971.81 1744.61 1211.24 1955.32 1180.66
00053997 00000138 1701.30 585.74 625.65 798.33 1763.52 861.45 2005.75 825.52 1760.58 924.32 1739.79 1174.43 1933.56 1144.39
00053998 00000139 1673.04 520.94 663.17 850.90 1763.69 830.51 1992.32 795.77 1737.03 897.81 1729.39 1151.06 1899.80 1121.15
00053999 00000140 1657.61 491.55 670.53 862.25 1769.11 804.26 1965.44 775.82 1714.26 893.57 1717.16 1127.72 1863.37 1104.26
00054000 00000141 1646.16 480.86 678.25 864.66 1783.44 790.88 1960.51 765.37 1697.73 876.04 1711.97 1110.42 1844.64 1088.71
00054001 00000142 1647.76 484.78 674.47 852.18 1783.30 789.77 1962.01 763.04 1700.31 874.70 1716.35 1105.94 1850.29 1083.27
00054002 00000143 1658.69 495.88 665.82 857.31 1767.21 803.31 1969.33 767.84 1710.67 876.49 1723.73 1121.28 1881.85 1091.41
00054003 00000144 1692.67 527.92 635.76 841.61 1758.79 829.68 1994.12 781.83 1748.72 884.04 1738.54 1149.40 1917.20 1110.95
00054004 00000145 1709.69 536.68 624.77 855.43 1764.07 857.85 2004.44 795.13 1766.46 901.86 1757.17 1176.74 1953.37 1123.81
00054005 00000146 1713.12 561.56 614.34 826.72 1757.27 869.96 1990.95 803.94 1766.31 919.12 1750.84 1172.32 1941.22 1117.29
00054006 00000147 1692.79 559.77 619.46 824.49 1737.38 883.60 1972.71 815.53 1744.12 936.10 1729.97 1180.45 1918.99 1125.62
00054007 00000148 1676.83 549.18 614.46 836.11 1722.92 881.60 1954.13 825.68 1729.49 949.24 1712.04 1182.89 1890.33 1139.01
00054008 00000149 1665.85 542.79 632.82 856.05 1722.37 886.53 1948.47 828.77 1715.30 955.19 1710.56 1191.44 1883.30 1146.15
00054009 00000150 1676.51 534.97 626.48 859.48 1725.75 884.36 1959.32 829.41 1725.12 953.23 1715.57 1191.99 1897.32 1149.13
00054010 00000151 1684.85 541.83 630.07 849.51 1730.92 886.05 1971.06 829.37 1734.67 948.54 1722.34 1192.50 1915.80 1148.04
00054011 00000152 1687.33 567.53 629.92 829.60 1735.43 887.83 1974.93 828.62 1741.58 947.10 1727.58 1195.12 1915.26 1148.27
00054012 00000153 1690.87 575.14 624.78 845.92 1749.33 882.66 1971.91 836.31 1742.86 955.71 1735.22 1190.27 1903.66 1151.95
00054013 00000154 1695.83 570.08 619.25 840.94 1756.26 878.97 1978.14 834.86 1747.82 952.86 1743.56 1186.96 1912.50 1150.42
00054014 00000155 1704.77 574.66 622.83 819.89 1756.59 871.25 1990.79 824.06 1756.78 937.28 1745.19 1179.04 1932.78 1140.00
00054015 00000156 1710.65 574.15 616.30 802.38 1760.99 871.63 1997.41 812.89 1761.50 921.92 1741.15 1175.56 1949.34 1126.10
00054016 00000157 1707.74 563.63 624.01 791.31 1762.93 861.24 1994.58 806.56 1758.99 913.92 1743.06 1161.38 1949.60 1115.84
00054017 00000158 1704.81 533.92 628.15 821.55 1760.75 859.15 1992.05 805.26 1753.65 911.72 1742.52 1159.72 1947.05 1115.12
