Video ID: 	uIjt2gTxWdE
H: 	1080
W: 	1920
FPS: 	25.0

FRAME INDEX X0 Y0 W H [Landmarks (5 Points)]

00001975 00000000 804.35 115.06 326.83 517.28 835.72 338.52 958.22 338.52 828.47 414.68 832.29 514.99 926.70 516.15
00001976 00000001 805.06 118.59 327.46 532.59 838.30 341.38 963.46 341.76 835.10 420.47 839.21 521.54 936.62 522.68
00001977 00000002 806.43 115.11 329.13 545.73 840.14 341.69 967.34 343.66 838.13 423.06 844.19 527.77 941.01 529.77
00001978 00000003 808.61 114.76 329.17 548.40 840.44 343.48 966.78 346.14 841.04 426.73 846.22 532.20 939.16 534.79
00001979 00000004 811.61 111.13 325.59 549.17 839.25 345.39 963.21 349.10 838.98 429.28 843.77 536.03 930.50 539.79
00001980 00000005 812.62 110.57 322.31 550.97 837.55 346.30 959.63 352.36 836.64 432.45 840.91 539.40 922.32 545.13
00001981 00000006 812.24 116.03 320.40 545.75 833.35 349.60 956.78 357.05 835.97 437.05 837.50 542.97 916.70 549.74
00001982 00000007 808.54 131.71 324.25 541.06 831.70 357.43 957.48 367.94 837.85 444.00 832.86 550.30 914.86 559.31
00001983 00000008 808.92 142.04 318.79 544.46 833.28 372.33 951.52 381.11 840.48 456.72 839.55 561.90 918.33 568.89
00001984 00000009 803.91 144.67 318.23 539.92 829.67 374.69 946.91 383.42 837.45 457.41 835.66 560.29 915.83 567.24
00001985 00000010 798.96 143.74 317.38 535.24 825.55 371.37 944.42 380.44 835.33 453.75 831.15 554.70 912.83 562.00
00001986 00000011 797.30 138.84 319.60 528.63 822.81 363.54 945.58 375.85 834.48 451.38 826.25 545.29 913.45 555.42
00001987 00000012 795.50 140.41 320.81 521.40 830.17 363.37 947.68 368.25 834.80 452.05 832.73 544.78 922.83 549.00
00001988 00000013 795.54 137.00 320.30 529.12 822.20 361.63 945.13 372.49 831.74 448.43 828.89 542.24 919.69 550.89
00001989 00000014 790.40 139.39 325.20 528.42 818.41 368.82 940.63 376.09 827.67 451.76 828.63 545.59 919.34 550.96
00001990 00000015 783.09 156.53 325.26 501.66 817.83 375.09 934.28 377.33 821.01 464.42 823.39 550.33 914.53 553.33
00001991 DELETE   777.97 169.93 321.84 498.36 807.34 381.35 920.41 382.42 808.91 476.95 815.73 561.38 901.67 562.81
00001992 DELETE   767.67 190.42 320.22 492.34 794.18 400.37 908.78 396.51 802.24 495.35 805.41 578.84 888.23 576.40
00001993 00000018 752.24 203.32 326.29 529.57 784.69 421.22 892.11 415.66 788.92 517.62 809.05 610.22 895.90 606.57
00001994 00000019 745.50 203.95 327.09 535.64 775.53 429.10 889.42 428.43 785.27 531.09 804.89 620.42 895.64 620.07
00001995 00000020 747.02 202.24 327.22 535.79 777.93 424.69 890.93 424.60 785.57 526.92 804.81 614.46 898.86 614.79
00001996 00000021 753.91 201.35 324.74 528.98 785.18 416.29 898.55 411.43 792.92 515.18 808.09 604.51 907.20 601.55
00001997 00000022 751.25 188.66 324.72 528.44 784.89 404.42 898.47 399.94 794.06 499.39 806.02 589.98 909.52 587.58
00001998 00000023 749.34 181.82 325.15 525.81 780.52 397.39 896.01 393.01 790.73 489.87 799.27 583.62 901.93 581.95
00001999 00000024 754.07 178.43 320.75 521.67 778.74 396.72 895.23 389.26 778.61 491.07 797.02 589.63 888.01 585.19
00002000 00000025 739.59 174.22 329.77 529.14 769.06 403.76 891.18 392.39 777.17 489.03 783.41 590.78 876.57 582.04
00002001 00000026 739.36 173.42 329.66 529.92 766.60 406.25 888.92 395.20 775.10 491.85 781.56 594.93 871.66 586.53
00002002 00000027 738.69 172.52 331.92 530.48 767.14 405.96 888.37 395.67 773.31 490.64 781.71 593.79 871.82 586.01
00002003 00000028 737.78 170.99 331.98 528.83 768.00 403.01 888.71 394.28 771.64 488.66 780.28 589.03 871.70 582.61
00002004 00000029 738.33 168.69 332.40 527.94 769.68 400.12 890.62 392.63 772.09 486.56 780.46 584.29 875.96 578.76
00002005 00000030 738.45 169.95 332.77 525.75 770.03 398.97 891.42 391.00 773.51 485.08 781.29 582.94 878.20 576.92
00002006 00000031 739.13 170.12 332.55 524.27 770.78 399.39 892.58 390.56 774.24 483.63 782.19 582.86 878.46 576.25
00002007 00000032 738.74 169.49 332.95 524.49 770.84 398.71 893.54 390.05 775.39 483.26 782.63 582.82 878.41 576.45
00002008 00000033 740.56 173.49 330.51 517.18 774.65 391.29 893.60 390.62 777.60 478.53 785.53 576.29 876.46 575.75
00002009 00000034 739.35 169.32 333.73 524.72 772.53 397.06 895.33 387.27 777.38 481.06 785.44 581.05 880.44 573.81
00002010 00000035 741.50 166.42 334.00 526.70 774.15 396.11 897.49 384.27 780.27 480.53 788.57 580.81 884.09 571.89
00002011 00000036 742.39 160.65 336.37 533.15 775.53 393.96 900.19 380.27 783.86 479.65 791.75 580.68 888.55 570.29
00002012 00000037 745.49 160.94 335.40 529.15 779.69 392.46 903.91 378.51 788.82 478.26 796.83 577.82 892.25 567.25
00002013 00000038 754.47 165.95 324.31 508.45 784.84 384.45 899.96 380.13 783.10 475.38 795.05 567.18 882.42 564.19
00002014 00000039 756.48 162.10 323.44 508.06 787.09 382.50 901.34 379.01 782.81 472.72 792.97 565.51 879.35 563.28
00002015 00000040 752.53 152.66 331.41 523.40 789.58 375.38 896.45 375.47 780.47 465.71 794.34 566.17 875.49 566.66
00002016 00000041 760.20 146.63 327.62 536.04 794.93 366.57 902.72 372.42 784.25 453.94 795.22 561.94 866.59 566.87
00002017 00000042 761.35 143.96 325.16 539.10 785.88 360.20 904.11 363.75 773.84 447.29 784.14 561.69 875.19 566.79
00002018 00000043 763.59 141.45 323.41 542.85 788.29 357.68 908.79 361.58 778.58 442.16 785.10 558.15 879.26 563.46
00002019 00000044 771.89 148.21 321.66 543.03 805.47 360.20 918.04 362.84 804.46 438.62 808.33 558.32 882.22 560.29
00002020 DELETE   778.82 146.05 332.34 562.94 808.25 361.38 922.84 355.26 805.76 445.36 821.97 575.44 901.37 573.17
00002021 00000046 785.25 151.40 332.29 558.98 819.92 361.28 935.57 354.36 822.02 445.42 839.33 575.89 919.15 572.21
00002022 00000047 785.86 151.71 321.12 546.73 819.76 362.82 942.33 362.58 835.10 441.02 831.34 561.92 915.31 561.51
00002023 00000048 782.67 151.78 325.70 529.79 816.32 359.57 939.11 361.35 829.98 438.11 823.80 553.89 907.62 554.94
00002024 00000049 777.64 147.99 325.47 524.38 814.20 357.45 934.06 361.25 824.80 436.10 817.73 547.89 897.95 550.73
00002025 00000050 774.56 148.91 326.40 523.73 811.78 360.19 929.59 363.67 821.45 438.40 813.96 548.89 892.87 551.43
00002026 00000051 777.06 157.41 326.31 515.91 810.99 371.37 930.35 374.07 822.27 449.22 819.09 556.81 898.96 558.30
00002027 00000052 779.84 162.05 332.68 517.30 808.16 381.21 933.26 378.22 815.82 465.79 819.66 567.56 913.32 567.95
00002028 00000053 781.78 162.54 330.08 512.94 809.79 381.09 939.16 376.47 819.66 464.21 821.97 567.62 919.49 566.60
00002029 00000054 785.05 156.30 329.01 515.35 819.30 365.44 945.60 366.59 826.79 449.77 823.56 552.71 920.68 556.60
00002030 00000055 786.90 142.05 327.11 517.67 820.82 363.36 947.81 361.23 835.65 436.94 824.45 543.58 914.60 541.88
00002031 00000056 787.58 136.88 331.78 512.22 820.86 360.19 951.04 355.19 834.56 430.56 824.79 535.03 919.19 531.14
00002032 00000057 787.75 134.40 331.37 512.44 823.11 357.86 954.28 354.53 837.32 429.85 828.12 532.01 922.59 529.43
00002033 00000058 786.42 132.91 333.39 529.12 823.53 362.70 956.74 358.22 839.65 433.32 833.02 540.66 926.75 536.75
00002034 00000059 785.22 132.32 333.47 531.11 821.79 363.74 952.14 360.22 838.32 434.40 830.94 543.19 921.48 540.08
00002035 00000060 779.81 143.80 330.94 519.56 819.52 362.13 944.53 362.73 836.49 437.96 829.10 543.13 913.65 542.88
00002036 00000061 780.27 151.33 327.96 527.18 819.57 365.60 941.75 363.96 835.34 440.15 828.44 554.93 911.83 552.95
00002037 00000062 779.23 156.23 328.45 528.68 818.25 369.77 940.11 365.29 833.80 442.13 831.62 561.12 914.87 556.60
00002038 00000063 779.06 155.50 327.42 523.21 819.97 370.84 945.09 366.44 838.25 442.64 835.49 556.83 923.44 552.09
00002039 00000064 779.19 148.33 334.58 522.76 821.10 367.39 950.70 366.46 839.20 444.00 832.22 546.05 929.08 544.28
00002040 00000065 778.65 149.96 334.10 516.47 821.75 365.01 952.14 364.65 841.02 442.28 833.14 542.14 931.11 540.57
00002041 00000066 778.66 147.77 334.30 523.58 821.95 365.85 953.23 364.75 842.41 441.07 834.12 544.38 931.67 542.40
00002042 00000067 779.76 150.17 330.39 524.33 822.85 364.57 953.82 364.24 841.89 441.55 836.21 548.15 932.94 546.64
00002043 00000068 780.78 147.57 330.61 526.71 821.68 366.83 952.11 365.13 842.04 441.87 835.84 551.48 927.31 549.06
00002044 00000069 782.90 146.84 327.25 528.04 821.66 365.37 949.59 364.39 841.92 441.82 835.78 552.56 921.50 550.96
00002045 00000070 782.31 148.05 326.42 525.78 820.83 366.39 946.21 365.46 841.36 443.02 836.14 554.51 919.26 552.95
00002046 00000071 781.78 153.31 325.01 525.27 820.92 370.25 943.06 368.54 839.27 445.38 834.95 558.23 917.31 555.94
00002047 00000072 781.78 157.03 326.21 525.08 819.62 374.49 939.77 370.14 836.14 447.60 834.48 561.65 916.47 557.28
00002048 00000073 780.92 154.59 326.65 522.40 818.71 376.43 938.89 374.14 834.14 450.23 833.78 560.98 915.56 558.16
00002049 00000074 780.30 155.00 327.27 515.99 817.10 376.79 938.21 374.61 832.24 450.51 832.23 558.17 915.91 555.14
00002050 00000075 778.75 153.98 330.74 514.45 815.37 373.95 938.16 372.91 829.90 449.52 826.56 553.41 915.25 551.49
00002051 00000076 777.75 152.92 332.58 512.03 815.40 371.27 938.01 368.77 829.02 446.08 826.78 550.33 916.36 547.06
00002052 00000077 775.99 151.25 335.12 515.61 814.33 370.55 937.45 368.32 828.05 445.23 825.19 550.65 914.37 547.66
00002053 00000078 773.95 150.34 335.31 516.83 813.17 370.72 937.54 368.06 827.50 443.68 824.67 551.82 913.45 548.37
00002054 00000079 773.48 150.03 333.41 519.04 813.08 369.42 936.82 367.31 827.26 443.47 825.60 552.51 913.49 549.37
00002055 00000080 773.11 151.21 333.98 522.46 812.46 370.02 936.62 366.26 826.32 442.59 825.76 554.84 912.92 550.34
00002056 00000081 772.04 152.17 333.22 524.20 811.44 369.14 935.46 365.21 826.30 441.53 824.87 556.02 911.22 551.31
00002057 00000082 772.41 153.39 332.79 522.29 810.86 368.31 933.88 364.18 824.21 441.16 824.41 555.19 910.65 550.27
00002058 00000083 773.09 151.17 332.19 520.53 812.83 366.84 934.81 363.67 824.87 439.68 824.69 552.51 910.93 548.53
00002059 00000084 772.29 148.94 335.34 521.64 811.62 368.36 936.70 362.98 823.83 438.68 823.59 549.53 914.28 544.00
00002060 00000085 772.36 142.97 338.32 530.95 807.57 365.04 941.23 356.34 817.44 436.75 816.49 548.74 926.16 543.83
00002061 00000086 775.97 141.30 336.07 541.24 811.10 360.75 945.37 352.30 819.79 436.67 821.45 552.77 934.34 547.11
00002062 00000087 779.53 137.54 333.76 535.47 815.88 362.80 947.76 355.56 823.61 437.01 822.97 548.77 930.23 544.93
00002063 00000088 785.60 138.99 327.51 525.50 819.00 367.55 945.24 358.78 831.88 432.85 827.20 546.89 917.13 539.74
00002064 00000089 787.73 134.44 327.26 534.71 820.92 364.36 948.37 356.85 835.74 431.88 829.22 548.62 916.75 542.70
00002065 00000090 788.61 136.79 327.12 535.76 820.84 364.10 951.07 356.91 838.69 432.80 828.87 551.63 917.34 546.06
00002066 00000091 789.51 135.21 327.16 535.15 821.28 365.03 950.44 356.81 837.20 432.72 829.35 550.29 918.90 543.79
00002067 00000092 789.66 136.44 326.49 522.35 820.44 364.75 947.37 360.16 831.51 435.60 826.49 542.05 920.81 538.20
00002068 00000093 786.22 137.63 326.95 529.06 819.33 364.34 946.82 362.44 830.41 439.35 826.98 545.28 921.93 543.48
00002069 00000094 786.70 144.73 323.87 529.28 817.38 368.94 944.92 366.79 831.05 444.39 828.09 553.97 921.13 551.81
00002070 00000095 785.77 148.22 328.99 534.86 816.84 368.10 936.52 358.00 819.28 446.74 830.81 562.60 921.14 557.63
00002071 00000096 785.47 150.15 325.58 532.28 813.66 373.89 935.99 371.73 827.19 448.36 824.77 563.10 908.43 560.96
00002072 00000097 785.51 149.95 325.29 530.17 816.64 374.89 939.09 372.75 830.13 447.55 825.78 563.28 908.22 561.29
00002073 00000098 787.46 143.79 325.29 532.22 820.73 369.81 945.25 369.44 835.51 445.17 826.18 556.40 913.18 556.35
00002074 00000099 791.32 137.75 322.87 533.07 822.66 365.77 945.59 365.62 835.60 442.49 827.94 554.15 912.10 554.32
00002075 00000100 789.00 136.89 323.17 530.95 821.12 364.72 943.64 363.28 834.58 441.27 826.26 552.22 910.65 551.35
00002076 00000101 786.90 139.78 327.03 525.53 821.32 367.11 944.90 365.37 836.76 443.36 826.48 548.80 913.61 547.72
00002077 00000102 787.76 139.38 336.32 530.99 824.52 376.72 955.41 369.19 845.07 446.06 836.27 550.34 929.81 543.75
00002078 00000103 790.42 137.29 347.06 534.95 833.37 377.88 975.10 369.00 864.61 446.66 852.80 549.02 954.59 540.89
00002079 00000104 796.40 148.91 348.39 531.36 857.16 374.31 994.45 356.91 895.00 443.11 886.10 555.41 987.92 540.15
00002080 00000105 804.06 156.86 346.02 551.33 860.99 368.54 1005.56 352.21 911.44 436.88 892.14 551.39 1017.75 539.22
00002081 00000106 802.25 157.50 353.90 563.65 864.05 365.66 1011.36 346.70 919.96 433.78 897.59 554.69 1032.97 539.59
00002082 00000107 801.57 157.50 358.77 565.06 866.07 365.63 1015.20 343.21 928.03 430.28 902.74 554.37 1042.48 536.29
00002083 00000108 804.61 156.53 358.45 563.03 870.00 367.68 1019.32 342.19 933.44 428.97 906.12 553.62 1048.96 533.20
00002084 00000109 806.03 155.91 360.63 559.39 874.27 369.81 1025.32 343.90 941.04 432.98 909.81 552.40 1055.37 531.93
00002085 00000110 809.30 155.43 361.09 552.47 879.44 371.75 1031.72 344.86 947.07 433.74 912.44 546.96 1060.44 525.69
00002086 00000111 808.11 139.75 365.77 554.90 878.81 368.23 1035.58 346.30 947.25 440.02 911.20 544.78 1055.35 527.11
00002087 00000112 809.96 139.84 368.31 547.60 883.95 365.52 1040.62 344.67 953.72 439.11 916.05 541.39 1058.16 524.68
00002088 00000113 818.00 142.51 367.55 549.49 896.17 362.58 1051.86 343.65 966.58 436.74 924.21 541.96 1066.45 527.23
00002089 00000114 830.38 144.28 364.82 547.62 912.64 358.45 1071.63 338.79 989.91 432.45 941.39 543.54 1083.94 528.56
CROP_BBOX: 530 0 1411 865
