Video ID: 	owSSspl5_lc
H: 	1080
W: 	1920
FPS: 	25.0

FRAME INDEX X0 Y0 W H [Landmarks (5 Points)]

00031073 00000000 707.29 265.16 358.68 588.25 757.73 503.26 903.27 526.13 783.55 630.35 765.12 714.76 875.89 732.97
00031074 00000001 704.75 266.01 366.58 587.38 756.12 504.63 900.40 525.28 780.97 629.67 765.82 714.40 875.85 730.59
00031075 00000002 704.11 265.13 360.94 589.78 756.02 500.31 895.29 522.64 776.74 626.06 766.18 715.16 867.89 732.81
00031076 00000003 702.15 260.12 361.24 597.05 754.27 500.88 892.28 522.45 774.92 623.17 765.55 714.61 865.72 731.68
00031077 00000004 702.57 260.74 353.67 595.79 754.32 499.58 893.33 522.44 776.28 624.31 764.91 714.24 866.64 732.39
00031078 DELETE   705.16 262.27 352.71 596.38 757.57 499.06 896.78 523.31 780.32 626.94 767.87 715.10 871.22 734.52
00031079 00000006 706.08 264.15 359.66 596.59 758.77 500.68 901.44 522.72 783.80 627.79 769.59 716.75 877.44 734.36
00031080 00000007 705.26 264.87 364.75 595.82 756.70 499.14 899.78 520.15 780.68 627.82 768.29 715.92 876.72 732.71
00031081 00000008 704.80 260.10 366.37 594.88 756.73 497.31 900.88 518.53 781.55 624.47 767.40 711.27 877.79 728.19
00031082 00000009 706.07 253.44 362.41 598.84 756.25 494.38 901.98 516.21 781.74 622.93 767.01 708.14 881.42 725.32
00031083 00000010 708.61 251.72 362.20 601.04 759.04 493.93 904.53 515.91 785.01 623.87 770.27 708.42 886.15 725.51
00031084 00000011 711.66 251.70 362.20 602.69 761.52 493.23 906.69 515.23 787.80 624.34 772.98 710.58 888.13 727.70
00031085 00000012 713.93 258.43 364.67 596.42 764.94 501.18 907.87 521.87 790.21 624.25 778.17 711.76 892.85 727.81
00031086 00000013 715.49 256.72 364.10 598.80 767.21 502.90 910.78 524.15 793.70 624.81 779.64 711.90 895.01 728.42
00031087 DELETE   716.91 250.78 363.93 603.31 768.55 497.61 914.28 521.62 797.31 625.60 780.38 710.13 896.94 728.89
00031088 00000015 718.15 255.58 363.90 598.30 770.57 494.80 919.40 518.67 800.47 626.89 781.82 709.21 900.87 728.10
00031089 00000016 723.60 254.06 363.44 601.89 773.48 496.08 924.42 519.03 805.93 628.98 784.98 711.17 907.01 729.55
00031090 00000017 729.29 256.28 365.24 601.87 772.55 499.23 931.89 522.16 809.85 636.46 783.53 709.96 908.18 729.22
00031091 00000018 730.56 264.82 371.37 598.07 777.79 499.27 938.02 523.47 815.13 640.33 793.14 711.81 917.78 731.67
00031092 00000019 731.92 268.23 370.15 595.40 778.22 500.40 940.47 524.92 815.94 642.91 794.98 711.71 922.80 731.59
00031093 00000020 731.17 267.93 371.28 591.95 778.72 499.61 942.44 523.81 818.50 642.10 795.35 709.50 925.68 729.09
00031094 00000021 728.84 273.79 373.21 585.86 787.10 503.71 942.42 520.42 827.93 635.88 799.12 709.05 924.17 722.52
00031095 00000022 727.56 271.63 375.53 587.61 787.01 501.82 942.79 518.63 829.50 635.49 798.67 705.99 926.15 719.37
00031096 00000023 728.38 261.74 372.10 594.73 783.41 495.13 935.24 515.08 821.30 628.41 794.83 701.76 924.74 717.91
00031097 00000024 726.10 254.58 370.63 599.24 783.38 492.06 934.41 512.10 822.62 624.21 795.23 700.00 923.59 716.19
00031098 00000025 723.74 255.52 372.48 594.65 782.93 489.86 933.24 509.23 822.85 621.55 795.48 699.14 922.85 714.72
00031099 00000026 721.72 250.36 375.51 599.11 781.50 486.86 931.76 506.16 820.69 616.80 793.40 696.89 921.94 712.09
00031100 00000027 718.55 243.03 372.37 602.83 780.27 482.36 930.92 501.90 820.29 612.09 790.32 694.50 918.14 709.94
00031101 00000028 714.58 238.99 377.41 605.56 777.15 478.14 930.87 497.24 818.61 609.79 787.67 692.98 915.62 708.01
00031102 00000029 712.69 241.29 378.90 601.97 776.89 476.16 931.11 493.97 820.34 606.51 787.90 692.33 913.90 706.49
00031103 00000030 712.80 241.07 379.22 602.86 777.28 475.18 931.59 492.56 821.42 605.29 788.25 692.06 914.53 705.78
00031104 00000031 712.10 237.34 379.67 601.01 776.60 473.24 931.50 490.24 821.34 604.39 789.03 688.96 915.00 702.22
00031105 00000032 712.24 229.28 380.26 605.45 776.99 472.07 930.48 490.24 819.84 601.73 787.68 683.19 916.40 697.05
00031106 00000033 712.93 230.44 376.41 598.99 780.77 469.38 930.54 490.19 820.45 594.03 787.39 672.47 916.78 688.45
00031107 00000034 712.85 223.43 377.94 602.32 786.54 468.10 932.32 490.66 823.81 585.61 788.17 663.04 917.28 680.41
00031108 00000035 713.35 221.34 375.57 604.67 785.11 458.06 933.03 478.51 822.95 574.44 787.33 656.50 919.29 672.36
00031109 00000036 714.69 217.56 375.29 609.28 784.29 454.11 934.62 470.64 820.85 568.93 786.40 655.94 919.48 668.74
00031110 00000037 713.21 219.20 378.93 609.52 781.50 453.96 934.14 468.04 819.67 572.01 785.83 660.88 919.55 671.72
00031111 00000038 710.87 223.13 381.71 605.30 777.53 462.38 928.77 472.83 819.25 582.90 788.82 671.99 913.58 680.00
00031112 00000039 706.87 225.07 385.54 603.64 771.88 467.63 924.87 476.10 816.69 587.25 785.49 678.69 907.53 685.35
00031113 00000040 704.55 221.33 381.16 609.01 767.30 469.54 920.71 476.70 813.48 587.60 781.53 683.84 898.11 689.97
00031114 00000041 698.83 219.82 380.17 610.15 760.16 468.01 911.09 475.37 805.46 583.33 777.25 684.84 884.06 691.43
00031115 00000042 692.99 217.07 381.99 619.88 758.63 475.60 903.78 479.11 795.92 579.41 775.34 682.95 883.13 686.37
00031116 00000043 694.74 220.26 378.77 609.02 753.20 472.25 902.96 478.09 796.31 582.65 771.36 684.82 877.87 689.82
00031117 00000044 685.55 223.02 385.63 609.11 753.26 479.12 909.85 484.49 796.79 587.84 769.74 686.28 883.79 691.55
00031118 00000045 692.63 226.30 380.28 599.98 748.76 475.92 905.94 482.76 796.20 594.13 770.46 689.00 883.38 694.47
00031119 00000046 692.18 227.56 379.10 599.46 748.00 477.13 902.81 484.15 793.92 594.87 769.40 689.04 880.62 694.60
00031120 00000047 692.23 228.05 377.67 599.83 747.14 476.64 900.19 484.44 790.91 596.42 767.96 687.74 881.06 693.73
00031121 00000048 691.96 228.34 376.76 598.38 747.65 477.45 902.19 484.82 793.75 597.00 769.59 686.81 885.78 692.25
00031122 00000049 693.67 230.51 381.47 597.54 750.33 479.43 905.88 486.21 797.09 599.71 774.39 688.01 895.08 692.58
00031123 00000050 691.37 232.92 383.58 601.07 749.85 478.72 908.26 483.73 799.07 600.80 775.61 690.30 899.14 693.56
00031124 00000051 690.62 235.24 386.69 604.31 751.68 479.09 912.72 483.62 803.79 603.44 777.31 693.77 903.19 696.96
00031125 00000052 691.88 238.46 389.28 600.13 754.84 480.29 918.63 486.00 810.41 606.75 781.57 694.65 910.82 698.75
00031126 00000053 693.74 239.75 396.34 598.98 757.08 482.45 922.37 486.63 811.48 610.65 784.75 698.79 914.72 701.51
00031127 00000054 694.24 240.27 392.40 598.30 757.28 482.60 921.69 487.47 812.04 609.90 784.39 700.28 911.09 703.81
00031128 00000055 695.78 237.62 391.67 604.36 758.88 481.42 923.15 487.34 812.31 610.41 784.36 701.56 910.83 706.17
00031129 00000056 695.11 235.19 392.47 610.39 760.96 480.27 925.07 486.84 814.87 609.37 786.46 701.83 912.15 707.28
00031130 00000057 695.74 236.30 392.23 609.91 762.79 478.88 925.27 484.32 817.04 608.31 790.56 701.69 913.73 706.39
00031131 00000058 696.14 236.57 394.28 609.57 763.24 478.95 924.88 484.09 816.76 606.39 790.29 701.09 912.62 705.52
00031132 00000059 697.36 237.05 394.10 608.24 764.02 479.19 925.66 484.41 816.98 607.09 790.83 701.09 913.81 705.45
00031133 00000060 697.87 235.21 391.11 609.02 764.18 480.43 924.80 485.85 817.20 607.43 790.56 700.37 914.80 704.64
00031134 00000061 699.60 234.46 389.06 605.16 765.35 481.85 925.95 487.00 818.68 607.81 791.58 699.58 916.65 703.45
00031135 00000062 701.51 237.97 391.66 599.77 767.73 482.76 930.21 487.96 821.92 608.37 792.60 699.06 920.20 702.75
00031136 00000063 702.17 237.05 392.37 595.50 767.36 481.82 932.26 487.77 823.10 607.19 791.10 697.58 920.60 701.75
00031137 00000064 704.29 235.84 389.77 596.40 768.76 480.67 932.83 487.75 823.99 605.85 789.41 695.99 918.08 701.35
00031138 00000065 705.42 233.50 388.79 600.71 770.74 479.15 934.21 486.29 826.37 604.56 790.50 695.43 918.94 700.77
00031139 00000066 706.05 231.82 390.10 604.48 774.87 479.00 932.04 485.04 828.87 604.23 800.83 700.33 917.47 705.14
00031140 00000067 706.90 233.17 390.62 603.19 776.36 480.08 932.18 485.64 830.50 604.39 803.87 701.13 918.81 705.51
00031141 00000068 706.24 234.59 390.82 598.70 776.54 480.10 931.31 485.35 830.86 603.61 805.36 700.45 917.53 704.60
00031142 00000069 706.35 235.38 391.41 597.84 776.12 480.98 931.89 486.15 831.33 604.78 805.50 701.00 919.12 704.92
00031143 00000070 707.72 235.51 391.15 599.78 777.69 482.56 933.35 488.21 831.82 605.72 805.46 701.39 921.25 705.66
00031144 00000071 708.27 234.66 391.62 599.69 778.24 483.45 934.59 488.74 831.83 606.37 805.79 700.76 923.25 704.67
00031145 00000072 708.95 235.17 392.83 599.64 778.16 482.91 935.56 487.79 832.24 606.36 805.91 701.24 925.05 704.71
00031146 00000073 708.19 235.80 392.38 600.04 778.75 484.47 935.42 488.59 833.50 606.33 807.51 701.86 926.86 704.56
00031147 00000074 708.02 233.91 393.17 604.24 777.80 486.11 935.95 489.14 833.39 606.54 806.83 702.46 929.25 704.22
00031148 00000075 706.79 234.13 395.00 603.65 776.96 485.82 936.29 488.65 833.57 607.03 806.50 702.00 931.12 703.39
00031149 00000076 706.40 235.85 394.69 601.35 776.59 485.20 936.15 488.13 833.29 606.77 806.67 701.49 931.08 702.92
00031150 00000077 706.02 236.23 394.65 601.53 775.24 485.49 935.19 487.92 832.37 607.60 807.04 701.82 932.70 702.66
00031151 00000078 706.14 236.60 393.73 599.43 774.48 484.86 935.28 488.03 831.69 608.13 805.18 701.53 931.75 702.95
00031152 00000079 705.44 236.96 394.23 597.43 774.17 485.11 935.98 488.68 832.05 608.31 804.16 700.34 932.17 702.00
00031153 00000080 705.06 235.97 395.51 596.61 773.90 485.81 936.45 488.99 832.52 608.61 804.11 699.88 933.76 700.96
00031154 00000081 704.42 239.24 396.30 592.19 773.16 486.68 936.94 489.00 832.95 609.53 804.00 698.96 935.95 699.22
00031155 00000082 704.65 237.46 396.15 594.50 773.30 486.92 935.64 488.93 832.79 609.76 804.26 698.64 936.16 698.64
00031156 00000083 704.19 237.82 398.27 593.44 773.54 487.09 936.05 489.13 833.53 610.15 804.14 697.05 937.54 697.02
00031157 00000084 704.64 238.19 398.43 593.29 773.74 487.20 936.03 489.37 833.18 610.36 803.90 696.75 937.61 696.83
00031158 00000085 705.60 240.63 396.88 590.10 774.30 488.21 938.71 490.88 834.23 611.47 803.18 696.29 939.89 696.77
00031159 00000086 706.83 238.99 396.90 592.87 775.21 489.62 939.82 491.77 835.31 612.06 803.86 696.29 942.68 696.26
00031160 00000087 707.64 237.39 396.67 596.20 776.56 489.68 940.66 492.56 835.12 612.46 804.23 696.43 942.99 697.05
00031161 00000088 710.96 237.58 393.61 601.63 780.06 491.24 941.11 495.05 837.18 612.04 805.62 697.68 942.95 699.43
00031162 00000089 712.19 240.48 392.80 601.97 780.24 492.83 940.49 495.38 836.58 612.12 806.63 698.34 944.46 699.10
00031163 00000090 711.75 240.94 393.88 604.28 780.53 492.56 939.39 494.27 836.64 612.25 808.56 697.92 946.64 697.85
00031164 00000091 711.38 240.31 394.51 606.67 780.18 492.36 940.02 494.00 836.96 612.57 807.73 697.68 948.07 697.48
00031165 00000092 710.22 239.35 395.39 608.75 779.12 492.92 938.35 493.96 835.75 612.78 808.54 698.00 948.75 697.12
00031166 00000093 707.46 240.79 398.02 609.47 775.13 493.59 935.18 493.51 829.79 612.84 804.51 698.79 947.11 696.80
00031167 00000094 706.44 236.60 394.17 609.47 772.41 491.02 931.29 491.91 826.11 610.31 799.36 697.22 939.79 696.11
00031168 00000095 703.59 235.43 389.83 609.16 768.28 486.66 929.65 492.52 821.19 609.10 789.09 693.29 931.18 696.56
00031169 00000096 702.84 236.51 387.73 605.67 766.84 483.91 928.38 494.97 817.02 608.91 782.16 689.25 922.99 696.85
00031170 00000097 701.16 236.58 385.76 605.46 765.90 481.56 928.58 495.64 813.91 607.73 776.83 686.45 918.95 696.54
00031171 00000098 699.60 239.37 381.27 600.49 761.76 482.56 926.91 497.77 811.73 608.14 772.60 686.52 913.75 697.74
00031172 00000099 695.42 237.63 379.00 600.86 754.68 482.96 918.18 499.50 803.02 610.21 767.26 685.94 904.99 698.09
00031173 00000100 691.74 234.16 378.96 604.97 748.65 484.35 912.05 499.35 798.33 609.40 762.18 686.44 899.31 697.60
00031174 00000101 686.92 237.42 378.72 600.19 744.02 484.99 910.25 499.04 795.91 610.02 759.80 687.58 897.18 698.15
00031175 00000102 683.05 237.28 382.47 604.75 740.28 484.70 909.54 496.30 796.35 612.22 758.33 689.70 898.26 698.21
00031176 00000103 677.63 238.09 386.47 602.72 736.29 485.69 908.61 495.02 796.03 613.05 755.58 688.93 899.61 695.47
00031177 00000104 668.27 249.93 393.36 585.58 733.65 497.68 897.24 500.29 787.58 616.14 754.03 688.37 900.27 690.37
00031178 00000105 664.06 244.61 390.22 595.00 726.57 497.97 884.93 501.91 779.16 616.71 751.14 691.34 892.04 693.56
00031179 00000106 663.46 244.46 387.15 596.53 722.49 503.91 877.99 508.08 772.64 618.57 749.80 692.08 889.22 694.08
00031180 00000107 664.08 245.92 384.02 597.38 722.41 514.10 875.87 513.49 773.55 620.06 755.08 696.47 892.68 694.35
00031181 00000108 661.33 247.08 388.26 601.97 719.74 513.04 873.73 512.51 770.75 622.73 755.53 700.10 892.44 698.19
00031182 00000109 661.47 250.22 386.80 611.05 720.84 518.26 871.91 515.90 769.21 624.68 754.64 704.35 891.97 701.29
00031183 00000110 661.07 253.35 385.90 610.01 719.46 517.73 870.80 516.21 766.48 624.25 750.44 704.46 888.66 702.27
00031184 00000111 657.67 254.66 387.59 605.21 716.22 518.50 870.51 517.73 765.22 625.98 746.86 704.36 886.26 702.79
00031185 00000112 654.41 256.76 391.23 603.18 712.69 517.26 867.05 518.26 759.38 626.26 742.92 704.14 882.36 703.84
00031186 00000113 652.85 253.22 391.19 605.37 710.88 516.46 865.84 519.90 755.00 624.91 737.73 702.15 878.95 703.47
00031187 00000114 651.10 253.43 387.30 606.17 709.74 515.70 864.67 519.78 754.62 623.83 734.30 701.95 876.74 703.93
00031188 00000115 651.75 252.78 385.58 607.44 708.35 514.79 862.81 517.73 753.29 624.10 735.05 703.74 876.13 704.79
00031189 00000116 650.10 247.12 386.86 613.92 707.17 509.12 859.58 513.81 750.33 621.43 730.97 700.70 870.92 702.89
00031190 00000117 647.87 241.56 385.61 614.95 704.64 499.87 857.99 509.43 746.86 618.17 723.60 697.16 863.27 703.06
00031191 00000118 649.15 242.80 382.17 617.68 705.91 498.91 857.67 510.21 746.73 622.22 724.71 699.96 861.84 707.63
00031192 00000119 649.67 249.49 381.68 613.13 704.44 502.68 858.05 512.43 746.54 623.88 725.18 703.76 863.07 710.30
00031193 00000120 648.39 247.01 379.19 613.87 700.02 499.50 852.54 513.51 738.19 624.23 718.45 703.41 855.44 713.27
00031194 00000121 643.27 242.61 383.28 616.87 692.70 497.39 844.14 513.84 725.98 624.89 709.71 702.62 847.23 713.66
00031195 DELETE   641.60 243.75 376.17 614.52 689.76 500.68 843.50 517.90 724.23 627.92 707.82 704.93 847.11 716.89
00031196 00000123 638.44 245.80 373.35 621.34 689.42 507.58 845.41 522.69 729.12 632.36 708.59 711.62 849.33 722.29
00031197 00000124 633.62 253.25 378.81 625.07 684.61 512.36 838.29 525.15 721.84 639.98 707.73 720.62 844.02 729.86
00031198 DELETE   628.30 252.18 382.40 625.09 677.11 517.46 831.70 527.74 713.66 642.46 702.93 729.02 832.22 736.93
00031199 DELETE   625.31 258.98 378.18 615.01 671.67 516.67 825.29 529.24 708.41 644.71 695.23 726.94 820.86 736.68
00031200 00000127 626.89 260.70 368.27 614.39 673.48 517.78 828.24 532.57 713.29 651.71 698.35 729.48 823.14 741.19
00031201 00000128 625.96 268.71 370.06 618.78 679.88 527.87 828.34 540.78 716.87 649.98 706.66 736.67 824.08 747.08
00031202 00000129 626.78 271.87 372.17 628.19 681.63 530.59 829.92 538.93 718.96 652.66 711.53 742.77 831.53 749.21
00031203 DELETE   624.13 274.59 375.12 625.29 680.17 533.26 827.48 541.00 717.11 654.44 711.03 743.35 829.60 749.20
00031204 00000131 624.02 272.29 370.63 618.00 678.53 533.15 827.98 545.49 716.37 657.16 705.49 737.83 825.74 747.34
00031205 00000132 625.29 272.29 370.56 614.78 680.89 534.32 830.10 548.59 717.42 660.44 706.95 736.54 827.66 747.49
00031206 DELETE   627.56 273.11 371.31 617.85 682.27 534.13 831.38 547.35 718.83 660.77 708.97 736.39 830.58 746.29
00031207 00000134 626.33 274.97 378.34 626.96 682.34 529.92 832.89 539.30 719.11 659.31 709.81 740.48 832.96 747.57
00031208 DELETE   627.64 272.86 379.46 625.79 680.26 522.31 830.39 533.63 714.31 654.57 707.22 737.23 832.27 745.86
00031209 00000136 631.00 264.61 375.38 629.25 678.03 513.09 830.21 525.78 710.55 649.74 702.11 733.32 830.37 743.25
00031210 00000137 633.18 262.13 374.73 630.61 681.46 506.09 833.22 522.47 710.62 646.17 702.42 728.94 832.45 741.47
00031211 00000138 634.68 259.52 374.58 624.69 684.39 503.75 838.24 521.98 713.94 643.84 703.20 725.29 833.71 739.41
00031212 00000139 635.84 259.58 376.14 613.49 685.78 502.12 838.37 520.02 715.78 640.02 704.98 720.37 833.19 734.12
00031213 00000140 637.12 258.56 376.38 608.32 686.45 498.59 838.29 516.34 715.66 637.42 707.33 718.10 833.97 731.53
00031214 00000141 639.21 256.49 374.18 608.13 689.07 493.86 840.19 512.03 718.09 632.40 710.00 715.06 836.73 728.98
00031215 00000142 642.98 252.32 372.53 609.73 691.21 491.83 842.18 510.27 719.34 629.46 710.46 712.44 836.65 726.41
00031216 00000143 646.53 249.47 369.86 609.68 693.18 489.23 844.58 508.16 721.54 627.28 711.61 709.73 838.42 724.20
00031217 00000144 650.25 251.49 367.56 606.82 695.68 488.10 846.34 505.26 723.50 623.87 713.69 708.73 839.50 722.13
00031218 00000145 651.84 250.43 367.16 608.04 699.59 488.34 847.56 502.65 729.16 619.43 718.74 708.94 840.78 720.54
00031219 00000146 654.05 248.85 369.02 606.36 701.64 486.20 849.02 500.00 730.12 616.09 719.94 707.48 839.29 718.88
00031220 00000147 659.88 242.22 367.81 609.97 697.78 481.06 858.05 495.82 733.90 624.97 721.85 707.84 840.45 720.46
00031221 00000148 661.75 236.86 365.71 613.12 700.26 478.96 860.38 493.78 737.08 624.68 723.87 705.91 844.23 718.62
00031222 00000149 665.28 238.80 364.43 607.87 706.58 480.83 861.74 493.69 744.41 620.17 729.76 705.16 842.78 716.22
00031223 DELETE   663.93 237.17 369.77 599.23 720.40 483.90 858.78 501.99 751.32 608.06 737.28 696.52 843.65 712.15
00031224 00000151 666.56 240.39 367.40 592.72 723.52 484.63 861.10 499.63 755.64 602.83 741.24 693.89 847.26 707.19
00031225 00000152 669.67 238.75 368.53 596.00 723.79 481.90 863.13 495.63 755.30 599.96 740.06 692.57 851.39 704.63
00031226 00000153 671.61 232.57 369.94 605.00 726.13 478.75 866.24 494.30 756.96 599.69 737.96 689.50 853.80 703.02
00031227 00000154 673.17 231.00 373.71 614.69 727.78 476.86 869.30 490.54 756.07 597.24 736.72 688.67 857.36 700.54
00031228 00000155 677.71 229.51 368.39 618.67 730.38 472.92 872.51 485.35 757.80 593.00 738.21 688.54 860.41 699.29
00031229 00000156 678.93 222.44 369.02 619.96 733.04 470.66 875.34 482.45 762.20 590.02 742.14 684.68 863.57 694.81
00031230 00000157 681.69 217.80 367.69 613.50 735.78 469.55 880.07 480.70 765.28 587.44 743.82 675.85 870.00 685.05
00031231 00000158 681.98 216.58 371.64 603.81 737.84 470.17 885.15 482.51 767.12 585.50 743.29 671.46 871.40 681.61
00031232 00000159 685.20 213.60 370.38 601.92 739.99 469.51 887.98 483.22 769.46 585.49 745.22 669.83 872.70 680.97
00031233 00000160 688.61 213.34 367.39 599.44 742.36 469.11 891.04 484.19 772.36 586.50 746.76 668.82 874.18 681.23
00031234 00000161 687.37 211.75 372.26 610.74 744.23 466.44 897.68 485.78 777.55 578.85 749.35 665.20 869.12 681.66
00031235 00000162 688.87 214.04 371.58 612.55 746.46 467.28 897.42 485.64 779.26 579.46 750.50 669.19 865.95 684.86
00031236 00000163 688.58 213.97 374.93 617.27 748.15 466.18 899.41 484.50 780.57 580.80 750.75 674.15 863.31 690.02
00031237 00000164 688.25 213.11 376.00 622.85 750.53 464.73 902.60 482.39 784.25 580.09 752.10 677.02 863.51 692.46
00031238 00000165 688.99 212.82 377.09 628.47 754.43 460.63 906.49 478.85 790.27 578.42 757.00 676.88 868.72 692.69
00031239 00000166 690.59 211.71 377.23 628.51 757.94 459.47 909.53 476.41 795.14 577.13 762.57 678.21 872.72 693.01
00031240 00000167 694.89 209.83 376.54 622.46 761.53 459.03 915.61 476.53 800.16 575.35 766.93 670.62 885.08 685.82
00031241 00000168 700.44 211.30 372.44 614.09 764.58 454.84 920.82 474.13 806.61 577.92 767.37 669.75 887.14 685.84
00031242 00000169 706.72 213.01 372.61 613.11 777.72 454.43 931.69 479.92 815.60 576.35 772.05 665.43 894.34 686.50
CROP_BBOX: 291 0 1473 1070
