Video ID: 	FHLepbxu1ZA
H: 	1080
W: 	1920
FPS: 	25.0

FRAME INDEX X0 Y0 W H [Landmarks (5 Points)]

00038045 00000000 814.17 266.23 434.24 590.05 922.93 458.87 1119.14 461.50 1013.06 573.29 934.81 677.34 1094.36 678.90
00038046 00000001 828.34 273.80 428.06 597.40 935.36 466.34 1134.88 469.78 1031.52 588.75 951.73 696.33 1112.95 697.81
00038047 00000002 837.35 279.65 430.01 616.52 941.70 479.39 1144.02 483.58 1042.01 606.21 955.95 712.05 1128.35 714.13
00038048 00000003 840.25 280.33 427.88 620.48 946.27 485.11 1147.49 491.95 1046.00 608.84 955.65 714.98 1133.43 719.14
00038049 00000004 843.54 277.19 428.18 621.20 949.67 482.16 1152.26 490.94 1048.63 607.55 955.91 711.66 1133.10 717.45
00038050 00000005 845.37 277.10 432.48 619.84 951.86 477.88 1156.78 488.62 1049.44 606.73 953.42 706.29 1134.71 713.81
00038051 00000006 846.71 274.08 432.97 623.27 954.45 473.96 1158.05 484.60 1051.20 602.91 954.90 702.89 1137.58 710.22
00038052 00000007 841.70 276.84 434.33 614.53 946.09 469.49 1152.71 475.69 1044.27 594.78 953.43 699.78 1135.75 703.40
00038053 00000008 833.98 270.48 431.50 612.81 933.94 470.57 1131.81 466.24 1026.33 587.80 951.04 695.55 1126.53 690.03
00038054 DELETE   813.40 282.99 432.19 595.23 906.65 476.38 1105.93 466.71 999.12 587.70 931.94 694.41 1112.73 684.39
00038055 DELETE   785.71 272.64 444.19 598.30 869.68 489.67 1068.53 466.25 959.22 592.38 908.00 706.00 1083.53 684.09
00038056 DELETE   761.75 278.93 437.39 594.23 840.29 497.29 1035.92 472.56 929.56 608.28 886.22 718.72 1054.67 696.85
00038057 00000012 748.64 278.78 434.94 587.94 819.75 495.35 1011.02 484.49 894.82 615.37 850.72 710.73 1014.44 702.35
00038058 00000013 744.15 279.46 432.79 586.37 814.04 488.95 1008.56 488.29 884.94 612.06 832.64 705.81 998.72 706.17
00038059 00000014 749.44 278.71 424.99 588.37 821.82 485.35 1016.43 493.97 887.15 609.67 828.88 702.75 995.39 710.90
00038060 00000015 759.00 287.58 420.22 600.64 840.47 485.72 1038.21 500.15 910.36 613.02 841.62 707.30 1009.79 719.58
00038061 00000016 763.85 288.28 422.52 606.26 846.60 496.43 1043.03 504.25 923.79 623.63 853.71 718.55 1024.42 724.65
00038062 00000017 763.07 286.61 427.55 607.87 848.45 498.60 1045.43 500.57 933.08 625.63 864.72 723.29 1034.44 724.23
00038063 00000018 765.09 284.84 427.41 603.80 851.58 497.37 1047.88 496.13 939.32 618.30 871.25 720.78 1040.06 718.69
00038064 00000019 769.14 279.85 424.75 600.04 859.20 490.72 1054.53 487.82 947.59 607.99 874.36 711.43 1047.94 707.74
00038065 00000020 769.36 275.35 437.31 599.96 873.74 471.23 1078.45 471.10 971.92 589.88 887.75 695.39 1067.49 693.46
00038066 00000021 775.81 255.59 441.68 615.09 892.54 458.21 1097.35 460.73 996.52 572.92 902.04 683.86 1082.77 683.99
00038067 00000022 777.55 249.84 444.07 613.77 895.89 458.60 1105.06 461.15 1003.20 568.49 905.98 679.47 1090.49 679.27
00038068 00000023 775.75 254.03 444.11 607.06 896.08 462.88 1105.80 465.38 1006.10 573.54 907.38 681.68 1092.41 681.50
00038069 00000024 775.88 262.25 441.40 601.61 891.56 468.36 1099.04 469.24 996.53 580.62 904.14 687.36 1085.76 685.92
00038070 00000025 768.13 262.64 441.15 596.76 873.69 467.55 1080.17 459.25 977.03 580.92 897.39 689.73 1075.84 680.45
00038071 DELETE   759.20 249.24 443.46 596.64 855.90 460.99 1061.77 451.05 952.84 568.31 885.89 683.23 1064.61 673.91
00038072 00000027 751.34 243.54 439.82 586.55 845.42 447.32 1045.13 437.83 939.27 554.52 881.96 671.76 1037.77 663.42
00038073 00000028 746.96 250.27 427.75 564.10 833.07 450.97 1029.38 440.83 923.33 554.30 868.03 670.85 1019.43 663.14
00038074 00000029 737.11 248.27 432.48 562.77 818.96 453.50 1018.78 441.13 905.66 563.41 855.80 675.11 1008.35 665.32
00038075 00000030 739.67 237.52 428.33 583.86 817.44 453.85 1009.99 452.34 889.16 565.98 843.43 672.74 982.56 671.81
00038076 00000031 741.45 239.51 431.57 590.70 823.08 447.85 1009.11 447.98 894.10 561.71 840.26 665.23 989.61 665.08
00038077 00000032 739.54 235.82 433.61 593.15 827.30 442.28 1011.07 442.38 899.80 554.01 847.61 662.84 990.03 662.86
00038078 00000033 728.91 237.49 439.47 589.98 819.32 441.25 1005.82 434.49 896.61 547.26 844.63 660.30 992.28 654.30
00038079 00000034 710.94 236.87 439.17 592.96 796.32 447.48 990.92 432.28 879.20 547.74 830.28 670.87 991.89 656.28
00038080 DELETE   691.43 247.60 442.32 595.31 771.33 462.83 971.07 441.12 859.40 564.47 816.41 689.89 981.91 670.48
00038081 DELETE   673.76 269.11 441.45 585.19 754.38 479.61 952.32 463.43 834.42 589.08 791.75 704.21 951.57 690.62
00038082 00000037 666.83 272.00 429.92 576.62 733.77 490.95 928.21 479.81 811.71 607.21 775.12 716.88 915.84 707.67
00038083 00000038 654.78 280.40 432.02 573.52 721.18 502.04 915.31 491.10 798.65 614.34 760.37 725.63 901.02 716.46
00038084 00000039 652.95 282.47 432.79 586.17 722.11 504.74 915.90 496.87 796.85 617.38 754.22 724.36 902.02 717.87
00038085 00000040 654.44 282.90 433.02 579.47 724.41 505.43 916.34 493.35 803.17 618.12 759.47 720.06 909.17 710.21
00038086 00000041 659.89 278.66 433.67 574.27 730.97 497.41 926.67 486.30 815.22 613.47 764.85 711.61 921.37 702.46
00038087 00000042 666.98 278.20 430.86 572.88 749.83 490.56 948.09 479.83 837.05 605.97 782.92 708.15 947.53 699.15
00038088 00000043 675.66 272.79 436.23 582.43 762.81 484.69 962.84 474.53 851.59 597.91 793.88 704.05 962.20 695.31
00038089 00000044 687.17 272.60 436.93 586.89 775.58 484.86 978.19 475.36 864.17 598.57 802.95 706.39 975.80 698.31
00038090 DELETE   704.23 277.30 428.11 587.19 792.66 490.33 987.90 481.37 881.37 599.56 815.36 704.57 985.76 695.73
00038091 DELETE   713.85 275.31 436.39 587.91 809.79 489.36 1010.13 479.54 903.75 599.01 834.39 704.97 1007.43 694.52
00038092 DELETE   728.25 270.12 438.48 591.66 829.16 484.10 1032.60 472.38 931.42 590.50 855.23 697.69 1032.35 685.14
00038093 00000048 745.00 257.65 436.89 586.81 843.05 465.72 1053.16 463.43 938.69 578.84 866.51 686.56 1043.69 684.39
00038094 00000049 756.21 254.98 435.85 585.06 856.43 462.18 1066.08 464.23 951.07 575.58 874.09 680.76 1055.30 681.65
00038095 00000050 764.52 255.55 438.26 584.89 864.48 459.23 1075.08 462.61 959.03 570.28 882.25 680.47 1062.40 682.10
00038096 00000051 773.08 248.95 438.69 590.78 876.59 457.39 1085.62 464.18 971.33 569.11 889.97 677.12 1070.62 680.90
00038097 00000052 782.18 245.01 436.63 593.01 888.64 455.76 1092.17 461.91 980.63 569.74 898.99 675.98 1075.13 679.30
00038098 00000053 784.82 240.75 438.08 596.45 897.22 456.24 1101.97 463.40 994.09 565.12 906.50 670.90 1087.66 674.76
00038099 00000054 788.38 241.32 440.89 602.18 904.35 455.28 1109.59 460.07 1004.51 562.98 914.14 670.07 1098.66 671.90
00038100 00000055 787.48 242.21 444.40 601.21 908.53 457.11 1114.42 454.24 1014.95 560.99 925.34 672.36 1108.35 667.42
00038101 00000056 785.27 245.53 445.41 597.14 908.86 460.47 1113.36 455.19 1018.48 563.21 929.14 673.06 1111.77 666.39
00038102 00000057 780.96 244.83 447.09 597.30 903.28 464.92 1110.13 458.06 1015.65 565.24 925.90 675.63 1110.44 668.17
00038103 00000058 779.04 252.21 443.86 594.53 898.58 468.47 1105.21 459.74 1009.31 575.82 922.46 681.27 1100.09 671.14
00038104 00000059 774.05 258.40 442.60 596.53 892.60 467.76 1098.69 461.74 1001.97 577.92 914.97 685.80 1089.93 678.47
00038105 00000060 765.30 267.67 446.12 601.57 873.82 465.33 1081.16 454.81 979.78 582.66 904.05 692.76 1075.38 681.42
00038106 DELETE   762.97 267.66 432.77 597.55 860.57 465.44 1059.99 459.06 950.76 579.17 883.51 690.35 1048.60 683.44
00038107 DELETE   759.28 271.16 426.34 597.84 850.60 462.61 1045.25 462.78 929.72 575.48 862.42 684.03 1029.75 683.12
00038108 00000063 752.76 254.99 434.67 599.93 839.82 458.76 1040.13 466.22 913.57 572.87 845.21 682.48 1018.54 688.59
00038109 00000064 753.40 253.07 439.02 589.40 838.50 451.42 1040.72 463.13 908.52 565.34 841.69 673.37 1015.64 683.06
00038110 00000065 761.54 244.51 434.04 590.17 847.47 444.99 1050.96 457.96 919.83 557.19 847.06 667.85 1021.46 678.51
00038111 DELETE   772.34 250.10 435.42 588.98 862.67 442.24 1061.60 450.93 935.38 554.88 866.36 661.14 1035.17 667.68
00038112 DELETE   779.72 242.87 441.48 599.37 880.12 446.03 1083.64 451.67 962.47 558.96 888.80 666.51 1059.07 669.03
00038113 00000068 785.18 243.45 444.01 614.41 896.78 455.65 1101.64 454.11 992.84 565.72 911.49 676.25 1086.51 672.46
00038114 00000069 780.56 245.50 452.54 622.01 899.08 467.20 1106.98 457.58 1007.70 571.55 922.45 688.21 1102.23 677.25
00038115 00000070 775.95 255.70 451.61 615.04 895.01 474.46 1100.35 459.58 1007.63 576.60 924.18 692.79 1104.87 677.39
00038116 00000071 768.33 268.43 444.59 596.56 883.38 478.83 1089.67 459.18 998.65 585.05 920.42 699.28 1098.10 680.11
00038117 00000072 757.08 284.35 440.50 582.17 865.92 487.72 1062.19 465.61 976.43 592.48 908.48 706.80 1071.95 686.14
00038118 DELETE   739.00 274.50 439.85 590.54 844.71 491.76 1040.96 478.83 944.27 606.89 883.50 710.53 1045.28 700.64
00038119 DELETE   734.13 276.75 430.99 594.30 828.45 496.90 1018.35 496.40 910.58 617.05 850.94 710.87 1007.80 711.58
00038120 00000075 734.40 286.64 425.31 587.57 819.13 494.24 1009.75 500.48 891.91 615.05 833.55 712.69 976.49 718.36
00038121 00000076 736.27 281.07 426.15 604.68 820.14 486.00 1012.40 501.67 881.12 604.16 818.37 709.32 969.19 723.47
00038122 00000077 743.96 273.95 425.31 597.66 826.26 474.69 1018.42 499.43 883.43 603.34 814.32 697.81 971.57 719.88
00038123 00000078 754.14 268.70 425.60 590.45 834.85 472.95 1031.41 495.30 894.61 603.39 826.33 692.89 992.66 711.37
00038124 00000079 758.22 266.72 430.71 592.63 841.95 470.89 1038.51 489.84 904.43 602.03 838.63 692.08 1007.05 707.46
00038125 00000080 761.41 261.03 434.40 597.99 847.60 469.07 1047.32 481.14 918.55 592.79 848.78 688.52 1026.15 697.71
00038126 00000081 755.40 265.08 437.36 587.53 841.78 468.32 1044.38 467.08 923.16 583.53 859.50 690.90 1033.94 689.63
00038127 00000082 747.14 263.02 436.87 574.90 830.17 473.27 1036.49 460.59 919.83 573.51 862.46 690.12 1037.26 679.18
00038128 00000083 729.34 261.41 445.76 571.88 811.11 477.45 1015.44 453.29 900.49 571.64 850.77 690.77 1018.66 670.27
00038129 00000084 714.05 261.20 447.67 582.27 798.89 485.85 995.10 459.70 885.17 577.58 841.72 696.78 1003.77 671.89
00038130 00000085 709.61 274.61 442.21 581.10 792.47 491.96 985.98 468.53 877.21 587.44 833.31 703.12 996.04 681.81
00038131 00000086 711.77 282.94 428.84 576.34 792.43 498.57 982.59 483.37 873.32 600.34 825.10 710.14 985.82 697.20
00038132 00000087 717.80 283.14 424.03 581.21 794.90 506.11 985.50 499.55 871.17 614.74 820.61 719.81 984.70 714.28
00038133 DELETE   726.27 285.06 431.19 582.60 796.83 511.38 995.51 507.27 875.07 631.68 821.68 723.06 984.77 719.98
00038134 00000089 741.41 289.11 428.71 594.47 819.55 514.77 1011.88 519.85 891.60 643.99 837.92 732.24 999.66 736.22
00038135 00000090 752.67 292.10 422.35 603.66 833.90 508.77 1029.77 518.67 907.12 637.71 844.43 732.63 1012.25 740.86
00038136 00000091 765.11 291.08 421.89 606.81 846.78 503.05 1044.72 514.92 919.86 634.28 851.46 730.65 1019.90 740.50
00038137 00000092 777.71 288.02 421.02 605.33 858.71 495.95 1049.65 508.17 926.30 623.40 858.89 720.89 1023.12 730.89
00038138 00000093 784.86 283.39 418.70 603.47 864.42 488.18 1056.33 502.58 929.64 612.67 861.64 712.92 1027.27 724.65
00038139 DELETE   792.61 275.53 424.88 602.86 875.33 482.66 1073.49 500.58 941.20 609.24 872.22 705.56 1038.81 719.48
00038140 DELETE   795.39 267.63 433.80 610.25 898.55 478.03 1104.03 495.15 981.85 605.98 899.33 703.84 1071.04 718.68
00038141 00000096 799.14 278.29 433.53 602.81 917.00 490.67 1120.23 500.36 1019.58 615.76 923.42 711.26 1099.27 717.90
00038142 00000097 795.37 281.89 433.03 600.24 921.68 504.78 1123.57 501.13 1036.43 626.57 947.93 727.19 1113.55 721.85
00038143 00000098 781.55 280.54 433.53 595.76 906.26 522.95 1108.95 504.77 1028.59 634.55 950.95 746.30 1111.53 728.58
00038144 DELETE   759.89 297.46 438.07 603.77 878.80 524.86 1075.64 501.72 1000.71 641.09 934.17 752.25 1089.47 730.57
00038145 DELETE   730.34 297.89 441.90 610.06 831.01 536.22 1033.57 504.03 946.89 645.40 890.45 757.93 1055.72 730.97
00038146 DELETE   698.59 301.07 447.42 604.05 791.98 535.83 986.35 505.59 892.51 646.47 850.24 758.62 1009.56 731.13
00038147 00000102 685.53 305.16 444.36 597.46 766.33 531.14 962.46 502.75 860.70 645.79 822.56 756.44 984.17 731.15
00038148 00000103 684.91 302.23 436.26 598.23 761.26 526.24 952.91 509.78 843.08 640.05 798.87 748.29 961.76 733.71
00038149 00000104 689.55 299.50 432.85 593.92 766.24 520.61 958.10 514.10 843.06 638.71 793.00 741.63 959.52 735.53
00038150 00000105 697.75 298.77 435.77 606.70 774.60 521.11 965.33 514.58 847.43 639.32 803.34 750.80 961.86 744.12
00038151 00000106 708.68 299.13 434.34 607.78 784.69 524.61 973.80 515.48 852.89 640.81 816.02 754.08 969.99 744.73
00038152 00000107 719.98 297.96 438.37 602.70 789.65 527.82 988.92 514.89 863.98 648.39 825.78 756.23 973.85 746.03
00038153 00000108 726.18 294.73 437.13 593.99 794.38 524.66 993.54 511.68 872.79 643.15 831.05 754.48 975.36 744.53
00038154 00000109 745.49 292.24 425.24 591.39 811.91 509.77 1002.58 504.71 881.11 636.18 844.32 743.61 982.58 740.20
00038155 00000110 762.01 289.73 420.96 588.31 839.30 492.47 1027.21 500.80 907.83 618.00 858.05 727.01 1001.47 734.77
00038156 00000111 777.03 287.61 424.39 586.58 856.23 492.32 1039.66 500.93 919.90 610.16 867.13 716.16 1013.60 723.60
00038157 DELETE   797.27 283.11 420.54 590.11 869.31 491.32 1058.73 499.07 932.08 612.53 880.12 715.76 1030.58 722.32
00038158 00000113 811.39 282.11 422.34 579.78 882.04 489.64 1075.40 500.88 947.61 613.95 888.42 710.11 1043.90 719.47
00038159 00000114 822.91 279.82 420.05 579.52 892.31 487.44 1087.44 501.40 958.68 615.65 898.01 707.91 1058.66 719.97
00038160 00000115 822.12 277.14 418.95 582.20 892.19 487.11 1085.84 498.84 957.56 611.81 900.06 708.34 1057.71 718.45
00038161 00000116 811.72 278.26 423.52 580.27 881.62 487.25 1074.97 494.87 949.99 607.26 891.80 705.14 1049.41 711.89
00038162 00000117 797.36 276.48 421.30 585.30 866.54 490.86 1061.83 494.15 936.63 609.39 885.46 711.42 1047.93 713.96
00038163 00000118 789.35 279.26 423.33 587.29 859.31 494.16 1051.27 496.35 925.54 608.25 874.46 713.38 1034.95 715.36
00038164 00000119 782.13 284.85 425.23 587.63 859.10 496.59 1047.80 502.76 924.59 613.48 870.42 714.99 1029.27 719.79
00038165 00000120 780.72 286.71 424.07 587.42 859.40 496.03 1047.00 503.76 926.46 617.68 870.15 716.02 1027.36 722.27
00038166 00000121 780.77 287.00 423.19 582.23 860.75 496.03 1048.05 504.01 927.83 614.48 872.75 716.08 1025.67 722.57
00038167 00000122 784.97 283.57 422.31 579.80 861.05 495.24 1050.30 502.95 926.63 612.06 872.39 714.31 1027.36 720.51
00038168 00000123 791.86 278.18 417.99 580.42 862.02 493.50 1052.53 498.55 928.19 608.85 876.55 713.18 1030.05 717.45
00038169 00000124 797.27 276.12 418.97 581.70 868.17 491.64 1061.45 500.34 934.33 611.71 881.47 712.82 1037.49 719.85
00038170 00000125 806.02 278.17 419.41 577.15 879.00 493.81 1075.72 503.33 945.18 614.98 892.79 714.89 1050.05 722.82
00038171 00000126 821.85 285.98 415.40 572.57 893.02 491.56 1089.82 508.39 961.95 623.81 901.46 714.53 1052.03 728.79
00038172 00000127 829.50 290.84 411.96 577.19 907.71 497.22 1099.25 509.55 976.87 628.70 917.35 723.27 1066.09 733.81
00038173 00000128 830.44 294.22 418.07 586.54 911.66 502.89 1107.71 517.73 984.88 634.72 919.32 727.92 1075.89 740.78
00038174 00000129 830.52 293.55 421.52 593.63 911.44 509.45 1109.30 526.06 981.29 640.18 916.17 730.80 1078.23 745.05
00038175 00000130 829.61 296.55 424.06 595.04 911.84 509.08 1110.42 529.99 977.98 642.39 909.38 731.90 1071.74 749.89
00038176 00000131 831.68 302.19 429.16 601.06 919.48 507.25 1113.95 536.07 976.10 643.82 906.38 731.05 1071.74 754.93
00038177 00000132 831.52 298.29 429.35 607.66 921.42 507.24 1116.54 536.50 979.38 643.85 907.37 731.30 1074.71 755.31
00038178 00000133 830.80 299.18 427.60 605.07 918.95 507.06 1116.48 532.68 981.10 642.77 908.95 731.22 1078.30 752.36
00038179 00000134 825.99 293.48 423.12 605.32 909.77 506.52 1108.18 527.03 977.80 640.26 908.54 730.43 1075.05 747.79
00038180 00000135 816.28 288.76 424.18 608.71 899.09 500.05 1096.59 516.59 968.61 636.08 902.14 724.98 1067.38 739.52
00038181 00000136 803.24 281.46 423.57 606.03 882.40 502.84 1078.43 509.63 953.05 632.37 892.66 726.06 1059.96 730.76
00038182 00000137 794.46 285.01 422.39 596.61 870.45 498.00 1064.75 502.68 941.55 622.23 884.67 723.05 1048.16 725.86
00038183 00000138 781.56 286.44 425.19 589.51 860.58 497.20 1052.58 501.88 931.67 617.39 872.19 717.88 1035.68 721.21
00038184 00000139 768.33 287.04 422.42 589.36 848.55 497.80 1040.52 502.18 924.19 620.13 862.30 718.01 1025.83 721.52
00038185 00000140 758.95 290.32 419.11 587.24 840.02 498.88 1033.35 504.36 915.99 621.60 853.42 720.79 1017.15 725.59
00038186 00000141 750.27 286.45 426.19 590.38 826.26 498.68 1019.53 502.01 895.55 623.81 844.42 718.03 1002.85 721.61
00038187 00000142 747.17 282.99 425.55 578.80 818.76 495.05 1012.09 497.56 889.37 618.20 837.80 710.52 996.22 713.19
00038188 00000143 744.33 280.24 426.91 574.49 814.40 490.41 1005.71 491.20 882.58 610.33 835.33 706.98 986.31 708.16
00038189 00000144 746.77 278.96 426.51 569.02 815.37 484.70 1007.10 487.20 885.63 607.38 835.66 704.00 985.99 706.39
00038190 00000145 746.92 276.91 433.72 575.44 824.27 479.27 1020.42 482.20 894.22 600.99 842.30 700.43 999.12 703.01
00038191 00000146 752.90 275.40 434.44 582.17 832.47 478.43 1024.83 485.05 896.54 600.44 844.68 698.99 1003.35 704.70
00038192 00000147 767.49 284.94 424.99 574.75 844.38 482.11 1035.30 490.41 909.96 598.90 852.94 698.77 1010.82 705.53
00038193 00000148 778.75 283.63 425.54 582.35 855.63 488.30 1043.92 495.35 919.58 603.21 865.49 705.28 1023.02 710.52
00038194 00000149 789.93 285.91 423.63 580.15 862.73 491.74 1053.26 497.05 927.30 605.61 874.11 708.71 1030.91 712.81
CROP_BBOX: 495 7 1436 1042
