Video ID: 	y1IP94U8jCM
H: 	1080
W: 	1920
FPS: 	25.0

FRAME INDEX X0 Y0 W H [Landmarks (5 Points)]

00035880 00000000 600.54 165.64 357.16 538.61 734.30 389.14 890.16 380.62 857.86 461.41 759.43 563.93 898.19 557.61
00035881 DELETE   614.21 164.99 353.49 529.85 751.31 385.21 904.49 373.70 875.51 457.27 778.16 563.11 912.31 554.98
00035882 00000002 622.83 166.62 356.96 527.01 768.95 379.88 922.24 371.63 894.09 456.85 790.34 559.93 925.54 555.45
00035883 00000003 624.53 162.56 362.72 528.86 786.63 372.22 925.44 369.87 903.93 458.64 811.22 553.06 930.83 552.46
00035884 00000004 630.56 162.73 364.01 525.61 793.44 373.10 933.52 371.49 911.87 456.33 819.81 551.92 939.09 551.58
00035885 00000005 634.89 164.53 361.69 522.88 796.14 374.97 937.50 373.59 915.63 455.42 822.46 552.37 942.94 552.11
00035886 00000006 635.91 166.30 361.10 520.84 796.42 376.25 938.06 374.41 915.78 456.10 822.51 552.99 943.56 552.42
00035887 00000007 636.20 166.06 360.55 520.77 794.83 376.29 936.72 373.84 913.54 456.53 820.61 551.65 942.91 550.65
00035888 00000008 632.62 164.93 363.38 521.00 792.12 374.09 934.17 371.70 910.62 454.75 816.79 548.56 940.59 547.73
00035889 00000009 629.39 163.71 365.06 521.72 789.64 370.87 931.96 369.19 908.66 452.28 814.10 546.34 938.01 546.37
00035890 00000010 625.64 164.58 364.43 521.57 785.61 369.38 929.19 368.21 905.68 452.42 808.43 547.20 933.28 547.95
00035891 00000011 622.18 167.34 363.87 520.95 782.69 371.25 924.53 368.95 900.77 457.76 803.41 549.97 927.83 549.65
00035892 00000012 622.25 171.28 357.62 520.68 775.59 374.92 921.84 372.24 892.08 459.37 792.99 550.33 924.59 549.80
00035893 00000013 618.94 170.47 357.95 520.62 771.57 376.29 918.53 372.95 887.79 457.97 788.61 549.61 921.93 548.17
00035894 00000014 618.06 166.94 358.37 518.54 760.49 383.41 919.29 372.28 889.29 456.10 782.04 554.57 925.83 547.68
00035895 00000015 616.89 165.76 357.70 518.66 758.59 383.80 916.19 372.73 888.12 454.01 780.42 552.64 923.93 545.80
00035896 00000016 616.13 165.27 357.51 519.08 756.22 383.17 914.54 372.29 885.64 453.42 778.05 552.40 922.11 545.65
00035897 00000017 615.61 164.83 356.80 520.43 754.13 382.73 913.03 372.65 883.39 453.25 776.06 552.18 920.71 545.94
00035898 00000018 614.38 165.17 357.61 528.88 752.79 381.63 909.04 373.68 880.07 452.24 773.99 553.74 917.68 549.04
00035899 00000019 611.14 167.29 358.71 536.07 747.96 381.53 902.60 375.49 872.73 455.08 767.90 557.49 910.18 554.16
00035900 00000020 609.22 167.02 355.44 530.34 741.85 385.33 899.04 378.77 864.15 460.27 762.30 557.20 904.84 553.24
00035901 00000021 604.52 166.36 354.84 531.63 735.71 386.16 893.87 382.44 856.57 462.59 754.98 556.70 897.79 554.72
00035902 00000022 601.51 166.74 355.52 539.64 732.78 387.54 888.07 389.92 849.41 466.68 749.02 559.20 889.25 562.10
00035903 00000023 601.54 169.17 355.19 538.91 732.48 390.10 888.17 394.42 847.49 471.69 747.66 560.90 888.34 565.35
00035904 00000024 602.58 170.81 355.10 543.50 736.07 391.12 891.88 395.97 852.51 476.81 749.67 565.35 890.78 570.56
00035905 00000025 604.42 175.73 353.82 543.17 738.38 392.62 893.29 396.90 853.30 482.04 751.70 570.99 890.86 575.86
00035906 00000026 602.67 181.48 354.52 536.45 732.62 397.58 887.50 402.36 842.28 485.45 746.35 572.08 884.09 577.21
00035907 00000027 595.37 184.51 359.98 532.04 716.42 400.94 873.19 404.08 814.76 493.55 729.68 575.15 866.05 578.85
00035908 DELETE   585.18 184.64 363.29 538.25 695.21 401.89 854.80 407.65 783.32 499.41 707.79 579.51 844.72 585.22
00035909 00000029 580.28 187.14 360.10 539.66 683.62 403.87 839.12 416.48 759.35 506.83 690.62 584.29 821.09 596.32
00035910 00000030 579.69 186.26 359.94 537.90 678.44 400.56 833.42 419.32 748.07 507.75 680.80 580.10 812.12 597.48
00035911 00000031 580.40 186.36 360.74 537.68 678.67 398.98 834.16 418.41 747.39 505.52 679.84 578.15 812.78 596.08
00035912 00000032 582.66 185.60 360.88 537.82 682.88 401.14 838.47 417.60 754.37 504.28 686.64 581.31 817.82 596.70
00035913 DELETE   588.47 186.25 360.91 539.66 693.60 406.08 849.88 414.75 774.50 507.90 703.10 588.95 832.34 597.85
00035914 DELETE   595.14 185.19 364.05 538.97 710.42 407.76 868.54 410.89 803.06 502.96 724.22 591.06 854.07 594.95
00035915 DELETE   605.30 186.22 360.19 541.26 728.55 403.60 884.47 405.32 830.20 498.98 743.32 587.82 876.02 590.55
00035916 00000036 612.81 181.12 357.51 542.87 744.64 396.39 901.75 394.72 858.83 488.79 765.06 583.45 898.26 583.05
00035917 00000037 618.34 181.22 354.47 535.08 759.25 393.97 913.68 388.95 879.18 479.18 781.69 580.60 913.24 577.62
00035918 00000038 624.28 175.34 352.56 534.60 765.11 391.62 918.92 383.68 885.49 473.98 789.87 577.65 922.06 572.26
00035919 00000039 626.56 173.31 353.48 533.82 768.35 390.01 921.89 382.69 888.64 472.49 790.20 573.97 923.76 569.47
00035920 00000040 627.44 173.33 354.24 536.40 771.46 387.60 922.25 383.56 890.53 470.23 790.70 571.98 922.41 570.39
00035921 00000041 627.62 174.66 354.97 534.45 773.21 388.22 925.54 384.88 892.49 471.75 791.20 572.00 924.17 571.03
00035922 00000042 627.16 178.80 356.12 530.57 775.31 390.01 928.24 384.19 895.16 472.81 794.73 574.20 927.29 571.05
00035923 00000043 623.76 177.87 360.93 529.03 775.58 384.93 924.55 381.83 892.34 475.23 805.37 570.01 927.54 567.91
00035924 00000044 625.65 179.09 360.23 526.13 778.06 385.48 925.54 380.91 894.67 475.77 809.21 570.11 929.63 566.89
00035925 00000045 626.69 181.10 360.01 522.08 778.73 386.54 926.80 381.15 896.05 475.42 810.32 569.26 931.60 565.51
00035926 00000046 626.16 180.13 360.20 521.22 778.28 386.60 927.39 381.45 895.86 475.86 808.55 569.10 930.97 565.69
00035927 00000047 625.22 179.06 358.66 520.49 779.74 386.24 927.68 382.48 895.26 477.29 807.63 568.91 927.82 566.65
00035928 00000048 626.03 180.93 358.23 520.88 783.45 387.17 930.46 386.08 897.50 480.26 808.58 569.85 927.86 569.62
00035929 00000049 628.19 183.02 357.52 522.36 788.98 389.50 933.09 390.79 901.93 482.20 813.18 570.47 929.55 572.09
00035930 00000050 629.45 181.97 358.14 527.00 790.66 389.87 933.51 391.05 903.08 483.07 814.77 571.20 930.21 572.68
00035931 00000051 629.39 181.32 358.87 527.83 788.64 388.39 932.79 390.25 900.95 482.11 811.37 570.67 929.03 572.71
00035932 00000052 627.94 180.69 361.97 533.16 789.45 385.22 930.94 387.99 899.70 479.60 811.68 568.96 929.31 571.39
00035933 00000053 628.44 179.98 362.25 534.63 790.83 384.15 931.61 387.80 901.63 477.92 811.12 567.75 929.89 570.96
00035934 00000054 631.95 177.06 360.93 534.92 792.87 385.02 934.64 387.69 902.94 479.00 816.25 569.46 932.51 571.68
00035935 00000055 634.82 179.01 359.64 530.67 794.91 385.81 937.96 387.99 906.11 481.22 820.08 571.08 934.17 572.90
00035936 00000056 637.72 180.42 357.82 530.70 799.44 386.74 941.80 390.14 910.19 482.48 823.66 573.67 934.70 576.43
00035937 00000057 641.48 180.63 354.71 529.18 803.76 386.78 946.95 392.24 916.42 480.32 826.82 573.06 937.81 577.70
00035938 00000058 644.06 178.48 353.42 528.58 806.82 387.49 949.59 393.52 922.46 477.17 828.72 571.09 940.64 576.25
00035939 00000059 645.17 180.07 352.94 523.23 807.60 388.16 951.20 394.73 924.86 474.39 830.13 569.38 942.85 575.12
00035940 00000060 639.51 181.15 355.03 521.84 803.84 387.38 949.07 395.36 919.57 474.98 824.34 567.25 939.45 574.28
00035941 00000061 630.37 180.40 356.95 526.15 795.15 386.80 942.01 395.06 909.35 477.75 814.57 569.43 931.54 576.64
00035942 00000062 623.35 179.36 358.04 533.60 786.81 381.55 930.36 389.35 895.66 479.63 805.13 571.31 919.16 578.07
00035943 00000063 624.54 184.59 358.12 539.22 787.08 387.03 933.65 394.87 901.28 476.16 794.03 577.69 920.01 585.73
00035944 00000064 622.76 187.79 358.09 535.88 786.54 391.79 932.68 397.49 902.24 480.03 794.06 579.86 919.76 586.23
00035945 00000065 620.23 188.60 355.87 534.90 779.78 396.09 927.16 398.85 896.81 484.65 789.80 581.02 917.15 584.85
00035946 00000066 616.17 194.26 355.22 530.35 766.35 400.98 916.68 403.53 882.62 490.18 778.01 582.46 908.36 586.16
00035947 00000067 611.15 196.02 354.25 530.84 751.93 401.62 905.95 407.30 865.71 493.53 763.22 582.65 896.43 588.59
00035948 00000068 607.50 199.98 354.72 529.93 745.00 403.06 898.45 410.46 855.24 498.55 750.63 583.08 885.22 590.90
00035949 DELETE   602.15 198.77 359.64 532.59 738.39 413.25 889.44 422.16 839.43 502.69 739.85 585.35 874.10 594.49
00035950 DELETE   593.11 194.46 363.62 535.31 721.44 411.27 875.26 420.14 815.90 506.89 725.05 586.00 858.71 594.89
00035951 DELETE   583.09 198.15 363.86 529.68 697.58 408.85 858.44 415.15 786.62 506.94 708.22 586.44 843.44 593.13
00035952 00000072 575.32 200.58 363.21 530.32 683.03 407.30 840.85 417.71 764.05 509.64 692.24 586.32 826.25 596.37
00035953 00000073 567.93 200.36 363.00 529.78 671.57 405.85 828.22 421.29 745.18 508.21 679.30 583.70 810.72 597.63
00035954 00000074 562.06 200.44 365.04 530.53 666.97 405.79 822.83 422.51 739.89 509.66 674.64 584.31 803.57 599.16
00035955 00000075 559.87 200.51 365.51 530.73 667.08 406.95 823.29 422.28 742.41 508.87 677.73 585.03 807.28 598.55
00035956 00000076 556.83 201.98 367.22 528.70 664.81 409.23 822.76 422.18 743.18 509.98 681.03 587.60 810.41 598.98
00035957 00000077 552.51 201.59 368.87 527.81 658.85 409.11 816.42 418.92 738.38 509.50 679.25 587.66 807.58 596.53
00035958 00000078 546.39 208.26 370.85 522.98 649.54 415.04 808.32 418.55 730.54 506.72 665.33 588.51 803.31 592.23
00035959 00000079 541.43 202.53 373.08 527.62 644.42 415.16 803.26 418.08 724.49 506.71 661.40 590.45 797.40 593.78
00035960 00000080 537.75 197.24 374.18 534.52 638.96 416.74 797.45 416.06 719.23 508.28 659.00 593.62 793.83 594.19
00035961 00000081 535.56 195.97 373.46 532.29 634.38 417.78 793.48 413.52 716.19 507.82 657.80 593.48 793.68 590.94
00035962 00000082 534.07 195.91 372.36 526.23 631.05 417.97 787.71 412.34 712.36 507.05 655.33 589.14 791.76 585.35
00035963 00000083 531.18 195.39 371.79 524.12 625.06 418.42 779.77 411.48 703.79 507.77 649.95 588.67 784.27 583.78
00035964 00000084 531.19 194.97 366.00 530.25 619.69 418.41 770.96 410.73 695.07 514.53 648.26 596.87 774.79 591.96
00035965 00000085 529.96 194.77 363.64 534.38 614.93 419.98 767.58 412.15 689.28 517.51 644.15 602.49 770.09 597.90
00035966 00000086 528.68 199.45 361.35 530.95 611.96 424.47 763.49 416.92 685.15 519.14 641.22 603.42 767.72 598.88
00035967 00000087 528.32 203.90 360.13 525.27 610.67 426.41 762.89 418.92 683.23 517.87 640.05 602.18 767.62 597.63
00035968 00000088 526.75 202.02 362.01 525.53 609.05 429.40 761.73 420.21 681.84 514.79 638.66 600.21 769.87 593.74
00035969 00000089 525.02 199.71 365.31 526.01 606.17 424.23 758.87 412.53 680.36 513.59 639.16 597.97 770.16 589.30
00035970 00000090 524.22 197.18 366.37 527.33 605.41 420.38 756.36 408.40 678.78 511.83 638.62 595.56 768.65 586.65
00035971 00000091 522.53 195.20 367.53 529.19 602.78 418.45 754.65 406.59 675.47 508.73 634.90 593.27 765.47 584.42
00035972 00000092 519.92 195.46 369.29 526.35 601.02 415.57 752.46 404.91 672.25 504.57 631.43 587.90 763.27 579.76
00035973 00000093 517.55 196.34 370.25 517.95 599.12 413.79 750.73 404.31 669.42 500.40 628.12 581.85 761.15 574.30
00035974 00000094 516.12 196.79 369.85 515.18 597.95 413.44 749.14 403.36 668.16 499.36 627.18 580.03 759.43 571.86
00035975 00000095 514.88 195.72 368.38 516.17 595.80 413.68 747.89 402.19 667.10 498.61 626.12 580.31 759.34 570.96
00035976 00000096 512.53 195.37 368.61 517.13 592.91 414.47 745.96 402.14 665.92 498.69 625.16 580.97 759.30 570.72
00035977 00000097 510.32 194.07 369.81 521.02 590.45 414.19 743.57 401.27 664.23 497.90 624.23 581.13 759.91 570.30
00035978 00000098 507.64 194.16 369.53 523.71 587.55 412.41 739.43 400.23 660.49 497.80 622.53 582.38 756.77 572.06
00035979 00000099 503.97 193.82 368.03 529.20 585.04 412.32 734.82 400.97 657.81 499.09 620.66 586.91 751.24 577.30
00035980 00000100 501.00 191.48 365.16 538.24 582.20 413.46 732.79 403.04 655.97 499.70 619.26 594.02 744.95 585.82
00035981 00000101 498.75 192.78 365.20 540.57 580.26 416.87 731.77 405.66 654.06 503.25 618.10 598.77 744.22 590.03
00035982 00000102 497.21 194.97 367.13 532.49 579.56 420.10 731.68 408.26 654.88 506.35 620.36 596.24 748.71 586.35
00035983 00000103 497.12 196.62 369.04 524.78 580.89 420.78 732.52 408.41 657.15 506.61 622.35 592.32 752.02 581.72
00035984 00000104 498.46 195.16 369.11 525.08 583.04 421.40 733.56 407.52 660.99 506.82 626.07 593.01 754.59 581.00
00035985 00000105 501.57 194.21 369.10 528.16 588.01 423.03 739.36 405.71 669.18 503.03 632.68 594.10 761.14 579.26
00035986 00000106 504.21 197.80 376.28 524.11 598.23 421.71 752.38 403.16 684.60 501.33 642.10 590.73 773.61 574.88
00035987 00000107 509.62 191.63 379.37 522.90 613.78 418.36 763.20 389.67 708.93 490.82 663.15 587.45 791.42 563.39
00035988 00000108 521.19 182.44 371.59 522.51 630.22 413.74 784.61 379.88 739.37 482.38 683.48 583.56 815.78 554.47
00035989 00000109 534.87 181.03 368.02 518.97 650.15 413.60 807.14 375.20 770.67 472.18 703.39 581.09 840.75 548.57
00035990 00000110 545.77 174.40 363.08 521.18 660.90 411.36 819.41 368.98 786.42 469.79 717.28 582.20 855.24 546.70
00035991 00000111 550.35 178.92 362.03 518.29 670.35 409.72 827.48 371.84 795.40 471.01 720.60 580.69 857.64 549.79
00035992 00000112 551.92 181.80 360.75 518.10 676.49 405.61 830.74 372.06 799.88 469.77 722.19 579.70 856.25 552.69
00035993 00000113 551.66 179.53 364.23 524.86 681.23 392.89 829.83 370.88 796.16 473.47 731.82 574.20 853.75 556.85
00035994 00000114 553.81 179.56 364.60 523.95 682.88 391.20 834.05 370.14 798.62 472.93 731.16 572.43 856.91 555.62
00035995 00000115 556.77 176.79 362.34 527.85 685.75 389.43 836.62 371.54 801.15 472.25 730.95 570.64 857.51 556.29
00035996 00000116 560.06 173.32 364.62 530.45 690.73 389.37 843.22 370.10 808.39 470.29 737.02 570.72 863.27 555.22
00035997 00000117 567.92 168.69 362.08 536.84 697.92 390.77 849.70 369.88 815.85 473.37 747.28 573.63 870.08 556.19
00035998 00000118 573.40 168.99 359.79 537.70 702.99 392.36 851.77 373.05 819.03 473.88 750.78 573.84 871.20 557.74
00035999 00000119 578.50 169.03 357.45 538.82 708.26 391.30 857.08 374.83 824.01 472.70 752.89 574.00 872.46 560.30
00036000 00000120 580.97 172.40 358.54 537.89 715.24 390.94 863.95 377.38 831.00 472.59 755.20 574.77 875.19 563.40
00036001 00000121 585.20 170.17 358.11 538.86 719.66 391.03 870.01 378.99 837.59 470.98 756.57 573.05 879.64 562.93
00036002 00000122 589.13 167.44 357.28 541.47 724.26 391.25 875.04 382.09 843.33 470.39 757.08 571.66 882.39 564.15
00036003 00000123 592.07 166.48 357.62 539.04 725.29 392.70 879.38 383.40 846.44 471.25 757.68 569.72 887.18 562.07
00036004 00000124 594.65 169.07 356.00 530.05 725.72 395.23 883.36 382.85 848.97 472.43 757.43 568.76 891.57 558.76
00036005 00000125 597.86 168.97 354.09 528.41 729.48 395.27 889.25 381.20 855.58 472.00 760.14 568.91 897.03 557.81
00036006 00000126 600.26 166.38 353.90 533.94 734.47 393.93 892.62 379.18 862.34 471.39 766.65 572.35 899.05 560.69
00036007 00000127 601.84 166.24 354.79 539.33 738.52 393.82 895.90 379.79 866.65 473.41 769.70 575.85 901.57 564.95
00036008 00000128 602.79 168.81 355.02 539.60 741.30 393.43 895.93 382.25 865.75 475.37 772.07 578.85 898.79 570.32
00036009 00000129 602.35 172.33 356.46 539.87 739.67 396.83 895.61 385.36 863.39 478.97 769.72 580.93 899.69 572.07
00036010 00000130 601.74 177.34 355.10 538.33 737.49 400.46 892.70 390.64 857.67 484.86 765.11 583.04 895.55 575.69
00036011 00000131 598.78 178.48 354.95 537.09 732.19 402.44 887.18 393.94 850.26 486.15 758.68 581.18 890.91 575.00
00036012 00000132 595.45 180.41 356.15 535.24 726.37 402.19 880.74 393.41 840.93 489.88 754.47 581.19 884.73 574.50
00036013 00000133 593.05 184.86 357.59 530.88 722.37 404.82 876.80 394.16 835.02 491.81 750.98 581.64 881.93 573.33
00036014 00000134 592.08 187.15 358.53 528.77 720.87 407.90 876.43 396.68 833.27 492.27 749.14 582.63 881.93 573.83
00036015 00000135 592.24 184.24 358.43 532.39 722.40 407.63 876.77 396.92 836.06 491.67 750.77 582.51 882.94 574.23
00036016 00000136 592.73 181.25 357.78 532.87 724.35 406.01 879.63 395.21 839.99 490.90 753.66 582.12 885.03 573.74
00036017 00000137 593.07 181.01 358.31 532.18 728.34 409.46 882.81 400.66 844.55 489.10 754.04 580.61 886.83 574.09
00036018 00000138 593.08 180.89 358.01 532.63 730.74 413.50 883.24 403.38 846.86 488.37 754.27 580.63 888.06 573.00
00036019 00000139 594.01 178.38 357.49 536.21 727.66 406.78 881.25 396.97 844.71 486.66 754.51 579.93 887.29 572.52
00036020 00000140 593.69 175.99 357.83 537.50 724.13 404.07 877.93 392.87 841.41 485.71 754.74 579.45 886.08 570.68
00036021 00000141 593.90 176.07 357.83 539.03 723.99 404.66 876.41 392.79 838.93 488.67 754.89 581.25 884.01 571.89
00036022 00000142 595.85 177.01 357.54 537.90 724.00 405.55 877.62 393.72 838.78 489.38 755.56 582.16 885.28 572.87
00036023 00000143 598.33 175.17 356.55 539.32 728.11 406.24 883.80 394.75 845.28 489.90 758.01 582.59 889.91 573.73
00036024 00000144 603.45 175.70 355.62 540.90 734.05 405.65 890.82 394.82 852.51 490.09 762.03 584.23 896.80 575.96
00036025 00000145 606.43 175.96 355.90 542.50 737.53 403.28 894.34 393.35 855.74 490.34 764.57 584.64 899.10 577.11
00036026 00000146 608.67 180.89 356.73 537.48 739.59 402.90 897.44 393.62 857.20 488.29 765.83 583.21 902.29 576.00
00036027 00000147 610.65 180.69 356.78 534.47 742.75 403.36 900.59 393.03 862.22 486.28 770.05 582.08 906.81 574.02
00036028 00000148 612.13 181.38 356.13 531.13 745.87 402.59 903.21 391.07 866.73 484.12 774.27 580.83 910.86 571.86
00036029 00000149 612.91 181.59 355.84 531.74 748.20 400.41 904.69 389.22 869.34 480.76 775.35 580.01 910.84 571.51
00036030 00000150 614.14 181.66 355.23 533.34 751.10 398.17 906.31 389.65 871.28 478.92 776.26 580.54 909.51 574.53
00036031 00000151 615.12 179.58 354.88 534.19 752.83 397.50 908.24 389.48 874.30 476.61 777.47 579.13 911.65 573.69
00036032 00000152 616.03 178.84 354.42 530.36 753.87 398.11 910.40 387.76 877.20 475.65 781.36 577.50 917.20 569.79
00036033 00000153 616.65 179.97 354.64 529.89 756.06 398.57 911.23 387.49 879.09 476.57 784.28 578.76 918.59 570.35
00036034 00000154 617.13 180.48 354.26 527.83 755.33 400.10 910.99 388.67 878.09 478.06 783.61 579.00 918.35 570.40
00036035 00000155 616.45 182.29 353.77 527.01 754.94 401.68 910.08 390.26 877.19 480.30 782.26 579.30 917.34 570.78
00036036 00000156 614.50 184.79 354.50 527.82 751.25 402.98 907.06 393.07 871.44 483.92 777.65 581.22 912.62 573.95
00036037 00000157 611.72 186.04 357.38 532.68 744.20 404.40 900.96 394.59 860.85 488.26 769.12 583.75 905.64 576.28
00036038 00000158 607.08 186.81 358.37 533.39 733.67 412.56 890.33 406.26 844.40 495.32 754.72 584.53 893.07 580.23
00036039 00000159 599.15 187.35 364.05 533.46 722.06 417.05 876.74 412.52 824.34 499.23 741.91 585.08 879.75 581.96
00036040 00000160 590.09 189.02 365.25 530.38 706.13 412.90 864.62 408.31 804.19 501.78 727.17 585.17 863.90 581.67
00036041 00000161 583.23 191.23 364.14 529.28 693.31 406.02 850.80 405.17 785.12 499.22 714.86 580.30 850.43 580.00
00036042 00000162 579.00 189.14 363.34 534.28 684.28 406.89 839.06 409.09 769.29 504.57 704.53 584.09 837.95 586.38
00036043 00000163 575.44 190.54 363.16 532.63 676.77 405.63 833.73 411.66 757.37 507.94 694.96 583.02 829.99 588.48
00036044 00000164 570.71 191.18 364.03 531.03 669.96 404.30 827.22 414.06 746.75 505.86 685.63 581.08 820.31 589.60
00036045 00000165 567.82 188.50 362.53 530.93 664.10 398.64 819.71 412.10 736.86 498.86 676.10 576.31 807.69 588.42
00036046 00000166 566.02 185.19 361.75 530.17 659.21 393.95 817.13 409.23 730.92 495.41 668.25 573.07 800.88 586.99
00036047 00000167 562.48 182.74 363.20 528.90 655.42 391.86 814.44 408.21 726.35 493.10 661.44 571.22 794.63 586.13
00036048 00000168 561.41 182.11 361.74 527.82 652.62 391.93 810.63 407.19 722.46 493.13 657.66 571.15 789.06 585.38
00036049 00000169 560.04 182.37 360.76 527.08 650.40 392.62 808.27 406.96 720.52 493.64 655.90 571.46 786.75 584.90
00036050 00000170 557.75 182.01 361.79 527.74 648.51 391.99 806.65 405.44 719.43 492.17 654.11 570.66 785.66 583.33
