Video ID: 	y_2CvqXvVVw
H: 	1080
W: 	1920
FPS: 	25.0

FRAME INDEX X0 Y0 W H [Landmarks (5 Points)]

00005045 00000000 1046.97 225.45 413.85 579.13 1107.23 432.80 1275.16 491.97 1118.44 590.92 1091.46 632.41 1234.74 680.04
00005046 00000001 1046.19 231.44 408.08 574.73 1091.25 424.08 1278.53 497.43 1115.47 597.53 1082.87 641.48 1224.64 700.01
00005047 00000002 1040.06 228.69 413.89 582.01 1086.09 425.69 1270.97 487.08 1108.99 595.76 1085.95 644.22 1233.70 690.86
00005048 00000003 1032.75 228.07 403.43 578.92 1083.50 425.70 1263.18 480.87 1108.42 587.10 1085.94 636.66 1231.88 681.39
00005049 00000004 1028.52 233.59 391.83 569.45 1075.51 423.20 1252.12 482.26 1098.07 589.75 1079.39 629.61 1226.37 676.97
00005050 00000005 1019.96 232.23 385.76 565.34 1069.44 421.05 1243.49 482.55 1091.68 591.83 1074.98 624.28 1222.01 672.62
00005051 00000006 1016.72 226.45 384.76 568.04 1065.67 420.18 1240.03 482.19 1087.62 590.27 1071.36 624.02 1216.33 672.34
00005052 00000007 1014.13 221.68 395.19 580.37 1062.99 420.97 1240.86 484.03 1077.43 586.89 1060.06 633.51 1205.22 681.49
00005053 00000008 1012.33 223.62 393.22 578.30 1058.55 419.28 1238.48 483.42 1075.20 585.88 1054.83 634.62 1197.99 683.77
00005054 00000009 1009.26 224.35 396.55 579.34 1058.62 426.32 1232.82 485.70 1072.81 586.54 1055.65 637.88 1195.68 683.31
00005055 00000010 1011.84 237.98 390.79 562.04 1065.24 421.85 1230.81 486.92 1068.89 588.39 1056.15 630.94 1197.76 684.12
00005056 00000011 1007.97 232.23 401.39 574.67 1071.59 430.52 1238.32 484.71 1088.57 595.49 1063.65 641.12 1215.68 684.82
00005057 00000012 1001.85 232.11 403.57 575.03 1068.07 430.34 1235.68 488.40 1088.07 597.26 1057.82 638.31 1210.87 685.18
00005058 00000013 999.44 238.80 401.78 569.09 1068.26 433.43 1232.88 496.71 1085.92 602.63 1055.31 639.46 1207.14 690.39
00005059 00000014 998.99 241.05 396.45 567.23 1068.23 431.76 1232.18 497.96 1082.15 608.04 1053.43 640.40 1204.75 693.43
00005060 00000015 998.15 250.37 397.14 553.36 1056.20 430.18 1221.89 501.19 1063.05 607.28 1051.91 636.33 1194.86 693.45
00005061 DELETE   996.84 245.65 394.48 562.48 1053.49 438.85 1225.43 506.28 1063.27 610.04 1051.94 643.51 1196.37 696.33
00005062 00000017 987.85 248.67 393.19 560.03 1048.48 441.12 1210.49 502.77 1056.60 610.20 1040.53 644.10 1189.56 693.09
00005063 00000018 991.89 246.43 400.26 565.49 1048.02 437.08 1217.71 499.26 1057.22 602.65 1050.54 644.72 1195.31 693.19
00005064 00000019 994.17 245.01 404.60 563.82 1050.90 437.52 1221.27 497.80 1060.14 595.09 1051.01 642.56 1195.23 690.11
00005065 00000020 993.96 244.01 406.26 563.94 1054.05 434.95 1224.26 493.49 1063.07 592.89 1054.44 638.91 1198.18 685.00
00005066 DELETE   992.62 235.14 397.67 571.56 1056.15 431.93 1221.36 485.52 1071.95 597.25 1051.17 638.86 1201.88 681.70
00005067 00000022 994.51 238.95 393.51 565.94 1058.85 437.92 1221.06 490.09 1076.53 601.59 1054.70 641.38 1205.58 683.13
00005068 00000023 1002.34 236.05 398.77 572.11 1066.59 441.26 1228.06 493.15 1083.85 602.95 1064.49 643.48 1215.74 684.97
00005069 00000024 1009.24 242.11 405.29 568.75 1071.42 444.03 1234.74 501.15 1079.97 600.42 1066.49 639.69 1215.03 683.91
00005070 00000025 1008.26 237.12 402.65 575.79 1057.77 442.09 1234.42 493.59 1084.54 604.63 1065.01 640.69 1220.15 681.65
00005071 00000026 1007.85 236.58 406.69 576.44 1059.07 441.06 1239.47 497.26 1088.28 608.83 1065.59 638.80 1222.01 683.42
00005072 00000027 1007.74 239.62 408.94 574.86 1059.81 439.19 1243.56 496.21 1091.98 608.11 1066.31 637.32 1225.44 682.75
00005073 DELETE   1009.16 238.75 400.10 577.31 1059.72 434.90 1242.33 493.96 1090.62 609.19 1067.78 641.14 1225.23 687.18
00005074 DELETE   1010.26 230.93 405.29 590.60 1060.29 424.03 1246.78 483.62 1087.32 604.09 1070.96 642.55 1229.45 689.10
00005075 00000030 1020.06 226.66 413.14 592.47 1069.50 427.10 1250.75 475.90 1094.52 588.11 1078.79 644.25 1236.02 682.22
00005076 DELETE   1016.57 201.46 420.56 617.47 1067.34 411.81 1247.19 455.71 1089.87 583.80 1078.03 647.37 1225.58 683.33
00005077 DELETE   1014.55 196.49 402.97 606.91 1067.65 410.90 1247.99 459.23 1097.44 575.83 1071.64 637.76 1215.23 678.04
00005078 DELETE   1013.11 193.18 394.65 599.78 1067.27 401.49 1246.23 445.19 1097.25 561.17 1068.88 633.25 1207.13 670.04
00005079 00000034 1007.84 187.15 398.78 595.97 1063.40 394.32 1243.76 430.26 1096.01 549.87 1065.77 630.73 1201.81 661.38
00005080 00000035 1005.77 175.82 397.90 599.29 1058.02 387.96 1236.59 419.50 1088.41 535.83 1057.91 618.95 1195.87 646.60
00005081 00000036 999.75 165.25 396.15 602.59 1051.42 383.96 1229.09 408.68 1080.27 521.42 1052.36 614.65 1186.79 636.77
00005082 00000037 997.70 145.98 399.34 623.53 1051.16 377.85 1220.31 397.10 1075.38 507.04 1055.31 611.21 1183.80 628.49
00005083 00000038 996.57 143.97 398.38 626.87 1047.75 373.36 1217.07 388.57 1071.04 500.63 1053.96 609.28 1184.71 623.06
00005084 00000039 995.11 139.43 399.19 628.27 1045.47 371.71 1216.68 384.23 1071.89 498.07 1053.22 608.63 1183.71 620.30
00005085 00000040 995.42 135.30 403.81 631.56 1045.80 372.33 1220.16 384.60 1075.19 500.86 1054.84 608.41 1189.06 619.98
00005086 00000041 998.12 139.74 404.87 627.86 1047.62 373.00 1224.53 386.76 1077.96 504.34 1056.65 609.44 1194.24 622.25
00005087 00000042 999.43 161.79 411.40 605.64 1055.01 376.01 1228.18 389.71 1084.13 506.58 1061.23 609.45 1202.94 620.04
00005088 00000043 1005.27 163.07 414.23 606.86 1063.88 380.86 1238.78 392.51 1096.28 506.59 1070.07 613.14 1212.57 622.48
00005089 00000044 1010.10 162.71 417.47 611.46 1069.40 382.43 1246.17 393.68 1102.11 506.66 1073.98 616.74 1218.92 625.73
00005090 00000045 1010.98 149.78 428.54 630.14 1075.08 386.81 1261.95 399.30 1111.54 511.72 1081.62 620.94 1223.94 631.78
00005091 00000046 1014.15 147.84 430.09 632.89 1079.51 387.15 1268.28 400.04 1116.65 511.57 1085.68 622.26 1228.67 633.42
00005092 00000047 1015.22 147.20 430.02 634.74 1081.75 387.23 1273.20 399.88 1122.71 511.33 1086.46 621.73 1233.51 632.69
00005093 00000048 1016.45 148.28 427.77 632.82 1083.67 386.80 1274.32 399.88 1124.52 510.98 1087.32 619.37 1235.13 630.67
00005094 00000049 1013.39 146.80 427.38 634.24 1083.30 386.52 1273.17 398.49 1124.89 509.84 1087.73 617.89 1235.74 628.15
00005095 00000050 1011.77 155.80 416.45 618.70 1076.36 378.54 1256.98 388.43 1114.78 504.18 1081.70 613.08 1231.87 620.78
00005096 00000051 1007.27 153.78 413.30 613.30 1074.64 378.03 1250.72 389.05 1114.00 498.60 1076.92 606.28 1223.46 615.06
00005097 00000052 1004.49 150.96 406.53 611.24 1070.74 375.93 1242.30 388.32 1108.80 495.16 1071.93 600.95 1215.48 610.83
00005098 00000053 999.15 149.94 404.46 608.14 1062.11 372.60 1233.68 385.03 1097.94 495.17 1065.68 599.40 1205.15 609.52
00005099 00000054 993.08 146.06 401.04 611.10 1052.33 370.27 1225.83 381.07 1088.08 491.85 1058.29 599.11 1196.84 607.91
00005100 00000055 983.87 129.23 404.81 627.87 1038.64 373.43 1213.45 377.92 1075.68 483.53 1050.25 602.04 1183.67 606.42
00005101 00000056 969.82 130.53 408.86 629.05 1026.64 378.65 1203.17 381.39 1062.44 487.74 1042.01 605.31 1175.09 607.78
00005102 00000057 956.82 128.24 412.63 634.96 1015.43 382.04 1191.83 383.72 1049.02 492.27 1029.60 608.35 1164.40 609.93
00005103 00000058 946.96 135.67 410.29 627.43 1002.98 385.16 1177.59 385.77 1036.27 498.43 1017.73 612.47 1152.52 613.14
00005104 00000059 937.45 142.74 404.58 618.03 991.32 380.11 1158.40 384.14 1018.90 498.10 1005.78 609.58 1140.97 613.14
00005105 00000060 926.51 137.38 402.12 625.76 974.50 384.08 1147.50 386.42 1009.85 503.56 993.58 613.32 1124.48 616.56
00005106 00000061 918.09 144.66 404.51 620.45 964.24 385.02 1139.80 390.74 999.99 508.89 979.68 617.42 1108.30 623.64
00005107 00000062 912.68 146.48 406.05 624.86 956.16 389.41 1134.07 394.31 990.49 512.26 971.22 627.45 1095.37 632.98
00005108 00000063 904.91 144.64 411.51 629.71 950.36 390.16 1128.57 394.86 983.10 515.87 966.22 632.92 1087.91 638.39
00005109 00000064 899.14 151.03 412.81 622.95 946.16 393.63 1119.88 403.11 975.66 518.93 964.68 631.75 1080.98 640.54
00005110 DELETE   899.62 139.31 412.41 636.15 943.14 393.93 1113.09 399.71 969.69 515.54 963.29 633.22 1077.13 639.17
00005111 00000066 900.73 135.52 411.05 635.42 943.19 392.00 1111.37 400.22 964.07 510.05 957.56 626.09 1076.86 634.12
00005112 00000067 905.37 133.56 406.05 632.72 944.09 389.60 1106.62 397.54 960.20 507.21 961.24 622.47 1077.10 629.69
00005113 00000068 911.30 140.19 395.22 621.26 946.31 386.97 1103.07 398.08 957.17 507.32 960.48 619.50 1073.94 628.91
00005114 00000069 910.69 144.85 396.03 611.78 946.05 386.50 1100.75 397.76 955.43 508.22 959.88 615.62 1073.62 625.05
00005115 00000070 909.29 144.60 397.97 604.80 943.59 384.94 1099.54 395.58 953.40 509.57 959.43 612.64 1075.87 621.54
00005116 00000071 910.24 141.50 398.50 608.31 943.28 386.40 1096.30 393.52 950.66 508.18 960.12 614.45 1074.45 620.68
00005117 00000072 903.51 143.50 407.50 608.14 936.39 382.61 1097.25 390.37 941.49 510.83 957.03 618.14 1069.98 625.68
00005118 00000073 903.72 147.54 402.17 603.81 938.63 388.68 1089.25 392.56 946.34 509.64 959.85 615.45 1071.34 618.77
00005119 00000074 903.03 150.15 404.19 602.95 938.43 388.82 1089.48 391.61 946.21 509.71 961.13 616.16 1072.39 618.64
00005120 00000075 902.59 143.17 402.65 613.12 939.07 385.20 1092.04 388.87 945.44 505.94 960.49 615.07 1074.92 618.12
00005121 00000076 900.96 139.75 403.92 618.11 938.04 380.53 1092.64 383.59 945.04 501.47 960.63 614.47 1074.12 616.83
00005122 00000077 896.61 138.76 403.07 616.87 936.14 377.93 1094.63 382.34 946.63 498.63 956.40 612.92 1071.68 616.37
00005123 00000078 894.14 137.71 399.03 614.98 934.18 375.31 1094.75 382.62 946.80 499.04 952.12 611.88 1065.84 617.79
00005124 00000079 893.52 134.19 399.50 617.07 922.78 370.50 1096.53 376.46 940.47 500.47 945.28 615.82 1067.72 622.10
00005125 00000080 891.17 137.66 398.58 611.25 918.76 372.61 1093.60 376.44 942.91 500.03 941.87 612.73 1068.56 617.01
00005126 00000081 887.68 138.10 398.14 608.12 916.90 375.28 1092.25 376.36 945.24 500.42 941.16 611.89 1070.98 613.74
00005127 00000082 883.36 141.45 401.24 607.01 915.13 377.35 1091.57 376.57 946.83 502.72 940.91 613.59 1073.93 613.59
00005128 00000083 878.20 155.50 400.74 593.56 921.36 385.77 1079.27 381.52 945.97 500.50 946.31 611.30 1074.77 607.61
00005129 00000084 875.10 155.22 403.16 594.07 921.76 388.93 1084.72 383.07 953.97 502.48 949.15 613.17 1081.73 608.24
00005130 00000085 876.92 160.95 401.40 590.05 924.97 392.58 1090.92 384.10 962.14 503.92 953.42 614.94 1090.78 607.80
00005131 00000086 879.19 163.75 403.69 590.89 928.80 393.90 1097.33 384.03 968.66 506.99 958.16 616.16 1097.79 607.39
00005132 00000087 878.15 157.65 416.43 605.53 934.68 396.57 1113.70 388.03 982.62 514.10 966.66 622.08 1102.77 615.07
00005133 00000088 878.90 161.78 416.85 606.35 938.61 398.02 1120.66 390.04 991.20 517.93 972.97 625.91 1109.24 619.44
00005134 00000089 881.23 162.80 418.38 610.51 942.51 401.41 1126.21 393.24 997.41 520.53 977.13 629.90 1114.84 623.29
00005135 00000090 887.09 167.94 417.99 610.60 948.17 403.17 1131.03 395.67 999.95 522.98 981.22 632.18 1120.90 626.47
00005136 00000091 894.36 175.87 415.50 604.85 952.99 402.57 1136.24 397.61 1002.38 527.32 984.87 633.99 1124.48 630.52
00005137 00000092 899.39 173.65 414.51 611.09 958.69 401.81 1142.08 399.06 1006.25 530.22 990.86 634.57 1130.44 632.90
00005138 00000093 904.46 172.09 413.24 615.45 962.17 401.64 1146.69 398.23 1010.67 532.21 995.01 636.18 1135.65 634.15
00005139 00000094 907.39 173.85 412.73 614.64 964.84 399.80 1150.19 398.89 1013.53 536.28 998.25 636.25 1139.52 636.25
00005140 00000095 911.78 175.31 411.57 614.12 967.07 400.11 1153.36 399.69 1016.31 539.33 1001.13 638.55 1141.74 639.04
00005141 00000096 915.55 176.33 410.93 614.35 968.75 400.36 1153.86 400.55 1017.55 540.32 1002.54 640.18 1142.24 641.23
00005142 00000097 918.86 171.26 408.51 618.47 969.11 401.04 1151.13 402.26 1015.14 541.76 1003.13 639.97 1141.94 641.90
00005143 00000098 916.11 169.51 409.52 621.20 965.36 403.72 1142.37 401.04 1004.72 538.65 1000.11 640.31 1136.72 639.10
00005144 00000099 911.28 166.92 411.60 622.81 959.48 405.90 1121.81 402.58 985.56 533.41 992.14 638.76 1117.59 636.96
00005145 00000100 907.56 168.85 413.21 620.04 950.40 409.71 1105.80 399.92 969.36 528.26 989.30 641.46 1104.91 633.84
00005146 00000101 911.32 171.45 412.57 614.05 948.54 410.52 1100.02 397.93 965.19 526.30 986.85 641.33 1099.84 631.64
00005147 00000102 914.69 168.39 409.76 610.69 949.33 416.72 1097.59 404.01 966.56 530.27 988.74 640.11 1099.91 630.39
00005148 00000103 918.07 157.39 411.38 618.86 952.57 410.92 1104.34 395.96 975.40 526.11 995.17 638.82 1107.40 627.38
00005149 00000104 925.90 161.56 403.49 613.58 962.86 404.85 1115.51 397.83 981.83 520.23 996.88 633.05 1112.69 628.12
00005150 00000105 933.04 166.22 398.95 606.46 966.94 398.55 1122.10 394.37 985.08 517.94 996.69 629.67 1114.54 627.24
00005151 00000106 935.07 164.54 396.37 606.70 966.64 395.36 1119.83 394.36 980.52 518.38 995.19 628.82 1110.39 628.94
00005152 00000107 936.35 166.52 392.71 605.68 966.80 393.12 1114.65 394.38 973.62 518.19 991.38 627.66 1101.91 629.76
00005153 00000108 936.85 166.08 391.14 603.08 965.44 394.38 1111.58 395.89 970.41 516.66 986.71 626.60 1095.45 629.04
00005154 00000109 937.48 159.31 390.99 605.75 966.85 392.33 1116.92 395.93 975.48 516.41 985.93 624.48 1096.78 628.95
00005155 00000110 937.71 149.76 395.50 619.58 967.46 393.67 1125.00 395.94 983.77 516.02 988.51 627.67 1105.55 631.10
00005156 00000111 939.00 156.71 399.40 615.99 971.29 392.49 1130.31 394.71 989.41 516.38 993.75 626.91 1113.08 630.09
00005157 00000112 939.11 153.87 397.07 619.32 969.12 392.04 1126.41 396.18 982.94 517.11 989.44 627.70 1106.50 632.47
00005158 00000113 938.94 157.60 396.29 615.41 968.22 390.55 1120.66 396.16 975.57 517.87 986.75 626.76 1099.33 632.77
00005159 00000114 940.13 160.58 394.58 611.60 968.72 386.35 1121.37 395.56 974.29 518.16 985.34 624.66 1098.34 633.55
00005160 00000115 939.70 156.09 399.07 616.67 970.22 386.86 1127.62 395.01 980.11 516.23 987.19 624.22 1105.13 632.26
00005161 00000116 939.83 153.94 403.40 622.84 975.44 387.05 1137.27 394.15 989.81 516.01 994.31 626.09 1114.02 633.24
00005162 00000117 943.00 160.26 406.71 618.09 980.75 386.80 1142.30 395.10 994.57 516.81 1001.56 626.89 1118.37 634.70
00005163 00000118 945.45 158.55 409.43 620.17 982.61 385.78 1146.65 395.33 997.37 516.23 1002.19 626.27 1120.24 634.99
00005164 00000119 947.90 156.65 409.95 620.13 988.21 384.67 1153.03 396.17 1004.25 515.77 1005.16 623.38 1124.08 633.72
00005165 00000120 953.27 151.75 408.97 622.08 992.87 384.21 1160.06 397.51 1008.31 516.11 1005.81 621.58 1128.14 633.27
00005166 00000121 960.04 158.63 407.39 611.22 998.41 384.14 1166.45 398.02 1015.35 518.98 1014.29 621.51 1136.01 633.13
00005167 00000122 958.92 151.63 417.94 625.20 1005.30 384.61 1178.20 400.50 1025.02 517.37 1017.46 624.48 1141.06 638.52
00005168 00000123 964.57 140.20 419.75 640.95 1010.29 386.06 1186.48 398.86 1029.68 514.96 1020.90 628.60 1147.95 640.51
00005169 00000124 968.84 139.84 418.67 643.14 1013.74 388.67 1191.18 401.43 1034.39 516.60 1025.18 629.23 1154.50 641.09
00005170 00000125 983.21 131.80 411.65 652.60 1022.94 387.46 1189.47 398.20 1037.95 514.08 1037.74 627.76 1163.08 637.84
00005171 00000126 990.67 138.69 404.47 646.72 1027.23 384.66 1189.87 394.46 1040.83 512.00 1043.96 625.69 1167.38 634.75
00005172 00000127 998.77 143.69 394.96 637.66 1034.89 378.94 1195.90 395.28 1043.22 507.72 1044.72 617.32 1168.51 631.76
00005173 00000128 1003.28 136.24 394.05 634.77 1040.68 374.75 1201.22 392.34 1048.91 504.72 1048.17 610.29 1172.00 625.92
00005174 00000129 1009.05 131.85 397.64 635.69 1049.23 373.76 1207.94 388.75 1056.78 500.09 1057.20 608.04 1179.73 621.67
00005175 00000130 1019.33 135.69 400.50 630.22 1058.50 371.25 1217.58 385.25 1063.57 497.57 1066.38 606.93 1187.64 619.58
00005176 00000131 1024.93 142.43 406.86 621.01 1066.28 369.34 1228.44 385.13 1072.78 496.68 1073.49 605.00 1195.23 618.84
00005177 00000132 1032.25 138.24 406.70 627.07 1073.49 372.34 1232.22 388.47 1076.90 496.54 1079.46 604.86 1200.40 618.76
00005178 00000133 1035.80 135.56 409.30 630.48 1077.96 372.84 1236.16 390.09 1080.78 497.52 1083.17 604.50 1203.76 619.12
00005179 00000134 1039.58 139.88 410.21 625.81 1081.92 373.59 1240.96 392.03 1084.09 499.04 1086.34 604.77 1207.71 620.09
00005180 00000135 1041.64 145.04 410.52 618.81 1085.65 370.12 1248.11 393.06 1089.78 497.76 1090.89 602.22 1212.68 621.59
00005181 00000136 1043.61 140.32 412.52 624.98 1087.02 371.91 1252.38 394.10 1092.95 499.37 1092.05 604.55 1217.16 623.46
00005182 00000137 1045.44 139.55 414.12 626.54 1087.29 374.20 1256.15 394.34 1096.39 502.07 1093.43 608.98 1219.36 626.41
00005183 00000138 1047.71 139.48 413.79 629.25 1087.16 374.57 1256.47 395.17 1096.88 504.12 1092.68 611.33 1219.69 629.24
00005184 00000139 1048.93 139.05 412.05 629.68 1087.54 373.49 1257.15 394.90 1097.59 505.01 1092.56 611.93 1218.91 630.60
00005185 00000140 1048.29 137.79 412.83 630.98 1088.25 373.10 1258.86 394.44 1098.97 504.37 1093.06 612.22 1218.58 630.95
00005186 00000141 1050.19 138.61 411.44 630.18 1089.52 372.43 1259.29 393.90 1099.20 502.83 1093.11 611.42 1218.46 630.33
00005187 00000142 1049.85 138.84 411.30 630.38 1090.64 373.02 1262.15 393.95 1101.78 502.28 1093.42 611.96 1220.06 630.52
00005188 00000143 1050.68 141.92 410.96 626.78 1091.30 373.67 1263.34 394.55 1103.75 503.65 1094.12 612.82 1220.55 631.43
00005189 00000144 1050.21 141.79 412.28 627.21 1091.58 373.80 1263.68 394.00 1103.87 503.51 1094.54 613.84 1219.91 631.96
00005190 00000145 1049.18 140.83 412.88 629.04 1090.47 372.83 1263.88 392.55 1102.59 502.03 1093.23 614.48 1217.97 632.37
00005191 00000146 1049.92 140.30 412.44 629.13 1089.68 369.50 1261.32 389.69 1100.93 498.84 1093.34 612.05 1216.34 630.08
00005192 00000147 1049.30 136.66 413.95 634.18 1091.18 368.98 1262.70 387.12 1102.83 495.49 1096.56 611.67 1221.08 627.82
00005193 00000148 1050.61 139.07 412.33 635.45 1094.09 367.64 1263.71 385.72 1104.80 494.39 1100.74 610.59 1224.42 626.55
00005194 00000149 1048.99 138.88 413.41 632.47 1092.76 369.31 1265.33 387.34 1105.62 496.17 1098.86 611.52 1224.46 627.46
00005195 00000150 1047.24 138.02 415.71 631.51 1090.89 368.80 1265.10 388.45 1104.26 496.72 1095.68 609.30 1224.38 626.47
00005196 00000151 1045.67 135.26 417.26 631.73 1088.58 367.56 1262.74 388.74 1102.82 496.69 1091.87 608.55 1219.88 627.25
00005197 00000152 1045.79 135.30 417.29 632.92 1089.72 367.76 1263.26 389.50 1101.51 495.89 1091.25 607.58 1220.41 626.80
00005198 00000153 1048.42 135.84 413.83 636.03 1092.53 372.56 1268.19 390.23 1107.38 498.14 1097.41 613.70 1225.41 629.42
00005199 00000154 1046.46 144.00 415.46 634.29 1092.88 374.46 1269.50 394.32 1108.79 504.97 1097.27 618.17 1225.26 635.84
00005200 00000155 1045.91 144.97 417.03 634.34 1092.14 378.05 1270.32 398.42 1110.62 509.80 1096.43 621.78 1225.42 639.94
00005201 00000156 1043.44 147.56 420.41 634.72 1091.53 380.20 1268.17 403.22 1108.66 517.63 1096.06 623.44 1227.02 643.65
00005202 00000157 1040.25 152.31 423.46 631.75 1089.04 381.75 1267.25 408.24 1109.27 525.32 1094.10 625.45 1226.69 648.52
00005203 00000158 1040.45 154.39 421.82 631.43 1086.47 382.48 1265.92 410.72 1107.32 528.58 1090.81 629.33 1222.69 653.85
00005204 00000159 1040.99 159.97 421.38 627.44 1086.60 384.18 1265.68 412.71 1107.04 530.33 1090.80 632.75 1221.68 657.38
00005205 00000160 1041.82 163.88 420.25 624.23 1085.81 385.07 1264.65 414.25 1104.39 531.82 1088.93 634.78 1221.01 659.92
00005206 00000161 1040.72 161.03 420.45 628.16 1084.87 385.38 1264.41 414.76 1103.61 532.42 1087.62 634.85 1220.57 660.30
00005207 00000162 1039.14 159.44 421.24 631.08 1083.79 385.94 1262.99 415.29 1101.90 532.01 1086.70 635.28 1219.46 660.66
00005208 00000163 1037.29 169.34 419.40 621.62 1082.67 386.85 1262.69 417.83 1101.36 533.08 1085.65 634.15 1218.64 660.50
00005209 00000164 1034.92 177.59 418.82 614.01 1080.00 388.69 1261.83 420.38 1101.42 535.74 1083.64 634.47 1217.79 661.05
