Video ID: 	hpec93exiHI
H: 	1080
W: 	1920
FPS: 	25.0

FRAME INDEX X0 Y0 W H [Landmarks (5 Points)]

00003852 00000000 898.34 192.86 397.32 566.56 955.90 447.61 1119.62 436.68 1027.08 565.51 1005.14 633.43 1141.59 623.09
00003853 00000001 903.05 199.60 398.12 555.92 961.85 447.08 1126.56 435.29 1033.63 564.59 1006.46 630.68 1145.80 620.01
00003854 00000002 904.61 196.11 399.51 552.27 963.97 442.56 1134.92 429.34 1040.75 564.15 1006.31 628.50 1155.09 616.70
00003855 DELETE   907.80 194.05 398.51 551.22 966.34 438.63 1143.64 422.48 1047.23 556.67 1007.81 628.24 1160.40 614.37
00003856 DELETE   907.75 202.95 400.71 536.37 977.71 437.10 1150.43 419.40 1063.20 545.45 1018.77 621.08 1167.72 604.40
00003857 00000005 910.23 200.35 400.92 541.51 980.84 436.99 1154.70 418.33 1068.19 543.67 1021.24 620.17 1171.13 603.09
00003858 00000006 912.81 201.17 398.64 542.63 982.27 439.09 1158.79 419.87 1070.58 546.95 1022.51 622.57 1175.18 604.93
00003859 00000007 913.68 197.16 398.44 548.45 984.15 444.68 1160.92 425.12 1071.74 553.63 1025.69 629.56 1176.00 611.75
00003860 00000008 908.34 204.66 402.93 547.67 985.65 448.60 1160.67 436.92 1065.79 557.33 1027.51 628.48 1174.66 618.24
00003861 00000009 908.94 217.71 401.84 531.51 985.10 451.44 1161.91 440.33 1064.77 565.53 1030.10 632.50 1173.60 622.79
00003862 00000010 910.45 216.01 402.76 543.22 987.16 451.10 1159.34 440.91 1063.61 566.07 1032.28 634.34 1174.25 625.69
00003863 DELETE   912.94 210.63 398.01 548.24 989.52 446.27 1160.97 435.19 1065.54 552.08 1029.29 627.21 1176.52 617.64
00003864 00000012 913.53 204.68 395.56 541.49 987.86 432.31 1162.11 422.51 1063.95 538.89 1026.01 618.12 1173.33 609.21
00003865 00000013 918.98 193.08 398.68 547.71 988.21 428.26 1159.81 410.12 1071.32 535.57 1031.92 614.80 1180.12 597.71
00003866 DELETE   914.25 200.39 399.72 539.26 988.96 431.48 1164.32 416.16 1067.29 535.61 1031.31 613.64 1183.34 599.38
00003867 00000015 917.10 205.52 396.81 543.07 994.45 439.49 1164.75 424.16 1073.86 545.10 1039.29 621.80 1185.24 608.11
00003868 00000016 919.48 200.29 394.99 554.30 996.24 444.83 1166.43 431.73 1075.16 553.42 1039.62 625.27 1187.60 613.32
00003869 00000017 920.92 197.42 393.05 553.03 997.10 444.63 1169.07 432.52 1076.67 552.91 1038.21 623.19 1187.97 612.06
00003870 00000018 920.74 198.85 393.52 550.40 998.13 443.07 1169.70 432.03 1076.89 551.58 1037.37 621.54 1186.56 611.35
00003871 00000019 922.00 200.22 392.93 550.88 998.61 443.43 1169.30 433.06 1076.03 552.49 1036.65 621.14 1186.29 611.45
00003872 00000020 921.25 206.15 394.39 552.37 999.89 446.34 1167.89 435.69 1076.05 555.07 1036.92 622.52 1186.56 612.89
00003873 00000021 922.64 205.87 393.52 553.85 999.75 448.01 1167.46 439.64 1073.80 557.94 1034.87 623.22 1184.57 615.56
00003874 00000022 923.99 206.80 392.27 553.81 1000.58 447.70 1169.23 440.33 1074.18 559.32 1032.22 620.81 1185.54 614.18
00003875 00000023 925.12 209.99 391.88 550.30 1002.35 447.05 1171.56 440.10 1076.82 560.30 1031.78 618.11 1188.32 612.02
00003876 00000024 925.60 209.60 391.86 549.96 1005.06 446.09 1173.71 439.25 1079.80 558.79 1032.89 616.09 1189.79 610.23
00003877 00000025 926.87 210.72 391.69 546.89 1006.30 444.95 1176.35 438.78 1081.09 558.75 1031.97 613.89 1191.57 608.51
00003878 00000026 927.95 211.50 391.95 547.04 1007.96 444.08 1178.27 438.70 1082.91 559.28 1032.45 613.28 1192.88 608.75
00003879 00000027 928.41 212.13 393.05 545.98 1009.31 445.74 1178.98 439.55 1084.73 561.10 1034.79 614.05 1194.07 608.98
00003880 00000028 928.68 213.28 394.05 545.77 1009.91 446.49 1180.61 440.80 1085.58 563.92 1035.68 615.14 1195.15 610.52
00003881 00000029 929.26 213.62 393.63 546.01 1010.83 446.12 1181.14 440.02 1086.54 563.39 1035.75 614.85 1195.32 610.05
00003882 00000030 929.55 212.45 393.71 547.93 1011.44 445.22 1181.64 439.73 1086.60 562.71 1035.78 614.38 1195.56 610.10
00003883 00000031 930.12 216.19 392.50 544.26 1011.74 446.25 1181.71 440.02 1087.42 562.48 1035.26 613.91 1195.53 609.04
00003884 00000032 929.86 218.14 393.00 543.61 1011.20 446.47 1181.16 440.70 1086.65 563.45 1034.98 614.54 1195.09 610.12
00003885 00000033 930.33 216.74 393.53 545.08 1011.60 446.76 1181.43 440.69 1086.88 564.18 1035.87 614.89 1195.63 610.28
00003886 00000034 931.27 220.85 392.85 542.30 1011.78 447.44 1181.61 441.07 1086.96 564.89 1035.32 615.09 1195.94 610.43
00003887 00000035 932.13 221.62 392.11 540.92 1011.58 448.13 1181.14 442.06 1086.62 566.35 1035.13 615.39 1195.37 611.00
00003888 00000036 935.13 225.68 392.43 543.04 1010.98 450.26 1181.67 443.11 1091.86 569.63 1034.06 617.82 1199.94 611.41
00003889 00000037 935.14 226.52 392.27 541.85 1010.99 450.25 1181.74 443.00 1091.95 569.45 1033.94 617.96 1199.47 611.53
00003890 00000038 934.47 225.91 393.34 543.27 1010.66 450.44 1181.11 443.22 1091.68 569.44 1034.42 618.45 1199.06 612.00
00003891 00000039 934.99 226.99 392.65 542.64 1010.76 450.41 1180.66 443.23 1091.28 569.28 1034.73 618.80 1198.64 612.36
00003892 00000040 934.99 228.90 392.21 540.61 1010.69 449.84 1180.46 442.88 1091.06 569.56 1034.90 618.41 1198.42 612.21
00003893 00000041 931.40 223.30 392.91 542.33 1010.02 446.92 1179.14 441.52 1083.91 566.09 1034.61 616.49 1193.63 612.43
00003894 00000042 930.05 220.12 393.14 545.13 1007.33 444.61 1175.85 440.95 1078.41 562.39 1029.77 614.74 1189.04 612.02
00003895 00000043 926.09 215.71 396.71 549.11 1003.67 443.74 1168.96 440.52 1072.16 557.60 1029.05 615.64 1182.19 612.78
00003896 00000044 922.96 209.53 394.84 553.40 995.47 436.85 1159.22 439.09 1057.87 554.32 1020.71 614.39 1170.70 615.42
00003897 DELETE   920.28 207.32 395.27 548.12 984.08 432.60 1149.97 435.46 1039.35 546.65 1010.75 617.40 1154.54 618.39
00003898 00000046 918.90 202.09 388.96 547.78 969.03 425.69 1137.14 430.01 1026.49 548.57 998.37 616.30 1138.83 618.49
00003899 DELETE   910.71 182.19 393.69 570.95 959.25 418.70 1124.19 427.03 1009.66 543.82 989.46 615.52 1121.45 620.83
00003900 00000048 906.77 176.13 394.39 580.65 953.10 413.34 1113.50 425.18 997.30 542.26 982.51 614.74 1105.33 622.85
00003901 00000049 903.61 177.50 389.47 572.03 950.67 415.14 1104.09 426.41 988.86 535.69 979.62 610.09 1099.34 617.40
00003902 00000050 898.86 177.20 388.87 568.32 948.21 412.52 1099.06 423.41 982.84 531.21 975.58 605.67 1096.81 612.62
00003903 00000051 897.10 175.09 387.84 568.69 945.09 411.16 1095.35 421.59 976.28 529.25 971.67 604.80 1093.53 611.31
00003904 00000052 896.29 174.96 386.48 567.30 942.71 410.64 1091.59 421.01 971.18 528.39 968.20 603.40 1092.23 609.78
00003905 00000053 896.09 175.13 384.38 566.12 941.92 410.50 1090.07 420.93 970.06 527.81 966.90 602.62 1090.90 608.98
00003906 00000054 895.71 174.32 384.81 567.41 941.26 410.33 1089.23 419.94 969.52 527.11 967.29 603.07 1090.05 608.79
00003907 00000055 894.36 174.42 385.64 566.46 942.70 410.57 1090.36 419.24 973.07 525.97 970.18 602.86 1091.28 607.89
00003908 00000056 894.13 169.78 387.75 573.38 943.45 409.25 1092.80 417.95 974.78 525.16 971.02 602.71 1093.55 607.72
00003909 00000057 894.04 167.44 391.87 577.50 943.75 409.68 1096.42 416.87 977.44 523.89 971.35 603.83 1095.28 607.83
00003910 00000058 893.58 171.84 394.02 572.35 944.95 410.94 1100.17 417.35 983.09 525.64 974.01 604.55 1099.81 607.93
00003911 00000059 894.68 170.09 397.38 574.52 947.02 410.64 1105.00 415.29 990.31 524.95 978.49 605.07 1105.83 607.11
00003912 00000060 898.77 172.23 398.68 571.18 952.01 410.31 1108.57 414.18 996.02 524.60 983.02 604.09 1111.96 605.79
00003913 00000061 902.74 179.19 397.88 561.24 955.28 411.15 1115.76 412.51 1006.90 526.89 986.52 603.75 1122.29 603.79
00003914 00000062 906.55 180.09 395.53 559.97 960.11 412.65 1123.03 409.69 1015.48 524.26 993.16 605.10 1126.60 601.77
00003915 00000063 908.25 184.46 397.44 552.94 966.24 413.64 1132.61 405.96 1029.27 524.68 999.83 603.94 1138.79 597.13
00003916 00000064 912.95 184.67 395.78 551.47 971.48 414.40 1144.05 402.90 1042.21 524.36 1004.68 604.23 1151.50 594.37
00003917 00000065 912.83 187.48 400.04 551.19 983.06 417.86 1150.70 405.59 1052.85 523.08 1019.63 605.61 1168.40 593.87
00003918 DELETE   915.52 183.27 401.93 557.17 991.96 417.09 1159.85 406.87 1064.78 523.63 1026.52 602.54 1176.87 592.55
00003919 DELETE   919.34 184.16 400.24 555.04 997.77 418.63 1166.50 407.14 1073.05 522.95 1033.66 603.40 1183.17 592.51
00003920 00000068 923.79 188.59 398.47 547.58 1003.48 418.54 1174.61 405.18 1080.36 519.31 1038.74 602.19 1189.44 590.30
00003921 00000069 926.73 189.25 399.76 546.75 1009.56 418.45 1181.76 403.53 1091.40 517.84 1047.77 601.91 1198.67 588.66
00003922 DELETE   928.27 190.21 401.68 544.29 1011.88 419.68 1184.57 401.20 1098.03 517.85 1054.99 602.49 1206.46 586.16
00003923 DELETE   929.29 191.87 404.19 539.16 1015.99 420.73 1188.38 400.42 1105.50 516.80 1061.90 601.17 1212.39 583.30
00003924 00000072 932.03 190.03 403.06 540.68 1020.40 421.11 1191.78 399.87 1111.03 516.94 1065.74 599.58 1216.67 581.13
00003925 00000073 934.54 188.57 400.81 541.83 1023.08 423.52 1195.29 400.86 1115.88 517.31 1068.04 600.66 1220.62 581.19
00003926 00000074 936.71 185.97 401.37 544.24 1025.94 424.99 1196.93 399.95 1120.28 517.54 1075.31 603.93 1223.36 582.22
00003927 00000075 938.91 186.96 400.59 543.14 1030.22 426.07 1201.21 400.09 1126.63 519.52 1078.69 604.22 1225.95 581.93
00003928 00000076 940.30 189.12 400.10 538.58 1033.92 427.01 1209.51 399.45 1135.65 520.95 1082.64 606.51 1232.01 583.40
00003929 00000077 941.35 187.86 398.49 542.37 1036.81 428.41 1213.93 399.87 1141.53 523.51 1084.41 608.47 1237.00 584.68
00003930 00000078 941.79 183.10 400.31 550.81 1039.96 429.25 1217.16 397.56 1147.36 522.97 1090.39 612.38 1242.89 585.89
00003931 00000079 942.09 184.07 401.50 561.53 1045.83 428.79 1220.53 397.89 1154.65 519.53 1095.02 614.86 1245.73 589.03
00003932 00000080 943.30 183.27 400.32 562.02 1049.23 429.57 1221.21 397.66 1158.30 517.66 1099.65 615.76 1247.32 589.08
00003933 00000081 943.57 181.99 400.22 562.43 1050.51 430.33 1224.27 398.11 1161.27 517.69 1098.25 611.31 1253.45 584.45
00003934 00000082 944.43 185.59 398.59 555.37 1050.63 431.60 1223.90 397.39 1162.09 520.15 1097.32 608.65 1255.15 580.52
00003935 00000083 942.66 186.84 400.12 553.98 1051.18 433.39 1223.09 398.54 1163.13 523.10 1097.09 608.35 1253.80 579.85
00003936 00000084 941.64 193.56 398.80 546.73 1048.00 437.14 1220.45 398.74 1161.12 528.00 1094.69 609.67 1252.88 578.29
00003937 00000085 940.87 195.83 398.93 547.61 1045.89 438.87 1216.00 400.87 1156.45 529.70 1091.10 611.11 1247.77 579.82
00003938 00000086 939.88 201.29 397.69 543.65 1043.26 442.36 1210.46 403.23 1152.00 532.87 1089.34 611.91 1245.10 579.55
00003939 00000087 935.03 206.50 399.91 538.67 1037.02 443.04 1200.98 404.75 1142.75 535.48 1088.07 612.46 1237.92 580.52
00003940 00000088 928.76 199.27 402.54 544.83 1026.44 444.43 1191.52 408.38 1127.92 537.47 1080.73 616.13 1228.48 585.55
00003941 00000089 925.33 205.99 401.79 537.03 1020.47 446.98 1185.75 415.33 1118.05 540.56 1073.74 615.95 1220.02 588.69
00003942 00000090 918.46 211.53 403.21 532.16 1013.65 446.63 1178.03 415.92 1108.88 541.21 1069.97 617.76 1210.30 591.02
00003943 00000091 915.06 213.35 399.40 531.98 1006.15 445.84 1169.23 419.24 1097.96 545.13 1062.32 619.34 1200.77 596.26
00003944 00000092 910.40 214.11 400.42 530.50 996.75 446.18 1163.94 421.75 1085.87 547.15 1049.03 619.66 1192.79 598.11
00003945 00000093 907.59 216.58 400.40 525.51 987.87 448.68 1157.17 425.38 1071.97 546.17 1034.71 615.12 1186.32 594.32
00003946 00000094 903.26 219.46 401.63 527.72 979.10 444.91 1148.00 426.12 1057.40 550.34 1022.38 613.24 1175.34 596.13
00003947 00000095 898.08 216.69 403.25 539.33 971.33 441.57 1138.01 428.61 1052.77 560.51 1012.29 616.13 1166.49 601.36
00003948 DELETE   893.42 208.40 401.52 548.46 953.95 447.96 1121.16 431.06 1031.38 558.98 1003.31 617.55 1148.37 602.05
00003949 00000097 885.85 207.02 406.97 553.84 941.67 449.50 1107.65 430.67 1014.26 560.78 992.62 623.82 1137.22 607.05
00003950 00000098 883.85 204.46 404.82 556.31 937.57 448.29 1096.57 434.20 999.76 557.30 985.10 621.27 1127.66 607.61
00003951 00000099 885.65 197.16 398.95 565.49 936.69 448.45 1091.60 437.12 989.24 558.46 975.37 617.87 1123.37 605.54
00003952 00000100 889.26 209.76 387.43 548.16 937.72 439.25 1088.31 435.37 982.02 551.03 978.06 613.15 1118.40 606.80
00003953 00000101 887.52 204.55 384.97 547.90 933.70 435.82 1083.38 436.75 976.38 550.99 973.98 612.44 1108.69 610.34
00003954 00000102 885.47 205.57 385.08 545.16 931.25 433.48 1081.84 437.05 972.52 550.61 970.10 612.00 1100.84 612.26
00003955 00000103 884.78 204.40 384.31 539.78 928.86 431.46 1082.10 435.08 971.21 548.14 966.52 612.89 1099.89 613.17
00003956 00000104 885.54 201.53 384.76 543.18 930.14 430.27 1085.16 434.17 974.26 547.00 965.99 612.09 1101.88 612.57
00003957 00000105 887.61 197.17 385.96 548.98 933.42 427.45 1089.78 430.00 979.43 545.00 970.35 611.52 1107.93 611.10
00003958 00000106 890.14 197.77 386.75 549.11 937.61 428.21 1092.63 428.52 985.55 543.81 975.66 610.80 1113.92 608.44
00003959 00000107 888.06 193.59 398.39 555.13 939.00 433.93 1100.06 429.62 996.13 545.74 977.10 615.44 1121.24 609.70
00003960 00000108 889.77 196.41 400.07 552.67 941.63 431.03 1106.96 423.83 1006.23 547.95 982.75 616.62 1131.31 609.08
00003961 00000109 896.22 197.17 400.07 553.93 950.63 430.60 1120.01 421.33 1021.62 544.30 993.63 615.93 1142.59 606.76
00003962 00000110 901.51 206.06 401.93 541.61 969.88 431.76 1137.96 422.34 1046.66 545.74 1008.75 615.13 1158.64 604.18
00003963 00000111 908.02 200.71 400.51 540.07 974.80 436.24 1146.35 419.85 1058.28 545.67 1016.70 617.92 1168.45 602.01
00003964 00000112 908.40 206.87 401.48 530.80 982.54 435.83 1157.27 420.49 1061.96 538.85 1024.56 612.51 1178.18 598.00
00003965 00000113 914.36 209.41 399.08 526.91 992.13 438.62 1164.91 422.04 1072.75 539.17 1032.37 612.82 1184.31 597.66
00003966 00000114 915.61 205.94 399.68 530.10 998.82 438.19 1171.57 417.60 1084.80 538.62 1043.91 614.40 1193.67 596.23
00003967 00000115 917.98 205.82 400.20 532.27 1003.83 438.24 1177.30 414.86 1094.12 536.34 1055.54 617.99 1201.19 597.74
00003968 00000116 920.54 205.65 400.43 537.27 1010.71 440.22 1178.69 415.70 1102.50 536.25 1064.92 620.05 1204.53 598.85
00003969 00000117 924.91 204.70 398.81 539.56 1015.50 440.71 1181.70 416.03 1107.93 535.90 1069.45 620.44 1207.51 599.04
00003970 00000118 927.51 203.52 398.40 540.10 1019.19 441.97 1187.97 416.41 1114.85 536.61 1073.33 622.23 1212.84 600.25
00003971 00000119 931.63 202.80 396.52 543.25 1023.16 442.94 1191.21 415.71 1118.13 535.24 1077.00 624.54 1216.33 601.53
00003972 00000120 932.14 205.12 397.06 542.99 1026.24 443.07 1193.40 414.85 1122.85 535.95 1081.40 625.87 1218.35 602.16
00003973 00000121 931.87 204.36 398.07 543.93 1028.62 443.38 1196.39 413.96 1128.57 537.07 1083.75 626.39 1221.31 601.69
00003974 00000122 932.48 205.29 398.92 546.11 1030.98 444.77 1198.54 415.38 1131.36 538.34 1083.11 627.29 1221.04 602.91
00003975 00000123 932.16 206.65 399.82 545.49 1031.10 445.67 1198.69 415.52 1131.90 538.22 1081.81 626.38 1221.40 601.39
00003976 00000124 932.61 205.98 398.52 543.16 1029.52 446.20 1196.69 416.68 1128.90 540.00 1080.47 625.27 1219.79 600.71
00003977 00000125 933.68 210.72 395.78 536.45 1027.69 448.20 1192.17 420.49 1122.85 542.85 1079.49 624.99 1215.59 602.01
00003978 00000126 932.70 213.02 395.47 536.91 1024.22 452.18 1187.80 422.56 1117.94 546.09 1075.65 624.63 1215.57 599.73
00003979 00000127 928.94 215.93 396.61 538.34 1020.03 452.38 1182.99 425.08 1111.01 549.41 1070.62 623.52 1212.24 600.28
00003980 00000128 924.72 216.39 399.12 539.27 1016.33 449.68 1178.65 425.17 1104.93 550.51 1065.57 621.99 1205.97 600.84
00003981 00000129 922.62 214.51 401.21 538.76 1011.89 447.71 1175.84 425.26 1097.95 554.25 1058.83 618.46 1204.01 598.96
00003982 00000130 921.44 218.56 397.82 530.34 1006.81 446.99 1172.28 426.42 1090.33 555.71 1051.40 616.73 1199.69 598.86
00003983 00000131 921.75 218.63 392.53 528.43 1002.10 448.05 1170.60 430.46 1084.17 555.83 1047.44 622.56 1191.93 607.14
00003984 00000132 919.83 221.25 392.91 532.21 998.23 448.14 1165.31 431.17 1078.10 556.32 1046.05 628.13 1186.40 613.37
00003985 00000133 918.18 223.30 393.85 528.58 996.02 451.27 1162.07 433.66 1074.55 556.84 1043.94 628.32 1182.96 612.96
00003986 00000134 914.50 222.72 396.45 528.40 993.35 451.79 1161.03 436.43 1072.21 558.40 1038.63 627.73 1178.03 614.28
00003987 00000135 914.55 222.39 397.15 536.86 993.88 450.05 1158.54 437.01 1069.52 557.04 1033.84 625.70 1175.74 614.42
00003988 00000136 915.86 221.60 395.88 537.43 994.63 449.84 1158.03 435.01 1069.38 554.47 1034.82 624.90 1177.01 612.12
00003989 00000137 915.67 222.14 397.27 534.52 993.71 447.93 1158.09 432.67 1069.18 553.36 1036.09 624.35 1178.29 610.90
00003990 00000138 915.26 218.58 397.71 533.51 993.39 445.80 1159.70 430.29 1070.58 551.47 1037.46 625.37 1176.47 611.88
00003991 00000139 914.00 215.32 398.31 533.78 991.83 446.26 1160.11 426.85 1073.20 548.30 1040.85 627.35 1179.70 610.35
00003992 00000140 913.07 212.00 399.93 546.03 990.82 447.08 1155.52 425.24 1070.69 543.86 1043.17 628.11 1182.15 609.10
00003993 00000141 912.76 207.86 398.19 545.52 987.77 447.37 1154.18 426.53 1066.82 541.55 1038.06 624.23 1180.81 605.61
00003994 00000142 911.42 207.10 397.49 544.57 984.22 445.67 1151.21 426.28 1060.51 538.40 1031.06 619.39 1177.63 601.86
00003995 00000143 908.90 210.07 396.91 542.30 978.96 445.63 1146.11 426.85 1053.17 539.26 1025.07 619.58 1171.85 602.67
00003996 00000144 907.44 208.79 396.06 544.41 975.91 445.92 1140.34 426.76 1054.57 545.50 1018.83 623.76 1162.46 605.05
00003997 00000145 901.55 209.62 393.49 544.78 968.48 450.83 1127.55 432.12 1042.47 549.89 1014.88 626.28 1154.79 607.88
00003998 00000146 895.66 212.72 396.36 550.75 951.77 465.06 1114.71 439.39 1026.66 556.08 1004.54 635.07 1141.12 612.97
00003999 00000147 890.01 219.20 399.91 548.70 944.11 472.71 1110.02 445.95 1018.17 564.20 990.84 640.96 1136.70 618.19
00004000 00000148 885.87 242.14 395.12 531.85 943.29 475.73 1106.99 459.30 1004.17 577.42 979.87 647.61 1130.90 632.29
00004001 00000149 881.92 248.19 397.04 531.60 940.53 479.76 1097.64 469.21 996.01 587.03 979.15 655.26 1119.96 644.40
00004002 00000150 880.61 253.23 396.74 531.35 941.62 485.13 1091.40 477.58 992.88 595.24 982.48 660.82 1113.36 652.32
00004003 00000151 878.13 249.29 399.34 545.50 935.57 494.36 1087.93 490.58 992.03 606.49 980.31 664.70 1112.18 658.88
00004004 00000152 878.89 254.97 400.27 544.07 935.58 500.60 1089.63 497.65 991.74 610.35 979.16 669.11 1111.82 664.04
00004005 00000153 881.29 256.76 400.26 545.31 936.35 501.44 1093.29 497.69 993.36 612.51 979.32 670.25 1117.34 664.41
CROP_BBOX: 667 0 1647 942
