Video ID: 	6rtBsQEhjBc
H: 	1080
W: 	1920
FPS: 	25.0

FRAME INDEX X0 Y0 W H [Landmarks (5 Points)]

00011484 00000000 863.28 157.35 519.96 694.45 1054.07 377.43 1261.19 458.27 1134.34 530.14 986.64 613.83 1166.99 683.21
00011485 DELETE   859.63 156.25 519.98 692.14 1048.49 373.04 1254.38 456.64 1126.77 527.20 978.12 605.52 1164.19 677.43
00011486 00000002 855.93 155.88 521.43 693.57 1043.70 372.06 1251.18 455.77 1121.79 524.45 972.50 603.23 1164.63 675.25
00011487 00000003 851.95 157.28 524.99 697.48 1040.83 371.76 1248.40 456.17 1117.46 522.60 968.66 604.65 1161.89 677.21
00011488 00000004 852.12 156.27 522.15 701.06 1037.39 373.18 1246.07 455.45 1113.67 526.70 967.14 608.92 1159.70 679.78
00011489 00000005 851.82 156.32 521.18 701.27 1035.78 375.00 1244.85 455.66 1112.41 531.05 966.40 610.91 1159.72 680.33
00011490 00000006 852.99 157.11 520.45 700.48 1035.47 377.52 1244.13 455.37 1112.41 534.24 967.74 614.69 1157.67 681.85
00011491 00000007 854.51 158.07 518.29 699.15 1035.86 380.78 1245.49 457.36 1114.86 536.46 973.83 626.49 1150.63 692.64
00011492 00000008 857.08 159.89 518.36 696.39 1034.54 384.14 1249.18 455.63 1117.43 539.03 982.44 638.25 1150.58 700.09
00011493 00000009 858.65 156.47 517.63 692.72 1033.14 384.72 1250.26 456.35 1117.39 540.81 982.42 636.88 1152.99 698.57
00011494 00000010 857.24 155.91 520.27 694.58 1033.92 385.32 1250.23 457.35 1117.38 539.93 982.37 636.63 1152.96 698.65
00011495 00000011 856.77 158.90 519.54 697.17 1036.17 386.16 1247.68 457.33 1117.07 537.79 985.05 637.83 1149.74 699.37
00011496 00000012 854.00 163.11 522.25 695.23 1037.53 385.74 1248.16 460.23 1117.92 535.78 982.50 637.02 1148.94 701.27
00011497 00000013 851.97 162.54 524.42 697.05 1035.63 385.22 1246.35 460.52 1115.13 535.25 978.18 634.08 1149.31 699.01
00011498 00000014 854.67 162.01 517.24 695.26 1035.99 394.64 1243.50 466.86 1114.41 532.98 978.24 633.80 1149.56 696.25
00011499 00000015 853.14 159.24 516.42 696.34 1035.14 395.39 1242.65 467.32 1114.32 533.52 977.89 633.59 1148.99 695.73
00011500 00000016 852.06 159.16 513.14 693.63 1034.74 395.27 1239.79 467.26 1113.69 533.36 977.71 632.67 1146.38 694.82
00011501 00000017 850.97 154.81 512.34 697.06 1039.20 389.46 1244.64 461.10 1121.96 538.35 977.75 632.68 1150.99 692.64
00011502 00000018 852.56 152.86 507.20 691.82 1037.19 389.75 1243.21 457.79 1122.73 539.58 980.18 634.19 1152.36 691.26
00011503 00000019 852.88 153.54 505.79 689.30 1033.42 389.67 1242.15 455.79 1119.76 539.92 979.27 636.11 1150.84 691.54
00011504 00000020 848.80 153.76 511.84 690.29 1030.38 387.16 1245.57 453.91 1119.56 541.50 978.51 639.39 1151.13 695.09
00011505 00000021 843.73 150.11 517.77 699.20 1031.72 385.23 1244.76 449.49 1121.88 540.57 982.46 641.92 1151.11 695.74
00011506 00000022 840.63 153.23 520.77 699.99 1031.00 382.78 1244.56 450.82 1120.29 539.51 978.99 640.08 1148.39 697.01
00011507 00000023 838.61 151.66 522.50 698.60 1029.66 381.28 1243.62 448.95 1119.66 539.71 977.57 638.19 1147.54 694.84
00011508 00000024 839.37 149.63 520.82 696.40 1029.11 379.56 1243.25 446.61 1119.04 538.18 976.56 635.81 1147.25 692.07
00011509 00000025 838.22 150.64 519.58 690.87 1026.23 377.78 1242.62 444.40 1117.27 537.05 973.53 633.16 1147.59 689.20
00011510 00000026 835.54 149.69 519.01 690.61 1024.04 375.78 1240.45 442.96 1115.34 535.75 970.42 630.44 1146.42 687.02
00011511 00000027 833.13 151.90 516.14 689.70 1021.35 376.70 1234.93 442.06 1111.92 533.65 969.40 630.75 1141.67 685.96
00011512 00000028 832.07 148.10 515.31 692.93 1023.27 384.92 1225.86 447.98 1110.81 530.43 970.94 629.46 1139.78 682.23
00011513 00000029 830.44 147.83 512.75 685.63 1017.53 385.07 1223.49 445.56 1109.02 529.75 968.32 626.86 1140.78 677.46
00011514 00000030 827.47 142.00 516.16 691.95 1019.54 380.37 1226.31 442.67 1112.73 530.72 970.38 624.56 1145.12 676.36
00011515 00000031 828.67 140.73 513.28 694.73 1025.00 377.20 1229.33 441.74 1118.10 532.08 975.27 624.51 1147.92 678.24
00011516 00000032 830.61 138.57 509.81 699.66 1029.76 375.19 1230.86 438.79 1126.60 533.22 981.80 628.07 1149.75 681.30
00011517 00000033 832.82 131.28 504.01 709.01 1034.95 373.42 1236.27 436.06 1137.01 529.76 987.39 629.79 1156.46 682.17
00011518 00000034 832.77 127.61 506.23 711.13 1040.43 373.33 1242.37 433.74 1144.70 529.03 993.48 630.18 1161.94 680.52
00011519 00000035 834.11 125.95 509.22 707.54 1042.50 376.73 1247.55 431.52 1151.63 529.41 1002.25 631.72 1174.48 677.14
00011520 00000036 837.65 124.80 508.36 707.00 1045.10 381.81 1256.43 429.20 1164.39 533.94 1013.35 640.14 1191.54 679.38
00011521 00000037 841.67 130.12 505.34 699.32 1049.95 389.97 1262.10 431.07 1173.31 539.29 1027.32 650.77 1199.85 685.03
00011522 00000038 846.68 127.65 502.49 708.34 1058.18 394.51 1264.17 434.68 1181.41 546.79 1035.74 655.90 1204.09 689.33
00011523 00000039 851.61 131.14 498.99 708.68 1066.38 399.44 1266.52 437.63 1188.94 552.75 1043.81 660.11 1207.83 692.25
00011524 00000040 857.02 131.27 497.65 710.43 1071.98 404.67 1270.59 441.93 1195.81 558.93 1048.64 662.73 1213.32 694.25
00011525 00000041 861.97 133.51 495.68 709.33 1076.19 409.06 1273.06 444.17 1201.49 563.50 1053.60 664.64 1218.25 694.55
00011526 00000042 865.87 137.54 493.55 704.13 1078.26 411.46 1275.95 443.97 1205.68 565.58 1057.47 666.25 1221.99 694.15
00011527 00000043 862.20 140.98 496.10 698.08 1082.78 405.66 1285.53 446.47 1211.67 561.39 1055.42 657.80 1224.70 691.89
00011528 00000044 862.07 140.29 496.64 699.66 1083.38 405.31 1286.26 447.14 1212.08 561.25 1054.61 657.04 1224.74 692.07
00011529 00000045 860.91 142.72 495.87 696.10 1082.53 406.11 1285.67 446.91 1213.19 560.57 1054.58 657.97 1224.80 692.25
00011530 00000046 861.02 137.21 495.70 705.12 1079.60 416.68 1273.47 446.33 1208.47 566.11 1056.31 665.55 1218.97 690.95
00011531 00000047 858.09 135.94 495.47 708.21 1077.71 417.82 1272.59 448.85 1208.09 566.24 1054.52 665.46 1218.50 691.90
00011532 00000048 854.42 136.42 496.41 719.03 1078.70 415.80 1269.80 445.91 1209.47 566.23 1051.33 669.61 1212.24 695.88
00011533 00000049 850.44 138.70 498.53 722.58 1075.73 413.01 1270.56 445.55 1207.53 566.28 1043.83 670.94 1208.75 699.60
00011534 00000050 847.39 138.75 495.92 718.47 1073.91 413.12 1268.09 445.19 1204.21 565.96 1047.33 670.36 1209.26 698.19
00011535 00000051 843.90 139.93 493.95 712.15 1068.84 412.80 1265.50 442.98 1202.14 564.25 1046.33 670.78 1208.72 697.10
00011536 00000052 839.35 139.59 493.95 711.67 1063.11 409.66 1262.09 440.62 1197.72 559.92 1044.56 669.28 1207.08 695.94
00011537 00000053 834.96 135.26 493.50 720.81 1057.62 407.51 1256.54 438.27 1194.48 557.53 1036.78 666.48 1205.30 692.92
00011538 00000054 830.58 136.98 493.59 725.50 1052.33 405.52 1252.50 438.81 1190.07 555.33 1025.31 663.36 1199.84 692.25
00011539 00000055 826.67 137.80 493.04 728.29 1049.59 407.25 1247.98 442.29 1186.45 554.60 1019.18 662.39 1193.72 692.58
00011540 00000056 820.60 142.20 496.06 724.73 1045.63 408.85 1245.13 443.03 1184.08 556.66 1014.15 664.42 1188.14 694.18
00011541 00000057 815.04 144.24 496.49 722.88 1040.27 411.66 1240.35 446.00 1180.39 558.61 1012.70 666.88 1183.48 696.61
00011542 00000058 810.37 148.42 496.01 714.99 1037.44 413.06 1236.29 447.06 1175.69 559.40 1014.07 668.68 1179.35 697.93
00011543 00000059 803.95 149.43 494.43 708.12 1032.30 415.47 1229.57 445.75 1173.20 557.65 1014.45 668.20 1177.76 694.27
00011544 00000060 798.87 149.79 492.13 707.51 1028.34 413.11 1222.16 446.28 1168.97 554.07 1010.37 666.42 1171.21 694.84
00011545 00000061 794.90 149.74 492.37 713.62 1023.43 414.13 1217.10 445.53 1166.25 554.85 1006.63 670.53 1167.59 697.46
00011546 00000062 790.48 150.74 498.81 718.04 1019.46 423.43 1208.90 444.51 1158.15 561.85 1005.79 678.63 1163.49 697.78
00011547 00000063 786.85 152.21 498.93 720.59 1017.03 417.43 1215.32 441.82 1160.90 562.62 1002.53 682.16 1165.70 701.99
00011548 00000064 789.07 152.37 490.22 712.59 1010.79 420.09 1213.00 449.74 1157.55 562.14 987.28 668.03 1165.42 693.41
00011549 00000065 789.12 151.53 492.29 712.59 1011.41 426.80 1207.83 444.68 1155.35 564.62 995.78 674.80 1165.52 691.02
00011550 00000066 788.38 152.08 490.82 708.03 1010.31 428.43 1204.60 444.64 1152.12 567.69 1002.59 678.95 1162.31 693.60
00011551 00000067 786.70 151.81 487.42 708.34 1009.24 429.80 1201.41 442.97 1152.25 569.00 1002.67 679.66 1161.17 691.81
00011552 00000068 784.84 149.79 486.91 711.18 1008.38 429.04 1199.50 442.31 1150.76 568.58 1003.33 680.70 1159.62 692.88
00011553 00000069 784.39 152.03 485.08 710.45 1006.39 429.60 1198.11 443.22 1150.35 568.85 1002.30 682.95 1157.50 695.74
00011554 00000070 784.11 149.93 484.66 715.51 1004.09 431.00 1197.68 444.64 1150.16 570.24 996.55 686.93 1153.40 700.25
00011555 00000071 782.86 152.84 483.75 712.63 999.50 433.64 1196.69 444.39 1148.75 573.69 990.98 688.06 1153.67 699.22
00011556 00000072 779.31 151.13 485.40 708.37 997.89 434.06 1196.64 443.95 1147.70 574.42 989.84 685.46 1155.03 695.58
00011557 00000073 777.75 153.30 484.95 705.34 999.90 436.58 1196.91 443.63 1151.77 575.04 994.11 684.22 1159.39 691.87
00011558 00000074 780.16 156.67 484.68 699.22 1007.41 437.88 1200.49 442.32 1160.53 575.11 1002.95 684.58 1162.42 690.10
00011559 00000075 781.14 152.15 486.82 708.48 1018.08 441.80 1203.88 439.45 1173.37 577.59 1014.53 689.77 1167.97 689.91
00011560 00000076 787.50 149.10 482.40 710.21 1027.56 438.00 1218.58 442.76 1193.54 573.75 1022.33 682.66 1182.24 688.08
00011561 00000077 793.26 146.53 482.40 710.55 1038.03 441.70 1229.62 439.80 1208.32 577.51 1034.65 686.17 1191.93 686.77
00011562 00000078 799.99 149.08 478.64 714.16 1046.44 445.25 1236.08 438.15 1220.04 579.29 1047.07 694.44 1199.34 691.06
00011563 00000079 802.42 157.52 478.49 715.72 1074.57 445.27 1234.97 438.26 1235.56 587.42 1072.52 709.44 1200.21 705.75
00011564 00000080 806.45 148.12 475.13 726.28 1074.48 452.86 1243.93 441.55 1249.16 587.93 1073.80 707.49 1206.73 701.26
00011565 00000081 811.21 146.97 478.63 728.89 1081.51 457.45 1249.12 442.56 1259.97 593.77 1072.41 708.75 1208.12 700.51
00011566 00000082 820.56 155.88 477.45 720.37 1088.41 463.02 1252.35 442.57 1268.28 596.31 1081.23 711.65 1216.15 699.11
00011567 00000083 830.61 156.00 473.39 720.60 1099.70 467.50 1257.95 446.39 1276.04 600.88 1093.09 717.11 1219.71 704.38
00011568 00000084 836.94 158.34 468.86 720.03 1106.87 468.96 1259.39 448.91 1282.98 606.01 1100.08 720.15 1222.42 708.14
00011569 00000085 836.12 176.25 469.26 707.77 1117.93 467.82 1254.93 454.52 1284.51 614.42 1106.08 724.44 1218.95 716.31
00011570 00000086 842.56 179.58 465.09 707.01 1124.81 472.30 1255.50 456.06 1287.99 620.00 1110.30 728.46 1216.31 718.46
00011571 00000087 842.09 189.98 470.11 697.21 1133.22 472.78 1260.01 470.26 1284.84 615.79 1113.34 725.11 1210.17 725.97
00011572 00000088 843.77 188.52 470.05 704.05 1136.06 475.19 1260.32 476.00 1284.14 619.92 1112.45 727.78 1207.61 731.38
00011573 00000089 844.70 190.68 473.02 709.66 1140.78 480.49 1266.96 478.68 1291.23 626.58 1115.42 734.60 1211.50 736.20
00011574 00000090 850.88 185.82 469.59 719.45 1136.69 489.46 1266.74 473.93 1296.87 631.43 1108.36 742.33 1214.39 734.11
00011575 00000091 855.89 197.92 465.74 716.78 1140.65 499.08 1271.87 481.01 1302.07 641.05 1108.17 749.40 1215.20 740.73
00011576 00000092 862.38 206.10 463.54 714.59 1147.32 504.24 1279.33 486.05 1310.80 651.55 1113.44 758.59 1215.43 750.31
00011577 00000093 871.63 212.76 461.42 716.91 1156.37 510.13 1288.35 496.89 1315.36 660.18 1117.51 762.87 1219.73 758.62
00011578 00000094 874.71 226.64 461.97 705.42 1175.59 521.36 1282.53 506.43 1319.47 671.61 1125.58 764.16 1215.52 758.52
00011579 00000095 878.63 227.76 461.32 709.30 1173.01 520.60 1289.01 502.50 1327.02 674.54 1119.92 765.40 1214.81 759.19
00011580 00000096 884.66 235.24 456.20 706.51 1178.63 529.05 1291.62 512.28 1330.06 679.81 1128.28 770.81 1218.50 765.46
00011581 00000097 889.60 240.18 455.22 700.84 1182.21 538.31 1296.69 518.02 1332.00 683.94 1136.44 777.14 1224.73 768.68
00011582 00000098 890.48 239.41 456.82 705.24 1185.84 540.89 1298.90 520.64 1336.75 687.87 1140.20 781.45 1228.08 772.78
00011583 00000099 889.27 235.68 459.21 711.88 1188.98 544.41 1298.15 524.43 1339.72 691.52 1140.12 784.47 1225.74 776.00
00011584 00000100 892.01 240.04 457.23 712.20 1190.42 545.25 1298.82 526.67 1340.18 694.62 1136.92 785.03 1223.28 777.75
00011585 00000101 881.17 253.56 466.90 703.07 1192.72 544.49 1287.70 532.13 1337.89 694.77 1136.30 783.87 1217.41 779.84
00011586 00000102 882.52 256.54 463.29 700.70 1191.74 545.60 1286.69 534.35 1336.54 695.44 1135.70 784.38 1216.86 781.23
00011587 00000103 882.06 257.64 460.62 699.80 1188.81 547.67 1285.93 533.97 1336.37 694.65 1139.82 788.54 1221.95 783.38
00011588 00000104 883.23 257.24 456.53 695.28 1183.95 551.85 1287.20 534.83 1332.82 694.69 1143.46 791.10 1226.89 782.64
00011589 00000105 884.41 256.12 454.34 694.39 1187.09 552.53 1288.02 537.58 1331.42 695.04 1147.20 790.29 1228.62 782.77
00011590 00000106 889.67 254.08 448.97 694.27 1187.20 555.26 1287.58 539.21 1330.42 693.50 1149.73 789.28 1232.05 780.63
00011591 00000107 893.40 252.65 445.26 692.92 1189.16 554.85 1287.95 540.21 1330.86 691.45 1151.21 787.08 1231.65 779.57
00011592 00000108 895.83 252.90 441.77 691.13 1191.10 556.88 1288.35 542.40 1332.37 690.86 1155.00 787.34 1233.82 779.82
00011593 00000109 896.87 251.83 442.11 691.87 1192.14 558.34 1287.99 543.24 1333.80 689.31 1160.45 787.86 1237.46 779.90
00011594 00000110 897.46 254.41 443.20 688.52 1194.00 558.92 1288.14 541.83 1334.43 689.77 1165.34 789.20 1239.29 779.59
00011595 00000111 897.73 257.53 448.21 684.92 1196.85 561.59 1292.19 539.61 1340.49 691.61 1168.97 790.45 1243.42 777.22
00011596 00000112 899.13 262.10 449.15 682.20 1198.52 561.97 1292.96 538.58 1342.65 693.26 1169.44 791.66 1242.19 777.61
00011597 00000113 899.74 265.76 451.12 683.06 1200.10 564.07 1293.05 537.98 1346.39 695.10 1169.33 794.96 1241.73 779.24
00011598 00000114 900.79 268.75 451.21 683.77 1201.72 563.45 1291.35 539.18 1346.43 697.28 1168.97 797.90 1236.89 784.11
00011599 00000115 901.44 267.73 452.81 690.84 1203.59 563.68 1290.90 540.73 1348.56 697.75 1169.00 799.47 1236.51 786.93
00011600 00000116 903.34 268.89 450.08 691.64 1206.04 562.66 1289.98 540.75 1352.43 697.98 1168.82 800.38 1234.39 789.24
00011601 00000117 902.56 268.28 450.96 693.01 1207.09 561.24 1289.82 541.68 1351.44 699.47 1165.20 799.82 1229.60 790.76
00011602 00000118 904.59 268.64 450.26 699.59 1209.44 558.69 1288.85 544.21 1349.87 701.24 1163.04 800.20 1225.74 795.34
00011603 00000119 903.55 270.12 450.11 693.83 1209.38 558.38 1287.66 542.90 1349.08 700.62 1160.45 798.45 1222.20 792.96
00011604 00000120 905.51 266.91 449.79 698.08 1209.14 553.96 1288.53 541.60 1348.97 699.24 1158.12 796.82 1220.23 793.79
00011605 00000121 907.05 260.43 444.25 702.44 1206.93 551.55 1285.78 542.28 1344.97 695.73 1153.70 793.70 1214.96 792.83
00011606 00000122 907.70 259.06 443.50 693.44 1206.86 551.67 1287.08 541.61 1343.15 694.58 1157.92 791.15 1218.99 789.29
00011607 00000123 909.88 249.81 439.00 695.04 1201.08 557.51 1298.51 534.74 1344.59 692.33 1171.97 795.41 1236.49 783.67
00011608 00000124 906.97 243.25 437.61 698.75 1206.39 555.35 1296.31 532.46 1348.06 690.25 1184.28 795.10 1241.51 782.88
00011609 00000125 904.61 241.48 437.78 699.65 1199.91 554.49 1292.88 534.22 1342.39 686.61 1183.42 794.18 1242.81 783.33
00011610 00000126 887.50 248.01 449.15 693.42 1198.11 553.04 1286.31 532.52 1341.08 688.10 1180.02 797.21 1240.77 785.16
00011611 00000127 899.93 246.49 437.12 686.47 1186.31 552.69 1288.67 529.67 1335.67 684.11 1171.71 790.97 1239.29 778.31
00011612 00000128 894.52 249.01 444.79 688.92 1188.38 543.89 1284.94 525.85 1334.86 679.81 1153.41 779.65 1224.33 772.71
00011613 00000129 896.82 245.46 442.68 693.83 1191.78 537.83 1283.32 526.23 1334.00 682.73 1134.64 769.10 1211.54 768.85
00011614 00000130 897.79 247.55 440.41 686.90 1186.48 538.96 1284.85 521.92 1332.36 679.46 1135.83 767.20 1218.90 762.09
CROP_BBOX: 562 0 1743 1080
