Video ID: 	6MYdH91DZgg
H: 	1080
W: 	1920
FPS: 	29.97002997002997

FRAME INDEX X0 Y0 W H [Landmarks (5 Points)]

00005386 00000000 816.53 288.45 410.72 586.02 947.00 495.34 1143.47 493.96 1072.58 622.72 975.22 729.21 1121.01 727.41
00005387 00000001 812.87 291.71 416.21 585.04 942.62 498.77 1143.12 497.67 1067.69 626.67 969.81 730.03 1118.06 728.67
00005388 00000002 805.23 290.10 426.41 584.92 937.39 506.42 1138.84 500.38 1064.82 630.65 964.74 731.63 1126.06 725.31
00005389 00000003 803.87 289.81 428.80 587.23 934.28 509.60 1138.20 503.56 1061.30 634.43 961.98 734.20 1125.58 727.91
00005390 00000004 801.43 290.78 429.45 586.05 930.07 512.53 1135.90 506.31 1056.49 635.93 958.64 735.20 1125.16 728.52
00005391 00000005 798.38 287.11 431.05 588.92 925.69 512.57 1133.63 506.29 1052.31 636.43 952.64 734.27 1121.98 727.62
00005392 00000006 794.67 284.49 433.09 590.89 922.94 511.22 1131.61 506.55 1049.57 635.05 948.67 733.23 1118.21 727.78
00005393 00000007 794.53 283.15 432.53 590.90 921.34 510.06 1130.32 505.52 1047.43 633.43 946.66 732.93 1116.04 727.52
00005394 00000008 795.51 280.76 432.76 591.95 920.71 507.64 1130.14 502.46 1046.01 631.77 946.11 731.58 1115.88 725.59
00005395 00000009 796.10 279.93 432.09 592.64 920.80 507.57 1129.64 502.09 1046.07 631.49 946.49 731.41 1115.52 725.21
00005396 00000010 799.11 273.10 427.24 598.51 924.78 508.36 1134.49 503.58 1046.37 628.62 948.34 726.33 1116.95 725.26
00005397 00000011 796.82 271.89 426.10 592.46 921.00 512.33 1125.48 506.16 1045.86 633.35 944.53 728.75 1112.89 722.89
00005398 00000012 795.01 270.23 423.73 589.16 917.84 510.57 1123.41 503.19 1043.98 631.96 945.22 729.05 1110.12 721.89
00005399 00000013 795.99 265.83 421.73 590.27 914.58 504.14 1119.34 495.79 1037.31 622.85 944.20 725.48 1105.45 717.32
00005400 00000014 794.64 261.81 423.12 593.96 910.88 497.30 1117.66 487.97 1033.59 614.70 942.54 723.64 1102.86 714.12
00005401 00000015 793.24 263.05 425.76 594.53 910.57 495.08 1115.86 484.00 1032.24 607.91 942.78 721.01 1103.19 709.40
00005402 00000016 797.06 260.99 422.73 592.63 911.12 497.93 1115.19 484.59 1028.98 602.68 942.81 717.95 1103.39 704.80
00005403 DELETE   800.60 260.06 422.53 588.66 913.81 495.15 1117.34 481.45 1028.54 590.93 944.85 712.17 1103.41 698.45
00005404 DELETE   803.20 257.59 419.17 589.78 915.45 482.81 1116.58 468.33 1029.63 577.06 945.26 702.88 1104.03 688.86
00005405 00000019 805.29 248.62 416.39 594.41 913.56 472.31 1116.74 455.59 1027.89 568.19 945.22 696.69 1104.51 680.97
00005406 00000020 807.87 243.61 416.04 596.15 914.49 456.60 1119.63 450.84 1025.41 558.78 943.56 684.50 1107.33 679.58
00005407 00000021 813.71 241.04 413.53 593.29 916.52 453.33 1121.03 444.28 1028.84 550.73 949.33 680.37 1113.70 672.53
00005408 00000022 821.82 240.48 411.18 589.90 919.98 452.04 1125.26 441.71 1032.56 545.67 955.96 677.59 1120.66 668.60
00005409 00000023 825.53 240.88 413.70 590.06 923.57 451.34 1129.93 440.50 1036.85 544.51 960.51 676.32 1126.94 666.62
00005410 00000024 828.26 243.48 415.66 586.84 926.35 451.40 1134.01 440.66 1039.56 545.98 964.21 675.94 1131.41 666.22
00005411 00000025 830.56 245.73 416.03 584.54 927.56 451.89 1136.70 442.01 1041.08 548.59 964.98 676.63 1133.43 667.54
00005412 00000026 830.53 246.61 416.81 585.61 928.29 452.22 1137.32 443.67 1041.12 550.74 965.09 678.32 1132.47 670.27
00005413 00000027 830.27 249.65 418.84 584.86 928.99 454.53 1138.61 447.99 1040.74 555.01 962.86 681.11 1131.25 674.81
00005414 00000028 829.01 252.30 420.03 585.23 929.41 456.65 1138.52 452.76 1039.63 558.86 959.88 683.06 1127.97 679.23
00005415 00000029 828.04 254.25 422.17 587.86 929.09 461.20 1139.13 457.77 1038.62 563.14 957.85 686.41 1128.54 683.08
00005416 00000030 832.60 265.21 419.97 581.18 936.41 467.08 1138.55 461.83 1040.34 568.61 962.47 693.66 1118.50 688.50
00005417 00000031 827.07 255.08 424.94 592.76 932.32 466.05 1141.09 465.04 1039.35 569.08 958.76 691.12 1126.29 689.99
00005418 00000032 833.96 263.97 419.15 588.37 939.52 466.42 1141.29 464.23 1043.97 567.54 963.77 695.55 1118.38 692.92
00005419 00000033 833.59 265.25 418.13 592.05 939.11 463.97 1140.69 462.58 1044.05 564.85 963.17 695.78 1116.79 693.89
00005420 00000034 833.39 266.19 417.64 594.12 938.86 464.24 1140.47 464.27 1044.18 565.15 961.03 695.47 1116.93 694.72
00005421 00000035 836.71 281.25 417.10 596.35 947.11 473.19 1145.79 476.07 1054.15 577.58 971.63 711.77 1122.41 712.72
00005422 00000036 837.22 281.72 417.34 597.35 948.09 473.19 1147.75 476.65 1055.51 577.50 971.47 712.16 1123.68 713.46
00005423 00000037 837.78 280.44 417.43 600.37 948.94 473.60 1150.10 476.93 1058.44 580.92 973.00 715.50 1123.05 716.58
00005424 00000038 837.96 276.55 417.63 598.80 949.91 473.19 1153.62 477.71 1060.90 581.65 972.39 713.40 1123.54 715.43
00005425 00000039 837.71 277.38 417.69 589.63 951.95 473.57 1154.88 478.70 1061.08 581.36 973.86 709.85 1118.79 712.65
00005426 00000040 837.42 278.27 416.43 585.97 950.14 474.29 1154.40 481.37 1058.29 583.57 969.66 707.42 1119.55 712.10
00005427 00000041 836.12 280.79 415.23 581.06 947.50 476.05 1150.21 480.52 1055.06 583.06 968.94 708.29 1115.40 711.04
00005428 00000042 834.52 284.49 413.87 577.84 944.68 478.14 1143.36 478.83 1051.64 583.57 971.09 711.02 1110.98 710.72
00005429 00000043 833.85 282.70 414.67 576.53 942.79 478.80 1142.14 476.86 1050.61 581.01 971.03 709.27 1115.33 706.80
00005430 00000044 833.57 279.31 415.39 577.98 943.01 477.99 1141.37 474.21 1050.82 577.78 971.46 705.94 1118.35 702.09
00005431 00000045 834.87 273.53 416.37 581.14 946.06 476.55 1144.69 474.02 1054.40 575.15 973.26 704.31 1120.73 701.53
00005432 00000046 837.01 273.49 416.25 577.98 949.98 475.88 1148.10 475.02 1058.59 575.64 976.12 703.01 1122.05 701.45
00005433 00000047 837.92 272.25 417.72 578.38 952.61 474.86 1151.78 476.34 1061.00 577.25 976.59 701.91 1123.53 702.02
00005434 00000048 838.51 271.63 418.94 578.13 954.34 475.38 1153.99 476.18 1063.59 576.05 979.19 701.78 1126.17 701.04
00005435 00000049 838.64 271.54 418.61 579.07 954.87 475.12 1155.69 475.93 1065.41 577.32 980.44 702.95 1127.09 702.13
00005436 00000050 838.95 273.91 418.40 580.00 954.46 476.41 1154.95 477.01 1064.51 579.11 980.79 706.13 1126.30 705.20
00005437 00000051 839.06 276.67 418.30 578.00 954.32 477.56 1155.68 479.08 1064.65 584.51 980.69 707.67 1126.89 707.41
00005438 00000052 839.13 280.23 417.54 577.43 955.55 479.64 1155.98 481.60 1066.16 587.98 982.30 709.06 1129.64 709.11
00005439 00000053 839.77 283.79 417.28 577.40 956.22 482.36 1156.97 484.73 1067.32 590.43 982.73 711.68 1131.13 712.05
00005440 00000054 839.66 288.36 416.62 574.64 957.06 484.10 1156.98 486.76 1068.35 592.98 984.38 713.12 1132.00 713.49
00005441 00000055 839.98 289.96 416.05 574.67 956.69 485.08 1156.50 487.76 1068.51 594.31 984.25 715.19 1130.99 715.57
00005442 00000056 840.40 290.05 415.12 575.41 956.63 485.80 1155.67 488.14 1068.42 595.58 984.72 716.78 1130.01 716.97
00005443 00000057 839.37 289.45 416.34 574.05 955.37 486.75 1154.31 486.79 1067.22 595.01 985.62 715.45 1132.08 713.57
00005444 00000058 839.18 286.30 416.24 573.77 954.27 486.37 1153.88 487.00 1065.31 594.29 982.60 712.88 1130.86 711.61
00005445 00000059 838.88 286.51 415.26 571.96 953.86 484.83 1152.58 485.16 1063.83 592.45 982.90 711.88 1128.43 710.47
00005446 00000060 838.42 284.10 415.84 572.28 952.99 484.32 1151.86 483.95 1062.73 592.29 982.90 711.46 1126.83 709.43
00005447 00000061 837.68 283.89 416.27 569.99 951.69 484.31 1151.29 483.84 1060.83 591.62 979.76 709.70 1125.75 707.66
00005448 00000062 837.15 283.91 415.60 570.69 950.68 483.46 1149.37 481.73 1059.71 590.93 979.85 709.83 1123.60 706.88
00005449 00000063 836.97 284.56 414.38 568.45 949.85 483.60 1149.00 482.75 1058.74 591.19 977.41 708.95 1122.88 706.72
00005450 00000064 835.44 287.08 414.57 567.00 948.78 484.60 1147.47 483.15 1057.55 591.79 976.52 709.27 1121.94 706.63
00005451 00000065 834.89 286.13 413.65 567.46 948.06 485.36 1146.12 483.45 1056.83 592.39 976.24 709.60 1121.58 706.66
00005452 00000066 833.88 287.70 413.73 566.51 947.47 485.50 1145.23 482.91 1056.68 593.50 976.58 710.11 1121.16 706.56
00005453 00000067 833.40 288.73 413.27 565.12 947.03 485.67 1144.80 482.54 1056.75 593.90 976.83 710.43 1121.19 706.40
00005454 00000068 833.32 289.21 411.69 563.34 947.40 485.81 1144.46 482.28 1057.71 594.10 977.91 710.79 1120.80 706.33
00005455 00000069 833.50 288.13 410.52 563.78 947.58 486.06 1143.45 482.18 1057.75 593.93 978.39 710.95 1119.65 706.36
00005456 00000070 832.94 292.21 409.81 560.61 947.15 487.04 1142.10 481.83 1058.02 594.51 979.62 712.14 1119.55 706.36
00005457 00000071 833.03 296.16 408.80 557.44 946.92 488.36 1140.41 482.74 1057.23 594.77 979.66 712.78 1119.03 706.70
00005458 00000072 832.81 297.55 407.68 557.27 947.79 490.44 1138.22 485.33 1057.96 594.80 980.78 713.44 1117.65 708.05
00005459 00000073 832.96 299.78 404.73 555.39 946.77 492.04 1136.38 487.60 1056.23 595.81 979.84 714.08 1114.94 709.37
00005460 00000074 832.76 302.37 401.68 552.97 944.62 491.34 1135.60 487.90 1054.70 596.76 979.10 715.24 1112.46 711.37
00005461 00000075 832.58 304.34 399.20 551.82 942.60 491.28 1133.95 488.46 1052.52 596.63 977.42 715.36 1111.15 712.01
00005462 00000076 832.23 305.52 396.68 551.01 940.85 492.61 1131.32 489.92 1050.65 596.11 977.15 715.04 1110.22 711.94
00005463 00000077 832.34 306.72 393.07 547.31 939.85 493.55 1129.50 491.56 1048.61 596.63 973.91 712.50 1109.04 710.18
00005464 00000078 832.48 308.66 389.98 543.00 938.87 494.20 1126.79 492.14 1047.24 596.28 973.27 710.93 1106.66 708.69
00005465 00000079 832.98 309.11 386.90 540.01 938.54 494.45 1125.60 492.33 1046.30 595.05 973.42 709.87 1105.74 707.65
00005466 00000080 830.89 308.09 384.70 532.95 939.30 502.51 1121.44 489.43 1048.51 587.82 973.24 714.18 1111.97 702.40
00005467 00000081 832.25 308.88 380.89 530.52 939.32 502.82 1121.23 490.30 1047.91 587.42 971.83 713.36 1111.10 702.21
00005468 00000082 832.25 310.75 379.34 526.96 939.15 503.57 1120.74 491.00 1047.41 587.47 971.47 712.80 1111.06 701.60
00005469 00000083 832.70 313.78 377.14 523.85 938.42 504.88 1119.18 492.00 1045.95 587.94 970.50 712.99 1109.50 701.65
00005470 00000084 832.95 315.50 376.25 521.89 939.30 505.39 1118.26 493.47 1046.83 588.86 971.00 712.42 1108.55 702.00
00005471 00000085 833.24 316.39 374.07 520.51 938.93 507.12 1116.32 494.71 1046.34 589.38 970.96 713.32 1107.18 702.72
00005472 00000086 832.77 316.84 373.11 519.80 938.04 509.07 1115.09 496.50 1045.33 589.94 970.36 714.32 1106.43 703.72
00005473 00000087 832.57 318.97 371.79 517.95 937.42 510.57 1113.19 498.33 1044.58 590.73 969.76 714.54 1104.29 704.31
00005474 00000088 831.03 320.70 371.45 516.65 936.29 510.97 1109.98 499.24 1042.76 589.07 967.97 714.55 1100.00 705.01
00005475 00000089 830.36 321.17 370.92 518.86 935.98 510.36 1108.52 499.37 1042.33 588.02 967.17 716.31 1096.71 707.62
00005476 00000090 830.08 322.09 370.44 523.20 935.32 510.16 1107.49 499.57 1041.86 590.50 965.42 718.45 1095.10 710.16
00005477 00000091 829.86 325.58 369.80 525.14 935.68 508.81 1107.06 498.82 1042.02 590.62 964.13 718.24 1094.93 710.51
00005478 00000092 830.42 326.52 369.00 525.38 934.46 506.82 1105.97 494.61 1041.26 587.32 964.43 718.20 1095.44 708.71
00005479 00000093 830.97 325.40 369.95 527.24 934.76 502.71 1107.22 488.75 1042.31 580.33 964.66 716.89 1097.11 705.97
00005480 00000094 834.58 323.54 368.26 525.41 937.69 497.77 1112.09 484.00 1046.90 571.25 969.07 711.96 1103.90 700.98
00005481 00000095 837.99 321.60 365.18 515.62 943.66 493.60 1117.15 483.52 1053.15 560.76 972.41 698.09 1112.33 690.01
00005482 00000096 840.94 318.50 362.99 501.53 949.33 489.62 1121.89 482.37 1058.89 558.30 979.76 688.58 1116.89 681.83
00005483 00000097 841.25 316.67 364.00 498.02 951.06 487.24 1123.51 480.92 1061.49 556.09 981.32 682.61 1119.87 676.08
00005484 00000098 840.39 314.27 365.00 496.78 950.53 486.78 1123.97 480.05 1060.98 556.09 980.40 681.11 1119.96 674.00
00005485 00000099 840.05 311.74 365.82 498.17 949.07 484.72 1124.21 478.69 1059.16 552.91 979.46 680.75 1119.16 674.12
00005486 00000100 840.03 311.52 365.78 496.76 948.81 482.80 1124.42 476.71 1058.21 552.91 978.76 679.94 1117.90 673.25
00005487 00000101 839.94 308.12 366.77 499.95 948.50 481.57 1125.09 475.83 1058.49 551.49 978.73 679.45 1118.51 673.06
00005488 00000102 834.06 308.01 378.80 503.45 948.08 474.35 1127.46 468.18 1058.42 561.48 979.56 676.10 1113.62 669.72
00005489 00000103 828.93 299.90 384.79 514.22 949.20 486.80 1133.02 483.75 1056.35 566.09 980.68 675.48 1127.60 672.73
00005490 00000104 829.24 297.59 385.60 519.89 948.75 489.88 1135.36 487.88 1056.28 569.73 978.87 678.81 1128.53 677.03
00005491 00000105 829.81 295.72 386.67 524.42 949.17 488.69 1136.43 487.06 1058.84 572.43 979.99 683.43 1130.41 682.20
00005492 00000106 837.42 301.78 382.48 523.02 956.97 486.93 1135.38 480.00 1068.80 569.22 986.55 688.21 1124.33 681.78
00005493 00000107 838.75 301.88 384.97 535.71 960.36 483.24 1140.96 476.98 1077.59 568.42 995.32 695.58 1130.46 689.53
00005494 00000108 840.57 300.01 390.58 551.98 965.34 480.28 1145.66 474.33 1086.29 567.73 1005.36 700.11 1141.38 694.07
00005495 00000109 843.76 297.73 393.28 558.54 970.05 480.56 1154.01 471.66 1095.34 567.28 1012.27 705.30 1149.86 696.29
00005496 00000110 845.33 294.57 396.13 564.98 972.41 481.67 1158.68 471.74 1099.59 569.26 1013.71 708.26 1153.91 698.10
00005497 00000111 844.50 293.34 399.98 568.33 972.38 482.81 1161.39 473.70 1098.98 574.53 1012.21 710.60 1153.55 700.89
00005498 00000112 842.39 291.62 402.66 573.03 969.74 485.86 1161.40 476.80 1097.76 578.98 1009.49 714.81 1152.66 704.97
00005499 00000113 840.25 289.67 405.88 577.20 966.84 488.23 1161.01 480.00 1094.49 584.53 1005.09 717.49 1151.39 708.37
00005500 00000114 839.70 289.20 406.99 579.40 964.97 489.67 1158.98 481.70 1091.55 587.76 1001.38 719.88 1148.09 711.19
00005501 00000115 838.97 289.80 409.70 579.66 964.78 490.62 1160.27 483.63 1090.98 591.11 999.45 721.44 1148.10 713.57
00005502 00000116 839.36 287.33 410.78 582.63 964.93 490.66 1161.92 484.88 1091.25 593.29 998.26 722.18 1147.91 715.31
00005503 00000117 839.71 284.06 412.54 587.41 965.03 491.64 1163.50 485.74 1091.60 594.30 998.94 723.07 1149.99 715.88
00005504 00000118 839.76 282.44 413.08 588.96 964.46 492.29 1164.54 487.72 1091.42 596.41 998.13 724.43 1150.47 718.34
00005505 00000119 839.65 283.02 414.57 590.27 963.33 493.46 1165.14 490.15 1090.10 598.16 996.90 726.30 1150.94 721.14
00005506 00000120 840.37 283.24 415.14 592.97 962.71 494.39 1166.04 491.39 1089.95 601.09 996.68 729.56 1151.78 724.69
00005507 00000121 839.67 284.59 417.60 596.07 961.70 494.88 1165.00 491.82 1089.09 603.16 996.58 731.92 1151.48 727.02
00005508 00000122 839.87 285.43 418.53 597.09 961.10 496.11 1165.08 492.80 1088.50 603.88 996.04 733.05 1151.67 727.96
00005509 00000123 839.98 285.66 419.26 599.03 960.78 496.68 1166.77 494.24 1088.74 605.92 995.70 734.90 1152.29 730.53
00005510 00000124 839.96 284.63 419.75 601.20 960.77 497.07 1166.84 494.44 1088.96 606.10 995.80 735.81 1152.87 731.26
00005511 00000125 839.66 283.58 420.75 602.70 960.28 497.41 1167.02 494.86 1088.41 606.58 994.84 735.82 1153.11 731.24
00005512 00000126 839.68 282.69 420.85 603.34 959.96 497.43 1166.87 495.03 1088.12 607.12 994.74 736.01 1152.98 731.54
00005513 00000127 839.60 281.83 420.15 604.36 959.28 497.69 1166.00 495.79 1087.09 607.94 993.22 736.27 1151.36 732.28
00005514 00000128 838.82 284.85 420.00 602.36 957.98 498.85 1164.53 497.57 1084.15 609.60 990.54 736.37 1149.93 733.13
00005515 00000129 838.79 287.43 419.67 599.71 956.23 500.83 1162.14 499.97 1079.73 612.28 988.24 736.00 1146.72 733.16
00005516 00000130 836.93 289.11 420.66 598.78 952.96 501.76 1160.85 501.71 1075.10 614.70 984.48 736.93 1143.71 734.87
00005517 00000131 835.47 292.17 420.91 595.79 950.03 501.76 1159.67 501.85 1072.11 616.99 981.81 737.28 1142.05 735.56
00005518 00000132 833.65 291.78 422.20 597.16 947.14 501.65 1157.26 501.87 1067.68 618.79 978.13 737.53 1137.14 736.12
00005519 00000133 833.36 290.84 421.75 600.20 944.54 502.01 1155.44 501.81 1064.93 621.57 975.70 739.41 1134.83 737.81
00005520 00000134 833.20 291.63 422.75 604.71 942.90 503.25 1153.65 501.85 1063.16 625.03 973.68 742.79 1133.26 740.15
00005521 00000135 833.10 291.26 423.42 610.88 940.76 506.76 1150.74 502.51 1061.38 628.23 973.11 747.61 1132.84 742.44
00005522 00000136 832.39 290.23 423.95 615.50 941.79 510.20 1150.95 505.75 1063.31 633.50 974.90 753.32 1131.38 748.18
00005523 00000137 831.76 289.50 426.59 620.32 943.16 511.89 1152.35 509.02 1064.26 635.36 974.41 754.41 1131.79 750.64
00005524 00000138 830.49 290.51 428.47 623.73 942.18 513.66 1153.14 511.32 1063.52 638.34 972.15 757.39 1131.10 754.29
00005525 00000139 829.99 290.74 428.76 624.69 940.99 514.75 1152.34 511.48 1062.34 639.48 972.63 760.33 1130.46 756.46
00005526 00000140 829.33 290.17 429.27 631.49 938.74 513.66 1152.58 509.00 1061.91 637.55 972.48 764.14 1133.54 758.84
00005527 00000141 829.94 290.14 427.88 640.52 938.91 510.59 1151.11 506.50 1060.06 637.70 971.29 766.74 1132.35 761.92
00005528 00000142 829.90 288.79 427.38 644.04 939.59 508.39 1150.75 505.93 1059.15 638.18 970.12 765.97 1131.53 762.45
00005529 00000143 829.57 288.01 426.73 644.11 937.52 506.65 1150.10 503.69 1057.44 636.45 969.19 765.43 1130.36 761.53
00005530 00000144 829.09 288.26 426.33 640.57 936.25 507.06 1150.25 503.71 1056.63 635.47 968.93 765.45 1128.01 761.34
00005531 00000145 828.54 289.77 423.89 629.56 935.15 508.27 1147.86 502.94 1054.81 634.22 971.48 764.67 1121.55 759.23
00005532 00000146 828.00 290.85 422.17 614.71 935.00 508.36 1145.29 503.34 1053.05 631.03 973.51 758.20 1117.27 753.29
00005533 00000147 827.67 292.99 421.08 603.60 934.58 508.07 1144.66 504.11 1051.90 628.58 972.60 753.72 1114.16 749.89
00005534 00000148 827.86 293.27 420.22 600.17 933.90 508.94 1144.39 504.64 1051.40 628.49 972.99 753.27 1114.93 749.29
00005535 00000149 828.05 293.64 419.66 598.17 932.98 509.11 1143.99 504.70 1049.89 627.43 972.06 752.44 1115.00 748.40
00005536 00000150 828.12 293.96 419.15 596.07 932.51 509.74 1143.02 505.38 1048.76 625.99 970.22 749.87 1115.01 745.88
00005537 00000151 828.13 294.11 418.55 595.06 932.03 508.45 1143.23 504.59 1048.17 623.46 968.51 747.24 1116.21 743.66
00005538 00000152 827.48 293.78 418.70 595.84 930.96 507.61 1143.05 503.55 1047.65 621.87 966.71 745.45 1117.22 741.73
00005539 00000153 827.78 292.74 417.30 596.81 931.10 509.40 1141.02 504.51 1047.85 619.80 966.27 743.76 1118.29 739.60
00005540 00000154 828.53 294.46 417.03 593.91 934.19 516.30 1140.85 511.35 1049.14 616.67 966.87 741.38 1122.26 736.88
00005541 00000155 827.85 293.23 416.66 594.96 932.95 516.27 1139.03 510.83 1047.55 616.29 964.89 740.42 1121.87 735.51
00005542 00000156 827.98 292.17 415.93 597.25 932.71 516.84 1138.25 511.85 1047.46 616.67 963.60 740.77 1121.13 736.22
00005543 00000157 826.96 289.46 414.46 604.51 930.44 517.78 1136.20 510.91 1045.91 618.45 960.92 744.26 1120.04 738.18
00005544 00000158 825.23 287.54 415.18 611.75 928.41 516.64 1134.00 508.62 1044.27 619.93 958.95 748.52 1119.12 741.41
00005545 00000159 824.18 286.31 415.20 617.78 927.13 514.87 1132.72 507.53 1042.13 619.77 956.93 748.59 1117.88 741.59
00005546 00000160 823.67 286.17 414.41 618.28 926.36 514.55 1131.50 507.62 1040.33 618.44 956.15 748.23 1116.19 741.60
00005547 00000161 823.58 287.53 413.15 613.83 926.09 513.68 1131.14 507.49 1039.62 617.65 955.39 747.74 1113.58 741.94
00005548 00000162 822.89 287.90 412.49 609.78 925.16 515.09 1130.49 508.96 1038.80 617.54 954.00 747.51 1112.86 741.98
00005549 00000163 822.68 287.26 411.57 607.46 924.69 515.55 1130.05 509.23 1038.85 616.74 953.21 745.99 1112.60 740.44
00005550 00000164 822.07 287.80 412.87 605.35 924.10 515.10 1129.80 509.45 1038.03 615.98 952.36 744.35 1112.25 739.42
00005551 00000165 821.16 287.65 413.44 603.07 923.54 515.30 1128.60 509.75 1036.82 615.22 952.57 742.62 1111.01 737.85
00005552 00000166 819.62 287.55 413.29 599.04 923.06 515.76 1127.50 510.41 1036.58 614.73 951.21 740.67 1109.95 736.21
