Video ID: 	6kMD9eZpduI
H: 	1080
W: 	1920
FPS: 	29.97002997002997

FRAME INDEX X0 Y0 W H [Landmarks (5 Points)]

00005849 00000000 573.99 231.04 364.00 524.29 721.95 442.95 880.08 433.95 849.41 541.40 752.34 640.48 876.92 633.90
00005850 00000001 575.55 226.63 364.16 529.11 722.20 439.26 879.46 428.75 850.69 535.86 758.66 641.12 878.85 633.21
00005851 00000002 574.20 214.81 366.10 533.01 721.33 435.90 876.68 425.32 850.47 529.21 766.77 638.72 879.12 630.17
00005852 00000003 567.58 209.42 367.51 528.28 711.85 442.83 877.17 425.96 840.83 533.27 768.05 642.60 883.93 628.29
00005853 00000004 567.16 208.39 367.32 524.23 708.97 441.98 875.40 424.64 838.75 529.46 767.26 640.39 884.71 625.48
00005854 00000005 566.65 207.57 368.58 532.23 710.20 442.17 878.09 426.93 840.73 531.46 766.35 642.01 885.14 628.88
00005855 00000006 568.87 210.39 367.00 535.84 711.65 445.92 879.82 430.70 842.66 536.50 764.16 643.58 886.03 630.78
00005856 00000007 574.33 216.48 364.99 531.23 719.46 436.79 875.48 426.90 850.62 531.61 764.60 641.99 881.06 633.88
00005857 DELETE   574.99 222.39 364.53 524.33 720.77 437.86 876.26 428.70 849.98 532.42 764.25 640.06 879.88 632.74
00005858 00000009 573.89 228.12 364.08 522.61 720.28 439.95 874.31 429.09 847.19 534.01 762.94 641.83 875.25 633.49
00005859 00000010 573.46 232.09 363.11 523.98 720.87 441.38 873.59 429.92 845.48 536.66 761.52 643.93 872.50 635.30
00005860 00000011 574.40 232.06 361.21 524.75 721.73 443.65 874.06 431.95 845.54 538.56 761.75 645.66 872.17 636.88
00005861 00000012 574.44 232.61 360.26 525.97 720.72 446.18 872.75 435.50 842.27 545.37 761.37 649.58 868.61 641.43
00005862 DELETE   575.27 235.18 360.36 523.98 720.43 452.35 873.64 441.06 841.85 551.26 759.88 653.27 868.96 644.48
00005863 00000014 576.45 239.61 358.62 520.31 722.92 457.43 875.91 446.27 843.83 558.01 761.39 656.57 869.98 647.79
00005864 00000015 577.67 240.00 359.26 522.52 722.02 462.89 878.14 449.91 843.65 566.35 761.80 663.73 871.55 653.23
00005865 00000016 578.04 243.15 359.41 522.40 722.15 467.95 877.52 454.35 842.68 571.20 763.92 668.28 871.99 657.01
00005866 00000017 577.06 246.23 360.12 522.58 722.24 468.84 877.05 455.60 840.91 573.28 762.84 669.63 870.11 658.78
00005867 00000018 576.83 245.30 360.04 525.66 721.83 469.51 877.02 456.97 840.99 574.23 762.92 671.79 870.06 661.53
00005868 00000019 576.84 244.87 359.86 526.85 721.17 468.20 876.19 455.78 839.83 573.69 762.09 671.91 868.39 661.78
00005869 00000020 576.64 244.86 360.31 525.73 719.87 467.47 875.21 454.75 837.99 573.83 760.61 671.49 867.63 661.03
00005870 00000021 576.29 244.99 360.14 524.81 718.96 467.50 874.67 454.23 837.58 573.64 760.47 671.40 867.81 660.42
00005871 00000022 575.41 242.42 360.69 526.28 718.06 468.31 874.13 455.53 837.49 573.56 760.48 672.13 868.22 661.40
00005872 00000023 576.73 243.20 359.25 522.73 718.63 468.50 874.38 455.09 837.74 574.29 761.38 671.07 868.69 659.80
00005873 00000024 576.15 242.42 360.70 522.29 717.84 468.18 876.11 454.98 838.78 572.44 760.73 669.72 871.12 658.46
00005874 00000025 575.73 241.16 362.12 523.26 717.84 468.09 877.04 454.69 840.15 571.49 759.60 668.48 872.69 657.20
00005875 00000026 576.37 240.66 360.71 521.92 718.68 466.26 877.29 453.82 840.87 569.41 759.45 666.14 872.82 655.69
00005876 00000027 576.26 239.87 360.38 521.00 718.65 464.69 876.78 452.34 841.01 568.69 758.87 665.48 872.02 655.16
00005877 00000028 576.20 238.72 359.50 519.63 719.08 464.37 875.84 451.79 840.75 567.38 760.36 664.74 871.60 654.24
00005878 00000029 576.07 242.28 359.17 514.59 719.26 463.97 875.38 450.85 840.03 567.07 760.34 664.40 870.48 653.51
00005879 00000030 575.65 242.36 359.68 516.45 718.72 464.29 874.25 450.95 838.88 566.74 759.81 664.84 869.16 653.83
00005880 00000031 575.41 242.29 359.93 516.20 718.99 464.15 873.44 450.43 838.71 566.15 760.65 664.53 868.75 653.22
00005881 00000032 576.41 241.79 358.79 517.60 719.04 463.53 872.90 450.01 838.21 565.54 760.34 663.74 868.02 652.67
00005882 00000033 575.98 241.61 359.18 518.04 720.05 463.07 873.01 449.69 838.25 565.93 759.99 662.64 867.07 651.78
00005883 00000034 575.00 242.39 359.83 518.17 720.00 462.38 873.40 449.07 838.33 565.27 759.02 661.96 866.63 651.16
00005884 00000035 575.21 242.64 359.92 520.31 719.35 461.67 873.20 448.23 837.46 564.17 758.61 661.63 866.46 650.71
00005885 00000036 575.40 243.12 359.28 518.87 718.85 462.11 872.17 448.74 836.72 563.56 758.03 661.31 866.03 650.49
00005886 00000037 573.85 243.41 360.70 519.82 718.24 462.26 872.05 448.73 836.38 563.34 756.71 661.04 865.59 650.12
00005887 00000038 574.34 244.05 358.84 518.01 717.31 460.72 870.78 447.84 835.66 561.30 756.44 660.20 865.26 649.76
00005888 00000039 571.77 241.98 360.59 520.30 716.78 458.71 869.11 446.09 835.03 559.61 755.75 660.09 863.25 649.90
00005889 00000040 570.95 241.34 360.69 520.00 716.01 456.90 869.02 446.37 833.88 557.57 754.83 659.07 862.46 650.61
00005890 00000041 569.42 240.83 361.22 519.38 714.71 459.46 865.31 449.27 829.42 558.32 753.60 658.98 860.09 650.77
00005891 00000042 569.28 242.35 359.37 518.60 711.26 465.19 861.65 452.24 825.16 558.18 750.23 659.31 857.80 649.28
00005892 DELETE   564.80 242.98 360.46 518.59 705.80 464.91 857.87 451.54 820.08 554.79 744.91 657.60 855.16 647.74
00005893 DELETE   564.34 243.29 358.79 517.77 701.06 462.26 854.37 446.51 814.57 555.42 742.57 657.93 852.10 645.73
00005894 00000045 561.01 239.91 360.62 524.89 695.24 457.25 851.67 443.49 810.38 551.45 734.51 656.71 848.25 646.13
00005895 DELETE   557.61 238.44 362.37 525.22 691.38 453.73 851.14 442.45 808.69 551.40 728.17 656.50 847.13 647.73
00005896 00000047 553.63 236.00 365.02 526.40 687.91 450.24 849.70 440.06 806.13 549.57 722.55 655.85 843.69 648.17
00005897 00000048 544.98 232.21 369.97 529.89 681.62 451.64 850.50 441.46 804.49 549.42 722.13 650.89 847.66 643.12
00005898 00000049 556.13 231.57 359.27 518.61 675.49 449.99 854.06 439.74 797.87 546.64 707.54 646.82 847.77 640.42
00005899 00000050 554.03 229.19 360.00 520.74 673.03 448.63 850.09 437.97 795.46 543.79 706.93 646.52 844.28 639.54
00005900 00000051 553.00 230.05 360.43 518.96 670.52 447.73 847.89 435.34 793.66 541.08 706.12 646.12 843.16 637.53
00005901 00000052 552.35 229.75 360.14 517.06 668.70 445.35 845.95 433.47 791.27 539.35 704.10 643.78 840.89 635.63
00005902 00000053 551.57 229.96 359.94 517.26 668.92 443.95 845.76 432.79 791.46 539.87 702.78 643.29 840.14 635.79
00005903 00000054 550.86 229.12 360.44 517.20 668.17 443.29 845.38 431.62 790.55 539.02 702.11 642.58 839.79 634.65
00005904 00000055 550.14 228.31 360.77 517.97 668.75 442.37 844.98 431.17 791.69 538.54 702.36 641.71 839.06 634.19
00005905 00000056 549.65 226.94 360.50 518.36 668.57 441.03 844.67 429.10 791.85 538.55 702.34 641.56 838.51 633.35
00005906 00000057 549.73 226.53 361.01 518.65 667.95 440.53 844.67 428.18 792.01 536.35 702.86 641.56 839.08 632.87
00005907 00000058 549.36 227.80 361.40 517.81 668.10 440.23 843.82 427.74 791.51 535.79 703.31 641.10 839.03 632.29
00005908 00000059 549.89 226.89 360.98 517.27 669.28 441.31 844.21 427.80 792.73 534.63 705.12 641.15 840.27 631.43
00005909 00000060 539.75 226.31 371.52 524.11 673.22 435.90 840.33 426.66 794.97 534.08 720.10 639.59 842.68 632.14
00005910 00000061 540.93 226.12 370.26 523.89 675.41 435.12 840.93 425.56 797.27 534.66 721.73 638.66 843.61 630.95
00005911 00000062 542.16 226.65 369.74 519.39 675.86 435.15 842.08 424.68 799.14 534.28 723.25 639.43 845.73 630.66
00005912 00000063 542.53 224.96 370.50 520.09 676.41 434.50 843.92 423.42 800.02 534.73 724.73 639.29 847.95 630.02
00005913 00000064 542.70 225.49 370.98 518.87 676.76 434.17 844.00 422.93 800.09 534.06 725.42 638.17 848.54 628.79
00005914 00000065 542.30 225.63 371.62 515.42 676.63 434.35 844.40 422.88 800.01 533.89 725.70 638.25 849.21 628.52
00005915 00000066 542.57 225.17 370.91 514.57 676.83 435.14 843.92 423.62 800.52 533.37 726.22 638.40 849.32 628.56
00005916 00000067 542.61 226.09 370.14 513.62 676.85 435.99 843.63 424.24 800.55 533.84 726.17 638.74 849.20 628.66
00005917 00000068 551.08 223.78 364.93 516.91 682.92 432.11 842.80 421.81 803.11 535.67 719.06 640.35 843.02 631.57
00005918 00000069 543.01 227.03 369.93 512.63 676.88 437.05 844.58 425.39 800.60 534.99 726.04 639.29 849.37 629.23
00005919 00000070 542.45 228.14 370.50 510.07 676.47 437.06 845.12 425.46 800.29 534.70 725.53 639.51 849.72 629.34
00005920 00000071 541.75 225.71 371.25 511.81 674.84 437.35 842.89 424.33 798.12 536.10 725.11 640.60 848.58 629.39
00005921 00000072 541.91 226.12 371.22 511.51 674.35 437.91 843.01 425.11 797.80 535.71 724.67 640.34 848.41 629.27
00005922 00000073 541.39 226.90 371.09 509.39 673.42 437.90 842.24 424.16 796.76 535.80 724.92 640.14 849.01 628.22
00005923 00000074 541.60 225.80 370.80 512.22 673.89 439.40 842.59 425.96 798.14 535.03 724.29 640.29 849.04 628.69
00005924 00000075 542.19 222.64 368.22 516.93 676.13 441.06 844.17 429.37 799.54 534.26 723.83 638.99 849.56 628.97
00005925 00000076 541.07 225.05 367.73 516.00 678.61 444.25 845.04 433.96 799.49 532.09 724.05 637.35 849.08 628.61
00005926 00000077 541.23 222.93 368.00 518.36 676.56 442.85 844.06 431.23 798.58 532.84 724.23 637.77 848.89 627.99
00005927 00000078 541.36 221.30 369.39 517.86 675.04 440.43 843.72 429.31 798.58 533.06 723.46 638.77 849.09 629.22
00005928 00000079 541.06 222.14 370.75 517.47 673.63 439.91 844.55 428.04 797.41 533.39 723.01 639.64 849.64 629.51
00005929 00000080 541.11 222.76 370.70 516.29 673.21 439.26 842.93 426.74 797.45 534.43 722.94 639.90 848.41 629.21
00005930 00000081 541.39 223.39 370.57 515.38 672.55 438.98 842.05 425.34 796.62 534.59 722.99 639.97 847.93 628.38
00005931 00000082 541.10 223.95 371.06 514.79 673.18 438.78 841.15 425.04 797.00 534.58 724.33 639.46 848.02 627.78
00005932 00000083 541.27 223.69 370.74 514.60 673.28 438.56 841.31 424.12 797.26 534.96 725.08 639.80 848.27 627.56
00005933 00000084 541.43 226.46 370.91 511.92 673.05 437.35 841.18 423.27 796.66 535.25 725.38 639.68 848.24 627.62
00005934 00000085 541.63 224.51 370.97 512.04 672.60 437.12 840.98 422.57 796.39 534.70 725.48 639.98 848.48 627.51
00005935 00000086 541.95 224.00 371.13 513.33 672.51 436.79 840.75 421.59 796.22 535.84 726.22 640.41 848.34 627.47
00005936 00000087 541.66 224.74 371.31 511.00 672.17 436.77 840.96 421.17 795.93 536.40 726.15 640.71 848.11 627.42
00005937 00000088 541.54 223.10 372.42 515.30 672.39 437.05 841.37 421.64 796.21 535.23 726.67 640.13 848.80 627.15
00005938 00000089 542.14 221.98 371.26 518.85 673.62 436.35 842.12 421.14 797.05 535.34 727.80 637.56 849.18 624.96
00005939 00000090 542.39 223.42 371.69 518.86 674.11 436.32 842.60 422.12 797.54 534.78 726.37 636.00 848.65 624.37
00005940 00000091 542.27 221.27 371.99 521.48 673.65 437.46 842.89 422.85 798.12 535.29 725.11 635.51 850.04 623.53
00005941 00000092 543.04 219.97 370.48 520.62 676.53 440.83 846.10 428.05 801.39 533.01 725.90 634.27 852.12 623.65
00005942 00000093 542.78 220.60 368.47 518.40 679.35 443.61 845.85 431.38 800.31 530.85 725.92 632.47 848.99 622.53
00005943 00000094 543.04 219.96 367.87 518.72 679.33 442.56 846.97 431.77 801.35 528.50 725.74 633.08 849.09 624.36
00005944 00000095 543.39 219.70 369.23 519.71 675.87 441.54 846.03 430.68 799.87 528.96 725.21 633.60 851.28 624.62
00005945 00000096 541.49 220.15 372.00 518.11 673.80 441.30 845.16 428.54 798.41 530.56 725.38 635.44 851.10 624.95
00005946 00000097 541.11 221.55 372.69 515.43 672.86 441.44 844.82 427.28 798.07 531.63 725.89 637.35 851.41 625.51
00005947 00000098 541.04 221.77 372.43 515.00 671.33 440.60 843.60 425.31 797.48 532.52 724.72 637.69 852.04 624.82
00005948 00000099 540.75 221.25 373.07 516.47 671.58 439.72 842.96 424.92 796.54 532.58 724.56 637.68 849.64 625.39
00005949 00000100 541.23 221.58 371.26 515.19 670.75 439.48 842.72 424.87 795.77 531.73 723.16 637.87 849.52 625.65
00005950 00000101 541.31 219.38 371.36 516.98 671.14 438.18 842.03 424.22 795.21 531.55 724.01 636.84 849.14 625.26
00005951 00000102 541.27 221.26 371.10 514.68 671.14 438.64 842.49 424.31 796.07 531.73 724.42 636.93 849.58 625.05
00005952 00000103 541.37 221.59 371.06 515.38 671.57 438.12 842.02 423.68 796.08 531.11 725.86 636.60 849.47 624.60
00005953 00000104 541.82 220.41 370.15 515.74 671.23 437.22 841.91 423.26 796.04 530.86 725.61 636.12 849.57 624.52
00005954 00000105 541.66 220.79 370.31 515.44 670.95 437.56 841.74 422.39 796.22 532.06 725.44 636.85 850.37 624.18
00005955 00000106 540.20 220.91 372.51 516.27 669.82 436.92 841.57 421.62 795.21 531.69 723.65 637.08 852.35 623.97
00005956 00000107 539.75 222.58 372.24 516.73 669.64 435.27 839.37 419.85 793.73 531.26 724.37 638.55 848.81 625.42
00005957 00000108 540.43 223.27 371.99 520.67 670.99 435.01 839.63 420.94 794.18 531.54 722.86 636.05 847.92 624.32
00005958 00000109 540.60 221.43 371.46 523.41 670.70 432.91 840.66 420.13 794.38 530.09 721.44 634.79 848.58 624.14
00005959 00000110 540.15 223.32 371.06 522.75 671.80 431.34 840.80 418.94 795.24 529.35 721.46 632.67 848.35 622.42
00005960 00000111 540.35 224.23 370.47 519.32 671.15 429.94 840.32 417.84 795.23 528.75 720.97 632.78 847.80 622.70
00005961 00000112 540.06 223.78 371.39 516.47 671.48 429.53 840.52 416.96 795.57 527.36 721.26 630.21 850.76 619.54
00005962 00000113 540.12 222.42 371.83 517.92 670.76 429.01 840.45 415.45 794.99 526.57 721.45 629.34 852.50 617.82
00005963 00000114 540.31 221.92 372.97 516.84 672.06 429.74 839.74 414.93 796.26 526.15 724.73 629.88 853.02 617.26
00005964 00000115 540.29 220.92 374.26 515.35 672.54 429.72 839.63 413.96 796.71 525.33 726.25 629.64 853.82 616.14
00005965 00000116 539.93 221.06 374.22 516.04 672.47 428.79 839.44 413.20 795.97 525.13 726.54 629.23 852.89 616.01
00005966 00000117 540.76 221.10 372.84 513.02 671.82 427.96 839.26 411.46 795.86 524.39 726.95 629.80 853.03 615.78
00005967 00000118 541.26 219.75 371.98 513.88 671.58 426.25 838.71 410.49 795.70 522.74 726.03 628.30 852.70 614.86
00005968 00000119 540.69 220.14 372.22 511.11 671.87 425.16 839.71 409.09 797.49 522.60 728.22 629.06 853.53 615.38
00005969 00000120 541.09 219.66 372.45 510.26 672.77 426.07 839.78 409.39 797.57 523.40 729.80 628.81 853.70 614.67
00005970 00000121 541.74 217.45 373.00 512.30 673.14 427.08 839.96 409.97 797.32 523.89 730.93 629.38 854.02 614.93
00005971 00000122 542.26 218.35 373.20 510.13 673.43 428.16 839.79 410.43 797.25 524.40 731.84 629.28 854.48 614.23
00005972 00000123 542.53 219.31 373.00 509.48 673.74 427.32 840.18 410.34 797.34 524.00 731.30 629.02 853.84 614.56
00005973 00000124 542.46 219.64 373.80 508.76 673.87 427.52 840.47 410.78 797.24 524.19 731.99 629.87 853.62 615.58
00005974 00000125 542.49 220.12 374.09 509.30 674.43 426.95 841.02 410.45 798.07 523.71 731.76 629.96 853.33 615.93
00005975 00000126 543.27 219.19 373.97 508.66 674.55 428.48 841.27 411.37 798.54 523.87 733.01 630.74 854.75 616.12
00005976 00000127 543.72 219.50 374.39 508.11 675.59 429.91 841.72 411.61 799.77 524.29 735.33 630.75 856.20 615.09
00005977 00000128 544.09 219.25 374.12 509.34 676.50 430.27 842.40 411.69 800.64 524.81 736.20 630.20 856.42 614.42
00005978 00000129 543.58 218.62 374.94 509.57 676.29 429.70 842.58 411.56 800.11 524.21 735.88 629.32 856.78 613.93
00005979 00000130 542.87 218.52 375.83 509.46 675.97 429.65 842.35 411.79 799.69 524.07 735.11 628.18 857.09 612.96
00005980 00000131 542.97 218.67 375.24 509.85 676.04 428.77 842.60 412.11 799.48 523.62 733.53 626.58 856.42 612.45
00005981 00000132 542.65 219.91 375.48 509.62 675.90 428.88 842.79 411.91 799.87 523.58 733.14 626.88 856.53 612.43
00005982 00000133 543.17 220.32 374.55 510.04 675.00 428.87 841.39 411.33 799.57 523.69 733.06 630.29 856.29 615.05
00005983 00000134 543.90 219.81 374.67 509.80 676.96 433.10 845.09 416.86 801.92 522.81 733.13 630.23 857.54 615.88
00005984 DELETE   544.51 221.12 371.00 507.31 679.76 435.15 846.08 420.91 803.32 519.62 732.70 628.15 856.48 615.67
00005985 DELETE   544.82 218.42 370.22 507.60 680.60 435.71 845.54 422.91 802.17 519.73 732.35 626.71 855.39 615.52
00005986 00000137 543.97 218.24 371.75 509.11 677.05 433.47 845.61 420.22 801.36 520.23 731.25 629.23 856.96 617.42
00005987 00000138 543.11 217.11 374.25 511.28 675.64 432.53 845.41 418.24 800.07 522.47 730.35 630.74 855.95 618.20
00005988 00000139 542.59 217.56 375.41 510.86 675.35 431.81 846.12 417.31 800.21 522.92 730.78 630.63 856.78 617.89
00005989 00000140 544.50 218.12 373.60 509.66 675.95 431.10 845.59 416.49 799.55 523.51 730.91 629.47 856.15 616.68
00005990 00000141 545.17 219.00 373.84 509.06 677.39 429.96 846.84 415.76 801.09 523.86 732.36 628.67 856.53 616.35
00005991 DELETE   546.08 217.78 372.46 510.51 678.17 428.53 847.29 414.58 802.35 523.91 733.70 628.94 857.07 616.83
00005992 00000143 546.86 218.10 371.95 508.75 679.38 427.50 849.51 414.57 803.98 523.22 734.45 628.37 857.61 617.11
00005993 00000144 547.52 218.00 372.49 507.67 680.54 426.77 850.74 414.03 805.40 523.04 736.26 627.87 859.30 616.70
00005994 DELETE   548.82 218.19 372.05 507.22 681.19 426.59 851.76 414.80 807.05 521.76 736.03 626.67 861.11 616.24
00005995 00000146 548.75 216.98 373.49 510.16 682.49 427.72 853.68 415.48 809.18 522.93 738.63 627.47 863.66 616.66
00005996 00000147 549.29 217.24 373.26 508.46 682.46 429.55 853.45 416.20 808.98 524.42 740.80 630.18 863.91 618.38
00005997 00000148 550.39 216.78 373.08 511.55 684.27 436.05 857.05 421.85 811.78 525.40 742.19 632.14 866.69 619.56
00005998 DELETE   551.06 216.50 371.68 514.35 687.40 440.68 856.55 426.95 810.99 523.35 740.93 629.94 864.69 618.15
00005999 DELETE   550.63 215.84 373.38 518.16 688.23 440.02 856.32 426.63 811.38 524.32 741.13 628.60 864.51 617.11
CROP_BBOX: 325 4 1157 918
