Video ID: 	oCBfVUK_qQM
H: 	1080
W: 	1920
FPS: 	30.0

FRAME INDEX X0 Y0 W H [Landmarks (5 Points)]

00004569 00000000 830.54 158.82 360.07 575.84 917.73 386.72 1103.53 386.13 1016.76 509.38 930.30 587.33 1099.68 589.78
00004570 DELETE   844.01 159.65 356.81 579.79 934.41 387.92 1116.40 384.26 1036.76 508.30 944.77 587.83 1113.98 587.60
00004571 00000002 842.52 161.59 366.77 573.31 945.48 382.21 1125.25 385.67 1048.70 500.84 954.19 584.51 1119.41 587.29
00004572 00000003 842.52 161.59 366.77 573.31 945.48 382.21 1125.25 385.67 1048.70 500.84 954.19 584.51 1119.41 587.29
00004573 00000004 846.30 160.19 366.03 568.89 950.37 375.76 1129.53 383.13 1050.64 494.87 959.99 581.47 1114.55 587.38
00004574 00000005 848.17 163.29 365.54 563.27 953.56 374.61 1130.64 383.35 1052.32 495.00 960.11 577.19 1113.60 584.36
00004575 00000006 847.53 162.14 365.75 566.63 953.22 375.01 1131.00 385.41 1051.88 496.29 957.22 579.97 1112.11 588.75
00004576 00000007 848.29 162.70 364.62 565.46 954.80 371.33 1131.90 382.29 1054.05 494.44 959.40 578.83 1110.33 588.02
00004577 00000008 850.18 162.08 365.06 567.83 956.76 369.33 1134.14 379.51 1056.14 492.68 959.83 577.44 1113.89 585.81
00004578 00000009 848.99 162.30 367.01 567.90 956.04 369.54 1134.06 379.26 1056.05 492.80 959.18 577.62 1114.57 585.60
00004579 00000010 849.74 159.80 366.34 569.90 958.74 367.84 1137.96 377.80 1061.05 490.84 960.69 576.09 1120.20 584.00
00004580 00000011 851.21 160.18 365.96 568.27 961.36 368.12 1140.50 379.43 1063.54 490.70 961.34 574.30 1121.38 583.43
00004581 00000012 854.55 158.32 365.93 572.55 964.16 369.67 1144.28 380.39 1067.93 491.90 965.03 577.19 1124.82 585.72
00004582 00000013 852.98 159.40 366.89 571.39 963.93 369.69 1143.75 380.60 1068.53 491.67 964.23 576.89 1124.56 585.70
00004583 00000014 857.80 156.84 366.35 577.18 967.11 370.95 1148.12 383.85 1070.32 492.88 965.46 579.41 1126.56 589.94
00004584 00000015 862.63 156.31 366.56 578.64 972.77 373.60 1151.43 387.79 1072.94 496.06 968.39 579.41 1127.76 591.34
00004585 00000016 866.49 155.83 368.54 581.57 977.53 376.45 1156.85 390.37 1079.02 501.81 973.52 583.84 1132.41 595.88
00004586 00000017 866.58 156.56 368.34 580.38 977.42 376.89 1157.05 391.18 1078.81 500.94 973.40 583.53 1132.74 595.86
00004587 00000018 865.43 157.03 373.65 583.68 979.47 379.10 1160.68 394.80 1081.77 507.24 976.45 588.32 1135.10 601.95
00004588 00000019 865.33 156.80 377.89 588.72 982.29 387.01 1161.55 402.44 1083.97 522.06 980.16 595.66 1134.95 609.31
00004589 00000020 865.33 160.83 380.58 584.97 985.27 392.68 1163.33 407.90 1085.37 530.49 983.54 598.96 1133.76 612.67
00004590 00000021 868.35 161.74 380.44 595.58 985.49 392.96 1165.59 407.84 1086.40 535.05 988.06 610.22 1133.65 623.18
00004591 00000022 871.27 164.42 373.57 603.30 984.69 397.01 1164.90 411.64 1087.02 541.17 991.80 622.08 1134.15 634.49
00004592 00000023 871.26 164.42 373.58 603.31 984.69 397.01 1164.89 411.64 1087.02 541.17 991.80 622.08 1134.15 634.49
00004593 00000024 873.11 164.90 371.39 606.39 986.06 397.31 1164.93 413.07 1084.93 545.39 991.57 625.80 1131.54 639.18
00004594 00000025 871.36 163.75 372.98 620.54 985.11 395.87 1162.94 412.69 1082.13 546.69 989.02 632.74 1126.68 647.06
00004595 00000026 875.42 176.35 369.80 611.99 980.66 400.78 1164.32 414.00 1085.47 551.24 988.26 644.94 1115.94 656.11
00004596 00000027 875.51 179.86 367.78 611.53 980.54 403.70 1166.60 417.83 1085.30 551.75 986.41 647.58 1118.62 659.27
00004597 00000028 871.98 182.79 371.95 604.24 978.25 406.67 1167.04 417.92 1086.03 555.79 987.46 647.43 1122.67 656.75
00004598 00000029 870.76 183.35 372.25 602.13 978.04 406.77 1166.52 418.04 1086.14 555.13 987.52 647.56 1121.85 656.87
00004599 00000030 869.12 182.18 374.54 610.72 975.62 407.70 1166.41 419.28 1084.92 558.37 983.51 649.96 1120.42 659.32
00004600 00000031 865.50 184.64 379.49 610.87 973.07 405.73 1164.96 418.53 1084.09 556.26 976.10 642.73 1123.26 652.95
00004601 00000032 861.11 187.43 383.57 605.04 972.02 402.40 1161.77 415.49 1082.26 549.00 969.71 623.87 1130.78 634.45
00004602 00000033 859.25 168.77 383.00 612.91 974.09 403.06 1158.46 415.34 1076.81 538.58 970.36 614.17 1137.69 625.07
00004603 00000034 858.63 168.05 383.59 613.86 973.64 402.79 1158.70 415.54 1076.62 538.03 969.83 614.73 1137.15 626.08
00004604 00000035 861.28 162.27 382.94 608.85 976.16 401.18 1160.72 413.71 1080.34 535.73 974.76 611.34 1139.65 622.53
00004605 00000036 860.96 161.52 386.93 602.46 981.10 406.15 1163.87 419.12 1083.57 537.47 978.00 606.65 1143.12 618.57
00004606 00000037 863.05 162.76 383.18 589.59 983.58 408.81 1164.74 421.51 1084.83 530.53 978.63 600.40 1143.49 612.05
00004607 00000038 863.37 160.94 384.09 585.11 984.94 403.22 1164.97 416.45 1087.69 527.11 979.73 594.69 1144.18 606.71
00004608 00000039 863.37 160.94 384.09 585.11 984.94 403.22 1164.97 416.45 1087.69 527.11 979.73 594.69 1144.18 606.71
00004609 00000040 862.71 154.77 384.01 589.37 985.25 394.35 1165.54 410.27 1088.96 517.78 981.62 592.63 1141.80 606.30
00004610 00000041 864.74 153.09 380.51 588.56 987.09 386.49 1165.95 404.99 1089.79 512.08 980.72 589.10 1138.02 605.00
00004611 00000042 863.70 154.39 379.35 582.43 987.84 379.13 1166.47 400.07 1088.83 505.81 979.33 579.57 1137.80 597.34
00004612 00000043 863.70 154.40 379.35 582.43 987.84 379.13 1166.47 400.07 1088.83 505.81 979.33 579.57 1137.80 597.34
00004613 00000044 862.62 154.08 379.94 579.37 988.10 372.66 1167.86 395.37 1090.52 500.78 980.11 574.55 1138.67 593.48
00004614 00000045 861.31 153.06 381.58 582.31 986.68 368.42 1165.69 390.02 1089.22 499.71 978.63 573.29 1137.14 591.28
00004615 00000046 861.76 152.47 379.15 583.59 984.59 365.92 1162.13 387.05 1085.07 497.41 977.90 573.39 1131.62 590.91
00004616 00000047 859.97 152.53 376.80 582.13 980.69 360.74 1157.45 382.18 1079.82 493.79 975.99 573.09 1122.83 590.58
00004617 00000048 860.03 152.58 376.77 582.05 980.72 360.78 1157.52 382.19 1079.84 493.77 976.00 573.12 1122.81 590.58
00004618 00000049 858.02 152.85 373.01 575.44 975.44 359.41 1155.40 378.81 1076.07 490.14 971.06 572.68 1120.24 588.48
00004619 00000050 857.47 150.88 369.22 577.25 972.74 361.72 1154.63 379.41 1075.92 485.42 968.00 571.24 1124.44 585.44
00004620 00000051 855.75 150.70 366.32 577.63 972.57 369.98 1150.85 387.87 1073.88 485.67 966.01 570.79 1123.32 585.39
00004621 00000052 852.57 152.26 370.24 574.71 971.17 370.91 1146.29 388.68 1071.66 486.98 965.43 569.43 1118.04 583.86
00004622 00000053 851.17 152.98 371.61 573.44 970.32 370.55 1146.38 387.52 1072.17 486.86 965.85 569.72 1118.24 583.52
00004623 00000054 848.32 152.66 371.07 572.95 965.92 365.57 1141.73 384.02 1065.91 485.46 960.81 567.12 1113.53 582.19
00004624 00000055 846.18 152.96 370.33 567.41 961.21 358.31 1136.58 378.45 1057.36 480.78 955.81 562.96 1104.92 579.53
00004625 00000056 841.71 152.64 373.30 568.85 954.17 353.72 1131.16 375.23 1049.35 478.58 951.58 561.95 1099.95 579.57
00004626 00000057 838.95 154.18 375.66 563.39 948.32 359.42 1126.78 369.93 1049.80 473.53 949.30 558.93 1113.53 569.02
00004627 00000058 839.04 153.75 375.28 564.18 948.04 359.61 1126.77 370.00 1049.82 472.58 949.05 558.93 1113.73 568.97
00004628 00000059 839.44 148.72 372.76 561.08 944.27 358.81 1123.74 366.57 1044.00 468.35 946.57 552.06 1114.82 559.37
00004629 00000060 836.95 148.73 368.81 557.30 938.76 353.34 1119.47 357.03 1042.26 457.71 944.92 548.48 1112.97 552.68
00004630 00000061 835.72 140.35 366.12 564.87 934.17 350.61 1115.98 353.79 1038.18 455.34 942.96 548.74 1110.04 551.92
00004631 00000062 826.91 137.19 369.31 567.72 926.65 348.80 1108.07 352.40 1029.23 455.19 934.00 548.12 1101.88 551.50
00004632 00000063 826.91 137.20 369.31 567.72 926.65 348.80 1108.07 352.40 1029.23 455.19 934.01 548.12 1101.88 551.50
00004633 00000064 818.46 134.74 369.94 571.90 917.12 348.70 1100.88 352.67 1019.31 456.77 923.96 548.79 1092.67 552.55
00004634 00000065 813.85 134.37 370.18 575.29 909.01 347.65 1094.86 349.93 1009.93 458.44 918.43 550.02 1085.91 551.80
00004635 00000066 806.44 138.87 370.35 578.94 904.99 347.30 1087.62 351.39 1003.54 459.66 915.52 556.10 1074.64 559.14
00004636 00000067 802.64 138.64 369.35 580.13 900.68 349.91 1082.38 354.17 999.46 461.21 911.72 559.01 1070.93 562.32
00004637 00000068 797.54 136.41 370.68 580.99 895.57 350.89 1077.69 355.71 995.76 463.23 906.11 560.06 1064.27 563.39
00004638 00000069 797.50 136.22 370.93 579.48 895.24 350.66 1077.79 355.79 995.50 463.40 905.93 560.10 1063.46 563.72
00004639 00000070 796.56 135.11 371.00 579.69 894.58 351.42 1077.19 355.10 995.79 463.50 905.83 557.04 1064.88 559.20
00004640 00000071 792.00 134.17 374.89 582.45 893.34 350.14 1076.86 354.50 995.93 465.92 904.86 558.58 1060.98 561.07
00004641 00000072 791.28 136.12 376.56 586.24 893.48 351.77 1077.66 355.75 996.83 468.78 903.98 562.28 1063.11 564.60
00004642 00000073 791.86 135.91 375.61 588.17 894.35 352.25 1077.25 356.52 996.88 469.33 906.33 564.65 1061.44 567.19
00004643 00000074 791.88 135.81 375.59 588.25 894.37 352.27 1077.23 356.53 996.93 469.35 906.36 564.68 1061.48 567.21
00004644 00000075 793.33 133.80 374.89 591.13 896.01 352.88 1079.19 357.05 999.10 471.24 907.47 566.53 1062.98 569.18
00004645 00000076 833.20 155.63 382.39 606.14 948.39 398.86 1129.92 412.23 1054.38 523.46 944.03 603.34 1108.03 614.67
00004646 00000077 834.64 153.79 380.88 612.84 948.95 398.20 1130.41 411.24 1055.19 523.00 945.45 606.17 1110.61 617.24
00004647 00000078 835.56 151.70 379.94 614.45 952.53 398.23 1131.69 409.61 1059.33 523.49 952.22 605.98 1112.15 615.47
00004648 00000079 834.84 151.84 380.90 614.06 952.19 398.46 1131.50 409.56 1059.35 523.42 953.00 606.18 1111.89 615.41
00004649 00000080 834.89 149.90 377.51 603.47 953.67 398.87 1135.16 406.58 1064.97 521.55 957.24 603.03 1118.92 609.25
00004650 00000081 834.97 149.66 378.02 604.75 954.56 399.05 1134.21 406.80 1065.26 522.68 956.77 601.01 1117.62 607.28
00004651 00000082 833.71 154.37 378.74 599.13 951.29 401.85 1132.50 407.63 1061.19 529.00 956.48 603.01 1120.92 608.59
00004652 00000083 832.80 154.89 378.22 599.93 948.26 402.25 1129.32 408.65 1055.82 530.97 951.15 603.67 1117.73 609.79
00004653 00000084 832.72 154.90 378.29 599.87 948.25 402.22 1129.28 408.65 1055.83 530.97 951.17 603.62 1117.74 609.76
00004654 00000085 832.03 156.00 377.64 598.47 945.37 405.05 1125.96 409.76 1051.65 533.62 950.23 606.94 1114.35 611.91
00004655 00000086 830.79 155.37 377.58 598.41 941.50 405.33 1125.18 410.20 1049.88 533.50 947.47 607.83 1113.86 612.94
00004656 00000087 828.43 155.74 378.74 599.05 939.68 405.80 1124.38 410.36 1049.65 533.22 946.22 608.84 1113.66 613.86
00004657 00000088 828.93 156.46 377.76 598.92 939.10 406.78 1123.77 410.72 1048.98 534.57 947.48 612.06 1112.43 616.37
00004658 00000089 829.00 156.15 377.26 599.75 939.75 406.52 1123.66 410.48 1049.53 534.76 947.16 610.93 1112.59 615.42
00004659 00000090 828.57 156.78 377.44 600.18 939.25 406.85 1123.04 410.69 1049.15 534.83 945.67 610.61 1111.79 615.03
00004660 00000091 826.56 155.86 377.60 604.73 935.64 406.75 1121.51 410.35 1047.34 534.00 943.54 614.56 1110.05 618.70
00004661 00000092 825.00 156.98 378.63 606.14 935.68 406.19 1120.76 410.42 1047.11 537.42 939.11 610.38 1110.59 615.61
00004662 00000093 823.49 155.48 378.68 606.86 934.20 407.16 1120.96 409.56 1047.17 538.79 937.69 611.92 1108.46 615.76
00004663 00000094 826.13 155.12 373.84 607.37 935.62 410.22 1118.29 413.59 1045.68 538.48 936.47 610.99 1105.73 615.97
00004664 00000095 826.14 155.05 373.83 607.41 935.61 410.27 1118.27 413.64 1045.66 538.50 936.42 610.96 1105.68 615.97
00004665 00000096 821.78 152.27 377.09 606.51 933.41 404.42 1109.84 409.04 1040.41 532.66 941.41 615.07 1092.11 619.62
00004666 00000097 818.80 147.38 378.43 608.11 929.39 395.18 1106.29 400.29 1033.08 525.06 939.76 611.10 1087.24 615.20
00004667 00000098 815.18 147.56 378.40 606.86 925.16 388.03 1102.29 393.44 1026.67 516.16 939.00 607.01 1085.47 610.88
00004668 00000099 813.39 146.90 379.25 607.01 926.24 380.40 1104.76 388.27 1027.05 507.39 935.41 598.76 1086.81 604.68
00004669 00000100 813.70 146.76 379.08 607.77 926.49 380.25 1105.07 388.39 1027.86 507.79 935.58 599.20 1087.12 605.25
00004670 00000101 816.26 147.45 374.96 604.95 924.53 375.56 1106.90 381.64 1024.77 499.99 932.50 595.63 1089.88 600.63
00004671 00000102 817.61 149.82 372.63 603.27 925.91 372.61 1106.77 378.89 1023.78 496.23 931.64 591.32 1091.24 596.31
00004672 00000103 818.28 150.53 368.90 602.01 925.23 370.05 1104.65 376.30 1023.35 493.95 930.12 587.30 1091.03 592.41
00004673 00000104 816.02 151.15 369.66 600.80 925.21 367.65 1104.22 375.37 1023.66 491.24 929.64 586.40 1088.44 592.24
00004674 00000105 816.99 151.08 368.93 601.12 925.16 367.60 1104.31 375.42 1022.97 491.17 929.09 586.14 1088.75 592.10
00004675 00000106 818.18 151.15 366.61 599.83 924.80 366.52 1103.94 373.57 1023.11 488.93 928.59 584.10 1089.65 589.66
00004676 00000107 816.18 149.11 369.16 603.12 924.70 365.22 1104.74 372.40 1024.33 487.79 927.94 582.02 1091.62 587.38
00004677 00000108 817.88 148.51 367.67 602.21 926.48 365.19 1105.70 372.89 1025.67 487.70 928.71 579.50 1093.32 585.34
00004678 00000109 817.63 148.34 367.92 602.37 926.78 365.22 1105.85 373.28 1026.00 487.90 928.53 579.14 1093.00 585.24
00004679 00000110 815.34 147.97 370.97 598.94 926.13 367.29 1106.38 375.96 1027.30 489.31 928.48 579.17 1092.22 585.98
00004680 00000111 817.05 149.97 372.52 587.77 928.34 370.91 1108.67 380.85 1031.76 490.94 929.18 575.18 1095.42 584.14
00004681 00000112 823.18 151.01 372.63 577.83 937.49 372.66 1117.44 380.50 1045.80 493.52 939.54 571.73 1107.70 580.05
00004682 00000113 823.01 149.49 372.76 579.38 936.98 373.19 1117.66 381.02 1045.70 493.88 939.13 571.97 1107.97 580.24
00004683 00000114 832.77 148.62 369.64 576.50 945.58 375.67 1127.77 377.82 1058.58 495.05 953.43 574.67 1122.68 578.63
00004684 00000115 839.65 148.82 366.81 581.29 956.30 377.83 1138.29 378.20 1074.67 495.51 964.15 576.53 1133.94 578.84
00004685 00000116 846.49 152.42 361.31 576.00 960.55 381.33 1144.03 382.99 1078.38 495.50 969.83 579.99 1136.92 583.25
00004686 00000117 848.04 152.12 362.11 579.26 964.18 381.80 1146.89 381.48 1083.61 498.27 971.59 577.91 1141.69 579.73
00004687 00000118 848.02 152.04 362.10 579.29 964.17 381.80 1146.91 381.49 1083.63 498.27 971.58 577.91 1141.72 579.72
00004688 00000119 848.20 153.88 363.09 590.16 966.14 383.61 1149.33 384.95 1085.60 499.03 970.97 584.11 1143.22 586.95
00004689 00000120 840.43 144.16 366.78 604.02 968.07 380.64 1145.08 392.00 1091.48 498.51 970.23 589.32 1128.07 598.52
00004690 00000121 842.18 142.01 369.93 608.12 975.07 383.95 1149.48 393.87 1096.75 502.88 980.34 588.30 1135.00 596.12
00004691 00000122 844.61 142.28 371.78 607.56 980.87 384.80 1156.31 395.50 1104.34 506.17 984.80 591.10 1138.57 599.69
00004692 00000123 843.10 147.65 375.58 598.75 981.85 387.06 1158.22 395.85 1106.07 506.14 986.78 590.16 1140.69 597.28
CROP_BBOX: 562 0 1488 927
