Video ID: 	YvBcKa_iMow
H: 	1080
W: 	1920
FPS: 	25.0

FRAME INDEX X0 Y0 W H [Landmarks (5 Points)]

00000087 00000000 923.60 216.01 378.04 560.92 969.87 419.09 1117.17 445.49 976.43 559.62 992.09 609.84 1137.60 624.17
00000088 00000001 928.90 216.79 371.52 571.06 975.46 418.80 1114.44 441.90 974.51 557.19 999.58 615.19 1140.26 626.69
00000089 00000002 926.36 204.39 379.14 597.04 970.17 418.18 1104.86 435.22 964.03 553.15 1000.88 626.45 1133.53 638.41
00000090 DELETE   932.03 198.78 374.61 606.27 969.33 428.25 1102.38 438.26 959.86 551.28 995.65 637.43 1121.90 644.55
00000091 DELETE   928.08 198.89 367.43 597.51 965.85 431.24 1101.68 444.94 962.15 551.08 984.51 639.69 1103.31 650.27
00000092 00000005 919.10 203.79 376.18 585.57 956.95 432.86 1097.55 445.29 957.94 554.93 980.26 643.28 1097.44 652.05
00000093 00000006 916.53 200.88 376.96 589.58 952.35 429.84 1097.46 447.24 953.33 556.05 972.48 641.17 1095.86 653.52
00000094 00000007 915.96 201.27 375.95 585.15 954.63 429.09 1101.23 447.15 959.43 556.47 973.22 639.86 1096.99 653.00
00000095 00000008 917.21 202.45 379.92 585.85 956.86 426.28 1106.59 445.48 961.71 557.31 977.68 638.08 1105.40 652.63
00000096 00000009 918.44 210.83 380.30 580.97 959.97 425.96 1106.30 447.21 961.79 560.48 980.78 634.79 1111.36 650.94
00000097 00000010 916.54 212.49 381.39 582.27 959.41 427.47 1106.29 447.79 962.33 561.47 981.08 635.27 1113.27 650.65
00000098 00000011 913.31 221.79 379.75 573.85 957.65 430.45 1102.81 451.10 960.98 564.45 979.76 636.25 1110.31 651.73
00000099 00000012 911.64 221.12 377.43 573.03 953.87 429.89 1098.95 450.95 957.69 563.86 977.74 635.89 1107.16 651.30
00000100 00000013 909.13 221.52 377.48 573.28 952.45 429.89 1098.06 450.01 958.49 561.95 975.68 636.26 1105.20 650.90
00000101 00000014 908.89 218.55 379.16 577.27 952.74 429.86 1100.71 449.63 960.68 563.12 976.99 636.57 1109.68 651.16
00000102 00000015 902.28 219.20 380.66 570.93 946.50 427.32 1108.10 449.06 966.15 563.83 970.37 645.40 1093.98 663.18
00000103 00000016 907.33 220.74 375.97 572.05 955.38 434.26 1104.42 450.19 971.36 559.42 973.21 642.29 1096.11 654.33
00000104 00000017 907.08 219.46 371.73 571.03 954.57 430.32 1103.27 449.21 969.26 558.62 969.16 642.72 1088.81 657.40
00000105 00000018 908.79 213.11 372.99 576.25 958.59 428.39 1103.04 444.81 969.07 554.53 974.55 642.69 1087.32 655.66
00000106 00000019 915.71 211.48 374.32 575.12 966.77 426.16 1115.63 444.35 977.19 551.65 976.60 635.98 1098.44 650.79
00000107 00000020 922.28 219.51 371.76 565.88 973.24 419.64 1136.07 447.44 991.55 557.50 976.14 630.72 1117.61 652.83
00000108 00000021 924.88 219.65 383.92 562.96 978.16 417.90 1142.50 439.50 999.71 554.54 983.49 626.18 1125.35 643.36
00000109 00000022 925.57 218.81 384.50 562.16 978.59 416.64 1143.28 438.48 999.74 555.17 984.85 627.03 1125.00 644.50
00000110 00000023 927.85 208.58 377.84 572.83 976.40 412.06 1142.21 443.06 994.98 556.99 983.71 629.46 1119.74 653.95
00000111 00000024 926.31 206.04 377.82 576.64 973.57 412.60 1136.95 442.80 990.33 554.63 978.71 628.46 1111.61 652.90
00000112 00000025 927.01 197.28 379.02 587.32 973.20 410.75 1133.21 440.39 985.29 550.53 978.31 629.84 1106.29 654.21
00000113 00000026 930.36 196.93 374.84 595.19 975.84 408.93 1133.02 437.93 985.69 549.04 980.66 634.83 1103.69 658.91
00000114 00000027 933.80 190.59 374.40 605.91 978.35 407.21 1133.57 435.46 986.89 543.96 982.59 637.47 1100.10 661.25
00000115 00000028 938.50 185.94 374.59 608.65 981.38 405.16 1135.24 432.58 988.74 541.57 987.36 635.37 1103.75 658.52
00000116 00000029 941.08 188.50 378.22 603.11 983.18 403.67 1137.75 426.52 993.62 537.23 993.25 633.87 1106.87 653.45
00000117 00000030 940.30 186.54 379.20 602.55 983.08 400.59 1137.65 422.95 993.43 532.83 994.44 630.51 1107.27 649.73
00000118 00000031 934.19 173.97 378.03 607.12 973.81 396.52 1130.12 416.83 983.79 525.89 982.68 626.27 1097.20 644.16
00000119 00000032 930.64 167.56 376.86 600.53 968.33 391.28 1121.20 414.12 974.75 521.72 976.56 618.09 1085.97 637.58
00000120 00000033 929.35 158.72 376.28 602.91 965.44 391.85 1112.54 411.88 968.71 516.50 975.92 612.50 1085.04 629.01
00000121 00000034 928.31 162.74 376.37 596.25 966.34 391.38 1108.81 411.18 963.17 516.18 979.86 606.08 1092.38 621.79
00000122 00000035 927.32 167.00 381.83 593.00 967.58 392.70 1105.88 411.29 963.28 516.49 983.60 601.99 1102.37 616.49
00000123 00000036 925.95 177.42 383.47 582.24 968.20 394.64 1105.00 413.52 964.67 520.77 985.63 602.16 1105.47 616.70
00000124 00000037 924.65 188.47 383.45 573.07 967.75 397.43 1104.50 416.29 964.49 525.46 986.02 604.05 1106.87 618.52
00000125 00000038 923.33 192.73 383.76 572.37 965.49 399.02 1102.73 418.51 962.43 529.32 985.58 606.72 1104.89 621.70
00000126 00000039 919.45 193.29 381.60 576.63 965.18 401.68 1101.46 418.49 964.87 531.28 983.77 614.17 1096.26 626.83
00000127 00000040 915.92 191.26 377.98 586.01 962.07 404.81 1100.69 418.15 966.51 531.04 981.29 623.38 1088.83 633.84
00000128 00000041 911.27 187.11 379.09 590.93 949.91 402.19 1101.56 419.32 963.30 531.48 970.33 627.53 1076.34 641.50
00000129 00000042 902.17 176.84 376.41 595.51 944.93 407.95 1088.83 422.22 951.89 537.01 968.38 625.28 1073.19 636.57
00000130 00000043 897.25 178.84 373.49 588.94 937.93 406.08 1081.48 422.56 947.20 534.88 960.44 620.68 1067.10 633.91
00000131 00000044 898.56 185.11 362.59 581.53 937.47 413.15 1080.21 429.56 943.65 530.05 956.19 621.11 1064.31 634.04
00000132 00000045 894.70 185.69 362.19 591.69 934.86 419.68 1077.33 435.13 942.72 533.44 956.78 623.99 1068.69 635.83
00000133 00000046 887.11 188.61 362.24 599.35 929.28 419.02 1075.77 436.76 939.28 539.37 951.10 630.25 1066.16 644.19
00000134 00000047 879.37 185.66 368.31 590.33 919.51 412.52 1074.64 429.11 939.01 543.83 944.50 631.13 1061.03 644.59
00000135 00000048 876.09 189.13 373.71 585.15 915.61 412.49 1074.34 426.37 938.03 544.16 937.89 629.36 1063.21 640.97
00000136 00000049 877.46 193.92 373.24 576.12 919.81 414.11 1080.66 428.46 946.69 543.56 940.02 627.57 1066.93 639.41
00000137 00000050 880.84 198.20 371.01 573.08 925.15 415.02 1085.58 430.54 950.60 545.40 946.74 627.64 1074.07 640.14
00000138 00000051 888.58 214.54 370.71 559.36 928.90 420.36 1082.31 431.59 952.32 548.03 947.08 623.13 1078.49 633.34
00000139 00000052 884.06 217.18 376.19 555.78 926.91 422.53 1083.31 432.13 951.90 544.23 943.85 615.66 1089.74 623.28
00000140 00000053 884.33 217.69 374.09 554.16 927.06 421.95 1081.99 432.73 949.80 542.18 941.79 613.20 1088.18 621.64
00000141 00000054 887.59 214.37 366.48 556.14 927.43 420.64 1079.71 433.31 946.15 542.95 940.63 619.40 1075.24 630.46
00000142 00000055 881.96 206.50 365.55 568.42 924.24 418.45 1081.13 435.30 945.27 551.45 946.16 636.54 1065.59 649.84
00000143 00000056 876.16 208.92 368.41 572.27 918.25 417.81 1076.55 437.13 938.55 556.44 937.75 640.03 1058.58 655.42
00000144 00000057 871.54 214.75 370.75 570.64 914.43 416.78 1072.59 437.94 931.64 558.00 935.27 639.47 1056.58 656.19
00000145 00000058 868.01 211.61 371.83 580.62 914.21 417.35 1069.05 434.68 927.70 555.64 941.47 640.31 1062.53 653.90
00000146 00000059 865.17 214.95 372.69 579.82 912.45 418.23 1066.47 433.30 923.77 554.01 941.83 638.81 1066.51 650.47
00000147 00000060 862.92 214.90 370.42 578.38 908.51 418.80 1062.53 433.28 920.67 552.28 933.62 633.37 1064.11 644.94
00000148 00000061 858.48 206.30 369.68 583.88 901.65 418.50 1054.81 432.95 911.87 549.51 922.91 630.33 1054.10 642.26
00000149 00000062 852.27 203.31 380.26 584.94 901.34 417.72 1047.98 429.42 913.09 546.51 921.44 628.03 1049.70 636.91
00000150 00000063 848.65 204.65 370.74 582.09 896.24 418.00 1048.92 433.29 908.58 545.84 913.13 628.78 1041.94 641.19
00000151 00000064 845.74 203.20 376.45 580.49 895.50 420.73 1041.64 430.37 910.51 544.49 914.81 627.16 1041.60 634.48
00000152 00000065 840.72 207.84 376.07 577.75 889.80 422.82 1038.61 430.21 907.49 545.13 912.69 629.71 1040.28 635.22
00000153 00000066 835.62 212.55 379.24 573.50 885.48 424.58 1036.44 431.93 904.84 546.85 911.06 630.78 1038.31 636.02
00000154 00000067 834.08 218.39 371.86 557.44 878.50 426.54 1027.63 432.53 900.84 547.99 901.87 631.15 1029.39 636.10
00000155 00000068 833.49 220.57 370.61 557.53 876.33 427.26 1024.71 432.46 898.59 548.90 900.76 632.89 1027.63 637.22
00000156 00000069 836.98 222.37 364.88 557.84 876.65 431.30 1020.81 436.10 895.14 548.95 898.63 632.50 1024.70 636.73
00000157 00000070 837.93 217.37 359.91 563.03 875.57 436.02 1016.20 439.48 892.35 545.74 896.34 631.23 1020.86 634.43
00000158 00000071 835.45 216.94 361.51 563.94 873.08 431.84 1015.39 435.40 890.16 544.98 893.96 629.99 1018.52 633.59
00000159 00000072 829.41 213.96 365.57 570.08 868.50 425.55 1012.73 430.11 887.32 545.50 890.47 630.83 1015.63 635.31
00000160 00000073 826.49 214.48 365.86 567.42 865.62 421.04 1011.93 426.66 886.74 542.70 887.14 627.79 1013.00 633.61
00000161 00000074 819.96 216.71 367.53 564.51 861.61 420.47 1010.45 426.96 883.89 542.31 880.00 626.61 1008.35 633.37
00000162 00000075 809.96 211.63 373.03 568.54 852.89 420.23 1005.77 426.61 876.71 539.70 871.87 624.79 1002.22 630.79
00000163 00000076 796.50 196.82 375.24 591.75 843.84 415.17 1005.14 424.80 868.08 543.90 871.76 635.09 997.52 643.10
00000164 00000077 796.78 215.79 372.21 572.06 842.02 415.43 995.71 427.50 865.84 545.41 865.68 631.36 992.91 641.42
00000165 00000078 788.07 216.33 380.29 572.18 838.25 419.58 995.15 426.51 863.62 548.91 860.03 636.58 992.07 643.18
00000166 00000079 795.92 219.03 367.94 566.93 844.11 423.09 1008.04 435.85 871.84 550.19 864.79 640.18 992.12 650.30
00000167 00000080 797.31 222.82 364.79 555.79 843.29 424.06 1006.75 437.39 871.84 552.14 860.89 640.71 985.37 651.36
00000168 00000081 794.77 221.53 368.41 558.92 840.64 425.14 1005.06 438.12 870.98 554.52 859.06 640.71 983.87 651.23
00000169 00000082 794.11 221.38 369.06 560.12 841.35 423.59 1002.98 436.82 868.96 551.66 861.53 640.46 979.83 651.27
00000170 00000083 794.69 218.47 366.43 568.53 840.96 422.87 1001.42 435.48 868.26 550.66 862.37 646.39 975.72 656.42
00000171 00000084 793.54 221.48 367.67 566.57 838.62 423.01 999.54 435.40 865.67 552.39 860.45 648.21 975.41 657.96
00000172 00000085 793.81 224.66 366.21 564.41 837.47 423.02 997.96 435.42 863.22 552.76 860.18 647.97 976.68 657.52
00000173 00000086 792.44 223.47 367.15 565.32 835.80 423.15 995.67 435.09 860.82 551.78 857.88 647.01 975.23 656.21
00000174 00000087 792.41 220.17 365.02 564.00 834.50 422.15 994.10 435.22 857.91 548.38 853.75 645.13 970.45 655.32
00000175 00000088 784.12 209.51 370.48 574.14 828.48 416.18 989.90 433.35 848.93 544.70 839.61 639.11 959.70 653.58
00000176 DELETE   780.91 195.58 361.08 586.29 819.21 423.36 968.40 440.14 832.17 539.59 831.61 639.73 936.39 653.37
00000177 DELETE   777.48 205.21 362.17 574.32 808.76 423.44 955.31 439.67 819.26 541.29 824.36 644.71 924.30 656.98
00000178 00000091 772.18 188.65 369.89 588.62 808.95 426.54 941.98 433.86 811.80 539.05 826.22 642.41 922.63 646.73
00000179 00000092 772.48 181.51 372.35 594.91 807.57 428.04 941.36 433.34 810.46 538.99 827.90 642.57 924.49 645.17
00000180 00000093 771.79 184.45 376.26 586.61 806.51 426.90 942.88 432.46 809.59 540.06 829.27 641.31 930.11 643.36
00000181 00000094 773.23 184.90 375.55 586.10 807.71 426.98 944.38 433.60 810.06 540.03 829.53 640.67 932.12 643.66
00000182 00000095 774.37 186.14 375.97 587.96 810.30 426.95 945.96 434.39 811.02 540.23 829.51 641.61 930.60 645.68
00000183 00000096 775.66 181.88 373.99 597.71 813.69 425.41 948.16 432.33 815.49 541.24 831.93 644.88 928.65 649.50
00000184 00000097 779.79 187.53 373.85 590.98 819.56 422.27 955.43 431.66 821.36 540.69 832.88 643.76 931.20 651.19
00000185 DELETE   787.71 198.73 370.47 582.78 817.84 418.13 965.18 435.57 828.22 546.71 832.14 647.68 932.99 662.16
00000186 DELETE   794.98 189.27 369.60 587.76 828.94 418.14 976.65 438.81 840.25 547.43 843.16 643.37 946.05 660.62
00000187 DELETE   807.89 191.40 368.59 584.77 842.07 417.62 990.55 436.76 854.01 546.75 855.95 639.44 970.32 655.28
00000188 00000101 817.35 193.24 369.82 582.16 851.84 417.48 998.04 434.52 857.69 544.76 868.48 633.11 985.36 646.71
00000189 00000102 823.77 199.50 368.63 575.01 858.37 421.73 1000.60 435.72 862.54 549.05 868.11 627.26 990.03 640.08
00000190 00000103 823.39 193.53 370.73 585.09 864.32 420.00 1010.08 434.44 874.27 544.34 884.64 636.23 995.13 647.30
00000191 00000104 824.14 199.08 370.06 583.14 866.81 423.39 1012.42 438.61 877.59 547.26 885.19 641.25 992.62 652.92
00000192 00000105 822.79 199.66 369.86 581.77 864.18 426.01 1011.55 441.74 877.74 549.76 882.60 640.37 994.02 652.55
00000193 00000106 820.31 196.80 364.56 587.73 856.69 429.04 1006.20 445.31 873.52 555.33 873.28 646.48 988.25 659.12
00000194 00000107 820.46 210.23 361.24 577.23 855.68 437.11 1001.15 456.46 867.89 557.54 869.32 650.66 982.08 665.29
00000195 00000108 816.75 212.53 360.92 576.18 853.92 437.85 1003.24 457.17 872.01 559.87 869.14 652.66 982.53 667.37
00000196 00000109 812.90 208.25 362.22 580.44 851.47 431.68 1006.73 449.42 876.21 559.86 867.30 650.38 983.93 664.33
00000197 00000110 810.96 209.87 364.76 577.10 850.33 429.50 1007.44 445.95 873.85 558.14 868.36 647.44 989.62 660.16
00000198 00000111 810.13 217.37 370.05 565.36 849.63 429.74 1003.94 443.17 866.87 552.65 862.02 639.43 989.50 651.19
00000199 00000112 809.21 219.10 369.48 562.45 849.83 428.38 1004.91 441.77 866.75 551.37 863.46 635.74 994.54 647.14
00000200 00000113 808.54 220.15 368.97 562.70 850.79 426.98 1002.97 442.27 866.16 548.26 863.49 631.11 994.70 643.73
00000201 00000114 807.91 229.15 365.72 556.73 852.38 432.64 998.66 449.06 865.67 548.25 865.44 632.45 991.50 646.18
00000202 00000115 800.74 217.19 367.17 577.75 843.46 431.18 993.04 452.08 852.88 553.63 866.61 639.42 988.89 655.17
00000203 00000116 797.44 213.76 368.86 578.96 839.76 423.67 993.25 446.52 849.94 552.43 858.71 639.99 978.05 657.95
00000204 00000117 796.92 203.48 368.29 589.08 838.51 418.67 995.69 440.60 852.05 551.58 854.51 643.83 971.41 661.47
00000205 00000118 797.03 205.17 371.69 585.01 838.03 416.41 998.26 438.01 853.77 553.06 854.32 642.64 975.28 660.11
00000206 00000119 802.99 201.42 370.38 583.83 841.68 416.27 1001.09 436.84 857.97 553.22 857.63 641.82 981.20 658.42
00000207 00000120 810.55 198.37 367.98 588.49 849.87 418.12 1004.54 436.48 863.54 548.83 867.64 641.75 985.85 656.67
00000208 00000121 817.71 200.27 369.71 590.62 860.25 422.25 1010.54 436.33 870.41 545.84 880.69 639.16 999.17 650.18
00000209 00000122 821.62 198.90 373.62 596.27 868.23 423.17 1014.91 434.94 876.33 542.51 890.13 635.93 1010.57 644.37
00000210 00000123 828.82 194.76 374.62 602.09 874.11 423.41 1017.53 433.19 880.93 542.14 898.61 636.60 1017.57 643.42
00000211 00000124 834.14 195.16 373.25 599.19 878.22 421.63 1019.46 432.96 885.09 542.73 903.16 633.57 1019.99 641.81
00000212 00000125 837.72 197.65 374.93 594.55 885.01 422.82 1022.21 433.10 889.35 540.67 905.72 633.48 1021.47 640.99
00000213 00000126 839.13 199.03 376.45 593.14 886.35 422.51 1023.43 432.08 889.77 539.80 906.17 634.54 1022.89 641.44
00000214 00000127 839.69 196.53 376.37 597.93 886.77 421.73 1022.50 431.88 888.61 539.29 907.53 633.50 1023.34 640.77
00000215 00000128 837.97 194.93 371.33 602.52 885.16 419.92 1019.18 430.74 884.69 538.25 909.37 635.01 1019.95 642.80
00000216 00000129 837.05 202.60 367.09 582.94 877.06 423.26 1013.33 429.17 879.34 546.40 900.31 635.24 1016.46 640.21
00000217 00000130 836.30 200.83 366.01 583.14 874.27 423.48 1008.52 428.92 873.80 544.56 895.05 632.06 1013.05 636.78
00000218 00000131 835.35 197.83 364.02 582.25 872.10 422.37 1005.58 428.33 871.82 542.78 892.71 626.21 1011.40 631.26
00000219 00000132 831.48 186.81 367.92 589.42 870.80 416.09 1005.23 424.87 869.60 534.82 898.47 625.48 1008.57 630.88
00000220 00000133 829.37 186.72 370.77 577.08 866.07 414.62 1002.23 425.64 866.09 534.84 892.25 622.07 1001.44 629.20
00000221 00000134 826.63 184.46 373.95 575.99 860.42 414.04 999.25 424.27 861.54 535.41 886.91 623.12 995.88 629.84
00000222 00000135 825.85 180.44 373.00 580.79 857.90 413.62 996.79 423.17 858.51 533.58 883.43 623.91 991.64 630.31
00000223 00000136 822.46 183.83 373.39 578.86 854.96 413.00 991.95 423.33 855.12 534.76 881.19 624.23 987.21 631.65
00000224 00000137 818.21 186.04 375.32 581.26 849.99 412.88 987.88 422.77 850.52 535.90 877.35 625.71 983.96 633.06
00000225 00000138 812.23 179.45 376.93 587.78 842.66 411.96 981.38 421.50 844.58 537.63 871.54 627.12 979.82 634.37
00000226 00000139 806.31 177.53 378.41 587.07 835.81 413.58 974.85 420.73 840.54 536.47 864.05 627.08 971.88 632.74
00000227 00000140 803.60 177.50 380.49 588.01 833.05 412.55 972.62 420.26 839.34 535.73 858.17 627.94 965.39 634.56
00000228 00000141 804.60 179.80 377.63 584.40 832.89 412.78 970.53 422.11 839.87 536.16 854.39 630.57 956.19 638.84
00000229 00000142 804.06 178.71 379.25 586.77 831.81 413.50 971.42 421.28 839.93 538.05 858.27 633.21 960.89 639.80
00000230 00000143 804.90 181.06 384.01 586.32 830.42 415.99 974.64 423.07 842.61 543.14 860.72 638.37 965.29 643.97
00000231 00000144 809.05 190.47 386.21 579.53 834.15 418.02 980.44 425.73 844.97 545.80 865.13 637.66 974.01 643.24
00000232 00000145 812.46 191.29 385.34 581.79 839.25 418.87 986.13 427.82 850.20 547.07 867.20 637.79 976.51 644.37
00000233 00000146 815.45 193.09 384.46 583.74 842.47 417.10 990.21 427.34 853.86 547.56 867.53 643.19 972.20 651.08
00000234 00000147 812.06 198.75 388.49 584.73 848.28 419.15 1000.42 426.36 866.01 544.71 878.38 651.54 976.63 656.21
00000235 00000148 815.08 193.40 385.79 597.12 848.29 423.45 994.69 429.77 863.42 556.78 880.15 657.88 978.13 662.42
00000236 00000149 818.31 199.25 384.41 591.20 851.87 426.94 997.77 432.62 865.22 554.74 883.05 653.25 986.03 656.96
00000237 DELETE   819.33 215.31 380.20 566.10 853.93 436.81 995.90 442.21 862.52 558.04 875.64 642.51 998.29 647.71
00000238 DELETE   827.75 203.55 375.80 580.42 867.99 433.91 1010.12 445.49 879.48 553.66 897.28 636.17 1016.66 643.50
00000239 DELETE   829.94 198.00 383.64 588.46 875.80 427.93 1019.12 436.24 887.19 550.19 906.29 637.91 1022.22 643.12
00000240 00000153 830.77 202.33 388.60 588.27 879.69 425.07 1022.86 431.28 892.90 551.31 911.87 641.76 1025.08 645.81
00000241 00000154 835.63 200.58 385.55 589.49 881.71 425.08 1026.80 430.42 894.75 549.53 907.78 642.39 1021.41 646.01
00000242 00000155 838.45 209.28 381.09 584.38 879.00 418.40 1032.90 429.68 897.07 550.38 902.16 644.34 1014.05 652.95
00000243 00000156 843.13 199.77 378.03 590.90 881.91 415.83 1039.28 430.29 899.50 551.71 902.67 641.80 1021.34 653.06
00000244 00000157 844.21 204.94 380.40 587.35 886.22 413.76 1041.35 428.78 900.95 553.70 907.29 637.27 1031.90 648.90
00000245 00000158 843.11 201.15 381.34 587.31 884.24 413.56 1040.01 427.84 897.54 551.01 905.53 635.66 1032.33 646.63
00000246 00000159 842.11 212.71 381.47 568.53 880.50 411.17 1036.14 425.66 893.60 551.22 902.37 634.12 1024.04 644.83
00000247 00000160 842.41 207.21 382.39 571.97 879.06 411.47 1036.00 426.55 894.34 551.35 898.48 633.71 1019.98 645.28
00000248 00000161 840.70 209.03 384.50 566.00 878.56 411.73 1035.44 426.16 897.11 550.91 899.46 633.69 1019.27 644.60
00000249 00000162 841.16 210.05 381.47 567.83 879.40 411.63 1033.34 426.36 896.77 547.45 899.15 635.18 1011.63 646.53
00000250 00000163 838.50 207.68 379.24 570.41 876.89 414.30 1032.97 427.53 897.16 548.88 898.41 639.18 1009.25 649.40
00000251 00000164 837.57 208.10 378.22 574.27 876.88 415.92 1032.37 429.70 897.88 551.83 900.28 642.84 1008.18 653.30
00000252 00000165 834.38 197.78 379.51 585.08 874.33 416.99 1031.12 429.70 898.45 548.98 898.83 646.85 1002.49 656.72
00000253 00000166 828.23 197.50 383.25 594.60 874.52 416.41 1029.59 429.67 898.96 545.02 897.57 649.84 998.47 660.50
00000254 00000167 829.51 195.30 378.26 602.60 879.05 422.25 1022.35 428.09 894.93 544.72 902.87 652.40 999.09 656.97
00000255 00000168 831.40 195.21 372.37 605.81 880.99 422.02 1022.33 428.14 894.56 543.32 904.69 652.71 1001.07 657.64
