Video ID: 	DwRw4_sevCQ
H: 	1080
W: 	1920
FPS: 	25.0

FRAME INDEX X0 Y0 W H [Landmarks (5 Points)]

00021805 00000000 628.60 160.69 424.21 596.32 746.14 391.27 931.53 437.17 810.32 507.58 716.95 589.95 876.01 627.28
00021806 00000001 626.98 161.92 427.53 594.64 745.83 391.98 933.46 438.08 811.66 508.76 715.42 592.30 877.73 629.74
00021807 00000002 625.36 161.31 427.81 593.67 745.69 391.52 933.79 438.27 812.42 509.29 714.40 592.24 877.29 630.30
00021808 00000003 623.24 157.34 423.69 597.63 742.21 390.17 927.89 435.23 809.49 505.51 712.52 593.84 873.28 630.06
00021809 00000004 619.64 157.92 421.87 604.35 737.80 386.16 924.95 431.96 802.71 505.29 705.42 593.96 867.38 631.02
00021810 00000005 614.57 157.00 424.02 610.20 732.14 387.54 922.04 431.51 800.56 506.05 699.75 598.27 863.73 633.88
00021811 00000006 611.23 164.56 425.24 606.45 728.29 390.75 918.54 434.05 795.45 513.91 695.06 602.46 857.11 637.89
00021812 00000007 610.63 166.83 424.79 606.22 724.60 395.80 915.26 439.86 790.49 518.85 690.66 604.43 855.50 640.34
00021813 00000008 610.15 168.76 422.95 599.40 722.01 396.25 911.61 439.65 788.16 519.06 690.38 604.50 853.56 639.77
00021814 00000009 608.49 172.38 425.52 597.42 722.10 392.81 911.98 435.68 787.41 514.28 687.95 602.20 853.18 637.14
00021815 00000010 607.97 167.64 423.22 603.82 723.60 389.24 912.57 434.26 788.97 509.72 687.12 601.82 848.08 638.90
00021816 00000011 602.56 158.42 423.67 607.43 716.95 379.21 907.96 425.16 779.18 495.12 682.11 592.18 843.78 629.50
00021817 00000012 603.19 157.86 422.34 591.59 716.97 376.91 906.08 424.04 781.10 488.52 682.48 583.19 844.85 621.50
00021818 00000013 603.32 158.50 423.02 586.21 715.76 376.91 904.01 424.67 777.80 490.17 681.69 579.85 843.40 618.70
00021819 00000014 604.76 155.40 423.47 592.64 714.08 381.87 900.15 427.50 773.76 501.17 684.85 582.49 840.94 619.07
00021820 DELETE   605.55 167.06 428.24 584.32 714.61 391.43 900.00 440.32 769.21 514.39 684.62 594.33 830.13 633.90
00021821 00000016 609.06 169.86 426.07 588.32 716.65 397.35 902.34 451.84 766.63 527.03 685.11 600.81 830.15 645.33
00021822 00000017 609.18 167.12 429.18 589.43 716.79 394.30 903.21 447.16 768.52 521.93 684.22 600.15 830.77 643.12
00021823 00000018 613.53 161.40 424.54 590.65 722.25 385.89 903.69 436.74 772.37 509.09 687.49 591.08 831.19 632.63
00021824 00000019 610.28 151.07 429.13 583.13 722.69 375.49 902.36 430.42 763.83 492.92 682.48 570.57 825.74 617.76
00021825 00000020 610.20 150.07 429.33 582.82 723.22 374.80 903.53 430.25 765.02 492.70 682.56 569.48 826.54 617.10
00021826 00000021 612.72 156.23 427.79 591.53 725.31 377.55 910.90 429.11 779.89 497.60 687.93 584.93 838.43 627.10
00021827 00000022 614.94 159.00 427.43 599.34 727.36 387.17 913.92 434.27 784.72 509.77 692.92 598.93 844.90 637.20
00021828 00000023 615.83 157.17 428.20 600.08 730.46 388.41 917.24 435.89 789.29 507.04 695.44 598.10 849.77 636.53
00021829 00000024 617.80 152.78 428.71 597.96 736.66 380.19 923.96 432.37 795.02 497.03 696.80 588.49 853.59 630.97
00021830 00000025 617.27 146.67 430.61 592.61 738.49 371.62 924.41 431.21 787.73 491.57 693.46 573.63 843.03 624.54
00021831 00000026 618.21 146.12 428.67 592.99 737.03 372.76 922.45 430.36 786.26 489.91 693.33 572.36 843.96 621.58
00021832 00000027 617.68 148.71 426.49 590.73 736.76 375.15 923.26 433.18 786.81 493.58 692.67 574.51 843.56 624.35
00021833 00000028 612.16 150.62 432.16 596.18 733.58 380.15 919.12 437.51 784.31 501.52 690.54 580.07 840.78 629.11
00021834 00000029 613.60 156.11 429.78 589.53 734.96 382.43 917.71 441.11 782.92 504.15 691.13 579.50 841.27 629.26
00021835 00000030 612.82 160.44 433.37 584.81 728.99 387.16 912.56 446.85 774.73 513.03 686.18 582.50 836.75 633.17
00021836 00000031 606.45 163.89 437.93 588.78 726.92 390.30 916.57 447.72 784.97 516.60 686.71 593.96 842.37 640.56
00021837 00000032 610.04 161.74 434.37 582.36 731.13 386.68 915.36 445.50 780.20 514.07 690.47 580.77 840.61 630.61
00021838 00000033 604.81 156.41 434.30 580.38 732.80 379.05 916.74 439.42 785.70 508.49 689.87 567.98 844.91 619.02
00021839 00000034 603.94 146.91 432.33 585.81 729.88 369.40 914.63 429.61 783.30 494.14 687.10 560.73 842.83 611.86
00021840 00000035 605.79 146.90 428.42 592.57 732.29 359.50 911.16 415.80 783.24 481.97 689.33 564.49 829.55 613.52
00021841 00000036 598.14 145.25 433.97 589.05 724.87 359.92 909.12 416.19 778.05 482.69 681.08 561.46 830.88 609.92
00021842 DELETE   596.58 144.97 431.72 586.31 720.94 366.64 903.31 424.75 769.73 494.09 677.75 565.58 827.25 615.23
00021843 DELETE   597.14 153.03 428.37 583.62 717.85 372.24 902.03 430.05 764.86 501.01 676.15 571.06 827.92 620.52
00021844 00000039 596.94 159.50 432.63 582.94 712.16 383.71 895.57 442.57 756.73 513.88 672.43 579.05 823.23 629.29
00021845 00000040 597.35 163.70 430.43 580.13 710.95 389.04 896.45 446.51 757.90 516.54 672.31 581.91 824.94 631.30
00021846 00000041 596.41 159.26 428.86 581.01 712.63 386.31 898.77 441.14 762.38 509.77 674.16 577.81 827.17 624.93
00021847 00000042 597.16 155.60 427.63 579.21 711.94 382.55 898.77 437.02 762.48 505.88 673.47 574.50 827.45 621.26
00021848 00000043 597.54 154.69 428.25 582.12 709.86 388.21 895.58 437.65 764.42 509.20 676.71 579.60 829.32 621.94
00021849 00000044 600.10 161.11 427.58 583.86 708.34 393.30 890.33 445.27 757.02 519.95 676.18 587.33 823.00 631.78
00021850 00000045 599.91 161.31 428.44 587.05 706.78 396.14 888.89 448.98 754.17 521.59 674.21 590.39 819.98 635.58
00021851 00000046 596.38 163.22 426.02 586.64 704.85 396.65 892.86 448.06 763.44 521.83 674.09 596.12 828.25 637.55
00021852 00000047 595.80 161.61 426.39 590.63 705.87 395.99 892.38 446.99 763.77 519.89 674.33 595.92 828.13 637.01
00021853 00000048 600.00 161.59 426.38 589.17 707.35 396.92 889.25 447.51 757.01 520.00 675.97 592.10 821.20 635.36
00021854 00000049 598.04 161.08 425.40 588.54 707.89 392.04 896.19 441.28 769.59 518.42 677.28 594.86 833.47 634.76
00021855 00000050 600.51 160.80 425.37 590.19 710.63 390.85 897.77 439.12 772.81 517.67 680.82 595.12 836.35 634.31
00021856 00000051 604.26 162.13 422.56 588.23 712.05 391.32 899.06 435.33 776.34 515.23 684.52 597.58 838.93 633.30
00021857 00000052 605.89 161.59 421.59 589.13 713.10 391.58 899.76 433.32 778.68 512.79 687.38 598.16 840.74 632.01
00021858 00000053 606.68 159.70 420.27 591.20 713.46 391.45 899.11 431.88 779.59 512.51 688.41 598.53 840.61 631.32
00021859 00000054 606.18 158.65 419.30 591.30 714.15 390.74 898.59 429.08 781.71 510.98 690.07 597.26 841.43 628.42
00021860 00000055 605.62 160.26 420.51 587.18 713.27 389.95 899.02 428.10 780.81 509.19 689.19 595.15 842.22 626.07
00021861 00000056 605.42 159.77 420.04 587.34 713.53 389.43 898.92 428.19 780.66 508.36 688.39 593.69 843.29 624.97
00021862 00000057 605.64 158.13 420.17 590.42 713.77 389.04 899.25 427.95 781.08 508.87 688.50 593.58 843.98 624.99
00021863 00000058 605.62 157.09 419.84 591.69 714.55 391.37 899.54 431.42 782.73 510.70 689.51 594.63 846.17 626.83
00021864 00000059 607.32 161.10 420.59 579.97 717.32 397.49 900.53 440.15 774.41 514.66 689.27 586.82 839.07 623.97
00021865 00000060 605.38 161.14 420.67 576.12 714.50 389.32 902.17 432.93 772.10 509.39 684.80 582.22 839.70 620.10
00021866 00000061 602.31 156.30 426.28 580.29 713.94 385.64 901.35 430.41 769.32 500.28 682.50 580.08 835.17 618.90
00021867 00000062 603.91 147.22 419.49 585.93 717.28 374.62 899.73 418.91 772.96 484.29 683.83 570.45 831.66 609.11
00021868 00000063 603.79 146.73 420.13 582.25 717.89 372.85 900.76 417.52 773.92 483.51 684.47 567.84 833.64 606.67
00021869 00000064 603.02 149.57 419.44 582.05 716.28 378.00 898.20 421.24 771.49 488.00 687.17 570.70 835.08 608.30
00021870 00000065 599.33 156.53 419.87 581.63 709.26 381.12 895.66 421.28 776.21 490.49 685.86 575.06 847.80 607.75
00021871 00000066 598.95 152.62 421.71 584.40 711.75 383.55 895.59 422.98 769.28 493.47 685.31 572.15 839.70 606.26
00021872 00000067 599.03 151.49 423.47 583.88 713.17 381.74 896.92 422.06 769.90 492.14 685.40 569.86 839.76 604.67
00021873 00000068 600.38 150.10 422.61 583.62 714.47 380.78 897.35 422.60 771.04 492.46 686.16 569.08 838.75 605.17
00021874 00000069 600.98 149.10 421.39 584.50 715.35 380.09 895.93 422.55 770.76 492.62 687.56 571.21 834.50 608.06
00021875 00000070 601.89 146.80 420.57 588.41 715.77 380.43 893.98 422.84 769.98 492.44 688.81 573.71 830.80 610.74
00021876 00000071 600.95 146.58 422.11 588.86 715.21 380.00 893.87 422.31 769.14 491.45 688.00 574.36 828.88 611.35
00021877 00000072 601.03 146.85 420.34 588.03 715.09 382.09 893.07 423.84 769.77 491.01 687.25 574.40 827.93 610.85
00021878 00000073 600.49 151.17 420.56 581.84 713.66 383.23 898.87 425.69 770.21 492.98 683.67 575.34 831.33 612.41
00021879 00000074 599.92 151.66 421.93 579.98 713.65 383.61 898.96 425.63 770.59 494.00 684.26 574.32 831.67 611.09
00021880 00000075 600.44 150.21 420.31 583.04 712.30 384.54 894.83 425.55 768.87 494.17 685.73 576.43 831.26 612.16
00021881 00000076 602.87 151.04 418.26 579.32 711.83 382.72 895.44 424.94 768.44 494.23 684.22 575.19 832.57 611.73
00021882 00000077 603.38 151.34 418.64 578.94 712.50 382.60 896.49 425.11 768.94 494.99 684.62 574.45 834.43 611.21
00021883 00000078 603.47 149.45 418.27 581.92 712.98 381.52 896.09 423.85 768.68 494.25 684.66 574.71 832.65 611.51
00021884 00000079 602.06 148.55 420.64 585.67 714.00 380.14 895.03 423.31 768.47 492.77 685.21 574.90 830.69 612.45
00021885 00000080 602.01 147.79 419.63 585.83 714.40 376.58 896.41 417.79 771.04 487.88 686.82 572.81 832.66 608.89
00021886 00000081 603.13 147.97 418.42 582.29 716.83 375.18 898.03 417.54 773.73 488.26 688.25 570.97 833.35 608.00
00021887 00000082 603.12 149.09 418.31 580.96 716.60 375.69 898.14 417.56 774.16 488.16 688.19 571.30 833.81 607.90
00021888 00000083 601.40 148.62 419.14 581.49 716.62 375.04 899.04 417.37 776.01 487.44 688.56 571.61 833.99 608.66
00021889 00000084 601.95 148.38 417.78 578.63 716.27 375.03 898.06 416.98 775.77 486.94 689.30 570.90 833.42 607.60
00021890 00000085 600.30 148.47 419.81 575.68 715.62 374.03 897.96 416.30 775.25 485.72 687.60 568.92 832.22 605.78
00021891 00000086 599.03 148.82 421.07 575.47 713.91 374.83 897.98 417.19 774.41 487.23 685.67 568.42 834.40 605.21
00021892 00000087 600.35 149.47 420.45 578.63 712.56 378.52 896.28 420.83 769.92 491.16 684.70 572.24 833.27 608.93
00021893 00000088 600.23 147.22 419.24 592.46 709.98 382.28 890.86 422.78 764.96 492.06 684.07 577.42 831.59 612.50
00021894 00000089 599.19 146.60 419.76 592.66 711.60 379.61 892.21 421.48 766.32 490.63 684.55 575.15 831.27 611.45
00021895 00000090 599.37 147.56 417.85 585.78 712.55 372.12 898.42 414.66 771.12 483.45 682.87 568.79 833.49 605.94
00021896 00000091 601.80 141.54 412.66 580.38 715.09 363.68 895.30 405.21 776.51 475.05 687.91 559.65 837.25 595.46
00021897 00000092 601.78 141.98 412.92 576.45 716.63 362.15 895.71 403.09 777.94 472.29 690.13 557.09 836.77 592.34
00021898 00000093 601.06 144.07 413.07 569.71 715.32 359.47 896.26 399.17 777.44 469.41 689.24 554.73 837.21 588.85
00021899 00000094 600.52 142.13 411.60 570.77 714.30 359.95 894.43 400.20 776.49 471.06 689.32 554.92 836.17 589.41
00021900 00000095 599.05 147.56 410.50 566.25 711.60 362.58 891.46 402.40 772.75 474.64 686.84 558.48 832.14 592.53
00021901 00000096 598.55 145.71 410.96 569.82 712.01 363.10 891.42 403.22 772.83 475.04 687.33 559.32 831.65 593.63
00021902 00000097 598.35 142.59 411.69 573.97 711.98 364.02 891.93 404.87 772.02 476.43 687.02 560.68 830.42 595.69
00021903 00000098 597.40 143.53 413.26 573.67 712.53 364.74 892.63 405.99 772.91 477.52 686.92 560.50 830.20 595.88
00021904 00000099 597.55 143.99 414.21 575.10 712.65 364.65 893.32 405.78 772.91 477.65 686.93 561.02 831.25 596.35
00021905 00000100 597.76 143.85 414.27 574.49 712.77 364.93 893.78 406.07 773.01 477.21 686.93 561.16 831.12 596.49
00021906 00000101 597.31 144.63 413.88 573.87 712.01 365.27 893.76 405.99 773.05 477.61 686.47 561.89 831.30 596.89
00021907 00000102 597.38 143.45 413.76 574.44 712.00 365.61 893.44 406.62 772.84 478.43 686.59 561.74 830.83 596.94
00021908 00000103 596.38 143.71 412.92 574.52 710.17 365.99 891.94 406.98 770.91 479.00 684.54 561.62 829.82 596.71
00021909 00000104 594.89 145.13 413.07 576.57 708.72 368.45 889.57 408.41 768.65 478.70 682.80 564.65 826.05 598.94
CROP_BBOX: 382 0 1266 899
