Video ID: 	Yn1pBF_L7ks
H: 	1080
W: 	1920
FPS: 	29.97002997002997

FRAME INDEX X0 Y0 W H [Landmarks (5 Points)]

00001649 00000000 779.92 224.48 392.89 570.94 902.51 480.50 1069.76 490.15 994.66 583.49 917.59 669.36 1050.12 676.51
00001650 DELETE   768.67 224.75 392.76 572.18 892.99 479.26 1059.80 490.88 985.41 586.65 904.58 668.23 1038.17 677.29
00001651 DELETE   768.38 214.34 391.11 583.99 885.94 481.93 1058.02 491.30 970.26 588.05 893.42 665.48 1029.96 674.64
00001652 00000003 755.33 222.15 389.44 575.94 878.99 477.18 1045.61 490.24 971.31 588.41 887.92 668.56 1019.94 679.64
00001653 00000004 754.04 222.77 390.67 577.75 873.66 483.18 1041.21 494.95 960.00 588.25 887.65 663.07 1015.85 674.53
00001654 00000005 748.84 220.34 390.15 584.11 868.25 481.61 1034.34 494.34 954.17 587.43 881.89 663.25 1007.76 675.76
00001655 00000006 733.63 221.21 395.94 576.53 856.00 482.46 1021.10 489.90 950.81 590.47 877.63 672.95 1004.81 678.46
00001656 00000007 724.50 222.47 394.71 576.99 847.55 481.41 1012.23 490.59 942.19 585.01 868.11 669.78 997.02 676.33
00001657 00000008 715.60 223.35 393.81 580.32 840.46 480.57 1003.82 490.47 932.64 583.95 857.50 670.79 985.31 678.12
00001658 00000009 705.27 221.54 395.10 584.82 832.35 479.40 995.22 492.68 922.45 584.43 843.00 670.33 972.48 680.59
00001659 00000010 697.45 222.81 391.51 583.41 822.57 478.91 988.20 491.93 913.92 587.34 831.28 669.58 965.69 679.82
00001660 00000011 688.86 221.36 391.89 581.11 814.78 478.89 980.19 492.51 905.52 588.23 820.35 666.26 956.93 677.33
00001661 00000012 683.35 220.01 389.99 580.79 806.70 476.65 973.25 491.15 897.75 588.45 812.43 664.28 950.23 676.38
00001662 00000013 678.51 219.90 392.26 585.56 799.20 482.62 970.03 494.64 887.39 589.44 808.19 658.82 947.11 670.47
00001663 00000014 667.11 219.73 394.41 577.55 787.51 482.21 956.90 491.06 884.65 590.34 800.47 666.32 942.92 673.79
00001664 00000015 661.27 226.23 390.34 574.11 787.64 481.96 954.62 490.63 880.65 590.35 796.59 665.25 937.09 672.31
00001665 00000016 658.86 227.28 388.52 571.10 785.21 482.68 953.55 491.36 878.73 591.28 794.84 666.56 935.52 673.54
00001666 00000017 656.09 225.37 389.86 571.52 783.36 483.08 951.88 492.59 876.93 591.38 793.63 666.55 932.77 674.21
00001667 00000018 655.54 226.59 390.00 569.74 782.71 482.99 951.85 492.40 876.48 590.64 794.04 667.53 932.88 675.15
00001668 00000019 657.76 226.55 388.72 570.66 783.26 483.00 951.83 491.92 875.92 591.65 795.81 669.82 932.79 676.96
00001669 00000020 659.08 221.57 392.12 574.96 780.63 482.90 951.00 490.99 878.56 592.02 801.66 673.21 937.21 678.85
00001670 00000021 661.65 222.15 392.34 574.04 782.93 483.71 952.64 491.18 881.02 593.71 804.97 674.51 938.68 679.88
00001671 00000022 662.63 223.53 392.87 572.76 784.96 484.63 954.27 490.87 883.59 594.37 807.41 675.98 939.24 680.49
00001672 00000023 662.79 223.18 394.44 573.97 785.25 484.79 954.50 491.81 883.28 594.03 806.25 674.78 939.11 679.94
00001673 00000024 662.45 223.67 394.35 573.91 784.91 484.79 953.38 492.22 882.21 593.02 805.01 673.36 938.37 678.94
00001674 00000025 662.06 223.50 395.26 575.10 784.06 484.91 953.81 492.96 881.71 592.97 802.78 672.03 940.16 678.06
00001675 00000026 661.88 224.07 395.22 573.68 783.94 484.59 953.67 493.48 880.74 592.40 800.60 670.16 939.60 676.92
00001676 00000027 662.01 223.84 394.39 573.07 783.90 483.62 953.44 493.33 880.06 589.96 798.57 667.25 939.19 674.70
00001677 00000028 661.78 222.70 394.52 572.33 783.71 482.21 953.34 492.57 879.41 589.31 796.89 665.09 938.17 673.02
00001678 00000029 663.07 229.69 388.54 565.39 787.61 483.24 954.77 492.57 879.72 591.66 794.20 661.72 936.10 669.38
00001679 00000030 663.98 227.65 389.11 566.54 788.00 483.32 955.99 491.86 880.28 589.87 794.70 660.90 937.28 667.99
00001680 00000031 665.80 225.76 387.69 567.88 788.46 482.82 956.04 491.29 880.11 588.98 795.34 660.49 937.70 667.48
00001681 00000032 666.23 224.93 387.79 569.77 789.11 482.01 956.23 490.84 880.73 588.42 795.43 660.09 938.13 667.37
00001682 00000033 665.91 223.81 388.79 571.23 789.29 480.73 955.93 490.03 880.78 586.69 794.81 658.84 937.53 666.56
00001683 00000034 665.74 223.63 389.49 569.72 789.33 480.30 956.38 489.98 880.96 585.78 794.42 657.44 937.51 665.50
00001684 00000035 666.88 222.63 388.65 569.02 789.41 480.67 956.40 489.26 881.33 585.44 794.98 656.79 938.27 663.92
00001685 00000036 667.97 221.46 387.53 567.23 789.72 479.22 955.47 487.23 881.19 583.81 796.05 655.36 937.51 662.09
00001686 00000037 668.07 218.69 388.06 569.08 790.28 477.71 955.40 485.30 881.92 581.89 796.44 653.93 937.23 660.45
00001687 00000038 674.28 212.28 390.58 575.79 792.46 470.92 965.21 485.58 881.58 575.61 795.68 643.38 940.99 657.27
00001688 00000039 674.48 209.02 390.18 577.97 792.56 469.44 964.91 484.22 881.82 574.31 795.32 641.75 941.12 655.56
00001689 00000040 674.58 208.45 390.49 578.47 792.40 468.68 965.20 483.73 881.67 573.69 794.95 641.08 941.24 655.08
00001690 00000041 674.47 208.44 390.65 578.89 792.04 468.73 965.14 483.63 881.41 573.99 794.50 641.76 940.70 655.71
00001691 00000042 674.58 209.47 391.28 578.75 792.17 470.17 965.47 485.12 881.57 575.14 795.44 643.22 941.61 657.14
00001692 00000043 674.77 210.22 391.27 578.77 791.86 470.72 965.19 485.40 881.22 576.67 795.14 644.58 941.01 658.40
00001693 00000044 674.38 210.70 391.64 578.78 791.47 470.91 965.09 485.88 880.60 576.86 795.06 645.01 940.39 659.15
00001694 00000045 674.29 209.26 391.57 581.64 791.11 470.92 964.59 485.97 880.10 576.87 794.73 645.91 939.01 660.15
00001695 00000046 675.36 209.79 391.59 581.31 793.52 472.65 964.95 487.71 881.76 577.49 798.78 646.96 939.62 661.14
00001696 00000047 677.14 210.25 389.59 580.68 794.89 475.28 966.25 489.03 883.87 579.55 803.10 649.05 941.19 661.96
00001697 00000048 678.57 209.42 388.31 581.93 794.29 474.27 965.54 488.01 882.99 579.22 803.36 650.06 940.51 662.94
00001698 00000049 677.60 210.18 388.48 580.30 794.21 473.58 964.83 488.54 882.66 578.26 802.41 649.42 938.43 663.49
00001699 00000050 677.20 208.48 389.52 581.86 792.53 473.17 964.81 487.87 881.19 578.58 800.13 649.71 937.96 663.58
00001700 00000051 676.97 207.67 390.00 582.22 791.89 471.85 963.87 486.81 880.25 577.95 799.41 649.76 936.76 663.89
00001701 00000052 676.85 207.27 389.74 581.66 791.06 470.18 963.36 485.44 878.74 576.94 798.01 648.59 935.43 663.05
00001702 00000053 676.98 207.28 390.14 583.20 790.94 470.29 963.30 485.53 878.68 576.63 798.72 648.76 936.40 663.17
00001703 00000054 677.89 208.07 389.94 582.03 791.95 470.44 963.69 485.82 879.31 576.41 799.83 648.19 937.42 662.68
00001704 00000055 678.07 209.00 390.16 583.02 793.47 472.03 964.17 486.87 881.17 577.75 802.04 649.50 938.67 663.53
00001705 00000056 678.94 209.84 389.47 581.72 795.25 474.60 964.72 489.31 882.91 579.21 804.89 649.86 939.87 663.63
00001706 00000057 678.96 211.23 388.85 581.04 794.69 475.28 964.26 489.43 882.11 580.12 804.84 649.39 940.64 662.67
00001707 00000058 679.20 211.65 389.24 579.93 794.65 474.81 965.23 488.99 882.56 580.42 804.02 649.36 940.93 662.72
00001708 00000059 678.91 208.46 390.38 582.45 793.14 473.14 964.92 487.11 881.10 578.96 801.25 648.71 939.64 661.94
00001709 00000060 678.29 208.12 390.64 582.59 792.59 471.90 964.80 485.57 880.88 578.52 800.40 648.66 939.48 661.72
00001710 00000061 677.92 209.07 390.51 580.49 793.41 472.28 965.73 485.78 881.88 578.35 800.75 646.86 941.40 659.69
00001711 00000062 678.65 209.99 388.88 580.11 794.52 474.78 966.56 487.86 884.09 581.06 802.89 648.03 943.02 660.38
00001712 00000063 679.81 210.50 387.07 581.26 795.67 479.05 966.41 492.09 884.20 580.70 804.61 648.40 944.72 660.60
00001713 00000064 678.81 210.73 388.78 581.41 795.42 475.69 967.63 488.55 885.05 582.15 803.62 648.78 944.39 660.96
00001714 00000065 677.61 211.81 389.81 582.90 795.29 476.44 966.60 488.89 884.64 582.59 803.08 649.80 943.87 661.80
00001715 00000066 677.27 211.43 392.28 582.66 795.06 475.30 967.74 487.54 883.83 582.20 802.77 649.94 943.51 661.86
00001716 00000067 678.14 212.64 391.61 580.95 794.91 474.90 967.71 486.18 883.95 583.44 803.53 651.04 943.89 662.14
00001717 00000068 678.93 213.55 391.01 579.67 796.00 474.84 968.76 486.13 884.81 583.54 804.40 651.67 944.49 662.81
00001718 00000069 679.44 215.44 390.73 576.99 797.20 474.61 970.31 486.36 886.25 583.47 805.05 651.12 945.86 662.60
00001719 00000070 680.08 214.15 391.01 577.58 797.56 473.85 970.10 486.14 886.01 582.94 805.15 650.83 944.84 662.80
00001720 00000071 679.16 214.91 391.22 576.93 797.90 474.04 971.20 485.89 887.28 582.86 805.37 650.48 946.21 662.08
00001721 00000072 678.81 215.01 391.18 576.66 797.52 473.51 971.01 485.46 887.04 582.67 804.66 649.64 946.49 661.27
00001722 00000073 678.83 215.37 390.71 575.53 797.22 473.61 970.98 485.50 886.97 582.48 804.32 649.89 946.20 661.52
00001723 00000074 678.49 215.19 391.21 576.78 797.60 473.09 970.58 485.33 886.88 582.42 804.21 649.65 945.50 661.66
00001724 00000075 677.67 215.03 392.36 579.60 798.15 473.52 971.40 485.64 887.98 583.62 803.90 650.74 946.07 662.67
00001725 00000076 677.86 214.87 392.66 580.04 798.22 473.34 971.35 485.42 887.99 583.88 804.76 652.33 945.19 664.29
00001726 00000077 678.19 215.14 392.70 579.28 798.10 473.78 971.66 485.94 888.09 584.29 805.90 653.20 945.70 665.17
00001727 00000078 678.69 215.38 391.79 578.10 798.44 473.49 971.65 486.54 888.37 583.62 805.55 652.50 945.20 665.20
00001728 00000079 679.41 216.09 390.88 573.69 799.31 476.17 972.49 488.50 889.71 583.45 807.82 651.19 947.52 663.15
00001729 00000080 680.06 214.77 387.88 573.28 799.12 476.81 972.82 489.57 889.92 583.17 807.12 648.77 948.03 660.97
00001730 00000081 679.96 211.94 387.99 573.86 799.37 476.97 973.37 487.12 891.30 582.45 807.64 648.15 949.62 658.07
00001731 00000082 678.82 209.41 386.15 577.45 798.96 477.18 972.75 482.40 895.04 581.95 810.14 647.37 956.14 653.04
00001732 00000083 679.87 206.91 384.27 578.10 801.46 474.28 974.40 476.91 901.08 580.12 817.98 646.71 963.32 650.19
00001733 00000084 679.34 203.61 383.10 578.39 804.06 471.19 975.57 470.08 907.16 576.64 826.54 646.11 968.48 646.43
00001734 00000085 676.93 200.77 382.97 584.48 802.01 468.42 971.62 468.39 905.71 574.16 828.22 647.64 965.78 648.88
00001735 00000086 661.61 206.05 387.82 582.32 795.65 474.75 956.15 462.29 900.58 577.67 824.48 663.04 952.06 652.24
00001736 00000087 656.04 202.87 388.32 583.15 787.05 472.25 949.17 459.35 892.98 572.33 819.72 661.30 947.43 650.23
00001737 00000088 648.26 196.40 393.41 588.38 778.66 468.06 944.12 457.20 882.62 571.87 810.74 659.96 939.05 650.61
00001738 00000089 642.96 193.74 394.25 587.36 772.46 465.24 939.78 457.84 874.24 570.72 803.80 656.87 932.60 650.55
00001739 00000090 639.29 191.90 393.64 587.50 770.41 464.81 938.12 457.84 872.46 570.29 801.81 656.16 931.01 650.19
00001740 00000091 636.98 190.39 394.04 588.01 768.83 465.19 936.27 456.98 871.82 569.28 800.39 654.60 930.29 647.67
00001741 00000092 634.29 188.65 393.20 586.27 767.18 463.78 935.29 454.58 871.03 568.93 798.52 652.17 930.13 644.46
00001742 00000093 628.99 190.28 392.02 580.46 762.18 463.50 930.09 453.75 866.67 567.48 793.81 648.34 926.50 640.22
00001743 00000094 625.75 190.25 389.62 575.67 752.20 461.36 922.59 451.83 857.70 564.22 785.82 643.92 922.15 636.11
00001744 00000095 620.09 186.77 390.62 577.24 743.14 456.98 914.97 449.21 847.71 562.37 776.28 639.72 914.73 633.42
00001745 00000096 618.37 185.51 388.87 576.45 735.54 456.98 907.36 450.77 838.37 562.23 767.70 637.14 909.27 632.02
00001746 00000097 615.25 183.61 388.57 579.78 729.37 455.72 898.99 449.93 830.80 561.02 760.06 635.14 903.32 630.57
00001747 00000098 610.94 183.38 390.05 578.08 724.63 454.94 894.96 448.83 826.18 558.44 753.40 631.73 900.32 626.98
00001748 00000099 607.24 182.69 391.21 576.04 720.94 455.70 891.99 448.08 823.66 557.85 749.64 630.37 898.72 624.40
00001749 00000100 605.28 180.87 391.23 578.11 719.62 454.71 890.98 447.40 823.27 556.82 748.35 629.93 898.23 624.20
00001750 00000101 602.51 178.14 392.24 580.15 718.04 453.22 889.78 446.29 821.93 555.07 746.26 629.33 896.49 623.81
00001751 00000102 602.20 174.73 391.23 585.98 717.50 449.94 887.21 445.97 818.94 552.29 743.99 628.54 891.63 625.59
00001752 00000103 600.61 171.40 390.45 592.55 717.04 447.30 885.05 445.19 817.89 550.37 742.07 628.25 887.73 626.98
00001753 00000104 599.02 171.94 389.64 592.17 717.68 445.41 884.57 444.27 818.36 548.55 740.30 626.99 885.11 626.61
00001754 00000105 589.02 176.22 389.65 589.85 712.34 454.14 872.48 442.42 813.44 552.49 742.13 636.90 874.85 626.31
00001755 00000106 587.36 175.55 389.56 589.41 711.49 452.73 871.93 440.50 812.96 551.31 741.16 635.63 874.68 624.58
00001756 00000107 586.28 174.11 389.99 588.86 711.03 451.26 872.16 438.94 813.10 550.09 739.79 633.74 875.04 622.63
00001757 00000108 585.95 173.21 390.77 588.55 711.44 449.40 872.90 437.28 813.86 549.27 739.38 632.02 875.62 621.15
00001758 00000109 587.11 171.78 390.74 588.91 713.45 448.48 874.65 436.11 816.07 547.84 739.74 629.92 877.66 618.97
00001759 00000110 589.38 172.43 390.11 587.81 715.89 449.01 877.92 436.03 818.93 547.37 740.16 628.21 881.22 617.03
00001760 00000111 599.46 166.98 391.76 586.32 723.90 439.30 890.10 434.01 826.68 540.56 745.14 617.71 895.47 613.29
00001761 00000112 603.26 169.38 392.61 584.95 728.33 439.90 893.51 434.29 831.11 541.64 750.15 617.19 899.29 612.33
00001762 00000113 608.01 166.72 391.92 589.40 732.65 440.79 896.90 436.73 834.05 543.12 754.26 617.76 900.36 613.98
00001763 00000114 613.21 168.05 390.31 588.45 736.37 441.18 901.00 438.76 836.77 543.09 758.57 618.11 903.40 615.61
00001764 00000115 618.18 170.88 387.15 585.63 740.25 441.64 904.19 439.55 840.25 543.60 761.14 617.05 906.23 614.89
00001765 00000116 620.71 171.54 387.37 584.58 744.05 441.51 907.32 439.59 843.23 543.38 766.41 617.28 908.22 615.27
00001766 00000117 622.91 170.63 386.57 584.40 749.33 439.25 909.57 438.65 846.12 542.93 772.66 618.42 908.50 617.47
00001767 00000118 624.39 171.12 387.99 584.63 752.27 437.34 913.35 437.32 849.25 542.18 778.24 620.86 911.09 620.30
00001768 00000119 626.76 169.44 387.42 585.36 753.71 435.76 916.44 437.75 850.90 540.44 780.46 622.27 911.33 623.23
00001769 00000120 627.77 167.41 387.68 587.18 754.05 435.46 918.87 436.62 852.95 541.66 782.58 624.13 914.67 624.15
00001770 00000121 628.36 168.10 389.13 585.89 755.37 435.28 920.99 436.49 854.55 541.88 784.21 625.14 916.02 625.16
00001771 00000122 628.94 168.63 389.13 584.70 756.03 435.11 921.71 436.40 855.27 541.97 785.67 625.14 916.59 625.21
00001772 00000123 629.27 169.27 389.53 583.66 756.11 435.19 922.58 436.33 855.85 542.04 786.30 625.26 917.76 625.13
00001773 00000124 628.72 169.30 390.21 583.67 755.36 435.06 922.31 436.80 854.85 542.08 784.85 625.24 916.59 625.67
00001774 00000125 628.33 167.98 390.16 585.25 754.18 435.31 921.17 437.96 852.85 542.79 783.42 626.28 914.32 627.54
00001775 00000126 627.16 168.06 390.13 586.23 750.50 435.07 917.78 438.96 847.61 544.06 779.13 626.45 909.22 629.03
00001776 00000127 625.46 169.38 390.35 591.38 748.48 438.92 917.46 443.87 847.19 548.20 774.85 631.16 907.43 634.92
CROP_BBOX: 402 0 1384 946
