Video ID: 	8BZMPuH1XNw
H: 	1080
W: 	1920
FPS: 	25.0

FRAME INDEX X0 Y0 W H [Landmarks (5 Points)]

00004833 00000000 382.69 149.35 522.37 764.96 669.45 424.25 866.52 455.08 842.12 555.40 670.93 688.46 849.38 712.29
00004834 DELETE   370.68 151.74 519.69 763.32 655.47 424.17 853.38 454.53 833.62 553.81 657.61 686.03 839.52 709.01
00004835 00000002 370.28 147.14 518.93 766.46 638.68 422.26 836.08 449.27 809.97 558.25 649.58 691.46 819.96 712.67
00004836 00000003 356.11 145.57 526.22 788.60 638.47 412.40 830.02 451.35 811.67 539.26 640.67 689.47 813.93 720.17
00004837 00000004 356.35 138.71 526.59 779.71 627.41 411.36 820.88 442.90 800.13 540.96 636.06 687.58 806.66 712.43
00004838 00000005 359.14 134.44 520.34 753.06 623.05 402.88 819.76 429.04 794.74 526.85 642.41 668.26 814.95 688.05
00004839 00000006 354.56 127.18 522.45 740.86 618.67 399.02 816.09 426.90 790.52 514.91 650.03 658.56 817.75 678.98
00004840 00000007 353.03 129.10 520.26 734.86 612.94 397.70 812.89 429.20 783.22 512.46 643.63 654.09 812.69 677.40
00004841 00000008 345.75 127.13 522.80 742.68 610.47 398.69 811.46 431.90 783.47 517.60 636.13 656.75 808.79 681.10
00004842 00000009 344.48 132.38 521.19 745.96 608.90 401.50 808.03 435.06 779.94 524.68 632.70 663.21 803.59 687.87
00004843 00000010 332.20 127.44 524.66 778.44 608.15 399.25 810.76 440.18 779.89 519.67 621.54 672.28 796.89 704.45
00004844 00000011 327.13 125.71 527.83 801.69 605.59 400.18 804.28 444.31 778.45 519.66 610.02 677.79 789.78 713.17
00004845 00000012 324.99 125.20 528.66 792.92 605.43 400.52 804.09 442.00 778.29 519.93 610.16 676.86 788.92 709.97
00004846 00000013 324.43 125.67 528.55 787.16 603.36 399.81 804.89 438.56 778.61 518.82 613.87 674.95 793.59 705.49
00004847 00000014 326.66 122.34 524.74 781.18 604.13 400.29 805.35 435.30 779.91 517.27 619.06 670.69 797.12 697.76
00004848 00000015 331.25 123.38 519.06 775.74 602.75 400.42 806.08 431.90 778.07 517.99 620.80 670.04 799.44 694.04
00004849 00000016 333.22 123.15 517.29 768.78 603.21 399.28 807.47 430.53 778.57 517.22 623.34 668.34 800.46 692.07
00004850 00000017 334.43 123.40 517.73 766.62 604.41 399.48 807.41 429.72 778.85 516.59 626.32 667.65 801.39 690.46
00004851 00000018 335.46 125.88 518.65 763.30 605.95 399.34 809.06 430.73 780.27 516.89 626.34 667.39 801.82 691.34
00004852 00000019 337.25 127.74 518.83 758.99 608.67 398.58 811.85 431.16 782.40 518.64 627.57 667.93 801.58 692.95
00004853 00000020 340.84 131.42 517.73 756.30 611.26 399.69 814.84 432.31 785.16 520.18 630.87 669.51 804.13 694.55
00004854 00000021 351.71 135.62 514.27 749.24 613.38 402.37 814.92 436.81 785.20 531.25 633.43 669.00 806.71 694.94
00004855 00000022 353.10 137.15 513.59 746.92 616.69 404.18 816.35 437.32 786.28 536.92 636.04 671.06 805.55 696.15
00004856 00000023 355.62 134.73 510.80 748.86 620.07 405.59 818.17 437.20 788.27 539.65 639.06 673.02 807.03 696.73
00004857 00000024 355.73 136.34 511.15 747.59 621.59 406.37 820.32 437.68 791.09 541.64 639.03 673.77 808.40 697.37
00004858 00000025 355.20 136.75 513.96 748.62 622.64 406.44 820.34 438.52 791.38 541.98 640.32 673.72 808.33 697.84
00004859 00000026 356.31 136.51 514.59 755.20 625.04 406.62 821.21 439.12 794.05 541.18 643.63 676.63 809.42 701.14
00004860 00000027 358.52 136.45 514.44 763.87 633.70 406.71 820.26 440.96 800.86 540.46 648.41 678.12 807.96 704.79
00004861 00000028 360.75 131.71 515.39 783.45 640.22 409.61 824.05 442.00 811.37 539.41 654.74 685.78 813.06 711.21
00004862 00000029 362.69 130.75 517.76 787.20 646.05 409.09 827.96 442.59 818.57 537.93 664.68 688.56 819.74 714.93
00004863 00000030 367.08 132.08 515.17 776.50 651.96 411.01 831.92 445.46 822.63 539.93 671.70 686.56 822.84 713.72
00004864 00000031 362.88 129.49 516.98 784.33 659.27 415.54 845.49 453.11 837.35 536.89 673.39 681.68 836.88 709.55
00004865 00000032 366.82 124.71 513.50 791.73 666.17 416.98 848.76 452.63 843.33 541.15 677.02 683.98 838.14 710.37
00004866 00000033 365.10 129.20 517.72 789.88 667.27 416.97 847.95 451.26 844.09 543.22 675.93 686.53 835.66 712.30
00004867 00000034 361.22 131.72 517.23 803.31 665.24 409.96 843.66 453.26 843.72 539.93 664.01 688.76 825.58 722.58
00004868 00000035 361.49 135.37 519.44 811.55 659.04 406.04 841.24 455.32 836.93 535.61 651.93 690.36 819.79 729.74
00004869 00000036 352.67 133.51 525.90 806.89 652.89 404.09 838.21 454.81 831.41 537.07 643.42 686.55 813.18 727.34
00004870 00000037 360.64 132.90 519.48 785.97 643.16 411.47 827.47 447.95 815.06 548.31 641.45 687.17 805.31 716.98
00004871 00000038 362.53 132.08 519.09 769.27 640.39 410.26 826.62 439.64 809.43 546.07 651.36 679.80 814.04 703.21
00004872 00000039 365.14 135.57 515.63 755.48 634.67 411.09 827.85 437.73 804.76 543.22 652.13 676.87 820.02 697.33
00004873 00000040 366.10 138.51 514.17 750.66 630.94 411.62 826.17 438.05 798.88 543.44 649.65 675.83 818.43 695.97
00004874 00000041 364.30 137.25 513.51 762.89 631.36 410.47 822.75 437.27 798.44 541.22 654.35 681.46 816.52 701.71
00004875 00000042 351.48 135.10 518.06 787.92 632.20 410.33 818.91 442.79 804.25 528.02 653.90 682.45 816.30 706.34
00004876 00000043 345.34 134.50 518.87 788.43 627.19 408.45 812.51 443.72 797.73 523.84 649.79 678.73 809.95 704.88
00004877 00000044 335.50 126.27 526.30 791.19 616.02 401.42 809.17 433.53 791.95 514.50 641.95 679.69 806.85 704.90
00004878 00000045 331.29 121.36 527.22 790.35 607.69 400.06 804.65 430.82 784.16 511.19 635.82 676.69 803.22 700.39
00004879 00000046 327.59 119.36 527.22 791.74 603.25 398.64 803.14 431.59 781.31 509.98 629.05 674.33 801.23 699.51
00004880 00000047 328.24 121.22 525.90 786.98 600.25 399.79 801.00 429.56 776.30 513.99 625.81 674.15 798.77 696.60
00004881 00000048 331.53 125.18 521.74 781.95 599.90 402.32 803.97 430.93 777.48 519.61 623.47 675.91 802.29 697.35
00004882 00000049 334.07 124.55 518.69 780.76 600.49 404.19 804.53 431.97 777.57 520.43 626.32 676.95 803.70 697.44
00004883 00000050 329.08 123.61 522.30 782.80 606.91 408.72 803.97 441.15 782.16 521.00 627.97 675.90 800.41 700.45
00004884 00000051 328.07 121.22 523.77 782.92 609.00 409.97 805.40 443.61 784.43 521.56 629.43 675.16 800.03 701.00
00004885 00000052 332.10 121.27 522.05 782.61 614.35 407.18 809.59 440.09 791.15 521.41 634.81 675.19 803.53 700.72
00004886 00000053 349.22 128.80 511.14 763.55 621.73 409.41 811.51 437.38 793.60 533.30 648.36 675.56 809.00 695.94
00004887 00000054 350.87 126.58 511.82 772.16 630.57 409.41 815.31 436.34 804.81 535.12 654.80 678.02 813.16 697.70
00004888 00000055 351.14 125.30 515.48 777.79 639.76 409.37 819.72 435.66 816.98 536.50 662.81 681.11 818.39 700.70
00004889 00000056 351.96 124.19 515.07 793.99 646.49 407.24 820.24 437.83 824.14 529.52 672.67 687.06 819.75 710.63
00004890 00000057 345.31 122.47 519.45 810.10 652.17 404.85 831.99 446.38 839.77 523.76 670.32 685.95 825.58 717.76
00004891 00000058 354.32 119.53 516.05 816.31 662.81 406.03 839.64 448.87 848.48 526.03 673.40 686.21 830.48 719.06
00004892 00000059 359.34 119.67 516.59 807.32 672.06 410.11 845.36 448.44 853.85 532.10 681.09 685.87 835.45 715.47
00004893 00000060 366.64 122.84 514.98 805.30 678.08 414.42 848.86 446.83 857.15 536.14 684.43 687.27 840.36 712.15
00004894 00000061 372.61 127.48 514.53 813.07 684.91 418.18 848.99 448.60 862.52 539.92 683.12 692.43 838.11 716.40
00004895 00000062 371.57 125.02 520.46 823.44 692.08 414.56 851.91 446.39 870.62 539.66 687.88 696.62 837.81 722.36
00004896 00000063 378.47 125.83 513.74 810.10 695.73 414.14 854.78 438.88 872.59 541.72 698.67 693.37 843.26 713.12
00004897 00000064 384.08 124.70 516.56 795.11 695.22 413.19 864.55 435.65 875.46 537.54 707.78 690.12 856.25 707.59
00004898 00000065 385.53 123.08 515.29 785.94 691.51 412.61 865.89 435.96 870.77 536.30 707.04 686.51 857.31 704.29
00004899 00000066 380.50 122.81 515.24 782.33 684.47 411.88 860.68 434.16 862.90 535.56 698.65 685.56 851.47 702.57
00004900 00000067 375.39 127.27 513.53 775.46 674.26 411.34 855.32 435.93 853.48 537.99 688.24 683.90 845.32 702.31
00004901 00000068 365.84 126.77 517.92 774.01 665.52 407.61 850.26 436.90 844.26 537.70 674.84 680.41 835.70 702.34
00004902 00000069 365.29 129.67 519.68 769.54 655.06 408.19 835.82 435.19 829.94 545.19 662.01 682.19 819.69 704.13
00004903 00000070 361.44 127.37 522.60 771.42 651.80 405.44 834.85 434.35 826.51 544.20 659.55 681.65 818.34 705.08
00004904 00000071 362.81 127.27 523.19 772.67 652.09 405.72 835.31 434.84 826.71 543.18 661.07 681.66 820.16 705.11
00004905 00000072 367.44 126.84 518.34 774.06 655.34 409.01 838.27 435.78 829.66 545.76 663.72 682.55 823.87 704.11
00004906 00000073 361.96 128.70 521.98 779.65 664.05 412.74 847.54 443.02 841.57 543.61 666.42 682.03 831.47 705.04
00004907 00000074 358.47 126.72 523.86 793.90 663.11 416.76 846.14 446.82 844.61 547.03 666.25 691.04 830.94 714.07
00004908 00000075 356.24 133.81 526.75 791.31 657.23 420.98 843.11 450.57 839.39 550.11 660.36 694.08 828.84 716.86
00004909 00000076 355.38 139.72 524.34 779.70 650.43 422.04 837.08 452.31 829.66 553.91 650.76 693.28 820.67 717.14
00004910 00000077 362.48 141.33 516.11 768.68 639.66 428.86 829.86 450.76 814.79 566.17 642.81 695.36 807.96 713.43
00004911 00000078 362.27 143.42 510.99 755.74 635.58 428.66 826.23 450.31 808.64 565.07 642.44 690.26 805.70 707.95
00004912 00000079 360.03 143.62 511.29 754.10 636.74 430.83 826.15 450.80 812.84 564.52 644.07 688.93 808.40 705.15
00004913 00000080 359.46 144.25 511.11 752.44 639.93 432.00 827.56 450.18 817.68 564.37 652.31 690.47 813.34 704.96
00004914 00000081 360.96 142.35 511.07 757.27 647.98 433.40 828.83 449.29 828.22 562.82 661.55 692.52 819.05 704.97
00004915 00000082 357.59 147.04 516.72 759.73 659.96 436.50 833.03 452.44 840.01 563.09 669.14 693.49 827.93 705.21
00004916 00000083 356.22 146.92 518.56 765.75 664.08 437.66 831.21 449.07 843.79 564.18 677.84 698.31 829.66 706.59
00004917 00000084 357.73 143.38 516.58 780.31 665.58 440.07 828.37 449.82 845.50 563.42 685.65 705.72 832.52 712.58
00004918 00000085 353.68 143.77 520.63 790.24 662.72 441.05 826.63 453.21 845.10 562.86 689.19 711.96 833.82 720.60
00004919 00000086 354.24 149.27 519.36 781.81 660.92 441.56 825.03 452.75 842.17 564.39 687.89 711.84 830.90 719.83
00004920 00000087 351.42 148.14 521.82 783.51 660.23 441.79 823.67 453.65 841.75 564.92 685.48 711.61 828.99 720.29
00004921 00000088 353.78 150.54 519.49 777.80 650.37 446.53 817.55 455.92 835.79 566.41 678.89 714.37 820.64 721.69
00004922 00000089 345.12 155.52 520.83 782.88 652.68 443.09 818.21 461.32 832.59 570.91 667.95 714.07 815.25 728.43
00004923 00000090 343.24 162.58 517.22 786.00 645.91 441.90 813.29 465.44 825.79 569.84 654.37 715.77 807.57 734.52
00004924 00000091 344.26 162.09 517.29 785.79 642.36 441.70 811.23 465.20 818.68 573.79 646.83 715.48 802.33 734.38
00004925 00000092 351.80 153.78 517.22 786.72 632.60 443.13 814.53 460.88 814.09 570.22 645.64 714.53 802.92 729.08
00004926 00000093 357.12 159.15 513.70 760.57 631.60 443.58 815.81 458.19 811.70 568.42 650.69 705.69 808.38 717.52
00004927 00000094 359.24 159.11 513.53 755.50 629.07 444.16 817.73 458.10 809.48 567.86 650.06 704.43 810.43 715.57
00004928 00000095 359.38 161.74 513.02 746.92 626.08 442.18 815.79 457.20 803.82 568.67 644.23 699.30 806.31 711.43
00004929 00000096 358.36 160.29 511.03 748.86 622.73 441.73 812.78 457.23 798.85 567.92 642.63 701.02 801.66 713.44
00004930 00000097 359.23 158.69 508.84 752.15 621.25 441.19 812.23 455.90 796.88 567.55 641.58 701.96 801.49 713.70
00004931 00000098 359.79 157.98 506.86 757.32 618.70 440.05 811.25 455.97 794.19 565.84 641.16 703.96 801.34 716.48
00004932 00000099 357.77 157.85 507.97 755.99 617.50 438.85 810.91 454.79 794.33 565.21 640.83 703.27 801.86 715.69
00004933 00000100 356.38 156.00 506.50 755.93 616.99 437.74 808.85 453.78 792.55 564.05 637.65 700.73 798.35 713.31
00004934 00000101 353.46 154.85 508.89 756.28 615.57 436.62 808.25 453.88 791.53 562.52 636.95 699.66 797.81 713.06
00004935 00000102 341.77 160.87 513.11 746.05 617.61 434.13 806.59 454.46 786.60 561.84 634.81 700.28 797.85 716.10
00004936 00000103 342.38 162.00 512.17 742.75 616.86 433.49 807.50 454.51 786.93 561.46 635.17 700.21 798.67 716.56
00004937 00000104 349.24 159.33 511.43 744.85 611.08 436.45 807.69 454.30 789.40 561.44 636.15 698.26 798.64 712.20
00004938 00000105 343.05 163.40 510.98 738.92 615.94 433.69 807.92 453.69 786.08 560.96 634.91 698.91 800.02 714.29
00004939 00000106 342.78 160.73 512.71 741.61 616.57 433.31 808.25 452.59 787.14 559.70 634.97 697.89 800.21 712.63
00004940 00000107 343.70 164.84 511.51 738.99 614.09 432.27 807.93 451.61 785.21 557.50 633.35 697.24 801.09 711.89
00004941 00000108 348.65 167.40 505.72 743.35 615.13 429.25 807.07 449.45 785.10 553.20 636.43 697.31 803.26 712.57
00004942 00000109 346.69 161.51 511.94 743.77 618.97 421.94 812.80 445.21 790.63 549.64 638.97 693.53 805.12 711.49
00004943 00000110 368.09 156.60 503.56 744.44 635.09 427.38 822.37 449.57 807.11 558.14 651.51 691.89 810.68 709.96
00004944 00000111 367.12 150.64 512.92 762.43 656.91 423.86 845.60 448.35 839.96 551.57 668.20 692.28 837.65 710.39
00004945 DELETE   383.79 154.15 505.01 759.98 682.20 430.74 854.19 451.07 859.19 553.46 691.94 695.43 848.58 710.85
00004946 DELETE   401.81 159.63 504.19 760.73 705.24 432.64 871.11 453.04 880.84 554.87 720.40 702.96 866.51 719.29
00004947 DELETE   410.50 148.76 505.43 771.78 725.00 435.50 886.53 458.72 903.55 553.50 742.51 703.91 881.27 722.72
CROP_BBOX: 56 0 1288 1080
