Video ID: 	G5I_5ubsLTE
H: 	1080
W: 	1920
FPS: 	25.0

FRAME INDEX X0 Y0 W H [Landmarks (5 Points)]

00001288 00000000 629.46 147.60 399.60 551.85 687.97 363.20 861.96 345.17 752.07 469.02 738.13 576.17 877.72 560.51
00001289 00000001 611.73 141.54 413.40 571.22 675.13 361.02 849.88 337.94 738.12 473.93 735.32 579.21 876.26 559.08
00001290 00000002 603.90 144.96 413.12 566.24 669.18 362.94 843.23 341.38 734.89 479.36 732.02 581.29 867.55 562.73
00001291 00000003 603.70 141.91 404.06 558.51 662.18 371.32 838.07 344.68 733.20 486.89 720.46 581.97 858.06 559.49
00001292 00000004 596.37 146.59 401.52 546.11 660.18 373.89 840.79 345.56 731.90 477.45 716.36 581.87 859.91 556.47
00001293 00000005 597.02 146.87 400.89 551.09 658.79 371.79 837.32 342.82 727.19 471.25 711.91 575.16 862.66 549.06
00001294 00000006 597.24 139.48 404.57 555.00 655.38 365.95 835.70 339.76 729.45 475.37 700.56 569.88 855.69 547.63
00001295 00000007 599.95 133.22 401.57 556.41 658.52 359.76 838.83 336.63 729.31 469.07 697.87 566.13 854.42 546.32
00001296 00000008 601.39 130.36 401.98 555.81 661.87 354.74 839.35 331.18 730.66 458.47 702.87 561.90 854.20 541.83
00001297 00000009 607.17 121.83 398.24 566.44 667.67 347.98 845.59 323.41 733.68 449.62 711.04 558.90 857.07 538.22
00001298 00000010 609.12 111.01 400.86 561.80 676.72 335.37 860.67 318.95 748.83 445.26 724.46 553.25 864.08 538.81
00001299 00000011 623.33 121.12 388.73 551.48 684.94 331.45 862.96 316.95 749.30 441.05 720.95 543.19 867.52 530.87
00001300 00000012 628.38 125.42 388.02 542.63 690.18 330.01 872.58 312.83 754.57 429.68 729.10 535.90 881.33 520.68
00001301 00000013 638.47 113.89 387.63 546.60 705.09 326.01 884.05 311.64 769.70 423.99 738.09 525.95 889.63 513.89
00001302 DELETE   653.78 111.17 381.90 554.33 717.30 325.05 892.11 311.28 781.32 420.97 748.35 518.61 904.24 507.14
00001303 00000015 661.57 112.44 382.55 549.49 726.42 323.13 902.98 304.54 793.89 415.81 754.83 514.51 917.07 499.29
00001304 00000016 667.80 105.03 385.75 544.12 735.34 322.42 912.04 304.37 802.66 415.34 763.58 512.89 919.27 497.86
00001305 00000017 674.48 100.94 382.58 540.71 744.70 321.46 922.58 305.15 811.67 413.95 769.59 510.16 923.71 496.70
00001306 00000018 681.53 100.72 374.96 540.54 750.29 305.80 934.82 302.26 823.45 417.13 781.41 511.61 930.78 509.00
00001307 00000019 687.95 103.98 370.78 531.72 758.01 305.59 939.45 304.30 826.51 418.04 787.06 510.70 934.58 509.63
00001308 00000020 693.20 104.17 373.63 534.95 764.66 309.61 942.01 307.91 832.62 415.20 790.05 509.67 938.50 508.14
00001309 00000021 702.83 102.95 370.56 533.70 773.84 311.16 946.69 310.83 834.05 413.65 794.54 505.12 939.92 504.71
00001310 00000022 710.51 109.85 366.49 525.69 780.23 310.60 951.38 308.70 842.38 401.99 797.66 499.28 942.29 499.20
00001311 00000023 714.13 109.02 367.46 524.22 786.17 307.86 955.54 308.22 847.27 395.42 800.97 494.13 947.10 495.67
00001312 00000024 716.48 111.87 366.74 518.70 790.24 306.25 960.44 307.37 850.94 390.63 802.59 491.61 949.13 493.99
00001313 00000025 719.00 116.22 365.21 514.65 791.58 306.27 961.24 307.56 850.13 390.74 803.89 492.38 948.05 495.06
00001314 00000026 719.02 115.19 364.82 520.94 790.74 306.93 962.49 310.01 849.65 394.96 802.13 496.92 944.97 501.38
00001315 00000027 717.76 119.05 365.33 519.56 790.61 309.23 963.46 311.37 850.89 400.38 802.38 500.46 945.67 503.93
00001316 00000028 715.45 115.75 364.89 523.72 789.41 316.67 964.64 318.79 850.55 404.74 798.35 505.89 946.92 509.08
00001317 00000029 711.59 115.55 364.80 521.96 785.12 318.92 963.31 322.35 849.72 409.52 792.10 506.22 946.75 510.08
00001318 00000030 704.04 110.66 369.42 537.55 778.48 322.07 957.40 324.82 844.16 412.98 784.25 513.57 940.93 516.36
00001319 00000031 705.43 109.71 368.95 537.70 772.87 316.47 954.84 324.56 833.05 417.19 781.97 518.51 931.45 525.54
00001320 00000032 705.94 114.20 367.95 537.28 773.15 317.91 955.36 325.26 834.57 419.98 784.00 523.32 931.80 529.83
00001321 00000033 701.81 114.55 372.00 543.81 774.41 322.89 956.56 329.63 836.65 423.24 785.15 524.91 933.91 530.81
00001322 00000034 702.42 116.01 370.36 542.47 771.91 326.79 953.22 331.07 833.92 426.42 785.74 530.26 930.88 534.38
00001323 00000035 701.08 115.70 369.03 546.03 769.10 327.67 948.11 333.71 828.40 430.41 782.46 533.55 925.97 538.99
00001324 00000036 699.99 115.43 367.85 545.08 768.18 330.80 945.38 338.22 827.07 435.78 779.99 533.21 925.59 539.88
00001325 00000037 701.46 118.88 365.54 538.60 769.12 333.43 946.05 340.36 831.24 439.73 780.92 532.42 930.76 538.96
00001326 00000038 698.45 117.46 367.95 545.94 768.63 338.62 946.71 344.21 832.86 445.93 782.18 535.03 934.26 540.26
00001327 00000039 698.34 126.78 365.70 536.35 766.01 340.21 943.63 344.60 831.50 448.11 780.21 538.74 929.99 543.32
00001328 00000040 697.68 124.46 366.68 542.79 767.21 343.78 943.69 348.11 832.63 453.52 781.63 540.65 932.00 545.03
00001329 00000041 698.06 125.53 366.27 548.61 769.74 348.18 946.10 350.87 836.31 457.00 785.17 545.14 934.44 548.06
00001330 00000042 702.09 129.40 366.92 556.98 776.23 354.59 950.77 355.70 844.98 458.48 790.60 549.82 942.55 551.01
00001331 00000043 704.12 133.72 361.66 559.03 779.30 353.40 955.99 356.89 846.54 460.17 782.12 552.56 939.92 555.67
00001332 00000044 698.68 136.68 373.37 565.68 772.24 354.03 959.24 356.03 845.26 459.07 788.41 553.95 952.17 555.25
00001333 00000045 696.24 142.27 373.98 556.82 771.33 354.92 954.28 354.37 844.08 461.50 793.82 555.18 949.02 554.61
00001334 00000046 699.04 137.15 362.02 559.62 776.68 360.26 946.62 356.48 845.08 463.93 795.38 560.96 935.76 557.74
00001335 00000047 692.29 144.08 365.54 548.71 769.04 358.43 938.28 353.45 835.70 463.20 791.47 561.10 928.31 556.33
00001336 00000048 684.06 148.62 368.17 540.83 754.82 362.47 926.61 347.15 825.02 458.96 790.47 563.29 927.91 549.63
00001337 00000049 681.30 152.33 370.02 538.21 751.72 364.52 923.07 346.30 821.69 460.80 788.84 564.07 926.69 548.26
00001338 00000050 680.57 154.17 372.03 542.91 752.19 367.02 921.64 346.84 822.39 463.05 791.47 566.11 930.13 548.35
00001339 00000051 678.84 152.48 374.03 551.32 750.86 371.50 919.51 349.29 820.15 467.39 791.17 569.63 932.10 549.89
00001340 00000052 676.61 153.83 375.49 547.36 749.13 373.29 917.74 351.75 818.15 471.31 788.86 569.84 930.15 550.95
00001341 00000053 677.08 151.73 374.28 552.31 747.87 373.24 916.68 351.69 815.59 472.51 787.56 571.42 929.92 552.41
00001342 00000054 678.16 155.34 376.08 562.30 750.52 374.36 918.56 351.29 817.35 473.76 790.36 574.36 938.32 553.39
00001343 00000055 680.31 157.21 374.78 553.58 752.73 373.46 922.02 351.08 821.16 473.50 792.96 572.11 939.73 551.75
00001344 00000056 682.90 155.54 372.85 553.97 755.06 373.69 924.17 351.09 824.05 473.93 795.58 571.48 942.04 550.93
00001345 00000057 684.63 155.25 371.75 553.85 755.81 373.62 924.88 351.32 824.42 472.97 795.09 569.87 942.95 549.69
00001346 00000058 684.78 152.33 372.39 549.03 757.45 374.09 929.58 354.13 830.15 473.01 794.64 565.60 945.89 547.87
00001347 00000059 686.98 153.88 374.40 553.68 759.88 376.31 934.49 354.54 833.89 474.26 795.95 567.50 952.32 548.22
00001348 00000060 687.85 155.53 376.20 557.67 761.05 377.21 936.66 354.31 835.76 474.57 796.83 569.68 955.14 549.41
00001349 00000061 688.42 156.49 375.07 552.94 760.44 377.60 936.57 355.36 835.16 474.11 795.30 568.48 954.03 549.08
00001350 00000062 689.87 158.97 375.03 549.53 761.61 378.07 938.28 355.21 836.47 474.55 796.98 569.33 955.33 549.61
00001351 00000063 691.35 158.20 375.18 546.79 764.91 377.54 943.37 355.54 844.47 476.01 800.58 570.02 957.51 551.20
00001352 00000064 691.48 148.17 383.04 553.06 764.89 368.93 946.30 357.85 842.18 473.90 799.37 562.08 955.71 552.57
00001353 00000065 693.45 149.01 382.98 548.48 765.70 367.04 946.45 357.30 840.74 474.61 799.48 560.20 954.33 551.75
00001354 00000066 693.98 149.05 384.01 551.77 767.13 367.65 949.13 359.63 841.61 475.99 799.38 563.49 953.08 556.59
00001355 00000067 695.94 145.79 382.26 553.30 767.32 369.83 951.09 360.24 841.30 476.80 801.58 567.60 953.43 559.56
00001356 00000068 697.28 145.50 384.86 559.90 769.56 371.27 954.37 361.24 844.87 478.81 804.71 572.21 956.42 563.98
00001357 00000069 698.98 147.69 382.03 555.62 773.27 371.86 958.16 361.83 850.62 482.43 810.05 575.64 955.56 567.93
00001358 00000070 702.91 149.13 379.18 558.97 773.39 376.59 958.25 364.13 849.79 484.04 812.08 580.35 956.45 570.94
00001359 00000071 708.03 160.36 373.72 560.48 782.60 370.14 962.73 364.99 859.43 487.23 815.85 587.13 953.97 582.78
00001360 00000072 710.35 161.43 374.21 560.13 785.05 369.72 964.80 364.03 863.02 488.66 819.29 587.11 956.63 582.29
00001361 00000073 711.62 160.52 372.70 554.68 788.30 370.65 966.98 364.50 866.44 487.51 821.62 586.59 956.93 581.70
00001362 00000074 706.56 149.93 380.28 556.87 780.40 374.09 964.16 364.27 858.70 485.41 816.09 576.38 961.28 569.27
00001363 00000075 704.30 153.89 381.96 540.29 777.38 379.00 958.72 367.60 851.95 483.63 814.62 575.33 955.92 566.30
00001364 DELETE   709.78 158.07 373.52 536.56 778.11 379.03 946.83 378.85 839.77 483.61 796.17 574.81 935.92 574.85
00001365 00000077 708.90 147.85 371.67 550.99 770.02 379.87 947.10 378.76 829.09 492.33 792.34 579.55 932.03 578.08
00001366 00000078 708.18 152.57 370.22 548.58 766.26 378.26 946.01 380.97 822.49 491.41 783.27 580.04 922.95 582.30
00001367 00000079 708.90 149.25 370.45 555.59 768.05 373.77 947.04 380.47 818.27 486.88 780.91 574.04 923.46 579.13
00001368 00000080 712.66 149.20 369.29 547.48 772.46 371.37 952.95 380.89 826.09 486.70 784.00 570.07 929.74 577.43
00001369 00000081 712.01 157.78 371.77 538.49 777.33 370.26 948.79 385.10 827.57 483.41 781.74 568.04 924.51 579.80
00001370 00000082 712.59 161.17 370.61 539.62 776.87 369.91 945.57 385.46 823.33 484.84 780.07 569.61 918.89 582.15
00001371 00000083 712.39 160.76 371.19 546.12 776.37 370.81 943.61 387.54 819.89 488.18 778.59 572.35 916.84 586.15
00001372 00000084 713.24 161.66 372.18 552.98 777.64 371.02 945.99 389.16 822.25 491.01 778.85 576.22 916.29 591.66
00001373 00000085 717.47 167.58 374.83 558.38 781.57 372.58 953.26 389.21 825.30 493.84 783.94 578.92 929.51 592.61
00001374 00000086 722.06 168.22 372.38 559.53 784.72 374.84 955.18 389.95 826.97 494.86 788.68 579.13 934.88 591.50
00001375 00000087 723.01 170.81 370.49 554.89 786.26 377.29 958.48 393.12 829.13 496.77 787.39 579.66 936.15 592.91
00001376 00000088 725.70 170.25 370.42 558.50 788.40 378.03 961.43 393.28 830.18 495.80 788.64 579.25 939.65 592.10
00001377 00000089 731.85 171.22 368.68 562.00 794.46 376.51 965.96 389.64 837.89 496.29 793.85 578.66 945.65 590.11
00001378 00000090 736.16 171.61 368.56 567.71 798.77 378.31 972.91 387.26 845.32 497.31 798.69 580.55 954.91 588.62
00001379 00000091 738.28 173.15 368.62 563.66 800.91 382.65 975.06 389.64 850.12 499.20 802.68 583.03 957.93 589.56
00001380 00000092 738.71 177.90 370.45 560.40 802.11 386.29 976.85 392.11 852.39 501.72 805.54 584.72 961.81 590.21
00001381 00000093 740.07 175.47 369.75 555.90 803.24 389.67 977.15 396.02 853.82 502.56 807.50 582.94 963.22 588.78
00001382 00000094 741.22 176.32 370.45 554.58 806.12 389.93 981.73 398.05 857.83 506.06 810.92 583.43 967.64 590.79
00001383 00000095 741.55 179.24 371.42 551.03 807.32 390.88 986.53 399.04 861.68 507.32 814.77 585.49 972.63 592.75
00001384 00000096 743.09 178.16 371.50 547.43 806.59 392.84 987.49 400.59 863.25 509.37 817.48 586.56 975.86 593.26
00001385 00000097 742.95 176.35 373.48 543.34 806.15 392.15 987.65 401.64 862.38 510.38 817.17 587.96 972.55 596.01
00001386 00000098 743.85 175.06 374.66 542.25 809.04 391.53 991.07 402.74 865.26 508.71 817.86 589.06 970.80 598.55
00001387 00000099 745.03 177.97 375.92 536.49 812.95 389.98 995.35 401.98 871.29 508.52 822.84 591.54 971.97 601.67
00001388 00000100 746.45 173.57 375.43 538.51 813.96 387.54 996.99 401.18 871.38 507.93 820.14 592.39 968.75 603.89
00001389 00000101 746.19 169.16 375.56 551.62 812.82 386.56 996.24 398.76 868.62 505.98 818.26 591.72 969.47 602.13
00001390 00000102 746.93 171.94 373.44 547.52 812.68 387.72 993.57 397.56 868.42 503.78 822.11 593.33 966.54 601.96
00001391 00000103 748.82 173.94 371.61 552.05 815.60 386.74 993.50 395.17 869.91 504.41 826.36 594.82 965.75 602.89
00001392 00000104 749.29 177.08 373.69 546.57 820.37 389.33 998.37 397.08 878.42 507.99 832.27 593.83 973.18 601.39
00001393 00000105 748.56 177.13 376.38 553.90 822.24 390.01 1001.07 396.26 882.25 508.52 835.81 594.40 981.10 600.25
00001394 00000106 748.41 178.20 375.91 550.93 820.36 388.95 1001.00 396.53 880.09 507.65 832.92 591.87 982.37 598.83
00001395 00000107 748.17 176.06 375.28 548.81 819.03 387.88 1001.20 396.57 878.90 506.59 830.33 588.31 983.66 596.07
00001396 00000108 747.00 176.83 375.75 544.93 819.69 385.64 1002.62 395.68 879.69 504.41 829.53 585.40 983.39 594.32
00001397 00000109 745.50 171.53 377.29 553.97 819.86 381.11 1004.29 391.83 880.12 500.04 826.49 583.29 983.62 592.72
00001398 00000110 743.49 166.54 378.99 558.93 817.88 376.90 1003.51 385.88 877.63 492.10 823.46 578.62 984.94 586.26
00001399 00000111 744.13 160.43 375.58 554.73 817.64 373.40 1000.92 382.24 877.72 486.49 824.90 574.02 980.82 581.48
00001400 00000112 745.40 151.02 373.72 563.76 818.90 369.15 998.26 378.45 880.08 480.85 827.54 570.27 977.45 578.11
00001401 00000113 743.73 151.53 375.25 557.54 819.00 364.95 998.98 373.01 881.20 476.03 829.33 567.24 974.69 574.24
00001402 00000114 742.58 153.28 376.33 561.53 817.51 363.71 997.24 370.71 879.49 475.67 828.30 566.55 975.48 572.58
00001403 00000115 742.41 153.30 374.89 567.71 815.50 363.26 994.68 369.66 876.06 474.88 825.48 568.20 973.11 573.74
00001404 00000116 746.75 149.47 367.26 559.45 815.28 363.29 992.98 374.00 872.75 476.69 822.34 566.25 966.32 575.78
00001405 00000117 745.13 146.89 366.40 555.39 814.54 363.21 989.89 375.43 872.54 478.17 823.89 569.32 957.46 580.28
00001406 00000118 742.38 146.18 368.71 552.54 812.80 365.39 990.27 379.08 872.02 481.33 820.86 568.58 958.24 580.29
00001407 00000119 740.50 148.70 368.91 552.23 810.78 366.10 990.08 380.25 870.30 482.30 815.09 569.74 957.23 582.19
00001408 00000120 739.65 146.36 368.14 553.52 807.10 367.21 986.96 380.96 866.01 481.73 811.32 569.21 955.73 581.50
00001409 00000121 740.06 141.16 369.25 566.15 806.96 370.66 989.42 381.05 867.08 483.96 814.03 575.44 962.03 584.48
00001410 00000122 741.47 146.82 368.54 574.24 808.38 371.66 990.19 379.17 867.29 482.98 815.83 580.11 963.93 586.67
00001411 00000123 737.73 152.44 375.51 570.95 811.38 372.83 997.31 382.36 872.16 483.18 815.42 580.97 968.29 589.11
00001412 00000124 738.50 159.22 373.93 571.48 814.63 372.69 1000.64 384.33 874.13 485.94 814.67 581.48 970.70 591.71
00001413 00000125 740.12 161.38 372.95 561.68 816.82 373.23 1002.10 389.02 873.77 488.90 815.03 579.04 969.07 592.73
00001414 00000126 743.40 160.81 373.67 561.15 821.46 373.90 1007.00 393.36 878.67 493.91 817.03 579.87 971.26 596.62
00001415 00000127 749.49 168.13 375.37 548.36 832.51 381.01 1014.69 401.54 891.68 504.35 828.51 586.88 974.49 605.20
00001416 00000128 757.04 171.58 382.18 564.14 850.29 388.98 1030.01 413.19 914.75 510.65 851.75 592.13 995.11 612.99
00001417 DELETE   765.35 178.53 381.84 567.45 877.13 386.35 1054.23 425.63 939.51 514.00 859.07 588.63 1004.87 620.94
00001418 00000130 773.74 171.60 381.84 568.98 887.42 384.80 1065.21 424.83 953.23 515.89 867.82 592.30 1011.02 625.79
00001419 00000131 774.85 167.47 384.11 580.04 886.61 382.33 1066.59 427.01 949.02 513.26 861.05 589.08 1010.11 626.13
00001420 00000132 774.38 164.23 383.14 579.88 882.23 385.28 1060.54 429.36 942.50 514.99 855.80 589.50 1004.62 625.89
00001421 00000133 773.68 163.63 383.87 581.71 880.03 387.59 1055.68 431.68 938.32 516.56 853.25 590.13 999.09 626.53
00001422 00000134 774.32 163.03 382.74 581.89 879.48 387.49 1054.19 431.21 936.87 516.52 852.51 590.05 997.68 626.13
00001423 00000135 771.62 164.29 383.96 584.61 876.40 385.84 1055.48 429.23 934.07 517.20 847.07 589.32 1001.24 624.93
00001424 00000136 769.95 167.57 382.67 583.84 873.99 384.34 1054.28 427.57 930.51 516.26 844.06 589.13 1001.36 624.35
CROP_BBOX: 464 0 1385 889
