Video ID: 	wEi5kUb9tMo
H: 	1080
W: 	1920
FPS: 	25.0

FRAME INDEX X0 Y0 W H [Landmarks (5 Points)]

00024521 00000000 731.19 271.36 432.78 551.61 848.10 505.77 1045.38 500.03 947.61 635.33 865.55 687.59 1040.21 684.10
00024522 00000001 731.90 270.18 434.18 557.25 851.22 499.83 1046.40 496.14 948.59 631.55 865.14 684.29 1038.81 682.62
00024523 00000002 731.81 262.51 434.05 574.05 850.83 496.31 1043.19 492.27 949.01 627.90 867.16 685.36 1039.48 683.22
00024524 00000003 731.27 261.74 434.18 572.56 850.41 494.40 1043.36 490.32 948.73 625.71 867.62 685.58 1038.27 683.17
00024525 00000004 729.53 260.63 434.58 562.50 847.54 497.08 1044.65 490.19 946.85 625.90 866.49 688.18 1035.96 683.48
00024526 00000005 727.34 262.88 432.03 562.27 846.67 497.72 1044.64 491.85 946.69 625.57 864.40 690.40 1030.71 687.01
00024527 00000006 716.74 257.15 434.11 571.35 839.12 505.97 1028.90 498.89 940.88 630.72 864.27 700.65 1020.45 695.08
00024528 00000007 712.46 246.79 436.08 583.97 833.54 511.59 1024.71 506.10 933.67 636.45 867.52 716.22 1012.79 711.02
00024529 00000008 707.86 254.19 438.28 579.50 825.92 522.35 1023.26 516.00 927.80 647.94 863.30 729.31 1009.79 722.94
00024530 00000009 705.60 267.63 436.33 580.88 823.30 532.69 1027.02 529.76 926.74 661.64 853.89 743.90 1002.72 741.25
00024531 00000010 709.33 289.10 430.84 568.65 824.41 551.92 1024.84 546.73 926.32 681.05 858.11 760.46 1003.00 755.58
00024532 00000011 710.79 297.90 427.86 578.04 822.87 573.47 1021.18 564.85 922.01 708.24 856.86 782.59 998.12 774.94
00024533 00000012 695.98 319.54 436.11 557.80 816.89 589.80 1014.67 580.78 923.68 720.20 858.61 797.05 1004.04 788.33
00024534 00000013 692.89 337.54 440.39 551.82 812.37 608.55 1014.54 594.12 922.39 737.49 854.24 810.91 1004.58 798.29
00024535 DELETE   691.45 360.92 438.33 548.09 811.85 627.73 1012.93 616.28 918.68 753.96 850.16 821.13 998.88 810.80
00024536 DELETE   693.71 384.31 435.10 514.89 813.89 645.16 1018.93 636.29 919.83 775.51 843.12 838.53 992.65 830.45
00024537 00000016 693.04 394.77 435.10 494.52 806.65 644.48 1015.25 650.58 913.80 787.70 837.57 842.39 999.47 843.57
00024538 00000017 693.65 397.24 435.78 493.25 805.86 649.68 1016.27 654.34 913.80 793.15 838.01 845.75 1003.81 845.65
00024539 00000018 694.15 397.50 436.53 492.58 811.27 661.36 1021.60 650.37 920.70 789.69 843.67 848.67 1004.55 837.72
00024540 00000019 696.77 403.83 432.45 485.02 809.99 645.00 1025.03 649.68 922.17 791.70 843.39 837.99 1016.08 838.48
00024541 00000020 697.03 378.77 435.04 504.17 815.27 643.81 1021.07 632.24 923.15 769.94 848.77 825.85 1011.88 814.91
00024542 00000021 695.00 353.10 440.51 532.00 814.41 614.40 1021.89 600.70 926.25 745.68 849.01 802.30 1018.53 790.36
00024543 DELETE   699.76 327.38 432.94 543.56 814.38 583.63 1014.39 571.07 922.02 713.40 852.64 777.08 1012.28 766.23
00024544 00000023 700.18 288.52 437.48 561.88 817.09 550.25 1019.83 539.54 921.06 673.17 843.80 736.14 1007.85 727.68
00024545 00000024 702.48 255.48 437.19 563.87 818.72 512.03 1013.80 502.56 920.25 632.40 850.81 700.85 1009.23 692.77
00024546 00000025 704.08 208.89 435.97 596.68 818.75 482.89 1017.96 476.09 918.57 602.36 839.48 674.38 1007.31 668.33
00024547 00000026 701.40 194.38 438.60 604.48 819.11 458.01 1009.86 450.07 918.83 580.97 846.64 654.82 1005.14 647.97
00024548 00000027 701.90 174.37 439.19 620.25 823.79 440.03 1008.67 434.54 920.05 557.86 856.34 642.18 1008.03 636.35
00024549 00000028 701.35 165.47 441.35 621.53 823.52 429.92 1008.19 423.38 920.94 545.38 858.39 634.15 1008.06 627.23
00024550 00000029 700.23 160.98 441.77 619.11 822.87 423.43 1005.43 415.58 919.39 538.06 859.73 627.67 1007.37 619.68
00024551 00000030 700.27 159.64 443.03 616.22 820.94 418.77 1004.48 410.56 917.16 534.23 860.94 626.70 1005.88 618.40
00024552 00000031 698.52 163.30 441.48 597.10 817.96 418.69 1000.35 409.20 915.30 534.92 862.06 624.14 1001.17 615.08
00024553 00000032 696.80 165.10 442.03 593.16 816.60 418.53 998.01 409.74 912.77 534.31 860.31 622.56 998.33 614.13
00024554 00000033 696.31 164.93 442.39 596.27 815.03 418.20 996.95 410.42 909.53 535.53 859.31 624.52 995.62 617.11
00024555 00000034 696.62 161.57 441.53 605.46 815.40 419.08 997.59 413.24 908.64 538.39 858.82 628.24 994.41 622.49
00024556 00000035 697.41 164.05 440.74 599.60 814.46 420.70 997.71 415.09 907.22 539.76 856.33 627.32 994.44 621.84
00024557 00000036 697.81 168.22 439.96 593.45 814.52 420.30 997.81 415.59 906.56 539.48 854.92 625.76 993.31 621.11
00024558 00000037 698.94 160.80 439.71 600.51 814.93 419.51 996.96 414.54 906.55 538.22 854.85 624.97 993.64 619.96
00024559 00000038 699.10 164.63 439.61 596.17 813.99 416.71 997.26 411.44 906.12 534.11 854.13 623.80 993.01 618.64
00024560 00000039 701.07 166.89 439.65 593.42 813.82 413.70 998.58 408.26 906.05 530.11 853.72 621.90 993.73 616.64
00024561 00000040 703.55 164.21 438.87 594.48 816.42 412.18 1000.56 407.21 908.69 525.74 855.38 618.71 995.85 613.92
00024562 00000041 706.44 166.43 437.59 590.02 818.28 412.82 1003.27 407.03 911.93 526.10 856.08 618.40 998.66 612.99
00024563 00000042 709.18 163.25 436.73 593.68 821.37 415.99 1004.96 410.00 915.01 530.38 859.85 621.23 1000.71 615.60
00024564 00000043 710.71 161.70 436.57 598.35 824.59 419.47 1006.89 413.92 917.30 536.69 862.71 627.24 999.68 622.39
00024565 00000044 711.27 165.56 438.76 600.55 826.16 422.99 1011.40 419.60 918.98 539.79 863.13 631.50 1001.46 628.33
00024566 00000045 719.82 173.99 433.91 599.47 829.17 421.19 1023.39 420.50 923.32 542.20 859.83 633.80 999.97 635.14
00024567 00000046 724.89 172.70 429.15 610.16 833.78 428.79 1024.66 429.96 925.41 550.58 860.83 640.99 1002.86 643.93
00024568 00000047 724.91 182.69 431.22 608.67 836.33 431.63 1026.69 433.56 927.73 555.29 861.72 644.00 1006.30 647.69
00024569 00000048 726.90 180.26 431.78 607.65 837.19 431.07 1028.61 433.12 928.21 554.19 861.54 641.75 1009.47 645.35
00024570 00000049 726.85 182.78 433.33 600.87 836.73 429.34 1030.54 431.38 928.15 554.43 860.57 640.03 1010.22 643.53
00024571 00000050 728.36 182.08 433.26 600.75 837.52 428.06 1031.09 430.40 928.86 554.22 861.96 639.62 1011.75 643.31
00024572 00000051 728.92 185.45 432.80 598.14 837.72 425.77 1030.53 429.33 928.26 553.13 861.62 637.86 1011.37 642.54
00024573 00000052 731.41 179.13 432.41 602.50 838.12 424.43 1030.36 428.03 928.13 550.86 863.34 636.05 1012.46 640.49
00024574 00000053 733.56 175.23 432.61 602.04 840.38 422.68 1032.83 424.49 931.71 546.82 866.55 634.00 1015.22 636.89
00024575 00000054 733.96 173.33 433.23 604.11 840.99 420.82 1033.37 422.96 932.70 544.97 867.69 632.70 1015.71 635.77
00024576 00000055 734.36 172.91 433.34 605.12 841.69 419.61 1033.74 422.16 933.36 543.01 868.37 632.35 1015.95 635.71
00024577 00000056 734.31 173.59 433.92 607.38 842.42 419.80 1032.60 422.35 933.35 543.11 869.65 632.95 1015.81 636.36
00024578 00000057 735.59 176.42 432.73 604.97 843.01 419.96 1032.62 422.55 933.55 543.01 870.03 633.42 1016.28 636.85
00024579 00000058 736.14 177.05 434.16 605.11 844.25 420.51 1033.04 423.46 933.99 543.62 871.23 633.68 1016.65 637.49
00024580 00000059 739.16 177.95 433.51 607.45 847.23 421.76 1033.51 424.79 935.84 544.46 873.32 634.49 1019.06 638.37
00024581 00000060 741.06 173.32 432.76 613.70 850.17 422.13 1036.44 425.57 938.94 545.76 876.26 634.19 1023.15 638.09
00024582 00000061 742.73 177.76 432.77 608.21 851.79 419.74 1039.25 422.98 941.66 543.84 877.65 632.79 1027.10 636.38
00024583 00000062 743.48 176.78 433.54 609.14 854.16 418.86 1041.32 421.76 944.15 542.19 880.76 631.61 1030.22 634.69
00024584 00000063 746.64 173.84 432.07 610.67 856.57 416.66 1042.99 419.68 945.25 540.49 881.84 629.95 1031.19 632.96
00024585 00000064 748.64 174.23 432.72 608.63 859.09 415.82 1044.93 418.78 947.20 539.34 883.52 627.82 1032.55 630.76
00024586 00000065 751.29 176.42 433.16 607.97 862.12 415.33 1047.25 419.15 949.00 535.93 885.18 626.72 1034.88 630.26
00024587 00000066 753.24 171.76 435.64 609.86 865.74 412.84 1053.93 418.05 955.17 534.45 887.21 624.83 1040.15 629.16
00024588 00000067 756.01 172.90 437.63 604.24 872.12 411.15 1061.95 418.43 962.73 531.50 892.97 622.08 1045.42 627.99
00024589 00000068 759.48 170.48 440.27 604.50 881.43 408.71 1074.08 415.55 975.77 529.48 902.92 621.25 1058.02 626.23
00024590 00000069 767.15 163.06 435.26 611.68 891.83 408.61 1081.30 414.33 990.25 522.59 912.74 618.43 1066.90 622.32
00024591 00000070 775.41 159.75 430.84 613.89 907.52 407.51 1096.34 411.67 1010.04 518.84 925.87 619.11 1081.30 621.40
00024592 00000071 778.11 154.80 426.51 622.99 927.46 404.05 1106.07 409.63 1036.27 512.62 945.52 618.74 1091.81 622.00
00024593 00000072 779.01 172.31 421.37 611.80 934.12 404.48 1112.53 402.99 1053.14 509.17 960.75 624.11 1095.25 620.94
00024594 00000073 787.60 156.62 407.20 616.65 945.46 403.35 1117.10 402.88 1061.94 508.63 975.97 627.01 1105.85 625.46
00024595 00000074 788.77 153.10 404.17 596.60 941.51 403.04 1118.19 398.91 1064.18 504.85 979.74 621.29 1108.83 617.37
00024596 00000075 783.22 153.63 404.36 595.79 935.58 400.81 1113.76 398.14 1057.86 502.68 974.17 619.60 1102.54 616.72
00024597 00000076 778.83 156.82 402.18 586.60 928.23 400.06 1109.41 398.45 1052.68 500.43 967.97 616.15 1100.20 613.87
00024598 00000077 777.69 156.93 400.37 587.94 927.53 398.70 1108.82 398.41 1052.68 497.48 966.52 613.31 1099.52 612.17
00024599 00000078 775.59 156.08 399.13 593.22 931.45 395.98 1112.07 394.76 1060.80 496.34 968.62 612.59 1101.71 610.73
00024600 00000079 773.74 152.65 401.81 601.21 935.29 393.68 1114.12 395.47 1062.70 492.32 965.70 608.52 1101.34 608.87
00024601 00000080 766.59 159.58 403.34 600.35 934.79 392.78 1108.83 396.73 1059.57 491.31 958.42 602.78 1096.00 605.20
00024602 00000081 764.98 153.62 400.11 599.54 926.93 391.22 1100.17 400.06 1048.21 489.72 948.35 598.27 1084.83 604.91
00024603 00000082 761.76 156.86 398.89 588.70 915.36 390.40 1098.16 402.01 1038.27 489.40 935.93 593.73 1082.28 602.41
00024604 00000083 759.48 155.77 398.04 587.61 911.51 394.22 1094.13 403.57 1032.81 489.75 933.70 591.42 1080.95 598.34
00024605 00000084 759.32 155.13 397.63 589.35 912.80 396.42 1093.78 403.17 1036.34 489.84 936.84 592.73 1083.49 597.46
00024606 00000085 764.40 156.80 397.95 589.20 924.14 401.01 1098.20 404.99 1045.95 493.96 947.98 595.94 1089.92 598.42
00024607 00000086 768.92 159.55 394.32 585.19 931.31 404.91 1106.06 408.54 1054.35 496.13 954.40 599.60 1094.61 601.94
00024608 00000087 772.84 153.43 394.72 597.60 941.44 404.31 1110.30 410.22 1062.74 498.81 961.15 602.71 1097.66 606.57
00024609 00000088 775.42 166.06 395.04 589.27 952.28 401.01 1113.81 413.04 1067.23 494.86 964.11 600.09 1095.79 609.51
00024610 00000089 781.66 161.84 392.36 594.13 955.34 403.50 1116.03 416.27 1071.22 494.23 966.51 600.39 1098.55 610.65
00024611 00000090 792.90 161.43 388.98 591.18 963.32 405.24 1127.35 419.86 1080.59 496.18 972.46 601.41 1108.12 613.46
00024612 00000091 801.44 161.49 392.10 591.16 972.45 406.22 1143.02 420.74 1092.86 495.04 979.93 603.94 1121.14 615.93
00024613 00000092 810.33 162.78 393.23 589.22 982.64 402.32 1154.60 416.93 1104.32 497.52 989.81 603.73 1131.28 615.43
00024614 00000093 823.17 155.86 391.58 590.99 987.80 401.99 1160.75 413.35 1109.11 495.73 996.93 599.89 1143.24 609.54
00024615 00000094 833.30 152.54 395.82 591.61 994.73 393.51 1169.08 410.87 1114.39 486.60 1008.12 587.81 1149.88 601.42
00024616 00000095 840.51 157.22 402.49 591.89 1012.18 389.77 1178.62 409.01 1126.61 483.91 1017.89 584.79 1155.48 600.34
00024617 00000096 852.38 149.46 405.03 607.69 1026.06 387.25 1188.79 404.36 1141.01 480.48 1027.10 587.17 1167.13 601.21
00024618 00000097 874.28 153.53 396.63 592.09 1042.61 387.84 1207.82 402.18 1159.02 480.93 1048.05 587.96 1187.01 600.21
00024619 00000098 888.83 144.83 397.21 592.36 1053.65 385.10 1224.52 401.35 1170.14 480.79 1064.11 580.79 1201.86 594.54
00024620 00000099 906.23 150.94 398.74 586.44 1074.89 381.15 1242.94 397.85 1189.57 479.72 1085.61 579.07 1219.49 592.51
00024621 00000100 920.33 152.93 402.11 591.00 1092.34 381.55 1258.34 395.37 1207.06 478.89 1101.81 582.53 1236.69 593.26
00024622 00000101 938.39 150.91 398.09 596.95 1112.32 380.24 1274.05 396.27 1222.85 478.04 1116.50 582.94 1252.14 595.77
00024623 00000102 951.70 151.17 396.91 599.61 1127.07 386.18 1289.84 402.89 1242.08 482.72 1126.25 586.44 1267.34 600.75
00024624 00000103 962.13 140.08 401.20 608.02 1136.31 382.48 1300.27 404.05 1248.86 481.71 1137.80 578.89 1274.17 596.38
00024625 00000104 971.51 151.83 402.31 590.54 1148.25 381.77 1316.75 404.76 1263.67 483.92 1151.87 580.18 1286.55 598.81
00024626 00000105 981.31 156.75 403.36 583.88 1156.95 381.96 1324.98 403.94 1270.62 482.05 1161.55 581.60 1293.48 599.54
00024627 00000106 985.85 156.08 404.82 591.44 1163.64 384.06 1328.12 406.18 1276.08 483.51 1164.48 583.73 1297.23 601.78
00024628 00000107 987.15 158.37 405.08 591.79 1165.45 383.68 1327.77 406.67 1276.61 483.31 1164.47 584.82 1296.14 603.69
CROP_BBOX: 341 0 1567 1080
