Video ID: 	SZOnERIu60c
H: 	1080
W: 	1920
FPS: 	25.0

FRAME INDEX X0 Y0 W H [Landmarks (5 Points)]

00033056 00000000 763.75 354.62 418.30 568.86 887.09 582.30 1071.71 569.00 1001.81 716.97 934.78 800.51 1071.86 790.13
00033057 DELETE   764.47 354.97 418.42 568.90 887.45 583.00 1073.05 569.00 1003.13 718.22 936.35 801.56 1073.65 790.47
00033058 00000002 764.19 357.12 418.74 566.72 886.65 581.69 1073.25 568.15 1002.28 717.87 935.66 801.33 1073.22 790.51
00033059 00000003 763.51 355.99 419.30 567.12 885.74 581.11 1073.31 567.12 1001.88 718.47 934.55 801.22 1073.52 790.06
00033060 00000004 763.62 354.89 418.69 569.93 886.03 580.07 1072.89 567.31 1001.30 718.31 934.06 801.62 1072.13 791.50
00033061 00000005 769.63 358.23 413.18 567.68 886.31 578.00 1073.81 565.99 1003.24 713.16 935.49 807.48 1068.26 795.70
00033062 00000006 772.39 355.92 412.91 571.73 889.69 579.73 1076.44 565.15 1007.80 713.11 940.39 808.72 1072.93 794.65
00033063 00000007 772.25 357.42 414.98 572.28 890.86 581.07 1076.72 565.03 1009.36 713.61 943.65 811.36 1074.12 796.01
00033064 00000008 772.47 358.07 414.66 571.89 890.57 581.10 1076.90 565.77 1009.17 713.86 943.37 813.08 1073.04 798.29
00033065 00000009 771.93 359.39 414.83 570.73 890.95 580.38 1076.47 565.71 1008.97 713.72 942.76 812.81 1071.38 798.60
00033066 00000010 772.20 359.41 414.45 570.29 890.72 580.27 1076.14 565.70 1008.70 713.86 942.90 813.11 1070.86 798.94
00033067 00000011 772.22 358.61 414.36 570.54 890.71 580.48 1076.51 565.79 1008.97 713.98 942.86 812.57 1071.83 798.26
00033068 00000012 772.75 357.97 414.08 570.53 891.64 580.79 1077.61 565.13 1010.16 713.72 943.27 811.39 1073.67 796.39
00033069 00000013 773.11 355.58 414.61 572.27 891.15 580.37 1079.53 564.25 1010.91 714.59 942.36 810.78 1076.46 795.43
00033070 00000014 774.16 354.29 413.82 572.70 891.90 579.59 1080.20 564.40 1011.23 715.35 941.54 809.14 1076.07 794.75
00033071 00000015 766.05 351.81 420.75 577.14 893.71 582.17 1082.05 567.33 1012.31 721.27 941.96 806.56 1079.59 794.56
00033072 00000016 773.22 353.48 414.22 574.38 889.02 579.81 1079.17 564.84 1009.85 715.14 941.35 812.39 1075.94 797.75
00033073 00000017 772.58 354.75 415.61 575.85 889.31 579.76 1078.52 565.20 1009.67 714.44 941.48 812.09 1075.28 797.86
00033074 00000018 772.17 357.02 416.08 577.03 891.15 580.43 1076.74 565.85 1010.03 713.60 942.45 812.35 1072.12 798.27
00033075 00000019 771.84 358.16 416.17 576.04 891.65 581.12 1076.05 566.56 1010.11 714.28 943.02 812.57 1070.85 798.55
00033076 00000020 771.87 359.49 416.36 574.80 891.95 581.83 1076.50 567.27 1010.08 715.21 943.11 812.73 1070.92 798.78
00033077 00000021 771.35 358.08 416.45 574.32 890.35 582.41 1076.76 567.86 1009.38 716.60 941.07 812.10 1072.34 798.17
00033078 00000022 764.96 354.28 421.25 573.53 891.26 584.52 1078.70 569.71 1009.19 722.16 937.09 804.54 1075.99 792.99
00033079 00000023 764.62 354.39 421.35 569.48 890.02 584.06 1078.65 568.29 1008.31 721.61 936.58 802.70 1077.03 790.21
00033080 00000024 764.99 354.17 421.57 568.65 889.86 583.47 1079.48 568.23 1008.22 721.26 936.24 801.93 1077.82 789.67
00033081 00000025 764.97 354.70 421.90 568.21 891.02 582.39 1080.37 567.61 1008.97 721.65 936.88 801.50 1077.76 789.66
00033082 00000026 765.96 353.93 420.58 571.82 893.38 582.89 1081.11 569.14 1010.57 721.56 939.54 804.80 1076.10 794.04
00033083 00000027 771.95 357.14 416.16 570.91 891.22 582.20 1079.85 568.39 1010.56 719.18 939.66 814.02 1072.62 800.68
00033084 00000028 771.06 358.28 417.67 570.79 892.36 582.93 1081.79 568.82 1012.74 721.13 940.70 814.45 1074.72 800.99
00033085 00000029 772.03 358.19 417.85 571.00 893.76 583.46 1082.88 569.25 1014.22 721.53 942.10 815.43 1076.59 801.83
00033086 00000030 771.67 359.10 418.85 572.50 896.02 583.13 1082.57 569.24 1015.50 719.88 947.38 817.77 1073.80 804.12
00033087 00000031 771.33 360.92 419.04 574.13 898.89 583.05 1082.14 569.55 1017.06 719.83 949.92 818.97 1071.34 805.83
00033088 00000032 772.18 361.38 419.11 574.10 900.31 583.59 1083.16 569.27 1019.12 719.71 952.16 820.00 1073.39 806.12
00033089 00000033 774.61 361.44 418.93 572.45 901.68 583.17 1086.73 568.64 1021.68 719.17 955.01 820.34 1077.51 806.23
00033090 00000034 778.07 357.36 416.89 573.85 902.74 584.10 1088.70 568.06 1024.93 719.11 958.24 821.34 1082.49 805.81
00033091 00000035 779.58 358.43 415.66 572.79 906.15 584.03 1091.32 568.14 1028.89 718.20 961.07 821.48 1084.67 806.21
00033092 00000036 781.51 357.68 414.70 573.16 909.86 583.89 1093.38 567.20 1032.50 716.62 964.87 820.90 1087.76 804.88
00033093 00000037 783.04 355.08 412.06 574.13 912.91 582.72 1094.82 565.04 1036.71 715.03 967.95 819.20 1089.99 802.31
00033094 00000038 784.30 354.99 411.84 572.28 915.31 581.97 1097.94 563.89 1039.73 713.33 969.46 816.46 1093.53 799.06
00033095 00000039 786.65 354.86 410.01 567.95 915.23 582.07 1101.50 563.74 1041.36 713.15 966.72 814.26 1098.39 796.77
00033096 00000040 787.21 354.06 410.48 566.80 915.40 582.78 1103.58 562.31 1042.89 713.99 964.92 811.65 1102.52 792.52
00033097 00000041 787.65 353.61 409.34 563.80 916.60 582.29 1105.64 560.50 1045.71 714.45 965.85 808.51 1105.26 788.48
00033098 00000042 788.62 352.59 409.25 562.71 918.06 582.74 1107.96 559.59 1049.31 713.87 967.61 807.30 1108.59 786.23
00033099 00000043 790.09 348.17 407.74 565.47 919.96 582.34 1110.11 558.04 1052.52 712.38 969.91 807.30 1110.52 785.27
00033100 00000044 791.88 343.83 406.45 565.26 922.13 580.34 1112.38 553.74 1056.96 709.35 971.97 805.15 1113.80 781.52
00033101 00000045 792.49 344.97 404.46 559.41 926.13 576.09 1114.03 550.19 1061.46 704.03 975.11 801.19 1115.40 778.36
00033102 00000046 792.43 342.95 406.41 560.32 929.65 572.02 1117.29 548.55 1064.97 698.33 975.17 795.75 1117.12 775.38
00033103 00000047 790.12 343.37 408.27 562.43 932.93 567.03 1117.79 544.31 1067.54 694.42 976.59 792.29 1116.23 772.73
00033104 00000048 789.67 339.93 408.42 566.57 933.57 563.94 1118.25 541.22 1068.23 690.10 976.66 790.58 1115.85 771.03
00033105 00000049 789.86 338.13 407.54 567.41 933.88 562.20 1118.87 539.95 1068.96 687.56 976.47 789.06 1116.23 769.86
00033106 00000050 790.40 336.83 406.59 567.44 934.83 562.20 1119.90 539.71 1069.89 687.35 976.79 788.98 1116.42 769.67
00033107 00000051 791.21 336.82 405.04 566.50 935.89 562.32 1121.09 540.00 1071.06 686.82 977.09 788.76 1117.26 769.62
00033108 00000052 792.23 336.76 405.16 566.38 936.66 563.09 1122.37 540.31 1072.86 687.21 979.00 789.35 1119.39 769.77
00033109 00000053 793.70 337.16 405.26 567.61 938.33 564.26 1123.58 542.26 1075.17 687.62 980.63 790.70 1120.58 771.78
00033110 00000054 795.28 337.54 405.14 567.67 940.62 564.21 1125.08 543.18 1077.43 689.00 982.11 790.85 1121.79 772.89
00033111 00000055 793.84 332.83 411.37 576.40 948.59 557.95 1129.27 544.62 1076.02 689.38 989.47 784.94 1127.36 775.72
00033112 00000056 795.50 333.91 411.85 575.44 950.36 558.56 1130.82 545.74 1076.74 690.50 990.11 785.27 1127.42 776.49
00033113 00000057 795.76 333.95 412.10 575.10 951.07 557.70 1131.67 545.55 1077.04 690.22 990.27 784.86 1127.62 776.59
00033114 00000058 795.91 333.96 412.51 574.67 951.00 556.97 1132.05 545.32 1076.57 689.45 989.21 783.95 1127.78 776.10
00033115 00000059 796.83 334.04 412.29 574.45 950.34 556.77 1132.33 545.31 1076.01 689.76 987.72 783.65 1127.93 775.98
00033116 00000060 797.66 335.74 411.82 573.94 950.11 556.29 1132.44 545.40 1075.42 690.31 987.25 784.06 1127.27 776.87
00033117 00000061 797.90 336.38 412.66 575.33 949.24 556.31 1132.68 546.47 1074.06 690.76 985.30 784.16 1126.80 777.87
00033118 00000062 797.33 338.10 413.44 575.05 949.59 556.70 1132.84 547.94 1073.83 692.27 983.65 783.97 1125.63 778.65
00033119 00000063 796.95 338.83 414.36 577.13 949.45 556.54 1132.80 549.52 1072.27 693.63 980.97 783.77 1123.74 780.01
00033120 00000064 796.69 339.53 414.79 577.50 948.15 556.50 1132.32 550.71 1070.75 694.22 978.47 783.82 1121.98 781.18
00033121 00000065 796.28 339.49 415.76 577.86 948.14 555.92 1132.50 551.00 1070.16 694.18 977.75 784.03 1120.58 782.15
00033122 00000066 796.99 341.12 415.92 576.40 948.32 554.72 1132.75 550.39 1070.14 694.47 977.20 784.09 1119.28 782.72
00033123 00000067 796.74 339.84 417.11 578.01 950.50 554.85 1134.25 550.93 1071.88 695.37 977.04 783.91 1119.09 782.99
00033124 00000068 797.46 341.99 416.66 575.15 951.37 554.23 1135.02 550.81 1072.58 695.61 976.91 784.13 1118.54 783.66
00033125 00000069 797.32 342.01 417.10 575.55 951.94 554.52 1135.07 551.02 1073.01 696.08 976.76 784.10 1118.21 783.64
00033126 00000070 796.11 340.49 418.34 570.33 953.45 553.37 1136.45 549.83 1072.89 695.36 978.64 782.98 1115.37 782.49
00033127 00000071 795.46 338.64 418.65 569.72 951.31 551.89 1134.93 548.71 1069.94 694.14 980.11 784.21 1112.43 783.75
00033128 00000072 794.15 339.37 419.16 568.38 948.47 550.15 1133.09 547.29 1066.94 693.50 977.96 784.40 1109.47 784.02
00033129 00000073 793.18 336.71 420.08 570.66 947.54 549.05 1131.69 547.56 1064.52 692.11 975.83 783.72 1105.43 784.48
00033130 00000074 791.96 335.28 421.42 573.29 947.51 548.95 1130.13 548.33 1062.60 691.59 974.17 782.85 1102.61 784.43
00033131 00000075 791.82 335.53 421.18 578.26 945.84 549.11 1130.76 548.62 1063.13 691.37 970.39 782.40 1104.99 784.43
00033132 00000076 794.32 337.86 418.36 581.17 947.19 549.75 1130.82 549.83 1065.84 692.13 971.51 783.54 1108.60 786.09
00033133 00000077 794.64 340.22 418.11 579.28 947.77 552.66 1131.39 552.18 1067.01 693.28 971.92 783.74 1111.50 785.86
00033134 00000078 793.72 342.17 418.43 574.27 946.10 553.72 1130.32 552.88 1065.21 693.66 970.22 782.05 1111.81 783.79
00033135 00000079 792.20 341.86 419.34 569.71 943.59 555.05 1130.19 552.98 1062.84 694.56 968.04 780.74 1112.02 781.27
00033136 00000080 789.57 336.08 418.90 574.67 939.20 554.84 1126.72 552.84 1058.96 693.90 963.40 780.55 1108.04 781.01
00033137 00000081 787.96 339.95 410.30 564.03 928.53 560.00 1116.13 550.18 1053.28 697.67 955.15 784.97 1100.07 776.58
00033138 00000082 783.45 339.04 412.95 563.45 918.94 554.83 1109.15 544.81 1040.30 695.63 948.09 784.29 1091.57 775.09
00033139 00000083 773.82 330.88 421.42 572.65 911.26 550.54 1098.67 541.91 1026.45 692.55 947.73 783.04 1085.32 774.35
00033140 00000084 769.04 327.91 421.40 570.96 902.54 550.31 1089.34 542.80 1015.09 689.13 939.35 777.47 1077.91 770.06
00033141 DELETE   765.12 325.93 421.57 571.65 895.08 548.73 1082.85 539.36 1008.71 687.80 933.31 774.99 1073.06 766.26
00033142 00000086 761.66 327.39 420.37 569.94 887.10 547.12 1075.01 534.95 1002.20 685.44 928.13 774.06 1070.04 763.27
00033143 00000087 760.47 326.32 420.38 571.16 883.99 545.08 1069.44 532.08 996.35 683.28 925.42 773.49 1065.77 762.13
00033144 00000088 759.84 323.62 419.76 573.61 881.58 543.08 1068.11 530.55 993.61 682.29 922.21 773.09 1064.06 762.09
00033145 00000089 759.56 321.27 418.24 574.79 881.17 541.58 1066.40 529.41 992.78 680.00 921.81 772.47 1062.19 761.73
00033146 00000090 759.18 320.78 418.45 574.69 881.78 540.85 1066.35 529.38 993.05 678.88 922.38 771.97 1061.56 761.86
00033147 00000091 758.85 321.47 418.62 574.18 881.90 541.23 1066.43 529.53 993.03 679.14 923.47 773.64 1060.68 763.38
00033148 00000092 757.98 325.04 418.68 572.25 881.02 542.48 1066.89 530.15 993.01 680.31 924.41 775.36 1062.02 764.65
00033149 00000093 758.08 325.74 418.55 573.61 881.59 544.02 1065.42 531.87 992.04 681.37 924.55 776.57 1060.31 766.06
00033150 00000094 758.27 328.12 417.00 572.16 881.12 544.61 1062.99 533.10 990.07 681.85 924.37 777.46 1057.63 767.62
00033151 00000095 757.53 328.80 416.27 572.22 878.54 546.91 1060.63 534.76 988.61 682.98 922.44 778.13 1058.12 767.95
00033152 00000096 756.82 329.59 416.87 569.91 876.20 549.15 1058.91 536.38 986.06 683.92 919.27 776.22 1058.83 765.55
00033153 00000097 755.88 328.88 417.83 570.46 874.93 549.37 1057.32 536.47 984.59 683.92 916.41 774.92 1058.47 764.10
00033154 00000098 754.80 328.77 418.23 570.05 873.32 548.71 1056.77 535.62 983.51 683.36 915.45 774.68 1058.17 763.68
00033155 00000099 753.72 327.92 418.59 570.97 872.41 547.81 1056.35 535.47 982.64 683.41 914.68 774.66 1056.91 764.34
00033156 00000100 752.70 328.82 418.86 571.74 871.75 547.82 1054.91 535.80 981.80 683.51 914.09 775.63 1054.68 765.77
00033157 00000101 752.42 329.50 418.90 571.22 871.53 548.19 1055.10 536.14 981.76 683.93 913.54 775.46 1055.43 765.53
00033158 00000102 752.10 329.61 419.44 569.99 871.31 549.10 1055.86 536.06 982.00 684.16 913.92 775.43 1057.15 764.61
00033159 00000103 752.56 329.78 419.11 571.08 871.49 549.59 1056.08 536.14 982.57 684.65 914.69 776.60 1057.91 765.48
00033160 00000104 752.82 330.99 418.32 570.83 871.90 549.46 1055.66 536.16 982.85 684.69 916.37 778.12 1056.67 767.26
00033161 00000105 753.08 330.10 418.57 571.51 872.28 549.68 1055.85 536.16 983.20 684.39 917.54 778.68 1056.70 767.64
00033162 00000106 753.46 332.95 418.37 568.90 872.84 550.24 1056.85 536.04 984.67 685.46 918.87 779.60 1058.10 767.92
00033163 00000107 753.55 333.74 418.96 568.54 874.00 551.31 1058.25 536.80 985.95 686.11 919.85 779.56 1060.04 767.64
00033164 00000108 754.62 334.60 417.85 567.48 876.73 552.40 1060.26 537.25 989.11 686.81 923.23 779.72 1062.37 767.30
00033165 00000109 756.34 335.83 416.86 565.35 879.37 552.77 1062.74 536.60 992.81 687.47 926.89 780.22 1064.46 766.90
00033166 00000110 757.70 336.52 416.30 562.65 881.47 552.64 1066.28 535.79 996.63 687.92 930.81 780.28 1067.76 766.20
00033167 00000111 758.31 335.25 417.21 562.85 883.93 553.88 1069.43 536.41 1000.23 687.87 934.10 779.91 1071.43 765.15
00033168 00000112 759.03 335.47 417.43 563.51 887.34 554.71 1072.39 537.06 1003.85 689.82 937.06 780.73 1073.58 765.69
00033169 00000113 759.93 333.67 417.30 565.58 890.68 554.91 1074.85 537.15 1007.66 691.09 940.50 781.43 1075.74 766.11
00033170 00000114 761.03 333.63 417.28 564.46 893.20 556.35 1078.64 538.16 1011.93 691.66 944.38 781.95 1079.65 766.19
00033171 00000115 761.92 336.21 417.88 561.55 896.19 556.33 1083.21 539.31 1015.62 692.88 947.31 783.17 1081.71 768.21
00033172 00000116 761.92 337.72 418.71 561.74 899.61 556.42 1086.58 538.86 1020.31 693.84 950.70 784.10 1085.49 768.41
00033173 00000117 763.23 335.29 420.00 566.39 903.26 556.26 1088.96 538.85 1023.86 693.92 951.57 783.93 1087.79 768.24
00033174 00000118 765.62 333.89 418.62 569.68 906.96 555.01 1091.60 535.68 1030.12 692.17 954.90 784.91 1091.31 767.46
CROP_BBOX: 522 47 1493 1080
