Video ID: 	fFeyTJDG91c
H: 	1080
W: 	1920
FPS: 	25.0

FRAME INDEX X0 Y0 W H [Landmarks (5 Points)]

00010661 00000000 994.49 193.51 465.80 647.23 1113.17 434.53 1308.76 493.29 1161.52 565.80 1067.32 659.17 1218.12 708.42
00010662 DELETE   1005.95 196.69 467.37 639.28 1119.34 439.48 1314.80 496.18 1165.78 560.51 1080.59 663.28 1228.71 711.78
00010663 DELETE   1010.97 196.92 465.53 639.94 1123.06 441.79 1318.03 496.44 1170.15 559.05 1086.12 662.82 1235.24 709.73
00010664 DELETE   1010.53 200.30 468.49 637.93 1127.00 436.87 1323.05 492.82 1177.60 561.96 1089.39 662.74 1237.84 710.76
00010665 00000004 1011.52 200.15 468.50 636.80 1129.43 435.94 1326.52 491.13 1183.71 563.85 1093.07 661.82 1242.07 709.21
00010666 00000005 1011.15 198.62 469.30 637.45 1129.38 434.14 1327.95 488.83 1186.51 565.41 1093.41 661.40 1243.57 708.49
00010667 00000006 1010.06 199.04 469.42 634.40 1129.38 433.45 1329.10 488.33 1187.98 565.34 1092.77 659.94 1243.53 707.10
00010668 00000007 1008.64 198.56 469.90 631.72 1126.47 431.93 1327.39 487.21 1185.47 564.96 1089.59 658.84 1241.25 706.34
00010669 00000008 1006.41 196.98 471.47 632.97 1125.25 431.36 1325.31 488.17 1182.68 563.53 1086.95 656.88 1239.07 705.63
00010670 00000009 1002.48 197.60 472.65 631.88 1121.46 431.30 1323.23 488.76 1180.29 564.45 1083.78 657.22 1237.20 706.40
00010671 00000010 1001.56 201.74 471.83 628.34 1118.58 432.75 1321.60 491.15 1177.70 566.99 1080.77 658.29 1236.05 708.06
00010672 00000011 999.55 204.69 472.85 626.50 1117.18 434.46 1320.56 492.70 1176.80 569.18 1079.78 660.28 1235.21 709.74
00010673 00000012 998.77 206.01 472.66 624.46 1116.44 434.92 1320.24 493.84 1176.66 571.76 1079.27 661.08 1234.37 711.03
00010674 00000013 997.83 208.03 472.87 622.57 1115.76 434.47 1319.98 493.94 1176.22 572.00 1078.63 661.11 1233.41 711.48
00010675 00000014 998.93 206.50 471.83 624.08 1115.15 434.13 1319.79 492.99 1175.62 572.75 1078.26 661.33 1233.75 711.28
00010676 00000015 999.47 205.93 472.07 624.95 1115.66 433.81 1320.54 491.67 1176.78 570.08 1079.48 660.02 1235.54 709.08
00010677 00000016 999.73 202.75 471.63 625.26 1115.61 432.36 1320.32 489.26 1176.93 567.75 1079.55 658.20 1236.33 706.48
00010678 DELETE   1001.50 198.79 469.69 626.45 1118.64 436.79 1318.69 494.01 1176.10 565.73 1081.48 656.58 1237.84 705.06
00010679 DELETE   999.24 200.38 468.64 625.90 1117.79 449.02 1317.16 503.77 1174.49 564.90 1078.04 656.02 1237.79 701.42
00010680 DELETE   997.66 200.40 470.97 626.01 1115.79 441.92 1317.61 497.46 1175.59 566.74 1080.30 660.04 1238.66 706.93
00010681 00000020 993.97 201.69 473.56 626.37 1113.55 436.71 1317.34 495.26 1175.18 571.46 1078.72 659.67 1236.55 709.06
00010682 00000021 991.16 201.45 475.38 626.81 1112.08 435.67 1316.07 494.46 1174.24 573.84 1077.64 659.92 1234.86 709.47
00010683 00000022 990.10 203.51 469.44 627.29 1111.95 437.83 1315.26 496.83 1171.01 572.96 1069.32 656.30 1231.59 705.52
00010684 00000023 988.83 202.02 469.04 629.12 1109.51 435.47 1314.80 493.56 1170.14 572.71 1067.45 656.14 1231.02 704.84
00010685 00000024 989.83 201.59 472.74 625.54 1107.00 434.74 1312.76 490.77 1171.31 572.29 1073.62 658.70 1232.89 705.98
00010686 00000025 989.52 201.04 474.25 625.52 1106.58 434.11 1313.22 489.80 1171.58 571.98 1073.55 658.75 1233.38 705.75
00010687 00000026 991.51 202.39 472.33 624.41 1107.45 434.40 1314.18 490.47 1172.77 573.04 1074.75 659.20 1234.41 706.55
00010688 00000027 992.70 202.26 472.40 625.52 1108.94 434.95 1314.97 491.14 1173.92 574.01 1075.75 659.69 1234.89 707.24
00010689 00000028 992.87 204.21 472.39 625.66 1109.57 435.94 1315.80 492.89 1174.28 574.83 1076.48 660.92 1235.74 709.03
00010690 00000029 994.68 203.93 471.86 626.65 1110.28 436.26 1316.55 493.53 1174.41 575.53 1077.05 661.79 1235.76 710.29
00010691 00000030 994.03 205.96 472.70 623.54 1110.56 436.78 1316.74 494.06 1174.84 576.23 1077.55 662.75 1234.95 711.17
00010692 00000031 994.01 206.58 473.73 624.57 1110.47 437.02 1317.00 494.16 1174.62 577.36 1077.74 663.70 1234.88 712.02
00010693 00000032 994.30 206.37 473.08 623.96 1110.74 438.20 1316.73 495.29 1175.10 578.58 1078.15 664.37 1234.75 712.68
00010694 00000033 992.90 207.40 474.23 623.53 1110.25 438.33 1316.86 495.46 1175.23 579.00 1077.99 665.13 1234.66 713.51
00010695 00000034 993.64 207.00 473.61 623.90 1110.10 438.89 1316.42 496.02 1174.79 579.74 1078.42 665.46 1234.75 713.87
00010696 00000035 993.56 207.42 473.37 624.41 1110.52 439.38 1316.35 496.24 1174.97 579.76 1078.69 666.09 1234.24 714.29
00010697 00000036 993.01 207.68 472.61 624.34 1110.17 440.46 1315.78 497.69 1175.26 580.24 1078.11 666.10 1234.92 714.62
00010698 00000037 993.00 207.38 469.72 626.52 1113.58 446.26 1314.50 507.91 1169.73 579.04 1072.58 660.79 1231.50 711.92
00010699 00000038 992.48 207.25 474.50 624.11 1113.15 444.56 1316.45 503.39 1173.79 577.84 1078.25 665.42 1234.97 715.24
00010700 00000039 991.80 207.24 471.16 627.84 1112.52 444.98 1314.44 504.95 1170.56 579.89 1072.20 662.35 1231.56 712.18
00010701 00000040 991.51 208.20 471.05 626.75 1111.85 441.56 1314.81 502.13 1170.47 580.92 1071.45 662.59 1231.09 713.11
00010702 00000041 992.44 208.21 473.46 622.78 1111.41 440.28 1315.45 498.56 1175.15 580.49 1078.55 665.07 1233.71 714.48
00010703 00000042 992.52 208.44 473.45 623.21 1111.37 439.69 1315.48 497.95 1174.97 579.92 1078.59 664.66 1234.04 713.98
00010704 00000043 992.81 207.25 472.77 622.94 1110.76 440.11 1315.52 497.20 1175.41 579.96 1078.75 664.87 1234.69 713.24
00010705 00000044 993.66 205.55 473.34 624.61 1110.81 439.59 1316.47 496.30 1175.81 579.65 1078.90 664.95 1235.58 712.99
00010706 00000045 994.37 205.44 473.35 624.18 1111.08 437.79 1317.14 494.30 1176.09 579.30 1079.43 664.66 1235.60 712.53
00010707 00000046 996.44 204.89 471.44 625.61 1112.06 438.35 1317.59 494.04 1177.19 579.51 1080.66 665.10 1236.88 712.37
00010708 00000047 996.27 205.07 472.32 625.72 1111.89 438.10 1317.93 493.56 1177.49 579.68 1080.90 665.13 1237.65 712.21
00010709 00000048 996.81 203.84 471.73 626.20 1112.15 437.97 1317.98 493.38 1177.52 579.85 1081.01 665.02 1237.76 712.09
00010710 00000049 996.86 205.01 471.71 625.63 1112.01 438.04 1317.97 493.40 1177.72 580.08 1081.47 665.05 1238.60 712.05
00010711 00000050 997.08 205.09 471.37 625.30 1111.70 438.19 1317.98 493.22 1177.80 580.19 1081.57 665.03 1238.87 711.81
00010712 00000051 996.05 206.97 472.16 624.45 1111.63 438.24 1318.44 493.40 1178.14 579.89 1081.52 665.26 1239.28 712.05
00010713 00000052 996.65 206.34 471.43 624.80 1111.60 438.33 1318.52 493.08 1178.44 579.96 1081.73 665.43 1239.40 711.90
00010714 00000053 996.62 205.33 471.75 625.47 1111.91 438.54 1318.66 493.08 1178.95 579.75 1081.86 665.05 1239.56 711.35
00010715 00000054 997.11 206.23 471.89 624.38 1111.89 437.92 1319.01 492.56 1178.75 579.13 1081.37 664.86 1239.47 711.24
00010716 00000055 997.42 206.07 471.03 623.42 1111.82 437.55 1319.10 492.21 1179.03 578.36 1081.52 664.36 1239.96 710.75
00010717 00000056 997.18 206.40 471.52 623.75 1112.11 437.72 1319.29 492.00 1179.36 578.36 1082.02 664.52 1240.41 710.62
00010718 00000057 997.63 205.23 471.40 625.06 1113.29 438.37 1319.54 492.72 1180.07 578.79 1082.98 664.51 1240.62 710.73
00010719 00000058 999.05 205.25 471.12 624.39 1115.42 441.12 1318.91 498.27 1177.70 577.46 1083.06 663.54 1240.45 712.00
00010720 00000059 998.87 206.20 470.65 623.26 1116.79 445.49 1319.02 502.30 1178.15 576.95 1083.35 664.63 1240.60 712.70
00010721 00000060 998.03 206.55 472.28 623.50 1115.10 443.77 1319.14 499.99 1178.05 577.81 1083.13 665.47 1241.28 713.03
00010722 00000061 998.17 207.82 472.42 623.18 1116.26 440.23 1319.88 497.78 1179.11 579.01 1083.73 664.85 1239.40 713.67
00010723 00000062 999.15 208.33 471.19 623.12 1115.23 439.61 1319.06 497.06 1178.29 579.79 1083.54 665.37 1239.33 714.13
00010724 00000063 999.32 207.13 470.85 623.86 1115.17 439.86 1319.45 496.47 1179.28 580.08 1083.62 665.38 1240.10 713.48
00010725 00000064 999.39 206.72 470.75 624.97 1114.71 439.41 1319.65 495.42 1179.48 580.27 1083.62 665.78 1240.31 713.41
00010726 00000065 999.84 206.43 470.63 625.27 1114.39 439.43 1319.62 494.54 1179.06 579.95 1084.14 666.34 1240.47 713.23
00010727 00000066 998.77 206.71 471.25 625.59 1113.64 439.17 1319.62 493.64 1178.77 579.33 1083.92 666.73 1240.64 713.05
00010728 00000067 999.25 206.76 470.94 626.15 1113.69 439.49 1319.68 493.52 1178.99 579.08 1084.34 666.82 1241.37 712.78
00010729 00000068 999.59 207.62 470.79 626.05 1113.64 439.72 1319.92 493.42 1178.96 579.45 1084.69 667.86 1241.62 713.62
00010730 00000069 1001.15 207.10 469.52 625.40 1114.34 440.17 1320.67 493.04 1179.93 579.21 1085.95 667.97 1242.98 713.08
00010731 00000070 1001.42 208.95 470.22 623.68 1114.69 440.38 1320.90 493.51 1180.48 579.39 1086.48 668.71 1242.51 714.06
00010732 00000071 1001.52 209.93 470.60 623.60 1115.43 441.11 1321.71 494.67 1181.56 580.48 1086.65 669.49 1242.81 715.21
00010733 00000072 1003.11 210.14 469.50 623.67 1116.52 441.13 1322.53 495.11 1182.60 581.33 1087.48 669.69 1243.27 715.79
00010734 00000073 1003.04 210.13 469.12 623.81 1116.56 441.29 1322.07 495.28 1182.35 581.16 1087.31 669.53 1242.77 715.69
00010735 00000074 1002.54 210.62 469.27 623.39 1115.49 441.68 1321.33 495.22 1181.31 581.17 1087.02 670.48 1242.17 716.25
00010736 00000075 1002.11 210.30 469.69 623.72 1115.07 441.14 1320.61 495.12 1180.16 581.05 1086.36 670.09 1240.79 716.22
00010737 00000076 1000.86 210.95 469.82 622.96 1114.48 442.10 1319.31 495.92 1179.31 581.17 1085.66 670.01 1239.87 715.97
00010738 DELETE   1001.19 207.40 469.29 625.52 1116.43 446.40 1317.84 501.04 1177.71 579.96 1085.49 668.69 1239.63 715.25
00010739 00000078 1000.30 208.56 469.54 624.73 1114.74 446.56 1317.62 501.56 1175.95 579.17 1083.89 668.98 1239.17 715.81
00010740 00000079 999.29 207.31 469.90 626.82 1114.08 442.21 1317.42 498.31 1175.97 579.84 1083.34 667.84 1238.39 715.54
00010741 00000080 998.65 206.85 470.42 626.51 1112.97 440.27 1316.17 496.28 1175.42 580.55 1082.65 666.94 1237.17 714.70
00010742 00000081 997.99 206.92 470.45 626.16 1112.95 440.09 1317.29 495.22 1177.40 579.95 1082.79 666.90 1238.29 713.91
00010743 00000082 999.01 206.54 469.78 626.21 1112.76 439.63 1317.41 493.43 1177.15 579.11 1083.83 666.66 1239.35 712.52
00010744 00000083 998.91 205.13 470.79 627.15 1112.87 439.53 1318.16 492.73 1177.65 578.21 1083.68 666.26 1239.97 711.55
00010745 00000084 998.56 203.24 471.59 628.62 1112.35 438.37 1317.87 491.41 1178.16 577.92 1083.18 664.78 1240.64 710.03
00010746 00000085 999.01 203.82 470.61 626.76 1112.16 437.41 1317.87 489.94 1178.24 576.79 1083.24 663.65 1241.19 708.44
00010747 00000086 999.19 202.74 470.61 626.80 1111.97 435.84 1318.05 488.54 1177.58 575.34 1082.65 662.35 1240.92 707.26
00010748 00000087 999.30 203.19 470.16 626.63 1111.86 435.84 1318.14 487.95 1177.54 574.33 1082.85 662.63 1241.11 707.07
00010749 00000088 999.22 204.13 470.18 625.80 1112.24 435.03 1318.40 488.12 1178.02 575.03 1082.74 662.14 1240.86 707.37
00010750 00000089 999.09 203.60 470.52 626.43 1112.59 435.86 1318.27 488.57 1178.26 575.94 1082.98 662.72 1240.93 707.71
00010751 00000090 999.32 204.39 469.82 626.96 1113.21 437.39 1318.45 490.32 1178.64 577.09 1083.72 664.22 1240.72 709.36
00010752 00000091 999.92 204.23 468.64 628.54 1112.89 438.81 1318.31 492.08 1178.37 579.44 1083.54 665.76 1240.59 711.28
00010753 00000092 999.03 205.41 469.61 628.18 1112.57 439.58 1317.58 493.20 1177.86 580.64 1083.40 666.66 1239.68 712.41
00010754 00000093 998.77 207.03 469.23 627.92 1112.02 439.34 1317.66 493.32 1177.60 581.26 1083.12 667.51 1239.22 713.65
00010755 00000094 998.23 207.12 469.73 627.73 1111.60 439.68 1317.39 493.42 1177.40 581.09 1083.20 667.68 1239.22 713.59
00010756 00000095 998.15 208.27 469.62 625.42 1110.81 439.79 1317.34 493.13 1177.34 581.58 1082.99 668.24 1239.02 713.76
00010757 00000096 998.36 208.04 469.39 625.63 1111.21 439.72 1317.62 493.22 1177.29 581.60 1083.03 668.42 1238.92 714.10
00010758 00000097 998.87 208.65 469.60 625.17 1111.45 439.89 1317.67 493.06 1177.37 581.73 1083.89 668.73 1239.34 714.12
00010759 00000098 999.04 208.64 469.90 625.26 1112.17 440.11 1318.22 493.62 1178.13 581.94 1084.20 668.53 1239.82 714.21
00010760 00000099 999.33 209.06 469.73 624.72 1112.48 440.54 1318.56 494.17 1178.68 582.56 1084.40 669.01 1239.67 714.81
00010761 00000100 1001.18 207.64 467.81 625.53 1114.85 442.67 1317.32 498.37 1176.99 580.37 1084.99 667.28 1239.44 714.71
00010762 00000101 1000.70 207.22 467.95 625.24 1115.55 447.39 1317.07 502.03 1177.13 579.79 1084.69 668.52 1239.63 715.02
00010763 00000102 999.71 208.95 469.16 624.16 1114.87 443.77 1318.09 499.59 1177.17 579.81 1084.18 667.89 1240.02 715.33
00010764 00000103 1000.71 207.52 468.55 626.05 1114.26 440.53 1318.30 497.03 1176.95 580.95 1083.55 667.44 1239.37 715.58
00010765 00000104 999.35 206.87 470.03 626.02 1113.92 440.31 1317.65 495.55 1177.85 581.17 1084.08 667.33 1239.23 714.47
00010766 00000105 998.74 206.80 471.12 626.83 1113.12 439.40 1318.37 494.64 1177.30 580.42 1083.20 667.44 1239.31 714.53
00010767 00000106 999.57 206.68 469.70 627.32 1113.50 439.57 1318.53 494.09 1177.29 580.30 1083.56 667.38 1239.59 713.97
00010768 00000107 998.89 206.09 470.10 626.46 1112.96 439.33 1318.92 493.20 1178.16 579.66 1083.64 666.74 1240.70 712.68
00010769 00000108 999.28 206.31 470.18 626.58 1112.87 439.40 1319.46 493.48 1178.21 580.30 1083.58 667.65 1240.88 713.82
00010770 00000109 1000.60 207.27 469.60 626.01 1113.44 439.44 1320.06 493.51 1178.38 580.47 1084.26 668.17 1241.25 714.30
00010771 00000110 1000.82 208.00 469.38 625.48 1113.71 439.31 1320.57 494.26 1179.02 581.02 1084.01 668.15 1241.18 715.02
00010772 00000111 999.55 208.81 470.91 622.15 1112.75 438.89 1320.92 494.09 1179.70 580.64 1083.32 667.62 1241.35 714.55
00010773 00000112 1000.61 206.04 471.88 620.02 1113.84 436.65 1322.50 491.40 1182.01 576.76 1083.34 664.19 1242.96 710.63
00010774 00000113 1003.13 201.00 470.94 620.73 1119.47 432.63 1325.92 483.55 1188.56 570.55 1091.23 658.74 1249.30 701.65
00010775 00000114 1006.48 197.82 470.95 631.12 1126.57 433.83 1332.81 478.04 1198.85 568.76 1104.27 663.25 1257.56 701.03
00010776 00000115 1004.51 194.27 473.81 645.07 1127.67 434.60 1333.22 474.66 1200.64 568.08 1108.31 668.56 1257.10 703.27
00010777 00000116 1000.84 192.39 472.77 653.47 1117.52 434.84 1322.53 474.41 1184.77 565.08 1097.95 673.83 1243.08 708.57
00010778 DELETE   986.05 190.94 478.38 665.05 1100.71 435.19 1305.71 472.37 1158.80 561.22 1076.61 679.62 1220.43 712.53
00010779 DELETE   982.64 194.34 463.25 661.72 1082.91 432.27 1284.67 467.19 1141.62 564.34 1062.90 680.57 1197.82 713.75
00010780 DELETE   979.12 194.26 451.55 658.82 1068.01 433.99 1263.10 471.25 1116.96 562.46 1042.13 680.43 1175.36 716.09
00010781 00000120 971.06 194.52 447.39 650.95 1053.22 431.56 1244.54 473.48 1095.05 560.76 1024.45 676.59 1153.67 715.90
00010782 DELETE   966.52 192.97 444.17 649.26 1044.43 434.57 1227.54 475.15 1073.89 559.28 1014.87 674.53 1140.58 712.23
00010783 DELETE   961.76 195.22 441.77 643.29 1039.01 433.05 1221.52 475.26 1063.39 557.95 1008.30 670.01 1134.14 708.46
00010784 DELETE   956.70 196.18 442.27 633.03 1031.75 429.72 1219.24 475.71 1054.29 556.23 998.70 661.56 1132.68 702.45
00010785 00000124 954.38 195.67 444.48 630.23 1028.58 428.40 1216.17 476.26 1048.88 554.05 994.64 656.99 1130.53 699.19
00010786 DELETE   952.07 194.37 446.01 627.82 1026.82 425.26 1215.14 473.18 1047.63 551.61 992.82 652.61 1131.56 694.79
00010787 00000126 947.49 187.95 451.82 641.14 1021.27 422.80 1210.21 467.86 1041.28 548.23 992.08 658.75 1129.92 697.38
00010788 00000127 943.12 183.73 454.16 652.32 1019.63 420.26 1208.05 464.48 1036.00 541.56 988.35 655.98 1128.95 694.01
00010789 DELETE   941.39 180.68 452.34 657.52 1014.62 418.39 1199.61 463.61 1023.94 535.32 982.07 648.44 1129.15 687.12
00010790 00000129 934.39 175.67 451.57 659.98 1007.76 415.34 1190.03 467.45 1013.67 531.55 975.46 637.52 1128.74 681.13
00010791 00000130 928.52 175.20 454.56 657.84 998.86 411.87 1180.36 469.22 997.73 532.16 968.75 630.01 1131.12 676.23
00010792 00000131 923.29 176.69 455.41 655.61 997.24 407.99 1165.60 468.57 988.94 539.72 971.62 624.08 1132.09 673.30
00010793 00000132 921.50 186.25 456.35 649.21 994.36 412.18 1174.52 473.88 990.56 539.38 966.31 623.12 1140.11 671.10
00010794 00000133 923.18 190.36 457.79 646.69 996.43 415.08 1177.41 475.94 995.27 541.69 970.25 625.19 1147.03 672.73
00010795 00000134 928.84 194.15 455.40 643.15 1003.41 418.44 1181.13 479.23 1003.24 547.47 977.28 627.22 1152.00 674.95
00010796 DELETE   932.00 197.31 455.29 643.83 1008.46 424.45 1187.31 481.47 1013.64 552.58 981.39 631.38 1158.82 676.67
00010797 00000136 932.95 199.17 458.97 643.98 1010.36 427.97 1194.15 482.50 1022.10 555.21 984.58 635.62 1164.14 679.25
00010798 00000137 933.37 201.62 461.09 644.72 1013.60 431.26 1199.20 482.98 1030.65 560.29 987.97 638.56 1171.08 680.06
00010799 00000138 936.76 204.18 457.67 642.58 1018.94 435.25 1203.95 485.96 1038.59 566.93 992.25 641.27 1176.69 682.17
00010800 00000139 940.14 207.82 457.83 638.23 1022.93 437.90 1211.42 488.80 1040.39 576.06 992.46 648.91 1179.73 690.24
00010801 00000140 941.67 209.14 458.94 637.81 1026.32 440.91 1213.66 489.84 1046.62 579.39 996.27 653.84 1179.59 693.92
00010802 DELETE   941.11 211.79 460.95 637.12 1027.95 444.17 1215.48 491.84 1052.34 583.44 998.25 659.27 1177.39 698.74
00010803 00000142 944.14 213.59 460.27 637.70 1030.89 446.93 1218.49 494.32 1058.44 587.27 1001.93 664.28 1175.64 704.02
00010804 DELETE   947.11 209.67 459.44 641.36 1034.64 448.26 1221.25 498.39 1064.13 590.59 1003.94 666.72 1170.49 709.25
00010805 00000144 947.49 208.13 462.80 641.65 1035.89 452.39 1223.90 499.82 1069.81 590.70 1005.84 669.92 1169.67 710.59
00010806 00000145 952.19 207.09 460.95 643.61 1038.90 452.12 1225.95 496.67 1075.70 590.16 1011.26 674.20 1167.91 713.17
00010807 00000146 954.20 205.24 460.49 642.92 1041.57 450.87 1230.80 493.87 1082.09 588.66 1015.97 675.75 1169.83 713.56
00010808 00000147 957.12 203.85 460.07 640.87 1043.01 448.44 1236.90 488.70 1089.56 589.19 1020.37 677.44 1174.20 713.16
00010809 00000148 958.69 203.26 460.49 641.72 1045.74 446.97 1242.34 484.60 1096.21 587.34 1025.24 677.01 1180.33 710.67
00010810 00000149 961.51 204.22 459.88 642.22 1047.64 448.57 1247.56 481.16 1103.91 584.53 1029.59 680.33 1187.39 709.89
00010811 00000150 963.64 205.46 459.85 641.92 1049.11 449.72 1251.24 479.10 1108.03 584.97 1033.85 682.88 1194.81 709.77
00010812 00000151 963.04 207.50 462.34 643.57 1051.56 449.16 1254.55 478.70 1112.77 587.43 1037.35 683.01 1199.97 710.02
00010813 00000152 962.69 206.76 464.26 647.13 1054.58 448.98 1257.69 480.13 1116.12 589.73 1039.25 682.56 1204.56 710.83
00010814 00000153 963.32 207.58 464.30 649.31 1055.72 449.29 1258.99 480.98 1116.98 590.78 1040.19 683.14 1206.68 711.84
00010815 00000154 964.02 210.65 463.26 648.22 1054.07 449.66 1257.47 481.83 1114.07 593.92 1038.87 685.36 1206.02 714.59
00010816 00000155 963.41 212.18 462.00 646.57 1050.58 450.05 1252.87 482.22 1106.65 592.31 1033.60 684.33 1201.46 713.43
CROP_BBOX: 613 0 1725 1080
