Video ID: 	xdpw4511Fko
H: 	1080
W: 	1920
FPS: 	25.0

FRAME INDEX X0 Y0 W H [Landmarks (5 Points)]

00009876 00000000 649.36 192.91 462.11 704.31 778.37 473.28 991.24 462.75 904.96 609.44 819.18 737.20 983.03 729.01
00009877 00000001 646.33 183.94 466.44 709.87 779.63 466.67 994.42 454.62 908.42 602.74 822.48 729.75 987.92 719.79
00009878 00000002 647.85 183.94 463.12 705.36 776.56 466.24 988.02 450.20 903.02 591.96 823.22 723.17 985.10 711.16
00009879 00000003 644.58 179.94 461.80 706.95 771.03 460.63 982.22 441.20 895.56 583.71 822.01 720.35 982.39 705.60
00009880 00000004 640.68 167.24 459.37 713.62 768.31 450.27 977.95 431.15 893.59 568.36 821.48 712.11 978.23 697.47
00009881 DELETE   633.47 150.37 458.48 701.88 762.58 437.34 970.31 419.18 888.83 552.53 817.37 694.71 969.38 680.79
00009882 00000006 625.27 139.12 459.46 696.86 759.52 428.84 964.24 406.28 887.30 538.03 814.99 682.23 968.42 664.32
00009883 00000007 615.95 143.97 463.03 686.35 751.96 427.63 955.29 400.84 886.41 531.32 825.34 684.58 969.18 661.47
00009884 00000008 611.10 140.77 466.30 689.05 749.79 419.23 950.09 394.14 885.90 519.78 825.40 676.46 966.31 655.32
00009885 00000009 608.22 139.97 469.35 690.82 750.14 415.24 949.16 390.37 887.69 515.87 826.50 672.49 966.70 651.43
00009886 00000010 606.81 138.05 470.17 690.39 747.04 413.16 952.75 387.14 889.12 516.56 821.11 672.15 970.37 649.80
00009887 00000011 608.23 138.43 471.10 693.01 745.95 411.81 955.77 385.89 888.75 520.40 815.72 671.52 973.93 648.89
00009888 00000012 612.95 135.18 470.94 693.79 748.04 411.48 961.06 385.92 890.33 517.30 814.91 671.56 977.23 649.03
00009889 00000013 614.90 134.77 468.85 704.84 758.97 410.85 955.97 386.30 887.45 507.52 817.58 665.10 967.46 645.64
00009890 00000014 619.70 133.86 466.03 709.44 760.34 412.94 959.86 389.28 890.12 512.96 816.88 669.16 970.78 650.62
00009891 00000015 620.61 134.26 463.80 698.12 758.32 415.06 964.16 390.16 891.06 518.35 816.23 670.17 973.25 650.58
00009892 00000016 623.01 132.44 460.60 695.83 761.63 417.95 969.77 391.14 897.13 525.02 823.41 674.85 980.65 653.30
00009893 00000017 625.91 139.51 462.73 692.18 766.68 426.48 974.70 400.16 899.74 533.58 826.79 679.78 981.22 658.28
00009894 00000018 631.66 151.89 460.32 698.72 773.86 430.50 973.02 408.12 902.27 536.74 833.63 687.60 974.21 670.00
00009895 00000019 628.36 156.71 461.61 715.90 771.89 431.60 973.32 409.80 905.38 540.16 833.61 703.70 970.26 684.68
00009896 00000020 634.16 155.92 460.86 710.77 775.41 435.67 978.33 416.58 905.71 540.65 830.54 697.55 975.18 682.85
00009897 00000021 634.64 156.82 460.91 712.75 775.47 436.49 979.76 417.92 906.28 544.00 828.42 697.85 977.26 683.50
00009898 00000022 627.71 157.40 464.20 718.01 772.99 432.79 979.94 416.12 907.97 549.83 826.40 701.02 976.78 685.79
00009899 00000023 627.31 159.02 465.95 724.77 773.58 432.78 979.24 415.46 908.75 550.08 824.58 700.59 981.22 684.66
00009900 00000024 627.51 160.07 464.93 728.40 772.48 433.05 979.41 416.11 908.56 552.02 821.00 703.52 982.13 688.19
00009901 00000025 629.47 161.23 466.23 726.32 772.83 432.83 983.43 415.46 908.96 553.76 821.76 704.83 986.41 688.90
00009902 00000026 629.87 160.33 465.03 715.99 771.40 432.53 982.86 415.85 906.06 553.39 820.51 701.58 985.02 685.97
00009903 00000027 633.96 157.35 462.41 707.90 769.47 437.79 979.23 418.74 904.03 549.16 820.95 695.27 985.13 680.27
00009904 00000028 633.37 158.66 464.20 699.30 767.41 438.49 978.74 417.77 901.96 549.33 821.00 693.47 986.17 677.11
00009905 00000029 633.07 154.33 463.81 696.59 767.12 436.21 976.39 414.59 900.72 546.85 819.56 688.44 985.36 671.33
00009906 00000030 634.41 157.73 460.58 690.49 767.70 438.34 976.05 417.65 900.40 547.72 819.50 688.79 984.52 672.51
00009907 00000031 636.08 166.15 454.56 679.94 771.40 446.93 978.67 427.79 906.56 554.09 820.51 689.38 986.15 674.36
00009908 00000032 637.58 158.50 460.01 688.34 774.64 444.29 983.41 423.33 909.66 554.79 826.51 688.57 992.19 671.99
00009909 00000033 642.32 164.57 461.18 684.96 782.66 440.59 991.23 420.35 919.69 553.28 837.31 690.96 999.06 674.90
00009910 00000034 650.05 157.14 460.75 697.16 791.09 436.69 1002.55 419.28 931.02 552.82 844.77 693.15 1009.54 678.68
00009911 00000035 658.78 145.80 461.70 705.20 807.11 435.82 1018.75 424.65 946.50 551.78 850.96 691.33 1016.87 681.96
00009912 00000036 672.10 146.16 458.97 697.68 820.26 433.77 1029.32 425.23 956.00 551.93 859.89 687.64 1023.87 680.50
00009913 00000037 682.16 145.90 455.36 699.01 834.00 429.40 1037.69 420.40 969.25 551.05 875.39 688.45 1032.34 680.63
00009914 00000038 688.65 144.42 453.27 703.79 842.38 426.12 1045.19 417.49 976.58 546.46 884.78 690.06 1037.41 682.60
00009915 00000039 691.30 145.45 452.08 704.92 849.67 420.20 1060.59 410.07 991.09 538.90 893.82 690.69 1043.41 680.76
00009916 00000040 697.50 140.84 449.20 711.01 860.73 413.45 1069.30 405.04 1001.69 536.20 903.44 688.85 1049.73 680.75
00009917 00000041 707.60 136.03 446.53 708.37 875.23 408.81 1066.94 410.10 1006.12 530.92 908.72 671.74 1045.81 673.51
00009918 00000042 707.97 130.15 448.45 714.35 882.68 406.54 1073.01 409.43 1015.24 528.12 913.47 670.71 1052.42 673.51
00009919 00000043 709.68 125.24 450.76 713.42 888.97 403.93 1077.18 409.91 1023.81 527.64 919.75 668.13 1057.00 673.04
00009920 00000044 711.56 128.23 450.73 706.04 892.41 402.99 1079.39 407.84 1027.55 527.93 926.62 666.66 1062.65 670.40
00009921 00000045 712.06 121.44 451.56 713.97 896.12 398.78 1082.98 405.31 1032.04 526.34 930.11 665.73 1066.50 670.73
00009922 00000046 711.92 121.24 451.98 718.69 900.22 395.28 1084.74 401.70 1036.80 523.88 934.96 665.32 1070.07 670.13
00009923 00000047 712.05 122.84 455.10 733.40 902.51 393.77 1089.46 400.49 1041.23 520.34 937.49 670.39 1074.83 675.22
00009924 00000048 713.03 122.64 457.19 735.12 905.88 393.01 1092.75 400.36 1044.66 518.23 939.72 670.79 1076.08 676.08
00009925 00000049 713.95 120.57 455.77 731.47 906.35 393.53 1093.13 401.41 1044.87 516.52 939.60 667.54 1076.38 673.24
00009926 00000050 713.22 120.92 456.15 728.22 903.84 392.23 1092.96 398.91 1043.63 514.26 939.27 666.22 1077.33 670.72
00009927 00000051 714.94 124.40 458.72 725.10 906.25 390.44 1093.74 397.04 1045.05 512.34 941.50 665.47 1078.34 670.03
00009928 00000052 713.44 122.27 460.55 724.36 903.13 388.91 1092.54 394.62 1043.52 511.27 939.72 663.50 1078.42 667.32
00009929 00000053 711.24 121.56 460.46 721.57 900.64 387.92 1090.96 393.58 1040.94 511.31 935.99 660.92 1076.67 664.64
00009930 00000054 711.53 121.32 462.25 720.88 901.37 386.85 1091.41 391.39 1041.47 507.34 937.31 659.99 1078.35 662.58
00009931 00000055 707.30 120.18 463.27 719.07 899.82 385.17 1089.45 390.21 1038.29 505.32 934.72 656.26 1075.58 659.08
00009932 00000056 706.42 119.46 461.45 716.66 895.38 384.68 1087.96 386.84 1036.17 501.54 933.40 654.20 1076.73 654.66
00009933 00000057 703.51 119.38 457.11 717.03 888.57 382.94 1083.46 383.12 1031.68 501.67 928.60 655.11 1072.61 654.07
00009934 00000058 703.56 116.13 451.17 715.88 882.51 392.25 1073.07 390.90 1023.77 498.75 923.24 652.47 1065.83 650.76
00009935 00000059 700.65 119.13 449.18 706.62 875.84 390.78 1061.28 386.75 1014.02 490.55 918.04 646.76 1057.74 643.20
00009936 00000060 697.05 106.18 442.23 709.83 863.29 384.16 1052.03 372.72 1005.42 476.33 915.23 642.18 1052.21 632.07
00009937 00000061 681.68 111.17 455.11 687.67 836.48 381.88 1043.54 358.55 989.62 476.43 908.55 640.04 1058.26 618.88
00009938 00000062 663.20 113.11 460.98 679.40 816.24 384.27 1019.57 361.48 964.50 473.27 886.65 633.72 1038.92 612.93
00009939 DELETE   647.89 117.83 454.81 674.05 791.35 385.62 995.29 360.63 937.17 478.77 859.55 635.34 1015.00 613.29
00009940 DELETE   629.54 118.82 460.27 679.93 766.39 395.93 972.01 361.90 906.35 490.59 836.01 642.88 997.22 614.26
00009941 DELETE   609.07 124.11 474.07 679.51 744.98 403.68 952.40 364.50 889.14 488.44 825.98 651.59 985.65 617.99
00009942 00000066 596.39 131.70 471.73 671.95 729.33 402.32 939.51 359.60 873.03 488.22 810.84 652.71 971.97 617.06
00009943 00000067 588.68 127.58 467.83 671.03 719.14 401.24 926.11 358.06 862.45 485.35 799.98 649.54 961.01 613.43
00009944 00000068 585.76 127.03 466.51 669.80 715.21 401.35 920.49 354.20 858.33 482.72 798.29 648.97 958.65 609.60
00009945 00000069 577.30 124.84 467.44 676.36 707.08 403.57 913.28 357.51 849.07 491.45 788.08 650.26 950.01 612.35
00009946 00000070 576.49 124.86 467.41 678.74 706.17 404.26 910.84 358.93 847.09 496.31 784.93 648.57 949.00 611.53
00009947 00000071 579.34 119.38 469.79 684.27 716.62 402.27 919.30 356.14 862.86 494.48 798.60 647.70 958.05 609.59
00009948 00000072 585.95 116.67 475.02 687.67 728.61 401.36 930.38 354.60 877.28 485.33 814.92 647.46 970.21 607.97
00009949 00000073 591.09 120.07 473.00 684.04 734.04 403.79 933.43 356.82 881.71 481.75 822.33 650.80 973.25 611.48
00009950 00000074 598.80 123.26 468.85 686.67 740.45 405.80 938.65 364.07 884.54 487.79 826.82 657.14 972.28 622.23
00009951 00000075 606.62 127.49 466.51 688.29 744.09 414.87 942.44 378.10 881.41 496.83 823.80 662.95 969.16 632.14
00009952 DELETE   616.19 132.84 468.00 710.60 752.23 420.99 943.80 398.17 866.27 510.67 805.36 669.90 948.57 652.04
00009953 DELETE   616.61 146.12 468.06 706.92 725.66 422.23 926.46 406.15 824.97 532.67 772.23 683.29 913.86 671.88
00009954 DELETE   615.94 146.94 465.91 692.16 700.85 425.45 903.49 413.90 782.02 542.61 737.67 682.44 883.72 674.37
00009955 00000079 612.16 153.38 459.60 683.27 684.18 427.57 883.26 421.46 750.93 554.08 714.58 681.83 857.98 678.41
00009956 00000080 605.00 168.93 463.01 675.94 669.93 430.32 874.60 428.35 734.95 566.26 705.59 693.21 846.24 693.06
00009957 00000081 603.59 165.90 465.17 679.35 668.88 431.19 873.78 429.82 732.88 568.08 703.66 695.52 842.88 695.88
00009958 00000082 609.23 164.49 461.67 680.64 671.86 430.94 874.51 429.77 733.07 566.60 705.28 693.81 843.37 694.41
00009959 00000083 608.83 173.93 461.60 670.32 672.33 434.73 874.98 434.15 733.95 569.38 708.33 695.76 844.07 696.67
00009960 00000084 614.14 174.80 462.15 676.51 679.05 434.16 881.79 432.78 743.63 571.44 718.37 698.76 854.57 698.89
00009961 00000085 615.75 172.93 466.13 690.98 682.97 434.26 883.89 432.21 745.90 570.29 721.82 702.53 857.74 702.29
00009962 00000086 607.48 175.43 465.84 694.14 679.33 434.84 885.49 428.56 750.64 564.79 716.64 700.44 862.84 696.27
00009963 00000087 606.92 176.31 467.34 686.81 681.34 431.53 888.25 426.91 754.19 561.10 717.59 693.66 862.74 690.99
00009964 00000088 606.61 165.22 466.09 693.73 680.46 428.28 885.33 422.12 752.24 553.95 715.70 691.80 857.70 688.25
00009965 00000089 603.81 168.91 461.90 689.06 675.10 425.45 880.64 420.47 747.88 550.89 706.79 690.23 846.46 688.50
00009966 00000090 602.33 170.27 462.32 685.07 675.12 424.62 880.33 420.34 746.97 549.00 704.98 687.04 845.57 685.88
00009967 00000091 601.51 168.83 461.60 679.53 674.86 424.05 877.79 420.41 744.79 547.63 704.35 680.51 841.80 679.84
00009968 00000092 601.08 167.98 463.27 681.77 675.09 425.81 878.44 420.92 744.57 548.17 705.52 680.60 846.42 678.60
00009969 00000093 604.09 159.52 461.97 686.82 678.75 423.93 876.51 418.98 742.67 553.24 710.89 680.05 846.12 677.75
00009970 00000094 600.66 171.59 467.35 692.43 684.22 427.89 887.02 424.90 756.79 554.80 718.99 686.13 852.43 685.42
00009971 00000095 605.04 171.25 465.45 717.92 686.27 428.88 888.14 425.23 757.42 562.22 720.50 699.83 859.03 698.31
00009972 00000096 608.98 173.44 463.80 736.96 688.03 430.63 888.32 427.94 757.32 567.36 719.77 711.29 870.10 710.16
00009973 00000097 610.02 172.31 460.67 729.78 685.76 427.88 886.41 426.22 753.55 563.84 716.00 706.56 864.46 706.46
00009974 00000098 608.92 172.72 461.36 710.44 683.25 427.79 885.05 425.06 749.82 557.89 710.61 694.83 859.10 694.14
00009975 00000099 608.64 166.80 462.93 696.59 683.36 423.99 886.55 422.20 748.45 548.07 708.64 682.01 854.99 682.44
00009976 00000100 607.36 153.29 464.30 695.65 677.23 419.48 875.05 409.95 739.85 542.36 704.75 678.89 845.43 673.09
00009977 00000101 606.07 154.78 464.23 694.27 676.94 421.60 874.96 412.53 740.47 545.50 705.45 681.65 842.06 676.35
00009978 00000102 600.16 167.96 468.07 683.58 677.75 423.21 881.35 418.35 750.53 547.53 709.63 683.93 843.47 682.22
00009979 00000103 599.42 171.09 466.92 677.18 677.78 425.49 882.89 421.60 753.07 552.12 710.55 682.87 847.05 681.80
00009980 00000104 599.95 175.00 466.25 672.31 677.45 428.57 882.95 424.56 753.64 554.88 711.82 685.39 848.00 684.19
00009981 00000105 603.37 164.75 465.93 681.11 673.25 426.08 876.80 418.97 743.20 558.37 710.27 689.54 848.11 685.31
00009982 00000106 603.12 164.24 466.63 681.90 671.89 424.59 880.84 418.09 744.93 559.42 707.91 688.54 854.73 684.67
00009983 00000107 603.84 165.86 463.80 683.73 672.00 426.51 880.11 418.92 745.42 560.10 707.88 689.36 856.90 684.51
00009984 00000108 602.00 164.89 466.65 702.05 677.09 425.44 886.14 420.47 750.68 554.70 708.43 690.51 862.18 687.87
00009985 00000109 604.37 168.17 464.29 717.01 683.18 421.06 888.18 418.08 754.21 553.25 714.12 694.70 860.88 693.71
00009986 00000110 604.11 167.25 464.11 720.59 685.71 422.93 889.25 418.92 758.20 554.44 717.43 695.25 865.24 693.28
00009987 00000111 604.69 172.77 464.24 717.38 688.91 422.77 892.29 419.11 762.89 557.02 722.42 696.53 870.47 694.53
CROP_BBOX: 221 0 1486 1080
