Video ID: 	closoklP6V0
H: 	1080
W: 	1920
FPS: 	23.976023976023978

FRAME INDEX X0 Y0 W H [Landmarks (5 Points)]

00028015 00000000 979.04 103.45 332.04 522.10 1028.71 295.59 1110.03 300.33 991.39 384.76 1023.20 489.96 1097.51 496.08
00028016 00000001 977.20 103.75 326.23 520.04 1025.76 295.71 1102.82 302.66 984.28 384.78 1019.27 489.65 1090.35 497.32
00028017 00000002 973.83 105.27 329.02 517.11 1021.84 296.08 1100.70 302.37 980.43 382.00 1013.46 489.44 1085.69 496.30
00028018 00000003 969.99 106.03 328.26 515.08 1017.71 296.82 1099.60 305.38 979.37 382.64 1010.81 487.39 1084.77 495.96
00028019 00000004 964.97 107.94 327.85 510.85 1011.53 300.18 1096.64 309.47 975.02 384.76 1005.51 486.73 1081.96 495.24
00028020 00000005 955.62 109.55 334.57 511.70 1005.51 309.15 1094.87 309.81 963.68 376.41 995.94 487.78 1076.31 488.39
00028021 00000006 950.02 107.06 334.10 513.84 1000.41 309.07 1091.14 311.69 960.66 378.71 990.53 487.01 1069.68 489.26
00028022 00000007 944.98 107.75 333.19 512.69 992.29 309.87 1086.14 313.80 956.11 382.75 983.01 487.52 1063.84 491.10
00028023 00000008 938.48 102.99 337.81 521.86 981.07 308.07 1083.87 317.55 953.66 390.36 971.96 494.34 1062.64 504.85
00028024 00000009 934.50 103.10 338.91 522.07 975.53 309.36 1080.19 317.47 948.87 390.89 968.55 494.54 1060.95 504.01
00028025 00000010 932.08 101.44 337.44 523.10 970.94 309.46 1078.02 315.53 946.96 388.20 966.26 493.49 1059.48 501.32
00028026 00000011 930.41 99.72 338.60 523.75 967.20 309.63 1075.27 313.11 945.25 386.60 965.52 492.89 1057.97 498.71
00028027 00000012 930.43 101.85 339.02 522.35 966.30 309.83 1073.14 313.32 943.46 387.52 965.26 493.44 1057.74 499.14
00028028 00000013 929.64 100.41 340.15 527.75 968.22 311.62 1072.79 315.51 943.74 390.44 967.49 496.16 1059.09 501.90
00028029 00000014 932.74 97.37 337.97 532.62 973.35 310.84 1077.58 317.81 948.01 395.05 972.26 497.58 1063.18 505.65
00028030 DELETE   951.38 104.84 332.69 518.36 986.15 317.47 1102.40 317.66 970.04 396.46 987.00 496.93 1085.97 497.56
00028031 DELETE   958.91 93.07 350.15 531.18 988.87 318.19 1136.33 311.96 1001.93 403.73 995.62 506.44 1121.82 501.86
00028032 00000017 970.38 93.71 350.45 534.08 994.60 318.15 1141.87 305.54 1013.97 393.53 1008.11 508.46 1125.13 501.66
00028033 DELETE   972.22 85.94 342.91 537.53 990.26 308.23 1136.36 301.60 1001.44 386.66 997.34 506.27 1110.54 504.09
00028034 DELETE   959.94 89.48 343.87 536.42 990.63 308.45 1118.13 298.84 985.97 385.54 994.50 501.85 1095.81 495.31
00028035 DELETE   953.12 89.69 334.59 535.20 991.61 303.62 1094.42 307.87 962.37 383.70 985.75 496.71 1070.78 501.75
00028036 00000021 935.63 90.92 339.89 526.33 977.30 296.10 1083.29 308.42 950.96 380.78 969.26 487.18 1056.89 499.61
00028037 00000022 928.94 93.51 339.53 521.26 965.08 295.91 1073.74 302.47 941.22 378.73 959.99 488.99 1047.79 497.39
00028038 00000023 928.09 92.12 337.23 518.93 961.92 296.44 1069.68 300.37 937.90 376.63 956.71 488.73 1043.72 495.11
00028039 00000024 927.70 91.66 337.86 521.59 964.93 294.22 1069.85 297.21 939.84 373.25 961.12 485.89 1047.28 491.63
00028040 00000025 931.66 93.23 338.07 520.30 973.80 291.44 1072.21 295.88 943.68 371.06 969.66 482.93 1051.13 489.25
00028041 00000026 932.83 90.40 339.05 523.62 975.76 290.54 1075.84 295.11 947.07 370.07 972.88 481.12 1056.67 487.37
00028042 00000027 928.90 88.11 333.97 522.79 971.31 285.09 1075.82 297.23 948.72 368.20 971.28 474.34 1049.31 482.67
00028043 00000028 927.63 84.59 334.10 522.29 970.42 281.95 1074.45 294.20 946.66 365.81 968.61 470.52 1046.53 479.21
00028044 00000029 926.18 68.72 338.43 532.87 970.28 284.97 1071.71 286.68 946.03 358.44 967.78 469.24 1053.37 468.49
00028045 00000030 925.38 69.83 332.97 526.31 963.32 288.57 1064.42 286.43 936.01 361.12 959.93 471.80 1048.31 471.83
00028046 00000031 921.28 69.16 334.01 522.74 953.75 285.10 1061.07 283.86 929.49 357.33 951.23 468.74 1044.13 470.13
00028047 00000032 918.04 68.62 334.80 526.08 947.50 283.90 1055.59 281.60 921.70 357.42 948.91 470.38 1043.10 470.19
00028048 00000033 916.71 70.97 334.64 535.92 950.34 282.00 1053.41 276.97 919.07 355.59 953.74 474.11 1047.38 470.11
00028049 00000034 913.63 76.72 336.61 528.70 963.87 275.00 1051.78 270.11 928.49 354.30 960.51 465.35 1038.83 461.08
00028050 00000035 915.19 71.65 335.29 530.22 946.44 280.98 1053.09 275.39 916.15 352.29 945.49 472.12 1040.44 468.19
00028051 00000036 913.23 68.04 337.58 529.48 942.30 281.54 1054.33 277.49 915.31 352.70 936.58 472.36 1032.43 470.79
00028052 00000037 908.97 73.04 333.96 517.86 956.18 270.70 1048.57 284.74 919.22 352.74 940.48 458.14 1008.77 468.50
00028053 00000038 905.88 72.56 337.13 515.53 955.59 270.53 1046.88 283.66 916.10 352.49 935.50 459.71 1002.75 469.68
00028054 00000039 902.66 70.06 340.09 518.42 955.45 270.54 1045.80 283.74 912.93 352.17 931.00 461.24 996.44 471.47
00028055 00000040 905.16 61.17 343.19 535.26 946.86 274.77 1041.69 278.11 909.58 356.88 928.85 470.16 1000.86 472.25
00028056 00000041 901.61 62.47 345.99 536.79 945.02 273.82 1039.86 278.96 906.27 358.36 926.04 471.43 996.53 475.11
00028057 00000042 900.71 62.20 345.33 539.88 945.55 274.98 1037.86 279.82 905.72 358.92 926.71 474.14 993.96 477.50
00028058 00000043 901.15 63.24 342.09 541.39 946.60 275.87 1035.95 280.89 906.46 358.65 928.40 475.00 991.55 478.49
00028059 00000044 894.52 70.83 341.37 526.75 955.64 272.13 1036.38 285.45 906.12 354.94 930.77 465.84 986.30 475.92
00028060 00000045 894.00 73.55 338.56 522.54 951.65 274.93 1033.32 285.68 903.49 357.56 931.18 467.72 988.18 475.64
00028061 00000046 895.68 65.30 335.75 531.92 936.61 277.40 1031.76 282.84 898.31 361.19 922.84 471.29 994.78 475.28
00028062 00000047 894.14 66.35 335.51 527.60 933.29 278.19 1029.67 282.96 896.45 362.30 918.68 471.62 991.10 475.25
00028063 00000048 893.36 67.55 335.70 531.51 932.99 278.95 1030.74 283.09 896.60 362.48 918.07 475.49 990.87 478.57
00028064 00000049 891.78 65.69 340.62 543.98 933.86 278.97 1031.70 282.07 897.31 362.77 918.03 481.98 987.80 484.35
00028065 00000050 890.74 63.86 342.87 549.45 936.17 279.77 1031.88 281.18 897.60 359.77 919.27 483.34 986.04 484.19
00028066 00000051 891.29 59.48 341.17 548.46 939.17 277.27 1032.88 280.82 899.16 357.34 922.67 478.47 988.77 481.13
00028067 00000052 893.48 60.01 343.68 541.76 942.79 275.10 1030.83 279.83 898.80 356.83 924.76 473.68 987.41 477.07
00028068 00000053 897.25 60.48 344.52 538.65 950.26 272.34 1029.91 278.63 900.34 354.11 928.46 470.34 983.98 474.82
00028069 00000054 900.82 64.25 342.73 533.76 952.95 273.43 1032.65 278.23 904.43 354.73 931.20 469.63 988.00 472.91
00028070 00000055 897.62 71.17 339.83 524.96 959.13 271.62 1041.29 284.61 910.21 350.82 931.62 464.60 987.66 474.41
00028071 00000056 898.51 75.03 341.30 523.66 957.74 271.83 1043.37 285.22 912.36 353.87 933.14 466.00 991.37 476.00
00028072 00000057 900.36 75.53 338.74 525.16 957.87 273.09 1043.62 287.45 914.39 356.41 936.10 467.14 994.19 477.78
00028073 00000058 903.47 77.80 337.50 523.90 957.31 273.98 1045.42 288.38 917.42 358.85 938.26 469.83 996.10 480.37
00028074 00000059 907.61 77.37 336.56 528.36 958.64 275.82 1047.84 292.04 920.86 359.31 940.37 469.85 1000.35 481.67
00028075 00000060 910.45 76.01 339.18 529.95 958.12 276.92 1052.21 294.17 924.62 360.05 942.60 470.59 1006.32 483.37
00028076 00000061 916.18 69.98 338.80 540.86 951.69 285.87 1063.01 287.22 924.74 363.35 939.69 484.25 1030.09 487.77
00028077 00000062 918.45 74.94 337.73 535.57 955.30 288.73 1066.27 290.17 930.85 365.89 943.87 484.69 1032.93 488.45
00028078 00000063 919.62 76.44 338.33 537.53 958.19 292.82 1067.17 294.08 932.53 368.64 946.90 485.87 1035.78 489.23
00028079 00000064 923.41 81.14 340.60 536.62 955.22 290.83 1066.72 297.47 931.59 375.50 945.89 489.68 1032.29 498.38
00028080 00000065 923.52 80.90 339.28 538.00 955.21 292.52 1067.94 299.68 933.42 378.14 948.42 490.47 1036.72 499.80
00028081 00000066 923.23 80.45 341.59 538.72 955.73 293.45 1068.97 300.90 935.23 380.27 950.30 491.27 1038.77 500.68
00028082 00000067 925.73 80.30 342.12 537.86 959.28 294.98 1071.84 301.89 937.63 380.81 954.12 491.23 1042.19 500.06
00028083 00000068 926.08 82.07 343.01 537.82 959.76 295.77 1074.33 302.97 939.16 380.87 954.93 491.70 1045.41 500.96
00028084 00000069 927.21 85.84 344.98 536.28 963.74 295.51 1076.21 303.98 941.51 381.70 956.75 492.72 1045.93 502.81
00028085 00000070 928.66 86.07 344.89 538.50 964.51 296.80 1076.62 306.26 942.32 384.30 958.09 494.96 1046.68 505.85
00028086 00000071 931.56 85.37 343.44 540.88 969.94 299.60 1077.91 309.10 944.64 387.18 961.90 497.69 1047.39 508.40
00028087 00000072 933.80 87.11 342.56 540.73 974.53 299.57 1079.71 311.01 948.14 389.44 965.53 498.66 1050.17 510.73
00028088 00000073 934.38 86.46 341.90 543.45 978.91 300.68 1081.65 313.05 949.25 390.02 968.07 498.93 1051.13 511.57
00028089 00000074 936.83 91.65 344.34 538.23 983.88 300.61 1083.80 313.69 952.24 390.18 969.61 498.57 1052.13 511.69
00028090 00000075 938.92 92.43 342.10 536.68 984.77 300.41 1084.74 313.65 953.45 390.26 971.96 497.87 1054.84 511.03
00028091 00000076 939.63 90.33 341.42 539.15 987.45 299.10 1084.17 313.09 953.60 388.74 974.70 496.32 1054.75 509.89
00028092 00000077 940.57 90.98 338.98 534.93 986.56 296.05 1083.88 310.74 953.51 385.81 973.24 493.66 1053.56 507.94
00028093 00000078 941.74 94.46 337.85 528.57 987.02 293.47 1083.19 308.82 952.47 385.16 973.85 491.59 1053.59 506.31
00028094 00000079 942.08 88.13 339.23 536.03 989.98 293.64 1084.71 309.35 954.15 385.80 978.70 491.44 1056.21 506.28
00028095 00000080 944.08 85.09 339.26 539.16 992.01 293.21 1084.26 307.62 955.09 383.21 981.41 490.56 1056.67 504.07
00028096 00000081 949.82 88.28 338.11 528.87 994.95 292.20 1089.14 302.93 963.80 383.83 990.72 486.45 1062.20 495.40
00028097 00000082 947.62 76.75 341.91 536.41 994.62 290.34 1083.87 298.50 961.67 380.10 986.30 483.20 1055.29 489.04
00028098 00000083 948.36 71.38 341.86 538.48 996.21 286.90 1086.21 295.56 963.78 376.74 988.13 480.82 1057.04 487.18
00028099 00000084 953.01 72.05 332.66 540.55 993.12 284.24 1090.03 301.32 961.58 376.11 984.10 481.49 1055.72 494.45
00028100 DELETE   954.19 63.76 338.38 537.20 1003.84 280.94 1091.31 290.60 968.07 372.29 995.01 473.99 1062.40 481.41
00028101 00000086 959.70 63.13 336.26 535.12 1009.93 278.86 1091.70 287.03 972.23 372.52 1002.45 474.09 1064.24 480.28
00028102 00000087 963.51 63.81 334.88 533.22 1014.97 276.63 1093.34 284.64 974.98 371.48 1005.78 473.24 1064.43 479.41
00028103 00000088 965.49 63.86 334.88 531.90 1018.17 277.07 1096.14 283.70 977.96 370.23 1009.94 473.70 1067.24 479.01
00028104 00000089 967.81 65.12 335.79 530.08 1019.83 277.34 1096.93 283.97 979.93 370.47 1011.69 473.76 1068.77 479.15
00028105 00000090 971.17 67.34 333.71 527.07 1022.60 276.89 1097.39 283.59 982.52 369.66 1013.94 472.10 1069.30 477.61
00028106 00000091 976.70 74.00 330.67 522.88 1025.74 272.57 1106.48 288.97 983.13 368.77 1016.63 468.89 1068.78 480.32
00028107 00000092 978.83 75.38 330.83 520.73 1027.40 271.76 1108.08 289.08 987.05 367.40 1019.93 467.27 1071.57 479.27
00028108 00000093 978.96 76.30 332.20 518.70 1027.92 271.28 1109.23 289.14 987.48 365.76 1019.79 465.90 1072.73 478.32
00028109 00000094 978.92 75.05 331.26 518.26 1028.73 270.61 1109.07 287.61 987.84 365.03 1019.94 465.22 1071.84 477.12
00028110 00000095 978.87 73.77 331.62 519.50 1026.33 271.64 1106.78 285.95 986.16 366.04 1018.78 467.81 1069.94 477.64
00028111 00000096 973.59 66.34 335.90 524.18 1024.83 273.58 1099.60 278.62 984.01 365.17 1015.12 469.89 1070.81 474.21
00028112 00000097 970.48 66.64 332.91 522.07 1021.64 274.70 1097.71 279.10 982.25 365.87 1013.76 469.32 1070.92 472.97
00028113 00000098 968.98 62.98 333.22 526.42 1020.70 273.76 1097.41 279.03 981.45 366.09 1012.74 469.75 1070.16 474.09
00028114 00000099 966.78 62.55 334.35 527.13 1018.10 273.96 1097.12 278.90 980.13 365.61 1009.65 470.24 1068.74 474.23
00028115 00000100 965.40 61.79 334.12 527.36 1015.95 273.64 1096.60 278.64 979.48 365.44 1008.49 469.63 1069.21 473.62
00028116 00000101 964.99 62.74 334.77 527.91 1015.67 274.00 1096.22 278.77 978.66 365.72 1007.47 470.27 1068.60 474.09
00028117 00000102 964.92 62.64 334.99 528.67 1015.60 274.45 1096.71 279.42 978.83 366.28 1007.41 470.45 1068.82 474.45
00028118 00000103 964.30 62.67 334.98 528.79 1014.57 274.66 1096.71 279.57 978.97 366.84 1007.00 470.83 1068.94 474.79
00028119 00000104 964.52 61.40 335.97 531.25 1015.09 274.63 1096.98 279.97 979.65 366.93 1007.60 471.43 1069.25 475.77
00028120 00000105 964.94 61.25 335.71 532.05 1015.86 275.18 1097.75 280.88 979.90 367.44 1008.21 471.71 1069.61 476.38
00028121 00000106 966.42 62.23 334.30 531.37 1017.93 275.64 1097.98 281.25 980.42 368.11 1009.34 472.21 1069.27 476.87
00028122 00000107 965.75 61.38 335.23 532.09 1016.83 275.67 1097.40 281.27 979.83 368.47 1008.81 472.48 1069.06 477.06
00028123 00000108 965.96 62.44 336.00 533.03 1016.63 276.32 1097.01 281.55 979.32 369.07 1008.87 473.35 1069.02 477.60
00028124 00000109 964.79 62.24 336.03 532.58 1014.14 275.99 1096.92 281.52 979.18 369.30 1007.12 473.31 1068.72 477.67
00028125 00000110 963.17 62.23 336.30 532.39 1012.10 275.78 1096.55 281.24 978.32 369.82 1005.00 473.56 1067.83 477.91
00028126 00000111 961.55 60.84 336.81 532.97 1010.41 276.36 1096.97 281.69 977.52 369.55 1003.11 473.32 1067.72 477.57
00028127 00000112 961.35 59.98 335.14 533.68 1008.53 277.00 1096.86 281.96 976.48 369.37 1000.53 474.18 1066.47 478.28
00028128 00000113 959.97 61.51 335.06 532.44 1006.31 278.40 1094.29 283.21 974.75 370.43 998.53 474.45 1064.53 478.34
00028129 00000114 955.84 63.12 336.53 530.38 1001.14 278.26 1092.49 282.65 972.77 370.24 993.31 474.52 1062.24 478.03
00028130 00000115 953.21 59.62 337.37 536.03 998.46 279.14 1092.17 284.81 972.07 369.89 991.99 473.53 1062.84 478.12
00028131 00000116 951.14 62.27 338.01 541.57 999.94 278.91 1090.97 282.82 970.54 368.42 993.28 475.01 1063.28 478.22
00028132 00000117 952.57 63.97 336.17 539.54 999.72 277.74 1091.13 281.98 970.47 368.32 994.42 474.88 1065.23 478.29
00028133 00000118 954.58 64.72 335.45 540.08 1001.57 277.59 1091.39 280.08 971.06 367.57 997.41 476.02 1066.77 478.08
00028134 00000119 957.07 70.65 329.99 532.48 989.52 277.71 1093.03 284.43 969.10 368.53 986.90 477.22 1060.21 482.63
00028135 00000120 956.34 68.34 330.06 532.11 987.15 278.63 1094.70 284.40 968.07 369.33 983.39 479.27 1058.34 484.32
00028136 00000121 957.82 71.40 327.33 525.86 987.33 279.78 1093.69 285.06 968.35 370.19 983.48 477.73 1057.97 482.32
00028137 00000122 961.54 74.43 325.08 517.49 990.62 278.91 1095.17 282.16 970.64 371.97 987.57 475.53 1061.93 478.41
00028138 00000123 962.80 72.14 325.93 520.85 992.51 278.98 1095.17 280.92 971.65 371.39 990.32 475.21 1063.76 476.97
00028139 00000124 962.71 71.06 328.45 528.39 995.00 278.68 1096.94 278.37 975.38 369.67 994.43 476.78 1066.06 476.52
00028140 00000125 959.79 69.34 334.80 533.97 1003.97 280.02 1094.25 275.96 977.96 369.08 1002.10 477.97 1069.74 474.97
00028141 00000126 959.25 67.69 336.56 534.82 1004.71 279.41 1096.14 276.37 978.40 368.27 1001.23 476.01 1070.00 473.71
00028142 00000127 958.90 65.86 336.38 536.32 1004.84 278.86 1097.05 275.98 978.72 367.58 1000.93 475.85 1070.08 473.74
00028143 00000128 958.57 65.21 336.50 537.00 1003.59 278.51 1096.82 276.00 977.25 366.93 999.07 475.66 1068.93 473.84
00028144 00000129 958.77 64.52 337.42 538.54 1003.46 278.71 1097.78 276.92 977.01 367.72 997.81 476.21 1068.43 474.96
00028145 00000130 957.60 65.60 337.39 538.66 1001.85 279.10 1097.08 277.29 975.47 368.21 996.83 477.00 1068.40 475.73
00028146 00000131 957.01 63.96 337.84 541.41 1002.61 279.10 1097.35 276.67 975.42 367.24 997.96 477.74 1068.85 476.02
00028147 00000132 955.06 64.61 336.09 538.22 1001.29 277.64 1097.26 275.05 975.63 363.34 994.85 475.29 1067.64 473.37
00028148 00000133 957.50 68.82 330.06 534.09 991.29 277.86 1100.95 274.66 975.39 361.92 987.31 478.92 1060.74 476.78
00028149 00000134 958.54 68.97 329.31 530.20 990.11 277.04 1101.50 273.49 973.96 363.12 985.33 480.12 1060.58 478.07
00028150 00000135 958.48 69.17 326.25 522.67 987.37 280.04 1100.20 276.74 973.69 363.47 982.26 477.11 1060.35 475.41
00028151 00000136 952.07 82.36 334.01 504.96 998.81 277.98 1096.59 277.01 977.33 363.41 988.59 471.90 1058.22 471.51
00028152 00000137 952.86 88.36 334.69 499.04 999.38 278.75 1098.19 275.26 978.74 364.58 990.10 474.04 1060.03 471.57
00028153 00000138 955.40 91.35 332.56 499.17 1000.24 273.69 1102.06 271.97 981.28 364.58 990.71 476.00 1061.60 474.77
00028154 00000139 955.29 94.97 335.87 494.20 1001.03 272.17 1103.21 271.02 981.49 362.14 990.21 472.44 1060.46 471.81
00028155 00000140 954.97 97.28 336.17 490.53 1002.85 275.33 1102.91 273.91 975.84 360.54 987.78 468.01 1062.08 466.15
00028156 00000141 954.01 95.91 336.93 492.44 1003.88 278.63 1101.68 278.06 974.18 357.76 984.99 464.85 1059.15 463.57
00028157 00000142 954.15 97.85 335.39 491.50 1004.71 283.10 1103.56 283.14 974.75 357.92 983.95 465.28 1059.13 464.54
00028158 DELETE   952.10 96.60 341.68 497.33 1008.28 283.09 1103.51 282.55 972.20 357.84 986.44 468.45 1055.69 467.25
00028159 00000144 960.14 91.45 337.20 505.00 1012.47 280.17 1105.10 280.46 983.14 354.97 989.05 468.32 1061.61 469.38
00028160 DELETE   954.43 85.41 342.68 514.54 1000.01 284.34 1106.17 284.33 972.77 357.87 979.52 473.71 1053.04 473.96
00028161 00000146 957.22 77.83 340.99 525.24 1004.57 283.21 1105.54 286.05 972.04 358.53 982.36 475.20 1048.22 477.45
00028162 DELETE   967.40 86.28 332.16 513.25 1018.68 277.71 1103.78 287.12 983.45 362.74 994.62 467.97 1061.86 477.06
00028163 00000148 970.54 88.03 333.87 521.54 1020.85 277.60 1105.29 288.68 984.36 363.77 998.58 474.78 1066.11 485.74
00028164 DELETE   973.98 95.02 331.52 516.97 1020.58 281.68 1106.23 292.32 986.89 366.96 1000.04 480.61 1069.15 491.28
00028165 00000150 978.96 96.64 331.02 515.00 1024.49 283.20 1112.75 295.94 994.01 373.27 1006.06 482.10 1075.84 494.33
00028166 00000151 970.91 102.58 335.97 513.56 1012.75 294.64 1114.61 301.30 982.70 384.24 1001.56 492.91 1074.97 497.91
00028167 00000152 974.15 101.23 333.26 516.67 1015.08 298.15 1114.20 303.53 983.67 389.97 1004.34 497.33 1075.44 501.24
00028168 00000153 981.93 98.43 328.04 520.83 1027.16 291.66 1113.31 304.13 997.31 383.04 1012.71 489.88 1082.07 501.84
00028169 00000154 982.34 100.37 326.14 524.63 1012.36 300.62 1120.66 307.47 987.51 387.77 1000.36 504.21 1080.70 513.27
00028170 00000155 982.60 109.94 327.43 513.46 1031.16 304.29 1127.78 316.70 992.63 392.02 1011.04 499.23 1082.48 509.18
00028171 00000156 983.83 111.81 328.03 511.74 1031.26 307.26 1127.72 318.76 993.34 395.46 1012.22 501.84 1083.39 510.95
00028172 00000157 984.70 108.49 326.79 514.65 1029.61 307.47 1128.53 320.90 993.69 396.38 1011.03 501.47 1083.47 512.23
00028173 00000158 986.33 110.58 326.15 512.79 1030.75 308.33 1129.25 321.80 994.62 397.23 1012.05 501.93 1084.16 512.61
00028174 00000159 986.65 110.69 326.83 512.91 1031.14 310.15 1128.39 322.42 994.34 397.79 1012.88 502.58 1084.20 512.25
00028175 00000160 986.66 109.31 327.58 515.00 1031.01 311.32 1128.29 323.31 994.79 398.57 1013.62 503.08 1085.32 512.57
00028176 00000161 986.64 109.78 324.94 514.30 1029.42 311.91 1128.36 324.23 995.60 399.41 1012.99 503.65 1085.89 513.58
CROP_BBOX: 730 0 1561 772
