Video ID: 	_unE0NsfrIs
H: 	1080
W: 	1920
FPS: 	29.97002997002997

FRAME INDEX X0 Y0 W H [Landmarks (5 Points)]

00009310 00000000 815.86 103.27 386.95 557.96 860.41 328.65 999.81 317.49 877.57 408.91 881.05 518.10 1002.41 509.78
00009311 00000001 813.15 105.59 388.02 553.73 857.37 326.64 997.16 313.94 872.37 404.98 878.29 516.59 1001.13 506.92
00009312 00000002 812.22 103.94 393.02 553.99 851.41 325.46 1000.87 313.33 873.46 403.01 875.25 517.85 992.27 507.39
00009313 00000003 811.29 102.24 393.37 559.28 849.89 326.00 1000.15 312.75 870.80 402.37 872.89 519.79 993.70 510.37
00009314 00000004 814.48 100.66 396.12 566.51 854.66 322.92 1007.52 311.95 875.58 399.82 874.69 522.59 997.03 514.66
00009315 00000005 816.89 106.25 402.01 561.94 861.72 322.12 1016.31 312.76 884.59 399.57 881.25 525.08 1002.19 518.20
00009316 00000006 821.85 112.98 402.56 551.84 865.28 320.78 1022.01 313.00 890.06 401.04 886.50 525.28 1005.75 519.58
00009317 00000007 824.11 106.35 402.25 556.75 868.61 320.49 1026.11 317.63 890.89 403.35 887.28 523.41 1003.84 521.32
00009318 DELETE   827.18 100.67 400.74 565.48 873.45 320.77 1028.83 322.31 891.80 407.93 888.21 524.27 1002.13 525.15
00009319 00000009 837.08 112.26 386.58 559.31 882.11 327.39 1031.22 327.88 899.13 421.32 893.64 529.05 1006.29 528.61
00009320 00000010 837.79 110.68 388.66 564.09 884.35 329.88 1033.12 334.00 899.35 428.99 892.94 531.60 1008.81 534.03
00009321 00000011 837.34 104.45 390.66 571.27 884.45 330.63 1035.40 335.10 901.24 431.68 893.47 534.70 1009.57 537.47
00009322 00000012 837.45 101.88 388.74 574.24 884.05 330.65 1034.26 335.37 900.94 430.05 891.64 535.30 1005.98 538.22
00009323 00000013 842.28 108.62 386.93 565.06 878.16 328.60 1028.15 336.65 897.36 422.10 887.07 532.52 994.71 538.16
00009324 00000014 842.06 104.18 388.42 563.86 877.41 326.34 1025.41 334.80 894.88 417.55 883.78 527.26 988.77 533.54
00009325 00000015 843.54 97.27 386.15 566.99 878.30 324.72 1027.05 333.38 895.71 416.28 882.89 526.72 986.91 533.53
00009326 00000016 847.74 108.64 385.63 554.93 881.94 327.62 1029.36 334.26 899.24 417.60 887.19 530.27 988.42 535.51
00009327 00000017 850.52 112.84 382.08 554.00 884.53 329.88 1033.45 333.84 904.54 418.93 891.00 535.21 990.66 538.28
00009328 00000018 851.23 114.80 382.00 552.77 885.03 330.27 1034.82 334.17 905.23 420.56 891.96 536.28 993.55 539.17
00009329 00000019 851.06 119.18 380.98 547.52 885.04 332.36 1035.44 336.32 905.05 422.88 892.80 536.98 996.92 539.78
00009330 00000020 852.51 117.04 383.04 551.84 887.19 334.07 1037.77 338.18 905.83 426.01 894.53 538.75 1000.77 541.69
00009331 00000021 854.43 115.24 381.72 556.07 887.67 333.56 1038.85 340.11 905.86 431.98 895.70 541.19 1005.00 545.89
00009332 00000022 855.65 109.01 380.68 562.91 888.84 333.39 1040.38 341.49 907.13 436.02 896.04 542.19 1008.79 548.21
00009333 00000023 856.34 113.81 380.23 558.21 890.77 335.21 1042.31 344.36 907.83 436.17 895.86 541.89 1009.40 548.57
00009334 00000024 856.49 109.90 383.03 562.11 891.52 334.46 1042.31 344.87 907.90 436.68 895.60 540.99 1008.94 548.77
00009335 00000025 856.87 118.23 382.28 553.98 892.97 334.59 1042.14 346.83 908.75 437.78 896.58 539.33 1009.32 548.29
00009336 00000026 857.93 119.93 380.18 560.15 894.25 334.08 1044.33 346.31 908.99 438.49 900.15 542.27 1012.47 551.11
00009337 00000027 858.59 124.73 381.27 562.84 895.81 333.18 1046.15 346.06 910.58 436.66 900.78 542.24 1014.61 551.85
00009338 00000028 857.64 123.98 381.49 562.41 897.76 331.53 1049.97 343.07 912.33 434.08 903.22 538.95 1023.87 547.43
00009339 00000029 858.08 123.11 382.70 562.30 899.10 329.73 1052.78 340.14 911.54 433.11 905.49 535.78 1035.01 543.30
00009340 00000030 858.36 125.83 383.20 559.21 899.68 330.98 1052.86 340.68 912.18 433.52 906.44 533.71 1038.71 540.60
00009341 00000031 858.14 128.43 383.86 554.90 899.82 331.52 1054.07 341.69 913.62 435.60 906.76 532.80 1042.23 539.99
00009342 00000032 858.34 128.39 384.62 553.84 900.13 332.21 1054.73 342.13 914.93 436.09 906.83 532.06 1043.60 539.08
00009343 00000033 858.19 117.54 385.28 562.88 899.23 329.57 1056.13 340.79 913.87 436.01 904.85 532.91 1043.57 541.17
00009344 00000034 858.39 109.18 384.64 566.58 898.82 326.40 1057.09 341.41 913.86 436.12 902.60 531.07 1041.27 542.27
00009345 00000035 858.96 111.80 383.87 562.67 898.71 325.44 1058.15 342.66 914.79 437.85 901.58 531.16 1039.80 544.10
00009346 00000036 859.33 109.83 382.97 563.19 899.21 325.55 1059.69 342.98 915.85 437.71 902.15 532.85 1039.23 546.11
00009347 00000037 859.59 113.89 382.89 557.86 899.58 325.33 1060.82 343.88 917.42 438.01 902.53 533.73 1036.94 547.92
00009348 00000038 860.67 125.07 380.16 544.79 900.38 326.13 1061.31 345.38 919.90 440.80 902.79 534.59 1035.88 549.21
00009349 00000039 862.09 125.42 378.36 543.96 901.23 325.59 1062.64 346.43 920.66 441.69 902.81 534.60 1034.32 550.56
00009350 00000040 862.58 125.11 377.41 543.42 902.83 325.42 1063.80 346.95 922.17 441.22 903.47 533.84 1033.92 550.41
00009351 00000041 862.70 119.45 377.12 548.61 903.76 325.08 1063.44 346.28 922.69 439.77 904.93 532.86 1032.40 549.28
00009352 00000042 863.83 120.86 378.11 547.73 904.60 325.60 1064.14 346.48 923.57 438.59 906.32 532.33 1033.55 548.40
00009353 00000043 865.19 121.62 377.75 547.60 906.46 325.70 1065.74 346.19 925.91 438.57 908.08 532.88 1033.58 548.72
00009354 00000044 865.15 116.90 378.87 552.99 907.35 324.50 1067.35 345.38 927.86 438.57 909.28 532.69 1035.71 548.91
00009355 00000045 866.04 111.72 378.93 557.77 908.41 324.11 1068.34 343.77 930.07 436.80 911.15 532.54 1037.71 547.90
00009356 00000046 867.17 114.45 379.65 554.91 909.78 323.10 1069.65 342.66 931.96 436.22 912.60 532.80 1038.66 548.06
00009357 00000047 867.83 105.61 379.20 563.84 909.55 321.59 1069.87 339.94 932.46 434.85 913.04 533.10 1040.45 547.54
00009358 00000048 868.19 104.81 379.93 563.80 909.28 320.72 1069.38 337.60 932.02 432.31 912.97 532.12 1040.83 545.26
00009359 00000049 867.00 95.06 380.70 569.36 908.37 318.10 1068.58 334.90 931.72 430.12 910.50 529.55 1040.80 542.86
00009360 00000050 867.78 92.52 380.23 569.97 909.22 318.44 1068.21 334.51 932.11 428.71 909.90 528.20 1040.41 540.94
00009361 00000051 867.91 95.67 381.02 563.23 909.13 317.97 1068.29 334.88 932.39 428.32 908.72 526.38 1040.65 539.76
00009362 00000052 868.84 95.69 380.57 561.13 910.04 316.71 1070.08 334.84 933.25 427.76 908.28 525.14 1040.95 539.53
00009363 00000053 869.89 98.73 380.40 558.16 911.74 316.34 1071.18 335.58 933.98 427.26 909.14 524.59 1040.92 539.83
00009364 00000054 870.70 99.32 379.42 560.85 912.97 318.03 1072.30 335.84 936.11 426.84 912.15 527.30 1040.85 541.51
00009365 00000055 870.63 101.66 379.27 561.67 914.72 319.66 1074.76 336.84 938.74 426.14 914.80 529.47 1041.32 543.21
00009366 00000056 872.18 106.19 379.41 556.54 915.17 317.45 1077.40 337.58 938.45 429.24 915.30 529.52 1045.26 545.46
00009367 00000057 873.73 108.01 381.80 554.70 915.97 315.45 1081.92 339.32 939.76 432.73 914.91 528.28 1051.28 546.98
00009368 00000058 875.09 102.04 381.47 560.69 917.04 312.90 1084.16 338.81 941.19 433.34 914.89 526.89 1053.30 547.31
00009369 00000059 872.48 107.62 382.44 555.76 925.66 323.76 1084.75 346.16 948.04 427.29 917.33 522.88 1048.07 540.87
00009370 00000060 874.22 103.37 382.32 561.47 928.89 323.99 1087.64 345.81 951.21 426.14 921.49 522.15 1051.45 540.04
00009371 00000061 875.50 96.84 385.39 568.09 930.46 325.26 1089.47 347.13 952.49 426.58 923.91 522.37 1054.73 540.28
00009372 00000062 876.05 98.58 382.86 565.55 931.09 326.18 1091.25 347.75 954.31 425.83 924.46 523.26 1054.81 541.15
00009373 00000063 876.64 101.91 383.21 559.33 932.89 325.75 1094.22 347.88 957.49 423.94 925.39 521.47 1056.36 539.95
00009374 00000064 878.49 98.65 385.47 561.54 936.57 324.36 1097.73 346.53 961.22 421.96 928.43 519.27 1059.32 537.87
00009375 00000065 880.29 103.31 385.27 556.74 941.14 325.00 1102.47 347.43 964.94 420.94 931.47 518.84 1061.22 538.26
00009376 00000066 882.79 120.81 385.12 538.55 945.52 326.07 1110.99 347.47 972.56 423.39 934.54 519.96 1065.88 538.93
00009377 00000067 884.43 121.17 391.30 538.58 950.54 327.32 1117.84 351.47 977.59 427.25 937.63 520.00 1069.69 541.28
00009378 00000068 886.66 118.50 388.47 544.00 955.19 326.29 1120.38 353.54 982.67 433.97 941.99 520.34 1073.34 544.17
00009379 00000069 887.82 123.48 393.15 546.36 959.69 326.70 1126.60 355.42 986.92 437.95 945.48 523.51 1076.55 548.73
00009380 00000070 895.39 112.68 387.19 567.75 962.52 323.58 1130.44 356.23 987.55 441.79 950.14 531.48 1079.11 558.09
00009381 00000071 890.82 115.84 396.09 566.36 964.12 333.15 1139.47 360.77 993.90 445.78 950.58 528.76 1094.07 553.28
00009382 00000072 897.54 128.22 383.75 551.29 964.36 325.27 1136.84 362.37 991.67 448.79 952.01 527.50 1094.83 557.32
00009383 00000073 887.29 123.67 398.52 555.57 959.69 336.00 1137.00 362.88 990.31 446.76 947.89 521.58 1101.49 544.66
00009384 00000074 883.12 117.72 399.12 556.09 955.24 335.20 1130.67 361.33 986.22 446.37 944.02 516.81 1099.36 539.18
00009385 00000075 881.58 115.23 398.84 556.23 950.26 334.06 1124.69 358.40 980.18 444.71 941.75 516.70 1096.99 537.30
00009386 00000076 881.25 114.84 396.40 554.74 946.33 335.44 1118.53 357.30 974.57 443.51 940.39 518.24 1093.41 536.78
00009387 00000077 880.28 115.76 396.22 554.18 943.49 336.13 1113.62 357.12 970.68 441.17 938.56 519.46 1088.51 537.18
00009388 00000078 880.12 129.20 393.29 540.87 941.44 334.34 1111.27 355.66 969.22 439.80 935.34 521.00 1082.40 539.07
00009389 00000079 880.86 137.92 385.31 529.97 935.36 338.60 1103.78 355.97 966.14 439.83 931.32 526.06 1077.15 541.54
00009390 00000080 879.51 122.47 391.97 545.07 940.51 330.63 1105.33 352.98 964.47 432.50 932.98 524.16 1066.74 543.21
00009391 00000081 881.51 133.69 381.96 531.21 934.65 333.63 1100.23 352.85 963.22 433.90 927.93 526.65 1065.76 544.17
00009392 DELETE   878.53 123.52 389.79 542.80 938.89 329.81 1102.98 354.02 962.24 430.97 929.69 523.97 1061.63 544.54
00009393 00000083 877.83 121.40 391.86 543.71 938.57 329.63 1103.38 354.58 961.74 432.81 929.21 523.58 1061.92 544.61
00009394 00000084 877.15 125.15 391.70 540.07 938.74 329.51 1104.14 354.73 962.84 434.76 929.42 525.56 1061.02 546.79
00009395 00000085 877.81 120.51 392.01 546.87 938.87 331.29 1104.83 354.92 965.12 437.85 931.15 528.08 1063.56 548.07
00009396 00000086 878.71 123.74 392.51 542.78 939.32 333.33 1106.89 355.56 966.71 439.16 931.90 530.03 1064.13 549.04
00009397 00000087 880.11 119.19 393.52 548.54 939.76 334.81 1108.07 356.80 967.66 440.45 932.65 531.52 1065.86 550.25
00009398 00000088 880.96 115.68 395.07 552.10 940.11 334.96 1109.28 357.11 967.19 441.31 933.78 532.14 1067.41 550.91
00009399 00000089 881.78 115.44 396.85 552.08 940.08 334.26 1110.43 357.61 966.61 442.28 933.26 532.08 1067.86 551.63
00009400 00000090 882.26 115.46 396.67 552.02 940.47 334.42 1110.49 357.72 966.70 442.30 933.45 531.97 1067.71 551.52
00009401 00000091 882.30 115.15 396.88 552.49 940.77 334.36 1110.59 357.66 966.86 441.91 933.45 531.86 1067.62 551.43
00009402 00000092 882.10 113.04 397.07 554.66 941.36 334.23 1110.39 357.78 967.12 441.32 933.78 531.48 1067.39 551.28
00009403 00000093 882.38 112.03 397.17 555.73 941.88 333.78 1110.69 357.63 967.44 441.15 934.11 531.31 1067.45 551.35
00009404 00000094 882.27 112.97 396.50 555.32 943.00 333.81 1111.04 358.28 968.28 441.00 934.22 530.76 1066.91 551.43
00009405 00000095 882.40 111.59 395.59 558.13 943.71 333.62 1110.68 358.23 968.53 441.03 935.20 530.61 1067.45 551.50
00009406 00000096 883.24 112.65 395.04 556.96 944.13 333.49 1111.34 358.32 969.25 441.17 935.01 529.86 1067.77 551.00
00009407 00000097 883.55 111.73 395.21 557.79 945.14 332.97 1111.63 358.36 969.99 440.85 935.73 528.81 1068.01 550.46
00009408 00000098 883.47 116.69 393.35 553.13 945.40 332.41 1111.24 359.05 969.86 441.05 934.14 528.18 1065.91 550.96
00009409 00000099 883.14 116.73 392.74 553.32 945.99 331.98 1111.99 359.18 970.70 440.86 933.70 527.76 1065.96 551.03
00009410 00000100 881.96 117.42 394.19 553.09 945.89 332.12 1112.33 359.04 970.62 440.08 933.16 527.43 1066.25 550.44
00009411 00000101 880.99 117.69 395.75 551.79 944.79 331.34 1113.50 358.64 970.39 440.08 931.74 527.17 1067.23 550.25
00009412 00000102 879.93 114.19 397.39 554.61 944.62 330.52 1114.01 357.90 970.49 439.51 930.81 526.45 1067.35 549.44
00009413 00000103 879.66 117.35 396.10 553.38 945.27 330.82 1113.58 358.29 970.81 439.13 931.26 525.54 1067.90 548.81
00009414 00000104 880.08 112.69 396.37 559.59 946.98 331.35 1114.08 358.91 972.41 439.34 933.82 524.87 1070.38 548.32
00009415 00000105 880.63 118.16 395.42 553.60 948.22 332.47 1114.71 360.64 973.33 440.23 934.59 525.45 1069.07 549.48
00009416 00000106 880.38 114.15 397.56 557.46 948.25 332.76 1116.15 360.64 973.81 441.91 935.48 526.70 1070.24 550.44
00009417 00000107 881.38 111.87 397.70 559.27 950.56 331.56 1119.06 361.04 976.22 442.09 936.85 526.19 1071.46 551.43
00009418 00000108 882.92 107.27 394.33 563.99 953.37 332.11 1118.59 362.44 976.97 442.68 938.68 525.98 1070.33 552.10
00009419 00000109 882.00 109.18 395.44 563.83 956.18 333.71 1122.16 364.80 979.76 442.64 939.82 526.68 1071.32 553.56
00009420 00000110 882.13 110.48 395.60 564.33 956.75 334.20 1122.09 365.18 980.35 442.50 940.12 527.86 1070.28 554.80
00009421 00000111 881.98 112.42 394.61 562.27 957.37 335.40 1121.52 367.25 980.05 443.15 939.84 527.76 1068.72 555.56
00009422 00000112 882.94 114.42 392.78 559.53 957.03 334.33 1121.17 365.72 980.02 442.55 940.04 528.55 1068.09 556.11
00009423 00000113 882.68 110.09 394.00 562.29 956.39 333.89 1122.59 365.00 980.81 443.22 940.75 528.61 1070.83 555.76
00009424 00000114 884.01 118.52 391.63 550.22 956.58 332.04 1126.59 363.87 983.78 443.72 939.45 527.33 1072.28 555.23
00009425 00000115 885.00 122.07 391.28 547.84 960.01 332.36 1132.62 364.43 987.97 442.50 941.02 524.74 1078.75 553.13
00009426 00000116 886.04 125.16 394.98 544.23 963.75 332.09 1139.65 364.86 994.09 444.23 944.13 525.30 1083.80 554.36
00009427 00000117 887.24 127.56 395.14 542.57 966.14 332.65 1145.99 365.37 999.48 446.23 946.71 525.36 1092.12 554.54
00009428 00000118 887.98 129.55 393.82 539.27 967.64 334.36 1148.81 365.39 1004.84 447.50 949.36 525.26 1098.99 552.97
00009429 00000119 887.95 128.48 393.22 542.77 969.81 334.71 1151.75 363.29 1011.04 448.36 952.53 526.08 1105.63 551.81
00009430 00000120 889.68 120.49 394.35 551.51 971.99 338.24 1155.83 363.37 1017.94 451.43 958.52 529.14 1113.02 551.99
00009431 00000121 889.70 115.28 395.87 561.18 974.12 342.13 1158.54 365.42 1023.94 454.85 965.15 534.77 1118.57 555.84
00009432 00000122 892.69 117.99 393.16 563.84 979.54 345.53 1162.31 366.33 1032.95 459.10 974.42 542.83 1120.99 562.29
00009433 00000123 892.29 119.97 393.92 568.38 984.63 346.43 1166.36 367.76 1040.75 460.74 979.59 546.99 1123.50 566.96
00009434 00000124 893.62 127.16 392.32 562.53 987.92 345.82 1169.85 366.48 1048.51 461.22 984.95 547.90 1128.38 567.26
00009435 00000125 894.17 122.96 395.77 564.96 999.08 339.45 1179.68 372.74 1061.75 460.10 987.99 544.93 1125.89 573.15
00009436 00000126 897.13 121.48 396.28 568.52 1007.74 339.73 1186.33 374.05 1073.14 461.77 995.36 544.93 1133.19 574.26
00009437 DELETE   901.41 150.24 388.49 541.07 1006.48 346.61 1195.09 370.01 1084.03 463.46 1003.55 555.22 1148.91 575.56
00009438 DELETE   903.68 139.09 391.95 555.64 1021.81 345.85 1201.84 372.56 1096.15 467.70 1012.38 552.34 1151.36 576.39
00009439 DELETE   905.07 133.37 391.64 562.62 1028.27 349.40 1208.24 372.73 1109.33 467.41 1023.29 553.79 1162.31 574.85
00009440 00000130 905.32 138.82 391.05 556.65 1032.54 349.89 1214.08 368.18 1120.70 469.15 1032.82 555.96 1173.45 572.91
CROP_BBOX: 621 0 1522 861
