Video ID: 	IxjiWdzXhf0
H: 	1080
W: 	1920
FPS: 	25.0

FRAME INDEX X0 Y0 W H [Landmarks (5 Points)]

00008181 00000000 626.98 258.24 418.59 598.55 766.94 480.75 950.74 482.17 870.41 625.74 784.95 705.74 930.89 705.94
00008182 DELETE   634.80 264.98 417.03 586.20 766.30 484.22 956.44 483.74 875.22 626.59 788.24 704.94 930.78 702.88
00008183 00000002 639.55 268.79 417.13 589.64 771.70 485.34 960.63 485.15 880.01 628.96 791.00 709.30 936.47 707.41
00008184 DELETE   641.88 264.80 420.60 600.48 778.08 485.21 972.87 493.02 887.14 630.01 793.26 708.95 947.31 717.83
00008185 00000004 644.88 265.48 420.72 603.11 781.74 488.72 975.91 493.62 893.92 631.84 798.23 712.27 954.92 718.73
00008186 DELETE   647.69 270.24 419.51 598.91 786.00 489.57 977.55 495.44 897.04 632.81 800.56 712.25 955.75 719.88
00008187 DELETE   650.76 272.52 419.47 598.50 789.78 490.52 979.25 495.69 900.35 634.06 802.98 711.34 958.46 718.50
00008188 00000007 654.28 274.24 420.80 597.51 793.01 492.86 982.63 496.09 905.43 635.11 807.93 711.51 965.34 717.11
00008189 DELETE   656.03 278.69 422.17 594.15 796.03 494.03 985.45 496.77 908.80 635.83 811.28 712.05 967.71 717.32
00008190 DELETE   657.22 279.00 424.60 593.74 798.25 496.16 988.60 497.86 911.38 637.15 814.86 712.76 971.30 716.92
00008191 DELETE   659.62 280.30 425.22 593.89 799.67 498.47 991.71 499.58 913.28 639.34 817.06 715.83 973.19 719.46
00008192 00000011 661.88 282.71 425.23 591.10 802.27 499.25 993.80 499.61 915.45 640.85 820.29 715.57 975.54 718.37
00008193 00000012 664.75 278.85 424.52 594.16 803.76 498.73 995.70 498.67 917.93 641.35 820.80 716.17 977.01 718.63
00008194 00000013 665.46 280.54 424.63 594.70 804.96 499.33 997.22 499.03 919.78 641.94 822.28 716.82 978.97 718.97
00008195 00000014 665.90 280.90 424.01 594.57 804.59 499.78 996.31 499.61 919.07 642.59 821.69 716.78 978.39 719.09
00008196 00000015 664.95 283.36 424.68 591.84 804.55 500.24 996.82 501.01 918.14 644.61 820.51 716.55 976.90 719.65
00008197 00000016 674.66 287.33 413.73 589.63 809.76 496.39 1000.03 501.65 921.01 645.18 820.80 722.15 968.54 726.51
00008198 00000017 676.81 287.54 414.71 591.23 813.92 496.03 1003.80 501.58 925.21 646.52 823.85 721.92 972.69 726.52
00008199 00000018 679.58 288.12 414.92 593.12 819.42 496.87 1006.42 502.87 928.52 646.51 828.32 721.68 975.18 726.60
00008200 00000019 682.15 288.45 413.10 593.82 823.03 499.12 1008.31 505.11 930.85 647.08 831.09 721.34 978.38 726.11
00008201 00000020 683.42 288.90 413.85 595.86 824.92 498.51 1008.52 503.97 931.18 647.15 832.21 722.79 978.84 726.98
00008202 00000021 683.79 287.95 413.61 595.35 824.88 498.18 1009.09 503.64 931.51 646.16 833.88 723.70 977.56 727.92
00008203 00000022 684.44 285.72 414.18 598.67 824.38 497.94 1011.14 502.74 932.40 645.90 833.41 722.52 981.66 725.97
00008204 00000023 685.12 288.75 416.71 594.65 826.80 491.53 1015.55 497.47 935.23 644.85 835.77 722.81 980.74 726.85
00008205 00000024 684.39 292.98 420.24 589.17 829.69 485.85 1020.67 489.98 942.04 644.65 841.54 723.29 984.11 725.76
00008206 00000025 684.87 291.86 421.52 587.90 831.70 484.44 1023.31 487.07 946.56 643.54 845.15 721.45 988.58 722.71
00008207 00000026 687.07 287.36 421.87 592.66 834.90 483.81 1026.54 485.94 951.74 640.25 850.45 721.51 995.44 722.15
00008208 00000027 688.66 285.12 422.32 598.84 837.53 481.39 1028.16 484.97 954.63 637.85 855.96 723.47 996.36 724.92
00008209 00000028 688.35 278.08 422.46 608.29 838.72 481.72 1027.28 485.91 954.85 634.20 856.79 724.47 995.44 726.33
00008210 00000029 688.89 278.50 420.65 608.30 837.42 483.04 1024.94 485.50 952.57 634.00 857.42 726.39 993.23 726.81
00008211 DELETE   687.97 280.93 419.80 604.75 834.62 481.40 1024.46 484.21 950.64 635.01 851.44 726.57 990.45 727.59
00008212 00000031 686.09 276.91 418.53 602.60 833.00 480.62 1022.91 482.04 949.14 633.76 847.69 720.64 989.86 720.69
00008213 00000032 684.04 274.88 416.79 600.77 831.28 477.96 1022.03 479.44 948.21 631.54 846.02 716.76 989.92 716.63
00008214 00000033 682.75 271.70 419.02 603.03 829.23 476.75 1021.25 476.54 948.08 627.79 845.68 714.08 993.20 712.40
00008215 00000034 681.29 268.64 419.69 603.71 828.19 475.39 1018.94 474.49 946.80 625.07 844.37 707.52 994.73 705.19
00008216 00000035 679.64 269.50 418.09 598.28 825.64 474.67 1015.62 474.08 944.32 621.77 842.19 704.09 993.04 702.11
00008217 00000036 672.79 260.85 422.35 598.28 820.76 475.42 1006.11 472.58 940.87 619.52 839.73 701.58 993.77 699.99
00008218 00000037 672.68 259.15 420.26 596.60 819.82 473.66 1004.55 470.66 939.86 617.83 838.72 699.75 991.16 698.18
00008219 00000038 672.59 256.28 421.22 604.09 820.89 471.74 1004.93 469.49 940.03 617.99 839.71 702.68 989.13 701.81
00008220 00000039 671.67 251.38 420.49 606.70 819.77 469.02 1004.42 466.47 939.19 615.96 838.26 701.18 986.81 700.13
00008221 00000040 672.12 248.99 418.58 602.14 819.77 466.53 1002.46 464.53 937.24 614.55 836.93 696.82 982.79 696.37
00008222 00000041 671.50 250.00 416.28 592.76 818.66 465.85 1002.79 462.75 936.87 614.19 838.02 694.69 983.08 693.29
00008223 00000042 671.37 250.78 416.79 592.25 817.53 466.63 1001.89 462.51 936.07 613.00 837.46 693.84 984.85 691.45
00008224 00000043 671.42 252.57 416.49 589.18 816.65 466.54 1002.42 462.41 935.67 612.76 837.16 693.81 985.46 691.44
00008225 00000044 671.20 251.67 418.23 597.42 816.11 466.25 1001.11 462.82 934.45 613.97 836.46 695.97 985.55 694.14
00008226 00000045 670.56 252.68 418.54 601.31 815.09 465.50 1000.41 462.76 933.85 614.85 836.75 699.10 986.07 697.64
00008227 00000046 670.57 252.82 419.28 604.69 814.95 468.56 999.67 465.43 933.68 615.71 836.19 701.04 987.02 699.34
00008228 00000047 670.16 251.43 419.32 613.27 815.08 478.78 1002.19 476.09 935.90 617.00 834.67 705.82 990.27 704.63
00008229 00000048 671.23 252.36 420.36 618.22 816.56 482.75 1006.09 480.87 939.17 619.61 837.13 711.81 992.55 711.37
00008230 00000049 672.45 255.21 420.18 615.46 819.79 481.59 1004.69 478.13 940.63 620.86 840.90 709.90 993.46 708.21
00008231 00000050 674.29 255.58 417.86 607.48 820.50 480.27 1004.83 476.76 939.66 620.91 842.59 707.33 992.65 705.66
00008232 00000051 679.40 264.63 414.51 609.83 823.35 478.32 1012.38 476.27 943.11 620.45 843.54 711.56 989.95 708.09
00008233 00000052 679.45 267.79 415.37 607.63 826.10 479.62 1013.98 477.76 945.47 622.11 843.81 711.86 992.79 708.78
00008234 00000053 681.17 267.42 414.66 608.13 827.25 480.83 1015.57 478.26 946.65 624.31 846.07 713.60 993.37 709.98
00008235 00000054 681.68 266.73 415.56 608.65 828.10 481.39 1017.48 479.16 948.13 626.44 846.52 715.47 993.40 712.27
00008236 00000055 682.37 268.40 416.71 610.35 829.51 481.89 1018.75 480.46 949.88 626.98 848.85 719.24 994.21 716.55
00008237 00000056 683.08 268.75 417.57 615.33 830.11 482.77 1019.97 481.66 951.25 627.80 847.87 721.89 996.74 719.55
00008238 00000057 684.09 269.20 416.14 614.05 831.16 483.76 1018.69 481.78 951.09 627.02 850.81 722.91 995.76 719.93
00008239 00000058 683.66 269.06 416.24 612.64 830.63 484.58 1017.76 481.63 950.69 626.95 851.40 719.97 997.45 715.89
00008240 00000059 682.09 265.68 418.20 612.97 830.14 483.42 1016.57 481.55 948.55 625.73 847.79 714.23 996.04 711.18
00008241 00000060 681.90 267.33 416.02 608.69 828.98 482.54 1015.31 480.61 947.19 624.88 846.48 711.82 994.41 708.69
00008242 00000061 680.67 267.37 416.20 610.00 826.08 483.39 1013.26 481.54 945.08 623.81 843.78 711.82 994.08 708.75
00008243 00000062 680.88 267.29 415.03 610.20 823.96 483.20 1012.21 482.47 942.66 624.41 840.48 713.17 990.62 711.10
00008244 00000063 681.02 268.84 414.27 610.39 821.58 483.73 1011.85 483.71 941.01 626.80 838.21 715.15 989.34 713.80
00008245 00000064 681.87 269.44 411.89 608.76 821.23 482.25 1012.12 483.50 940.19 625.38 840.24 718.15 986.44 717.77
00008246 00000065 681.82 269.89 411.66 609.47 819.09 482.73 1011.66 482.89 939.93 624.65 842.76 721.34 986.66 719.68
00008247 00000066 682.25 271.79 411.70 606.65 819.57 483.82 1012.03 483.51 939.37 626.89 842.67 722.40 984.91 720.35
00008248 00000067 683.24 273.85 411.93 602.99 821.36 484.86 1013.04 485.05 939.65 628.59 844.42 723.49 982.40 722.20
00008249 00000068 684.61 275.07 409.91 597.91 822.58 485.19 1014.41 486.87 939.41 629.90 843.49 723.05 979.50 723.29
00008250 00000069 685.25 276.00 410.42 595.51 824.52 484.94 1015.94 485.83 941.41 630.87 844.95 719.36 983.58 718.86
00008251 00000070 686.14 275.07 411.79 596.16 826.19 485.70 1016.96 485.10 943.25 631.03 845.05 719.98 984.84 718.35
00008252 00000071 686.51 273.69 415.59 600.89 828.14 486.53 1018.73 485.55 945.35 633.17 845.94 721.88 986.19 719.94
00008253 00000072 687.03 270.64 419.01 607.66 831.95 485.64 1022.91 487.24 949.60 632.29 849.77 726.53 986.76 726.68
00008254 00000073 686.92 273.91 419.77 603.51 834.27 486.53 1024.47 487.86 951.60 634.32 849.52 723.28 990.42 723.10
00008255 00000074 687.33 273.64 419.74 602.96 834.89 486.61 1026.29 487.32 953.29 633.09 851.13 723.46 992.42 722.67
00008256 00000075 687.57 272.96 420.64 606.40 835.48 486.37 1026.76 487.10 954.35 632.69 852.38 725.62 992.97 724.86
00008257 00000076 689.10 273.25 420.32 608.67 836.53 487.02 1025.43 486.88 954.88 632.06 857.05 727.86 994.12 726.32
00008258 00000077 689.97 274.77 418.80 604.74 837.01 486.90 1026.30 487.13 954.90 632.55 857.02 727.80 992.98 726.69
00008259 00000078 688.77 274.96 421.20 603.77 836.33 486.79 1027.14 487.66 954.09 633.44 851.32 723.03 993.88 722.51
00008260 00000079 688.25 274.22 420.43 600.31 836.18 487.01 1027.43 487.53 954.05 633.61 851.21 721.55 994.60 720.68
00008261 00000080 688.50 274.24 420.35 601.19 834.77 486.82 1026.77 487.57 952.94 632.69 850.49 721.85 995.56 721.12
00008262 00000081 688.13 274.34 419.01 601.21 833.18 486.11 1025.21 487.55 950.82 632.27 849.13 720.95 993.17 720.80
00008263 00000082 688.19 273.84 419.05 601.42 833.16 485.85 1023.17 486.60 949.29 631.48 849.88 718.73 992.89 717.90
00008264 00000083 688.19 272.98 418.63 600.73 832.84 485.02 1022.49 485.88 948.24 630.44 850.03 717.85 991.79 717.01
00008265 00000084 687.75 271.06 419.12 602.00 831.65 484.63 1021.69 484.97 947.22 630.14 849.20 717.75 991.41 716.52
00008266 00000085 686.90 269.95 418.10 601.74 830.36 483.33 1019.46 483.57 945.45 628.24 849.14 716.40 989.91 714.99
00008267 00000086 686.44 269.30 417.00 602.44 829.47 482.36 1018.64 483.42 944.48 626.93 847.70 715.74 988.71 715.00
00008268 00000087 685.75 268.71 416.60 603.31 828.61 482.33 1017.56 483.62 943.95 626.70 846.81 714.71 988.77 714.11
00008269 00000088 685.58 268.92 416.20 604.09 828.35 482.59 1017.03 484.00 943.53 627.05 845.97 714.89 988.58 714.39
00008270 00000089 685.33 269.29 416.94 604.01 828.36 482.65 1017.57 484.06 943.83 627.44 845.78 714.77 989.39 714.27
00008271 00000090 685.60 268.80 417.51 605.76 828.44 482.81 1017.88 484.46 943.69 627.50 845.69 714.68 989.80 714.30
00008272 00000091 685.88 267.17 417.81 606.30 829.15 482.63 1018.51 483.79 944.75 626.64 846.62 713.88 990.92 713.12
00008273 00000092 686.21 266.39 418.50 608.03 830.12 482.08 1019.37 483.96 945.54 626.35 847.09 713.72 991.32 713.54
00008274 00000093 685.90 266.85 417.67 606.42 829.59 481.64 1018.96 482.99 945.53 625.83 846.35 713.19 991.54 712.60
00008275 00000094 685.35 265.93 415.88 605.86 827.12 481.23 1016.81 482.36 943.45 624.33 845.07 712.18 990.21 711.39
00008276 00000095 684.84 264.85 414.75 609.15 825.43 481.60 1015.08 482.27 942.00 624.40 843.99 712.73 989.65 711.52
00008277 00000096 684.92 264.98 413.32 609.47 823.69 481.34 1013.22 481.91 940.06 623.58 843.05 715.57 986.23 714.54
00008278 00000097 684.09 265.52 414.08 610.28 821.40 481.88 1011.82 482.32 938.30 622.70 841.93 716.53 985.63 715.30
00008279 00000098 683.26 264.49 413.78 609.54 820.83 482.07 1011.35 482.21 938.01 621.96 840.49 714.84 985.49 713.49
00008280 00000099 682.34 264.31 413.50 609.30 821.33 482.42 1010.43 481.91 938.86 622.14 840.20 713.57 986.76 711.79
00008281 00000100 677.87 258.88 417.82 608.80 817.45 484.86 1004.96 483.83 936.11 622.07 838.82 710.24 994.08 710.25
00008282 00000101 676.33 256.24 417.98 610.92 814.59 484.81 1001.86 482.51 934.23 620.57 836.83 709.80 992.72 708.88
00008283 00000102 674.91 253.89 418.21 612.31 812.15 484.85 999.73 481.27 932.18 620.37 835.43 709.29 991.48 707.49
00008284 00000103 673.90 252.90 417.82 612.47 810.50 484.46 998.24 480.71 930.46 619.47 833.91 708.97 989.27 707.25
00008285 00000104 673.77 252.73 417.82 612.79 810.07 484.70 998.04 480.52 930.38 619.31 833.68 708.73 989.62 706.61
00008286 00000105 673.72 252.30 417.67 613.42 810.31 484.81 998.11 480.59 930.59 619.31 833.67 708.54 989.57 706.39
00008287 00000106 674.09 252.05 417.57 611.56 810.15 484.59 998.62 480.31 930.84 619.56 833.39 707.80 989.94 705.61
00008288 00000107 674.77 253.18 417.33 610.21 810.35 484.17 999.61 480.44 931.07 620.80 834.59 709.18 990.67 707.39
00008289 00000108 675.26 253.33 417.76 609.33 811.42 484.37 1000.29 480.80 931.83 621.10 835.26 708.14 991.87 706.36
00008290 00000109 675.60 255.09 418.83 608.03 813.62 483.86 1001.55 481.32 933.10 618.85 836.63 707.50 992.92 706.34
00008291 00000110 677.15 254.95 418.25 607.35 816.39 483.79 1002.69 481.36 934.45 618.77 838.99 706.81 994.27 705.62
00008292 00000111 678.47 251.44 418.80 615.76 820.62 484.63 1005.89 484.04 936.58 617.98 840.27 707.95 995.41 708.05
00008293 00000112 682.35 249.58 415.64 617.80 822.90 483.25 1009.74 486.71 938.23 616.29 840.65 708.10 995.48 711.16
00008294 00000113 683.30 247.44 417.83 621.99 824.23 478.53 1010.89 482.63 938.36 614.46 840.33 707.99 995.14 711.26
00008295 00000114 684.38 244.29 418.79 624.28 827.55 474.15 1011.82 477.95 939.47 614.17 842.52 706.74 994.97 709.49
00008296 00000115 685.11 243.34 419.25 624.33 831.06 468.46 1014.50 472.76 941.18 612.79 845.76 705.60 995.25 708.40
00008297 00000116 686.84 243.37 419.77 622.92 833.15 465.90 1016.04 469.40 942.13 612.00 849.00 705.55 996.49 707.31
00008298 00000117 686.96 244.04 420.69 623.24 832.98 466.52 1016.50 468.94 943.22 612.85 850.05 707.00 997.73 707.78
00008299 00000118 688.76 245.05 419.37 627.18 833.70 466.02 1017.48 468.95 943.68 613.57 850.64 709.41 999.13 710.38
00008300 00000119 688.34 243.75 420.09 622.88 833.29 467.32 1017.11 469.38 944.42 615.06 850.84 707.88 998.68 708.44
00008301 00000120 685.20 243.29 423.22 619.94 832.53 467.09 1017.58 469.18 945.89 613.24 848.49 704.96 997.24 705.85
00008302 00000121 685.78 242.34 422.83 621.82 832.96 461.25 1019.89 464.37 945.92 611.07 848.86 705.35 997.42 706.73
00008303 00000122 685.58 242.13 420.74 623.79 830.14 456.31 1019.99 458.62 946.41 608.50 849.68 706.11 999.47 706.56
00008304 00000123 686.26 248.02 418.57 608.91 829.61 454.61 1020.43 457.24 947.49 606.31 850.48 701.80 999.09 702.70
00008305 00000124 687.33 249.09 416.09 599.54 828.54 454.67 1019.35 455.77 947.02 604.29 851.84 699.44 998.25 699.27
00008306 00000125 687.02 250.03 416.74 599.87 828.78 454.16 1019.40 455.75 947.05 604.15 851.59 699.51 997.73 699.69
00008307 00000126 687.04 250.51 417.20 600.23 829.36 453.25 1019.80 455.72 946.82 605.02 851.41 699.83 996.32 700.74
00008308 00000127 686.54 248.35 418.92 605.21 829.34 453.65 1020.66 456.79 947.03 605.01 850.78 700.19 997.25 701.59
00008309 00000128 685.96 244.79 420.21 609.14 829.97 454.90 1019.88 457.26 946.47 606.08 851.04 700.83 996.32 701.67
00008310 00000129 686.32 244.59 419.98 609.25 830.72 456.24 1019.33 458.42 946.36 606.74 850.83 700.57 995.92 701.41
00008311 00000130 686.07 245.10 420.41 608.72 830.61 456.10 1019.77 458.36 946.57 606.86 851.07 700.42 996.24 701.30
00008312 00000131 686.37 244.92 419.81 607.89 830.67 455.65 1018.77 457.96 945.57 606.63 851.13 699.92 994.91 700.87
00008313 00000132 686.41 244.43 419.56 607.02 829.89 456.36 1018.80 458.23 945.41 606.85 850.97 699.97 995.31 700.60
00008314 00000133 686.01 244.64 419.97 604.45 830.07 456.84 1018.75 458.09 945.43 607.53 851.71 699.43 995.24 699.59
00008315 00000134 685.83 244.20 420.17 606.88 829.62 456.16 1018.77 457.98 945.25 607.89 851.76 700.69 994.59 701.23
00008316 00000135 686.37 244.56 419.77 609.27 829.34 455.62 1018.93 457.36 945.99 609.96 852.95 703.13 994.92 703.43
00008317 00000136 686.75 249.72 418.88 606.92 830.32 453.56 1020.28 456.73 947.05 609.51 852.95 703.31 995.20 704.64
00008318 00000137 687.50 251.88 419.11 603.71 830.73 453.78 1021.75 457.25 947.95 609.01 853.16 702.12 996.61 703.73
00008319 00000138 689.75 259.63 421.85 603.72 830.66 453.95 1030.74 457.83 952.54 606.96 855.31 703.17 996.97 703.95
00008320 00000139 689.84 260.92 420.35 603.68 832.20 453.21 1031.57 458.00 953.37 608.06 856.09 703.95 995.79 705.49
00008321 00000140 689.62 260.36 421.15 596.61 831.48 453.40 1032.39 457.74 953.99 607.57 855.95 700.42 998.04 701.55
00008322 00000141 689.34 247.59 420.60 609.46 834.60 454.31 1025.36 457.71 951.16 609.23 855.36 701.96 1001.41 703.26
00008323 00000142 688.25 245.37 423.06 613.10 836.34 455.26 1026.40 458.71 952.68 608.70 856.51 702.48 1002.02 703.77
00008324 00000143 687.76 242.30 423.45 612.92 835.95 457.05 1025.98 459.20 952.03 608.20 857.15 702.10 1001.69 702.53
00008325 00000144 686.89 242.62 424.35 614.34 835.65 457.11 1025.04 459.17 951.65 608.88 856.33 702.51 1000.88 702.86
00008326 00000145 686.61 239.67 424.39 618.51 835.44 457.49 1024.37 458.71 951.97 608.41 856.29 703.44 1000.96 703.08
00008327 00000146 686.78 239.70 423.55 618.42 834.92 457.99 1023.96 458.69 951.64 608.01 856.07 703.99 1000.71 703.20
00008328 00000147 686.59 240.71 422.24 615.77 834.32 457.56 1022.85 458.01 950.77 607.76 855.58 703.07 999.79 702.18
00008329 00000148 686.11 240.57 423.21 617.66 834.47 457.49 1022.52 457.67 950.89 608.37 855.35 703.55 999.84 702.40
00008330 00000149 686.29 239.93 422.18 616.16 834.14 457.17 1021.82 457.30 950.17 607.61 855.18 702.29 999.24 701.13
00008331 00000150 686.15 238.03 420.89 615.52 832.35 458.94 1019.09 457.73 948.17 607.81 854.94 702.17 998.51 699.92
00008332 00000151 686.25 235.49 422.32 616.95 833.29 470.01 1022.65 470.57 949.22 608.03 852.64 701.93 1001.25 701.69
00008333 00000152 685.41 238.33 422.55 614.18 831.99 470.08 1018.88 469.16 947.55 608.36 852.68 701.71 1000.04 700.34
00008334 00000153 684.93 240.50 422.16 613.02 832.15 467.73 1017.15 466.91 946.53 608.58 852.50 701.10 998.71 699.66
00008335 00000154 684.90 241.58 421.97 611.45 831.98 467.16 1016.22 466.66 945.84 608.37 851.84 700.31 997.66 699.18
00008336 00000155 685.27 242.07 419.67 609.38 830.83 466.58 1014.47 466.05 944.08 607.55 851.15 699.74 996.15 698.72
00008337 00000156 685.09 242.97 418.28 609.87 829.97 466.44 1012.41 465.87 942.97 608.65 850.50 699.62 995.23 698.58
00008338 00000157 683.62 244.06 418.12 612.12 828.07 466.29 1010.38 466.94 940.31 609.90 846.38 700.35 993.16 700.46
00008339 00000158 683.41 245.34 418.24 615.66 826.70 466.90 1008.69 467.91 938.97 610.31 844.79 701.57 992.99 701.94
00008340 00000159 682.46 246.71 418.24 613.55 824.74 467.86 1007.89 468.48 938.34 610.53 843.34 701.47 992.35 701.84
00008341 00000160 681.63 247.66 418.83 613.96 822.43 468.81 1007.39 468.48 938.14 610.83 840.69 701.59 993.43 701.26
00008342 00000161 681.22 246.18 418.76 616.84 822.02 468.61 1007.46 468.44 937.93 610.16 838.83 700.39 993.71 700.09
00008343 00000162 681.01 246.12 419.82 619.22 822.48 469.02 1007.38 469.45 938.00 610.00 837.81 699.98 994.01 700.13
00008344 00000163 680.20 245.84 420.08 616.68 821.42 472.01 1007.07 472.57 937.00 610.44 837.10 698.92 994.75 699.23
00008345 00000164 679.95 245.98 421.24 617.75 821.66 472.75 1008.29 473.98 937.78 611.27 837.54 700.09 995.12 701.02
00008346 00000165 681.57 246.89 421.20 619.80 824.09 472.95 1010.49 474.72 939.99 614.06 840.85 704.07 996.75 705.42
00008347 00000166 682.02 247.93 422.17 622.48 825.07 473.16 1011.88 474.38 942.01 615.01 843.00 706.07 999.78 706.75
00008348 00000167 682.22 246.78 421.91 621.82 825.78 472.31 1013.43 474.12 942.58 616.64 843.64 707.01 998.15 708.22
00008349 00000168 682.92 247.67 422.24 624.30 827.07 472.89 1013.70 475.20 942.39 617.13 844.05 708.68 998.42 710.10
00008350 00000169 683.29 247.01 421.51 619.05 827.73 473.45 1014.76 475.82 943.46 616.84 845.18 707.78 996.90 709.48
