Video ID: 	HFBr-nBVx6g
H: 	1080
W: 	1920
FPS: 	25.0

FRAME INDEX X0 Y0 W H [Landmarks (5 Points)]

00002574 00000000 820.99 220.79 503.49 701.26 881.84 472.51 1127.48 481.56 953.07 646.72 912.47 747.46 1106.30 754.97
00002575 00000001 824.51 218.50 502.00 692.21 886.07 470.27 1133.89 481.52 961.53 645.29 915.25 740.49 1110.28 750.05
00002576 00000002 824.06 211.77 501.68 697.86 888.56 468.64 1134.71 482.45 963.50 644.97 916.67 738.97 1108.76 750.73
00002577 00000003 823.56 222.94 501.73 683.10 888.66 467.01 1134.94 479.29 964.40 640.21 917.65 737.79 1105.11 748.69
00002578 00000004 821.63 214.50 497.71 687.31 885.02 464.14 1129.25 476.10 959.31 635.74 913.02 736.00 1097.53 746.85
00002579 00000005 820.75 212.06 493.66 684.28 882.42 460.38 1126.01 473.16 953.99 630.52 907.15 732.81 1089.68 744.78
00002580 00000006 818.47 197.39 492.05 698.77 879.14 456.72 1122.48 468.20 950.17 625.70 904.64 735.25 1082.41 746.46
00002581 00000007 810.94 208.22 497.61 690.47 882.35 449.32 1122.07 468.60 956.28 620.62 903.79 733.82 1079.42 751.69
00002582 00000008 809.50 210.85 496.78 683.17 877.13 446.84 1120.29 467.28 953.99 618.45 899.05 733.29 1074.59 752.17
00002583 00000009 805.72 209.53 500.43 686.75 875.92 445.67 1119.44 466.04 952.78 616.49 899.00 734.88 1072.50 753.57
00002584 00000010 808.18 211.09 497.35 693.69 874.50 453.75 1110.33 460.49 940.59 613.04 897.31 740.08 1061.23 748.02
00002585 00000011 798.32 204.32 505.64 724.30 874.06 453.73 1098.08 457.10 930.39 605.34 901.55 751.35 1044.73 756.57
00002586 00000012 788.02 204.39 510.28 735.19 865.58 450.93 1090.55 451.21 925.26 601.26 896.98 758.01 1037.21 760.56
00002587 00000013 778.25 199.18 519.05 736.44 856.43 452.96 1089.25 448.41 923.74 599.63 893.49 760.93 1038.88 759.34
00002588 00000014 768.44 195.12 526.55 733.24 847.72 453.90 1084.80 446.91 917.71 598.39 886.18 762.37 1035.76 758.60
00002589 00000015 766.48 209.28 518.99 709.45 838.44 465.76 1075.58 456.38 909.40 599.81 868.37 759.78 1027.42 754.79
00002590 00000016 762.92 199.36 517.52 725.80 834.13 471.24 1068.69 463.78 898.62 606.02 861.71 763.22 1020.42 760.03
00002591 00000017 754.57 197.32 521.87 739.34 828.22 466.00 1075.05 465.40 894.97 612.19 858.71 767.54 1021.53 768.66
00002592 00000018 754.23 206.07 519.66 719.86 826.27 463.12 1068.84 463.62 891.07 617.22 859.28 765.13 1019.65 768.09
00002593 DELETE   759.70 212.35 516.98 700.46 826.53 453.43 1077.31 475.56 891.22 629.17 856.17 753.69 1028.01 772.11
00002594 00000020 768.53 214.90 516.27 696.75 835.44 464.70 1080.81 482.45 898.00 637.90 862.96 748.63 1047.18 764.12
00002595 00000021 777.93 205.61 515.32 701.46 844.41 460.39 1084.94 479.04 904.22 635.83 866.35 735.78 1058.25 752.38
00002596 00000022 781.82 208.78 515.06 695.95 846.72 455.68 1087.20 476.14 905.10 632.34 866.84 726.24 1065.91 743.97
00002597 00000023 784.27 208.67 515.91 694.25 848.66 454.32 1088.59 472.88 906.20 629.09 868.45 722.06 1072.32 737.90
00002598 00000024 786.52 213.50 518.30 698.92 852.19 454.84 1091.75 472.54 909.10 632.40 875.26 723.30 1081.69 737.81
00002599 00000025 792.13 218.25 517.03 706.10 860.15 457.60 1094.19 471.73 914.30 633.98 887.17 727.89 1090.81 738.74
00002600 00000026 794.88 216.18 515.67 708.01 863.18 455.37 1095.59 471.02 913.53 631.69 889.60 724.79 1094.35 736.46
00002601 00000027 797.50 215.90 514.87 699.03 864.10 450.66 1096.23 469.58 910.61 627.45 888.69 719.30 1092.38 733.68
00002602 00000028 796.42 221.66 512.46 694.04 862.17 448.57 1090.82 471.18 904.61 628.39 885.75 717.58 1089.38 735.12
00002603 00000029 799.62 224.69 509.06 706.27 862.10 451.05 1088.42 475.74 899.90 635.42 884.18 725.13 1089.51 744.46
00002604 00000030 799.32 218.88 501.40 720.51 862.03 461.80 1082.39 494.32 893.25 644.24 882.86 741.57 1066.77 768.30
00002605 00000031 801.11 244.72 487.90 693.35 866.66 474.65 1081.07 508.54 897.14 655.40 879.66 747.29 1049.27 775.71
00002606 00000032 794.73 232.81 491.83 693.03 848.86 474.13 1070.76 513.07 886.12 661.27 866.54 754.34 1034.13 786.99
00002607 00000033 792.16 234.86 492.39 678.14 850.15 471.43 1068.67 514.57 883.68 659.76 862.92 741.02 1034.68 776.91
00002608 00000034 794.80 237.21 491.78 668.81 849.89 470.34 1068.61 511.34 884.31 654.02 864.60 737.15 1038.74 770.95
00002609 00000035 795.40 237.67 492.06 660.93 854.49 464.99 1067.30 501.89 887.53 647.07 870.78 725.64 1045.77 756.01
00002610 00000036 787.34 228.69 497.25 667.32 851.17 456.16 1067.86 496.96 882.95 642.37 865.43 714.62 1051.37 748.02
00002611 00000037 784.60 214.02 493.79 679.38 849.91 449.54 1065.81 491.11 878.38 634.37 859.48 704.81 1051.54 738.84
00002612 00000038 785.06 220.97 493.89 674.09 849.46 442.72 1067.75 484.46 877.30 627.03 860.93 700.92 1054.96 734.98
00002613 00000039 783.10 216.97 495.46 675.44 848.35 442.15 1065.67 481.20 876.28 619.16 857.41 697.88 1051.46 729.90
00002614 00000040 781.43 216.07 491.87 670.63 845.59 437.74 1064.81 479.43 874.21 614.62 849.33 694.62 1039.75 729.08
00002615 00000041 781.32 223.47 493.15 660.06 842.64 435.10 1066.66 476.77 875.77 611.66 847.43 699.23 1025.36 733.67
00002616 00000042 782.18 212.55 490.43 670.43 845.06 435.06 1069.75 472.69 881.77 606.49 848.36 706.77 1018.91 738.32
00002617 00000043 778.89 205.87 499.30 693.27 844.59 431.65 1073.44 463.26 881.14 599.44 847.92 715.48 1018.77 742.33
00002618 00000044 776.43 191.36 500.10 704.50 844.91 427.49 1073.47 460.02 881.83 596.04 847.97 712.39 1020.61 740.01
00002619 00000045 769.78 186.53 501.84 701.71 841.68 422.56 1072.42 455.64 882.08 592.50 845.93 705.80 1021.12 733.79
00002620 00000046 760.61 185.52 505.41 712.70 837.56 421.59 1072.26 456.71 878.58 590.62 836.42 710.04 1008.85 740.00
00002621 00000047 753.50 182.39 507.16 731.24 830.83 425.89 1068.96 453.57 868.56 587.29 831.43 726.31 999.68 750.15
00002622 00000048 756.81 185.31 498.62 735.56 814.20 432.04 1048.80 458.30 850.59 591.29 818.05 730.01 985.21 753.84
00002623 00000049 738.57 196.95 508.84 722.98 801.20 434.03 1035.69 467.53 836.16 603.48 802.12 724.39 989.74 753.26
00002624 00000050 723.90 209.27 509.32 711.53 788.36 437.83 1021.25 477.43 824.39 622.71 796.76 723.59 991.95 756.33
00002625 00000051 715.30 207.72 512.87 728.93 782.82 445.10 1018.22 488.46 817.48 632.74 790.22 728.90 996.20 764.34
00002626 00000052 710.90 219.56 515.72 724.77 778.17 451.35 1015.04 495.03 815.19 640.97 788.57 733.43 996.95 768.83
00002627 00000053 711.08 222.93 518.14 719.85 778.24 453.25 1017.48 494.71 818.50 646.03 790.68 734.78 998.00 768.44
00002628 00000054 714.84 227.62 517.53 705.51 782.57 455.09 1021.82 492.66 827.53 646.73 798.60 732.75 1000.80 763.33
00002629 00000055 721.07 226.05 516.61 693.04 787.55 454.40 1029.02 491.27 838.12 647.42 802.99 730.51 1004.08 760.82
00002630 00000056 729.21 220.95 516.85 697.90 795.12 458.13 1039.45 492.03 848.79 648.04 809.22 729.21 1016.91 756.89
00002631 00000057 738.57 228.62 518.06 691.64 802.02 460.82 1048.30 492.25 854.69 650.50 818.05 731.32 1029.96 756.53
00002632 00000058 744.22 224.35 517.39 689.42 808.90 460.84 1058.54 491.16 867.05 648.66 824.94 726.00 1036.93 750.55
00002633 00000059 746.46 224.65 514.06 685.54 813.82 467.15 1062.70 488.20 879.01 643.76 838.48 735.49 1038.13 752.86
00002634 00000060 751.36 224.85 510.45 688.72 819.10 467.08 1065.91 486.72 886.25 644.43 843.07 739.14 1038.68 755.91
00002635 00000061 753.17 222.74 511.19 701.85 823.43 471.50 1065.65 485.79 889.15 643.76 854.56 748.85 1039.27 761.15
00002636 00000062 747.67 206.56 521.99 741.39 829.09 474.00 1068.08 471.12 899.93 643.08 870.61 775.39 1044.72 774.43
00002637 00000063 758.63 211.63 515.53 735.86 827.21 475.10 1070.60 477.36 894.86 643.68 869.21 774.80 1048.18 777.86
00002638 00000064 762.16 215.19 515.41 714.38 828.60 473.10 1071.86 484.00 893.67 648.65 863.84 761.48 1047.38 771.64
00002639 00000065 767.76 215.57 512.42 708.24 831.67 471.56 1073.11 487.50 892.10 650.72 861.19 753.49 1050.39 767.76
00002640 00000066 775.03 215.52 514.09 704.20 838.34 476.76 1078.82 490.94 902.62 656.62 870.31 748.04 1068.36 759.80
00002641 00000067 777.87 218.90 516.60 698.94 843.02 476.02 1084.52 488.97 910.02 660.62 876.49 741.52 1081.36 751.60
00002642 00000068 783.99 221.50 518.15 700.18 849.04 475.39 1091.11 484.29 919.25 660.62 883.13 739.64 1094.37 746.06
00002643 00000069 785.48 216.31 519.50 707.19 852.04 478.85 1094.76 483.81 922.47 659.11 888.36 744.94 1099.01 748.16
00002644 00000070 787.68 213.08 515.20 709.73 852.50 479.48 1094.21 482.39 923.87 658.38 893.36 750.95 1093.52 753.15
00002645 00000071 784.15 206.29 514.40 715.27 851.40 482.62 1089.41 479.94 926.20 654.58 895.65 753.40 1087.08 751.54
00002646 00000072 775.67 209.16 523.17 710.06 845.35 483.54 1084.27 472.53 926.08 653.56 898.01 753.73 1090.62 744.76
00002647 00000073 768.15 212.44 530.90 706.20 841.69 486.98 1079.48 463.82 929.51 649.36 909.70 759.31 1096.75 740.15
00002648 00000074 762.98 216.43 537.01 706.97 838.55 491.97 1079.46 454.07 936.65 646.30 921.15 767.25 1108.88 735.28
00002649 00000075 756.99 225.08 539.73 694.05 835.08 496.19 1073.90 445.18 941.87 638.49 928.62 769.16 1113.83 725.96
00002650 00000076 752.89 228.20 548.22 695.01 837.26 507.29 1075.13 444.96 950.64 638.02 939.28 773.18 1124.96 721.26
00002651 00000077 738.31 232.18 555.71 695.29 828.13 512.57 1064.68 440.49 949.51 641.45 944.39 782.85 1126.85 722.55
00002652 00000078 731.62 228.04 560.86 698.71 822.65 522.54 1054.86 442.00 947.37 646.68 948.38 786.93 1128.01 719.72
00002653 00000079 721.59 216.75 563.06 715.14 813.15 528.62 1044.81 445.61 940.83 645.28 934.49 787.32 1124.52 717.29
00002654 00000080 713.45 217.48 565.28 707.12 802.19 526.67 1041.92 447.03 929.92 645.32 916.28 781.54 1114.93 713.99
00002655 00000081 716.31 219.84 562.94 710.36 800.26 528.03 1040.80 450.70 918.85 644.95 906.27 782.45 1108.74 716.67
00002656 00000082 717.34 218.60 558.42 713.18 796.75 524.10 1037.68 454.20 909.80 651.07 897.27 778.91 1101.96 719.33
00002657 00000083 717.66 222.31 555.76 718.32 795.25 520.99 1035.99 459.09 904.50 659.03 894.52 785.99 1093.64 733.24
00002658 00000084 712.77 226.33 558.76 726.57 795.08 520.10 1032.37 461.42 902.48 663.24 901.92 801.57 1080.93 752.06
00002659 00000085 715.99 227.24 550.80 741.19 799.16 531.30 1029.80 471.28 897.75 665.29 903.21 815.19 1072.28 764.90
00002660 00000086 722.24 221.56 544.28 745.77 802.62 531.91 1025.49 480.50 884.37 665.36 894.84 810.69 1062.76 767.33
00002661 00000087 722.61 219.24 543.93 734.62 795.56 521.06 1022.22 470.72 876.30 658.58 884.93 797.92 1053.26 755.85
00002662 00000088 726.96 219.22 544.85 732.29 797.41 511.56 1023.95 470.57 868.73 650.93 875.71 789.52 1044.51 755.51
00002663 00000089 733.25 213.08 541.12 730.96 796.15 499.94 1024.66 465.88 859.15 645.65 866.77 782.74 1036.34 754.42
00002664 00000090 741.77 205.38 532.52 730.42 796.93 490.68 1025.78 465.39 853.67 642.20 855.04 773.24 1031.00 752.12
00002665 00000091 749.29 209.11 528.61 721.91 802.89 488.07 1028.36 466.58 853.84 638.07 856.70 767.35 1029.17 749.81
00002666 00000092 743.85 211.50 533.48 725.87 807.38 487.37 1037.47 468.09 864.70 637.52 864.28 772.61 1040.61 757.17
00002667 00000093 749.10 222.03 531.62 704.33 814.39 485.83 1037.24 469.20 873.24 641.18 876.48 764.51 1049.58 750.88
00002668 00000094 759.01 217.30 527.73 721.02 825.42 481.70 1043.02 465.69 879.14 637.62 886.84 763.80 1059.09 750.45
00002669 00000095 773.28 222.50 521.88 723.22 837.30 479.65 1055.21 469.21 886.95 635.57 893.39 759.46 1074.94 749.90
00002670 00000096 791.23 214.85 521.65 732.97 849.93 477.52 1071.40 463.25 892.24 621.28 893.20 757.06 1079.31 744.68
00002671 00000097 802.80 205.28 515.23 741.05 860.57 473.97 1081.19 464.15 904.27 618.69 898.85 756.86 1077.04 748.69
00002672 00000098 813.20 206.50 509.93 728.75 865.19 469.58 1084.85 464.67 908.40 619.25 899.91 749.91 1075.28 745.75
00002673 00000099 817.32 204.24 508.51 719.25 869.12 465.77 1090.78 465.74 912.34 616.56 899.62 744.57 1071.49 744.71
00002674 00000100 819.26 204.78 505.84 708.60 871.70 463.02 1092.30 462.17 914.86 611.81 900.14 738.75 1070.35 738.34
00002675 00000101 822.38 200.79 499.53 709.17 874.94 461.19 1091.36 458.15 916.52 604.48 901.78 739.91 1065.36 737.86
00002676 00000102 821.91 200.37 504.02 716.47 876.54 459.68 1091.85 454.46 916.73 600.55 906.85 745.40 1063.88 741.83
00002677 00000103 823.29 199.47 506.50 726.29 878.79 459.29 1093.64 452.50 916.47 595.96 907.95 748.57 1065.79 743.66
00002678 00000104 824.38 200.94 507.02 733.99 884.27 457.20 1093.93 451.58 917.89 592.04 915.20 749.18 1067.54 745.02
00002679 00000105 825.56 200.90 506.83 741.60 886.68 457.43 1096.19 452.42 920.21 592.32 917.97 750.30 1069.92 746.84
00002680 00000106 821.09 214.66 510.12 723.24 892.82 462.04 1106.31 460.82 929.31 602.80 926.15 754.76 1083.29 754.53
00002681 00000107 822.41 214.70 507.55 725.81 893.06 458.82 1107.02 462.02 926.09 603.98 925.00 753.25 1088.01 756.10
00002682 00000108 819.34 210.54 511.38 731.23 890.76 454.63 1104.81 458.65 922.50 603.81 922.92 752.55 1088.37 755.97
00002683 00000109 830.03 212.36 506.72 737.42 888.43 455.65 1096.51 454.11 915.84 598.38 919.21 747.73 1081.69 747.29
00002684 00000110 829.70 201.93 507.43 753.28 890.25 455.08 1095.59 451.33 914.35 594.10 922.14 751.51 1079.72 749.28
00002685 00000111 828.80 202.62 502.87 746.22 888.46 453.33 1092.70 451.67 914.07 592.12 918.25 749.36 1070.27 749.18
00002686 00000112 828.15 200.28 496.71 718.12 884.03 453.62 1089.62 456.12 913.00 592.50 907.50 741.72 1050.90 744.71
00002687 00000113 827.44 200.38 491.44 700.85 876.61 453.08 1088.29 458.81 908.71 595.85 894.84 737.80 1044.45 743.57
00002688 00000114 826.87 199.19 491.84 697.26 874.63 451.31 1088.06 459.84 907.74 596.37 888.46 735.82 1039.26 744.19
CROP_BBOX: 367 0 1576 1080
