Video ID: 	JlZouV-C0z0
H: 	1080
W: 	1920
FPS: 	25.0

FRAME INDEX X0 Y0 W H [Landmarks (5 Points)]

00005245 00000000 643.51 172.74 439.39 586.11 698.89 404.42 880.20 392.21 743.43 510.20 733.14 601.21 904.97 587.35
00005246 DELETE   645.07 170.01 437.92 589.30 701.62 404.57 882.38 391.91 746.49 508.59 734.49 601.28 905.21 587.05
00005247 00000002 646.47 169.43 435.36 587.45 703.65 403.72 884.94 391.52 750.10 505.92 735.61 599.54 906.93 585.77
00005248 00000003 646.91 165.16 435.68 591.00 703.28 402.69 884.35 387.62 748.73 502.48 736.83 599.95 907.64 583.75
00005249 00000004 646.86 164.31 435.86 591.05 703.22 402.27 883.93 387.35 748.02 502.18 736.81 599.93 906.65 583.89
00005250 00000005 646.87 163.70 436.26 590.91 702.90 402.37 884.02 387.00 748.66 502.21 737.20 600.12 907.35 583.69
00005251 00000006 647.59 164.15 435.82 589.82 703.87 402.87 884.32 387.60 749.85 502.34 738.09 599.20 908.44 582.79
00005252 00000007 648.31 164.71 434.86 588.04 704.29 403.24 884.64 388.84 750.33 503.60 737.87 598.44 908.42 582.85
00005253 00000008 648.55 165.29 434.31 586.33 704.78 402.89 884.10 388.50 750.23 502.58 738.32 598.02 907.51 582.46
00005254 00000009 648.36 166.55 433.34 584.79 704.33 403.18 883.23 389.34 749.41 503.75 737.81 598.19 906.34 583.15
00005255 00000010 648.09 166.75 433.67 584.51 703.46 403.01 880.84 389.39 746.23 503.55 737.08 599.03 903.23 584.17
00005256 00000011 648.46 167.41 432.84 583.63 703.23 403.50 879.90 390.63 745.34 504.69 736.33 598.57 902.31 584.36
00005257 00000012 647.48 168.11 433.03 583.39 702.19 403.17 878.03 390.49 743.81 505.00 735.88 599.44 900.01 585.41
00005258 00000013 645.89 166.48 432.75 586.46 700.74 402.61 876.38 390.48 741.96 505.12 734.43 600.69 897.13 587.26
00005259 00000014 645.80 166.43 433.53 587.75 699.80 403.21 876.07 391.14 740.46 506.00 733.46 602.61 895.52 589.27
00005260 00000015 646.48 166.56 433.13 587.72 699.98 403.28 876.28 391.45 740.22 506.80 733.64 602.78 895.74 589.66
00005261 00000016 647.39 161.52 435.37 588.94 698.74 402.38 876.90 389.48 740.66 509.47 735.98 597.37 889.69 585.61
00005262 00000017 644.84 164.39 433.48 580.10 687.85 401.85 865.24 387.26 726.24 513.85 727.09 600.90 875.02 587.15
00005263 DELETE   639.48 161.61 430.27 574.34 681.15 398.02 854.13 387.99 711.46 513.07 717.88 602.87 854.12 593.99
00005264 DELETE   637.27 163.37 421.32 574.92 674.17 403.83 840.69 393.72 696.42 511.62 709.25 612.18 835.98 603.65
00005265 00000020 635.37 164.27 414.64 580.58 671.31 407.01 828.23 396.42 684.17 514.13 709.04 617.65 827.65 608.36
00005266 00000021 632.79 162.43 411.31 588.19 671.79 406.06 823.16 399.39 688.79 514.44 710.49 613.27 830.72 607.16
00005267 00000022 628.54 165.42 418.61 578.79 665.31 406.16 822.21 398.76 675.42 515.68 702.36 614.54 821.06 607.41
00005268 00000023 623.56 163.76 417.74 579.43 661.56 407.78 816.62 401.04 677.47 516.60 698.10 611.94 822.54 605.84
00005269 00000024 618.90 166.32 417.72 575.89 653.49 401.41 810.55 401.72 659.68 514.02 687.89 608.29 806.69 606.92
00005270 00000025 616.70 164.82 417.52 582.31 650.59 394.98 805.45 403.72 651.82 518.42 684.95 605.93 803.11 610.61
00005271 00000026 616.75 165.89 418.07 583.36 649.07 396.11 805.66 406.20 650.29 522.11 683.10 608.63 801.36 614.43
00005272 00000027 615.29 166.67 418.21 584.98 647.97 399.35 809.45 409.80 655.56 525.25 678.74 611.97 799.15 618.48
00005273 00000028 619.80 171.52 412.67 581.47 650.01 409.74 804.05 412.69 660.83 530.76 683.17 619.81 805.42 620.96
00005274 00000029 617.98 170.90 414.65 584.81 651.01 413.88 804.42 413.09 663.62 530.49 688.39 623.88 809.07 621.98
00005275 00000030 618.71 176.28 412.80 581.25 651.38 414.76 802.43 414.80 661.67 532.18 689.83 624.71 809.60 623.23
00005276 00000031 618.80 175.58 413.52 582.11 652.69 415.56 803.05 415.36 662.67 533.03 691.63 624.92 811.81 623.24
00005277 00000032 617.89 176.05 414.90 580.07 653.49 414.57 806.79 413.73 666.60 532.34 690.35 623.40 813.51 621.42
00005278 00000033 615.33 170.55 419.42 584.69 654.78 415.96 813.10 409.69 673.92 525.66 690.30 623.82 813.92 618.04
00005279 00000034 616.10 164.74 421.64 588.86 656.01 412.70 817.54 406.48 678.46 523.04 690.99 622.66 815.12 617.22
00005280 00000035 615.56 163.88 420.91 589.53 655.50 411.05 818.95 405.38 678.10 522.31 689.61 621.14 816.67 616.22
00005281 00000036 615.46 164.96 418.00 589.67 654.29 413.76 814.35 407.62 676.05 523.92 688.29 623.10 815.43 617.57
00005282 00000037 615.20 169.45 417.22 589.43 654.46 413.46 813.20 408.91 673.65 526.79 688.10 622.27 820.12 617.82
00005283 00000038 616.68 180.68 418.32 588.90 656.12 413.07 811.15 413.56 671.23 533.29 692.78 622.16 826.32 621.26
00005284 00000039 617.85 179.01 416.80 589.09 659.48 421.98 814.68 417.72 677.38 534.70 697.74 628.37 829.20 623.84
00005285 00000040 615.65 175.10 421.25 585.48 657.69 418.31 820.87 413.96 683.89 534.64 694.49 626.40 829.10 622.14
00005286 00000041 616.59 178.42 419.93 580.49 658.07 418.44 826.31 417.54 689.54 539.07 692.29 625.23 828.51 623.97
00005287 00000042 617.55 178.12 421.15 579.98 658.72 417.72 826.97 418.14 691.95 540.02 691.39 624.13 826.55 624.12
00005288 00000043 617.01 180.80 423.34 579.18 659.48 418.38 827.38 416.79 691.38 538.44 692.47 625.09 826.85 623.42
00005289 00000044 619.82 181.32 418.61 581.74 661.95 420.20 828.82 418.59 692.17 539.32 695.40 627.43 828.64 625.79
00005290 00000045 621.74 184.21 413.85 580.78 662.66 421.58 829.25 421.21 692.28 543.83 697.43 632.45 827.18 631.86
00005291 00000046 623.12 185.53 412.46 579.49 663.03 422.81 828.05 423.78 691.72 546.45 698.37 635.09 825.63 635.56
00005292 00000047 625.74 187.18 410.69 576.99 663.79 423.43 826.87 424.81 691.65 546.09 699.09 636.68 823.49 637.50
00005293 00000048 628.79 188.25 408.27 576.70 665.96 423.45 827.14 425.98 693.51 546.89 701.04 637.43 823.77 639.05
00005294 00000049 634.88 194.86 405.73 574.96 671.60 426.68 829.02 429.45 696.47 548.59 707.73 640.77 826.96 642.58
00005295 00000050 639.22 196.85 408.70 577.73 675.78 426.01 834.33 429.38 698.97 548.66 714.21 640.01 837.46 642.25
00005296 DELETE   647.06 201.16 415.07 572.57 687.55 424.84 851.33 426.59 713.50 544.86 722.41 633.86 847.65 633.23
00005297 DELETE   651.61 201.18 422.21 571.92 696.65 426.31 869.32 429.29 730.91 548.19 728.88 634.52 859.61 635.72
00005298 DELETE   656.54 193.62 426.52 580.33 708.50 427.82 887.90 426.92 751.50 542.44 740.10 636.68 875.57 635.38
00005299 00000054 662.63 194.26 431.39 574.09 715.82 424.05 900.53 425.54 764.65 545.78 747.02 634.78 886.71 635.97
00005300 00000055 669.07 191.09 426.82 574.77 721.47 421.04 907.44 424.98 771.26 545.24 750.79 631.39 891.91 634.78
00005301 00000056 670.91 189.68 425.36 576.15 723.44 421.59 908.93 426.00 772.99 545.64 752.58 630.82 894.01 634.49
00005302 00000057 673.17 189.28 423.36 574.70 725.79 420.51 911.58 425.24 775.20 545.51 755.12 630.48 896.81 634.35
00005303 00000058 677.55 188.22 421.24 577.10 730.52 420.44 913.06 424.59 778.65 543.83 759.93 630.72 898.67 634.20
00005304 00000059 684.89 187.55 416.26 575.00 735.83 421.93 917.52 426.79 783.66 542.06 766.11 630.12 905.41 634.12
00005305 00000060 693.29 191.08 410.92 571.39 741.49 420.64 924.09 425.77 792.22 540.50 773.45 631.69 912.20 635.86
00005306 00000061 696.69 189.46 418.40 574.99 750.90 421.98 939.19 422.33 803.31 539.62 780.68 633.24 923.18 633.03
00005307 00000062 703.85 188.98 416.79 574.25 758.80 422.40 947.14 423.66 812.02 540.51 787.47 632.50 926.93 633.07
00005308 00000063 705.54 189.56 415.73 573.40 760.89 424.66 946.66 425.91 811.73 541.00 788.45 632.25 926.20 632.81
00005309 00000064 708.33 191.76 413.39 569.84 761.30 424.74 943.60 425.90 809.71 539.91 789.11 632.77 923.66 633.07
00005310 00000065 710.97 192.33 411.99 568.26 762.44 423.59 944.37 425.89 809.35 540.34 789.19 632.42 923.82 633.72
00005311 00000066 712.44 193.65 413.59 566.91 766.34 424.26 948.84 427.89 814.68 541.85 791.58 631.00 928.08 633.44
00005312 00000067 713.79 193.08 416.81 568.39 771.07 425.47 954.02 428.76 819.74 543.16 796.62 630.20 932.86 632.48
00005313 00000068 715.40 193.98 418.27 567.38 773.95 427.20 957.19 430.32 824.40 543.61 799.23 630.91 935.43 633.02
00005314 00000069 716.32 194.38 416.57 566.78 774.26 428.95 955.65 431.28 823.53 543.75 799.73 631.36 934.58 632.75
00005315 00000070 717.27 196.89 415.13 564.47 773.27 429.10 953.13 431.43 820.88 544.31 800.06 632.05 932.63 633.27
00005316 00000071 718.75 197.47 413.84 563.22 773.81 429.17 952.76 431.26 821.36 544.52 800.80 632.13 932.72 633.14
00005317 00000072 718.74 196.03 416.03 564.60 776.16 429.57 956.90 432.36 826.60 544.52 803.09 631.49 936.37 633.09
00005318 00000073 720.78 195.50 416.10 565.04 777.21 428.54 959.76 431.19 828.73 544.13 805.40 631.20 939.60 632.59
00005319 00000074 720.92 196.68 415.90 563.55 777.36 429.64 958.37 432.20 829.33 544.83 805.94 631.79 938.76 633.13
00005320 00000075 721.61 199.53 414.92 561.26 776.69 429.31 955.96 432.89 826.14 544.87 804.30 631.38 936.46 633.43
00005321 00000076 721.27 200.69 414.01 560.59 775.87 430.24 953.09 432.69 823.50 544.69 804.51 631.95 935.04 633.06
00005322 00000077 721.03 202.66 413.12 559.61 775.53 431.19 950.55 432.79 820.74 544.14 805.31 631.15 934.29 631.46
00005323 00000078 720.84 203.49 412.16 559.38 774.81 431.54 948.46 431.93 818.96 543.13 804.99 631.27 933.10 630.64
00005324 00000079 720.12 203.26 411.22 559.83 772.72 432.22 944.52 432.59 813.10 543.11 804.46 631.13 931.36 630.37
00005325 00000080 720.14 202.94 411.21 558.26 771.82 431.76 943.38 432.48 812.80 543.84 804.72 631.55 930.99 631.15
00005326 00000081 721.10 203.46 410.46 556.39 771.66 429.24 944.88 430.22 812.76 543.58 804.03 631.46 931.42 631.19
00005327 00000082 721.26 203.48 410.94 557.27 772.78 432.34 944.94 432.19 814.74 543.85 803.83 631.47 932.69 630.12
00005328 00000083 722.18 202.76 411.27 557.94 774.18 433.81 945.85 432.91 815.72 543.57 805.22 631.41 933.63 629.51
00005329 00000084 722.90 203.01 413.47 557.86 774.63 433.12 947.03 432.35 816.61 543.69 806.08 631.03 935.15 629.21
00005330 00000085 724.40 201.84 414.74 558.47 775.64 432.43 949.06 432.37 818.70 543.95 807.64 630.73 936.27 629.49
00005331 00000086 725.36 200.50 415.87 560.81 776.71 432.16 951.28 432.65 820.38 544.63 808.24 631.19 938.58 630.52
00005332 00000087 726.24 198.55 416.94 563.12 777.73 430.38 954.44 431.56 822.74 543.14 808.92 630.42 940.64 630.38
00005333 00000088 728.19 197.09 416.61 564.61 779.72 429.76 956.05 429.98 824.33 540.76 811.72 628.58 943.72 627.65
00005334 00000089 728.75 196.80 418.05 564.28 780.94 429.16 959.60 428.16 827.19 539.52 813.98 627.30 947.50 625.42
00005335 00000090 730.35 196.40 418.57 566.32 782.81 428.43 961.01 424.96 829.63 537.44 816.92 628.02 951.05 624.46
00005336 00000091 730.28 196.91 420.24 564.68 782.95 427.41 962.00 424.07 831.02 537.23 817.56 626.66 953.08 623.24
00005337 00000092 731.11 195.13 419.46 563.06 782.64 426.02 962.00 422.78 831.36 536.66 817.23 625.25 953.94 621.83
00005338 00000093 731.19 194.70 419.08 562.76 782.11 425.92 961.63 422.95 830.82 536.69 816.61 625.42 952.74 622.20
00005339 00000094 731.14 194.30 418.27 562.60 781.12 426.02 960.46 423.89 829.06 536.83 814.88 625.54 950.20 622.94
00005340 00000095 730.97 196.50 417.72 560.57 778.87 426.71 958.21 424.92 824.93 536.26 812.39 626.16 945.83 623.62
00005341 00000096 730.53 197.61 417.53 562.02 777.66 425.31 954.25 422.98 821.25 534.67 811.80 626.36 942.11 623.39
00005342 00000097 727.47 193.66 417.07 568.58 776.11 423.46 950.16 420.67 816.50 532.68 811.25 626.40 938.36 623.03
00005343 00000098 725.07 192.43 416.35 567.90 774.11 419.55 944.80 421.14 810.93 533.04 807.00 623.84 933.63 624.02
00005344 00000099 722.79 187.67 416.52 565.54 767.27 414.32 941.54 419.37 801.62 533.52 799.11 619.01 929.73 621.74
00005345 00000100 722.16 189.42 414.09 559.79 763.66 412.59 936.04 419.96 795.94 534.24 793.79 616.51 925.39 621.08
00005346 00000101 721.59 190.49 414.02 558.96 762.24 411.23 933.11 419.63 793.31 534.55 792.75 616.90 921.60 622.38
00005347 00000102 721.73 192.47 413.81 562.71 762.28 412.90 931.05 419.38 792.20 535.32 794.70 620.98 919.78 625.03
00005348 00000103 722.04 193.63 414.17 565.89 762.94 412.77 929.98 419.71 791.50 537.01 795.58 622.72 920.78 627.08
00005349 00000104 721.53 192.74 414.50 566.60 762.73 413.14 929.46 418.74 791.56 535.93 796.13 623.43 921.23 626.65
00005350 00000105 721.59 190.17 413.65 562.88 760.87 411.43 931.85 419.91 790.94 537.08 791.60 620.58 921.09 626.32
00005351 00000106 721.62 187.83 415.83 563.84 762.25 410.57 935.06 418.70 794.82 535.34 792.50 619.09 922.47 624.78
00005352 00000107 721.66 187.16 417.87 569.03 763.87 412.43 938.39 419.19 797.96 536.26 794.97 621.36 926.35 625.84
00005353 00000108 721.01 189.98 422.82 571.45 766.76 414.83 943.58 421.26 801.70 539.05 798.61 623.37 932.26 627.46
00005354 00000109 724.80 190.82 423.15 573.52 773.58 422.79 946.39 422.82 811.10 539.78 810.00 629.40 937.47 628.24
00005355 00000110 730.22 194.61 420.86 567.17 778.66 425.90 953.47 424.54 817.31 539.64 814.37 631.23 942.67 629.05
00005356 00000111 736.10 196.09 420.84 561.46 782.63 423.58 958.89 424.23 823.67 539.82 816.88 626.89 950.10 626.38
00005357 00000112 743.37 193.68 418.66 556.22 788.50 419.34 965.78 420.38 831.26 537.94 822.12 623.87 955.54 623.98
00005358 00000113 747.50 195.78 416.25 551.00 793.52 416.84 971.15 421.87 836.80 539.83 825.52 620.53 961.16 624.01
00005359 00000114 752.54 194.95 413.97 547.24 798.12 418.86 975.43 422.19 844.49 539.91 831.13 620.49 967.48 622.73
00005360 00000115 757.37 194.37 410.84 546.24 802.75 418.16 977.07 423.10 849.10 537.97 834.70 617.89 968.56 621.24
00005361 00000116 762.20 195.97 405.10 544.29 806.97 418.43 980.53 422.80 853.12 534.40 838.68 617.97 969.93 620.81
00005362 00000117 769.34 191.44 398.32 546.59 811.30 418.61 984.07 421.05 856.35 528.77 839.52 617.36 970.90 618.76
00005363 00000118 772.83 187.14 396.99 550.15 814.83 413.65 988.49 416.24 860.55 525.07 842.28 614.94 975.71 616.56
00005364 00000119 773.04 183.98 397.29 552.77 816.31 409.38 991.18 411.99 862.56 522.44 843.51 614.29 978.31 616.08
00005365 00000120 773.43 184.96 397.54 551.58 817.60 407.70 993.21 410.39 864.50 521.99 845.53 613.83 980.98 615.67
00005366 00000121 773.05 183.63 399.05 554.60 818.16 406.68 993.20 408.00 865.10 519.98 847.74 614.60 981.91 615.35
00005367 00000122 771.92 182.94 399.75 554.70 818.31 405.55 994.89 405.52 866.30 518.81 848.24 614.64 983.43 614.44
00005368 00000123 770.84 182.95 402.76 553.37 819.02 403.52 996.37 402.55 868.67 517.26 849.29 612.79 984.19 611.98
00005369 00000124 770.33 181.39 402.40 554.54 820.07 402.89 996.67 401.80 869.39 512.86 848.51 611.14 983.23 610.21
00005370 00000125 767.08 179.06 404.20 556.86 818.85 402.95 996.25 400.94 867.52 510.11 846.36 610.23 981.29 608.61
00005371 00000126 764.08 177.72 405.39 556.68 817.48 403.30 994.77 401.11 865.19 508.55 844.13 608.74 979.14 606.99
00005372 00000127 761.90 176.29 405.51 557.94 815.78 403.16 992.68 401.02 863.34 509.06 842.40 608.50 977.12 606.69
00005373 00000128 760.17 179.96 406.71 554.35 813.45 403.55 989.37 403.36 858.49 512.46 838.94 608.27 974.44 607.98
00005374 00000129 758.19 184.75 405.60 550.12 809.97 408.12 986.88 407.50 855.33 516.96 836.14 609.76 973.68 609.06
00005375 00000130 754.60 186.44 407.37 553.47 806.17 412.27 985.37 411.81 852.78 522.06 831.87 613.93 973.39 613.19
00005376 00000131 749.96 186.88 411.97 560.80 803.09 414.54 984.95 413.46 852.59 526.60 831.23 618.70 975.54 617.62
00005377 00000132 746.01 184.39 414.23 557.45 798.96 415.36 983.65 414.51 853.97 532.05 830.65 618.97 973.92 618.07
00005378 00000133 746.01 183.08 412.34 553.82 798.06 415.15 983.65 414.54 853.92 531.64 830.29 616.19 973.49 615.40
00005379 00000134 747.28 182.99 411.16 554.16 800.17 418.56 983.33 418.34 855.62 532.23 831.53 616.22 976.04 615.57
00005380 00000135 750.48 184.27 408.90 559.07 802.90 417.64 982.76 415.81 854.20 530.68 836.25 619.45 976.22 617.65
00005381 00000136 751.44 184.34 407.95 565.07 804.01 417.52 983.57 415.19 854.37 530.61 837.18 622.64 977.35 620.40
00005382 00000137 750.12 184.49 410.34 556.34 802.35 417.18 983.82 417.59 855.53 530.67 833.08 617.26 975.89 617.13
00005383 00000138 753.67 180.76 406.17 555.00 803.88 418.49 985.17 417.85 857.90 527.32 833.74 616.27 975.25 615.35
00005384 00000139 753.39 179.76 405.48 555.68 804.28 416.82 987.64 415.77 858.48 526.46 834.53 615.97 977.76 614.75
00005385 00000140 755.08 184.18 403.33 554.40 806.17 418.38 987.57 415.62 858.51 524.51 838.31 618.65 976.75 616.01
00005386 00000141 757.23 187.36 402.62 555.24 808.74 418.87 989.67 417.35 860.05 528.06 839.68 621.79 977.79 620.22
00005387 00000142 761.12 189.58 400.68 556.54 811.50 420.50 991.53 419.55 863.82 531.88 843.28 624.97 982.58 623.94
00005388 00000143 764.14 189.59 398.61 557.20 814.32 419.23 995.42 418.31 869.37 532.17 848.81 625.13 986.05 623.99
00005389 00000144 768.65 191.51 399.55 554.79 817.62 417.16 999.59 417.59 874.34 534.39 854.45 624.41 991.01 624.22
00005390 00000145 773.10 188.74 406.74 556.44 826.79 417.49 1006.37 412.97 880.84 528.91 862.59 625.32 994.94 620.86
00005391 00000146 777.40 188.58 403.04 553.64 833.15 416.29 1011.61 414.62 887.04 526.95 865.53 621.56 997.83 619.05
00005392 00000147 783.28 189.33 397.35 547.98 839.49 418.85 1016.01 417.02 892.60 527.20 869.28 619.45 1001.78 616.83
00005393 00000148 787.18 189.47 395.31 545.83 842.61 419.61 1020.66 417.06 897.41 526.74 872.28 618.26 1005.27 615.04
00005394 00000149 789.83 190.16 394.31 542.83 844.89 419.54 1022.99 416.58 899.94 526.14 873.31 616.61 1007.43 613.26
00005395 00000150 790.63 190.47 392.94 540.70 845.46 418.52 1021.76 415.68 899.45 524.49 873.86 615.45 1006.38 612.17
00005396 00000151 790.89 190.06 390.86 537.81 844.87 415.25 1020.68 413.06 897.99 522.57 872.83 612.47 1005.52 609.72
00005397 00000152 791.26 190.07 389.87 538.00 844.89 413.11 1019.89 412.11 895.95 520.87 871.32 610.44 1004.76 608.66
00005398 00000153 790.06 190.67 391.70 537.26 842.80 413.23 1018.78 413.16 892.46 521.87 869.32 607.80 1005.79 606.37
00005399 00000154 789.83 190.65 392.22 535.97 841.69 411.23 1015.44 410.86 888.55 519.06 868.38 606.32 1003.10 604.70
00005400 00000155 788.62 191.84 392.67 535.48 840.56 409.92 1012.86 410.95 885.38 518.11 866.29 605.60 1000.25 605.16
00005401 00000156 786.42 189.08 393.51 537.41 839.50 409.58 1008.35 410.59 882.75 516.71 866.57 605.87 995.67 605.55
00005402 00000157 783.75 186.93 396.56 534.99 831.00 404.73 1000.54 405.06 871.50 514.56 859.96 603.47 989.59 602.92
00005403 00000158 779.24 191.33 392.19 529.68 822.31 401.85 995.05 405.39 868.27 516.57 851.22 599.84 984.03 602.27
00005404 00000159 776.67 193.53 389.13 527.17 818.92 405.82 988.83 406.39 865.21 514.87 847.33 600.44 978.20 600.45
00005405 00000160 775.80 192.68 385.97 531.08 820.09 406.78 983.51 408.33 860.63 511.88 845.31 600.14 972.76 600.81
00005406 00000161 771.46 192.93 387.93 529.30 817.16 405.37 980.23 406.38 855.35 508.64 840.82 598.41 968.53 598.71
00005407 00000162 768.11 194.48 388.35 526.77 812.54 407.77 975.72 409.24 850.72 511.21 836.66 597.50 963.11 597.84
00005408 00000163 764.57 193.06 389.53 527.59 808.61 407.66 969.68 409.35 845.60 512.76 832.93 596.70 958.62 596.97
00005409 00000164 762.87 194.92 388.42 526.06 804.52 409.18 963.94 410.76 838.39 512.72 829.52 599.56 949.74 599.63
00005410 00000165 763.05 195.43 384.41 525.80 801.80 408.10 959.72 410.38 834.96 510.79 825.04 602.10 940.57 602.76
00005411 00000166 762.07 195.75 384.55 526.55 799.57 408.39 958.04 409.49 832.28 508.59 822.78 605.19 935.95 604.91
00005412 00000167 761.53 193.76 386.25 525.77 797.22 408.05 956.65 407.29 828.04 507.87 820.25 606.48 933.14 604.94
00005413 00000168 761.91 190.97 384.03 527.92 796.40 406.62 954.28 405.04 825.60 507.68 820.12 605.13 933.79 602.94
00005414 00000169 759.42 189.77 385.77 529.37 796.62 404.54 952.87 402.74 824.81 505.46 821.72 601.47 935.44 599.05
00005415 00000170 758.07 188.71 385.37 530.84 796.70 404.61 951.21 402.22 823.82 504.03 823.52 601.39 934.94 598.48
