Video ID: 	rIcZumjxg1o
H: 	1080
W: 	1920
FPS: 	23.976023976023978

FRAME INDEX X0 Y0 W H [Landmarks (5 Points)]

00007655 00000000 583.22 201.98 402.62 608.39 783.67 439.82 943.78 414.00 938.59 549.62 805.97 661.43 942.58 640.82
00007656 00000001 585.17 202.57 405.05 613.02 785.76 439.13 945.56 413.80 941.08 549.41 808.69 662.17 946.28 641.75
00007657 00000002 592.51 198.60 410.85 621.22 790.59 433.23 950.66 409.12 943.10 549.21 821.40 662.66 946.72 642.02
00007658 DELETE   609.02 211.55 408.65 615.37 803.00 431.76 967.26 406.73 962.60 548.25 833.65 668.03 961.77 646.90
00007659 00000004 626.40 217.30 407.26 611.01 825.75 434.75 985.34 413.01 982.30 547.69 847.68 666.91 980.46 649.19
00007660 DELETE   644.76 218.02 402.18 609.72 849.00 437.19 1007.61 418.57 1006.14 555.87 860.79 667.24 998.00 652.80
00007661 DELETE   656.50 212.51 405.09 616.50 874.80 438.68 1025.87 432.07 1026.44 557.66 881.08 665.43 1010.90 660.37
00007662 DELETE   666.75 208.47 412.60 620.59 880.99 438.28 1034.52 430.03 1037.62 556.44 895.82 667.95 1015.79 661.36
00007663 00000008 673.98 212.17 416.46 622.02 891.79 440.33 1044.03 432.01 1049.81 559.46 902.81 672.00 1022.71 665.57
00007664 00000009 682.57 203.30 411.38 633.91 902.59 442.27 1049.55 437.88 1055.74 561.73 907.66 674.30 1024.02 671.21
00007665 00000010 684.41 203.83 413.05 633.39 907.62 444.21 1054.14 442.81 1058.65 563.81 909.56 674.58 1026.14 673.94
00007666 00000011 685.62 197.76 413.75 638.97 911.77 442.28 1056.88 443.36 1060.98 563.22 910.41 672.82 1025.96 674.23
00007667 00000012 686.06 197.59 414.34 638.97 913.06 439.67 1056.98 443.68 1061.47 560.54 909.89 669.45 1025.18 673.12
00007668 00000013 686.27 203.08 415.14 630.20 912.46 436.21 1057.15 440.45 1059.84 557.11 910.51 665.57 1026.17 669.50
00007669 00000014 686.46 200.14 415.12 626.98 912.11 434.97 1057.69 436.75 1059.11 554.13 912.56 661.29 1029.19 663.04
00007670 00000015 687.24 198.94 414.05 622.02 913.08 434.76 1058.53 436.82 1059.94 553.03 915.12 658.72 1030.53 660.69
00007671 00000016 686.74 199.83 413.91 618.22 912.74 434.83 1058.36 436.32 1059.59 553.50 915.63 658.29 1030.42 659.83
00007672 00000017 685.25 197.77 414.21 622.82 910.91 435.38 1055.41 436.64 1057.83 554.18 913.08 658.82 1027.05 660.25
00007673 00000018 682.07 197.41 416.37 625.44 909.09 435.08 1052.39 436.66 1057.87 554.55 911.80 660.47 1023.88 662.16
00007674 00000019 679.87 195.76 416.08 627.70 907.94 435.81 1049.29 437.05 1057.06 555.65 910.38 661.25 1020.33 662.95
00007675 00000020 677.14 194.81 416.25 628.52 906.81 436.47 1047.41 438.05 1055.58 556.01 909.94 661.49 1018.47 663.45
00007676 00000021 676.04 199.72 416.24 624.53 904.02 436.52 1045.03 437.41 1053.22 555.97 908.95 662.73 1017.78 664.15
00007677 00000022 675.98 197.07 415.45 626.99 903.77 436.33 1044.31 437.59 1052.44 555.77 908.67 662.72 1016.57 664.40
00007678 00000023 677.15 193.19 414.21 625.40 903.91 437.06 1046.65 438.70 1050.99 554.32 917.42 661.55 1023.65 662.77
00007679 00000024 677.75 190.27 414.56 626.05 904.27 439.41 1049.61 438.56 1053.00 555.04 921.45 662.65 1028.88 661.50
00007680 00000025 677.93 190.99 415.30 627.58 904.02 440.46 1050.59 438.94 1054.42 556.22 920.35 664.35 1029.72 662.75
00007681 00000026 678.56 193.43 415.10 625.47 904.46 442.05 1052.37 440.68 1055.86 557.72 919.98 664.79 1031.17 663.31
00007682 00000027 678.67 195.51 415.30 620.79 904.30 442.11 1053.53 439.70 1054.51 557.51 921.30 663.91 1032.93 661.35
00007683 00000028 678.83 193.28 415.35 623.06 905.14 441.43 1054.26 439.78 1055.31 557.20 921.95 663.50 1033.14 661.52
00007684 00000029 678.35 191.31 416.14 625.83 905.50 442.21 1054.47 439.64 1056.42 557.50 922.09 664.15 1033.46 661.43
00007685 00000030 679.14 190.31 415.47 628.69 906.08 443.46 1054.39 439.84 1057.74 558.20 922.09 665.72 1033.55 662.28
00007686 00000031 680.64 193.59 413.76 626.29 907.05 445.00 1055.06 440.83 1058.19 559.98 922.33 667.73 1033.55 663.98
00007687 00000032 682.40 187.33 412.85 634.81 910.03 445.42 1055.82 441.28 1059.48 560.97 921.74 667.42 1032.75 663.78
00007688 00000033 684.18 190.36 411.94 631.96 911.31 445.97 1057.59 442.08 1060.66 562.11 922.40 668.45 1033.67 665.13
00007689 00000034 684.07 189.85 412.26 632.49 912.23 445.77 1057.00 441.94 1061.92 562.27 921.79 667.75 1032.35 664.59
00007690 00000035 683.17 191.13 412.91 630.73 911.36 444.40 1055.45 441.77 1059.94 561.67 919.73 666.57 1030.03 664.55
00007691 00000036 677.15 193.17 417.55 627.85 909.66 443.39 1051.61 441.89 1058.48 560.81 915.30 663.39 1025.46 662.57
00007692 00000037 674.49 191.45 420.80 627.02 910.13 442.89 1051.03 440.93 1060.01 560.80 911.70 659.04 1024.98 658.34
00007693 00000038 672.75 189.76 422.21 625.95 908.30 439.65 1049.92 439.49 1058.23 557.90 910.12 655.39 1024.24 656.24
00007694 00000039 673.17 193.19 422.03 621.04 906.42 438.68 1050.04 436.43 1056.26 557.16 909.58 654.63 1025.01 653.72
00007695 00000040 672.33 193.62 421.51 621.81 905.43 437.81 1046.80 436.13 1054.64 556.74 908.37 655.42 1021.40 654.98
00007696 00000041 674.65 187.44 417.39 634.18 906.11 439.54 1045.58 440.92 1051.80 557.69 909.86 659.93 1018.25 661.57
00007697 00000042 675.05 188.27 415.56 637.09 904.96 442.92 1045.30 443.29 1053.72 561.71 909.74 664.70 1018.05 665.67
00007698 00000043 674.36 196.67 416.29 628.19 904.43 447.33 1046.19 442.18 1057.25 566.03 910.05 668.02 1020.39 664.80
00007699 00000044 675.19 199.63 415.59 623.30 903.71 446.38 1047.89 440.68 1058.76 565.64 910.74 668.38 1021.76 664.71
00007700 00000045 676.49 193.38 414.23 628.09 905.15 445.43 1048.26 442.00 1057.47 564.14 912.44 667.05 1021.41 665.02
00007701 00000046 675.43 187.75 414.79 632.08 905.35 443.58 1048.00 441.55 1056.80 561.05 914.76 664.69 1022.45 663.61
00007702 00000047 676.46 187.26 413.07 628.64 905.93 441.81 1047.71 441.12 1055.10 558.35 915.33 661.12 1021.97 661.00
00007703 00000048 676.31 185.70 413.72 628.32 904.96 438.69 1047.92 437.91 1053.49 556.01 915.59 659.99 1022.09 659.75
00007704 00000049 673.68 191.05 415.25 621.43 902.60 436.38 1046.69 435.86 1051.22 554.97 914.11 659.63 1019.90 659.60
00007705 00000050 669.05 191.44 418.11 621.67 901.58 435.87 1044.57 437.00 1049.77 555.10 911.51 658.78 1017.26 660.07
00007706 00000051 668.35 188.57 418.05 626.42 901.50 435.93 1043.04 436.94 1049.00 555.76 910.50 659.52 1015.31 660.76
00007707 00000052 667.61 191.31 418.68 624.31 900.68 436.00 1042.62 437.59 1048.40 556.21 909.62 659.83 1015.01 661.60
00007708 00000053 668.87 191.78 417.98 622.69 901.97 434.98 1042.57 436.10 1050.03 555.24 909.53 659.00 1014.49 660.53
00007709 00000054 672.55 191.24 415.88 619.18 907.74 432.17 1044.86 433.38 1053.47 551.28 916.27 654.99 1018.38 656.54
00007710 00000055 679.74 194.07 413.44 615.38 916.61 427.91 1051.55 430.60 1061.41 547.18 923.73 652.07 1024.11 654.59
00007711 00000056 689.12 173.01 415.79 632.51 940.50 418.89 1067.08 424.92 1084.83 542.64 941.43 647.79 1034.66 654.24
00007712 DELETE   699.63 190.86 413.23 601.98 957.59 408.00 1072.04 413.88 1105.17 538.89 958.55 645.40 1037.45 652.57
00007713 DELETE   720.02 193.14 404.01 597.58 978.45 408.88 1078.04 414.75 1119.12 531.99 979.61 639.19 1045.51 646.60
00007714 00000059 726.69 205.52 415.99 581.47 1007.39 401.23 1080.64 405.96 1136.17 535.62 993.33 631.41 1044.37 641.88
00007715 DELETE   741.84 203.78 414.89 586.66 1020.03 406.07 1083.19 405.63 1146.19 535.58 1014.09 632.11 1059.63 637.30
00007716 DELETE   756.33 187.32 408.75 601.03 1030.52 408.59 1089.47 406.22 1157.51 535.82 1028.64 633.72 1070.85 636.40
00007717 00000062 764.18 179.55 405.34 611.70 1037.76 408.74 1093.48 411.21 1165.56 537.33 1031.83 634.26 1072.86 641.24
00007718 00000063 770.33 180.97 403.49 613.68 1041.94 408.07 1098.42 412.18 1168.75 537.81 1030.11 635.19 1071.60 643.89
00007719 00000064 771.83 168.37 402.09 621.48 1045.66 406.10 1099.11 413.15 1173.15 533.88 1033.44 629.42 1072.24 639.44
00007720 00000065 771.66 167.56 403.40 620.38 1047.10 402.60 1100.99 408.98 1174.79 531.95 1031.32 626.32 1071.70 636.33
00007721 00000066 770.12 163.76 404.33 628.10 1045.96 399.58 1097.28 407.70 1173.65 531.95 1023.36 623.91 1065.18 635.89
00007722 00000067 764.34 160.51 407.72 630.55 1040.77 396.11 1096.34 405.66 1169.40 531.79 1015.10 621.23 1061.89 634.17
00007723 00000068 759.60 165.96 410.18 618.66 1036.63 397.03 1096.70 404.28 1163.35 531.43 1014.43 618.74 1065.41 630.18
00007724 00000069 755.90 157.84 408.32 621.68 1034.79 397.03 1092.22 405.37 1159.99 528.77 1016.85 616.23 1065.91 627.32
00007725 00000070 754.91 160.24 409.31 620.99 1034.91 399.09 1092.22 406.41 1158.39 530.56 1017.67 618.28 1065.76 628.42
00007726 00000071 754.62 160.97 408.98 622.73 1036.42 401.47 1091.09 407.60 1159.01 533.41 1016.37 619.64 1063.11 629.00
00007727 00000072 756.65 155.88 404.95 625.77 1036.31 402.56 1089.43 408.71 1159.60 533.36 1015.26 618.41 1061.74 627.68
00007728 00000073 755.10 156.16 404.86 621.45 1035.43 402.56 1090.52 407.30 1159.18 533.20 1011.10 616.25 1059.94 624.71
00007729 00000074 751.76 158.14 405.55 616.03 1023.22 410.00 1088.48 409.71 1149.23 525.72 1006.25 612.37 1059.19 615.65
00007730 00000075 751.07 159.97 405.68 612.02 1023.73 406.13 1088.62 409.24 1148.42 522.93 1003.85 608.87 1057.25 615.08
00007731 00000076 751.42 161.26 404.33 608.96 1024.23 404.06 1087.94 409.89 1147.79 521.14 1001.31 605.54 1054.92 614.09
00007732 00000077 750.85 155.43 405.14 616.91 1025.38 404.60 1086.97 411.73 1147.42 522.47 998.76 604.39 1052.17 614.02
00007733 00000078 756.15 157.95 402.13 614.00 1035.33 396.00 1090.73 404.61 1157.30 529.83 998.38 608.03 1051.43 620.40
00007734 00000079 754.71 164.28 405.34 610.25 1035.39 399.30 1093.07 406.21 1156.88 533.65 997.66 610.76 1051.18 622.03
00007735 00000080 756.56 170.95 406.05 606.50 1036.11 401.51 1094.18 408.47 1156.86 535.78 997.61 611.90 1051.20 623.66
00007736 00000081 757.41 168.13 404.95 610.85 1037.21 399.00 1093.58 408.00 1157.28 535.03 996.69 610.85 1049.54 623.99
00007737 00000082 755.34 167.41 404.53 610.85 1035.20 396.48 1092.36 406.29 1155.21 533.25 992.80 609.14 1047.06 623.12
00007738 00000083 754.28 165.36 401.78 612.00 1034.23 394.14 1090.52 406.84 1153.04 531.53 986.77 605.32 1041.84 621.90
00007739 00000084 751.03 162.24 402.06 613.43 1029.33 393.00 1090.04 404.39 1149.87 529.54 981.56 604.54 1042.16 619.71
00007740 00000085 747.58 163.13 401.14 611.59 1027.70 392.40 1085.68 404.76 1147.16 528.22 978.65 604.37 1036.17 620.42
00007741 00000086 745.10 158.71 399.09 614.05 1026.66 389.71 1084.68 405.59 1146.01 526.59 978.37 603.44 1035.31 622.25
00007742 00000087 743.15 153.40 396.29 618.46 1021.28 387.57 1082.41 403.57 1143.20 524.87 974.36 603.06 1033.89 622.66
00007743 00000088 740.05 161.58 396.46 609.59 1014.71 387.67 1081.77 401.99 1139.43 524.74 969.92 604.32 1034.44 623.00
00007744 00000089 739.47 164.03 395.65 607.50 1013.14 388.23 1080.48 401.76 1138.32 525.41 967.77 605.06 1032.13 623.51
00007745 00000090 740.50 161.72 396.64 612.06 1015.25 388.71 1081.04 400.72 1141.77 526.20 968.35 606.08 1032.63 623.45
00007746 00000091 745.47 158.27 397.31 616.10 1028.79 394.04 1082.41 407.13 1147.22 529.57 978.15 605.35 1030.58 622.60
00007747 00000092 753.27 159.89 396.00 614.58 1034.68 392.54 1083.09 406.14 1149.73 528.12 983.26 602.93 1033.28 620.30
00007748 00000093 761.76 156.44 392.36 618.21 1037.82 390.16 1084.56 405.33 1152.85 525.43 984.40 599.79 1035.23 619.04
00007749 00000094 757.19 156.53 398.18 621.44 1026.37 398.09 1084.19 412.69 1141.92 519.68 981.96 595.34 1038.75 611.64
00007750 00000095 760.72 164.00 397.17 613.73 1027.66 396.96 1088.11 412.22 1144.66 518.44 981.54 594.34 1041.00 611.39
00007751 00000096 763.06 163.64 398.85 616.19 1030.39 399.02 1091.79 414.28 1147.52 519.52 983.42 595.73 1044.62 612.74
00007752 00000097 763.30 164.99 399.49 615.14 1031.65 399.41 1091.87 414.37 1148.43 519.59 984.76 595.74 1045.36 612.54
00007753 00000098 764.16 165.18 398.93 615.00 1031.07 398.95 1092.45 414.42 1148.32 518.90 983.41 595.30 1045.18 612.53
00007754 00000099 764.02 162.94 395.84 615.12 1029.23 396.56 1090.18 412.58 1145.60 517.05 981.89 592.63 1043.21 610.22
00007755 00000100 756.58 158.64 398.36 616.24 1027.07 392.55 1086.50 410.68 1142.71 514.53 980.16 589.95 1038.83 609.24
00007756 00000101 759.93 154.68 392.75 615.22 1035.66 383.24 1085.59 400.83 1150.21 521.67 979.06 594.81 1033.93 616.34
00007757 00000102 755.24 161.65 392.74 606.05 1029.67 384.95 1084.43 400.09 1145.42 521.08 976.67 595.72 1034.34 615.39
00007758 00000103 750.14 159.57 393.28 609.53 1026.65 386.20 1080.76 401.57 1144.20 520.72 973.92 596.32 1030.65 616.73
00007759 00000104 749.78 154.27 390.36 613.67 1022.64 387.65 1082.64 401.47 1143.21 521.36 972.57 598.26 1033.22 616.92
00007760 00000105 750.22 156.21 389.80 609.71 1018.46 388.50 1084.65 400.33 1140.78 522.21 973.56 600.45 1038.51 617.09
00007761 00000106 753.57 154.30 387.08 609.47 1017.44 388.53 1083.75 399.74 1140.46 520.00 973.47 599.02 1038.46 615.23
00007762 00000107 753.82 160.36 391.50 601.73 1021.37 382.29 1084.62 393.76 1142.48 515.50 976.44 595.99 1038.58 612.54
00007763 00000108 749.62 151.54 396.73 613.22 1023.70 382.16 1078.09 402.91 1140.39 503.42 980.11 580.35 1033.67 601.67
00007764 00000109 752.09 147.95 395.27 612.48 1025.16 376.24 1075.45 394.68 1140.20 498.43 978.73 574.97 1029.43 594.83
00007765 00000110 751.61 143.59 393.98 613.38 1023.64 373.67 1073.23 392.99 1138.99 495.61 977.88 573.13 1026.15 594.09
00007766 00000111 746.20 134.80 394.58 618.83 1018.12 370.85 1068.80 388.95 1137.21 494.20 967.53 570.58 1017.10 591.76
00007767 00000112 738.78 140.89 398.00 612.45 1008.96 368.90 1063.15 384.99 1134.29 491.33 961.39 569.61 1016.30 589.52
00007768 00000113 734.25 144.31 400.64 610.32 1002.30 371.59 1061.33 385.48 1130.86 492.01 958.69 572.61 1017.25 590.67
CROP_BBOX: 324 0 1420 1041
