Video ID: 	fK08N7ASTHc
H: 	1080
W: 	1920
FPS: 	29.97002997002997

FRAME INDEX X0 Y0 W H [Landmarks (5 Points)]

00007002 00000000 588.90 77.12 398.90 584.83 696.68 342.10 881.23 301.58 825.59 409.82 762.88 543.19 911.95 510.39
00007003 DELETE   590.41 76.68 398.73 580.39 707.12 341.93 885.78 299.06 842.26 403.01 775.14 538.37 921.07 503.27
00007004 00000002 602.06 76.76 389.99 575.34 722.21 342.15 895.54 297.67 861.52 397.50 789.59 532.37 936.80 495.62
00007005 00000003 611.70 74.43 384.20 579.57 729.52 339.83 897.03 290.99 868.41 395.04 807.77 532.16 949.55 492.73
00007006 DELETE   613.59 73.01 382.38 582.64 727.87 344.56 898.97 292.95 868.05 400.19 806.92 535.42 951.78 494.52
00007007 00000005 601.28 74.56 392.52 579.57 720.75 347.99 896.88 299.27 864.77 403.40 791.52 537.94 936.50 498.34
00007008 DELETE   590.87 81.24 398.93 578.67 712.38 348.82 890.92 302.57 854.28 408.50 783.65 543.75 925.38 506.24
00007009 00000007 585.86 82.30 400.12 581.21 704.00 351.80 886.17 306.87 842.06 413.45 773.01 547.00 919.42 510.49
00007010 00000008 583.63 81.91 399.49 586.17 699.91 351.69 885.22 310.17 835.85 414.28 765.11 547.50 916.30 513.46
00007011 00000009 585.24 82.59 401.26 581.76 700.21 352.05 889.53 312.30 836.71 417.54 761.65 544.93 921.04 512.04
00007012 DELETE   589.53 88.19 402.31 574.66 704.40 352.63 893.81 311.78 841.43 419.62 763.19 541.18 929.33 507.09
00007013 DELETE   591.98 89.47 402.80 573.75 709.89 354.40 901.62 314.57 849.63 422.07 765.31 539.34 938.65 505.99
00007014 DELETE   596.27 90.24 402.58 575.81 714.48 355.22 906.97 316.91 853.51 424.86 764.92 536.81 943.86 504.80
00007015 00000013 602.14 91.49 396.85 576.99 713.80 358.54 908.37 319.19 850.25 428.44 762.33 538.02 945.66 505.67
00007016 00000014 607.74 89.90 390.89 582.01 710.46 359.53 903.37 321.26 844.73 428.88 763.54 538.46 949.18 507.53
00007017 00000015 605.63 90.59 393.06 583.59 709.90 359.11 902.87 322.32 843.74 430.38 762.62 539.20 947.99 509.42
00007018 00000016 612.14 89.38 385.01 591.38 711.66 359.35 904.37 324.45 841.49 431.65 760.09 540.48 946.89 512.09
00007019 00000017 613.07 89.08 384.52 595.23 715.25 359.07 906.46 325.26 846.14 434.00 762.45 541.18 948.26 513.29
00007020 00000018 614.92 90.69 384.83 596.10 720.56 360.69 909.83 325.63 854.85 434.31 768.04 542.66 951.52 513.97
00007021 00000019 615.78 92.74 387.12 593.02 724.11 361.61 911.79 325.90 859.30 437.28 772.01 542.69 954.14 513.38
00007022 00000020 616.81 93.18 387.66 588.80 725.20 363.36 913.44 326.89 860.66 439.21 774.03 543.11 955.23 513.42
00007023 00000021 617.78 94.51 387.84 586.09 724.54 364.57 911.69 327.57 857.44 440.02 774.39 543.24 953.72 513.09
00007024 00000022 616.81 93.16 385.13 584.93 724.31 364.07 911.21 328.08 857.67 437.73 775.94 544.91 950.25 515.72
00007025 00000023 615.66 92.83 384.37 584.40 724.08 362.05 910.70 327.42 856.96 436.66 777.73 546.98 946.73 518.87
00007026 00000024 617.90 91.91 382.66 585.69 725.41 362.55 909.89 326.86 857.28 436.03 782.94 549.45 946.14 520.39
00007027 00000025 616.20 90.62 385.58 586.86 727.23 362.38 911.93 326.98 859.84 434.97 785.71 550.11 945.54 521.41
00007028 00000026 616.37 91.29 388.19 589.63 730.82 362.73 914.35 326.69 865.58 434.16 790.60 551.49 948.63 522.21
00007029 00000027 618.61 89.89 385.60 592.21 734.60 362.82 916.87 325.30 870.70 436.43 795.65 553.64 950.42 523.01
00007030 00000028 617.63 89.86 386.99 591.54 735.77 362.39 918.82 325.69 872.67 436.21 798.26 554.95 951.32 525.09
00007031 00000029 614.10 90.42 390.12 590.94 735.47 359.86 917.17 325.04 871.25 435.14 799.15 555.75 947.33 527.54
00007032 00000030 616.53 91.16 387.27 591.75 733.81 360.90 913.57 325.52 867.43 433.69 799.94 556.66 946.59 527.91
00007033 00000031 611.82 89.53 390.98 592.88 728.46 358.43 910.67 324.34 860.88 432.55 792.20 555.75 942.87 528.34
00007034 00000032 609.57 87.17 391.34 593.90 724.54 355.08 908.27 324.25 855.04 431.39 786.43 555.15 938.48 530.18
00007035 00000033 610.54 86.04 390.07 593.87 724.73 353.60 908.20 325.08 853.31 428.91 783.38 552.52 935.77 529.35
00007036 00000034 610.28 86.01 392.11 592.85 725.65 353.41 911.22 325.79 856.00 428.83 781.67 548.72 938.79 526.24
00007037 00000035 612.88 87.36 390.65 592.39 729.40 354.36 915.13 324.81 864.19 427.42 787.26 548.43 946.95 524.47
00007038 00000036 619.19 88.72 386.40 594.07 733.00 356.69 916.42 324.45 868.46 427.60 792.35 549.80 950.98 523.79
00007039 00000037 622.06 91.29 384.22 592.71 732.07 358.25 916.68 325.52 866.74 429.23 792.94 551.05 953.06 524.45
00007040 00000038 619.65 93.91 386.71 589.21 728.61 358.31 914.36 326.64 859.96 432.74 788.77 550.12 949.81 524.64
00007041 00000039 618.48 93.55 385.72 586.34 724.49 358.65 911.16 327.59 852.93 434.54 785.31 551.02 945.94 526.30
00007042 00000040 613.93 92.74 390.62 585.95 720.56 359.51 909.93 329.19 847.45 435.81 780.95 552.90 940.62 528.53
00007043 00000041 617.17 92.30 388.24 587.42 721.60 359.34 909.45 329.84 847.04 435.87 780.87 551.46 939.81 527.23
00007044 00000042 612.07 91.56 391.95 590.89 725.96 356.18 913.90 328.73 856.86 432.47 784.02 551.65 942.90 529.27
00007045 00000043 614.47 91.58 390.94 596.60 734.87 357.00 916.12 329.58 865.87 432.47 790.68 553.33 943.47 531.01
00007046 00000044 622.13 96.37 388.57 596.14 739.49 361.53 922.16 331.21 872.19 436.91 797.50 556.72 952.40 532.07
00007047 00000045 622.45 99.12 392.69 592.76 740.82 362.30 928.02 333.99 873.59 439.10 796.78 556.75 954.80 533.55
00007048 00000046 620.24 100.24 395.15 589.54 737.88 362.54 928.23 334.16 872.08 442.89 794.37 556.51 955.27 533.15
00007049 00000047 618.51 100.57 393.23 588.16 735.78 364.32 923.12 334.26 868.64 442.12 794.09 556.61 952.18 532.39
00007050 00000048 618.60 99.82 391.66 589.38 733.24 364.93 918.85 334.14 863.45 442.69 794.36 557.22 950.24 532.21
00007051 00000049 618.36 100.98 391.75 587.50 730.87 364.15 916.06 333.45 860.36 441.61 792.54 556.15 948.35 531.17
00007052 00000050 619.80 100.68 390.09 588.41 731.42 364.28 915.58 333.37 860.06 441.05 792.29 556.15 947.86 531.04
00007053 00000051 621.34 100.44 387.49 590.76 735.19 365.12 917.50 334.42 863.08 440.72 792.62 556.90 948.05 531.89
00007054 00000052 621.98 100.74 389.63 590.95 736.79 364.54 920.84 334.62 865.49 440.41 793.26 556.44 950.38 531.87
00007055 00000053 625.98 100.68 388.73 592.58 739.21 363.05 925.53 335.46 867.74 440.24 791.98 555.19 953.22 532.52
00007056 00000054 627.27 100.40 388.56 593.56 739.49 361.38 926.33 335.48 867.04 439.36 791.44 553.14 953.84 531.81
00007057 00000055 626.64 97.98 388.73 597.37 736.76 359.95 926.55 334.45 865.67 438.46 786.84 551.81 954.85 530.61
00007058 00000056 626.38 97.49 386.85 597.91 734.44 358.92 925.55 334.43 862.59 437.73 780.92 549.02 953.83 528.56
00007059 00000057 625.59 98.14 386.44 597.05 730.92 358.74 922.79 333.88 857.94 437.84 775.22 547.31 952.75 526.66
00007060 00000058 622.79 97.62 388.33 597.91 728.04 358.96 921.75 333.78 855.69 437.18 771.58 546.73 952.64 526.08
00007061 00000059 621.19 98.05 390.41 596.49 727.65 358.74 922.89 333.87 856.75 437.29 770.00 546.42 952.71 526.19
00007062 00000060 621.26 98.08 389.92 595.84 729.07 358.47 925.37 335.67 858.66 437.71 769.53 545.66 953.21 527.08
00007063 00000061 620.35 97.23 392.49 595.17 730.30 357.39 927.90 335.72 861.38 437.54 770.87 545.66 953.78 528.13
00007064 00000062 622.66 96.91 391.08 593.27 732.39 356.62 929.46 335.43 863.12 437.66 773.31 544.66 954.96 527.35
00007065 00000063 622.09 96.60 391.75 592.43 733.07 355.98 930.25 335.32 863.79 438.10 773.53 543.78 954.96 526.85
00007066 00000064 622.95 96.39 390.59 592.65 733.44 355.87 930.35 335.58 863.69 438.52 773.51 543.79 954.67 527.09
00007067 00000065 622.49 96.00 391.15 592.80 732.92 355.29 930.46 335.15 863.57 437.77 772.97 543.47 955.00 526.98
00007068 00000066 622.13 96.00 390.63 591.74 732.36 354.73 930.42 335.07 862.92 437.49 771.86 542.89 954.26 526.96
00007069 00000067 621.40 95.24 390.38 591.59 731.72 354.10 930.47 334.89 862.66 437.26 770.31 541.52 954.59 526.05
00007070 00000068 620.88 94.84 389.97 591.72 731.28 353.42 929.66 334.29 862.39 437.23 769.97 541.17 953.82 525.77
00007071 00000069 621.63 94.98 388.75 590.96 731.29 353.28 929.27 334.28 861.88 436.40 770.64 540.91 953.69 525.50
00007072 00000070 620.87 95.21 388.19 591.77 730.75 353.00 928.20 333.81 861.31 436.09 770.27 540.67 953.30 525.07
00007073 00000071 621.80 94.88 386.23 593.22 730.62 353.16 926.97 334.24 859.69 435.91 769.77 540.57 952.14 525.01
00007074 00000072 621.22 95.15 385.79 592.40 730.14 353.18 925.90 334.32 859.13 435.62 769.98 540.52 951.25 525.01
00007075 00000073 620.27 94.98 386.72 592.12 729.32 352.77 926.37 334.40 859.26 435.57 769.19 540.52 951.04 525.53
00007076 00000074 619.71 94.22 387.30 592.63 728.77 352.21 925.79 334.48 858.01 435.17 768.00 540.18 949.50 525.78
00007077 00000075 618.85 93.49 387.83 590.40 727.69 350.18 926.13 334.67 856.90 433.68 766.28 538.26 948.53 525.68
00007078 00000076 618.77 92.44 386.71 589.46 726.78 347.80 923.81 333.46 854.75 432.19 765.37 535.51 946.61 523.77
00007079 00000077 618.48 91.42 386.17 589.21 726.57 345.78 922.06 332.81 852.83 430.62 764.77 533.18 944.35 522.41
00007080 00000078 618.04 88.73 384.39 591.69 725.92 344.48 919.56 332.37 851.01 429.77 762.84 531.63 941.36 521.59
00007081 00000079 618.19 86.87 381.43 591.60 725.20 341.93 918.62 332.02 849.02 429.50 759.84 530.57 937.80 522.28
00007082 00000080 617.19 92.07 381.58 586.90 729.75 344.88 920.03 337.48 850.40 433.52 754.45 535.21 925.39 529.79
00007083 00000081 617.48 91.71 379.16 587.40 729.82 343.62 919.37 337.50 849.04 430.59 754.18 537.85 920.45 533.67
00007084 00000082 615.13 90.38 379.98 587.45 729.27 339.52 919.98 337.93 846.79 429.68 751.76 538.93 914.28 538.62
00007085 00000083 614.41 87.13 378.06 589.41 729.99 337.19 920.95 341.18 845.68 428.02 747.42 537.67 908.20 542.32
00007086 00000084 603.35 85.26 388.52 583.71 727.08 329.94 922.81 343.56 842.50 424.97 737.80 531.67 899.35 544.39
00007087 00000085 601.52 88.08 389.87 576.13 732.59 323.17 920.81 347.08 843.45 415.18 731.37 518.68 890.50 540.07
00007088 00000086 597.79 87.94 398.00 569.59 734.87 314.51 920.92 348.23 841.02 405.01 725.25 506.65 882.83 535.58
00007089 00000087 601.10 94.66 404.58 557.55 742.52 307.28 929.81 347.95 844.18 397.19 726.13 499.07 882.67 534.18
00007090 00000088 617.31 92.05 403.60 562.63 766.01 295.44 950.90 356.81 855.08 398.22 732.43 489.67 885.10 540.55
00007091 00000089 624.49 97.54 407.10 557.97 777.17 297.71 961.14 361.13 869.82 391.71 745.14 490.69 893.44 543.28
00007092 DELETE   634.54 103.38 405.60 551.76 795.39 298.60 967.12 364.21 887.20 391.55 757.99 484.38 900.13 539.60
00007093 DELETE   635.99 105.26 406.88 549.93 801.79 299.63 975.23 361.34 902.06 389.16 767.17 487.55 910.87 539.92
00007094 00000092 637.84 101.73 407.44 554.42 804.32 298.91 978.68 358.17 906.30 388.76 772.50 489.19 916.03 539.42
00007095 00000093 638.33 99.92 408.92 555.02 803.09 295.29 978.35 351.10 905.54 387.73 773.94 489.41 916.66 536.74
00007096 00000094 639.95 99.73 406.18 552.90 800.09 294.89 979.06 349.63 905.99 385.45 774.16 489.81 920.71 536.41
00007097 00000095 641.35 99.87 404.73 550.75 798.97 295.71 978.98 349.44 905.25 386.33 775.01 489.65 923.43 535.27
00007098 00000096 643.42 100.52 403.40 549.41 799.80 296.24 979.73 348.40 905.87 387.13 776.46 489.94 925.52 534.44
00007099 00000097 645.71 100.52 401.88 551.65 801.35 297.26 980.83 348.87 907.91 388.71 777.97 491.99 926.24 536.25
00007100 00000098 646.79 101.72 401.35 556.39 801.71 299.52 982.62 350.78 908.97 390.77 777.63 495.28 929.66 539.60
00007101 00000099 648.81 101.64 400.42 555.81 802.31 302.37 983.60 351.93 909.58 392.87 778.48 494.82 933.75 537.76
00007102 00000100 651.45 99.82 400.01 555.62 803.34 304.52 985.62 351.63 911.39 394.95 782.53 496.63 937.85 537.46
00007103 00000101 653.42 97.59 401.31 558.81 804.64 306.57 986.44 353.00 911.47 400.23 785.45 500.78 935.55 540.65
00007104 00000102 654.08 95.15 402.61 562.04 805.80 307.07 988.72 354.12 913.05 404.17 788.62 503.13 937.10 543.23
00007105 00000103 654.21 95.61 402.47 564.86 805.74 308.20 988.41 354.29 913.72 405.42 789.02 506.06 936.10 545.58
00007106 00000104 650.29 96.17 405.72 569.99 804.83 307.86 989.08 354.80 914.22 405.31 786.84 508.08 935.54 548.38
00007107 00000105 647.91 98.28 405.51 572.39 802.82 309.37 988.26 355.37 914.17 404.28 786.36 512.01 934.85 551.62
00007108 00000106 645.30 98.04 406.78 576.60 800.17 309.61 986.32 356.29 912.59 403.67 783.52 513.65 933.37 553.79
00007109 00000107 645.43 97.96 405.29 577.93 797.87 309.04 985.48 355.07 910.99 402.99 781.80 514.91 933.40 554.52
00007110 00000108 644.96 97.01 405.76 579.97 796.87 310.00 983.99 355.00 910.15 403.69 782.72 516.96 931.83 555.53
00007111 00000109 643.90 97.20 405.75 579.07 796.63 309.65 983.56 354.74 910.01 404.95 783.12 516.77 931.89 555.34
00007112 00000110 643.83 96.94 405.28 579.08 797.04 309.92 983.06 354.60 909.74 405.39 782.84 515.97 931.36 554.27
00007113 00000111 643.98 96.83 403.96 576.35 797.29 310.78 983.07 355.30 909.61 406.15 784.11 515.38 932.60 553.50
00007114 00000112 644.77 96.03 402.73 577.76 797.28 311.87 983.63 357.07 908.96 407.50 781.26 513.84 933.18 552.69
00007115 00000113 644.10 97.49 403.30 578.76 796.04 313.03 980.95 359.74 905.65 410.40 778.60 516.55 927.43 556.72
00007116 00000114 642.51 95.60 403.75 593.38 793.03 313.97 979.84 362.13 903.32 413.16 771.24 522.74 922.95 564.22
00007117 00000115 640.10 95.75 405.63 595.81 790.33 317.76 977.64 363.47 898.19 420.00 770.21 526.40 921.72 565.69
00007118 00000116 638.35 95.38 405.60 593.06 786.28 321.76 977.99 365.63 895.56 424.24 771.23 530.16 924.04 567.52
00007119 00000117 638.19 97.28 404.05 590.98 784.96 323.63 978.18 367.51 894.21 428.96 771.78 531.35 925.48 568.62
00007120 00000118 639.39 98.85 401.82 587.96 784.56 325.61 978.41 367.97 893.31 429.87 773.62 533.51 926.42 569.48
00007121 00000119 643.53 99.23 397.91 586.83 787.73 327.31 978.42 368.49 895.68 430.95 778.36 535.05 926.76 570.34
00007122 00000120 645.94 97.33 395.91 584.33 789.03 326.29 978.37 363.75 897.68 428.00 782.29 533.68 928.61 565.96
00007123 00000121 646.40 96.18 394.17 580.80 788.08 324.85 976.54 360.69 898.38 422.30 784.14 528.94 932.08 559.45
00007124 00000122 646.31 93.16 390.47 580.70 784.75 321.35 972.87 357.47 895.22 416.67 781.17 522.85 931.07 553.17
00007125 00000123 640.24 90.25 391.43 584.53 776.68 320.69 968.09 356.93 888.50 415.71 775.37 522.15 928.61 551.95
00007126 00000124 636.32 90.64 391.05 587.16 769.78 321.43 964.40 358.08 881.43 418.26 766.22 523.21 924.07 553.32
00007127 00000125 631.29 91.92 393.51 591.30 767.55 322.71 962.73 360.84 878.79 423.26 759.97 523.50 923.28 554.92
00007128 00000126 631.00 93.93 394.06 597.77 768.90 326.03 963.14 364.58 878.58 429.61 755.62 524.89 924.53 556.92
00007129 00000127 631.73 94.85 393.58 596.86 768.89 327.23 963.76 365.51 878.36 431.73 755.36 525.03 927.57 556.71
00007130 00000128 628.59 94.86 395.22 594.09 765.62 324.94 964.21 362.69 876.17 428.17 751.91 522.22 928.75 553.07
00007131 00000129 627.33 93.06 393.71 590.66 760.97 321.64 961.84 357.89 872.93 421.78 749.14 518.09 928.27 547.32
00007132 00000130 625.44 90.40 392.44 591.62 756.84 317.99 958.69 354.92 869.04 418.67 743.49 514.44 925.18 543.86
00007133 00000131 621.09 90.36 394.02 588.44 752.78 315.86 957.46 353.30 865.80 416.70 737.51 512.53 921.83 542.31
00007134 00000132 620.57 89.29 392.58 586.94 752.33 314.92 955.48 351.88 865.63 415.92 737.25 511.25 920.24 540.53
00007135 00000133 622.17 88.80 391.53 586.83 753.23 315.07 956.85 351.68 867.09 415.04 738.79 511.27 921.74 540.31
00007136 00000134 622.29 90.10 391.92 584.64 755.18 316.13 958.58 353.19 869.68 416.38 739.86 510.09 923.82 539.71
00007137 00000135 623.61 92.31 390.37 582.84 757.50 318.89 958.99 355.73 871.58 419.60 742.29 510.83 924.68 540.50
00007138 00000136 620.79 94.77 391.76 582.40 757.07 322.94 958.15 359.99 870.37 426.30 740.76 512.70 923.71 542.80
00007139 00000137 619.49 96.86 391.83 580.53 757.03 325.88 957.66 362.77 870.30 429.30 741.17 514.50 923.07 544.71
00007140 00000138 618.96 98.25 390.63 579.02 756.15 326.17 956.31 363.10 868.81 429.83 740.49 514.91 921.60 545.03
00007141 00000139 617.37 97.68 389.12 579.11 753.06 325.63 953.70 361.80 866.77 428.65 737.89 515.85 919.20 545.20
00007142 00000140 615.44 96.10 388.00 585.75 750.17 324.17 949.44 360.17 863.41 429.21 733.78 517.65 914.77 546.65
00007143 00000141 617.31 102.53 384.49 583.23 744.47 333.86 935.10 359.36 854.41 429.83 733.52 524.95 906.11 547.61
00007144 00000142 612.24 100.79 386.74 585.33 739.36 331.46 930.07 354.49 850.48 427.50 734.04 529.30 900.34 549.47
00007145 00000143 606.27 97.45 388.12 591.09 732.99 332.11 921.41 349.81 842.63 425.65 732.08 532.90 894.27 548.78
00007146 00000144 600.11 92.90 387.72 596.09 722.76 333.26 912.72 348.05 831.08 423.90 724.91 534.84 886.88 548.93
00007147 DELETE   604.83 89.40 373.32 594.49 710.05 337.44 899.39 347.22 809.69 418.69 715.87 535.37 877.47 546.64
00007148 00000146 596.05 84.58 370.90 597.37 691.55 335.00 882.59 340.95 786.94 415.74 703.84 536.08 864.69 543.73
00007149 00000147 584.41 85.48 375.57 598.16 673.00 334.33 861.82 333.46 767.73 411.64 694.82 533.77 857.25 534.11
CROP_BBOX: 371 0 1259 833
