Video ID: 	opKsoWr1uSQ
H: 	1080
W: 	1920
FPS: 	23.976023976023978

FRAME INDEX X0 Y0 W H [Landmarks (5 Points)]

00018232 00000000 994.16 196.78 390.78 579.51 1040.84 449.24 1163.95 472.90 1038.88 546.20 1043.17 640.42 1137.65 658.64
00018233 00000001 1002.64 195.27 385.27 574.83 1050.77 443.17 1172.95 470.30 1044.11 542.95 1048.52 637.27 1138.44 658.44
00018234 DELETE   1009.34 198.88 388.52 574.37 1053.70 445.17 1191.84 474.19 1047.35 544.36 1046.98 638.22 1148.49 662.30
00018235 00000003 1010.40 204.54 393.34 573.03 1058.30 448.10 1199.75 476.56 1059.65 546.41 1051.28 640.92 1156.12 664.63
00018236 00000004 1009.70 208.82 394.88 574.56 1057.26 452.65 1199.12 480.23 1058.41 551.82 1048.66 648.35 1154.05 671.38
00018237 00000005 1006.69 209.24 392.95 574.23 1051.35 456.96 1192.15 482.25 1050.25 555.58 1043.62 652.01 1148.51 673.53
00018238 00000006 1005.42 208.10 389.60 575.24 1044.86 456.31 1184.59 479.76 1040.68 559.71 1040.87 653.65 1145.08 673.93
00018239 00000007 1002.81 201.88 388.21 576.99 1042.95 447.44 1176.33 478.02 1032.09 553.72 1039.83 640.35 1142.15 665.72
00018240 00000008 1004.01 196.87 386.79 580.64 1045.08 443.45 1176.29 473.61 1031.83 546.84 1039.81 635.04 1141.07 660.02
00018241 00000009 1007.55 200.20 385.41 578.39 1048.93 441.50 1176.58 472.15 1031.67 546.35 1043.31 633.72 1143.88 658.27
00018242 00000010 1008.56 200.93 382.72 575.76 1050.12 439.80 1177.73 471.65 1032.60 545.26 1042.92 632.37 1142.02 658.22
00018243 00000011 1006.22 198.55 382.14 571.06 1047.02 438.66 1175.24 473.90 1029.08 545.04 1040.32 628.62 1138.74 657.38
00018244 00000012 1000.30 194.88 384.19 569.34 1042.25 436.84 1173.36 473.15 1025.81 543.05 1033.91 623.50 1135.43 653.52
00018245 00000013 992.85 194.81 386.91 567.34 1036.13 434.48 1169.94 471.30 1025.50 541.64 1027.53 620.91 1130.22 652.09
00018246 00000014 991.53 191.23 385.45 570.44 1032.90 434.47 1163.58 469.12 1020.13 540.37 1025.09 622.40 1125.23 652.20
00018247 00000015 991.17 192.68 382.76 565.08 1031.81 433.26 1161.28 468.92 1019.54 540.87 1025.38 620.82 1124.28 651.57
00018248 00000016 994.96 193.41 381.35 561.90 1039.04 433.13 1155.91 464.42 1034.37 536.75 1035.99 623.50 1129.13 647.05
00018249 00000017 993.23 191.38 383.86 560.50 1033.54 427.26 1160.58 463.40 1018.39 534.88 1026.24 615.04 1121.46 646.13
00018250 00000018 999.31 193.13 380.42 559.69 1045.78 426.20 1158.79 457.25 1035.91 528.18 1036.66 618.63 1125.39 642.25
00018251 00000019 1003.82 187.87 376.91 564.97 1044.16 424.39 1158.99 448.82 1036.59 524.07 1039.87 624.35 1123.22 642.94
00018252 00000020 1004.50 181.46 382.47 570.10 1044.51 421.64 1162.58 444.35 1037.45 519.69 1041.88 622.12 1128.46 639.38
00018253 00000021 1003.12 181.51 383.90 572.68 1045.35 421.19 1164.13 445.77 1039.08 520.08 1040.30 617.49 1131.59 636.41
00018254 00000022 1003.40 186.12 378.14 569.02 1046.34 422.72 1158.95 445.59 1036.58 522.13 1045.78 622.49 1128.75 640.01
00018255 00000023 1000.43 189.53 376.20 575.57 1044.32 424.77 1156.04 446.55 1034.23 526.40 1046.75 627.00 1131.53 643.88
00018256 00000024 998.90 189.38 373.31 562.32 1040.25 428.20 1150.27 447.46 1032.07 524.42 1043.16 626.79 1124.04 640.71
00018257 00000025 989.68 186.73 378.25 555.45 1024.75 429.35 1144.78 448.16 1009.76 525.09 1027.02 613.04 1120.02 630.25
00018258 00000026 986.11 185.35 379.52 554.87 1019.83 424.57 1145.26 444.67 1010.72 520.45 1019.28 609.94 1113.92 629.08
00018259 00000027 985.57 180.69 378.10 557.02 1018.49 422.40 1145.07 442.99 1009.20 518.10 1016.90 607.25 1112.84 627.02
00018260 00000028 986.70 183.38 374.09 550.12 1018.28 420.31 1141.67 444.37 1007.23 517.84 1016.85 603.62 1112.41 626.09
00018261 00000029 985.83 180.02 374.34 551.23 1020.94 418.10 1138.92 441.33 1007.40 514.96 1019.36 600.91 1110.16 622.72
00018262 00000030 988.03 178.37 373.92 554.54 1024.93 413.69 1140.66 436.25 1008.99 512.15 1022.07 599.24 1112.44 620.17
00018263 00000031 990.30 174.20 375.72 567.29 1026.15 409.89 1145.04 430.45 1007.87 507.84 1022.09 603.57 1113.29 622.31
00018264 00000032 991.66 172.43 376.90 573.95 1026.50 409.26 1144.48 426.75 1005.64 506.57 1025.76 607.11 1115.20 622.59
00018265 00000033 991.24 171.94 378.95 571.93 1026.93 409.92 1147.12 428.25 1008.59 506.93 1024.45 605.03 1116.48 621.69
00018266 00000034 989.97 175.22 382.14 564.63 1027.65 409.87 1147.75 430.91 1011.18 507.84 1025.92 600.25 1119.74 618.80
00018267 00000035 987.44 175.22 383.29 565.78 1024.54 413.50 1147.14 432.33 1010.30 509.13 1022.06 603.63 1117.19 620.94
00018268 00000036 986.76 175.84 382.09 565.63 1024.20 415.45 1145.08 434.63 1008.71 509.42 1019.46 605.13 1111.41 623.28
00018269 00000037 984.71 178.06 380.49 568.37 1023.60 417.10 1141.97 436.69 1006.66 512.00 1019.71 608.20 1109.31 626.37
00018270 00000038 983.72 176.96 375.99 571.34 1018.95 419.64 1138.37 436.84 1003.86 516.30 1019.57 612.10 1110.49 628.20
00018271 00000039 982.24 176.75 375.24 568.37 1013.13 419.89 1136.83 435.28 1004.31 515.96 1015.88 613.47 1107.91 628.87
00018272 00000040 981.08 179.82 374.22 567.25 1011.92 418.55 1137.11 433.15 1004.78 513.86 1012.52 614.60 1106.63 629.56
00018273 00000041 976.58 181.89 375.21 568.37 1011.55 417.30 1135.93 431.79 1004.47 511.21 1010.50 616.39 1102.75 630.99
00018274 00000042 973.85 183.56 373.61 567.49 1010.27 415.08 1133.29 429.52 1002.42 511.53 1009.10 616.55 1101.26 630.86
00018275 00000043 976.57 182.47 361.99 552.91 1007.02 410.39 1113.84 427.83 988.52 506.81 1002.54 608.42 1074.96 622.97
00018276 00000044 977.12 174.19 365.48 560.18 1000.54 409.83 1111.07 426.11 998.83 510.45 1002.98 607.24 1079.87 620.43
00018277 00000045 976.85 173.93 361.89 554.34 998.86 404.81 1107.48 420.13 992.51 505.60 1002.22 602.22 1078.67 614.83
00018278 00000046 976.72 172.24 361.08 558.05 999.78 403.56 1107.00 418.33 993.04 504.55 1004.01 603.36 1078.28 615.42
00018279 00000047 977.30 173.16 361.97 565.11 1004.43 400.89 1110.38 416.12 995.37 501.38 1010.31 606.14 1080.43 618.08
00018280 00000048 978.26 170.13 362.21 572.08 1007.58 399.15 1111.17 414.27 996.47 499.94 1014.61 605.25 1083.34 617.17
00018281 00000049 978.31 169.55 362.71 572.45 1006.98 398.95 1111.56 414.06 995.83 499.10 1013.64 604.07 1082.45 616.02
00018282 00000050 977.74 167.37 361.08 567.93 1005.19 398.51 1110.04 414.33 994.48 500.27 1010.99 599.26 1081.91 612.37
00018283 00000051 975.09 167.00 361.20 563.18 1001.91 397.23 1107.42 416.10 989.66 501.23 1005.93 594.67 1077.66 610.55
00018284 00000052 974.44 170.29 358.97 555.84 999.70 396.12 1104.46 416.77 986.98 501.34 1003.14 593.14 1074.47 610.30
00018285 00000053 976.71 172.81 357.37 555.50 1000.13 397.97 1103.47 416.36 988.69 501.71 1004.07 597.46 1074.73 612.57
00018286 00000054 977.85 172.69 359.60 554.02 1001.91 397.52 1104.46 416.44 990.53 501.16 1006.18 596.48 1075.54 611.95
00018287 00000055 980.22 170.90 358.73 553.34 1004.18 397.54 1107.72 416.22 993.44 500.75 1007.47 594.94 1077.93 610.45
00018288 00000056 981.39 168.62 358.46 552.65 1006.25 397.82 1108.69 417.54 994.26 501.23 1009.66 593.06 1080.61 609.28
00018289 00000057 982.85 166.34 355.29 550.38 1008.19 395.67 1110.59 418.03 996.14 501.87 1011.30 589.20 1083.51 607.56
00018290 00000058 982.23 176.13 351.38 533.90 1013.89 393.68 1115.62 419.75 991.16 495.88 1004.87 584.77 1078.15 606.31
00018291 00000059 983.88 176.03 351.17 532.62 1013.81 392.89 1117.65 417.97 993.64 495.00 1005.49 585.19 1079.10 605.97
00018292 00000060 985.91 175.66 350.36 532.48 1013.39 391.71 1118.90 416.48 995.63 494.57 1005.83 585.52 1079.45 606.03
00018293 00000061 987.28 178.14 349.52 529.16 1014.37 392.86 1118.37 416.14 997.24 494.06 1006.55 586.09 1079.13 605.40
00018294 00000062 988.52 177.71 349.57 530.25 1015.94 393.44 1118.75 416.35 997.62 493.40 1007.71 586.21 1079.04 605.15
00018295 00000063 989.14 177.32 348.72 530.02 1016.18 391.93 1119.50 415.69 998.51 493.12 1008.31 585.32 1080.12 604.90
00018296 00000064 989.38 178.60 348.22 528.48 1018.06 392.30 1118.15 416.64 998.34 493.86 1010.43 584.63 1080.09 604.51
00018297 00000065 989.82 178.18 349.45 528.50 1018.50 392.94 1117.61 415.89 998.87 493.86 1010.61 585.34 1079.75 604.16
00018298 00000066 989.16 177.70 349.24 529.14 1017.36 392.92 1117.66 416.30 997.46 493.17 1009.55 585.07 1079.57 604.17
00018299 00000067 988.30 175.48 351.43 531.53 1016.55 392.65 1118.84 416.25 996.92 492.83 1008.44 585.09 1079.23 604.48
00018300 00000068 987.66 177.03 349.69 529.02 1016.80 393.22 1118.04 416.99 996.77 493.57 1008.02 584.60 1078.66 604.19
00018301 00000069 987.38 175.87 349.50 529.11 1016.70 392.62 1117.22 417.29 995.73 493.74 1008.25 583.97 1077.76 604.22
00018302 00000070 987.19 176.98 349.06 527.58 1016.40 391.05 1117.86 417.00 995.03 492.40 1007.09 582.60 1077.96 603.87
00018303 00000071 987.54 176.26 348.78 527.92 1018.18 391.84 1117.42 417.20 995.04 492.41 1008.48 582.62 1077.84 603.32
00018304 00000072 988.27 176.50 350.08 527.07 1019.95 391.51 1117.99 416.92 994.64 491.32 1008.65 581.53 1077.79 602.26
00018305 00000073 988.48 174.78 350.79 529.58 1019.88 391.26 1117.79 416.66 995.80 491.99 1009.35 582.21 1078.30 602.96
00018306 00000074 989.06 176.97 349.61 526.49 1021.28 391.32 1117.97 417.37 995.75 491.05 1009.62 580.92 1077.99 602.06
00018307 00000075 989.92 175.22 349.63 528.64 1021.81 392.21 1116.76 417.13 996.15 492.49 1010.63 582.17 1077.45 602.43
00018308 00000076 989.04 176.79 350.49 530.20 1022.39 393.79 1116.08 419.33 995.34 494.07 1010.76 582.88 1077.36 603.65
00018309 00000077 987.22 175.33 350.51 540.55 1022.11 395.26 1115.84 421.79 994.51 495.59 1009.05 586.87 1075.16 608.73
00018310 00000078 985.75 174.45 350.40 546.05 1018.90 398.59 1113.18 426.32 990.25 499.82 1007.62 589.69 1074.29 612.47
00018311 00000079 979.13 167.71 360.72 556.37 1030.31 398.83 1112.31 427.60 987.43 499.30 1010.28 592.43 1075.21 615.03
00018312 00000080 978.37 168.16 360.30 556.63 1028.92 398.91 1111.73 427.03 987.31 499.53 1009.65 593.65 1074.84 615.82
00018313 00000081 984.13 174.82 349.39 550.21 1018.62 398.74 1113.33 427.81 988.82 498.63 1006.34 590.91 1072.37 614.47
00018314 00000082 988.28 174.66 349.11 547.51 1017.62 397.56 1116.08 422.54 994.10 498.04 1010.22 590.83 1077.99 611.49
00018315 00000083 992.29 175.30 349.81 542.77 1023.36 396.28 1117.67 419.04 999.13 493.79 1018.25 588.36 1083.06 606.66
00018316 00000084 996.19 175.17 349.71 536.93 1028.59 391.95 1130.10 414.77 1010.00 486.68 1021.19 580.99 1091.90 599.44
00018317 00000085 997.55 171.82 357.09 533.42 1030.14 387.86 1136.67 411.83 1015.02 483.59 1022.68 575.03 1096.14 594.55
00018318 00000086 999.04 173.20 354.72 530.36 1028.83 385.74 1135.54 411.22 1014.57 483.71 1023.17 573.28 1097.00 593.94
00018319 00000087 999.01 175.74 351.21 530.12 1028.46 390.87 1131.25 416.22 1013.32 489.24 1023.44 575.94 1095.78 596.46
00018320 00000088 999.52 177.15 346.46 531.78 1027.90 395.23 1125.05 416.58 1010.19 492.27 1024.53 581.58 1092.96 598.85
00018321 00000089 998.72 176.82 344.65 526.71 1028.83 393.00 1120.14 411.49 1007.41 488.16 1025.98 578.75 1091.04 593.76
00018322 00000090 993.70 173.81 351.98 526.26 1031.52 390.61 1122.60 406.47 1006.61 482.39 1026.02 573.53 1092.65 585.92
00018323 00000091 993.21 170.28 351.23 528.54 1034.72 384.13 1125.48 403.72 1008.33 478.25 1025.14 568.72 1091.85 583.94
00018324 00000092 994.63 170.43 352.00 531.14 1033.72 382.88 1129.92 402.92 1010.70 477.01 1024.68 568.94 1094.02 584.68
00018325 00000093 994.86 168.09 355.16 530.01 1036.63 384.70 1131.23 405.79 1012.01 478.28 1028.61 568.38 1094.99 584.63
00018326 00000094 994.19 159.22 368.67 544.54 1035.87 378.38 1138.32 405.04 1003.86 476.34 1028.12 568.80 1101.64 592.60
00018327 00000095 996.89 156.73 367.99 546.64 1038.18 378.20 1140.28 403.83 1004.40 475.49 1031.09 569.08 1102.09 591.99
00018328 00000096 997.46 160.54 366.95 546.02 1038.75 378.27 1139.15 404.85 1004.63 476.22 1032.39 571.09 1102.28 594.71
00018329 00000097 999.72 163.32 365.69 548.86 1041.25 383.51 1138.76 408.83 1005.29 480.00 1035.07 576.64 1102.69 598.88
00018330 00000098 999.54 166.81 364.35 550.04 1039.97 391.80 1136.64 412.68 1005.86 484.82 1035.55 582.46 1104.03 601.07
00018331 00000099 1004.70 173.06 347.46 538.38 1040.13 393.30 1126.09 412.39 1012.00 487.47 1038.50 581.45 1097.67 596.38
00018332 00000100 1001.48 170.65 347.79 544.15 1042.11 391.91 1122.79 409.23 1009.20 484.91 1039.35 583.43 1094.13 596.49
00018333 00000101 993.23 157.93 365.64 563.97 1041.61 389.95 1130.89 407.59 998.25 480.10 1036.38 582.53 1100.48 597.77
00018334 00000102 996.21 157.52 365.69 546.40 1039.01 386.25 1133.94 407.34 999.18 478.69 1031.34 573.00 1100.68 591.98
00018335 00000103 995.23 158.35 364.34 553.12 1038.86 387.26 1134.35 408.15 1000.64 479.36 1028.94 578.24 1098.16 596.88
00018336 00000104 1000.42 172.08 349.72 538.25 1037.20 391.50 1126.30 416.86 1011.40 487.95 1028.78 578.47 1090.27 598.74
00018337 00000105 991.39 171.34 369.44 566.21 1036.42 405.62 1128.55 433.78 997.35 505.39 1027.96 593.73 1099.99 617.41
00018338 00000106 986.03 182.33 364.45 567.87 1026.78 424.55 1121.28 449.59 990.53 522.62 1025.18 610.57 1096.45 632.59
00018339 00000107 990.38 181.97 356.71 582.21 1027.97 433.70 1120.37 462.51 1007.96 539.73 1039.70 630.93 1100.27 651.78
00018340 00000108 981.54 194.32 356.22 575.20 1020.73 433.01 1110.89 462.54 991.04 536.41 1024.34 629.76 1085.10 651.55
00018341 DELETE   987.55 188.02 347.26 558.57 1025.00 421.36 1108.20 448.12 991.71 519.75 1026.19 610.96 1081.72 631.31
00018342 00000110 988.21 169.39 367.71 561.56 1038.12 410.76 1120.70 435.77 997.81 508.21 1033.96 590.19 1100.39 610.95
00018343 DELETE   1007.58 165.37 348.54 542.10 1046.13 391.08 1131.55 414.09 1015.38 486.94 1040.09 578.80 1096.33 596.86
00018344 00000112 1002.22 155.40 370.73 553.62 1046.32 379.17 1146.96 404.59 1008.35 473.66 1035.54 572.72 1102.77 595.24
00018345 DELETE   1011.98 150.50 360.93 551.02 1052.27 377.53 1156.75 407.74 1017.56 468.26 1031.48 568.44 1113.71 595.59
00018346 00000114 1006.68 162.40 368.71 557.05 1046.79 382.89 1151.37 416.43 1012.63 487.67 1037.16 577.99 1114.12 606.45
00018347 00000115 1003.92 167.02 368.35 562.88 1042.76 390.97 1147.45 423.40 1008.09 497.19 1037.02 588.02 1111.62 615.06
00018348 00000116 996.75 170.98 366.74 567.49 1037.34 394.84 1136.43 422.07 1000.45 497.17 1033.13 593.64 1106.10 616.24
00018349 00000117 988.99 161.17 370.90 565.86 1036.02 389.59 1131.20 412.28 994.10 479.65 1028.22 581.52 1097.51 600.60
00018350 00000118 988.99 146.36 365.12 565.31 1032.06 375.85 1133.99 397.38 995.59 468.94 1027.67 571.04 1096.67 590.45
00018351 00000119 990.93 149.34 363.15 553.44 1034.33 370.73 1132.97 386.01 997.48 461.37 1028.89 566.61 1098.93 581.28
00018352 00000120 996.26 141.85 359.91 545.47 1041.90 361.47 1134.73 378.74 997.86 452.04 1023.52 553.70 1096.89 569.47
00018353 00000121 1001.44 146.76 357.10 536.59 1043.07 362.20 1144.37 385.80 1008.37 453.58 1028.53 549.58 1104.95 571.63
00018354 DELETE   1006.84 154.72 359.04 533.94 1047.07 364.84 1159.35 398.75 1016.80 455.84 1024.04 552.73 1111.26 583.02
00018355 DELETE   1011.22 154.21 364.82 542.80 1057.91 370.93 1171.15 415.34 1028.65 465.26 1027.76 557.95 1118.56 596.08
00018356 00000124 1011.15 159.04 370.87 539.01 1057.58 376.98 1173.96 418.01 1032.14 468.73 1027.18 563.44 1120.59 598.86
00018357 00000125 1009.86 156.56 366.05 534.81 1057.02 371.69 1170.15 417.49 1028.16 466.51 1026.59 554.69 1118.17 594.03
00018358 00000126 1007.55 158.44 365.03 529.68 1047.24 369.26 1164.70 407.91 1021.65 463.71 1023.07 553.65 1116.27 587.67
00018359 00000127 1010.25 158.73 355.76 533.65 1044.32 365.30 1158.01 398.87 1029.66 472.17 1030.64 552.09 1109.64 578.90
00018360 00000128 1009.11 153.76 359.84 531.67 1046.76 365.38 1160.06 400.86 1018.31 460.42 1026.17 550.32 1113.56 581.94
00018361 00000129 1010.30 155.41 359.63 530.79 1048.63 364.72 1161.08 401.60 1018.26 461.50 1026.95 553.35 1112.61 585.74
00018362 00000130 1011.18 157.84 360.27 528.77 1051.06 365.87 1162.74 406.49 1019.87 463.61 1028.55 551.02 1115.87 585.97
00018363 00000131 1010.70 157.52 362.68 535.13 1050.83 371.46 1161.35 411.16 1018.42 466.60 1029.41 556.33 1117.03 590.20
00018364 00000132 1017.21 161.20 354.26 544.62 1043.27 379.49 1150.18 411.38 1024.76 485.89 1041.76 572.18 1112.84 597.96
00018365 00000133 1008.95 162.39 365.75 553.77 1047.44 381.12 1152.82 414.10 1012.45 483.37 1037.35 576.37 1112.28 604.64
00018366 00000134 1015.75 162.16 351.05 549.49 1041.20 381.14 1148.28 413.02 1023.63 486.91 1038.37 576.45 1107.19 602.52
00018367 00000135 1005.78 158.47 367.18 550.52 1046.06 379.68 1149.82 409.76 1011.06 479.79 1036.17 572.29 1108.24 598.52
00018368 00000136 1010.74 157.03 359.10 538.06 1049.04 375.17 1156.52 405.51 1016.25 469.02 1032.62 565.05 1114.12 591.93
00018369 00000137 1014.37 154.98 358.71 540.86 1052.64 370.89 1163.32 401.98 1019.34 466.31 1033.51 564.71 1117.79 591.96
00018370 00000138 1016.71 155.62 364.64 542.73 1055.83 369.58 1170.35 405.93 1025.44 467.77 1034.71 562.53 1125.22 593.42
00018371 DELETE   1014.95 157.37 366.15 550.82 1057.30 382.59 1171.38 415.41 1031.42 473.84 1035.22 573.61 1125.60 601.76
00018372 00000140 1018.69 155.91 365.48 561.60 1048.07 381.58 1169.73 421.71 1039.11 500.76 1038.14 576.42 1127.22 609.61
00018373 00000141 1015.47 162.26 361.47 555.14 1036.65 387.93 1158.31 426.43 1026.04 503.60 1029.79 581.36 1117.13 612.95
00018374 00000142 1001.39 174.42 368.94 548.21 1039.20 393.09 1149.42 428.06 1013.01 497.19 1027.96 580.72 1113.66 611.27
00018375 00000143 1004.25 174.03 347.41 539.41 1032.55 394.35 1132.01 421.35 1014.71 495.51 1025.70 583.23 1095.87 605.40
00018376 00000144 1000.63 166.81 353.53 543.58 1036.83 391.12 1131.89 413.78 1011.45 484.45 1025.32 580.36 1089.62 598.39
00018377 00000145 995.90 164.89 358.85 540.25 1039.46 386.32 1135.80 408.23 1013.71 478.07 1024.32 574.43 1088.13 591.65
00018378 00000146 995.53 164.90 356.23 540.06 1038.42 382.21 1135.47 407.03 1012.03 476.77 1024.07 573.52 1087.61 592.87
00018379 00000147 990.13 155.29 369.10 563.10 1031.31 383.30 1139.96 405.01 1000.09 476.63 1021.67 580.63 1098.58 600.53
00018380 00000148 988.87 154.36 369.00 573.11 1033.55 384.72 1138.35 404.29 999.23 476.13 1026.58 583.11 1100.76 600.68
00018381 00000149 988.08 158.84 367.99 568.14 1035.82 380.88 1137.55 405.16 999.61 474.86 1027.62 578.53 1101.57 599.50
00018382 00000150 987.89 157.30 368.70 569.38 1034.79 381.38 1138.48 404.21 999.74 474.69 1025.65 580.84 1099.31 600.97
00018383 00000151 992.93 167.21 355.69 554.37 1034.41 382.81 1132.48 404.67 1007.95 474.80 1027.25 580.28 1093.00 596.97
CROP_BBOX: 740 0 1638 911
