Video ID: 	qU--CSt0joU
H: 	1080
W: 	1920
FPS: 	25.0

FRAME INDEX X0 Y0 W H [Landmarks (5 Points)]

00005695 00000000 998.13 184.85 410.65 567.07 1060.34 389.94 1215.57 396.27 1092.06 506.53 1075.46 577.07 1237.92 578.88
00005696 00000001 985.38 184.15 413.00 570.34 1039.67 386.26 1200.86 397.15 1073.26 507.21 1056.34 576.63 1215.75 582.92
00005697 00000002 965.93 171.81 415.94 577.14 1022.03 395.95 1177.49 401.06 1050.59 504.85 1034.79 573.44 1191.95 576.50
00005698 00000003 951.05 174.89 416.84 568.85 1006.57 395.73 1162.13 404.04 1025.10 502.95 1019.12 577.31 1163.69 582.93
00005699 00000004 949.91 174.40 403.81 561.29 994.83 393.93 1147.70 410.09 1012.22 508.76 1008.13 582.65 1138.78 594.97
00005700 DELETE   939.38 173.91 394.20 561.41 978.32 392.19 1122.04 415.37 985.59 514.88 981.40 589.80 1095.99 609.16
00005701 00000006 932.71 180.80 387.34 556.47 964.56 396.42 1101.07 421.28 965.56 520.59 968.23 599.49 1068.59 619.72
00005702 00000007 915.40 180.49 395.62 562.44 951.97 400.83 1096.10 423.76 953.35 516.76 958.35 606.03 1059.55 625.78
00005703 DELETE   908.65 191.22 394.60 552.59 939.61 402.39 1085.86 423.90 941.81 519.54 949.66 608.75 1053.48 627.48
00005704 00000009 900.68 195.67 392.75 550.19 930.36 402.63 1079.22 425.14 933.48 520.68 941.98 611.02 1048.27 630.50
00005705 00000010 898.45 206.80 389.44 535.51 933.91 405.03 1070.63 427.92 928.82 519.84 938.02 605.62 1037.58 624.01
00005706 00000011 895.11 198.55 385.10 542.93 933.83 403.22 1068.78 427.64 928.39 518.53 934.81 603.76 1028.26 623.76
00005707 00000012 894.40 193.73 384.42 542.54 933.35 404.85 1067.17 428.90 927.43 519.81 935.44 601.92 1030.43 621.51
00005708 00000013 893.42 193.83 385.46 542.17 935.54 406.62 1067.91 434.54 927.95 522.44 937.69 599.59 1033.98 621.84
00005709 00000014 891.46 204.54 389.40 540.82 930.34 406.88 1067.08 434.14 926.82 529.82 935.77 605.52 1035.93 627.17
00005710 00000015 892.23 206.23 396.02 559.31 930.80 407.07 1065.80 430.20 926.33 534.74 943.95 615.36 1044.34 633.23
00005711 00000016 894.14 196.53 401.11 569.11 930.27 405.48 1071.84 423.19 931.64 533.37 946.15 621.24 1048.96 635.23
00005712 00000017 892.41 184.60 402.24 572.89 929.73 396.42 1075.90 414.73 933.33 526.10 941.43 611.81 1049.92 626.54
00005713 00000018 894.39 178.67 397.63 562.56 929.85 391.12 1076.25 405.64 934.89 515.50 941.77 604.97 1043.70 616.96
00005714 00000019 896.65 172.51 397.92 567.09 932.63 386.66 1077.70 404.55 935.83 510.82 942.25 599.76 1038.31 614.28
00005715 00000020 901.25 166.99 393.80 563.97 932.42 380.50 1085.98 403.88 945.38 509.24 943.41 597.68 1045.17 619.27
00005716 00000021 909.66 165.96 392.61 557.95 943.96 383.40 1085.58 397.78 953.62 498.88 948.51 589.06 1044.43 601.24
00005717 00000022 912.09 163.53 397.99 549.48 950.14 376.70 1089.94 385.13 963.33 486.82 957.80 579.46 1053.58 586.97
00005718 00000023 917.60 158.29 396.72 545.49 951.71 367.81 1094.68 374.34 968.72 480.10 959.45 574.03 1062.55 580.03
00005719 00000024 918.55 145.41 396.94 555.57 950.55 360.01 1100.14 369.08 972.09 478.26 956.49 571.15 1074.29 579.12
00005720 00000025 918.30 146.26 396.33 555.00 948.35 362.46 1098.04 369.35 970.74 480.30 957.77 574.12 1075.94 580.21
00005721 00000026 916.06 152.21 396.19 552.95 948.58 369.64 1092.28 370.03 967.93 482.61 963.44 579.72 1070.49 580.69
00005722 00000027 912.50 158.02 401.20 551.42 949.05 373.69 1090.31 372.77 967.67 483.53 966.49 580.39 1069.40 580.18
00005723 00000028 915.23 158.61 400.44 546.25 952.51 373.94 1096.20 377.75 971.59 484.55 965.85 572.60 1079.93 576.01
00005724 00000029 914.27 153.66 403.14 552.94 955.50 377.67 1102.56 383.32 978.27 485.33 969.17 569.37 1091.76 573.80
00005725 00000030 913.81 150.04 409.77 563.62 958.73 380.08 1110.33 386.45 984.05 491.26 974.97 568.48 1106.92 573.19
00005726 00000031 914.10 159.12 409.36 564.53 962.95 384.80 1111.15 392.11 987.18 497.40 980.26 570.73 1109.85 576.05
00005727 00000032 912.74 159.74 411.83 567.93 962.25 392.99 1111.81 402.50 990.08 509.89 985.42 577.65 1117.26 584.36
00005728 00000033 912.99 171.56 409.60 557.02 960.86 401.82 1112.67 411.17 990.99 520.65 986.29 580.47 1124.29 586.88
00005729 00000034 910.55 184.57 409.11 544.73 958.71 407.41 1111.31 416.81 991.24 529.01 984.92 579.74 1128.29 585.88
00005730 00000035 901.33 193.26 421.91 547.01 955.58 411.02 1113.11 415.35 996.84 536.03 989.04 587.49 1132.51 588.11
00005731 00000036 893.62 202.39 422.36 544.20 947.74 426.89 1099.69 416.10 994.40 542.93 990.75 596.27 1133.48 583.51
00005732 00000037 872.20 205.47 423.89 540.72 923.59 453.79 1069.72 421.18 980.79 548.52 987.39 611.78 1120.96 582.35
00005733 00000038 853.08 212.30 414.07 536.53 912.74 461.86 1047.84 430.72 973.59 564.26 984.63 623.09 1102.27 593.47
00005734 00000039 834.56 210.39 418.36 546.43 902.06 461.46 1038.78 439.54 964.33 574.34 976.00 627.97 1092.22 605.36
00005735 00000040 830.27 219.68 407.66 543.88 890.39 465.17 1021.79 438.94 940.63 568.43 971.92 633.64 1086.76 609.00
00005736 00000041 825.36 219.30 411.24 547.67 885.88 462.70 1020.46 436.30 938.35 569.09 967.64 635.38 1083.97 610.89
00005737 00000042 822.29 231.46 409.87 539.05 881.87 468.75 1017.97 439.12 936.07 573.50 961.04 639.52 1079.52 612.34
00005738 00000043 819.73 240.89 407.71 543.07 882.11 479.55 1016.24 447.93 937.00 583.92 962.27 650.99 1080.66 622.42
00005739 00000044 815.36 249.50 408.49 548.27 877.99 490.89 1017.24 458.28 934.91 594.67 959.87 665.50 1081.68 636.54
00005740 00000045 816.16 253.90 406.92 546.03 880.66 497.88 1018.26 462.84 936.94 606.04 960.58 678.30 1079.01 646.64
00005741 00000046 818.25 252.18 408.37 551.07 884.70 500.70 1024.93 461.34 944.63 605.89 964.54 682.40 1087.35 647.34
00005742 00000047 820.94 245.17 424.00 555.25 889.17 496.98 1040.97 460.12 963.18 604.20 965.39 676.78 1092.05 644.25
00005743 00000048 829.94 252.62 415.68 536.25 900.90 491.55 1046.10 457.48 966.99 592.53 971.07 667.56 1099.28 637.34
00005744 00000049 837.10 249.08 421.95 539.21 912.02 481.48 1057.12 447.04 980.87 582.51 979.49 661.49 1106.97 631.09
00005745 DELETE   854.64 245.85 417.90 540.15 925.61 477.04 1070.82 444.52 991.54 579.15 986.00 651.97 1120.94 622.67
00005746 00000051 866.63 227.85 427.71 542.43 925.25 467.72 1085.49 431.91 999.53 573.63 990.74 640.03 1131.15 609.04
00005747 DELETE   877.05 222.10 429.34 544.91 936.66 458.13 1097.09 422.71 1010.28 563.40 1011.88 636.21 1144.61 605.77
00005748 00000053 893.05 223.31 419.81 548.20 959.60 451.54 1109.50 421.27 1020.30 554.44 1026.70 634.54 1158.41 608.05
00005749 DELETE   903.00 215.13 423.05 553.61 971.80 443.53 1121.49 418.12 1031.53 552.28 1035.66 631.85 1164.37 609.49
00005750 00000055 913.54 216.88 420.91 551.36 980.53 448.32 1138.97 418.93 1051.35 552.84 1039.91 639.32 1169.99 614.70
00005751 00000056 924.80 217.03 419.22 552.88 994.44 454.66 1146.37 422.72 1062.80 550.35 1053.65 637.26 1183.95 609.87
00005752 00000057 934.90 208.80 430.00 554.36 997.39 447.66 1163.14 417.41 1072.92 546.91 1060.07 629.40 1195.46 603.04
00005753 00000058 941.29 210.10 432.59 561.23 1005.03 446.98 1173.92 419.01 1077.88 547.48 1066.62 633.00 1203.09 608.96
00005754 00000059 948.92 212.09 434.65 569.62 1012.88 448.30 1180.95 419.76 1083.09 550.32 1075.05 638.36 1208.88 614.03
00005755 00000060 955.78 217.13 431.53 570.60 1017.51 453.43 1184.56 422.71 1087.33 557.27 1080.32 644.56 1214.70 618.70
00005756 00000061 960.16 227.60 427.50 576.73 1030.42 460.66 1187.57 430.16 1091.91 556.92 1085.42 653.18 1221.68 627.32
00005757 00000062 963.46 232.88 425.31 567.14 1027.33 469.76 1189.62 435.52 1091.31 566.31 1085.61 664.18 1217.19 635.06
00005758 00000063 969.07 234.35 422.54 563.29 1029.89 476.13 1192.96 440.92 1093.77 573.92 1085.83 670.23 1220.55 640.54
00005759 00000064 972.14 237.47 423.36 561.73 1033.22 480.80 1194.84 445.55 1095.29 577.44 1087.70 673.44 1220.40 643.97
00005760 00000065 974.93 240.27 418.82 554.45 1036.06 478.61 1194.18 447.26 1095.24 579.39 1087.59 669.40 1214.57 643.22
00005761 00000066 974.94 245.99 421.09 551.58 1037.85 480.60 1199.53 451.22 1102.12 580.09 1093.26 674.29 1217.59 649.72
00005762 00000067 974.22 247.35 422.88 552.82 1038.30 482.14 1199.06 452.51 1102.07 579.54 1097.21 676.53 1215.95 651.44
00005763 00000068 977.73 249.17 421.01 550.38 1039.19 486.98 1196.08 453.48 1097.88 580.10 1095.20 673.53 1214.13 645.57
00005764 00000069 976.09 247.90 421.70 548.59 1035.90 487.15 1195.80 452.08 1096.01 579.49 1090.45 673.49 1215.32 644.25
00005765 00000070 974.24 245.49 419.94 548.07 1032.67 487.94 1193.92 451.48 1094.05 578.59 1085.41 673.51 1215.98 643.11
00005766 00000071 971.43 246.74 420.76 542.24 1029.63 487.30 1189.98 449.32 1091.34 574.75 1083.17 670.41 1214.53 638.73
00005767 00000072 967.52 241.64 422.46 549.98 1027.84 481.29 1187.83 446.36 1088.83 572.70 1081.70 667.20 1212.35 637.90
00005768 00000073 964.61 239.52 424.52 560.94 1024.85 479.56 1182.49 442.42 1084.62 569.26 1087.69 670.44 1213.88 639.14
00005769 00000074 959.11 233.98 428.52 560.84 1017.61 478.27 1181.58 444.66 1078.76 573.33 1079.05 674.51 1205.26 646.15
00005770 00000075 953.24 235.88 431.56 560.75 1010.12 477.59 1175.20 447.07 1069.56 575.29 1067.79 675.58 1191.36 649.99
00005771 00000076 949.82 237.62 428.58 559.74 1005.23 476.39 1167.67 451.26 1060.64 579.73 1059.96 674.34 1178.04 653.16
00005772 00000077 942.13 237.28 426.14 561.02 995.66 477.94 1156.11 452.52 1047.06 579.67 1049.07 676.76 1163.90 655.30
00005773 00000078 939.38 242.76 414.23 555.56 992.83 476.09 1141.92 457.65 1039.14 577.86 1036.79 672.51 1154.38 656.54
00005774 00000079 928.30 244.89 413.52 551.21 983.94 473.65 1133.79 455.18 1032.48 576.99 1028.22 674.76 1143.65 659.38
00005775 00000080 916.93 235.94 419.93 561.88 970.56 479.72 1135.99 454.94 1026.29 588.00 1024.89 684.01 1135.63 663.79
00005776 00000081 915.28 246.45 416.50 562.17 961.36 487.31 1122.85 467.24 1011.07 593.40 1012.31 686.81 1120.29 670.45
00005777 00000082 911.26 260.45 411.98 566.22 957.93 500.72 1114.53 481.76 1003.95 601.87 1016.06 697.96 1121.48 682.23
00005778 00000083 906.58 264.93 413.15 576.07 954.43 504.78 1108.62 485.65 1001.23 613.40 1015.23 705.82 1121.53 690.05
00005779 00000084 906.70 266.30 414.23 575.47 954.46 505.36 1110.08 485.86 1002.67 618.64 1014.47 708.14 1123.52 692.29
00005780 00000085 908.46 265.42 416.23 576.06 954.97 505.41 1112.25 486.43 1002.44 620.02 1013.03 708.72 1123.60 693.47
00005781 00000086 908.96 269.80 416.98 572.70 955.06 504.49 1112.97 486.69 1001.81 619.45 1010.95 707.99 1123.15 693.72
00005782 00000087 908.16 268.46 419.65 578.69 956.63 503.26 1114.91 485.03 1003.39 617.39 1010.49 708.00 1125.75 693.41
00005783 00000088 908.13 268.67 422.41 582.48 955.86 500.91 1116.62 483.27 1002.81 616.96 1006.59 707.70 1129.83 693.72
00005784 00000089 907.83 265.01 420.86 581.53 955.77 498.67 1118.84 479.12 1003.78 611.74 1006.02 707.11 1130.50 691.56
00005785 00000090 906.91 260.53 421.04 581.33 955.57 494.04 1119.93 476.26 1005.13 606.83 1004.07 701.13 1131.99 686.82
00005786 00000091 905.54 254.08 423.62 582.28 955.96 488.05 1119.74 472.66 1005.17 600.26 1000.97 693.98 1129.62 681.51
00005787 00000092 901.34 246.26 428.34 583.71 951.74 483.83 1116.12 465.94 1002.73 595.06 998.99 690.27 1126.52 675.69
00005788 00000093 900.45 241.13 428.56 581.13 950.92 477.52 1114.23 462.12 999.82 592.24 996.09 683.47 1119.97 671.00
00005789 00000094 897.43 241.17 427.57 577.21 950.85 476.55 1110.31 459.99 998.65 588.04 1001.43 681.82 1113.73 668.23
00005790 00000095 893.75 236.81 431.47 587.18 950.44 472.51 1109.28 457.14 997.59 583.97 1001.32 683.39 1106.67 670.77
00005791 00000096 891.54 232.57 431.83 589.07 948.52 470.57 1106.35 454.96 994.83 580.18 1000.05 681.87 1103.47 668.81
00005792 00000097 890.66 233.02 428.84 586.91 945.68 469.46 1096.45 451.20 987.83 589.10 995.08 684.22 1100.32 669.42
00005793 00000098 886.79 230.03 430.49 582.02 940.54 470.21 1097.02 454.55 985.08 580.45 988.66 677.69 1096.32 664.40
00005794 00000099 885.75 229.47 430.41 578.77 938.36 469.88 1096.50 454.46 984.59 582.99 985.64 675.95 1097.65 662.78
00005795 00000100 885.49 229.52 431.76 576.35 938.32 471.64 1098.17 456.06 985.81 584.07 984.42 675.07 1098.92 661.86
00005796 00000101 887.88 234.71 430.72 570.19 940.24 473.45 1099.98 458.32 987.91 586.82 986.82 674.88 1101.25 662.13
00005797 00000102 891.19 234.75 428.69 570.34 943.04 475.24 1103.12 459.31 991.10 585.89 990.77 675.42 1104.11 661.95
00005798 00000103 895.35 238.27 428.62 569.56 948.02 476.97 1105.83 460.85 994.12 585.47 995.92 676.28 1104.50 662.69
00005799 00000104 901.32 241.68 425.34 572.14 952.77 478.96 1110.87 463.46 997.07 589.26 1000.56 681.29 1107.59 668.47
00005800 00000105 906.50 248.53 424.68 576.09 957.86 482.80 1114.91 467.32 1001.13 593.25 1005.08 686.95 1112.77 674.51
00005801 00000106 909.48 252.80 425.15 574.74 963.33 482.38 1121.49 469.72 1008.38 599.61 1010.81 689.67 1119.94 679.75
00005802 00000107 913.81 256.45 423.37 569.66 966.80 482.42 1125.63 471.39 1013.10 602.89 1013.03 687.85 1123.53 679.43
00005803 00000108 912.91 249.71 426.35 568.44 968.19 479.40 1133.42 466.31 1020.03 600.36 1015.92 685.06 1128.28 675.01
00005804 00000109 917.38 248.33 425.90 560.86 972.04 479.41 1141.05 463.03 1028.22 594.71 1019.45 679.76 1136.05 666.81
00005805 00000110 923.06 249.19 424.86 556.62 978.27 479.51 1147.37 462.01 1034.95 590.95 1022.86 676.54 1142.33 662.64
00005806 00000111 924.54 248.58 423.42 561.86 986.84 473.66 1138.12 456.84 1038.67 585.84 1031.48 676.24 1156.93 660.89
00005807 00000112 925.37 248.46 427.50 567.73 986.39 474.21 1137.80 452.27 1038.50 585.87 1036.94 673.96 1172.31 653.34
00005808 00000113 925.39 250.23 427.53 574.10 985.81 474.79 1134.79 449.90 1034.96 588.35 1042.05 673.88 1182.47 649.63
00005809 00000114 926.26 247.67 423.57 574.76 983.49 475.05 1129.00 452.29 1028.63 590.63 1038.27 673.42 1177.93 650.87
00005810 00000115 924.35 244.60 422.82 577.64 976.02 477.92 1133.10 459.11 1026.25 598.17 1029.47 668.59 1164.39 651.80
00005811 00000116 922.66 255.44 422.40 567.27 970.23 478.57 1129.11 467.58 1016.66 603.82 1019.88 676.41 1148.17 666.69
00005812 00000117 917.74 257.09 424.00 564.82 964.21 477.12 1123.59 472.94 1007.61 605.93 1006.48 681.35 1125.88 678.06
00005813 00000118 914.00 265.89 418.25 561.76 958.46 477.51 1116.14 478.34 997.36 609.35 992.61 686.71 1107.56 687.70
00005814 00000119 908.64 264.20 416.30 565.12 953.11 477.88 1105.41 482.49 987.43 613.58 987.41 687.98 1100.60 691.73
00005815 00000120 904.18 263.11 416.31 566.35 949.95 478.28 1097.61 483.38 982.25 612.54 985.51 688.47 1092.53 692.48
00005816 00000121 901.05 264.13 416.36 564.35 945.41 474.59 1096.89 478.13 979.20 610.22 982.05 687.61 1090.03 690.21
00005817 00000122 899.70 256.36 413.50 569.92 943.69 470.40 1095.69 473.20 977.82 604.07 979.84 683.60 1087.79 685.48
00005818 00000123 896.22 244.34 416.51 574.77 943.43 469.24 1092.26 468.20 976.70 595.32 983.42 679.30 1086.97 678.01
00005819 00000124 893.24 235.75 421.48 580.40 942.60 465.39 1093.15 460.95 976.10 586.73 981.78 675.12 1088.59 671.04
00005820 00000125 894.82 230.27 419.36 580.01 942.87 461.82 1094.86 456.04 975.84 579.67 979.45 670.41 1089.70 665.05
00005821 00000126 896.53 228.32 419.92 577.23 943.95 458.28 1098.06 450.95 977.50 573.21 977.46 662.26 1099.44 655.82
00005822 00000127 898.22 230.28 419.33 575.02 946.89 457.84 1103.38 447.80 984.55 572.07 981.12 652.55 1117.08 643.42
00005823 00000128 901.48 232.69 415.46 574.14 949.55 459.85 1105.48 448.34 988.59 574.17 985.52 651.34 1126.62 640.57
00005824 00000129 901.08 231.16 413.78 572.25 949.20 460.08 1108.04 448.37 990.50 575.10 984.21 649.16 1129.16 638.11
00005825 00000130 900.74 229.95 412.72 569.66 949.77 460.46 1107.51 446.99 992.03 571.17 983.06 643.58 1128.98 631.03
00005826 00000131 902.35 231.16 410.19 562.27 949.84 457.82 1109.34 443.90 993.23 568.80 983.12 638.75 1132.80 625.78
00005827 00000132 907.66 222.18 413.60 569.11 951.37 447.91 1103.91 433.90 987.46 565.39 990.29 637.45 1130.16 625.35
00005828 00000133 917.90 238.34 406.43 559.25 965.67 444.86 1118.43 430.99 1004.56 553.86 998.76 639.60 1144.07 625.55
00005829 00000134 924.19 232.56 404.73 564.54 973.91 440.18 1124.93 433.62 1009.28 551.57 1002.32 639.56 1142.06 632.24
00005830 00000135 930.64 225.08 408.10 571.15 981.67 438.15 1137.46 435.17 1019.42 548.74 1006.66 640.91 1145.32 636.95
00005831 00000136 935.56 219.23 410.87 569.91 986.87 436.29 1144.65 435.30 1024.40 546.81 1007.95 639.00 1147.59 637.16
00005832 00000137 942.16 216.72 409.98 564.00 990.70 436.58 1152.33 432.50 1028.94 540.90 1012.78 636.52 1153.75 632.54
00005833 00000138 945.97 209.75 419.83 566.57 998.39 428.46 1155.82 424.54 1031.11 539.93 1023.34 632.27 1150.74 628.15
00005834 00000139 949.99 211.39 424.61 563.01 1001.91 426.09 1158.47 424.57 1034.55 537.68 1023.39 628.35 1150.98 626.47
00005835 00000140 956.36 208.75 425.65 563.74 1006.36 421.72 1164.08 422.20 1038.87 537.52 1028.38 626.74 1155.22 626.69
00005836 00000141 964.65 202.02 421.15 568.13 1014.35 414.23 1174.52 419.34 1044.23 534.67 1031.06 621.61 1160.22 625.82
00005837 00000142 970.05 200.35 418.05 564.35 1020.42 406.52 1183.27 414.86 1050.61 530.46 1035.02 614.98 1164.61 622.13
00005838 00000143 978.00 192.64 413.04 563.54 1027.06 404.63 1190.49 412.41 1056.73 522.80 1039.70 607.77 1170.15 614.56
00005839 00000144 982.73 183.48 414.44 563.15 1030.04 401.92 1196.51 407.37 1061.22 512.44 1043.46 601.99 1176.52 606.93
00005840 00000145 986.85 178.60 414.61 562.54 1034.58 396.25 1201.81 399.32 1068.19 505.17 1048.51 597.68 1180.35 600.86
00005841 00000146 993.33 174.41 411.91 563.56 1039.83 391.26 1207.64 395.64 1071.90 501.72 1050.91 593.50 1183.93 597.83
00005842 00000147 997.08 175.30 409.91 562.93 1043.40 390.74 1212.18 398.77 1074.04 504.35 1051.74 594.08 1185.21 601.38
00005843 00000148 1003.96 188.99 411.09 550.86 1050.40 390.96 1219.95 407.03 1080.36 513.46 1055.44 595.86 1191.72 609.49
00005844 00000149 1012.60 194.95 410.12 546.65 1057.91 389.10 1231.64 409.41 1087.37 515.41 1061.19 596.95 1201.21 613.50
00005845 00000150 1018.47 184.46 410.16 551.01 1067.81 387.68 1239.30 405.52 1096.99 505.82 1069.38 592.60 1208.05 607.09
00005846 00000151 1023.24 178.42 410.35 553.08 1072.00 383.39 1243.42 399.66 1103.62 502.68 1075.90 590.04 1212.00 603.28
00005847 00000152 1026.58 177.60 407.74 555.95 1074.04 383.71 1243.33 398.02 1103.95 501.61 1078.95 591.95 1210.47 603.70
00005848 00000153 1025.85 181.21 404.55 558.35 1072.76 387.76 1240.40 403.48 1100.31 506.27 1076.27 598.04 1205.94 610.85
00005849 00000154 1017.55 191.03 421.71 574.46 1075.09 397.25 1243.06 414.71 1099.16 513.94 1077.12 613.94 1203.51 628.20
00005850 00000155 1019.66 201.93 418.05 568.94 1078.81 406.40 1248.49 427.58 1107.36 527.12 1077.02 622.12 1209.56 639.58
00005851 00000156 1024.14 205.14 421.94 573.53 1083.09 406.21 1255.21 428.80 1112.64 529.22 1079.42 624.74 1214.15 643.41
00005852 00000157 1028.54 205.61 420.60 569.52 1086.88 404.97 1256.53 423.47 1117.24 524.46 1086.93 621.75 1218.13 637.28
00005853 00000158 1027.56 202.62 421.88 577.23 1090.94 398.35 1257.11 417.96 1118.23 517.97 1092.62 615.30 1224.91 631.81
00005854 00000159 1027.82 195.66 423.17 580.03 1090.45 395.97 1254.47 415.15 1111.94 513.47 1091.03 610.42 1225.81 626.43
00005855 00000160 1031.13 195.92 421.43 574.94 1091.58 392.57 1254.04 416.90 1106.20 511.69 1087.55 605.38 1222.17 625.27
00005856 00000161 1034.37 194.95 422.13 568.47 1096.30 390.94 1258.29 420.03 1104.57 510.55 1085.77 597.50 1221.43 621.53
00005857 00000162 1047.24 192.34 413.24 565.30 1105.27 387.98 1261.83 420.91 1108.11 506.96 1089.62 591.04 1223.80 618.37
00005858 00000163 1059.10 188.44 407.96 560.56 1114.64 382.85 1270.92 416.79 1118.60 499.96 1095.95 584.28 1232.40 612.89
00005859 00000164 1069.17 180.45 404.66 557.31 1127.15 379.69 1277.82 410.48 1128.38 487.17 1106.67 575.85 1235.81 602.18
00005860 00000165 1078.04 174.72 403.57 552.93 1133.70 375.79 1284.74 405.30 1132.59 476.98 1111.30 569.54 1237.04 594.53
