Video ID: 	veV_JPakYVE
H: 	1080
W: 	1920
FPS: 	25.0

FRAME INDEX X0 Y0 W H [Landmarks (5 Points)]

00001513 00000000 721.91 173.13 426.77 677.73 753.96 473.02 878.31 508.69 735.51 619.95 789.39 696.39 886.31 723.86
00001514 DELETE   721.58 173.12 428.98 677.18 755.00 469.39 881.28 506.59 737.42 620.24 792.92 695.50 890.16 724.46
00001515 00000002 721.11 172.05 429.68 678.91 756.51 470.86 881.84 504.83 741.64 619.45 796.62 695.34 893.08 721.85
00001516 DELETE   719.56 181.98 439.58 668.69 765.14 476.30 883.69 504.82 750.02 616.28 805.22 689.79 898.20 711.26
00001517 DELETE   715.97 184.41 445.14 671.38 764.66 479.00 880.53 505.92 747.38 617.67 807.75 693.43 899.41 713.15
00001518 00000005 714.21 183.75 440.68 677.21 763.95 479.60 877.61 509.80 743.07 621.27 806.70 697.41 897.75 719.74
00001519 DELETE   708.14 194.94 445.18 666.56 753.33 476.02 887.97 511.32 733.06 625.06 791.26 701.67 889.08 726.27
00001520 00000007 706.83 206.44 443.91 655.52 751.02 478.11 885.85 514.12 728.95 625.44 785.96 700.59 884.20 726.26
00001521 00000008 704.12 203.98 440.21 660.24 748.20 480.12 883.22 512.91 727.82 626.73 782.38 701.79 882.91 724.77
00001522 00000009 701.62 206.39 437.18 656.97 746.01 482.95 880.68 515.75 726.02 628.69 780.07 703.36 878.37 726.59
00001523 00000010 701.12 202.43 439.73 659.88 745.81 494.18 868.09 523.24 731.80 632.70 784.76 704.78 884.28 727.10
00001524 00000011 695.64 206.73 436.01 659.37 738.37 486.79 877.48 522.06 723.11 636.72 773.31 705.75 875.45 730.68
00001525 00000012 694.15 206.06 438.85 663.21 735.69 486.53 878.80 525.50 723.63 641.48 770.29 707.90 876.91 735.75
00001526 00000013 692.95 208.01 445.17 665.71 734.39 487.22 883.31 526.97 726.66 645.25 769.87 709.05 886.15 737.21
00001527 00000014 694.18 207.26 452.57 667.83 735.56 489.56 890.05 528.55 733.04 651.23 775.09 714.14 896.21 741.67
00001528 00000015 700.29 216.98 450.29 657.42 739.31 496.95 894.54 529.38 743.13 658.42 782.00 715.75 910.58 737.69
00001529 00000016 703.60 217.64 447.85 656.25 741.30 505.13 901.75 529.13 753.58 666.41 789.20 723.96 922.02 738.69
00001530 00000017 708.32 216.65 446.76 654.08 747.10 509.84 909.23 529.40 765.89 669.80 798.09 724.34 934.51 734.92
00001531 00000018 710.08 214.45 450.03 656.71 753.81 507.84 917.60 526.16 775.59 668.29 808.84 722.10 943.84 731.76
00001532 00000019 709.89 210.64 453.17 662.21 755.41 510.09 926.08 523.54 783.62 667.54 809.78 724.97 951.24 731.33
00001533 00000020 711.34 212.28 451.33 663.20 759.77 513.02 926.38 522.06 788.89 664.96 813.95 726.44 954.22 729.66
00001534 00000021 711.92 211.58 448.99 663.82 762.16 514.07 927.66 523.90 791.77 663.27 813.66 723.70 956.14 727.57
00001535 00000022 711.27 211.32 449.08 663.37 761.93 513.07 927.24 522.29 792.29 663.28 814.31 722.91 957.21 726.25
00001536 00000023 710.51 211.65 448.15 663.28 760.05 514.46 924.89 522.73 790.02 665.83 814.47 724.58 956.50 726.90
00001537 00000024 708.97 208.17 447.81 667.84 757.42 516.28 922.54 524.26 785.74 668.09 811.69 726.48 955.31 728.05
00001538 00000025 709.13 212.95 446.29 664.57 755.99 518.01 919.19 525.38 782.85 667.83 810.73 728.20 952.68 729.14
00001539 00000026 707.84 213.21 445.70 664.21 755.36 518.60 917.67 526.54 782.15 668.98 811.23 728.41 952.55 729.64
00001540 00000027 703.49 214.81 451.51 664.94 750.63 520.80 913.31 523.41 781.21 670.11 810.52 733.53 950.96 730.70
00001541 00000028 701.45 227.73 451.93 653.79 750.71 522.95 910.62 523.57 782.42 675.60 816.02 736.32 954.43 732.05
00001542 00000029 694.72 232.49 460.07 650.88 752.06 528.58 898.38 526.71 781.82 681.30 833.43 731.90 958.24 726.59
00001543 00000030 691.43 243.70 456.38 639.21 740.53 539.11 898.41 533.38 778.89 677.94 825.44 744.41 960.24 736.01
00001544 00000031 684.79 250.10 461.77 634.95 736.40 543.17 892.94 532.54 777.05 682.71 828.37 746.41 961.87 733.98
00001545 00000032 676.43 264.53 467.78 621.42 731.06 547.29 887.85 535.11 772.63 687.77 827.93 748.15 958.99 734.77
00001546 00000033 674.99 253.17 466.76 630.31 727.81 548.55 885.78 534.65 770.88 684.18 820.96 748.74 953.08 734.06
00001547 00000034 674.57 250.65 465.85 630.18 727.02 540.53 883.12 530.80 765.55 679.81 817.38 743.51 947.05 732.37
00001548 00000035 678.98 236.80 466.19 636.05 735.30 530.05 884.51 522.63 771.89 678.56 819.11 733.15 945.73 723.44
00001549 00000036 687.32 236.94 461.24 632.36 742.52 521.42 886.96 521.88 771.53 671.72 823.21 722.63 946.35 719.35
00001550 00000037 694.37 229.05 453.35 642.92 748.06 517.98 891.90 519.68 773.17 668.17 825.38 722.45 946.48 720.27
00001551 00000038 698.99 220.53 450.99 655.19 748.84 520.79 905.40 519.42 779.32 664.40 811.98 732.23 946.87 725.98
00001552 00000039 707.18 217.15 444.50 658.95 755.05 518.62 901.24 523.78 780.30 669.57 826.66 728.65 945.73 729.79
00001553 00000040 708.18 210.85 448.14 665.19 755.03 521.91 915.93 524.57 782.92 665.85 812.96 732.31 950.23 729.52
00001554 00000041 710.33 215.46 452.99 658.19 757.61 518.76 920.68 524.20 787.15 665.96 814.33 728.52 953.42 728.39
00001555 00000042 715.74 210.51 449.13 658.98 762.35 513.12 924.90 521.74 789.03 662.31 818.42 723.71 957.53 726.41
00001556 00000043 719.96 217.34 448.28 651.06 767.94 511.46 930.77 520.61 794.50 658.36 821.64 720.11 962.08 723.52
00001557 00000044 722.29 210.15 449.45 655.95 770.70 506.23 935.37 518.70 798.57 654.62 821.45 716.58 962.93 723.23
00001558 00000045 725.16 209.00 448.05 655.60 772.50 503.76 936.97 517.41 801.25 653.57 822.60 716.14 963.21 724.11
00001559 00000046 726.06 207.85 449.89 656.40 773.82 505.18 938.10 516.68 803.39 651.75 824.91 717.32 963.18 723.86
00001560 00000047 728.02 206.49 448.53 660.97 774.93 508.90 940.50 519.35 805.43 653.58 825.19 721.61 962.91 727.70
00001561 00000048 728.63 208.30 448.85 663.58 776.02 510.18 941.05 523.49 803.45 657.70 821.06 720.72 963.64 728.82
00001562 00000049 728.49 209.07 449.00 665.46 776.40 510.83 941.56 524.11 804.09 658.08 821.36 723.39 962.58 731.61
00001563 00000050 728.00 209.13 448.73 665.85 774.97 510.41 941.21 524.65 803.12 658.62 819.27 724.61 960.90 733.66
00001564 00000051 727.17 207.04 449.41 667.25 772.95 509.85 940.73 523.63 801.24 657.88 816.69 725.93 958.41 734.55
00001565 00000052 725.67 207.42 449.11 662.05 771.25 506.56 940.73 521.51 800.84 656.75 816.43 723.24 958.87 732.56
00001566 00000053 723.72 208.02 448.91 657.59 771.21 504.73 939.64 518.39 801.76 654.41 816.64 718.59 958.82 726.84
00001567 00000054 724.83 204.79 444.92 652.21 770.78 502.01 938.78 515.64 802.55 652.07 815.43 713.00 958.68 720.97
00001568 00000055 718.35 202.38 452.17 643.48 764.50 498.52 935.74 511.87 802.16 649.74 812.75 710.00 955.54 717.92
00001569 00000056 708.78 196.99 460.36 639.10 754.29 498.67 930.98 508.29 796.94 650.65 812.29 710.17 957.27 714.49
00001570 00000057 700.57 196.20 472.02 646.16 751.52 507.82 927.92 511.53 799.51 657.29 816.33 717.70 961.61 717.20
00001571 00000058 695.21 212.31 471.78 643.17 750.41 522.53 921.74 522.16 799.58 667.99 821.54 729.58 958.88 725.20
00001572 00000059 685.51 214.70 476.19 649.84 737.67 528.20 916.01 524.75 788.17 678.22 811.09 742.34 953.14 735.42
00001573 00000060 684.72 219.04 469.81 653.78 738.49 534.75 903.58 529.61 784.26 685.84 819.00 744.42 949.49 737.56
00001574 00000061 684.56 233.68 467.28 640.79 731.83 540.47 898.20 537.83 774.07 693.32 811.40 751.78 940.39 746.94
00001575 00000062 681.88 239.25 464.85 641.26 732.15 542.92 894.30 542.29 772.63 695.37 807.99 750.95 938.53 747.68
00001576 00000063 677.59 240.43 465.57 643.12 728.55 546.64 892.50 545.63 773.35 696.71 802.18 753.96 930.86 750.59
00001577 00000064 674.86 242.94 467.29 641.51 727.53 546.01 893.53 547.33 774.09 697.71 799.34 753.68 928.48 752.36
00001578 00000065 673.83 242.97 467.78 641.83 726.43 544.67 894.81 547.24 774.09 696.69 795.14 752.63 927.74 752.50
00001579 00000066 675.52 240.49 466.59 643.40 728.27 543.88 893.83 548.00 771.83 694.84 795.19 751.13 926.07 752.22
00001580 00000067 677.31 238.77 465.12 642.99 728.07 539.41 896.75 547.95 771.01 694.02 789.93 747.91 925.13 752.58
00001581 00000068 682.37 232.43 461.10 648.96 734.92 537.06 899.00 548.59 772.88 689.20 792.08 743.28 926.80 750.31
00001582 00000069 692.09 222.63 454.82 655.27 741.90 534.99 901.33 544.00 777.55 683.33 799.20 740.27 930.85 745.29
00001583 00000070 697.35 215.63 452.18 658.32 745.78 527.58 905.41 540.11 778.09 678.24 800.15 733.04 933.97 740.95
00001584 00000071 697.67 207.63 459.41 658.62 738.93 523.75 918.73 533.64 776.97 676.58 791.23 739.00 933.20 743.28
00001585 00000072 702.29 210.22 456.88 654.98 744.38 518.94 923.10 532.81 780.54 671.01 793.79 732.59 935.05 739.99
00001586 00000073 703.36 206.52 456.94 657.14 745.76 516.01 925.90 531.72 781.02 668.42 794.12 729.87 936.75 738.55
00001587 00000074 704.50 205.85 457.68 658.27 747.31 518.14 925.94 531.47 782.13 667.08 795.65 730.28 937.96 737.01
00001588 00000075 704.23 207.45 457.51 659.18 746.83 515.47 925.77 530.84 780.70 669.51 796.17 730.36 938.21 738.74
00001589 00000076 703.72 212.10 457.35 659.51 746.78 516.12 922.45 531.87 779.24 672.60 798.09 732.22 938.94 740.82
00001590 00000077 703.41 209.28 456.53 664.74 746.38 518.68 920.51 533.32 777.90 674.65 797.44 733.14 941.08 740.53
00001591 00000078 703.05 211.18 455.73 663.76 745.83 519.28 920.90 534.85 778.02 676.22 796.03 733.66 939.72 742.01
00001592 00000079 703.87 210.14 450.56 664.80 746.87 521.27 919.70 536.43 778.89 676.67 794.93 734.21 937.72 742.30
00001593 00000080 703.43 211.29 451.67 663.90 746.77 521.07 921.14 537.18 779.75 677.04 794.94 734.49 937.71 743.50
00001594 00000081 705.32 213.02 447.51 660.77 745.67 521.42 919.98 538.69 775.93 676.85 790.03 733.43 935.08 743.16
00001595 00000082 696.02 224.81 447.02 645.40 739.62 513.58 892.05 542.78 760.28 681.75 792.04 721.73 921.09 743.45
00001596 00000083 689.32 230.74 457.19 648.14 729.84 504.85 877.00 546.04 733.15 682.45 783.72 721.94 905.10 752.87
00001597 00000084 687.02 234.70 439.86 642.86 723.73 494.81 872.27 547.19 718.70 664.69 765.64 718.12 881.18 756.51
00001598 00000085 686.61 240.03 435.14 633.95 723.24 495.25 861.99 551.29 708.27 653.82 760.29 710.71 866.66 752.74
00001599 00000086 686.89 231.53 436.39 643.20 723.84 489.66 862.95 545.06 706.46 649.16 757.84 709.52 864.21 750.96
00001600 00000087 687.09 222.74 434.12 651.89 728.42 490.15 868.62 538.20 712.63 648.08 760.73 711.12 869.73 746.34
00001601 00000088 694.46 214.43 440.42 664.16 734.36 499.82 870.36 543.68 723.84 656.88 771.96 715.48 886.90 748.97
00001602 00000089 692.52 213.76 444.00 662.14 733.20 494.62 883.14 540.67 724.93 657.57 768.43 714.73 889.20 747.64
00001603 00000090 699.16 218.26 443.15 660.26 741.70 507.34 872.71 550.59 729.72 666.80 786.67 718.92 897.01 751.76
00001604 00000091 695.00 214.18 449.49 659.92 736.08 494.48 884.19 539.23 725.67 657.39 774.40 718.38 888.21 750.63
00001605 00000092 699.06 208.53 449.58 663.31 738.00 492.44 886.14 534.74 725.60 651.83 772.62 720.48 877.80 751.60
00001606 00000093 708.65 205.80 447.52 668.56 749.16 499.48 878.55 544.93 735.82 653.60 782.70 719.78 878.43 756.17
00001607 00000094 707.03 211.22 446.92 660.77 741.47 494.21 892.72 537.12 729.52 653.17 773.19 724.18 881.56 755.88
00001608 00000095 708.83 213.84 448.99 657.85 743.13 494.70 896.22 540.48 731.43 653.78 773.13 723.10 883.11 757.11
00001609 00000096 707.37 217.22 451.45 654.71 744.35 493.88 898.05 540.42 734.11 654.53 776.50 722.39 887.69 756.81
00001610 00000097 711.15 215.30 447.99 654.34 747.68 496.41 899.66 542.48 736.72 655.88 780.14 722.28 889.56 756.22
00001611 00000098 711.74 214.00 447.76 652.51 746.74 496.35 901.70 540.61 740.04 655.93 779.79 720.12 892.07 752.61
00001612 00000099 713.36 216.15 445.69 649.26 749.38 495.95 903.33 538.42 743.31 654.87 784.44 719.66 895.84 750.60
00001613 00000100 713.26 217.95 446.64 645.31 750.02 495.76 904.59 538.86 745.70 654.98 785.04 715.84 899.10 747.03
00001614 00000101 714.12 216.89 445.63 647.81 751.93 494.23 907.95 538.59 748.48 655.41 784.78 713.80 902.83 745.83
00001615 00000102 716.06 215.00 448.08 653.38 751.62 495.18 915.83 535.81 755.58 658.68 788.00 719.49 912.36 748.88
00001616 00000103 724.38 218.72 445.23 656.26 759.30 501.28 918.43 537.47 763.51 664.13 799.87 726.01 923.30 752.01
00001617 00000104 723.64 217.82 447.14 661.62 763.30 507.02 922.97 538.24 773.50 672.91 810.83 731.45 935.74 753.69
00001618 00000105 723.25 218.38 449.62 666.94 767.62 514.30 931.63 539.09 784.43 676.74 815.90 735.19 949.91 752.27
00001619 00000106 725.84 221.16 448.68 664.70 773.35 517.34 933.73 536.02 794.96 679.20 822.69 733.68 960.53 745.81
00001620 00000107 725.14 221.04 450.99 661.81 773.70 517.19 939.58 532.34 801.54 675.58 823.95 732.51 965.15 742.02
00001621 00000108 722.76 219.53 454.47 662.26 772.17 514.54 941.06 529.84 801.41 672.70 822.51 729.47 966.10 739.30
00001622 00000109 721.67 220.03 451.79 658.53 770.76 515.31 939.14 526.00 800.64 664.91 820.67 726.88 965.09 732.55
00001623 00000110 717.38 216.90 454.36 656.37 768.39 516.76 933.62 525.36 799.24 661.12 821.10 726.45 959.96 730.31
00001624 00000111 713.92 214.79 455.90 653.02 762.95 517.42 932.37 526.23 796.49 664.07 817.06 727.58 956.35 731.51
00001625 00000112 709.04 211.80 458.08 654.83 757.86 517.60 930.60 527.47 793.90 666.97 813.87 731.25 951.61 735.87
00001626 00000113 708.06 208.12 456.33 657.47 755.93 516.86 929.19 527.84 791.38 666.39 812.17 731.81 947.22 737.17
00001627 00000114 706.76 210.92 455.57 656.46 753.96 518.33 929.10 530.56 791.06 670.49 808.44 733.14 946.66 739.47
00001628 00000115 705.85 208.60 456.20 659.01 751.02 526.07 927.49 530.23 791.62 674.16 813.22 750.30 943.31 750.58
00001629 00000116 704.35 209.40 453.93 659.88 747.08 528.91 923.86 534.78 787.21 680.59 810.58 756.65 940.20 757.98
00001630 00000117 700.99 207.84 453.40 663.95 744.20 529.33 921.59 531.63 784.69 678.61 808.83 760.66 935.09 759.53
00001631 00000118 700.74 212.38 451.95 665.20 748.63 525.15 914.02 527.17 784.59 669.74 815.07 749.58 935.68 748.13
00001632 00000119 700.17 211.57 450.97 663.18 749.57 518.76 908.03 523.19 782.51 666.39 815.57 734.92 940.78 734.13
00001633 00000120 698.81 214.73 450.56 654.39 749.48 518.63 905.59 524.42 782.47 668.38 814.95 729.52 940.42 729.66
00001634 00000121 697.49 212.54 452.37 656.52 748.60 519.03 904.00 523.60 781.02 667.14 813.70 729.29 939.10 728.52
00001635 00000122 699.83 213.96 450.57 656.34 750.06 518.26 906.67 522.71 783.51 666.18 817.24 731.90 941.26 731.14
00001636 00000123 704.46 213.46 447.96 658.42 752.17 515.63 912.15 524.12 783.50 669.60 816.13 728.54 947.00 730.50
00001637 00000124 706.51 214.39 447.16 658.11 754.66 517.20 913.89 524.37 785.66 667.39 817.45 727.26 948.86 728.12
00001638 00000125 707.32 214.37 445.66 657.29 755.40 515.67 914.96 524.28 785.32 667.10 816.35 725.18 949.45 727.08
00001639 00000126 708.79 212.62 444.99 658.41 755.69 515.30 915.76 524.30 784.31 666.63 816.50 725.16 949.84 727.33
00001640 00000127 707.80 211.82 445.96 658.16 754.88 515.60 914.42 524.91 784.23 668.26 815.92 725.42 948.28 727.95
00001641 00000128 707.31 211.26 447.60 657.38 754.00 515.99 913.97 524.52 783.93 669.81 815.53 726.78 948.02 728.64
00001642 00000129 706.59 210.55 450.18 661.55 753.49 518.12 914.53 524.25 783.48 668.78 815.12 731.92 947.01 732.11
00001643 00000130 706.69 208.80 450.43 661.43 753.25 517.71 914.22 523.78 782.90 668.40 814.59 730.95 946.94 731.01
00001644 00000131 706.83 215.04 448.37 653.59 755.18 517.01 910.99 520.33 784.30 661.95 818.16 728.82 944.46 726.74
00001645 00000132 701.99 212.53 452.77 648.22 756.70 510.86 904.09 511.60 786.33 649.11 821.37 713.22 940.51 709.17
00001646 DELETE   700.27 195.02 445.70 659.26 747.32 497.56 884.78 494.89 766.68 639.66 829.21 711.46 933.50 707.11
00001647 DELETE   689.98 191.12 449.93 650.41 739.92 495.47 865.90 481.27 757.10 625.01 822.59 705.91 921.78 692.00
00001648 DELETE   672.73 192.50 456.59 643.64 726.17 487.43 852.92 463.20 750.13 615.69 817.66 703.86 916.24 681.31
00001649 00000136 666.75 188.74 452.80 641.76 720.52 485.23 842.34 454.44 744.35 606.73 814.73 696.98 912.73 668.77
00001650 00000137 664.43 184.25 452.24 643.30 716.43 484.34 838.52 451.77 740.64 603.85 810.92 694.75 909.81 664.97
00001651 00000138 663.39 181.48 451.70 644.65 713.29 483.33 836.55 450.95 736.31 602.39 805.17 695.46 904.54 665.90
CROP_BBOX: 392 0 1456 1041
