Video ID: 	wnZ3fECXOpE
H: 	1080
W: 	1920
FPS: 	25.0

FRAME INDEX X0 Y0 W H [Landmarks (5 Points)]

00000427 00000000 861.51 183.46 413.43 555.32 899.31 398.36 1067.91 392.40 929.88 510.62 934.12 604.85 1072.17 599.10
00000428 00000001 861.93 179.74 416.58 561.57 900.49 397.84 1071.26 389.48 932.60 508.27 935.42 605.17 1074.39 597.61
00000429 00000002 864.46 179.68 418.28 563.82 905.28 397.89 1075.74 389.15 936.85 505.65 939.00 604.38 1081.90 596.39
00000430 00000003 867.06 180.19 417.84 563.74 909.20 395.07 1080.25 389.70 939.51 506.43 943.13 601.95 1088.41 596.52
00000431 00000004 866.15 186.99 420.29 562.45 914.56 398.55 1074.78 390.23 941.38 504.71 949.16 603.60 1091.28 594.19
00000432 00000005 869.82 187.28 421.19 567.89 915.24 396.32 1084.26 392.12 943.97 511.19 952.56 607.68 1096.10 602.15
00000433 00000006 869.39 196.50 418.18 558.14 911.77 407.95 1081.43 397.08 943.24 515.42 954.42 609.89 1095.74 597.94
00000434 00000007 870.52 192.27 420.56 560.82 914.68 398.87 1083.95 396.34 944.30 515.96 950.99 608.19 1093.72 604.02
00000435 00000008 870.89 195.33 419.95 556.53 914.20 403.53 1083.18 401.17 945.91 521.10 950.53 609.12 1092.36 605.03
00000436 00000009 869.36 202.96 419.04 552.37 910.43 420.49 1080.90 410.29 943.85 527.03 949.83 614.49 1093.76 603.16
00000437 00000010 870.72 209.93 416.78 552.24 912.86 425.27 1080.57 417.96 944.23 535.07 950.49 619.32 1094.31 610.36
00000438 00000011 873.53 213.71 415.82 552.29 914.98 428.47 1082.12 422.50 946.34 540.09 951.99 623.34 1096.32 615.57
00000439 00000012 875.87 215.13 413.68 551.14 916.61 429.70 1084.23 423.68 949.74 541.56 953.83 625.79 1096.68 618.29
00000440 00000013 878.72 213.35 412.77 548.98 919.39 428.49 1086.28 422.96 953.39 541.92 956.11 625.17 1095.87 618.17
00000441 00000014 876.64 212.96 425.27 543.59 922.88 418.03 1093.19 418.24 959.74 541.48 959.71 621.59 1099.23 619.86
00000442 00000015 878.36 208.86 424.93 548.81 924.87 417.91 1095.52 417.07 961.92 539.54 961.27 621.57 1102.61 619.13
00000443 00000016 882.23 203.42 423.46 559.80 929.55 418.21 1097.78 415.66 964.24 533.29 964.72 621.24 1105.14 617.73
00000444 00000017 885.85 200.68 422.11 565.31 934.20 416.91 1100.01 414.00 965.36 526.54 967.29 619.72 1105.66 616.14
00000445 00000018 889.97 199.29 419.41 568.90 937.80 414.18 1101.30 411.60 966.34 525.46 969.39 616.98 1111.03 613.65
00000446 DELETE   895.80 192.57 416.99 576.52 943.88 410.09 1104.61 409.04 967.29 521.40 971.84 613.69 1115.83 611.89
00000447 00000020 901.11 186.15 413.96 579.93 949.03 405.67 1111.08 401.63 969.84 514.77 977.12 611.74 1123.49 607.72
00000448 00000021 905.03 179.50 412.89 583.85 953.03 399.59 1115.01 396.46 973.26 509.29 981.05 607.26 1129.82 604.00
00000449 DELETE   907.50 170.97 411.97 588.95 956.33 398.91 1119.48 392.15 979.82 501.85 985.16 605.66 1135.21 599.34
00000450 00000023 911.24 167.65 410.54 590.77 959.46 393.71 1124.77 386.51 986.89 497.26 989.95 602.71 1141.21 595.88
00000451 00000024 913.01 169.57 413.07 588.29 957.90 383.78 1130.90 375.40 990.94 495.27 990.63 604.96 1145.75 595.43
00000452 00000025 914.22 165.81 412.16 587.21 958.42 381.27 1131.16 370.00 993.30 486.93 990.51 605.41 1136.67 594.57
00000453 00000026 909.70 150.32 416.91 589.13 958.56 385.63 1132.08 373.97 994.26 475.75 985.46 592.49 1125.44 583.05
00000454 00000027 906.13 148.73 423.32 583.44 954.63 388.38 1131.72 371.33 995.04 475.21 985.08 590.67 1130.62 576.94
00000455 00000028 904.40 149.97 426.13 576.23 953.15 390.54 1129.98 369.71 995.71 474.78 984.96 586.89 1138.87 570.03
00000456 00000029 903.66 151.72 425.53 571.30 951.65 391.29 1128.60 367.12 994.59 477.69 986.73 586.76 1147.37 567.13
00000457 00000030 903.21 153.33 423.70 570.11 951.77 392.50 1126.68 365.26 997.83 479.61 990.87 587.40 1153.13 565.21
00000458 00000031 903.60 151.33 423.24 581.76 952.86 397.48 1125.99 364.81 1001.84 482.23 997.59 594.20 1156.73 567.35
00000459 00000032 902.07 155.54 425.99 583.09 952.21 402.60 1124.76 366.35 1004.58 486.49 1004.61 600.11 1157.87 570.01
00000460 00000033 896.74 154.79 430.79 580.56 949.77 408.41 1123.35 370.23 1008.45 490.36 1004.04 601.77 1157.71 569.96
00000461 00000034 893.62 157.96 434.38 575.89 947.74 413.83 1122.72 374.15 1008.31 495.03 1004.85 604.35 1158.33 571.41
00000462 00000035 890.10 161.93 435.05 572.46 945.71 415.86 1121.48 375.76 1009.32 497.17 1004.98 605.85 1158.01 572.41
00000463 00000036 889.18 162.85 434.93 578.48 944.38 415.64 1119.19 376.13 1007.20 497.99 1005.89 607.05 1154.95 573.96
00000464 00000037 890.03 166.31 432.55 580.76 943.06 416.79 1114.89 376.38 1001.94 499.14 1006.80 608.13 1151.68 574.28
00000465 00000038 889.34 167.72 430.13 582.52 941.09 418.32 1111.50 378.00 998.33 499.44 1004.54 609.39 1147.01 575.60
00000466 00000039 888.53 169.76 428.25 582.09 938.70 422.25 1108.81 380.17 994.99 499.35 1002.10 613.72 1142.54 578.62
00000467 DELETE   884.97 174.02 426.86 582.46 936.71 418.41 1107.90 377.14 990.41 504.48 993.39 621.57 1135.19 585.48
00000468 DELETE   880.91 174.20 432.29 588.39 934.86 426.02 1104.28 391.10 987.19 504.44 996.18 627.94 1119.29 599.11
00000469 DELETE   873.86 176.18 436.32 590.80 930.09 429.88 1103.41 397.53 982.79 513.35 988.72 634.35 1112.45 607.65
00000470 00000043 873.17 184.60 434.58 581.34 927.27 433.58 1097.77 400.65 976.99 517.83 982.17 634.43 1110.46 607.20
00000471 00000044 873.01 189.91 433.92 575.14 926.69 433.75 1096.67 401.75 976.60 520.82 981.93 632.99 1113.28 606.38
00000472 00000045 873.87 187.02 432.15 574.66 926.68 430.80 1098.27 400.24 977.38 519.45 980.59 628.56 1116.56 603.08
00000473 00000046 875.87 182.62 431.69 575.97 929.09 425.77 1099.35 397.27 977.23 512.66 981.95 622.71 1117.62 598.75
00000474 00000047 881.57 180.73 427.15 575.54 932.00 423.03 1099.48 395.04 976.15 506.53 985.23 617.92 1117.72 594.35
00000475 00000048 885.11 180.70 424.12 576.39 932.57 420.97 1098.09 389.96 976.31 501.49 987.70 616.43 1121.22 590.26
00000476 00000049 888.24 179.07 421.09 576.77 934.25 418.41 1098.98 387.99 977.38 500.54 988.67 615.57 1125.02 589.84
00000477 00000050 889.17 184.77 421.51 568.37 935.58 419.57 1100.08 391.84 977.88 504.22 987.85 614.22 1125.75 590.75
00000478 00000051 890.01 182.60 420.61 569.43 936.32 420.42 1098.05 394.93 975.49 506.57 985.29 612.24 1123.99 590.47
00000479 00000052 890.73 185.33 419.83 564.94 937.58 418.31 1100.41 395.77 976.89 507.80 984.86 609.57 1124.16 590.30
00000480 00000053 893.87 186.61 418.01 563.42 939.62 417.09 1100.48 394.83 977.20 507.04 986.35 610.21 1122.02 591.26
00000481 00000054 895.79 187.75 415.45 554.35 941.13 421.21 1103.32 400.50 978.95 506.57 985.78 608.27 1120.43 590.53
00000482 00000055 895.45 185.06 414.61 556.56 940.64 420.40 1105.67 403.18 981.59 507.23 983.07 607.19 1117.59 592.10
00000483 00000056 897.00 187.46 414.35 551.47 943.04 416.35 1107.56 398.30 983.87 505.77 984.54 604.84 1119.56 589.29
00000484 00000057 901.39 185.90 411.92 557.30 945.87 411.27 1106.90 392.97 982.72 503.78 988.72 607.01 1118.29 591.33
00000485 00000058 904.18 184.12 410.04 557.27 948.83 406.56 1109.23 390.13 982.89 501.11 990.83 605.08 1117.94 591.07
00000486 00000059 904.44 179.23 410.43 563.43 948.30 404.76 1110.51 388.19 980.70 498.62 988.92 605.12 1115.51 591.05
00000487 00000060 904.76 178.91 411.59 560.62 949.73 401.40 1112.30 387.67 982.24 498.84 989.03 602.32 1114.39 590.53
00000488 00000061 906.06 177.09 411.57 562.40 952.21 399.19 1115.48 386.67 984.62 497.50 988.72 602.75 1112.06 592.11
00000489 00000062 906.06 175.39 413.98 566.44 953.48 398.44 1120.57 385.61 987.62 494.11 990.27 605.86 1111.26 595.02
00000490 00000063 908.67 175.80 412.55 570.00 955.58 398.50 1121.76 384.85 988.54 492.22 994.71 607.37 1112.81 595.66
00000491 00000064 910.37 175.08 411.73 573.24 959.57 395.45 1123.57 382.12 993.49 491.79 999.41 606.83 1116.74 595.47
00000492 00000065 911.74 173.94 414.07 575.57 960.07 396.87 1125.27 385.40 993.45 495.06 996.86 606.34 1119.43 596.72
00000493 DELETE   909.25 181.99 415.09 564.86 959.40 398.90 1124.46 391.59 990.62 505.26 991.65 607.42 1120.40 601.27
00000494 DELETE   906.47 194.61 416.02 554.62 954.81 405.41 1120.79 402.59 988.66 518.77 989.36 610.78 1119.85 607.99
00000495 DELETE   905.14 206.81 417.34 549.74 951.56 413.00 1118.22 413.86 985.99 530.22 986.62 617.01 1119.22 617.11
00000496 00000069 903.74 211.94 415.77 550.28 950.18 413.67 1118.25 417.52 987.31 537.28 985.95 618.61 1122.14 620.81
00000497 00000070 905.64 215.15 414.66 548.64 951.12 412.90 1117.20 416.64 985.68 536.41 988.30 620.68 1120.88 622.71
00000498 00000071 906.76 216.36 414.83 550.20 952.54 413.91 1117.01 417.01 985.06 536.91 992.09 622.53 1123.96 623.99
00000499 00000072 909.17 218.95 412.86 547.94 953.71 416.97 1116.23 420.33 984.84 540.73 993.62 624.62 1123.77 626.32
00000500 00000073 908.24 221.74 410.89 546.53 953.59 417.07 1116.83 422.68 984.55 545.86 992.54 624.84 1126.08 628.32
00000501 00000074 906.84 222.20 412.17 545.32 951.50 420.03 1115.55 424.94 984.28 548.63 991.34 625.17 1125.67 628.09
00000502 00000075 905.66 222.44 412.94 548.51 950.40 420.72 1116.59 425.38 986.07 550.08 987.61 627.19 1122.02 630.23
00000503 00000076 906.52 225.71 412.41 547.54 951.35 420.35 1118.44 426.09 988.19 551.78 987.75 629.48 1120.76 633.58
00000504 00000077 908.16 226.48 413.11 546.63 951.76 421.63 1119.25 426.56 989.81 551.88 988.37 631.39 1119.15 635.05
00000505 00000078 910.52 225.91 411.60 545.06 953.32 422.92 1123.45 426.14 994.15 550.75 989.41 633.33 1121.14 635.71
00000506 00000079 912.56 226.35 408.59 543.58 957.28 420.21 1127.97 425.77 999.55 549.64 992.27 631.07 1123.92 635.29
00000507 00000080 913.77 224.67 408.63 543.40 958.49 419.26 1130.42 423.88 1001.45 546.42 993.87 629.40 1126.23 632.89
00000508 00000081 914.79 224.75 408.51 543.08 958.80 419.18 1130.54 423.07 1001.54 545.09 994.45 629.99 1126.67 632.82
00000509 00000082 917.68 228.91 406.66 536.91 964.18 424.14 1133.34 420.52 1008.11 541.42 995.63 636.51 1129.83 632.25
00000510 00000083 917.88 228.97 406.52 538.14 964.81 425.39 1134.18 422.83 1009.46 543.98 996.07 636.62 1131.08 633.23
00000511 00000084 918.29 228.64 406.53 536.73 964.83 425.84 1135.03 422.97 1009.56 544.53 996.45 637.38 1131.92 633.69
00000512 00000085 919.00 232.57 406.46 532.47 966.09 426.02 1136.08 422.75 1010.42 543.51 998.39 636.39 1134.97 632.28
00000513 00000086 918.54 230.80 406.96 533.36 965.44 425.45 1136.35 421.76 1009.88 542.39 998.50 635.74 1136.73 631.24
00000514 00000087 918.74 229.93 407.04 534.25 965.28 425.91 1136.65 421.80 1009.83 542.01 998.01 635.49 1137.25 630.64
00000515 00000088 918.16 231.34 406.50 531.62 964.91 425.39 1136.78 422.34 1009.84 543.19 997.39 632.99 1139.25 628.77
00000516 00000089 916.96 230.88 407.05 529.72 963.63 426.07 1136.23 422.85 1008.82 544.39 996.69 633.10 1139.57 628.67
00000517 00000090 917.05 231.58 405.63 528.41 963.08 428.73 1134.23 424.37 1007.06 545.25 996.10 634.43 1139.32 629.02
00000518 00000091 905.84 229.29 416.58 536.24 958.02 431.77 1131.55 428.14 1000.85 550.83 995.23 632.34 1142.10 628.73
00000519 00000092 906.59 230.36 415.97 535.97 958.26 434.64 1131.29 430.19 1000.30 552.23 995.36 633.17 1143.42 628.97
00000520 00000093 916.52 234.11 403.95 530.19 963.10 435.37 1132.85 430.07 1007.08 549.40 998.66 634.95 1144.11 628.59
00000521 00000094 919.31 236.02 404.27 534.66 967.19 433.38 1133.54 429.08 1010.92 548.58 1004.52 635.54 1145.13 630.41
00000522 00000095 922.60 231.65 404.24 539.59 970.41 431.77 1137.11 429.56 1014.25 548.09 1006.99 635.05 1149.24 631.52
00000523 00000096 924.97 232.17 405.71 536.85 973.38 432.26 1141.84 428.84 1017.00 545.69 1009.72 634.23 1152.48 629.70
00000524 00000097 927.96 230.95 406.84 535.84 975.40 432.79 1145.48 428.08 1019.85 545.39 1012.31 632.64 1155.73 626.94
00000525 00000098 927.90 230.59 410.61 534.93 976.42 431.25 1148.05 427.72 1020.78 543.98 1012.14 630.17 1156.50 625.22
00000526 00000099 928.05 229.10 411.65 535.37 976.85 430.99 1147.88 428.53 1019.63 542.89 1010.53 629.19 1155.30 625.03
00000527 00000100 929.19 226.65 406.37 535.34 976.33 427.20 1144.03 428.36 1015.37 542.08 1008.25 626.27 1150.62 625.07
00000528 00000101 929.76 227.45 403.53 531.68 976.19 422.97 1141.26 426.70 1012.75 540.34 1006.12 623.71 1145.06 624.89
00000529 00000102 930.36 222.88 403.63 538.55 975.81 419.92 1138.24 424.06 1010.48 537.24 1005.34 623.53 1139.92 625.34
00000530 00000103 936.09 223.14 396.54 543.38 980.31 417.73 1138.71 423.95 1012.57 531.80 1005.90 625.99 1128.31 630.62
00000531 00000104 935.19 218.15 398.61 546.12 978.77 422.35 1142.14 424.81 1012.42 528.11 1004.32 629.07 1130.62 630.75
00000532 00000105 934.45 216.03 399.08 541.79 978.41 418.56 1143.63 422.33 1013.66 526.26 1001.87 623.83 1130.22 626.29
00000533 00000106 932.24 214.66 402.70 541.80 976.87 415.24 1143.64 417.68 1012.57 524.57 1002.67 621.19 1135.27 622.31
00000534 00000107 932.35 213.43 398.76 545.39 976.17 408.77 1133.98 415.26 1003.18 525.87 1003.39 616.32 1132.01 620.45
00000535 DELETE   928.03 205.08 395.24 557.80 969.51 400.33 1124.32 416.60 982.76 528.90 996.85 609.75 1127.33 621.63
00000536 DELETE   925.11 207.86 394.39 555.42 964.48 400.30 1108.66 415.51 967.39 523.50 990.87 606.48 1117.35 616.97
00000537 00000110 918.99 205.63 397.31 551.52 958.68 398.54 1106.15 415.11 962.83 522.45 980.23 604.76 1103.58 616.66
00000538 00000111 917.81 199.93 396.92 546.13 957.28 396.34 1107.34 411.83 962.65 519.33 976.75 602.00 1100.47 613.08
00000539 00000112 919.67 196.87 396.39 548.69 958.54 394.66 1109.99 407.77 964.14 513.31 976.21 601.39 1101.63 610.94
00000540 00000113 920.72 197.56 396.77 551.39 961.23 395.81 1110.34 406.42 967.74 510.95 981.18 601.87 1105.39 609.47
00000541 00000114 919.81 198.33 397.25 545.73 960.07 396.35 1110.31 407.60 967.62 513.52 980.33 599.47 1106.54 607.52
00000542 00000115 918.87 200.40 397.54 540.02 958.52 394.27 1107.54 409.87 964.91 516.42 976.40 595.31 1104.22 606.70
00000543 00000116 919.28 200.00 395.38 539.57 958.79 393.41 1107.63 410.91 963.57 515.99 975.04 594.34 1101.63 607.23
00000544 00000117 919.13 192.98 395.20 543.48 957.68 387.21 1111.03 408.13 963.67 512.78 968.37 593.68 1092.68 609.78
00000545 00000118 918.29 187.14 392.75 542.98 958.42 382.69 1114.41 405.15 961.69 501.22 960.91 586.91 1083.52 604.65
00000546 00000119 918.60 182.12 392.01 541.50 960.66 377.07 1114.29 400.66 959.41 492.19 955.78 579.22 1076.88 598.23
00000547 00000120 918.51 185.61 390.47 535.63 962.93 371.59 1115.61 399.26 958.90 486.61 953.28 573.61 1073.48 596.00
00000548 00000121 922.61 185.48 385.92 541.51 964.12 367.48 1119.23 392.50 963.77 489.31 955.69 579.54 1081.45 599.21
00000549 00000122 922.26 192.62 385.22 536.11 965.43 367.28 1116.90 396.18 960.33 490.76 957.01 576.39 1083.14 598.93
00000550 00000123 919.13 195.20 383.79 534.08 963.10 365.71 1113.90 397.46 955.69 490.91 954.09 574.42 1082.28 598.98
00000551 00000124 910.92 184.16 393.16 541.25 954.24 358.45 1116.89 403.44 950.52 484.56 949.51 570.45 1074.74 607.68
00000552 00000125 911.73 179.44 394.12 540.62 953.05 357.04 1117.54 401.07 953.00 486.20 948.20 571.01 1073.99 607.88
00000553 00000126 919.78 184.66 391.96 543.83 961.25 367.21 1119.18 394.16 962.11 492.32 952.09 580.89 1080.17 602.11
00000554 00000127 922.60 186.87 389.56 546.91 963.65 369.46 1119.27 396.10 962.73 497.23 958.60 585.20 1084.71 606.02
00000555 DELETE   918.96 192.72 393.54 544.28 960.10 378.52 1112.85 411.02 955.81 505.59 954.44 589.19 1076.89 615.33
00000556 DELETE   912.60 197.69 396.98 543.40 957.22 381.89 1114.11 415.35 958.17 518.73 954.96 595.71 1081.37 621.01
00000557 00000130 909.73 211.93 397.48 539.62 957.04 383.31 1116.79 421.84 960.90 525.34 952.49 597.19 1088.63 626.74
00000558 DELETE   911.10 212.22 397.88 538.39 959.70 385.76 1119.13 423.75 965.15 526.79 956.59 597.71 1092.63 626.94
00000559 00000132 912.25 211.80 398.21 535.87 962.66 385.17 1122.14 421.83 969.94 525.86 961.77 594.82 1098.57 623.10
00000560 00000133 912.48 210.03 398.73 532.39 963.25 384.28 1121.71 418.81 971.94 522.71 963.74 591.57 1101.17 617.92
00000561 00000134 913.82 209.97 399.82 531.37 965.03 384.28 1123.51 417.48 974.45 522.17 966.99 590.92 1106.00 616.16
00000562 00000135 914.34 207.78 400.87 537.90 965.48 386.48 1123.63 421.81 971.42 522.49 963.48 588.31 1107.83 615.86
00000563 00000136 915.56 209.87 401.86 536.10 966.35 386.39 1125.75 422.55 972.97 523.58 965.81 589.11 1110.53 617.24
00000564 00000137 924.05 211.25 396.29 535.03 970.98 389.91 1127.49 415.93 980.03 515.26 973.25 594.85 1113.64 614.63
CROP_BBOX: 686 0 1579 914
