Video ID: 	_Nw1ikp2Jc4
H: 	1080
W: 	1920
FPS: 	25.0

FRAME INDEX X0 Y0 W H [Landmarks (5 Points)]

00045233 00000000 848.69 192.09 552.55 798.44 999.44 535.64 1244.62 504.41 1149.38 713.36 1066.37 813.25 1270.09 786.14
00045234 00000001 849.39 192.33 552.17 794.81 999.46 533.62 1245.37 502.86 1149.07 710.71 1068.05 811.71 1270.07 784.92
00045235 DELETE   851.21 193.05 545.49 783.45 1001.27 529.24 1244.07 497.91 1148.29 702.45 1068.03 801.69 1267.73 774.27
00045236 00000003 857.02 186.40 545.16 778.51 997.32 525.33 1249.30 483.93 1152.00 694.84 1073.64 801.36 1277.42 766.12
00045237 00000004 856.39 178.14 544.28 783.73 997.82 517.11 1245.50 475.68 1151.72 682.52 1074.52 790.91 1277.09 755.66
00045238 00000005 859.02 168.76 542.80 788.85 997.57 505.80 1241.68 468.00 1146.25 670.77 1068.81 778.14 1276.81 745.88
00045239 00000006 855.30 164.43 545.93 787.92 996.16 495.14 1243.51 460.33 1144.69 656.97 1062.41 766.42 1276.32 736.74
00045240 00000007 853.41 163.85 546.58 780.47 996.44 482.95 1240.12 450.63 1143.20 647.59 1054.32 746.64 1273.89 718.62
00045241 00000008 854.91 156.15 546.13 790.55 998.99 468.69 1236.08 436.37 1142.13 636.69 1053.30 733.55 1277.65 705.45
00045242 00000009 856.50 141.23 547.44 801.24 1002.51 457.43 1239.28 424.93 1143.98 623.29 1053.91 723.47 1280.68 694.94
00045243 00000010 859.35 135.41 548.82 804.69 1005.75 452.49 1242.09 420.58 1146.32 617.18 1052.94 717.04 1282.50 688.79
00045244 00000011 862.53 135.62 547.27 812.45 1006.41 454.76 1243.72 421.38 1147.46 620.19 1053.64 720.36 1287.07 691.02
00045245 00000012 865.96 141.56 541.09 820.67 1009.48 466.86 1243.78 434.42 1150.26 633.92 1054.04 728.60 1292.14 700.13
00045246 00000013 865.29 159.70 546.34 811.47 1008.69 491.34 1248.96 456.76 1154.27 652.59 1054.66 742.43 1299.61 711.75
00045247 00000014 867.02 165.65 545.98 800.75 1009.45 503.11 1252.57 465.81 1159.66 669.31 1055.18 745.78 1304.97 713.34
00045248 00000015 868.12 164.12 541.81 785.32 1006.98 503.47 1256.47 461.05 1158.35 667.09 1058.64 749.55 1299.33 712.50
00045249 00000016 865.85 166.00 544.61 772.57 1007.40 496.91 1254.26 461.70 1157.77 659.39 1047.98 733.67 1294.56 703.42
00045250 00000017 864.97 158.93 538.71 774.44 1007.06 487.97 1252.00 454.09 1155.02 650.68 1043.78 724.00 1292.88 694.40
00045251 00000018 865.41 153.00 535.92 774.21 1003.00 480.27 1251.24 443.29 1151.34 641.31 1048.81 723.90 1290.57 691.77
00045252 00000019 862.99 154.67 536.64 767.04 1004.56 468.98 1245.41 436.73 1149.57 635.20 1044.66 712.36 1284.73 683.69
00045253 00000020 863.08 145.41 539.09 768.26 1003.88 459.83 1247.05 427.59 1148.81 628.09 1047.07 705.65 1286.71 676.62
00045254 00000021 866.03 139.43 540.31 768.34 998.98 455.64 1251.23 419.15 1149.18 620.75 1049.05 699.15 1298.43 667.52
00045255 00000022 866.83 139.15 537.98 761.97 1000.97 452.91 1251.10 416.34 1150.65 614.32 1049.03 693.04 1297.89 661.23
00045256 DELETE   866.15 140.01 534.05 768.28 1006.45 457.22 1247.08 421.36 1152.90 612.33 1050.90 694.37 1294.46 662.77
00045257 00000024 863.56 137.43 537.45 779.80 1006.31 461.98 1248.14 427.12 1153.45 623.07 1050.65 701.31 1294.09 670.42
00045258 00000025 864.31 149.78 531.95 771.87 999.65 476.56 1246.83 435.70 1149.69 635.24 1048.53 716.26 1293.88 680.62
00045259 00000026 859.68 162.53 541.91 774.49 999.98 492.98 1245.03 455.50 1148.37 655.15 1040.16 727.17 1291.14 694.29
00045260 00000027 861.43 172.16 533.98 774.88 1003.88 503.62 1241.94 468.64 1149.45 670.77 1044.16 735.84 1291.80 705.45
00045261 DELETE   857.91 172.78 539.35 780.76 1003.15 514.61 1243.32 475.00 1153.05 675.59 1048.65 747.97 1293.18 713.59
00045262 DELETE   857.27 174.04 544.96 785.97 1001.10 515.84 1242.33 474.46 1151.53 677.51 1051.55 755.89 1292.96 720.02
00045263 00000030 855.76 171.31 546.27 784.13 996.01 509.62 1242.36 469.94 1147.49 676.08 1057.38 760.56 1287.77 726.05
00045264 00000031 854.47 168.94 547.04 777.03 992.98 501.40 1245.00 465.48 1144.65 669.13 1055.73 762.15 1280.05 731.15
00045265 00000032 851.29 166.67 549.21 769.46 989.70 494.53 1241.98 457.34 1140.76 660.92 1057.73 759.07 1275.24 727.09
00045266 00000033 850.95 160.88 543.88 769.05 990.02 487.55 1239.09 450.10 1139.89 653.21 1054.42 749.63 1272.96 717.27
00045267 00000034 851.71 154.13 540.24 766.00 991.77 478.93 1239.83 444.48 1139.55 646.52 1051.75 740.64 1269.15 711.12
00045268 00000035 849.47 150.40 539.09 768.30 993.64 472.77 1236.88 439.87 1139.56 642.63 1051.08 732.95 1267.57 704.56
00045269 00000036 848.27 151.54 541.50 766.88 993.58 472.56 1237.02 440.39 1139.54 642.19 1052.22 733.52 1266.89 705.70
00045270 00000037 851.08 149.96 542.86 772.73 991.66 482.15 1241.34 445.59 1140.55 649.19 1054.39 744.03 1274.94 712.39
00045271 00000038 851.83 158.58 546.71 766.30 991.16 491.75 1244.52 454.59 1143.55 661.41 1057.80 752.74 1276.46 720.73
00045272 00000039 855.19 162.60 544.36 774.52 993.01 503.23 1246.95 465.09 1146.26 677.49 1059.61 762.54 1284.49 729.58
00045273 00000040 856.10 165.95 547.90 787.63 997.71 509.77 1244.74 472.70 1146.76 680.84 1058.67 765.50 1285.81 733.21
00045274 00000041 855.19 166.69 548.61 788.36 996.85 510.54 1243.64 471.44 1147.68 679.97 1056.93 762.65 1288.83 728.50
00045275 00000042 852.75 166.14 548.75 779.52 993.94 505.60 1243.48 467.28 1146.51 676.93 1053.07 757.76 1284.71 724.47
00045276 00000043 852.55 164.08 547.38 774.24 992.34 502.32 1243.85 465.02 1143.92 673.60 1048.70 752.57 1281.72 720.14
00045277 00000044 851.60 164.72 546.94 768.27 989.82 497.94 1244.05 461.48 1141.66 671.52 1049.76 754.35 1278.53 722.75
00045278 00000045 849.96 163.86 548.61 767.30 990.24 494.29 1243.05 457.17 1142.33 666.10 1050.41 750.52 1276.88 718.42
00045279 00000046 850.12 157.23 545.71 769.41 991.76 487.02 1241.95 450.24 1143.02 655.58 1047.62 741.38 1274.29 709.68
00045280 00000047 850.08 152.61 539.89 764.91 991.47 478.20 1240.46 443.67 1140.29 649.61 1050.40 736.39 1273.45 706.50
00045281 00000048 847.53 149.16 539.75 767.93 992.28 471.40 1237.15 438.94 1138.52 645.92 1047.95 727.68 1269.48 699.27
00045282 00000049 847.29 145.64 539.73 772.95 992.44 469.93 1236.65 437.04 1138.81 644.90 1047.55 727.30 1269.32 698.60
00045283 00000050 847.29 141.18 542.13 784.61 994.44 468.97 1235.95 436.93 1139.20 643.87 1046.74 726.43 1269.82 698.43
00045284 00000051 849.24 142.27 543.20 791.64 995.22 468.45 1236.19 435.68 1139.91 641.69 1048.14 725.14 1275.78 696.13
00045285 DELETE   854.44 135.38 538.02 796.83 996.56 475.66 1240.08 433.49 1144.83 633.37 1056.81 730.80 1285.46 693.89
00045286 00000053 855.83 133.61 536.23 787.72 998.11 470.17 1241.21 430.29 1146.55 631.24 1055.37 720.49 1286.18 685.53
00045287 00000054 855.98 134.85 534.57 780.83 1002.98 466.63 1241.52 433.86 1147.17 635.73 1048.34 709.17 1280.68 679.86
00045288 00000055 859.75 135.82 535.89 779.42 998.50 472.14 1244.07 432.87 1146.57 638.74 1050.88 713.74 1289.65 679.61
00045289 00000056 864.38 138.88 531.23 780.62 1001.11 479.80 1247.08 439.18 1149.93 647.85 1047.96 717.19 1289.89 682.43
00045290 00000057 867.07 142.35 530.80 767.10 1003.94 472.04 1249.03 432.45 1151.82 637.63 1052.95 708.48 1292.54 674.78
00045291 00000058 869.87 131.73 533.84 768.90 1001.80 454.88 1253.14 416.23 1152.83 621.97 1052.08 695.85 1302.65 662.71
00045292 00000059 870.69 125.09 535.15 766.61 1006.36 444.69 1251.16 406.98 1153.65 602.57 1052.55 683.72 1297.27 651.55
00045293 00000060 868.14 124.90 536.47 759.18 1003.80 436.95 1247.18 400.94 1150.70 595.96 1051.98 678.78 1293.65 647.76
00045294 00000061 864.18 122.53 537.45 757.72 999.45 436.42 1243.25 399.30 1145.91 596.04 1049.03 679.10 1288.57 647.04
00045295 00000062 862.91 124.92 533.06 746.98 997.33 440.68 1241.78 402.13 1142.76 599.54 1049.77 681.48 1283.41 648.46
00045296 00000063 859.78 118.34 533.95 756.30 996.55 443.49 1241.42 406.27 1141.93 602.54 1049.96 685.61 1280.98 653.50
00045297 00000064 856.93 121.40 536.45 745.70 992.92 439.30 1240.37 401.45 1139.56 601.11 1048.61 683.22 1278.29 650.72
00045298 00000065 857.73 112.22 528.02 746.21 990.75 439.09 1237.00 397.42 1136.67 599.82 1049.46 685.89 1272.95 650.08
00045299 00000066 857.19 109.51 536.73 747.21 993.95 426.63 1239.44 392.53 1139.16 588.37 1048.42 672.47 1273.92 642.88
00045300 00000067 856.33 111.12 540.06 752.82 993.30 426.24 1237.95 392.93 1136.97 587.86 1048.16 673.70 1275.09 644.65
00045301 00000068 855.85 110.96 541.45 759.53 993.30 431.33 1237.76 394.84 1139.13 593.03 1051.70 680.47 1279.23 648.76
00045302 00000069 856.06 114.15 540.23 758.45 992.59 434.76 1235.64 395.37 1139.59 594.75 1051.46 679.80 1283.24 645.50
00045303 00000070 856.04 116.30 541.24 748.72 992.11 431.73 1234.94 391.43 1138.27 588.39 1050.04 673.21 1282.31 638.27
00045304 00000071 854.47 113.80 542.67 749.43 992.54 426.78 1235.22 388.94 1137.46 583.64 1045.41 666.69 1280.27 633.56
00045305 00000072 852.60 113.81 543.61 755.21 990.40 423.44 1229.68 385.83 1132.51 580.10 1042.73 664.50 1277.11 631.23
00045306 00000073 848.40 111.64 546.74 764.68 987.46 424.28 1226.04 385.59 1129.18 580.79 1040.39 666.79 1274.66 632.56
00045307 00000074 845.21 114.06 549.23 763.30 984.27 426.64 1223.57 385.77 1126.78 582.04 1040.44 669.82 1273.77 633.72
00045308 00000075 842.01 114.72 549.60 762.15 981.66 427.43 1221.11 386.19 1123.94 581.93 1040.59 672.29 1271.61 635.78
00045309 00000076 839.98 113.89 548.90 758.21 980.30 427.58 1219.40 386.30 1121.91 580.10 1037.98 670.44 1268.33 633.72
00045310 00000077 837.32 110.50 549.39 758.87 978.96 426.17 1218.25 383.79 1121.42 579.24 1037.78 668.52 1267.30 630.66
00045311 00000078 837.51 108.94 547.24 758.51 979.16 423.64 1216.12 382.02 1119.89 576.59 1039.32 667.40 1264.68 630.14
00045312 00000079 837.86 103.52 545.70 758.35 979.12 424.15 1216.42 383.23 1119.13 576.12 1041.24 670.43 1263.95 633.77
00045313 00000080 838.02 103.64 542.80 749.92 978.69 422.99 1218.79 382.63 1121.08 577.42 1043.47 672.45 1261.29 636.52
00045314 00000081 840.56 107.26 542.48 741.56 978.04 425.23 1221.29 383.41 1122.40 582.40 1047.14 678.08 1263.71 641.28
00045315 00000082 842.38 109.76 546.60 754.78 980.28 429.37 1223.18 386.90 1125.96 588.74 1051.34 685.18 1267.41 648.21
00045316 00000083 844.74 118.98 545.56 758.62 985.14 444.97 1223.69 399.41 1130.23 600.65 1054.95 695.11 1270.76 655.67
00045317 00000084 844.44 121.76 545.85 760.49 986.83 458.69 1228.18 411.57 1135.81 616.49 1058.84 706.60 1276.10 665.86
00045318 00000085 846.96 123.15 542.23 747.82 988.64 454.82 1229.06 411.37 1135.37 612.07 1056.54 699.56 1271.78 661.98
00045319 00000086 849.69 123.16 540.43 733.81 987.50 444.57 1229.28 399.86 1135.29 602.84 1056.16 688.32 1273.51 649.68
00045320 00000087 851.37 117.64 542.83 742.56 988.79 433.72 1230.93 392.66 1134.36 593.64 1057.48 682.72 1273.75 647.29
00045321 00000088 854.54 115.79 539.39 748.25 992.50 428.55 1231.99 389.63 1136.64 587.77 1058.53 681.68 1271.22 648.13
00045322 00000089 857.06 114.99 538.26 749.09 992.62 432.21 1233.52 392.47 1136.73 592.29 1058.24 682.33 1275.37 648.04
00045323 00000090 857.25 115.74 535.81 746.87 992.21 439.37 1234.62 396.36 1140.07 598.97 1059.67 686.80 1278.22 649.79
00045324 00000091 853.75 116.24 538.86 752.34 990.55 442.38 1233.51 397.12 1140.29 601.14 1060.42 690.14 1280.34 651.19
00045325 00000092 853.60 115.70 540.43 757.04 990.32 438.80 1230.78 394.24 1137.77 595.82 1061.57 689.64 1281.56 651.19
00045326 00000093 853.01 116.85 542.19 746.60 990.26 432.73 1230.36 390.01 1136.57 589.03 1061.93 683.75 1278.78 646.96
00045327 00000094 852.68 116.98 544.44 744.16 991.01 428.82 1231.46 387.75 1136.68 585.60 1060.07 678.39 1276.40 642.85
00045328 00000095 854.12 117.07 542.12 741.50 990.41 429.28 1232.88 388.69 1136.43 588.32 1058.23 678.89 1275.38 643.80
00045329 00000096 853.70 116.87 539.69 747.13 989.18 434.85 1231.90 392.87 1135.52 594.54 1056.00 682.51 1277.30 646.23
00045330 00000097 853.44 118.47 536.72 742.10 989.14 440.61 1232.76 396.51 1137.89 601.51 1056.87 685.52 1276.39 647.53
00045331 00000098 849.25 119.21 541.15 738.76 987.47 441.46 1230.39 397.14 1136.23 602.44 1056.33 686.44 1274.43 648.21
00045332 00000099 846.72 115.59 544.09 739.48 986.01 436.34 1229.91 394.21 1133.43 596.24 1055.08 683.90 1271.14 647.48
00045333 00000100 846.13 117.25 543.86 736.75 983.98 430.81 1227.70 389.45 1129.64 589.36 1052.32 678.97 1268.43 643.16
00045334 00000101 846.22 115.88 543.80 738.31 984.12 428.63 1226.17 388.62 1127.89 587.11 1053.65 679.94 1266.14 645.29
00045335 00000102 845.27 115.95 544.14 738.92 983.61 429.34 1226.23 388.88 1128.33 589.09 1053.14 680.55 1266.00 645.55
00045336 00000103 846.21 115.36 544.75 739.30 984.01 431.04 1227.93 389.44 1130.51 591.31 1055.30 682.34 1268.47 646.45
00045337 00000104 846.63 115.73 544.01 736.72 983.91 430.93 1228.71 389.57 1130.55 592.04 1054.35 681.24 1268.70 645.57
00045338 00000105 847.64 116.04 542.82 733.23 983.35 430.26 1229.29 388.19 1130.52 589.98 1054.38 679.88 1270.31 643.53
00045339 00000106 844.94 115.47 545.05 732.61 983.05 428.42 1226.94 387.56 1128.77 586.73 1051.17 676.32 1268.16 640.85
00045340 00000107 845.49 115.35 544.59 732.47 983.21 427.73 1226.85 387.80 1128.06 587.02 1049.21 674.68 1267.69 639.96
00045341 00000108 846.29 114.65 544.50 738.56 984.28 430.54 1228.03 389.72 1129.95 591.57 1052.64 678.63 1269.01 643.32
00045342 00000109 844.54 116.42 545.69 745.16 985.86 437.65 1228.77 397.03 1132.67 601.34 1052.78 685.87 1268.96 650.68
00045343 00000110 847.36 123.60 542.78 741.73 985.79 446.21 1230.23 403.42 1134.10 607.64 1053.02 691.58 1272.40 654.68
00045344 00000111 848.28 123.30 541.13 745.01 986.84 447.00 1230.03 403.79 1134.72 607.19 1053.70 692.30 1273.08 655.06
00045345 00000112 845.06 120.29 544.38 748.07 987.40 441.00 1228.06 398.33 1135.03 601.47 1056.28 691.19 1270.00 654.46
00045346 00000113 845.29 118.22 546.56 752.95 986.45 433.77 1226.80 394.26 1131.52 596.53 1057.36 689.44 1268.05 655.50
00045347 00000114 845.40 118.56 547.03 749.78 985.48 432.18 1227.14 393.51 1130.19 597.07 1056.02 687.94 1266.72 654.67
00045348 00000115 846.24 119.28 545.13 745.75 985.55 434.48 1229.40 394.72 1132.04 598.85 1056.02 689.54 1267.95 655.35
00045349 00000116 847.15 121.45 542.77 744.21 986.45 441.29 1229.89 397.53 1135.31 603.93 1056.87 691.53 1272.37 653.92
00045350 00000117 847.78 123.47 541.93 738.60 986.61 442.55 1231.48 399.05 1136.10 603.79 1055.33 689.94 1273.12 652.45
00045351 00000118 846.02 122.26 543.78 739.92 985.86 440.59 1231.30 397.26 1136.10 603.91 1055.61 690.31 1271.93 653.10
00045352 00000119 846.14 118.73 544.36 743.01 986.49 437.75 1230.47 396.32 1134.86 601.31 1056.48 689.35 1269.80 653.67
00045353 00000120 846.11 117.78 544.62 743.05 985.44 434.32 1229.46 394.32 1132.38 598.76 1054.91 686.40 1268.55 651.90
00045354 00000121 846.29 117.48 544.33 744.40 985.83 434.08 1229.42 393.56 1133.00 597.96 1056.01 687.08 1269.04 652.15
00045355 00000122 848.00 118.38 543.28 746.83 987.89 434.39 1230.77 394.04 1135.82 598.67 1057.03 687.05 1272.00 652.23
00045356 00000123 848.76 117.53 543.41 751.33 989.58 433.85 1231.31 394.12 1136.61 597.88 1056.77 685.58 1272.56 651.25
00045357 00000124 849.82 116.38 544.07 751.80 990.76 431.75 1232.33 391.88 1138.51 593.59 1057.63 683.20 1274.13 648.77
00045358 00000125 850.72 125.81 541.81 733.55 994.75 432.15 1231.88 386.95 1140.50 583.94 1056.95 674.52 1265.28 635.49
00045359 00000126 853.02 125.84 540.09 727.99 993.98 431.16 1232.73 385.74 1140.21 582.65 1058.26 674.31 1265.62 634.92
00045360 00000127 855.80 114.72 537.76 739.83 991.31 426.19 1235.78 388.05 1138.93 589.60 1057.10 677.01 1272.77 644.04
00045361 00000128 854.94 116.33 538.14 740.42 991.53 430.48 1235.84 391.91 1138.94 593.50 1055.55 679.92 1273.35 646.66
00045362 00000129 854.38 115.65 536.15 739.97 990.70 436.53 1237.09 396.22 1139.63 601.14 1055.52 684.21 1274.09 649.64
00045363 00000130 855.08 120.18 535.30 741.51 991.12 440.23 1236.25 397.74 1140.46 603.21 1058.20 688.95 1276.19 652.64
00045364 00000131 855.94 118.41 534.79 742.49 991.15 439.30 1236.86 397.67 1140.14 602.25 1057.51 689.52 1276.13 653.99
00045365 00000132 856.69 114.67 534.21 745.55 991.97 434.04 1238.46 394.85 1141.35 599.14 1056.88 686.39 1276.24 652.75
00045366 00000133 858.07 112.08 532.98 746.80 991.95 430.66 1239.20 391.86 1140.65 593.59 1056.37 683.17 1277.47 649.75
00045367 00000134 858.64 114.86 535.62 746.53 993.79 429.47 1238.07 392.40 1140.17 591.56 1055.52 679.59 1275.93 647.55
00045368 00000135 856.64 114.27 536.74 757.28 993.33 433.49 1236.49 393.68 1141.71 596.28 1057.92 683.71 1281.54 649.37
00045369 00000136 856.65 120.45 537.84 763.95 994.79 439.09 1235.80 396.39 1144.96 600.18 1059.77 688.57 1286.75 651.73
00045370 00000137 855.46 120.10 539.13 761.79 994.36 442.35 1236.12 397.61 1145.85 602.52 1060.15 689.83 1287.22 651.36
00045371 00000138 857.85 119.81 534.18 744.11 994.07 439.62 1237.67 397.02 1144.03 598.60 1057.65 683.52 1282.25 646.90
00045372 00000139 858.15 117.10 533.47 739.16 993.47 435.07 1237.77 394.75 1143.03 596.43 1055.48 678.54 1279.60 643.80
00045373 00000140 858.44 115.66 534.68 740.99 993.74 432.41 1237.46 392.81 1142.59 593.04 1056.30 677.34 1279.39 643.14
00045374 00000141 857.56 115.53 535.31 741.82 993.64 433.74 1237.46 394.49 1142.87 595.73 1055.73 678.27 1279.31 644.33
00045375 00000142 858.62 116.97 533.25 740.90 993.02 437.70 1238.17 396.83 1142.60 599.58 1055.49 681.07 1280.14 645.88
00045376 00000143 857.57 119.61 534.11 744.64 993.53 440.93 1238.01 397.84 1143.71 600.77 1056.30 684.46 1280.60 647.61
00045377 00000144 856.39 118.97 534.98 742.83 993.04 439.29 1237.71 396.97 1143.25 599.50 1056.84 683.70 1279.50 647.43
00045378 00000145 857.53 118.16 534.54 738.54 992.38 435.00 1238.15 394.22 1142.38 596.53 1055.71 680.64 1279.64 645.53
00045379 00000146 857.41 116.62 535.41 736.54 991.63 431.16 1237.93 391.24 1140.93 593.32 1056.79 679.50 1278.05 645.12
00045380 00000147 857.47 114.13 536.09 739.23 991.92 430.58 1239.76 391.54 1141.18 593.62 1056.94 680.46 1278.24 646.83
00045381 00000148 858.18 115.37 533.58 742.52 992.52 434.23 1239.63 393.40 1143.50 597.27 1058.04 684.64 1280.50 649.58
00045382 00000149 858.24 117.22 532.00 740.74 991.84 438.32 1239.18 395.87 1143.07 601.01 1058.98 687.88 1279.88 651.46
00045383 00000150 858.21 117.72 531.56 738.69 992.06 438.80 1238.76 395.98 1143.05 600.40 1057.87 686.52 1279.97 649.82
00045384 00000151 858.52 115.87 532.85 740.94 992.49 436.04 1239.69 394.78 1143.05 597.82 1057.18 683.16 1280.19 647.74
00045385 00000152 859.18 115.08 533.79 738.96 993.71 431.32 1239.53 392.55 1142.48 593.38 1058.29 679.05 1278.61 645.64
00045386 00000153 858.50 116.16 535.85 739.58 993.15 429.79 1238.94 390.48 1142.41 590.51 1057.94 678.18 1279.08 644.34
00045387 00000154 858.88 116.55 534.99 742.52 993.54 431.85 1239.46 392.39 1143.13 593.92 1058.06 681.08 1279.47 647.06
00045388 00000155 857.69 116.89 535.68 746.62 993.67 435.15 1238.78 394.63 1143.61 597.71 1058.70 684.00 1280.77 649.15
00045389 00000156 856.66 116.77 536.42 750.39 994.02 435.95 1238.07 395.18 1143.89 597.43 1059.21 685.21 1280.73 650.17
00045390 00000157 858.69 116.29 532.92 749.44 997.58 438.90 1234.78 398.84 1141.97 592.44 1057.38 682.74 1277.36 648.17
00045391 00000158 858.42 118.48 533.67 743.65 998.07 435.94 1233.15 397.59 1140.29 587.57 1055.63 676.60 1274.42 643.34
00045392 00000159 856.71 117.07 537.39 747.88 997.19 432.82 1235.12 394.23 1141.56 586.83 1053.29 675.63 1274.53 642.23
00045393 00000160 854.93 117.74 538.01 749.01 992.49 433.00 1235.01 392.23 1139.90 588.62 1053.72 678.05 1277.68 642.77
00045394 00000161 854.34 116.51 539.22 752.82 991.80 435.09 1233.86 393.51 1138.64 590.47 1054.41 680.70 1278.07 644.73
00045395 00000162 856.15 120.56 536.55 749.00 997.67 439.62 1230.09 399.47 1138.36 585.93 1055.03 678.33 1275.75 643.41
00045396 00000163 858.03 119.54 534.37 745.36 999.87 434.12 1232.17 396.85 1140.64 581.35 1055.80 672.69 1275.86 640.15
00045397 00000164 857.74 116.02 537.09 746.24 998.90 429.19 1233.05 390.53 1141.72 576.82 1055.80 669.83 1277.46 636.14
