Video ID: 	vSHM4cDNnyc
H: 	1080
W: 	1920
FPS: 	25.0

FRAME INDEX X0 Y0 W H [Landmarks (5 Points)]

00010666 00000000 956.13 188.63 342.37 560.56 1022.76 423.81 1178.93 469.56 1055.36 547.79 1006.37 589.50 1146.51 626.31
00010667 00000001 953.72 191.95 344.21 559.23 1021.54 425.57 1178.90 472.76 1052.76 551.12 1003.42 589.99 1144.69 628.07
00010668 DELETE   954.74 197.50 342.85 556.63 1021.79 429.37 1178.01 475.39 1055.09 553.59 1004.04 591.80 1145.42 629.13
00010669 00000003 953.41 198.23 344.08 560.89 1021.10 432.15 1176.60 476.70 1055.98 555.51 1002.71 597.42 1142.92 633.81
00010670 00000004 952.89 196.44 340.59 562.46 1018.59 431.96 1172.24 474.71 1052.57 556.83 1003.06 604.52 1137.44 639.33
00010671 00000005 952.08 193.35 340.29 561.36 1015.92 429.43 1170.28 469.62 1050.43 554.33 1002.88 606.60 1134.88 639.35
00010672 00000006 949.88 190.58 341.03 557.73 1013.55 427.54 1169.67 467.62 1048.86 553.65 1001.87 603.30 1135.75 635.65
00010673 00000007 947.00 187.75 343.33 557.74 1011.95 424.90 1166.94 465.04 1046.97 550.67 998.96 600.78 1133.00 632.91
00010674 00000008 944.77 191.56 342.78 553.89 1010.42 424.71 1166.00 465.19 1045.78 552.70 996.90 600.46 1132.16 632.98
00010675 00000009 944.31 195.78 342.07 548.72 1010.75 425.74 1166.62 467.06 1046.40 553.95 995.94 600.03 1131.02 633.38
00010676 00000010 944.81 194.26 341.07 552.13 1011.59 425.95 1165.79 468.71 1046.04 554.02 996.62 600.27 1130.04 634.74
00010677 00000011 944.69 198.57 340.43 549.14 1011.90 425.61 1166.56 469.37 1045.42 553.75 995.56 599.57 1129.44 635.16
00010678 00000012 944.63 197.91 340.68 550.18 1012.56 426.27 1168.15 470.82 1046.13 553.17 995.63 597.83 1131.56 634.08
00010679 00000013 946.06 200.82 339.83 545.88 1013.93 426.90 1169.32 471.69 1047.69 553.91 996.56 595.82 1132.83 632.53
00010680 00000014 946.82 203.73 338.56 539.38 1015.29 427.20 1170.83 472.06 1049.56 553.03 997.56 593.79 1134.14 630.71
00010681 00000015 948.79 201.93 336.56 539.75 1016.41 426.53 1171.04 471.95 1050.18 551.41 998.59 592.27 1134.31 629.54
00010682 00000016 949.82 203.90 336.25 539.85 1017.32 425.51 1171.69 471.35 1049.99 552.45 998.46 590.96 1135.25 628.75
00010683 00000017 950.34 202.25 338.03 550.88 1018.10 426.69 1170.96 472.10 1050.53 554.32 1000.24 594.01 1137.85 631.18
00010684 00000018 952.65 204.76 337.88 554.93 1019.18 430.38 1172.19 474.70 1053.32 556.71 1002.13 598.80 1140.84 634.98
00010685 00000019 952.34 201.81 338.09 555.16 1018.85 431.24 1171.89 475.29 1051.90 556.45 1001.54 600.29 1137.58 636.34
00010686 00000020 951.87 199.40 337.98 553.47 1017.23 429.02 1171.74 473.32 1050.63 554.76 1001.14 600.12 1137.05 636.14
00010687 00000021 952.13 198.65 338.11 551.33 1017.98 428.28 1172.39 471.63 1051.77 553.17 1002.06 599.18 1136.84 634.58
00010688 00000022 947.56 199.74 333.92 557.15 1012.17 425.40 1160.66 471.24 1046.89 560.42 988.09 601.40 1132.40 638.96
00010689 00000023 951.00 199.69 340.16 548.63 1020.71 430.74 1172.08 473.59 1055.37 553.85 1004.70 594.26 1139.17 629.19
00010690 00000024 949.51 203.25 339.33 546.98 1020.26 428.62 1171.47 475.21 1053.66 556.06 1000.47 592.70 1136.88 630.77
00010691 00000025 950.64 200.26 338.94 555.85 1018.33 431.36 1171.08 479.09 1049.87 558.33 998.47 596.84 1134.74 636.04
00010692 00000026 947.77 203.15 339.06 552.51 1015.66 430.16 1167.67 478.66 1045.50 557.63 994.40 596.09 1130.54 635.84
00010693 00000027 945.35 204.65 338.96 544.73 1013.62 427.16 1163.85 478.53 1041.09 556.49 991.84 591.21 1126.30 633.28
00010694 00000028 945.85 202.09 337.32 544.60 1012.41 424.49 1162.99 476.65 1039.22 555.63 991.18 590.34 1125.90 632.87
00010695 00000029 945.48 202.11 337.99 545.72 1012.79 425.48 1163.73 477.14 1039.77 555.88 991.28 589.94 1127.47 632.14
00010696 00000030 944.48 203.31 339.57 544.63 1013.28 425.51 1165.18 477.27 1041.19 556.36 990.77 589.60 1127.66 632.05
00010697 00000031 945.37 206.67 338.40 541.74 1012.96 424.75 1163.89 476.97 1039.89 555.85 990.21 589.20 1126.02 631.96
00010698 00000032 945.57 204.04 340.35 543.17 1012.94 423.13 1163.22 476.71 1038.56 555.55 990.30 588.97 1124.62 632.69
00010699 00000033 944.52 204.49 341.97 542.63 1013.46 423.59 1164.02 476.97 1039.83 554.51 990.01 588.74 1124.60 632.36
00010700 00000034 945.53 203.20 340.74 544.52 1014.00 424.39 1164.81 477.44 1040.14 554.13 991.33 588.62 1126.54 631.99
00010701 00000035 946.05 201.48 340.63 547.86 1014.52 425.45 1165.78 477.52 1040.89 553.40 992.43 589.10 1128.71 631.72
00010702 00000036 945.90 203.26 341.60 545.26 1013.89 425.14 1166.26 477.87 1040.22 553.95 991.93 588.74 1129.17 631.91
00010703 00000037 945.81 202.27 340.50 545.66 1013.62 422.98 1165.16 476.96 1038.66 555.03 991.91 587.39 1129.07 631.48
00010704 00000038 945.66 203.37 339.67 544.84 1013.31 423.11 1164.04 477.52 1037.47 555.29 991.43 586.43 1128.87 630.82
00010705 00000039 945.70 205.76 338.25 542.05 1012.80 422.89 1163.36 476.99 1037.72 555.11 991.04 586.45 1128.40 630.66
00010706 00000040 944.71 203.81 339.68 542.47 1012.39 420.12 1161.89 474.93 1036.94 554.54 991.36 584.95 1128.22 629.51
00010707 00000041 943.44 197.43 341.03 548.22 1011.38 420.03 1163.60 474.59 1037.88 552.71 990.39 585.05 1128.57 629.33
00010708 00000042 943.55 198.64 340.20 547.49 1010.85 419.97 1163.60 474.10 1038.00 553.09 990.50 585.87 1128.92 629.82
00010709 00000043 942.97 196.29 340.48 551.27 1010.54 419.57 1162.97 473.44 1038.44 553.21 990.26 585.74 1129.19 629.31
00010710 00000044 942.95 195.26 339.09 551.47 1010.43 419.33 1162.87 472.51 1039.04 552.68 990.54 585.22 1130.16 628.08
00010711 00000045 942.51 195.83 340.15 551.93 1009.91 419.51 1162.04 472.85 1038.06 552.60 990.18 584.89 1129.94 627.85
00010712 00000046 943.50 194.19 340.29 554.82 1009.70 420.79 1161.21 473.87 1036.91 553.09 991.49 586.50 1129.70 629.12
00010713 00000047 942.49 191.16 341.41 557.79 1009.82 421.86 1161.97 475.63 1037.16 554.08 991.29 587.12 1130.15 630.06
00010714 00000048 941.89 195.63 341.76 556.05 1009.79 424.18 1161.59 478.51 1036.25 555.44 991.75 588.32 1129.95 631.89
00010715 00000049 941.44 197.88 342.60 554.36 1009.21 424.29 1160.89 478.47 1035.41 556.37 990.88 588.80 1129.06 632.36
00010716 00000050 940.69 201.71 343.91 552.22 1008.89 425.91 1160.91 479.26 1035.60 557.99 990.51 588.47 1130.40 631.48
00010717 00000051 939.77 200.34 344.28 554.45 1008.43 426.15 1161.81 478.73 1036.89 558.86 990.57 589.86 1132.17 632.17
00010718 00000052 938.40 201.23 345.51 555.49 1008.31 427.17 1162.59 479.08 1038.22 559.53 989.89 590.79 1133.38 632.61
00010719 00000053 938.22 200.53 345.33 556.20 1007.80 427.34 1162.92 478.04 1039.12 560.08 989.99 593.88 1132.64 634.67
00010720 00000054 938.47 201.44 345.18 558.13 1007.69 427.17 1162.24 477.58 1039.52 561.85 990.02 596.32 1131.51 636.95
00010721 00000055 937.98 200.56 345.15 559.90 1006.65 428.51 1162.55 477.85 1039.95 563.55 990.32 599.84 1131.10 639.59
00010722 00000056 940.77 199.66 344.25 563.16 1009.05 432.38 1163.30 478.78 1042.50 563.62 993.03 603.76 1130.93 641.46
00010723 00000057 946.96 196.56 340.34 568.53 1013.93 435.74 1165.18 478.96 1046.70 563.29 998.41 606.25 1133.93 641.36
00010724 00000058 948.21 204.34 341.42 565.89 1018.65 438.89 1172.70 479.09 1056.86 564.84 1002.55 605.42 1145.20 638.59
00010725 DELETE   949.35 202.99 344.95 559.41 1022.31 438.13 1178.67 474.70 1065.02 562.55 1005.85 602.97 1150.42 633.09
00010726 DELETE   951.29 195.91 342.59 554.57 1023.77 429.93 1180.30 466.92 1066.38 553.67 1007.04 597.80 1146.30 628.48
00010727 DELETE   950.05 192.74 342.56 545.50 1023.21 420.71 1177.23 459.74 1063.33 547.12 1006.50 591.43 1140.29 623.87
00010728 00000062 948.65 185.22 342.48 549.85 1021.56 417.51 1172.27 456.21 1060.89 543.00 1005.98 590.97 1135.13 622.90
00010729 00000063 947.71 182.62 342.26 554.02 1019.72 418.23 1169.60 455.89 1059.04 543.04 1004.79 593.06 1133.96 623.92
00010730 DELETE   948.75 187.53 338.92 551.55 1017.19 420.53 1169.96 460.44 1055.58 548.09 1002.26 592.51 1137.17 624.99
00010731 00000065 948.84 189.45 336.99 556.55 1014.57 423.04 1166.39 462.51 1052.38 550.96 1003.79 598.07 1137.93 630.03
00010732 00000066 947.52 192.74 334.19 552.71 1013.99 424.59 1166.48 464.77 1052.90 553.30 1001.80 596.83 1138.29 629.50
00010733 00000067 943.94 200.19 336.46 542.41 1011.19 425.49 1164.95 464.78 1050.74 553.56 998.23 596.04 1134.36 628.09
00010734 00000068 942.43 202.61 337.11 541.14 1009.20 426.46 1163.19 465.79 1047.54 554.11 997.03 596.90 1134.10 628.98
00010735 00000069 942.23 199.64 339.00 546.70 1009.14 430.61 1165.65 469.31 1048.83 556.09 997.26 601.03 1134.70 632.47
00010736 00000070 941.81 205.86 339.62 543.73 1010.46 433.90 1169.08 470.57 1052.99 559.42 998.34 605.23 1136.29 635.49
00010737 00000071 942.18 231.14 339.16 513.55 1005.62 443.87 1156.14 475.73 1043.43 573.10 993.61 609.53 1127.76 633.89
00010738 00000072 943.02 215.63 336.73 536.17 1011.75 437.02 1168.77 476.24 1052.34 562.66 996.04 603.41 1135.23 635.99
00010739 00000073 943.92 220.33 336.28 536.70 1012.84 436.93 1167.39 477.77 1049.41 563.70 995.48 601.62 1134.08 635.89
00010740 00000074 945.17 218.98 335.99 541.17 1013.23 436.12 1168.97 477.78 1049.49 564.54 996.23 601.10 1137.49 635.98
00010741 00000075 944.47 213.89 337.84 544.98 1013.82 436.47 1171.28 476.84 1052.78 563.95 997.08 602.51 1138.70 636.31
00010742 00000076 944.96 207.70 337.91 542.70 1013.86 432.48 1171.31 471.97 1053.58 558.88 999.14 600.75 1138.22 633.39
00010743 00000077 944.15 203.36 338.16 543.16 1012.02 427.66 1167.51 468.41 1049.85 555.47 998.36 598.70 1135.10 632.03
00010744 00000078 944.64 196.08 338.34 547.52 1011.54 422.66 1166.44 463.72 1050.00 551.52 997.67 596.71 1133.82 630.05
00010745 00000079 944.09 193.13 339.62 551.78 1013.60 422.01 1167.86 462.74 1051.92 550.26 999.04 594.18 1136.34 627.48
00010746 00000080 943.16 192.47 340.87 550.40 1013.32 421.44 1168.02 462.04 1051.88 549.56 998.14 594.90 1134.27 628.03
00010747 00000081 943.34 193.19 341.19 548.69 1012.77 421.31 1166.76 461.74 1051.17 549.48 997.18 595.95 1131.56 628.93
00010748 00000082 942.48 195.78 341.93 544.02 1011.25 420.01 1166.08 461.90 1049.14 550.74 994.70 595.35 1128.83 629.53
00010749 00000083 942.56 192.22 343.49 546.33 1011.04 420.31 1166.28 461.54 1048.95 549.56 995.57 595.84 1129.04 629.33
00010750 00000084 942.90 191.87 343.00 547.23 1010.72 420.91 1166.14 462.18 1049.09 549.99 995.76 595.64 1130.15 629.07
00010751 00000085 942.86 195.08 342.35 546.78 1010.00 422.50 1166.21 463.49 1048.74 551.45 995.59 596.75 1131.01 630.00
00010752 00000086 941.73 193.88 342.98 548.11 1010.24 422.94 1166.14 463.60 1049.10 552.77 996.55 598.74 1131.34 631.67
00010753 00000087 941.28 198.66 342.57 544.89 1009.35 424.09 1165.73 465.08 1047.51 554.37 995.74 600.02 1130.52 633.43
00010754 00000088 941.72 195.97 342.81 550.25 1010.71 426.11 1167.42 467.53 1047.82 554.70 996.63 601.01 1132.16 634.74
00010755 00000089 941.46 200.41 342.14 550.79 1010.15 428.07 1167.39 469.40 1047.41 557.52 995.73 603.01 1132.33 636.87
00010756 00000090 940.61 200.29 341.62 552.93 1010.08 431.40 1168.78 471.91 1048.77 558.94 996.12 604.13 1135.35 637.24
00010757 00000091 939.05 199.59 343.48 555.48 1010.51 432.49 1169.55 474.01 1049.03 560.36 995.16 604.53 1135.46 638.51
00010758 00000092 939.43 202.74 342.57 552.90 1010.91 433.94 1168.61 475.37 1049.56 560.64 994.53 604.25 1133.91 638.24
00010759 00000093 939.44 206.32 341.47 549.51 1010.99 434.89 1168.59 476.53 1049.96 561.79 994.38 603.27 1135.48 637.47
00010760 00000094 938.34 206.50 342.81 549.98 1010.13 434.61 1168.61 476.23 1049.65 562.66 993.79 603.48 1135.95 637.61
00010761 00000095 938.62 206.12 342.69 549.70 1009.68 434.87 1168.37 476.54 1049.22 562.05 993.29 602.00 1136.79 636.05
00010762 00000096 939.55 205.37 341.74 550.17 1008.88 433.46 1167.29 474.80 1047.06 560.78 993.68 599.89 1138.15 633.56
00010763 00000097 938.69 201.45 342.98 551.20 1009.76 428.95 1166.11 471.00 1047.22 558.34 995.59 596.21 1138.57 630.35
00010764 00000098 940.33 202.15 338.93 547.50 1009.75 426.27 1164.52 468.51 1046.24 556.15 995.41 593.39 1137.86 627.77
00010765 00000099 940.87 201.93 337.30 547.37 1009.26 425.90 1163.65 466.89 1045.74 555.59 996.40 593.58 1139.31 626.85
00010766 00000100 937.29 207.07 341.46 545.03 1008.19 428.14 1164.16 469.47 1045.44 557.27 995.14 594.26 1140.03 627.90
00010767 00000101 935.68 209.89 342.66 543.50 1007.69 431.07 1164.19 470.58 1047.19 559.26 994.89 597.00 1139.70 629.36
00010768 00000102 934.86 210.25 342.70 543.40 1006.03 430.81 1163.80 470.48 1046.17 561.37 994.12 597.38 1140.34 629.78
00010769 00000103 934.99 208.16 342.71 545.66 1005.94 430.40 1163.38 470.56 1045.42 560.94 994.04 597.58 1139.70 630.23
00010770 00000104 935.20 207.99 342.82 546.61 1006.46 430.40 1162.99 470.48 1046.05 560.69 994.19 597.38 1139.70 629.98
00010771 00000105 934.87 213.68 342.42 541.22 1006.35 433.45 1165.45 472.59 1048.92 563.72 993.21 598.75 1141.27 630.75
00010772 00000106 934.97 215.06 342.09 541.41 1006.93 436.76 1165.92 473.83 1050.39 565.14 993.83 601.81 1140.93 632.36
00010773 00000107 934.15 213.12 343.14 544.33 1006.45 437.73 1166.35 474.45 1050.97 565.66 993.57 603.95 1140.40 634.21
00010774 00000108 933.73 218.15 342.96 539.95 1005.45 438.09 1165.80 474.81 1050.11 566.12 991.79 604.28 1139.47 634.60
00010775 00000109 933.66 214.64 342.77 543.12 1005.31 437.81 1163.74 474.84 1048.84 565.23 992.58 604.03 1138.28 634.47
00010776 00000110 932.72 213.80 343.44 543.06 1005.21 437.57 1164.54 474.05 1050.44 565.49 993.23 604.66 1139.17 634.66
00010777 00000111 933.39 211.46 341.89 539.13 1006.70 437.12 1166.75 472.29 1053.76 564.45 994.01 600.84 1142.28 629.67
00010778 00000112 936.06 212.46 339.68 534.22 1011.17 438.75 1171.24 470.40 1061.40 564.11 999.50 601.51 1146.36 627.80
00010779 00000113 938.63 214.03 341.85 537.01 1015.35 441.90 1176.00 470.68 1067.96 568.36 1005.70 606.76 1149.85 631.16
00010780 00000114 940.30 213.94 343.18 544.49 1017.31 448.92 1176.95 474.73 1071.34 573.29 1010.23 612.52 1154.10 634.69
00010781 00000115 937.29 218.04 344.35 544.59 1016.81 449.33 1175.09 476.42 1069.31 575.82 1008.37 614.01 1150.15 637.68
CROP_BBOX: 636 0 1611 958
