Video ID: 	A08RchnGi-s
H: 	1080
W: 	1920
FPS: 	25.0

FRAME INDEX X0 Y0 W H [Landmarks (5 Points)]

00005390 00000000 780.02 228.61 393.57 629.29 945.55 484.44 1123.54 510.68 1082.07 573.68 950.93 683.45 1110.21 703.61
00005391 DELETE   780.81 231.39 391.88 633.64 948.03 486.01 1124.29 509.51 1087.07 572.19 954.86 686.92 1114.26 704.66
00005392 00000002 781.45 233.44 393.93 635.38 952.44 486.44 1126.57 506.68 1092.96 573.60 958.99 689.79 1117.77 705.00
00005393 00000003 782.82 236.38 392.48 628.12 963.14 487.95 1132.27 503.32 1119.20 571.19 978.09 692.68 1127.66 705.39
00005394 00000004 786.26 235.30 388.85 625.42 969.43 487.95 1138.61 504.68 1128.07 569.29 987.65 693.83 1134.85 707.60
00005395 00000005 786.68 234.14 390.51 625.54 977.32 487.18 1141.10 502.01 1135.80 567.30 999.34 694.09 1139.45 706.11
00005396 00000006 787.27 234.12 391.47 630.80 986.99 484.61 1141.66 500.04 1144.41 564.71 1014.27 697.18 1142.96 709.85
00005397 00000007 787.40 228.79 393.80 640.81 993.23 484.52 1141.46 500.47 1153.30 561.99 1026.04 700.35 1146.96 713.74
00005398 DELETE   788.70 222.73 394.20 645.93 998.18 482.99 1141.41 497.60 1158.58 554.50 1037.61 700.14 1153.26 712.55
00005399 DELETE   787.20 221.77 394.50 645.93 995.66 483.08 1138.21 494.37 1157.49 551.48 1040.90 700.76 1154.60 710.27
00005400 00000010 782.92 222.38 396.74 647.13 989.84 483.75 1132.59 493.47 1153.07 550.81 1038.67 701.25 1152.38 709.16
00005401 00000011 777.78 224.58 400.97 646.90 978.89 482.22 1126.71 488.04 1145.27 548.12 1029.22 699.20 1150.96 703.18
00005402 00000012 774.78 225.35 397.23 638.86 967.63 477.93 1124.23 489.09 1136.17 544.75 1016.58 693.71 1144.88 701.47
00005403 00000013 780.31 219.33 396.65 635.81 964.30 481.35 1130.03 494.10 1124.41 543.28 1003.84 685.74 1148.00 694.55
00005404 00000014 781.24 219.30 392.25 632.65 956.09 479.00 1122.95 491.62 1109.68 545.10 991.99 683.20 1138.05 691.96
00005405 00000015 782.17 218.28 393.58 637.33 951.83 477.50 1119.38 487.75 1104.43 545.93 986.77 684.07 1133.79 691.07
00005406 00000016 785.00 215.64 393.01 642.99 950.14 477.56 1117.31 485.38 1100.63 546.30 986.79 686.47 1132.56 691.73
00005407 00000017 785.62 214.96 395.67 643.65 949.74 477.17 1117.84 483.34 1099.84 547.97 985.77 686.65 1132.05 690.65
00005408 00000018 786.03 214.21 396.15 639.29 949.30 477.01 1121.61 482.91 1100.50 549.51 984.13 684.84 1133.68 688.58
00005409 DELETE   788.64 215.98 395.94 628.32 954.76 475.06 1135.20 486.10 1110.35 546.86 986.44 680.18 1143.92 688.13
00005410 DELETE   791.16 215.40 395.97 626.42 961.28 471.12 1139.74 482.75 1119.57 545.44 993.21 678.55 1147.17 687.07
00005411 00000021 795.25 214.16 393.82 628.57 969.08 468.12 1144.37 477.32 1131.76 546.28 1001.80 679.96 1153.20 686.83
00005412 00000022 800.64 216.66 392.40 624.07 977.66 466.56 1152.51 477.07 1139.50 546.79 1010.99 678.65 1161.04 686.50
00005413 00000023 802.71 218.60 392.26 620.74 987.50 465.57 1155.24 475.15 1147.45 549.33 1021.42 678.68 1163.89 685.74
00005414 00000024 808.18 213.89 392.29 625.15 1005.35 466.21 1160.92 476.34 1162.89 548.72 1038.62 677.77 1171.49 684.93
00005415 00000025 809.16 213.68 390.38 623.82 1012.15 465.49 1164.14 477.10 1170.67 546.97 1045.22 677.20 1175.30 685.34
00005416 00000026 810.57 213.19 389.97 622.49 1015.88 464.49 1162.89 475.31 1172.75 543.86 1048.98 674.54 1176.51 682.25
00005417 00000027 813.75 214.49 390.88 618.05 1002.48 464.01 1144.30 462.51 1159.24 543.53 1054.34 669.89 1177.56 666.39
00005418 00000028 814.83 212.45 389.89 617.07 1001.78 462.68 1145.07 460.18 1159.92 542.61 1053.32 666.88 1178.42 662.79
00005419 00000029 812.71 210.23 387.96 611.98 1015.34 461.79 1164.27 470.63 1173.75 539.44 1047.67 667.06 1177.30 673.48
00005420 00000030 809.92 211.79 388.84 615.33 1012.15 461.36 1162.00 471.80 1170.50 539.22 1041.65 666.40 1173.90 674.16
00005421 00000031 809.40 214.64 386.76 614.21 1007.76 459.56 1159.56 472.15 1165.73 536.05 1035.00 664.71 1171.26 674.38
00005422 00000032 810.86 215.00 384.94 617.01 1005.92 459.78 1158.20 474.29 1159.69 536.40 1031.84 666.54 1168.26 678.03
00005423 00000033 808.91 214.09 389.13 619.69 1001.51 460.70 1155.88 470.75 1158.92 536.79 1030.30 667.37 1169.77 675.17
00005424 DELETE   808.07 206.49 386.35 624.90 998.09 463.05 1157.63 472.83 1157.18 539.33 1030.13 668.96 1168.39 676.31
00005425 00000035 806.48 201.49 390.15 631.51 994.48 467.80 1156.19 474.23 1152.78 543.99 1027.34 672.92 1167.55 677.58
00005426 00000036 805.37 201.09 390.97 634.58 991.59 471.93 1156.94 476.02 1151.24 545.74 1027.24 676.84 1170.33 679.26
00005427 00000037 805.84 207.19 390.63 629.40 993.31 470.29 1157.88 477.15 1151.82 546.36 1027.60 677.52 1168.90 682.22
00005428 00000038 807.91 210.68 391.01 627.78 996.85 469.95 1158.54 474.81 1154.62 550.56 1031.71 680.31 1169.35 683.46
00005429 00000039 811.71 215.39 390.61 622.66 992.55 471.07 1143.15 469.44 1149.46 551.03 1043.51 680.54 1169.54 677.15
00005430 00000040 813.57 211.98 388.81 628.43 997.80 471.39 1144.03 468.10 1156.88 552.01 1047.87 681.53 1171.59 676.62
00005431 00000041 815.54 211.52 386.53 626.94 1003.67 470.83 1146.37 471.19 1158.96 551.87 1053.62 680.82 1172.31 678.82
00005432 00000042 816.52 206.58 389.54 628.84 1007.66 470.99 1151.07 471.08 1163.20 551.12 1059.67 680.83 1178.26 678.66
00005433 00000043 826.09 201.91 394.64 631.82 1013.39 470.14 1162.95 460.92 1172.10 546.97 1070.01 680.26 1191.57 673.86
00005434 00000044 820.80 198.47 391.74 639.50 1010.41 465.97 1155.03 461.19 1167.79 542.51 1065.65 676.76 1187.11 670.54
00005435 00000045 821.17 197.78 392.23 640.24 1011.10 464.08 1155.84 459.87 1168.05 541.10 1066.47 676.56 1186.84 670.79
00005436 00000046 821.59 196.94 392.59 639.18 1010.68 462.77 1157.06 457.75 1168.09 539.93 1066.08 675.85 1186.84 669.49
00005437 00000047 821.58 198.12 394.72 637.28 1011.26 462.06 1157.13 454.45 1169.85 540.61 1066.94 677.00 1187.83 668.79
00005438 00000048 820.23 202.62 397.93 633.42 1008.14 460.87 1156.35 452.65 1170.56 542.99 1061.93 678.73 1186.38 670.10
00005439 00000049 819.96 203.50 393.52 637.77 1006.68 465.43 1154.23 453.82 1172.10 551.84 1053.26 682.70 1180.22 671.60
00005440 00000050 819.93 204.60 390.81 638.44 1006.32 468.08 1149.59 454.97 1169.69 552.87 1055.33 684.95 1178.59 672.37
00005441 00000051 820.13 207.16 388.85 637.84 1008.32 469.21 1148.23 459.99 1169.72 553.93 1056.66 686.55 1175.77 677.17
00005442 00000052 819.53 208.89 386.85 636.27 1008.84 470.85 1141.34 459.80 1168.09 555.26 1060.28 688.68 1172.14 677.81
00005443 00000053 817.16 212.93 383.20 631.47 1005.55 471.88 1133.25 463.20 1161.26 557.72 1060.83 691.50 1164.01 682.57
00005444 00000054 806.20 228.38 386.86 616.90 1000.21 479.77 1124.58 466.96 1155.63 566.43 1060.17 702.58 1159.49 691.02
00005445 00000055 801.90 232.30 385.85 622.34 995.76 487.20 1115.68 466.40 1155.72 572.89 1050.82 710.56 1152.60 692.68
00005446 00000056 797.99 235.08 386.33 620.81 989.65 496.61 1111.80 469.87 1148.38 577.01 1044.58 714.99 1148.35 692.74
00005447 00000057 794.81 236.75 388.79 624.31 979.68 500.68 1111.69 471.85 1144.18 581.65 1037.02 722.19 1149.50 698.23
00005448 00000058 782.54 230.08 396.99 625.85 982.53 499.41 1129.57 478.95 1154.93 584.33 1033.42 719.66 1154.98 703.60
00005449 00000059 780.64 235.98 395.10 625.29 975.15 501.33 1123.10 474.68 1149.88 588.32 1025.87 723.71 1149.33 702.59
00005450 00000060 778.04 235.95 395.93 625.84 972.78 499.92 1119.17 473.77 1146.67 585.36 1025.56 723.35 1146.20 702.63
00005451 00000061 776.51 233.94 396.89 631.43 971.48 494.43 1115.75 473.84 1143.97 579.88 1026.03 721.54 1143.71 705.37
00005452 00000062 775.21 224.98 396.31 636.82 977.20 498.18 1116.57 483.20 1144.62 580.21 1029.61 717.61 1143.79 705.47
00005453 00000063 785.20 237.10 387.46 619.43 969.25 507.88 1113.06 484.47 1130.46 579.06 1021.82 716.97 1142.57 697.60
00005454 00000064 784.88 236.29 386.45 614.80 964.04 494.37 1114.09 468.25 1134.60 571.65 1016.17 707.53 1151.97 685.39
00005455 00000065 784.82 225.18 387.69 622.89 962.39 486.91 1113.81 459.30 1133.51 566.63 1011.70 703.01 1149.67 680.21
00005456 00000066 785.70 221.41 388.93 622.83 961.07 481.28 1112.64 456.73 1129.40 561.05 1013.18 697.68 1151.36 676.99
00005457 00000067 781.83 215.69 390.79 623.41 971.31 480.48 1124.12 461.93 1140.89 557.36 1016.78 690.89 1148.50 675.44
00005458 00000068 783.57 215.42 389.21 623.11 971.00 477.50 1124.55 457.23 1144.53 555.61 1016.13 689.58 1149.90 672.98
00005459 00000069 782.60 214.13 390.97 625.45 970.55 475.06 1125.91 455.21 1146.15 553.91 1014.89 687.72 1151.41 671.50
00005460 00000070 782.39 214.28 392.90 625.28 971.88 476.35 1128.18 456.00 1147.15 555.72 1015.81 688.92 1152.43 672.27
00005461 00000071 783.93 219.11 392.21 622.98 974.98 479.87 1128.55 456.49 1150.79 560.72 1015.60 691.48 1151.31 672.61
00005462 00000072 785.09 220.51 390.25 626.85 976.93 483.86 1126.28 460.14 1149.03 565.66 1016.30 697.52 1146.67 678.56
00005463 00000073 786.05 230.59 388.98 626.27 965.96 487.31 1113.69 459.97 1142.15 571.72 1009.46 708.61 1145.46 686.45
00005464 00000074 777.92 229.32 404.46 632.31 979.50 497.95 1132.11 476.64 1156.78 590.81 1028.18 726.22 1152.72 709.70
00005465 00000075 779.31 231.34 402.46 639.52 981.74 509.47 1131.95 490.33 1158.33 598.31 1030.60 732.26 1155.72 717.64
00005466 00000076 779.01 236.39 402.15 639.77 981.36 515.68 1132.10 497.68 1157.46 603.56 1030.13 738.20 1155.25 724.29
00005467 00000077 778.39 239.66 399.47 638.65 980.39 518.71 1131.32 499.13 1158.27 603.98 1029.88 740.40 1155.56 725.15
00005468 00000078 775.77 236.89 404.11 639.95 978.03 516.79 1129.53 496.74 1155.59 602.19 1029.07 738.58 1154.48 722.77
00005469 00000079 769.65 225.24 406.75 638.85 974.87 501.78 1126.72 480.05 1149.65 585.76 1029.64 725.03 1154.54 707.07
00005470 00000080 765.09 222.62 409.16 636.66 971.22 490.35 1118.33 464.90 1144.92 572.55 1032.25 718.22 1151.30 696.80
00005471 00000081 759.87 210.77 409.58 641.32 967.92 482.66 1112.04 460.05 1138.49 561.43 1030.52 709.08 1146.71 689.74
00005472 00000082 756.77 209.97 406.06 641.52 959.22 479.30 1100.95 461.26 1126.65 558.01 1011.42 695.75 1131.66 680.49
00005473 00000083 761.44 203.59 401.28 642.13 944.77 474.60 1101.47 454.83 1112.48 548.92 1008.84 692.57 1134.74 677.25
00005474 00000084 746.03 199.87 403.18 644.20 934.85 464.68 1084.87 451.92 1100.21 541.93 992.42 682.58 1121.17 669.95
00005475 00000085 746.51 201.55 403.90 644.11 931.10 463.63 1084.56 449.84 1098.49 540.97 987.42 681.80 1121.72 668.30
00005476 00000086 744.96 200.53 405.55 646.81 929.88 466.44 1084.63 451.56 1097.82 545.28 983.75 683.90 1119.63 669.57
00005477 00000087 745.89 203.55 406.65 648.30 932.96 471.24 1088.77 453.52 1102.19 551.90 982.26 688.19 1119.95 671.87
00005478 00000088 757.08 200.76 407.34 653.20 937.77 474.28 1101.22 458.98 1106.99 556.93 992.59 692.57 1130.32 680.46
00005479 DELETE   755.42 208.39 407.21 652.82 943.05 494.31 1105.44 468.49 1119.54 583.70 989.90 716.01 1129.09 693.86
00005480 00000090 756.42 222.59 413.07 643.28 942.67 506.95 1112.92 479.63 1116.23 593.15 996.71 728.60 1139.05 705.43
00005481 00000091 764.11 230.01 404.56 650.23 944.60 513.00 1114.14 492.79 1114.80 602.05 999.76 734.41 1140.89 716.94
00005482 00000092 767.81 231.37 402.46 648.87 947.67 519.21 1115.93 499.26 1114.58 602.34 1007.10 738.78 1142.19 721.58
00005483 00000093 773.43 231.30 402.03 649.10 949.84 518.08 1118.23 495.63 1118.42 601.95 1010.70 737.73 1150.01 718.07
00005484 00000094 772.55 214.72 405.80 651.21 956.55 496.37 1115.86 475.20 1123.27 582.64 1008.96 721.01 1142.29 702.78
00005485 00000095 766.15 199.38 409.04 655.80 963.45 487.78 1117.91 467.62 1129.04 567.36 1010.41 703.64 1138.21 686.68
00005486 00000096 764.33 197.09 406.79 647.71 962.62 472.75 1117.28 456.08 1133.43 554.87 1007.08 689.43 1138.74 675.42
00005487 DELETE   770.91 192.02 403.45 641.44 958.61 464.28 1122.97 454.21 1126.43 542.70 1004.30 679.64 1144.33 670.91
00005488 00000098 774.04 187.79 405.88 642.54 957.42 457.21 1124.55 448.36 1127.07 532.13 1005.99 673.95 1150.89 666.25
00005489 00000099 778.54 176.50 403.68 654.28 965.29 455.47 1129.41 446.05 1133.69 533.00 1016.19 676.72 1154.62 668.71
00005490 00000100 781.57 180.05 401.89 653.06 970.35 459.50 1131.69 450.22 1135.89 540.38 1021.58 681.84 1154.91 673.85
00005491 DELETE   780.72 188.44 402.20 650.89 980.40 468.30 1138.08 462.18 1143.70 551.71 1025.69 688.35 1155.13 682.61
00005492 DELETE   780.29 200.04 405.74 652.01 989.24 479.41 1140.98 471.50 1151.42 569.70 1029.15 702.20 1150.69 695.33
00005493 DELETE   787.02 200.98 400.38 663.71 981.37 485.01 1127.25 468.81 1142.24 580.96 1023.32 715.60 1142.35 701.49
00005494 00000104 788.73 209.91 406.43 669.04 981.76 494.75 1128.43 467.24 1152.69 592.66 1029.33 732.12 1153.54 708.97
00005495 00000105 789.26 207.15 405.99 672.31 982.13 492.71 1127.17 466.46 1154.52 589.93 1025.67 729.12 1150.36 707.28
00005496 00000106 792.28 198.11 402.65 670.13 977.95 481.96 1138.76 459.97 1148.90 571.49 1031.60 707.16 1167.27 688.95
00005497 00000107 788.45 196.15 406.66 660.57 977.05 474.37 1137.83 460.54 1145.87 561.94 1025.54 698.09 1160.77 687.00
00005498 00000108 782.11 194.79 412.28 644.59 990.54 466.38 1144.81 453.08 1159.58 554.41 1027.89 686.08 1161.02 675.34
00005499 00000109 782.46 186.50 411.01 637.37 987.42 451.89 1142.66 443.28 1159.96 530.86 1023.63 666.26 1163.52 659.66
00005500 00000110 783.00 177.11 412.29 641.41 990.20 447.29 1142.24 434.49 1166.39 526.04 1030.53 662.38 1167.99 652.25
00005501 00000111 783.75 174.04 413.32 643.24 993.37 442.02 1145.08 432.13 1170.70 521.20 1035.79 658.97 1171.28 651.06
00005502 00000112 785.11 172.84 412.93 643.95 996.67 440.42 1147.83 433.09 1173.88 519.62 1042.30 659.33 1174.81 653.09
00005503 00000113 787.40 173.51 411.50 646.85 1000.22 443.67 1148.50 434.49 1175.23 523.86 1044.40 662.83 1175.52 655.21
00005504 00000114 792.80 189.03 416.30 648.68 987.69 451.57 1138.22 436.49 1154.67 535.55 1050.90 676.05 1179.18 661.42
00005505 00000115 796.04 191.77 414.93 654.37 994.76 462.92 1139.99 442.70 1162.35 550.09 1055.38 688.10 1178.21 669.19
00005506 00000116 797.21 200.44 415.20 654.85 1001.39 474.14 1138.75 454.31 1165.21 564.97 1053.79 699.88 1169.36 682.31
00005507 00000117 801.19 206.62 414.18 655.51 1004.21 484.85 1142.25 461.49 1168.65 574.45 1054.37 709.70 1170.51 689.73
00005508 00000118 804.83 207.45 415.43 658.51 1007.60 491.81 1146.61 462.86 1172.86 580.30 1058.36 716.75 1173.32 692.37
00005509 00000119 808.04 209.03 410.03 650.30 1010.88 488.25 1147.22 465.05 1176.13 575.34 1063.71 711.96 1172.75 692.18
00005510 00000120 808.97 208.73 408.71 648.06 1012.11 483.56 1150.79 460.84 1179.86 571.05 1056.94 704.84 1171.55 685.67
00005511 DELETE   809.91 190.74 413.87 660.58 1011.25 474.84 1165.21 455.91 1182.28 554.47 1060.51 689.38 1191.78 674.91
00005512 DELETE   810.22 183.48 415.37 659.21 1007.99 466.50 1167.32 451.13 1179.11 543.10 1060.06 680.91 1197.22 668.60
00005513 00000123 807.44 183.24 412.48 647.48 1013.66 460.99 1164.37 443.44 1181.83 538.50 1066.16 672.99 1192.31 659.36
00005514 DELETE   803.05 175.48 421.68 638.29 1015.87 457.99 1166.24 446.21 1177.05 526.87 1074.21 663.08 1195.08 652.48
00005515 00000125 808.47 174.61 419.73 638.25 1018.89 457.56 1169.57 446.53 1179.47 526.58 1078.56 660.58 1202.29 650.33
00005516 00000126 809.91 171.37 418.42 641.66 1020.12 454.94 1171.75 443.52 1182.36 526.11 1079.69 661.12 1205.37 650.36
00005517 00000127 813.33 176.50 415.85 638.73 1022.25 454.79 1173.74 444.47 1184.05 526.87 1081.76 663.38 1206.31 653.94
00005518 00000128 813.99 175.65 415.71 653.81 1023.25 457.11 1173.12 444.46 1186.97 530.03 1082.72 670.31 1204.94 659.09
00005519 00000129 816.37 181.35 421.68 663.57 1022.17 461.42 1175.41 449.02 1190.95 536.38 1088.59 685.66 1208.30 674.94
00005520 DELETE   819.83 180.97 419.15 663.43 1021.85 460.34 1175.67 445.38 1190.97 535.67 1090.72 685.71 1211.15 672.83
00005521 00000131 813.73 179.56 420.39 660.05 1028.23 453.48 1177.26 449.55 1195.13 534.70 1086.14 679.62 1208.66 674.30
00005522 DELETE   812.85 175.33 418.08 656.77 1023.38 447.96 1172.26 438.94 1189.97 528.09 1085.10 671.58 1209.52 661.82
00005523 DELETE   808.83 168.26 420.38 653.15 1013.19 448.04 1165.32 429.27 1179.97 523.30 1082.61 668.59 1208.10 651.15
00005524 00000134 796.61 170.61 415.53 640.76 1007.02 419.57 1153.03 415.34 1178.96 504.47 1073.52 651.13 1191.82 646.10
00005525 00000135 798.38 170.08 409.47 638.83 999.07 430.87 1143.31 420.15 1162.54 510.77 1054.36 652.55 1177.92 642.19
00005526 00000136 797.92 172.15 407.80 637.81 998.25 431.77 1142.98 420.63 1165.07 515.15 1046.90 654.05 1171.74 644.02
00005527 00000137 796.68 173.74 406.04 640.29 1000.42 435.88 1143.20 422.05 1167.32 521.14 1044.02 658.87 1167.09 647.47
00005528 00000138 791.78 167.65 408.23 647.44 1021.14 435.31 1160.05 433.70 1192.28 529.48 1053.01 661.32 1170.09 661.06
00005529 DELETE   795.31 189.50 413.67 653.33 1011.56 458.85 1152.65 451.37 1178.84 549.44 1076.27 689.32 1177.94 683.93
CROP_BBOX: 489 0 1487 1023
