Video ID: 	w2sq6vfTZ8Q
H: 	1080
W: 	1920
FPS: 	25.0

FRAME INDEX X0 Y0 W H [Landmarks (5 Points)]

00003580 00000000 711.17 109.58 350.97 499.58 825.52 277.10 994.87 293.87 928.15 369.59 831.83 461.14 969.44 475.78
00003581 00000001 713.78 111.66 350.62 501.75 828.44 277.54 997.86 293.13 930.71 371.22 836.54 465.90 967.76 479.67
00003582 00000002 715.63 110.77 348.33 508.33 831.31 280.38 997.04 294.43 933.12 373.22 843.31 472.64 967.78 485.27
00003583 00000003 715.73 112.66 350.39 517.64 829.83 282.71 996.77 299.21 928.78 375.04 841.60 478.34 966.52 493.10
00003584 00000004 716.50 111.34 350.12 535.52 833.22 277.40 1002.90 300.33 934.77 377.35 839.80 488.89 964.19 508.89
00003585 DELETE   718.14 115.67 366.91 539.47 857.33 285.48 1021.72 307.98 968.47 383.48 858.26 496.13 984.02 516.39
00003586 DELETE   737.96 126.31 364.07 520.82 880.09 297.85 1041.86 316.13 1003.24 388.37 887.61 493.33 1021.26 510.48
00003587 DELETE   751.36 129.74 354.51 510.69 886.19 310.00 1048.03 315.43 1014.88 397.03 902.18 497.79 1038.49 504.09
00003588 00000008 751.87 133.73 351.96 505.80 882.80 319.57 1047.57 319.02 1011.43 405.92 899.54 503.37 1039.48 504.75
00003589 00000009 750.16 145.34 353.08 502.01 881.65 325.90 1047.67 328.89 1008.28 416.41 897.09 512.51 1035.48 516.94
00003590 00000010 756.13 150.27 351.47 502.96 885.28 331.02 1051.27 336.04 1009.77 425.04 899.72 519.66 1035.04 525.95
00003591 00000011 759.12 148.05 354.78 507.23 890.76 327.33 1055.84 338.26 1014.13 423.01 902.24 516.66 1035.83 527.55
00003592 00000012 761.39 143.72 357.88 508.11 893.68 325.66 1056.88 338.01 1014.52 422.21 904.56 513.72 1034.39 525.77
00003593 00000013 763.42 141.35 357.07 510.25 894.38 323.29 1056.58 337.48 1011.66 421.71 902.19 513.03 1029.82 527.00
00003594 00000014 761.81 142.80 358.27 517.89 891.70 327.58 1053.64 346.82 1003.68 423.29 892.89 513.20 1026.75 531.61
00003595 00000015 761.92 147.34 356.53 514.88 884.73 337.40 1051.88 358.30 990.27 428.45 878.46 511.40 1026.13 531.34
00003596 00000016 755.25 147.73 353.17 510.85 881.35 338.71 1049.04 365.60 982.80 432.23 868.15 509.05 1016.99 533.82
00003597 DELETE   744.74 144.03 357.56 510.86 873.32 337.73 1041.22 365.92 974.20 428.47 860.52 506.63 1007.91 531.99
00003598 00000018 735.92 135.77 360.42 529.90 863.69 334.82 1030.14 364.68 958.58 426.66 849.58 508.25 995.18 534.65
00003599 00000019 726.93 131.23 360.58 535.29 852.67 333.11 1023.46 365.62 943.57 419.77 839.69 507.21 986.82 535.32
00003600 00000020 712.52 124.91 368.06 538.03 842.21 326.38 1013.75 361.90 933.78 415.67 830.33 499.49 978.75 529.68
00003601 00000021 706.87 121.23 367.05 538.34 833.95 318.39 1005.95 354.37 926.23 409.90 823.05 493.86 972.26 524.35
00003602 00000022 704.89 119.23 364.94 536.22 825.16 315.80 998.70 348.64 917.03 407.49 815.54 492.75 965.90 520.62
00003603 00000023 701.35 119.65 365.16 528.46 819.99 314.36 991.35 343.57 909.51 405.01 811.68 491.08 958.97 515.97
00003604 00000024 697.41 125.32 360.18 517.96 815.74 309.83 987.13 328.99 906.40 408.01 802.91 490.59 954.72 507.50
00003605 00000025 695.05 120.87 359.35 519.89 810.72 304.26 985.64 321.07 904.49 405.85 800.51 488.95 954.12 504.07
00003606 00000026 696.81 117.73 356.49 519.77 811.48 301.75 985.91 317.71 906.17 400.48 802.94 486.42 955.81 500.66
00003607 00000027 699.08 114.81 362.03 524.39 811.79 298.12 982.06 319.53 907.56 386.84 809.82 479.57 958.13 498.34
00003608 00000028 700.38 114.46 359.42 524.05 813.08 297.62 982.02 317.79 909.98 383.85 813.93 478.47 961.09 496.32
00003609 00000029 702.52 112.87 357.24 522.09 815.47 295.38 983.68 314.09 914.69 381.74 818.03 477.04 962.78 493.69
00003610 00000030 704.86 112.33 356.97 515.92 818.71 292.16 987.14 308.94 917.72 378.69 823.31 472.54 967.31 487.66
00003611 00000031 705.72 110.39 355.58 511.21 821.15 291.79 987.05 308.16 919.79 377.12 825.85 469.97 966.88 484.91
00003612 00000032 704.20 110.60 355.37 508.44 820.11 293.94 985.95 307.85 920.32 379.36 826.47 471.05 967.43 483.89
00003613 00000033 708.65 113.21 350.38 507.72 818.78 301.09 982.63 306.87 922.83 379.18 825.85 474.54 971.25 482.08
00003614 00000034 708.61 112.93 349.74 504.78 817.92 301.68 982.45 306.42 921.63 380.22 827.29 477.76 968.49 484.30
00003615 00000035 708.38 111.40 349.17 502.73 816.90 305.37 983.31 309.23 920.17 384.64 827.53 479.76 969.49 485.61
00003616 00000036 708.58 111.22 348.26 503.32 818.00 305.87 984.31 310.88 920.81 385.96 827.70 480.72 968.68 487.71
00003617 00000037 709.00 111.33 348.17 503.43 818.12 306.81 985.11 311.28 920.86 388.00 827.63 480.92 969.97 487.45
00003618 00000038 709.96 112.32 347.74 504.25 818.76 307.29 985.39 311.16 921.76 388.67 829.29 482.44 971.21 488.41
00003619 00000039 711.21 111.71 347.30 508.96 820.36 308.38 985.90 309.44 925.03 387.58 834.81 486.38 974.68 489.60
00003620 00000040 711.81 112.11 347.19 514.92 822.42 308.19 985.31 306.70 930.44 385.36 840.96 491.29 976.23 492.38
00003621 00000041 705.36 109.87 349.06 516.88 822.31 303.89 981.16 307.83 926.81 382.31 847.52 487.50 970.81 491.66
00003622 00000042 704.38 110.25 348.52 518.06 821.92 304.26 980.24 307.84 925.74 384.03 848.47 489.67 968.55 493.43
00003623 00000043 711.51 111.40 344.65 520.00 821.28 308.27 983.49 307.81 929.29 389.28 841.12 495.95 972.58 497.93
00003624 00000044 709.26 112.09 346.28 520.66 819.72 309.70 984.37 309.82 927.16 391.76 838.37 497.63 972.18 499.97
00003625 00000045 708.62 113.51 346.81 521.25 818.96 309.89 984.07 312.01 925.72 393.26 835.24 497.57 970.48 501.32
00003626 00000046 708.35 114.48 347.04 521.60 817.98 310.33 982.87 312.32 924.37 393.88 834.20 498.52 968.90 502.12
00003627 00000047 707.01 113.69 347.83 520.53 816.81 311.23 981.55 312.45 923.63 395.07 833.53 498.96 967.67 501.95
00003628 00000048 707.74 112.90 345.22 514.81 815.56 310.05 981.65 311.37 921.66 393.94 832.25 497.61 965.43 500.87
00003629 00000049 707.00 111.32 342.87 506.38 812.42 309.15 980.73 308.87 917.93 391.89 831.00 494.28 965.63 496.32
00003630 00000050 704.82 111.28 344.53 507.29 811.41 308.46 978.01 307.82 917.03 389.19 830.48 493.39 964.45 495.09
00003631 00000051 703.70 111.91 347.96 521.63 810.40 306.45 975.73 307.42 915.67 385.89 824.51 493.51 963.27 496.19
00003632 00000052 703.11 113.28 347.37 528.31 810.70 305.47 975.29 308.37 915.76 385.22 818.88 493.19 961.29 497.63
00003633 00000053 702.23 112.88 347.31 531.45 809.96 305.07 974.55 309.97 912.97 386.16 814.89 492.10 959.59 498.17
00003634 00000054 698.87 114.23 348.61 530.32 808.32 306.39 972.10 311.64 910.86 388.85 811.08 490.92 958.21 497.46
00003635 00000055 692.79 115.50 349.15 529.97 805.42 305.96 970.04 313.14 909.48 389.80 805.87 489.94 954.58 498.13
00003636 00000056 689.20 116.65 350.47 529.37 804.34 306.31 968.40 315.25 908.03 391.01 802.34 488.76 951.57 498.54
00003637 00000057 689.81 117.45 349.44 528.90 804.25 307.08 967.82 316.39 907.08 391.91 801.78 488.84 951.04 498.98
00003638 00000058 687.76 116.50 350.58 529.10 803.26 307.71 966.38 316.70 907.39 391.79 801.29 488.54 950.42 498.34
00003639 00000059 685.06 116.80 352.19 528.07 800.95 308.34 963.61 317.50 904.88 392.60 800.78 488.57 948.98 498.25
00003640 00000060 683.31 116.46 353.04 526.99 799.63 308.19 963.33 317.55 903.09 393.46 800.28 489.19 947.67 498.92
00003641 00000061 681.70 114.79 354.94 527.54 798.61 307.23 962.25 317.42 901.47 393.50 799.23 488.57 946.13 498.79
00003642 00000062 681.08 113.28 355.86 525.50 797.45 305.91 961.57 316.44 900.17 390.65 799.97 487.27 945.15 497.68
00003643 00000063 681.39 110.57 354.95 521.89 795.82 304.49 960.67 313.95 897.85 386.37 800.58 485.35 944.93 494.87
00003644 00000064 680.53 110.73 354.87 519.72 794.62 304.12 959.98 313.09 896.54 385.70 800.38 485.63 943.82 494.73
00003645 00000065 680.49 112.39 355.56 518.63 794.63 304.54 959.84 311.93 898.56 386.99 802.54 487.76 944.67 495.56
00003646 00000066 678.93 113.48 356.67 516.04 793.23 305.90 958.08 312.01 896.80 387.72 803.06 489.09 943.86 495.86
00003647 00000067 678.36 113.22 356.99 516.94 791.82 305.97 957.15 311.35 895.28 388.47 803.69 492.12 942.38 498.16
00003648 00000068 678.65 111.78 355.71 518.34 787.95 306.37 956.91 311.38 889.58 388.89 802.19 496.90 939.97 502.58
00003649 00000069 677.93 112.30 355.45 519.32 784.68 305.57 953.05 311.77 881.40 390.01 798.10 498.11 933.35 504.64
00003650 00000070 676.51 114.17 353.97 516.71 781.84 306.23 949.46 313.63 877.51 391.74 795.18 497.93 928.52 505.45
00003651 00000071 676.63 114.46 353.12 515.30 781.25 306.49 950.07 315.79 876.02 392.92 792.19 497.25 927.06 506.50
00003652 00000072 677.81 116.40 354.02 513.30 784.15 306.91 951.81 316.79 878.38 391.33 794.22 495.39 929.96 505.07
00003653 00000073 679.22 114.10 355.92 521.93 791.92 307.18 955.44 317.03 888.01 395.75 799.63 495.88 932.58 505.78
00003654 00000074 685.70 114.88 350.51 522.25 797.42 306.15 958.67 315.81 895.10 397.81 805.48 496.44 934.16 506.36
00003655 00000075 688.31 119.22 351.02 519.55 802.26 306.21 963.65 315.18 903.89 399.05 809.94 497.22 940.47 506.77
00003656 00000076 691.33 118.37 350.72 518.63 805.01 308.72 970.53 316.92 907.86 398.32 812.13 496.73 949.70 505.62
00003657 00000077 694.20 118.44 352.48 518.88 807.39 311.38 976.33 320.10 911.72 401.77 813.97 496.99 957.00 506.33
00003658 00000078 697.51 121.53 354.84 521.29 812.15 312.25 981.04 321.62 916.49 403.47 814.97 496.36 961.40 506.53
00003659 00000079 699.77 123.67 354.87 523.06 815.46 312.11 983.48 322.93 919.12 402.79 815.89 495.90 963.30 507.34
00003660 00000080 691.00 124.78 354.62 520.02 815.28 308.98 986.72 316.84 917.41 409.36 815.72 499.73 962.84 507.36
00003661 00000081 692.56 126.06 353.93 521.22 816.58 310.34 986.54 318.39 917.38 411.28 815.85 500.64 962.46 508.42
00003662 00000082 692.55 126.33 353.92 519.21 815.79 310.10 985.51 317.93 916.27 410.62 814.79 499.34 961.88 507.01
00003663 00000083 692.41 125.26 354.01 516.96 813.74 309.59 984.37 317.15 914.63 408.69 812.86 497.88 960.94 505.38
00003664 00000084 692.16 123.33 353.09 519.27 811.45 308.29 983.77 315.75 912.54 406.80 810.68 496.07 961.01 503.47
00003665 00000085 691.57 122.02 352.44 523.87 809.04 307.78 982.13 315.36 909.26 407.77 808.35 496.64 958.56 504.12
00003666 00000086 696.83 122.52 353.27 535.71 808.59 308.03 974.14 317.28 910.00 398.39 805.93 495.20 957.76 505.16
00003667 00000087 691.26 123.24 352.56 533.92 803.30 304.38 967.96 314.36 904.14 392.72 800.98 493.34 951.09 503.98
00003668 00000088 686.33 118.40 354.18 535.26 798.15 301.54 962.95 312.07 897.80 388.67 797.65 491.37 945.29 502.30
00003669 00000089 683.25 115.44 355.30 535.87 793.50 301.79 959.82 311.78 890.61 388.09 793.89 491.13 942.74 501.55
00003670 00000090 681.58 115.69 352.85 532.70 789.49 305.38 957.61 314.65 881.23 387.72 789.97 490.57 941.40 500.42
00003671 00000091 680.55 119.73 351.71 525.67 788.67 313.34 954.28 322.68 877.41 388.64 786.79 489.35 939.42 499.63
00003672 00000092 678.72 119.82 354.25 524.18 789.11 311.54 956.54 321.31 880.14 389.63 787.22 489.27 939.78 499.79
00003673 00000093 676.81 117.29 356.69 525.30 791.69 308.79 959.88 320.19 888.83 392.05 791.53 488.74 942.42 500.28
00003674 00000094 678.29 118.03 357.12 523.88 795.70 307.88 963.53 319.30 899.53 394.07 797.43 488.84 947.27 500.10
00003675 00000095 681.11 117.99 358.35 522.55 800.24 308.80 968.58 318.37 909.10 396.13 802.17 489.88 954.16 499.85
00003676 00000096 687.59 120.51 356.07 516.86 806.87 312.64 973.02 320.94 914.53 398.73 809.07 490.54 957.81 499.53
00003677 00000097 692.20 118.97 354.58 514.72 809.82 312.85 977.85 320.13 918.15 398.41 815.19 492.23 962.32 500.25
00003678 00000098 697.82 119.16 352.54 516.03 812.75 313.59 981.84 319.62 921.15 402.50 819.99 493.86 967.83 501.01
00003679 00000099 699.40 118.92 353.38 519.22 814.92 313.76 985.19 319.93 924.75 404.53 822.85 495.84 970.85 503.10
00003680 00000100 703.20 119.54 351.57 520.64 816.61 313.60 986.27 319.03 926.14 403.62 825.76 495.90 973.56 502.60
00003681 00000101 704.28 118.83 350.76 520.04 816.18 312.38 986.48 317.98 925.31 402.77 826.32 496.17 973.37 502.91
00003682 00000102 705.39 121.06 350.12 520.35 816.82 310.39 985.83 315.95 925.46 400.75 826.11 495.89 971.99 502.54
00003683 00000103 706.52 120.40 349.91 521.83 817.29 308.63 986.32 314.34 924.63 399.78 825.71 495.58 971.14 502.32
00003684 00000104 707.30 121.07 353.23 528.08 819.67 307.89 988.08 315.01 926.71 399.73 826.25 497.08 972.06 504.99
00003685 00000105 700.85 115.80 357.65 539.44 819.20 301.33 985.78 316.57 926.93 404.00 827.26 500.76 966.29 514.47
00003686 00000106 701.50 119.11 357.24 539.68 822.73 306.15 989.41 322.08 933.43 410.07 830.96 506.05 968.89 520.45
00003687 00000107 703.42 119.00 353.40 536.42 824.25 309.89 993.40 325.12 937.14 413.70 836.42 512.87 970.13 526.71
00003688 00000108 703.72 121.59 352.09 525.54 822.80 313.80 995.16 325.15 936.64 415.63 839.41 513.68 974.10 524.05
00003689 00000109 702.17 120.67 354.18 525.53 820.99 313.51 994.90 324.54 934.99 415.83 836.93 512.70 974.39 522.84
00003690 00000110 702.24 117.30 353.58 531.32 819.56 310.46 994.45 323.13 933.54 414.75 834.63 515.50 970.43 527.01
00003691 00000111 702.90 114.78 355.72 538.15 817.90 307.52 992.93 320.66 930.73 411.50 831.43 512.99 968.75 524.95
00003692 00000112 703.92 114.64 355.94 538.80 817.70 305.83 991.92 318.75 927.91 410.09 830.27 510.35 968.22 522.16
00003693 00000113 703.41 113.36 355.36 538.39 817.08 305.56 990.53 317.37 925.49 409.08 830.92 510.37 966.67 521.35
00003694 00000114 702.46 111.89 355.09 537.11 815.89 303.84 987.98 314.04 922.49 406.52 831.86 509.77 963.27 519.24
00003695 00000115 707.05 116.01 352.79 531.43 816.39 308.44 986.46 312.01 924.42 401.90 831.13 507.66 967.72 512.38
00003696 00000116 701.25 116.00 355.37 527.26 812.01 306.59 981.60 308.90 920.10 399.66 827.86 505.32 963.63 508.93
00003697 00000117 698.70 115.54 354.69 526.14 809.41 305.18 979.27 308.11 915.68 395.00 823.59 501.84 961.16 505.86
00003698 00000118 693.39 115.92 356.58 526.82 805.37 304.12 974.19 306.12 911.28 391.43 819.13 499.09 959.33 502.01
00003699 00000119 688.35 112.47 357.89 530.28 801.10 303.07 970.42 304.52 910.09 389.25 814.25 497.68 957.85 500.01
00003700 00000120 684.80 108.08 357.79 531.98 798.94 302.15 967.32 304.06 909.62 385.93 812.44 496.14 955.18 499.07
00003701 00000121 684.31 106.06 356.74 529.87 796.94 299.46 966.12 300.16 908.47 379.96 812.48 494.04 954.57 495.82
00003702 00000122 684.97 105.82 356.23 528.31 796.21 298.08 965.48 296.47 908.02 375.97 812.53 491.15 955.91 491.21
00003703 00000123 686.91 107.15 356.51 531.95 798.43 295.22 967.06 294.31 910.13 373.77 811.53 489.53 957.39 490.27
00003704 00000124 690.48 106.64 355.89 537.39 800.76 294.22 970.12 293.39 911.53 375.40 812.54 490.65 961.20 491.39
00003705 00000125 693.33 105.38 356.39 533.29 803.73 299.09 973.87 295.45 915.20 375.76 818.54 489.61 968.16 488.23
00003706 00000126 697.16 109.25 354.10 523.82 809.13 303.29 976.95 300.73 919.75 379.65 823.67 486.39 973.19 486.02
00003707 00000127 699.41 110.58 353.66 524.63 813.34 305.80 979.60 306.51 922.39 384.28 823.92 486.27 973.70 488.90
00003708 00000128 700.50 116.34 354.70 528.85 817.35 306.62 982.05 311.15 926.10 389.19 822.41 488.34 974.70 494.36
00003709 00000129 703.08 116.49 352.04 537.93 818.35 305.68 982.54 313.25 925.34 392.10 820.18 491.68 972.23 499.98
00003710 00000130 700.53 115.83 353.65 543.43 815.52 305.62 981.53 313.61 922.07 393.05 816.48 494.80 969.51 503.58
00003711 00000131 695.48 112.59 356.22 547.28 810.38 305.16 977.26 312.40 917.31 394.35 811.19 495.54 965.07 503.66
00003712 00000132 690.29 109.70 358.61 545.09 804.52 304.75 972.42 309.67 912.23 394.92 810.91 498.61 959.05 504.28
00003713 00000133 687.71 105.72 356.92 542.29 799.58 303.92 967.60 307.01 906.28 395.97 813.73 503.53 951.57 507.61
00003714 00000134 687.12 104.18 354.59 538.29 798.41 302.85 964.61 307.94 902.41 395.95 812.68 502.87 943.63 508.78
00003715 00000135 684.07 104.38 354.96 538.88 796.03 301.16 962.09 309.69 897.88 395.89 806.94 500.63 938.30 509.36
00003716 00000136 681.59 105.84 355.72 541.42 793.14 301.62 960.85 309.71 895.44 396.16 803.28 501.13 940.07 509.45
00003717 00000137 678.19 106.27 358.01 543.64 789.07 303.73 960.77 310.25 893.89 396.34 798.41 502.70 942.70 509.70
00003718 00000138 675.88 107.05 359.79 541.84 789.19 307.10 961.39 313.28 895.77 397.62 797.98 501.83 945.80 508.50
00003719 00000139 676.41 107.98 359.96 536.77 792.78 309.25 963.85 315.41 901.13 397.28 801.66 500.41 948.49 507.12
00003720 00000140 676.85 110.68 360.46 531.53 795.16 312.04 964.41 317.44 904.63 398.75 804.74 499.13 950.94 505.20
00003721 00000141 682.92 120.08 355.09 522.35 801.92 329.28 964.26 334.76 903.73 403.55 805.08 498.23 953.63 505.31
00003722 00000142 683.27 119.08 355.53 521.62 801.92 329.88 965.50 335.15 904.84 405.90 806.87 499.41 955.20 506.10
00003723 00000143 681.74 118.89 356.64 521.55 799.46 322.32 967.28 326.95 906.27 403.91 808.12 499.55 956.07 505.34
00003724 00000144 678.94 115.33 359.68 525.37 796.78 318.53 966.64 321.91 905.21 402.05 807.60 500.14 955.30 504.75
00003725 00000145 678.80 111.31 358.83 529.58 795.30 315.09 964.99 318.03 903.58 399.68 805.29 499.81 952.96 504.20
00003726 00000146 677.92 109.64 360.14 532.05 793.48 313.58 962.32 315.54 901.04 398.49 805.52 500.84 951.24 504.08
00003727 00000147 677.84 107.15 361.85 532.88 793.31 312.26 961.14 313.69 900.71 396.01 806.84 499.13 950.99 501.80
00003728 00000148 680.16 103.76 360.41 530.95 793.74 310.99 962.41 311.02 902.38 392.18 809.40 496.04 954.82 497.55
00003729 00000149 685.22 102.77 358.84 532.18 797.53 311.80 968.53 308.81 909.17 390.06 815.53 497.44 962.16 496.43
00003730 00000150 689.97 104.22 358.62 534.72 802.51 312.08 971.58 307.06 913.75 392.62 823.47 500.36 966.19 497.30
00003731 00000151 694.97 106.03 357.51 533.82 808.39 314.76 978.65 309.80 919.48 396.58 826.60 501.51 971.69 498.70
00003732 00000152 696.58 109.97 357.77 527.15 811.19 318.54 982.94 314.18 923.68 401.96 827.11 498.79 978.10 496.93
00003733 00000153 696.37 112.14 358.92 531.82 813.35 317.22 982.45 315.66 925.61 402.44 826.88 499.10 975.97 499.78
00003734 00000154 696.56 113.63 359.91 543.58 814.06 314.29 981.99 315.63 924.54 403.44 824.87 504.36 971.41 507.42
00003735 00000155 695.55 108.29 360.18 540.93 810.54 311.35 980.63 312.28 919.28 401.40 825.98 507.54 965.91 510.01
00003736 00000156 691.76 103.42 361.06 535.13 806.22 307.26 977.19 308.84 912.96 396.89 823.78 504.02 959.98 506.35
00003737 00000157 690.61 98.63 360.21 535.83 802.34 302.56 972.51 304.32 907.83 388.71 820.45 501.52 954.01 504.18
00003738 00000158 690.06 99.17 360.84 538.15 802.34 299.18 971.47 304.05 905.63 384.77 816.09 498.63 949.50 503.80
00003739 00000159 688.60 101.25 364.48 538.25 804.32 300.85 974.67 307.24 908.91 387.14 814.52 496.49 954.61 502.87
00003740 00000160 690.71 104.04 364.01 533.44 808.39 304.71 981.99 313.26 915.68 392.81 816.40 496.06 963.30 504.54
00003741 00000161 696.80 107.88 361.60 534.45 814.76 305.90 987.52 314.82 922.80 396.70 820.71 495.37 969.72 504.63
00003742 00000162 699.48 110.21 361.58 535.64 818.76 308.31 990.39 318.36 926.25 400.44 822.53 495.39 972.91 505.57
00003743 00000163 700.64 111.63 361.06 535.88 819.89 309.29 990.51 319.71 927.63 401.62 823.42 496.43 972.40 507.00
00003744 00000164 699.63 111.74 362.27 536.31 819.35 309.29 989.43 318.79 927.39 402.36 822.87 496.43 971.87 506.34
00003745 00000165 698.84 111.80 362.73 537.66 818.73 308.28 987.99 317.93 925.03 401.15 821.29 495.89 969.65 505.88
00003746 00000166 700.73 111.66 360.93 545.86 819.37 306.21 987.89 317.39 925.27 398.88 819.84 496.27 969.51 507.82
00003747 00000167 702.50 111.24 358.53 545.48 818.42 304.14 985.50 315.08 922.27 395.32 818.06 493.01 968.78 504.34
00003748 00000168 701.90 111.69 359.24 538.56 819.67 303.01 986.54 315.94 923.10 392.96 817.14 488.76 968.37 501.86
00003749 00000169 699.62 107.10 360.12 533.81 818.25 294.48 987.78 315.62 921.41 389.60 820.86 486.27 962.38 505.02
00003750 00000170 703.90 107.35 359.53 531.61 828.36 294.10 996.43 317.50 932.20 387.12 828.60 484.88 970.28 505.47
