Video ID: 	y-JygR3OBFo
H: 	1080
W: 	1920
FPS: 	25.0

FRAME INDEX X0 Y0 W H [Landmarks (5 Points)]

00008076 00000000 566.59 101.24 407.85 587.75 682.99 358.02 874.84 355.18 790.02 447.39 719.93 557.83 871.24 554.43
00008077 00000001 559.39 107.49 404.97 587.72 680.07 370.45 871.66 369.88 789.16 463.06 714.25 568.27 865.54 566.93
00008078 00000002 546.78 109.15 407.24 590.25 671.56 372.31 863.56 373.21 782.73 469.40 705.18 573.25 853.11 573.67
00008079 00000003 536.46 112.03 406.61 589.98 657.18 375.38 846.86 371.53 766.52 467.68 692.32 573.22 841.69 570.21
00008080 DELETE   519.24 128.08 402.50 575.42 639.79 384.18 831.69 371.97 757.32 475.11 677.69 583.76 830.23 571.89
00008081 DELETE   506.11 131.13 402.23 578.49 625.54 386.49 817.30 375.76 743.92 476.61 670.92 589.33 820.94 577.47
00008082 00000006 489.49 137.79 408.57 577.67 611.19 391.32 801.65 379.83 731.86 478.79 659.08 590.76 809.34 578.15
00008083 00000007 476.01 141.97 409.19 579.22 600.65 394.84 790.98 384.29 722.03 479.68 650.17 592.81 798.98 582.12
00008084 00000008 467.69 145.89 405.63 577.23 592.42 396.91 778.77 385.22 711.28 480.51 642.17 596.48 787.21 585.71
00008085 00000009 460.03 149.95 404.61 577.45 585.27 400.22 769.03 386.11 704.24 482.35 637.24 599.26 780.52 587.05
00008086 00000010 449.64 150.57 407.34 569.84 575.13 404.08 764.06 384.56 696.71 485.74 629.11 604.34 772.37 585.80
00008087 00000011 445.44 144.78 408.47 579.53 571.90 403.92 757.18 383.91 692.67 484.33 627.06 605.35 765.64 586.66
00008088 00000012 444.03 142.01 412.05 581.47 570.73 403.94 756.86 382.94 691.60 481.37 627.09 603.82 767.87 584.04
00008089 00000013 443.58 141.25 413.75 575.93 572.42 415.67 758.63 393.05 693.32 485.89 621.99 593.08 777.51 571.92
00008090 00000014 448.48 147.35 409.46 567.81 574.56 417.01 758.95 392.97 693.38 488.31 621.02 589.86 777.72 568.22
00008091 00000015 458.02 136.39 407.48 579.86 583.24 412.26 767.06 387.16 697.17 480.64 629.88 586.70 783.05 566.33
00008092 00000016 460.93 148.41 408.84 572.14 586.69 405.55 766.58 387.31 702.78 476.65 639.29 591.23 783.58 575.71
00008093 00000017 464.54 144.03 407.58 578.00 588.91 400.36 770.81 382.44 707.54 476.40 646.55 595.39 787.00 579.85
00008094 00000018 465.22 138.83 408.84 585.16 589.26 398.84 774.22 380.00 710.90 475.91 648.63 598.11 791.90 581.40
00008095 00000019 465.70 140.38 407.50 588.79 591.26 396.41 774.35 378.07 713.54 471.36 648.61 598.33 790.17 582.12
00008096 00000020 464.63 140.19 411.18 592.91 592.22 394.21 772.64 375.73 713.77 469.92 650.66 596.99 789.05 580.59
00008097 00000021 463.15 135.98 411.98 595.10 592.54 392.93 771.33 374.66 714.19 468.09 650.69 594.70 787.57 578.53
00008098 00000022 462.38 139.15 412.50 589.55 592.27 391.84 769.56 372.76 713.82 466.62 651.83 592.60 786.24 575.97
00008099 00000023 461.04 140.46 415.06 584.10 592.45 389.49 768.71 371.95 712.68 461.31 653.42 587.93 783.54 572.27
00008100 00000024 462.51 134.74 419.83 586.93 594.71 385.98 773.15 360.99 717.20 456.49 659.12 584.31 795.01 561.65
00008101 00000025 467.22 125.39 420.31 591.02 596.35 384.53 776.70 356.05 719.90 453.29 659.04 579.81 801.82 553.66
00008102 00000026 469.19 114.58 420.24 581.70 599.02 385.33 783.36 357.15 720.30 457.80 658.17 572.16 805.46 547.54
00008103 00000027 485.94 124.47 418.74 572.99 610.09 381.00 788.57 348.83 729.03 449.18 674.45 570.73 816.94 540.33
00008104 00000028 496.46 118.63 416.73 579.47 618.08 380.08 797.55 348.08 736.86 446.30 680.65 569.71 825.43 539.42
00008105 00000029 513.62 109.98 417.35 580.13 635.40 367.97 813.29 343.97 744.33 440.30 696.30 561.88 837.45 542.23
00008106 00000030 527.75 110.60 414.31 573.83 649.05 366.29 823.51 342.88 755.67 439.82 708.10 558.20 842.22 538.87
00008107 00000031 543.75 104.92 411.01 578.60 657.09 366.08 838.52 343.28 765.56 446.01 717.53 558.47 858.03 538.78
00008108 00000032 554.98 105.88 418.85 584.85 671.91 366.00 855.97 341.66 783.61 440.10 728.31 560.37 873.94 539.33
00008109 00000033 570.41 107.96 418.16 573.94 685.44 366.60 871.63 340.77 797.66 438.99 737.37 553.45 891.57 530.76
00008110 00000034 584.18 109.52 414.99 566.02 699.14 368.95 887.20 340.97 812.88 436.47 750.80 551.41 906.64 526.77
00008111 00000035 600.54 105.63 414.07 565.10 716.62 360.11 899.55 336.42 825.20 430.79 773.40 546.67 919.41 526.86
00008112 00000036 606.46 108.17 415.22 565.33 724.35 359.53 905.35 337.84 832.11 434.02 779.88 550.61 917.95 532.79
00008113 00000037 612.26 105.82 415.10 562.45 730.64 359.21 911.89 339.40 838.06 432.87 787.24 549.85 922.67 533.53
00008114 00000038 616.17 108.31 415.66 561.91 734.57 361.49 914.24 342.09 841.99 433.68 790.75 550.36 925.99 534.09
00008115 00000039 619.36 108.23 414.34 561.91 736.71 362.06 917.56 342.84 844.72 434.52 794.24 552.84 929.35 536.49
00008116 00000040 618.55 109.89 411.79 565.33 737.79 363.69 918.24 346.79 845.00 442.38 793.83 556.32 926.40 542.00
00008117 00000041 614.26 110.67 411.96 569.37 736.21 362.60 912.14 350.35 840.45 443.06 790.02 558.83 915.46 548.82
00008118 00000042 613.38 124.79 411.31 588.77 734.16 362.48 907.90 351.21 839.97 436.69 787.75 578.01 897.35 568.12
00008119 00000043 611.81 122.57 402.68 606.05 730.13 361.39 907.62 353.79 837.86 441.77 779.63 586.17 893.20 579.80
00008120 00000044 609.50 115.28 401.84 613.55 729.27 357.82 909.86 355.11 836.67 443.60 771.52 583.37 887.23 581.27
00008121 00000045 604.62 89.30 401.65 629.76 729.29 352.65 904.91 351.97 832.68 438.49 764.57 573.26 888.18 574.44
00008122 00000046 599.14 98.52 402.55 613.13 723.89 351.56 900.97 351.23 827.62 436.21 755.90 567.88 881.84 569.73
00008123 00000047 597.55 106.45 397.39 603.24 718.49 359.80 895.93 365.31 819.63 452.68 747.43 571.39 876.05 577.91
00008124 00000048 587.70 124.59 400.33 601.02 709.10 382.63 887.88 377.72 809.51 485.54 740.44 594.28 876.24 590.27
00008125 00000049 581.45 140.60 404.34 589.53 700.74 391.45 886.06 393.05 807.70 491.65 731.63 598.51 874.13 598.18
00008126 00000050 574.60 143.11 407.35 593.04 695.15 397.02 881.08 402.04 799.97 496.55 723.86 599.22 871.26 601.52
00008127 00000051 571.46 150.61 405.51 582.72 688.00 399.60 878.16 404.52 793.85 495.94 714.44 596.80 871.73 599.01
00008128 00000052 565.16 152.51 406.45 581.13 681.84 400.19 873.71 403.46 790.18 496.27 709.20 595.48 869.98 596.33
00008129 00000053 557.12 151.58 407.43 582.88 677.00 398.49 868.92 399.67 788.30 494.42 706.98 594.69 866.16 593.92
00008130 00000054 552.26 154.08 405.41 576.78 673.69 396.11 864.60 397.45 785.53 492.35 703.64 593.42 860.39 593.21
00008131 00000055 548.62 157.40 405.38 576.12 669.06 393.90 862.11 393.05 783.24 489.16 702.62 595.21 860.66 593.43
00008132 00000056 546.85 156.42 405.10 575.80 667.12 397.72 861.49 395.59 783.10 492.84 702.39 597.92 861.47 595.12
00008133 00000057 547.80 161.49 403.65 573.81 668.24 400.38 860.57 396.65 785.09 494.91 705.86 601.82 861.91 597.80
00008134 00000058 547.37 163.48 405.72 572.56 668.32 404.83 860.31 397.89 786.89 500.56 710.20 606.30 865.53 599.42
00008135 00000059 548.91 166.34 403.79 568.65 670.27 407.97 861.67 401.00 788.36 503.61 713.18 606.74 867.34 599.88
00008136 00000060 549.93 166.03 403.52 571.87 672.70 408.97 864.25 401.62 792.05 504.97 716.73 608.17 869.46 600.87
00008137 00000061 551.66 166.12 403.77 570.37 674.61 409.22 866.25 399.60 795.15 504.73 721.02 608.66 873.24 599.42
00008138 00000062 552.04 163.86 403.98 572.64 675.84 408.39 866.91 398.97 796.29 504.21 721.83 608.24 873.55 599.11
00008139 00000063 554.42 163.53 403.24 573.67 677.64 408.55 867.69 397.93 797.78 503.47 724.75 608.62 875.33 598.40
00008140 00000064 555.67 162.79 403.54 575.50 677.64 406.05 868.15 395.30 798.33 501.29 725.02 607.72 877.09 597.32
00008141 00000065 556.60 158.34 403.96 577.66 677.79 404.77 867.61 392.87 798.39 499.08 726.11 606.57 877.28 594.99
00008142 00000066 560.77 153.06 403.61 583.19 679.47 401.61 869.68 390.37 798.99 493.41 726.13 603.07 879.77 591.65
00008143 00000067 564.68 146.37 403.47 588.11 681.29 404.74 874.06 393.58 798.47 488.55 726.22 602.52 882.62 590.96
00008144 00000068 570.84 146.72 402.09 587.12 683.38 404.31 875.33 392.86 798.46 488.13 728.08 602.36 886.19 590.92
00008145 00000069 573.43 146.13 403.70 584.79 685.09 401.55 876.47 389.62 799.70 486.78 730.26 601.14 888.37 588.71
00008146 00000070 575.83 144.55 405.10 583.42 684.36 397.16 876.22 382.96 798.55 487.08 730.76 599.80 889.25 585.22
00008147 00000071 576.48 134.17 407.92 592.10 685.01 393.81 878.91 378.43 800.21 483.91 731.29 596.76 893.49 581.12
00008148 00000072 578.95 125.92 407.81 597.42 688.79 388.81 880.36 372.13 803.18 478.40 733.54 590.81 895.39 573.93
00008149 00000073 583.13 120.94 404.80 593.77 690.90 383.56 884.92 365.57 806.13 472.81 735.28 587.28 897.55 569.16
00008150 00000074 585.54 115.40 402.92 597.19 693.70 379.31 888.04 360.76 809.11 468.33 736.95 584.12 899.75 565.79
00008151 00000075 588.59 119.86 399.78 589.87 692.97 377.03 889.57 357.57 807.22 464.47 733.45 580.69 900.32 562.01
00008152 00000076 587.19 116.72 401.04 592.51 692.48 373.15 888.27 355.87 804.97 459.87 730.83 575.42 899.18 558.41
00008153 00000077 586.88 115.40 399.23 593.95 692.07 369.46 888.27 354.18 802.79 456.54 726.48 571.53 897.24 556.22
00008154 00000078 585.43 113.51 400.30 594.59 691.03 366.96 887.09 352.94 800.65 453.66 724.13 568.89 894.53 554.66
00008155 00000079 584.28 113.22 400.23 593.53 688.74 365.23 884.59 351.61 797.42 450.81 722.32 567.34 892.23 553.21
00008156 00000080 582.62 112.60 400.69 592.27 686.50 363.90 882.63 350.29 795.28 450.34 720.84 565.68 891.28 551.31
00008157 00000081 580.91 112.87 400.09 589.25 686.38 361.22 883.01 350.01 795.57 450.15 719.49 563.31 889.59 550.95
00008158 00000082 580.47 109.34 400.12 590.56 690.10 360.08 886.99 352.37 796.57 449.81 718.12 559.96 886.08 552.68
00008159 00000083 577.94 108.97 401.72 582.34 688.39 358.56 886.84 350.68 796.91 446.77 719.53 555.39 888.15 547.61
00008160 00000084 577.25 108.00 401.75 580.74 688.55 357.46 887.43 349.89 797.44 443.91 719.19 552.31 889.09 544.73
00008161 00000085 574.95 107.46 403.67 578.29 686.61 355.70 886.42 348.84 796.62 440.85 718.45 549.55 888.16 542.55
00008162 00000086 574.18 107.32 403.43 575.59 684.73 353.66 885.97 348.20 795.29 438.86 717.45 547.68 887.77 541.72
00008163 00000087 573.26 105.00 403.55 578.19 684.42 350.89 885.58 346.99 794.47 435.17 715.14 545.54 885.94 540.95
00008164 00000088 573.65 104.27 403.37 579.09 684.71 348.94 886.41 345.47 793.61 431.20 714.20 544.11 885.61 539.86
00008165 00000089 575.76 102.51 402.20 578.99 685.67 346.67 887.06 343.34 793.80 428.43 714.30 542.35 885.94 538.36
00008166 00000090 578.23 102.49 399.98 577.78 686.82 344.66 887.40 341.18 793.35 425.41 713.48 540.32 885.19 536.54
00008167 00000091 579.21 102.90 400.34 574.62 687.34 341.70 885.95 337.65 793.02 421.25 714.36 537.13 884.76 533.08
00008168 00000092 579.16 99.62 401.21 575.05 686.97 338.40 886.54 334.28 793.17 416.49 713.10 534.20 885.47 530.17
00008169 00000093 578.69 99.09 401.74 574.04 686.39 336.08 886.83 331.68 793.39 412.96 712.65 532.54 885.88 528.27
00008170 00000094 577.49 94.62 403.19 579.91 685.22 336.85 886.90 332.51 793.31 412.83 711.57 532.79 886.74 528.29
00008171 00000095 577.84 94.46 403.05 579.91 685.35 337.43 886.73 332.57 793.07 413.22 712.05 533.14 886.70 528.21
00008172 00000096 575.43 95.32 405.16 579.91 682.11 337.28 884.02 332.64 789.69 413.77 709.91 532.95 885.21 527.96
00008173 00000097 574.77 95.02 406.09 581.70 682.23 338.89 883.40 334.62 789.30 416.88 709.12 533.85 884.42 529.19
00008174 00000098 574.78 96.22 405.28 580.56 681.01 339.78 883.44 335.83 788.14 420.05 708.43 535.74 884.00 531.40
00008175 00000099 574.08 99.61 405.37 578.42 680.15 340.68 882.43 336.85 786.73 421.81 707.38 536.81 882.29 532.60
00008176 00000100 573.49 99.38 405.31 578.78 679.82 340.82 881.97 337.31 786.62 421.55 707.76 537.70 881.78 533.82
00008177 00000101 573.74 99.28 403.65 578.63 678.92 341.49 881.51 337.98 785.50 422.67 707.16 539.03 880.63 535.09
00008178 00000102 571.99 97.13 405.12 582.44 678.30 342.49 881.12 339.72 785.47 423.88 707.39 540.19 880.18 536.73
00008179 00000103 571.80 100.45 404.87 579.18 678.38 343.58 880.05 340.68 784.89 426.76 707.98 540.77 879.57 537.28
00008180 00000104 571.29 100.81 404.23 579.55 679.19 345.47 881.56 343.05 787.02 429.27 708.93 543.01 880.09 539.91
00008181 00000105 570.35 101.31 403.36 583.47 678.38 348.72 878.69 345.76 785.05 434.36 708.89 545.33 878.42 541.60
00008182 00000106 567.87 102.89 405.84 586.47 678.16 352.69 876.45 348.60 784.94 439.06 709.30 547.39 877.71 542.79
00008183 00000107 566.72 107.22 404.04 584.05 676.63 355.77 874.23 352.61 782.44 443.21 708.09 550.05 874.39 546.26
00008184 00000108 564.65 105.74 404.42 591.56 674.62 358.31 871.76 355.42 779.97 449.12 706.37 554.58 871.67 551.05
00008185 00000109 560.52 106.51 407.24 597.07 672.60 363.71 867.79 357.58 779.36 454.23 705.22 559.51 869.92 553.46
00008186 00000110 560.61 123.53 407.69 591.71 669.83 371.61 863.63 363.20 780.25 458.86 709.33 571.23 872.16 561.67
00008187 00000111 560.35 114.40 404.32 602.76 672.96 380.44 866.76 367.75 779.93 468.21 705.04 573.71 870.63 562.44
00008188 00000112 559.92 115.32 403.88 599.20 672.81 384.15 863.94 368.38 778.97 469.53 707.05 576.43 867.45 562.86
00008189 00000113 560.94 119.84 403.49 590.13 673.70 385.68 865.87 372.88 779.51 470.86 707.38 574.52 868.09 563.11
00008190 00000114 559.20 118.71 404.51 586.29 673.02 383.55 866.02 371.35 782.45 472.41 709.80 573.56 868.17 562.75
00008191 00000115 558.86 124.49 406.45 586.19 673.75 385.12 866.60 373.24 784.17 474.09 711.89 578.58 868.36 568.08
00008192 00000116 560.59 142.04 407.51 582.87 671.03 390.67 862.84 380.08 783.30 474.76 716.33 589.86 871.87 578.64
00008193 00000117 561.10 152.88 408.02 577.05 671.26 398.13 862.01 388.64 782.55 487.09 716.97 593.92 875.82 583.73
00008194 00000118 561.27 165.10 410.71 573.28 674.57 409.25 863.62 399.55 785.07 501.30 719.02 601.95 878.01 591.81
00008195 00000119 565.14 171.11 407.06 573.78 677.49 421.92 865.06 409.81 787.85 515.10 722.41 611.81 879.40 600.06
00008196 00000120 565.82 174.15 407.38 577.30 680.72 427.56 867.29 412.60 791.83 524.14 725.15 620.40 878.25 606.72
00008197 00000121 565.83 173.13 406.63 580.09 680.71 427.02 867.88 411.78 792.37 525.10 726.85 623.79 877.97 610.03
00008198 00000122 564.27 170.66 406.72 571.21 679.56 426.21 867.65 415.20 790.56 518.40 724.37 616.18 876.68 605.63
00008199 DELETE   561.31 167.38 411.20 576.40 676.57 431.58 867.41 417.93 787.52 521.01 722.06 620.15 877.24 606.95
00008200 DELETE   561.95 174.01 407.90 575.64 677.60 444.87 866.06 424.90 789.17 537.96 727.99 635.86 877.26 617.86
00008201 DELETE   561.59 178.89 407.32 569.54 677.61 447.50 866.09 427.88 790.16 542.82 730.68 638.47 878.32 620.63
00008202 00000126 560.58 177.28 411.04 566.61 677.13 433.99 868.66 419.18 790.10 528.92 727.85 626.94 877.67 613.25
00008203 00000127 564.65 170.73 412.58 567.05 677.05 425.24 869.53 411.32 789.54 519.31 727.07 618.70 880.84 605.44
00008204 00000128 570.27 165.91 409.45 564.50 680.06 419.52 873.57 406.41 792.58 512.75 727.09 612.58 884.81 599.72
00008205 00000129 574.22 161.42 408.45 566.15 682.54 413.23 876.25 399.37 795.36 510.14 729.00 610.68 887.03 596.97
00008206 00000130 576.08 154.86 408.38 569.92 685.75 405.66 880.31 393.11 799.74 506.12 732.94 607.85 888.14 594.80
00008207 00000131 577.54 150.29 406.55 575.24 688.27 400.51 880.48 389.01 802.25 501.21 734.14 604.97 886.10 592.91
00008208 00000132 576.70 151.58 406.23 574.11 690.17 399.41 884.33 391.06 805.88 499.05 735.92 608.45 885.06 599.20
00008209 00000133 575.76 152.45 404.93 579.57 693.96 406.74 887.45 402.66 809.18 511.08 734.60 613.03 885.65 607.48
00008210 00000134 575.56 167.27 401.39 572.06 699.47 413.68 893.05 410.09 817.07 520.96 737.99 621.97 886.34 617.80
00008211 00000135 577.14 172.75 395.11 574.55 700.25 424.14 890.82 416.16 816.79 530.68 741.28 633.63 883.87 626.17
00008212 00000136 567.71 172.26 399.43 586.89 695.47 425.86 886.28 417.48 815.51 535.46 735.06 636.66 880.55 628.74
00008213 00000137 558.13 171.93 402.30 589.89 683.89 421.12 877.04 413.82 806.45 529.41 724.44 631.95 875.63 624.59
00008214 00000138 550.59 166.27 406.10 588.26 676.26 416.49 866.09 411.80 795.49 518.50 717.88 622.38 866.33 617.19
00008215 00000139 546.16 169.75 404.91 577.19 668.18 416.14 855.25 409.29 785.73 516.97 714.59 620.51 859.35 613.89
00008216 00000140 540.98 172.34 405.49 571.35 665.00 415.57 848.20 408.11 777.62 518.84 711.87 618.78 849.83 612.45
00008217 00000141 537.12 171.12 407.09 570.10 662.05 414.13 843.66 406.65 773.12 517.19 706.70 614.75 846.29 608.47
00008218 00000142 537.24 173.68 407.34 562.88 660.76 415.27 842.46 406.45 770.82 516.42 706.32 613.25 846.09 605.82
00008219 00000143 538.27 180.04 407.96 556.76 662.26 419.72 848.52 410.67 774.10 521.32 710.50 617.39 851.43 609.73
00008220 00000144 542.89 185.12 407.15 555.23 669.44 427.32 857.58 415.61 784.35 527.79 719.19 623.44 860.33 613.67
00008221 00000145 546.72 186.73 408.52 561.70 678.13 436.73 871.94 421.61 800.98 541.76 728.61 636.65 873.13 623.48
00008222 00000146 550.15 187.40 409.89 566.88 685.21 439.07 878.17 423.09 808.59 548.84 735.19 642.14 878.40 628.10
CROP_BBOX: 255 0 1221 899
