Video ID: 	JTEtSMYcOEw
H: 	1080
W: 	1920
FPS: 	59.94005994005994

FRAME INDEX X0 Y0 W H [Landmarks (5 Points)]

00017220 00000000 793.62 147.92 416.08 610.54 898.61 377.63 1084.43 387.08 979.86 500.42 909.79 591.71 1066.95 598.34
00017221 DELETE   796.83 149.49 412.66 609.48 902.42 376.47 1086.17 385.02 982.54 500.42 913.05 592.31 1068.00 598.12
00017222 00000002 797.79 147.62 412.13 615.18 906.85 375.38 1088.18 383.65 986.88 500.11 917.32 593.54 1069.79 598.87
00017223 00000003 799.51 145.73 410.57 619.89 908.32 375.60 1088.74 382.68 989.11 498.58 919.55 595.56 1070.83 599.90
00017224 DELETE   800.38 145.87 409.43 619.00 909.16 375.51 1088.92 381.81 989.80 499.75 921.50 596.96 1070.58 600.68
00017225 00000005 800.50 143.38 410.48 622.67 910.02 376.07 1090.16 382.62 992.21 499.07 922.06 596.80 1071.57 600.68
00017226 00000006 799.61 143.98 411.58 622.55 909.89 375.15 1090.84 381.44 992.66 499.25 922.47 596.52 1072.99 599.97
00017227 00000007 799.74 144.12 411.81 622.98 910.22 375.45 1090.97 380.98 993.40 499.06 923.32 597.10 1074.11 599.87
00017228 00000008 799.89 143.13 412.31 625.14 911.12 375.13 1091.34 381.47 994.41 500.29 923.46 596.43 1074.65 599.86
00017229 00000009 800.77 141.95 412.32 627.10 911.11 376.24 1092.60 381.72 994.94 500.57 923.93 597.27 1076.64 600.01
00017230 00000010 800.80 141.70 413.58 627.55 911.08 375.98 1093.42 382.04 995.36 500.78 923.85 597.24 1077.08 600.43
00017231 00000011 801.02 141.88 413.79 626.83 911.05 376.65 1094.57 382.28 995.88 502.13 924.28 597.57 1078.58 600.44
00017232 00000012 801.42 141.24 414.22 627.94 911.52 376.92 1095.44 382.66 996.43 502.98 924.79 598.56 1079.04 601.48
00017233 00000013 802.61 141.44 413.97 627.75 912.96 376.82 1096.04 383.01 996.87 502.66 925.83 598.81 1078.54 602.16
00017234 00000014 802.50 141.87 414.45 628.22 914.55 376.35 1097.10 382.84 998.97 502.85 927.85 599.95 1077.79 603.50
00017235 00000015 806.74 140.97 419.11 635.15 911.88 377.77 1097.75 382.92 998.14 502.84 931.07 598.79 1074.55 602.99
00017236 00000016 806.45 140.47 419.34 637.56 912.98 377.99 1097.98 383.27 999.82 503.22 932.27 599.56 1074.61 603.87
00017237 00000017 806.21 140.14 420.23 638.15 912.64 377.89 1098.21 383.17 999.62 503.23 932.47 599.70 1074.51 604.02
00017238 00000018 806.79 139.61 419.93 638.14 913.09 377.32 1099.23 383.29 999.72 503.36 932.18 598.95 1075.23 603.87
00017239 00000019 807.07 136.62 419.80 640.72 913.46 377.38 1099.81 384.26 1000.22 503.62 931.46 598.02 1075.94 603.65
00017240 00000020 807.12 135.70 420.34 640.54 912.74 376.77 1099.59 383.84 998.81 504.02 930.16 597.41 1076.08 603.18
00017241 00000021 806.65 135.23 421.41 639.00 911.96 376.28 1099.76 383.53 998.39 504.10 930.01 597.00 1077.46 602.76
00017242 00000022 806.91 134.24 421.51 637.38 911.30 376.42 1100.58 384.04 998.87 505.50 930.17 597.65 1078.20 603.61
00017243 00000023 803.83 139.10 416.80 626.88 912.81 377.86 1101.00 383.62 998.50 505.95 926.76 599.94 1082.99 603.06
00017244 DELETE   803.09 140.04 416.53 624.76 910.70 380.33 1100.62 384.36 997.92 507.75 926.88 601.90 1085.02 603.49
00017245 00000025 802.21 140.70 417.11 624.03 909.29 381.39 1100.64 384.80 996.85 508.44 925.42 602.15 1086.84 603.26
00017246 00000026 802.02 143.53 416.92 621.60 908.72 383.05 1099.79 385.77 996.49 510.51 925.80 603.01 1088.26 603.35
00017247 00000027 801.52 144.18 416.09 622.56 907.88 384.08 1099.94 386.15 996.21 512.53 924.81 604.70 1089.33 604.56
00017248 00000028 800.13 145.58 416.56 623.46 907.07 386.57 1099.58 387.56 996.16 513.73 925.12 606.63 1091.40 605.49
00017249 00000029 800.62 147.89 415.06 626.54 908.18 387.54 1100.19 388.05 997.46 514.14 925.89 607.80 1093.58 606.23
00017250 00000030 800.75 149.91 414.44 634.29 908.74 387.25 1101.48 388.13 997.70 515.10 924.18 610.81 1095.28 609.48
00017251 00000031 800.71 149.02 414.52 642.51 908.26 387.73 1101.72 389.30 996.66 517.07 923.17 613.85 1096.24 612.94
00017252 00000032 804.76 148.63 415.23 645.64 905.96 389.91 1106.56 387.82 999.68 516.76 924.81 615.62 1095.84 611.44
00017253 00000033 804.98 150.02 414.50 647.14 906.26 390.36 1106.89 388.35 999.93 517.68 924.72 618.31 1095.46 614.31
00017254 00000034 805.18 151.16 415.09 647.25 906.24 391.04 1107.22 389.04 999.59 517.82 924.90 619.33 1095.34 615.32
00017255 00000035 804.86 152.64 416.75 646.28 905.82 392.02 1107.34 389.07 999.93 517.92 926.05 620.51 1095.84 615.68
00017256 00000036 803.70 150.60 419.36 648.89 907.34 391.11 1107.08 388.67 1001.50 517.98 927.35 619.31 1094.67 614.83
00017257 00000037 802.53 148.38 420.55 645.12 904.97 392.14 1106.06 388.15 1000.03 516.87 927.63 619.27 1092.77 613.31
00017258 00000038 802.21 150.38 420.83 644.64 903.74 392.24 1106.26 389.05 999.98 518.12 925.06 616.86 1095.65 611.48
00017259 00000039 801.39 150.47 420.91 644.62 902.93 392.01 1105.30 388.73 998.68 518.09 924.64 616.92 1095.00 611.39
00017260 00000040 800.91 151.99 421.14 643.11 902.53 391.67 1104.27 388.23 997.33 517.06 925.59 619.39 1089.70 613.84
00017261 00000041 799.20 153.90 422.86 640.74 902.77 391.65 1102.42 387.76 996.90 517.29 927.63 620.68 1085.40 614.60
00017262 00000042 797.98 156.38 423.00 638.35 901.84 392.08 1100.86 387.80 995.76 517.45 927.92 621.50 1083.69 615.02
00017263 00000043 796.13 156.62 424.12 639.20 901.09 392.94 1100.01 388.19 995.49 516.81 928.03 622.43 1083.21 615.49
00017264 00000044 794.53 156.91 424.17 639.00 899.95 393.29 1098.49 388.81 994.50 517.29 927.06 622.55 1081.90 615.81
00017265 00000045 792.85 159.88 423.94 636.22 899.11 393.63 1097.08 388.82 993.80 518.01 926.50 622.71 1080.85 615.66
00017266 00000046 792.05 158.96 423.20 635.62 897.62 393.69 1095.24 389.21 992.04 519.18 925.18 622.48 1078.78 615.67
00017267 00000047 789.40 158.58 424.62 637.14 895.91 393.13 1093.24 388.36 990.15 520.93 924.54 622.71 1078.46 615.51
00017268 00000048 786.86 155.67 425.20 639.20 891.86 393.45 1089.96 387.92 986.47 521.09 922.17 623.00 1076.36 614.96
00017269 00000049 779.18 151.60 427.82 646.43 888.69 387.40 1080.92 388.16 977.20 520.40 912.59 624.41 1073.31 622.06
00017270 00000050 774.78 151.98 428.63 644.23 880.76 387.92 1074.33 387.42 970.65 518.54 903.40 621.99 1068.36 618.90
00017271 00000051 770.71 153.87 428.06 640.51 874.09 389.05 1066.89 386.38 963.07 519.86 896.91 622.31 1061.61 617.88
00017272 00000052 766.60 150.78 426.14 643.67 866.44 390.34 1061.02 386.42 956.66 521.30 888.12 623.30 1056.15 618.70
00017273 DELETE   763.53 148.79 423.72 646.46 861.57 390.22 1057.04 385.53 951.90 520.81 883.25 623.60 1050.22 618.78
00017274 00000054 762.44 153.28 422.51 647.78 862.47 391.52 1055.66 388.53 954.81 519.36 888.83 621.30 1039.01 617.59
00017275 00000055 757.77 152.60 420.61 651.24 859.63 392.70 1049.37 390.50 951.53 521.42 887.43 622.83 1032.12 620.04
00017276 00000056 754.71 155.08 418.35 653.77 857.69 393.90 1046.84 392.08 949.90 522.94 885.20 624.98 1029.51 622.62
00017277 00000057 751.91 157.97 417.41 654.83 855.89 396.39 1044.33 396.00 947.99 525.55 881.84 626.47 1026.09 625.39
00017278 00000058 749.79 159.26 417.67 656.59 851.88 399.10 1041.31 397.05 944.84 527.01 880.03 630.09 1025.46 627.88
00017279 00000059 748.32 158.38 419.40 661.86 850.05 400.84 1040.74 397.43 943.46 528.16 878.67 633.86 1025.07 630.50
00017280 00000060 742.69 152.90 429.73 673.96 846.79 400.04 1041.47 396.39 941.60 530.30 876.12 636.88 1025.10 633.24
00017281 DELETE   733.27 140.73 444.81 697.05 840.33 396.12 1043.26 391.78 938.05 531.10 871.72 643.49 1025.79 639.12
00017282 DELETE   721.41 126.74 471.64 722.95 835.43 399.57 1048.10 392.52 934.03 541.05 869.02 656.85 1034.71 649.27
00017283 00000063 716.94 121.18 483.28 733.12 833.74 396.06 1051.21 390.44 933.35 541.62 864.52 658.21 1035.82 651.91
00017284 00000064 709.76 108.77 493.31 744.42 825.35 386.87 1048.75 384.76 920.77 538.27 854.06 657.47 1035.11 656.33
00017285 00000065 708.49 109.45 493.57 743.48 823.80 388.57 1048.81 385.85 921.05 539.79 852.40 657.67 1036.04 655.99
00017286 00000066 707.66 111.12 493.61 740.51 822.73 389.77 1048.57 387.67 920.84 541.87 851.14 657.64 1035.70 656.45
00017287 00000067 707.09 111.62 492.78 739.47 822.23 390.51 1047.36 388.82 920.25 542.37 850.07 656.42 1034.98 655.53
00017288 00000068 706.39 112.61 492.72 737.98 821.01 391.82 1046.86 390.17 919.82 544.56 848.99 656.28 1035.79 655.34
00017289 00000069 713.18 123.29 485.95 728.64 827.64 401.69 1051.47 394.18 933.83 550.63 858.21 659.45 1039.57 651.63
00017290 00000070 707.40 114.16 491.72 737.36 820.66 394.19 1047.23 392.12 919.85 548.61 848.28 656.94 1037.01 655.64
00017291 00000071 713.08 124.51 487.08 729.80 828.43 403.55 1054.20 395.10 936.13 552.23 859.51 661.52 1041.27 652.95
00017292 00000072 713.72 125.86 487.90 731.86 829.93 404.97 1055.73 395.66 938.17 552.45 861.75 663.49 1043.05 654.15
00017293 00000073 714.09 123.45 489.03 738.34 832.69 406.59 1055.96 396.78 940.12 552.52 865.87 665.22 1043.53 655.57
00017294 00000074 715.13 123.35 490.68 741.07 834.84 407.14 1056.95 397.21 942.44 552.50 869.31 666.56 1045.15 656.80
00017295 00000075 717.88 125.49 489.32 740.04 836.60 406.60 1058.23 396.15 944.60 552.83 871.90 668.09 1047.41 657.73
00017296 00000076 719.70 124.48 488.23 743.28 837.93 405.77 1059.82 395.59 945.42 551.95 871.78 668.27 1048.38 658.06
00017297 00000077 721.59 123.59 486.29 745.30 838.17 405.00 1059.79 394.28 944.81 550.93 871.66 668.64 1049.02 657.88
00017298 00000078 721.37 119.52 482.84 749.59 837.58 397.68 1057.55 389.04 945.17 542.76 868.95 660.63 1046.91 651.60
00017299 00000079 722.28 119.55 483.38 750.22 838.85 398.01 1057.77 388.65 946.07 542.78 869.87 659.59 1048.74 649.72
00017300 00000080 723.60 120.46 482.76 748.15 839.98 397.02 1058.67 388.06 947.03 542.24 869.86 658.51 1049.08 648.99
00017301 00000081 726.49 120.23 481.32 743.36 841.97 397.25 1059.80 387.27 948.70 541.63 873.23 656.75 1051.55 646.30
00017302 00000082 728.42 118.83 479.49 738.10 842.02 397.78 1061.19 387.46 949.80 541.80 875.52 658.75 1051.67 648.21
00017303 00000083 731.92 117.86 478.16 734.53 843.78 396.98 1063.14 387.86 950.61 541.31 875.53 656.31 1051.91 646.80
00017304 00000084 733.73 114.57 477.50 734.88 845.15 396.51 1063.89 386.32 952.12 539.92 877.08 654.64 1055.11 644.12
00017305 00000085 735.98 113.67 476.88 734.05 846.42 395.60 1064.87 384.92 954.03 540.02 878.08 653.72 1057.65 642.75
00017306 00000086 738.79 115.21 475.39 730.71 848.29 395.14 1066.84 383.72 956.45 539.14 880.10 652.47 1061.10 640.60
00017307 00000087 739.84 113.96 476.13 731.77 852.31 391.23 1069.48 381.82 958.55 536.59 884.19 653.86 1056.85 644.00
00017308 00000088 740.22 116.89 477.20 727.55 854.66 390.80 1072.48 380.47 962.65 534.97 888.86 652.87 1059.12 642.17
00017309 00000089 741.38 117.12 477.09 726.48 856.16 390.37 1074.58 379.61 965.12 534.34 890.93 651.93 1062.14 640.66
00017310 00000090 742.33 115.13 476.75 728.72 856.23 389.68 1076.00 378.68 966.17 533.44 891.99 652.47 1065.62 640.88
00017311 00000091 743.61 115.68 475.48 727.20 858.07 389.30 1076.80 378.84 967.30 532.46 892.39 650.95 1066.96 639.70
00017312 00000092 746.20 118.36 474.65 723.54 859.41 387.76 1079.13 377.39 968.62 531.07 893.23 650.70 1068.48 639.59
00017313 00000093 747.42 117.27 474.95 724.67 861.31 386.68 1080.75 376.16 970.14 530.43 895.04 650.03 1071.06 638.59
00017314 00000094 748.45 115.74 473.91 726.71 862.27 386.82 1081.64 375.53 971.19 529.63 895.48 649.81 1073.66 637.57
00017315 00000095 748.82 114.81 474.87 731.26 863.44 386.39 1083.09 374.90 971.95 529.56 896.16 651.17 1076.40 638.57
00017316 00000096 748.36 114.20 476.07 732.71 864.15 385.56 1084.85 375.31 973.92 530.53 896.07 650.52 1078.99 638.74
00017317 00000097 747.81 116.51 477.51 735.95 867.23 384.59 1087.28 375.55 976.28 529.57 896.69 649.82 1080.76 638.83
00017318 00000098 748.04 115.59 477.84 741.72 869.58 382.80 1087.81 375.56 976.30 529.15 896.36 649.28 1081.11 639.64
00017319 00000099 754.54 121.73 476.91 737.65 872.46 377.81 1088.05 379.05 975.66 531.62 900.35 644.88 1080.61 642.91
00017320 00000100 753.73 110.80 475.74 746.27 868.05 373.14 1078.14 373.84 968.44 531.66 893.22 640.97 1079.42 640.98
00017321 00000101 754.14 109.02 475.32 747.45 868.88 372.09 1080.34 372.90 970.22 530.81 893.01 640.30 1080.76 640.41
00017322 00000102 753.63 108.15 476.85 747.69 869.70 370.98 1081.44 372.35 971.51 530.97 893.76 639.39 1081.80 639.94
00017323 00000103 754.58 107.07 476.41 747.07 870.19 370.97 1083.31 371.87 972.81 529.98 893.43 638.62 1082.98 638.82
00017324 00000104 755.66 106.63 474.76 743.02 870.84 370.52 1083.84 371.22 973.79 529.40 895.05 637.12 1083.49 637.18
00017325 00000105 756.38 106.71 474.86 738.15 870.80 370.55 1084.48 370.92 973.84 528.91 896.51 636.00 1084.42 635.69
00017326 00000106 756.45 106.00 475.08 732.86 870.28 370.33 1084.64 370.52 973.20 528.08 897.51 634.03 1084.64 633.47
00017327 00000107 757.64 113.12 472.44 718.38 871.16 373.38 1092.75 369.41 979.50 521.07 897.94 636.57 1087.87 631.28
00017328 00000108 756.71 113.38 474.43 711.61 871.04 374.03 1093.09 369.57 979.54 520.47 898.69 634.22 1087.76 628.73
00017329 00000109 757.48 114.43 472.86 704.80 869.86 373.80 1092.75 369.31 978.43 518.97 897.26 631.54 1087.29 626.05
00017330 00000110 758.68 115.45 471.82 701.18 869.22 374.09 1093.13 369.05 978.57 519.38 896.33 630.78 1088.08 624.86
00017331 00000111 759.48 115.44 472.30 700.11 870.22 373.48 1095.15 369.08 979.76 519.02 896.45 628.71 1090.16 623.36
00017332 00000112 759.93 116.62 472.47 698.77 870.94 373.84 1095.51 368.80 980.63 518.79 898.23 629.28 1091.07 623.34
00017333 00000113 761.54 114.98 471.66 700.60 873.61 374.26 1096.51 369.73 982.06 518.88 901.47 630.12 1091.18 624.44
00017334 00000114 762.88 114.96 471.23 702.59 875.26 375.29 1097.01 370.45 983.44 518.79 902.75 630.45 1092.93 624.46
00017335 00000115 763.83 113.90 470.97 704.01 877.73 375.05 1097.66 370.63 984.13 519.76 905.16 630.56 1093.02 624.85
00017336 00000116 765.45 115.52 471.99 705.61 881.49 374.91 1099.56 370.76 985.97 520.68 909.37 632.69 1094.83 626.91
00017337 00000117 769.10 105.57 470.01 714.44 879.89 373.97 1092.39 371.78 982.04 526.76 912.08 629.66 1093.07 627.44
00017338 00000118 772.23 102.92 469.14 716.82 882.61 376.44 1096.65 374.38 985.55 528.24 912.92 630.55 1095.67 628.71
00017339 00000119 774.78 104.78 468.04 714.80 885.16 378.97 1099.90 376.58 989.21 529.22 914.03 631.37 1098.22 629.30
00017340 00000120 779.72 104.48 466.81 715.89 888.48 380.54 1103.32 378.13 991.31 530.30 915.82 632.57 1100.02 630.67
CROP_BBOX: 440 0 1514 1023
