Video ID: 	DhSPylnsadY
H: 	1080
W: 	1920
FPS: 	29.97002997002997

FRAME INDEX X0 Y0 W H [Landmarks (5 Points)]

00015945 00000000 612.92 276.32 405.37 546.43 645.47 458.36 748.03 437.61 618.26 566.99 694.83 672.18 773.54 651.98
00015946 DELETE   606.13 266.37 410.25 552.24 637.67 460.46 745.36 437.23 616.66 563.38 686.93 669.80 769.09 649.09
00015947 00000002 606.13 262.52 405.33 548.94 637.23 454.93 745.10 432.64 619.48 556.53 685.99 664.06 770.02 644.94
00015948 00000003 607.44 261.46 409.75 548.64 641.72 445.46 753.11 426.97 624.72 549.09 687.19 654.64 776.01 638.36
00015949 DELETE   607.46 259.73 413.75 548.25 644.35 441.80 754.19 421.56 626.35 541.65 687.92 649.94 776.48 632.42
00015950 00000005 610.58 255.56 406.84 553.19 648.37 436.22 744.95 421.19 631.76 542.24 697.60 653.67 774.27 636.55
00015951 00000006 610.16 245.09 406.48 557.48 645.37 432.80 745.39 414.58 634.27 536.57 695.11 648.37 772.72 629.33
00015952 00000007 607.85 240.96 410.22 554.22 643.57 424.69 741.28 405.79 630.64 528.93 695.49 641.84 770.47 622.16
00015953 00000008 607.12 231.98 410.50 550.44 640.81 422.45 737.26 402.01 628.40 525.34 691.94 637.51 765.42 616.86
00015954 00000009 608.28 230.46 401.04 542.30 639.77 425.73 731.64 398.23 626.66 520.23 692.79 634.67 760.78 608.07
00015955 00000010 612.70 237.59 393.33 531.81 641.23 418.15 729.35 391.91 605.99 512.47 682.91 624.43 763.56 600.39
00015956 00000011 611.91 236.71 386.70 524.17 637.84 417.17 726.01 388.44 605.43 509.61 679.75 621.96 759.63 596.76
00015957 00000012 605.34 229.39 389.36 528.76 634.95 416.66 717.90 387.98 598.62 510.55 677.10 621.18 752.20 596.25
00015958 00000013 596.81 217.17 393.25 547.76 633.11 411.50 710.61 387.89 589.28 508.25 674.48 622.39 746.31 601.39
00015959 00000014 591.86 225.81 397.78 545.88 632.28 411.25 699.89 389.19 580.73 509.48 675.01 627.20 740.54 607.25
00015960 00000015 585.57 228.41 401.72 543.67 630.39 407.42 694.29 389.67 579.27 509.32 672.10 626.05 732.18 609.75
00015961 00000016 578.82 236.18 401.02 530.87 622.92 408.03 686.08 390.52 579.67 507.33 664.28 625.38 719.26 609.38
00015962 00000017 576.35 233.82 400.91 530.57 616.87 409.59 682.90 389.04 576.48 506.03 659.11 626.42 714.54 608.06
00015963 00000018 576.16 245.73 398.19 518.73 614.35 410.52 682.68 389.40 579.05 508.30 659.87 627.95 716.77 608.73
00015964 00000019 573.61 247.46 399.70 520.22 611.78 409.98 683.51 388.81 580.35 509.13 660.67 629.57 720.81 610.14
00015965 00000020 570.75 253.43 402.14 521.53 611.43 407.57 682.23 386.49 582.76 508.30 662.60 630.16 720.86 610.50
00015966 00000021 569.02 242.14 399.88 535.19 607.42 410.36 679.87 385.05 577.84 505.66 660.86 632.59 720.39 609.67
00015967 00000022 571.13 237.99 395.56 528.35 605.94 411.39 681.69 382.08 578.07 501.63 657.11 628.81 720.01 602.60
00015968 00000023 566.55 205.21 395.83 546.51 600.85 421.97 681.43 384.29 583.72 508.54 653.45 622.71 713.10 589.76
00015969 00000024 567.79 196.84 390.91 549.84 604.38 413.53 680.75 381.04 583.05 505.46 654.81 617.08 713.84 588.84
00015970 00000025 562.15 192.97 393.32 547.87 599.87 410.92 675.81 379.42 576.12 501.70 649.62 610.48 709.78 582.25
00015971 00000026 564.62 199.53 386.14 535.74 591.89 407.96 678.09 373.50 578.91 494.09 643.96 609.07 712.73 578.12
00015972 00000027 547.32 194.53 394.20 533.24 590.45 389.81 670.02 375.91 560.69 497.30 641.76 592.38 697.40 578.44
00015973 00000028 550.16 187.23 378.54 539.92 596.79 386.31 661.73 375.05 557.79 493.39 637.41 589.06 684.14 577.66
00015974 00000029 552.51 188.35 371.05 537.43 603.52 384.17 657.32 373.34 558.83 491.16 634.56 588.85 674.41 578.09
00015975 00000030 556.28 190.77 368.94 535.08 613.15 376.24 658.09 368.79 562.18 485.58 638.54 584.79 673.41 576.34
00015976 00000031 557.88 184.99 372.53 540.24 617.10 372.68 665.42 366.14 567.78 482.04 642.08 583.97 678.01 576.27
00015977 00000032 564.77 188.16 375.27 537.48 625.38 370.54 657.79 360.14 573.94 473.14 652.59 581.86 680.80 569.48
00015978 00000033 566.05 182.77 376.02 543.07 629.22 370.99 659.04 359.65 573.75 469.97 654.08 580.00 681.08 567.11
00015979 00000034 567.46 188.93 371.88 534.43 629.97 371.71 659.04 356.90 576.11 463.35 652.33 574.98 681.91 558.52
00015980 00000035 570.09 180.14 366.52 534.08 629.07 371.71 658.28 357.62 576.58 461.36 651.04 568.36 682.63 553.05
00015981 00000036 573.86 184.75 362.61 528.73 631.00 367.81 656.60 354.56 577.83 458.62 653.37 566.44 684.20 551.11
00015982 00000037 577.38 189.52 361.20 528.67 633.61 365.67 659.97 351.51 580.00 457.08 655.76 568.57 688.96 552.29
00015983 00000038 578.84 197.70 360.68 523.40 636.41 363.57 661.19 348.79 580.13 454.43 658.24 570.51 691.92 553.41
00015984 00000039 580.80 191.11 368.01 533.55 641.49 359.71 661.53 349.60 575.03 453.73 664.92 570.12 697.89 557.28
00015985 00000040 585.59 181.73 370.12 537.02 644.75 359.67 672.72 350.96 575.40 451.18 665.81 566.34 702.98 556.36
00015986 00000041 592.78 184.58 365.69 524.63 646.31 353.37 678.75 345.55 581.89 446.66 665.61 559.37 703.54 550.94
00015987 00000042 599.47 172.09 365.59 536.67 650.06 350.91 682.08 343.22 586.21 443.63 667.18 557.40 702.20 550.77
00015988 00000043 604.33 176.31 368.21 529.25 655.67 350.06 686.59 343.27 591.67 444.98 672.73 557.41 706.93 551.86
00015989 00000044 605.64 172.45 366.36 539.10 659.38 350.90 684.57 343.87 590.92 447.30 677.34 561.45 708.08 555.97
00015990 00000045 606.79 167.76 372.86 550.30 661.23 354.73 689.00 347.36 589.41 451.66 677.19 567.12 708.25 561.45
00015991 00000046 601.61 176.04 377.34 548.53 658.06 363.96 687.28 352.97 588.62 458.36 676.11 574.95 707.14 566.32
00015992 00000047 599.39 185.02 379.51 550.02 657.22 367.94 689.18 355.59 587.42 467.53 678.06 585.07 711.49 574.19
00015993 00000048 590.85 199.12 383.62 539.06 654.65 371.62 688.00 362.74 588.38 475.23 678.08 587.85 715.27 578.39
00015994 00000049 580.90 184.42 385.33 555.03 648.17 373.45 678.33 367.74 584.96 482.19 675.35 591.18 709.53 584.47
00015995 00000050 572.42 181.92 384.86 554.39 640.73 377.61 673.13 372.40 580.65 484.23 668.94 590.44 702.72 583.42
00015996 00000051 563.05 182.68 381.93 552.40 625.81 382.95 665.68 374.34 572.39 488.38 657.55 591.73 690.66 581.22
00015997 00000052 557.80 184.72 374.51 550.73 614.76 383.14 665.04 378.65 562.49 499.49 651.80 592.89 688.76 585.32
00015998 00000053 554.24 187.42 377.02 554.05 613.83 393.40 663.35 383.51 560.12 503.51 647.18 602.82 684.00 590.47
00015999 DELETE   546.86 216.68 376.64 534.37 603.16 404.17 649.89 392.93 555.62 514.24 648.78 608.65 684.75 594.80
00016000 00000055 542.50 215.13 379.26 544.50 602.56 404.58 645.82 395.27 553.61 519.69 650.26 615.79 684.06 602.84
00016001 00000056 541.22 208.41 375.21 553.64 595.54 413.87 644.30 401.50 553.70 524.36 648.89 620.80 684.95 605.75
00016002 00000057 541.01 209.75 370.12 551.73 592.79 418.57 642.51 405.22 552.69 525.89 646.78 621.22 684.54 605.37
00016003 00000058 543.02 209.74 369.21 551.73 594.79 420.01 644.19 406.72 554.22 525.63 646.45 621.37 683.85 605.53
00016004 00000059 546.00 208.68 367.17 556.16 601.04 415.49 644.18 402.80 555.39 525.67 653.44 622.42 687.54 606.30
00016005 00000060 545.39 207.75 373.43 555.07 605.08 409.03 646.84 398.84 554.35 521.64 652.92 617.63 687.14 603.23
00016006 00000061 547.01 213.49 375.05 547.97 607.12 410.09 649.22 396.98 554.77 519.62 655.24 617.35 690.49 600.42
00016007 00000062 550.31 214.92 373.34 544.28 606.28 411.08 651.32 397.19 559.18 520.49 655.96 616.97 694.16 600.12
00016008 00000063 553.48 213.52 378.51 544.57 612.81 411.12 658.34 395.83 563.07 518.25 660.00 617.16 695.54 598.89
00016009 00000064 558.18 221.66 374.81 536.62 613.61 410.67 665.13 396.15 570.78 518.36 662.47 616.81 700.55 599.32
00016010 00000065 556.37 214.50 391.05 557.99 617.50 407.82 651.95 397.67 573.70 517.33 664.79 621.07 691.64 608.63
00016011 00000066 566.19 209.70 388.57 562.06 624.09 416.54 657.87 402.00 580.61 521.33 668.09 625.85 695.06 611.29
00016012 00000067 575.80 217.83 380.92 551.61 625.63 422.01 668.28 403.41 586.28 526.36 670.18 628.81 703.37 611.11
00016013 00000068 587.39 208.57 375.74 555.86 631.50 423.10 677.11 403.51 592.51 527.04 675.31 627.83 711.92 610.50
00016014 00000069 591.22 212.25 375.81 552.81 634.07 423.15 683.31 404.66 594.42 529.66 679.99 628.75 719.26 611.82
00016015 00000070 594.37 214.80 373.94 549.09 637.04 421.18 684.79 403.12 595.90 527.01 682.62 628.02 721.36 611.20
00016016 00000071 597.11 212.61 373.35 550.52 641.90 416.32 685.83 400.83 595.08 525.36 686.44 625.80 724.24 610.61
00016017 00000072 597.78 207.75 373.41 553.42 642.96 417.63 685.14 401.81 597.56 525.94 690.09 624.72 725.50 609.45
00016018 00000073 598.11 219.54 377.16 543.39 644.67 414.36 686.28 400.40 596.92 523.86 690.64 623.12 726.31 608.75
00016019 00000074 599.35 230.49 384.72 542.31 648.06 407.49 682.72 402.73 588.01 523.27 688.36 622.02 729.64 617.51
00016020 00000075 600.36 225.64 383.38 549.22 650.46 415.23 685.69 407.98 589.19 527.82 691.40 625.92 734.49 619.30
00016021 00000076 605.31 219.53 376.85 558.55 650.72 424.73 690.10 414.76 595.08 535.47 694.27 635.18 738.96 626.89
00016022 00000077 607.21 229.39 373.18 554.33 651.06 434.84 692.98 422.45 600.42 543.97 697.33 641.68 745.91 630.99
00016023 00000078 608.84 231.35 372.36 559.72 652.68 439.54 692.27 424.21 601.18 553.19 703.34 651.56 749.03 637.26
00016024 00000079 607.24 244.83 373.56 551.73 649.80 446.96 695.71 428.76 604.12 560.07 703.00 658.08 752.72 640.63
00016025 00000080 606.92 246.60 373.40 547.79 646.19 451.62 699.85 433.00 607.07 560.16 698.40 658.14 753.36 640.66
00016026 00000081 605.33 247.18 378.14 543.29 646.04 447.57 702.97 428.36 603.12 552.98 692.96 653.79 750.89 635.87
00016027 00000082 611.78 237.56 375.67 543.48 647.12 443.38 708.67 424.52 607.20 546.51 694.54 645.34 756.85 628.43
00016028 00000083 612.20 242.53 379.17 527.60 644.16 438.83 717.90 417.05 610.66 536.66 690.29 635.68 760.54 617.28
00016029 00000084 606.30 213.42 397.19 547.47 644.59 422.75 729.72 393.52 617.36 520.62 701.74 623.19 765.63 595.07
00016030 00000085 612.34 221.26 394.83 532.65 646.85 418.02 733.66 390.17 621.16 515.53 703.85 616.99 769.30 590.56
00016031 00000086 616.92 230.43 397.10 527.72 654.44 417.51 736.48 387.05 621.75 512.33 709.79 617.25 776.16 587.82
00016032 00000087 621.03 224.05 398.80 537.93 657.80 416.47 742.02 384.06 626.70 514.60 716.51 624.42 782.28 592.82
00016033 00000088 619.41 224.57 411.31 547.40 664.92 422.92 732.93 395.95 635.86 522.65 718.68 630.37 772.24 603.90
00016034 00000089 628.43 240.67 406.53 546.77 664.40 415.16 735.32 391.86 635.20 517.88 720.86 640.08 780.03 618.22
00016035 00000090 630.33 248.67 405.73 538.57 667.81 417.44 738.85 394.59 636.69 519.55 724.93 643.34 784.45 621.83
00016036 00000091 633.15 253.78 408.12 530.70 673.32 414.71 745.65 394.62 642.90 517.22 728.15 639.72 790.85 620.20
00016037 00000092 638.42 249.64 404.31 529.68 677.84 414.69 752.41 392.79 647.32 512.74 728.78 637.06 792.91 616.45
00016038 00000093 645.67 231.34 401.67 537.25 682.23 420.69 759.25 388.84 647.30 505.48 731.35 636.34 795.81 608.50
00016039 00000094 650.84 212.10 396.34 542.75 683.63 416.49 766.25 386.16 651.61 501.30 732.76 623.50 800.21 597.53
00016040 00000095 646.89 188.02 401.75 561.69 688.82 413.21 777.83 384.19 665.79 499.50 729.01 616.63 801.94 592.22
00016041 00000096 651.70 185.75 403.21 557.39 694.06 393.55 780.56 370.28 665.18 487.93 730.62 603.97 803.54 583.98
00016042 00000097 652.59 189.48 405.60 547.66 690.69 393.12 783.16 364.27 665.17 481.51 729.58 599.92 804.16 575.07
00016043 00000098 657.73 187.27 401.58 545.31 695.50 388.44 785.93 358.60 665.41 470.81 729.57 595.17 804.01 569.65
00016044 00000099 662.36 188.48 396.11 541.80 698.37 390.19 788.32 357.60 667.40 468.86 730.46 594.25 807.56 566.30
00016045 00000100 661.13 193.61 397.78 532.14 686.33 392.81 800.16 362.28 670.35 480.05 731.84 595.87 817.02 569.80
00016046 00000101 661.40 194.44 398.24 533.87 688.05 392.66 799.96 363.63 670.65 481.25 732.87 595.96 817.17 570.90
00016047 00000102 660.90 193.39 401.46 537.30 687.39 395.30 801.84 362.55 671.96 480.75 730.91 599.95 816.92 571.82
00016048 00000103 658.59 196.07 403.34 539.79 686.87 397.48 797.70 364.01 670.58 486.20 733.98 603.98 816.42 574.90
00016049 00000104 658.44 191.67 402.90 545.29 680.82 398.20 795.83 357.48 676.03 482.38 738.78 607.63 816.17 572.36
00016050 00000105 660.73 185.87 398.63 555.93 684.09 398.82 795.15 361.40 675.77 486.24 740.57 608.46 816.73 575.42
00016051 00000106 658.97 188.75 400.32 555.70 685.02 399.41 794.89 363.11 676.04 488.15 741.75 609.03 818.39 576.65
CROP_BBOX: 355 0 1338 1010
