Video ID: 	WwN0Vgo4SkI
H: 	1080
W: 	1920
FPS: 	25.0

FRAME INDEX X0 Y0 W H [Landmarks (5 Points)]

00000559 00000000 908.19 129.17 479.32 659.03 992.73 392.86 1194.93 413.37 1031.31 473.77 978.66 609.96 1138.05 628.37
00000560 DELETE   901.67 127.22 476.80 653.19 987.26 391.75 1186.63 410.11 1023.74 474.74 974.87 606.54 1130.09 623.03
00000561 DELETE   896.39 125.23 473.60 662.49 984.67 386.18 1174.74 403.73 1021.65 481.51 972.62 607.12 1118.36 623.75
00000562 00000003 892.48 127.79 473.77 664.22 981.83 380.58 1169.74 398.05 1014.99 475.22 968.11 604.94 1108.32 621.78
00000563 00000004 889.37 127.01 473.95 668.76 978.40 375.76 1164.01 393.13 1008.63 470.57 963.91 604.21 1102.09 621.08
00000564 00000005 887.64 126.79 472.75 670.05 976.01 373.82 1159.48 391.58 1004.50 471.59 962.57 602.91 1102.25 619.99
00000565 00000006 883.79 124.46 472.21 669.40 969.31 372.55 1154.28 390.87 1000.70 474.95 957.68 601.95 1102.97 619.42
00000566 00000007 881.85 121.63 473.64 672.92 966.47 372.70 1152.60 390.34 998.58 476.52 956.20 603.10 1103.63 619.91
00000567 00000008 883.36 121.83 472.92 669.31 965.15 371.37 1152.23 388.20 997.92 475.80 956.88 600.27 1108.28 616.08
00000568 00000009 886.85 120.98 471.17 669.76 967.62 368.79 1154.64 385.76 999.88 473.66 959.35 599.77 1108.05 615.82
00000569 00000010 892.16 122.90 467.47 670.90 972.73 370.25 1156.88 385.33 1004.08 474.06 964.57 604.07 1104.48 618.87
00000570 00000011 898.10 122.20 463.32 678.40 976.75 369.90 1159.97 383.48 1008.43 474.56 970.55 610.08 1105.77 623.76
00000571 00000012 900.85 121.46 462.31 678.20 978.84 366.94 1163.10 381.26 1011.46 472.33 972.85 608.49 1108.38 622.74
00000572 00000013 903.05 119.84 461.68 672.80 980.18 366.03 1165.62 380.48 1014.33 471.86 975.00 604.00 1112.57 618.33
00000573 00000014 903.32 119.33 463.99 669.02 979.25 367.37 1167.29 382.26 1015.41 474.11 974.37 600.55 1118.13 615.01
00000574 00000015 904.94 120.06 463.96 671.27 980.14 369.43 1168.94 385.19 1015.99 477.98 975.08 602.70 1122.95 617.69
00000575 00000016 906.86 122.52 463.91 676.09 982.94 370.20 1170.01 388.74 1015.96 482.80 976.86 605.59 1128.28 622.37
00000576 00000017 908.85 123.75 465.00 680.15 987.65 370.91 1172.84 391.30 1018.23 485.72 983.19 606.97 1137.87 624.78
00000577 00000018 908.95 124.87 467.74 679.63 991.00 372.27 1176.66 392.89 1023.37 485.77 985.35 606.40 1139.88 624.26
00000578 00000019 908.69 125.50 468.99 677.54 992.08 372.82 1178.98 394.04 1025.76 485.91 985.41 602.83 1142.53 621.17
00000579 00000020 906.87 124.86 471.60 676.45 990.81 373.06 1177.83 394.34 1023.85 485.76 984.62 601.72 1141.37 619.89
00000580 00000021 905.80 125.42 470.62 681.96 988.56 373.73 1176.49 394.32 1021.93 487.90 982.45 605.26 1143.16 623.04
00000581 00000022 906.53 127.37 470.48 684.14 990.50 374.11 1177.88 394.79 1022.14 489.11 984.77 607.97 1145.71 625.92
00000582 00000023 907.74 128.91 469.45 680.06 993.32 376.33 1180.58 397.53 1026.84 491.94 987.42 607.72 1148.91 625.99
00000583 00000024 909.54 131.79 468.95 673.33 995.50 377.96 1184.62 400.29 1032.19 493.38 988.92 606.65 1150.89 625.49
00000584 00000025 911.53 132.22 470.79 669.17 996.65 378.72 1188.38 402.24 1034.13 494.14 988.57 605.51 1152.30 625.00
00000585 00000026 913.12 134.63 471.85 666.82 998.89 377.93 1191.25 402.98 1036.33 494.20 989.22 604.16 1152.16 624.99
00000586 00000027 913.61 134.72 473.09 668.33 999.27 377.27 1192.89 402.91 1037.80 495.77 990.05 606.23 1153.44 627.62
00000587 00000028 914.03 135.54 474.50 673.41 1001.44 376.56 1194.13 402.91 1039.55 496.39 992.40 609.27 1155.64 631.16
00000588 00000029 914.66 138.65 478.48 682.09 1004.43 380.45 1194.91 404.90 1040.02 501.12 995.95 615.36 1160.37 635.38
00000589 00000030 913.19 135.62 484.18 694.15 1005.44 392.75 1203.50 413.53 1045.35 508.77 997.41 625.69 1170.21 643.65
00000590 00000031 916.56 138.31 482.63 690.95 1008.27 395.69 1205.58 416.40 1049.99 512.82 1000.94 626.58 1174.92 644.61
00000591 00000032 919.25 139.44 483.67 682.07 1011.37 396.53 1208.81 417.59 1057.14 517.18 1005.58 625.00 1179.06 643.47
00000592 00000033 921.55 143.03 484.09 676.49 1013.11 397.30 1211.54 420.29 1060.59 518.78 1005.55 623.74 1178.93 644.08
00000593 00000034 920.35 147.06 485.61 678.09 1012.71 400.42 1214.14 422.84 1062.29 520.37 1005.22 629.81 1176.92 649.89
00000594 00000035 919.32 149.92 485.48 683.47 1011.02 405.19 1215.02 424.04 1062.93 521.62 1006.37 643.12 1166.61 660.77
00000595 00000036 919.07 151.08 484.80 682.82 1012.17 405.87 1215.22 424.15 1064.24 522.42 1008.51 646.33 1162.56 663.62
00000596 00000037 919.15 151.10 485.02 683.23 1014.06 406.96 1216.85 423.56 1067.06 521.85 1011.53 647.16 1163.10 663.06
00000597 00000038 919.32 151.45 486.92 682.09 1015.53 406.56 1218.73 423.36 1069.45 523.40 1013.62 647.77 1163.96 663.82
00000598 00000039 921.53 152.08 485.39 677.70 1011.95 409.65 1218.33 424.71 1068.32 527.43 1011.19 649.59 1169.38 664.05
00000599 00000040 922.98 154.21 485.45 675.72 1011.35 413.91 1218.13 427.64 1068.74 530.48 1011.84 652.92 1170.35 666.21
00000600 00000041 924.00 158.95 484.08 676.68 1011.21 417.04 1219.12 430.03 1069.32 534.62 1013.19 658.60 1171.09 671.24
00000601 00000042 927.09 160.14 483.70 680.85 1016.28 417.01 1220.59 428.25 1072.64 532.07 1020.59 657.96 1175.12 669.24
00000602 00000043 934.58 159.35 481.08 683.69 1022.68 414.25 1226.19 426.55 1076.92 531.00 1025.03 655.43 1183.30 667.61
00000603 00000044 940.15 157.15 479.99 677.84 1027.32 412.30 1231.01 424.52 1083.04 530.62 1028.94 648.90 1193.24 660.81
00000604 00000045 945.08 155.31 483.30 672.02 1033.84 408.08 1235.07 420.03 1088.07 525.84 1035.36 642.33 1195.61 653.86
00000605 00000046 951.64 149.87 480.98 668.74 1039.67 404.38 1236.54 415.66 1091.07 520.37 1041.49 635.70 1196.41 646.67
00000606 00000047 955.39 143.65 480.48 668.83 1043.36 400.27 1241.24 411.20 1095.98 512.61 1043.46 628.48 1202.79 639.17
00000607 00000048 957.35 139.71 478.77 669.51 1044.61 397.75 1243.26 407.56 1098.71 508.67 1045.46 625.35 1205.22 634.96
00000608 00000049 959.12 138.83 479.85 672.22 1046.92 396.04 1246.38 404.98 1100.98 505.34 1047.13 625.75 1209.12 634.54
00000609 00000050 961.72 138.76 480.92 677.96 1051.46 395.46 1251.58 403.37 1104.93 502.94 1052.18 627.98 1212.31 635.79
00000610 00000051 964.52 139.48 479.76 681.59 1054.52 395.57 1255.20 402.34 1108.76 503.15 1056.79 631.21 1219.72 637.78
00000611 00000052 965.75 138.91 479.34 680.48 1056.56 399.16 1256.79 405.09 1110.86 504.75 1059.36 629.93 1224.19 635.58
00000612 00000053 961.70 145.44 481.01 672.74 1057.63 412.49 1257.78 419.49 1114.96 509.04 1058.17 629.57 1227.81 635.84
00000613 DELETE   959.12 150.39 480.72 672.36 1054.13 412.41 1253.67 421.98 1112.15 514.65 1054.38 631.77 1228.09 639.98
00000614 00000055 957.57 150.86 479.66 678.49 1051.44 408.72 1247.19 421.36 1103.23 515.93 1049.44 633.04 1222.90 643.95
00000615 00000056 955.80 150.36 481.80 678.24 1049.36 402.62 1245.74 418.30 1097.57 515.23 1045.86 630.10 1220.12 643.47
00000616 00000057 955.06 148.29 481.91 675.89 1048.24 399.56 1244.28 415.19 1095.81 512.98 1044.74 627.08 1217.05 640.53
00000617 00000058 951.31 148.80 479.88 670.75 1044.87 399.43 1242.05 416.29 1094.76 514.35 1039.64 625.61 1210.83 640.48
00000618 00000059 943.48 152.28 478.22 667.34 1036.27 401.61 1235.08 418.74 1089.85 517.49 1031.09 627.17 1202.21 642.63
00000619 00000060 936.51 155.17 478.82 667.88 1029.34 404.09 1230.26 421.63 1085.27 519.62 1024.65 629.49 1195.02 645.67
00000620 00000061 933.14 157.83 478.44 674.70 1026.41 405.33 1229.44 423.50 1081.94 521.99 1021.93 634.63 1193.55 651.27
00000621 00000062 937.28 161.40 473.69 679.00 1030.43 408.01 1234.24 423.98 1085.89 523.47 1026.51 643.01 1196.72 657.78
00000622 00000063 940.89 160.29 473.68 672.29 1036.58 406.99 1240.24 423.88 1095.28 525.98 1033.88 641.37 1199.07 657.14
00000623 00000064 943.54 161.10 473.96 664.99 1039.91 408.55 1243.80 424.22 1102.03 528.27 1038.48 640.36 1203.77 655.03
00000624 00000065 947.17 161.33 475.41 664.17 1042.75 409.54 1249.38 424.11 1107.25 529.18 1042.02 642.84 1207.54 656.61
00000625 00000066 949.79 182.59 472.21 652.10 1046.69 410.34 1255.76 430.15 1114.90 528.88 1046.14 645.06 1211.86 662.54
00000626 00000067 948.74 182.15 474.43 658.48 1049.59 411.46 1258.21 428.50 1120.58 528.01 1051.15 647.89 1215.51 663.01
00000627 00000068 950.62 183.01 473.69 655.83 1049.09 411.35 1259.69 428.50 1120.43 527.73 1049.81 647.24 1219.00 662.33
00000628 00000069 954.50 182.38 470.95 654.03 1050.17 411.70 1260.78 427.90 1121.25 527.25 1050.48 645.16 1220.86 659.29
00000629 00000070 957.34 178.93 470.30 651.62 1050.80 411.02 1261.32 426.54 1120.28 522.56 1050.54 640.69 1224.26 654.11
00000630 00000071 958.39 173.12 474.51 650.84 1052.96 407.80 1264.28 422.59 1121.53 516.03 1052.04 634.59 1227.74 647.16
00000631 00000072 956.49 163.52 480.84 652.27 1054.13 402.31 1264.91 418.09 1120.54 508.39 1053.20 627.39 1228.57 640.61
00000632 00000073 958.69 149.86 471.32 651.79 1056.18 390.92 1262.99 409.35 1118.57 506.79 1047.36 620.95 1223.42 635.87
00000633 00000074 961.48 144.54 471.78 655.15 1059.58 387.33 1266.07 407.43 1120.23 502.05 1049.18 616.96 1225.58 633.07
00000634 00000075 966.93 141.01 471.47 657.17 1065.54 383.04 1271.04 404.97 1124.56 496.96 1054.24 611.98 1232.81 629.19
00000635 00000076 972.35 137.58 473.80 656.83 1072.08 378.55 1279.16 403.60 1131.17 493.21 1058.27 606.50 1236.47 626.02
00000636 00000077 976.19 133.52 476.10 661.82 1076.99 373.50 1284.40 400.65 1136.28 489.16 1061.14 603.00 1239.37 624.33
00000637 00000078 976.79 131.90 477.56 663.91 1076.97 370.65 1285.90 397.78 1137.04 487.06 1061.18 602.44 1240.08 623.88
00000638 00000079 976.49 132.09 479.06 663.84 1077.53 369.99 1287.22 397.89 1137.89 486.19 1061.66 602.36 1240.23 624.55
00000639 00000080 977.81 132.01 479.23 664.57 1079.06 369.68 1288.79 397.16 1140.15 486.07 1064.44 602.77 1242.46 624.64
00000640 00000081 980.54 131.67 478.83 664.81 1082.42 368.63 1293.21 394.92 1144.74 485.88 1067.70 603.50 1246.10 624.57
00000641 00000082 978.68 120.33 485.62 682.25 1083.25 363.61 1289.66 388.45 1140.30 482.89 1074.19 602.75 1242.24 624.28
00000642 00000083 979.17 119.76 487.02 682.16 1085.84 363.09 1293.67 388.29 1144.09 482.44 1076.29 602.52 1245.15 624.32
00000643 00000084 979.04 121.36 488.71 682.90 1086.72 363.99 1295.55 389.21 1145.33 483.24 1076.91 603.59 1246.64 625.39
00000644 00000085 977.79 121.30 490.63 684.28 1086.73 365.29 1297.32 391.03 1146.86 485.52 1076.81 605.32 1246.52 627.69
00000645 00000086 976.69 123.50 491.55 682.34 1086.08 367.99 1298.18 393.92 1147.37 488.57 1076.09 607.33 1247.66 629.73
00000646 00000087 979.52 135.98 484.04 665.49 1086.08 376.10 1302.22 405.59 1151.18 493.37 1071.20 609.93 1254.77 633.47
00000647 00000088 975.43 141.05 482.68 662.85 1081.54 379.92 1296.37 407.23 1147.65 495.28 1065.89 611.06 1251.93 632.79
00000648 00000089 967.40 134.52 484.48 674.19 1073.90 377.32 1287.20 403.94 1139.42 495.53 1059.29 612.39 1242.97 633.75
00000649 00000090 956.47 130.71 486.27 683.06 1064.28 372.76 1277.27 398.04 1127.20 491.67 1048.95 613.97 1231.36 634.57
00000650 00000091 946.59 122.85 489.73 695.12 1054.81 370.61 1261.89 392.62 1111.90 487.71 1042.85 614.51 1216.13 634.02
00000651 00000092 928.84 123.54 496.99 699.69 1039.35 370.63 1246.71 394.28 1098.79 492.13 1028.16 613.98 1202.29 635.28
00000652 00000093 915.03 122.84 496.84 703.55 1027.82 371.91 1235.41 394.55 1087.98 491.87 1018.30 616.10 1193.11 636.33
00000653 00000094 907.30 123.93 491.53 704.35 1017.94 368.51 1222.78 393.07 1075.35 490.89 1011.31 616.86 1182.71 637.54
00000654 00000095 903.76 129.25 489.02 699.13 1013.21 369.86 1216.11 391.78 1069.80 489.59 1006.96 621.41 1165.27 640.66
00000655 00000096 904.96 128.59 487.83 689.76 1009.43 372.07 1212.32 392.30 1064.40 489.52 1004.29 621.04 1153.92 639.27
00000656 00000097 901.40 125.92 488.15 691.71 1001.71 375.08 1210.34 394.86 1060.94 494.95 995.64 620.02 1156.39 638.03
00000657 00000098 897.90 122.75 487.80 692.16 997.07 376.39 1206.48 395.67 1056.12 493.32 989.45 618.98 1153.00 636.68
00000658 00000099 894.94 126.43 478.83 681.96 991.24 375.12 1204.34 396.95 1053.02 494.83 980.64 618.29 1151.21 636.68
00000659 00000100 891.83 122.78 484.39 685.43 988.58 378.52 1197.97 394.45 1049.00 491.75 981.92 617.07 1145.98 632.17
00000660 00000101 888.31 122.09 484.28 684.59 984.52 381.02 1195.57 395.36 1047.34 494.11 978.46 619.87 1144.45 633.66
00000661 00000102 885.20 126.81 485.55 682.58 983.77 387.19 1192.66 397.61 1045.41 495.52 980.03 626.49 1140.51 636.95
00000662 00000103 882.34 128.74 486.95 681.59 980.59 389.56 1188.94 398.98 1041.43 498.74 978.25 627.16 1139.52 636.77
00000663 00000104 879.35 130.52 488.55 680.26 977.16 390.25 1186.17 400.68 1038.21 501.28 974.30 627.40 1138.93 637.84
00000664 00000105 876.36 132.68 488.84 677.74 974.05 393.22 1182.04 404.27 1035.16 505.05 971.36 628.60 1135.23 639.63
00000665 00000106 871.44 135.02 487.36 677.38 969.44 395.84 1176.80 407.52 1030.60 508.00 965.47 631.29 1129.21 643.07
00000666 00000107 863.63 134.97 488.91 676.15 962.91 395.05 1169.48 407.03 1024.19 509.42 959.06 630.23 1121.02 642.50
00000667 00000108 856.19 134.52 488.88 676.90 955.60 396.83 1163.32 408.55 1019.40 510.76 953.75 631.48 1116.04 643.42
00000668 00000109 851.53 135.41 488.17 677.38 948.41 397.59 1159.38 411.67 1014.09 513.03 946.51 633.43 1112.58 647.10
00000669 00000110 845.30 136.70 489.99 675.35 945.81 397.28 1157.95 412.94 1013.17 513.40 943.90 633.10 1109.98 647.79
00000670 00000111 840.59 138.15 491.60 673.76 943.41 397.88 1157.14 413.13 1012.12 513.00 942.23 634.38 1107.74 648.56
00000671 00000112 838.93 139.44 491.61 673.30 941.75 397.99 1156.38 413.33 1010.97 513.23 940.64 634.54 1106.97 648.74
00000672 00000113 838.21 139.42 491.33 670.23 940.91 397.53 1156.03 412.52 1011.28 513.17 940.68 634.24 1107.40 648.01
00000673 00000114 840.18 142.20 484.97 662.08 937.99 394.74 1157.27 414.13 1010.65 511.40 940.62 633.93 1105.99 651.56
00000674 00000115 838.79 138.56 490.05 669.82 941.59 396.02 1156.28 410.31 1012.85 512.37 942.83 632.62 1109.05 645.89
00000675 00000116 839.68 137.31 490.61 670.95 943.90 395.99 1158.76 410.91 1015.27 511.74 944.25 631.48 1111.35 645.20
00000676 00000117 845.40 137.09 489.34 676.55 947.93 396.44 1161.68 411.52 1017.71 512.73 948.31 632.34 1115.14 646.45
00000677 00000118 852.72 137.04 486.08 682.84 956.65 398.27 1165.40 409.18 1022.78 510.51 958.59 639.49 1113.62 650.62
00000678 00000119 862.92 138.95 485.11 687.11 965.90 397.54 1173.95 407.42 1031.23 509.77 967.23 641.86 1121.87 652.29
00000679 00000120 870.92 140.52 483.15 685.36 972.45 396.81 1180.12 406.41 1036.94 507.39 972.26 639.74 1129.24 649.93
00000680 00000121 873.38 138.96 483.44 685.87 975.39 393.58 1183.38 405.37 1038.61 504.51 972.22 636.26 1129.61 648.32
00000681 00000122 873.02 137.49 483.40 684.40 975.56 391.46 1182.88 404.76 1037.12 502.50 970.48 632.84 1128.48 646.16
00000682 00000123 870.67 137.09 483.72 681.59 973.98 393.36 1179.61 407.43 1034.74 502.14 967.43 630.46 1123.97 644.52
00000683 DELETE   868.83 137.57 482.50 674.98 973.27 401.52 1176.68 418.20 1033.11 504.43 962.61 626.93 1122.52 643.05
00000684 DELETE   865.03 138.41 484.39 669.49 971.05 398.62 1173.77 417.93 1030.09 504.62 958.34 620.58 1121.87 638.57
00000685 00000126 861.99 135.88 485.65 672.98 969.51 393.65 1173.33 413.77 1029.90 503.67 956.27 619.76 1120.81 638.51
00000686 00000127 860.47 135.23 484.74 673.13 966.11 392.46 1173.02 410.96 1028.63 501.00 953.55 621.42 1118.77 638.92
00000687 00000128 858.88 137.72 484.90 672.08 964.93 394.94 1170.23 410.35 1027.20 500.09 955.76 625.34 1115.30 640.23
00000688 00000129 859.16 138.11 484.94 672.44 963.49 395.07 1169.42 410.12 1026.12 501.66 955.50 625.76 1116.56 640.32
00000689 00000130 860.94 137.81 484.87 680.29 964.37 396.41 1170.62 410.45 1027.28 503.33 957.83 629.57 1121.20 643.35
00000690 00000131 862.35 138.57 485.40 684.88 965.18 396.17 1172.97 410.35 1028.85 505.03 958.61 630.49 1127.71 644.21
00000691 DELETE   864.01 138.36 486.10 679.63 967.72 396.88 1174.77 412.51 1031.09 505.20 959.18 625.68 1133.33 640.36
00000692 00000133 864.11 136.44 486.34 671.73 968.27 394.81 1176.89 412.07 1032.67 504.28 957.22 621.05 1133.79 637.05
00000693 00000134 865.01 135.15 486.10 666.19 969.40 394.35 1178.22 411.15 1034.16 502.64 959.01 619.13 1135.29 634.56
00000694 00000135 866.48 136.50 486.37 667.81 970.97 395.70 1180.07 413.05 1035.26 503.77 959.86 621.01 1134.61 637.02
CROP_BBOX: 606 0 1658 993
