Video ID: 	GlsV1UY7j4Y
H: 	1080
W: 	1920
FPS: 	29.97002997002997

FRAME INDEX X0 Y0 W H [Landmarks (5 Points)]

00012468 00000000 1077.22 169.23 412.66 551.00 1151.86 373.71 1340.74 382.21 1209.28 490.51 1159.87 590.70 1308.08 597.81
00012469 00000001 1066.18 174.11 403.88 543.85 1131.27 372.78 1314.73 385.30 1181.19 489.41 1135.04 591.07 1273.04 601.58
00012470 00000002 1047.65 156.36 405.74 565.39 1107.33 374.41 1285.79 383.81 1148.06 490.15 1113.69 593.40 1245.65 601.79
00012471 00000003 1036.52 151.46 399.37 574.73 1095.54 382.84 1270.83 391.55 1129.93 494.56 1102.57 600.33 1226.03 608.11
00012472 00000004 1028.72 162.88 393.34 558.17 1083.80 386.36 1246.95 397.24 1111.14 499.86 1089.12 597.67 1216.94 606.75
00012473 00000005 1025.00 162.86 391.76 560.63 1077.12 387.89 1236.46 403.00 1099.81 504.20 1081.30 597.78 1209.21 609.64
00012474 00000006 1021.82 164.90 390.62 558.40 1072.76 390.02 1230.62 404.23 1096.17 503.70 1077.01 598.74 1201.56 609.88
00012475 00000007 1021.98 164.42 387.39 558.52 1070.34 389.96 1225.31 403.06 1090.93 503.82 1075.83 598.20 1200.16 608.25
00012476 00000008 1016.65 164.71 390.66 566.24 1068.04 391.13 1223.87 402.94 1090.84 507.20 1078.34 601.24 1202.41 610.05
00012477 00000009 1015.42 160.71 391.73 577.90 1065.35 387.42 1230.45 399.89 1095.65 513.74 1083.83 604.02 1211.83 614.86
00012478 00000010 1013.40 165.50 391.36 575.49 1061.86 386.64 1225.81 402.67 1090.08 519.33 1081.64 604.22 1211.02 617.88
00012479 00000011 1010.11 168.56 390.09 574.53 1059.04 386.90 1223.32 403.02 1083.86 520.13 1080.32 603.42 1214.48 616.87
00012480 00000012 1005.77 162.50 391.76 579.60 1055.16 385.88 1219.17 402.78 1080.41 520.74 1075.58 602.22 1210.67 616.36
00012481 00000013 997.90 154.26 398.09 585.04 1048.42 386.36 1214.28 399.70 1077.40 518.51 1068.59 604.68 1198.68 616.23
00012482 00000014 993.35 157.63 400.93 577.95 1041.03 386.58 1205.68 397.49 1069.83 515.45 1061.24 606.76 1186.00 616.26
00012483 00000015 992.61 146.75 400.20 587.88 1036.06 388.04 1195.63 392.03 1061.78 510.31 1057.34 606.46 1178.64 610.30
00012484 00000016 995.88 149.34 387.32 588.88 1038.08 386.39 1184.23 386.43 1049.71 497.31 1061.46 599.59 1179.34 599.35
00012485 00000017 991.13 156.62 382.35 578.43 1029.15 379.03 1168.50 381.36 1021.04 490.13 1066.75 590.76 1183.22 590.86
00012486 DELETE   983.95 150.59 378.61 579.54 1018.52 376.70 1151.66 380.25 1009.97 493.15 1062.11 581.60 1181.45 582.54
00012487 00000019 981.03 149.67 373.95 579.28 1012.03 377.70 1138.79 382.38 1001.96 495.47 1058.14 578.03 1171.48 580.39
00012488 00000020 981.01 157.41 367.06 567.54 1013.41 384.25 1126.64 389.05 993.98 501.68 1062.61 579.57 1163.25 582.12
00012489 00000021 982.88 155.56 358.80 567.55 1016.15 392.48 1121.58 397.28 991.57 510.03 1062.82 586.99 1152.37 589.64
00012490 00000022 985.91 160.47 352.05 567.70 1021.49 399.74 1115.72 408.35 987.25 520.64 1069.21 591.05 1153.28 595.11
00012491 00000023 989.30 177.33 350.62 552.11 1026.21 402.76 1119.87 419.92 995.95 528.93 1061.31 598.26 1146.35 609.19
00012492 00000024 992.25 175.97 350.82 560.77 1030.16 409.89 1127.87 429.42 1001.09 534.43 1061.95 607.37 1148.03 620.23
00012493 00000025 997.91 174.68 348.80 569.93 1030.35 419.76 1133.58 435.26 1006.93 540.48 1067.13 618.23 1153.71 627.78
00012494 DELETE   1003.20 171.41 357.66 578.42 1034.79 432.80 1143.95 445.28 1013.15 543.75 1073.83 624.00 1164.42 630.59
00012495 DELETE   1013.67 166.03 358.00 581.58 1041.05 425.24 1159.16 439.91 1024.55 539.00 1076.10 625.29 1171.30 634.66
00012496 00000028 1022.18 171.39 381.24 571.50 1058.50 408.73 1194.13 427.20 1054.31 534.52 1081.29 614.44 1191.92 627.17
00012497 00000029 1025.54 170.18 392.01 567.34 1066.71 399.77 1205.66 417.52 1067.91 523.14 1090.95 604.93 1205.03 617.33
00012498 00000030 1042.91 163.91 380.22 577.09 1069.59 394.15 1222.88 410.23 1071.87 516.46 1099.28 606.15 1218.70 618.13
00012499 00000031 1050.78 162.35 382.62 578.75 1079.89 387.11 1237.42 405.34 1081.83 512.26 1105.40 603.98 1226.20 617.51
00012500 00000032 1053.95 163.99 380.80 576.25 1090.46 386.01 1247.02 407.24 1093.20 514.42 1112.62 603.87 1233.20 619.78
00012501 00000033 1057.82 156.37 378.20 587.97 1098.29 395.19 1249.44 415.43 1096.87 521.24 1118.24 608.54 1233.59 622.88
00012502 00000034 1059.30 167.24 380.32 583.91 1104.48 399.09 1249.08 421.34 1110.06 526.70 1119.92 609.72 1239.44 626.49
00012503 00000035 1056.04 167.19 382.84 585.21 1101.62 402.94 1253.97 425.83 1114.48 533.18 1116.37 613.97 1241.03 631.32
00012504 00000036 1054.81 172.81 388.84 577.73 1102.83 405.38 1258.19 425.76 1120.28 532.68 1117.10 615.04 1242.98 630.97
00012505 00000037 1061.62 169.84 384.61 576.66 1108.41 402.34 1262.69 424.19 1125.35 531.72 1119.87 613.64 1245.04 631.08
00012506 00000038 1068.14 160.00 381.79 583.12 1114.64 397.06 1268.64 421.20 1130.59 527.79 1123.51 608.71 1250.17 628.37
00012507 00000039 1073.85 162.89 381.47 575.13 1119.26 395.44 1274.74 418.27 1137.55 525.51 1128.81 605.53 1256.81 624.39
00012508 00000040 1082.22 166.85 380.24 567.64 1124.64 393.56 1280.82 415.07 1144.02 524.68 1134.11 602.81 1264.57 620.69
00012509 00000041 1090.64 168.13 380.98 564.16 1134.61 394.94 1287.89 423.77 1149.20 525.57 1147.90 598.19 1277.27 621.31
00012510 00000042 1098.30 173.21 385.32 554.57 1141.59 407.52 1288.93 429.52 1152.69 523.82 1159.19 603.88 1279.47 619.57
00012511 00000043 1108.26 174.26 384.90 563.87 1156.18 405.83 1299.86 429.43 1157.80 521.58 1169.54 601.25 1291.20 617.78
00012512 00000044 1118.18 170.07 381.74 569.90 1160.49 403.60 1306.96 428.81 1162.17 526.70 1174.24 601.97 1298.28 619.77
00012513 00000045 1120.34 163.32 382.48 580.41 1163.71 402.79 1315.49 428.25 1172.98 530.44 1176.70 602.94 1303.83 621.50
00012514 00000046 1127.81 158.55 377.36 589.19 1169.86 404.19 1318.79 430.95 1177.91 533.98 1183.09 605.69 1310.01 625.50
00012515 00000047 1127.66 167.77 379.43 579.97 1173.34 404.07 1324.25 431.92 1184.49 534.64 1186.08 608.26 1311.99 629.10
00012516 00000048 1129.55 170.70 378.29 574.52 1174.97 404.91 1330.63 434.42 1180.88 532.91 1188.30 609.79 1308.65 631.39
00012517 00000049 1127.49 170.33 383.24 577.60 1177.60 402.00 1333.39 435.83 1189.14 534.72 1181.29 607.28 1310.94 633.66
00012518 00000050 1125.99 174.99 382.95 569.59 1177.77 399.25 1334.93 436.28 1188.08 534.18 1176.59 602.88 1308.74 632.02
00012519 00000051 1125.62 176.73 379.43 565.39 1176.69 398.06 1332.28 435.55 1184.12 530.96 1172.12 599.90 1304.12 629.38
00012520 00000052 1127.25 173.46 375.93 563.83 1176.73 393.64 1330.78 431.22 1182.39 527.14 1169.84 596.06 1300.84 625.77
00012521 00000053 1128.54 156.10 373.64 578.92 1179.36 386.85 1330.83 426.15 1184.30 521.80 1170.61 591.30 1300.22 622.62
00012522 00000054 1126.22 160.89 375.80 571.35 1180.88 383.08 1333.10 421.09 1186.74 516.07 1171.24 590.01 1296.37 620.67
00012523 00000055 1125.77 161.21 375.86 567.24 1180.04 383.15 1333.11 420.26 1189.92 512.17 1169.40 590.62 1287.30 620.88
00012524 00000056 1126.89 162.13 374.50 564.19 1179.69 382.75 1332.17 419.40 1189.74 511.74 1169.86 591.00 1285.38 620.85
00012525 00000057 1125.71 158.52 375.69 568.52 1179.18 384.47 1331.93 420.70 1189.97 512.53 1170.20 591.06 1287.11 620.48
00012526 00000058 1125.67 159.94 376.49 569.40 1178.87 386.11 1331.43 421.42 1189.26 514.70 1170.38 593.05 1288.78 621.72
00012527 00000059 1127.23 158.95 376.05 572.75 1177.86 386.06 1330.96 422.88 1186.64 519.91 1170.24 593.64 1292.46 623.43
00012528 00000060 1130.23 159.43 373.36 577.05 1178.91 388.51 1329.80 423.49 1185.55 521.55 1175.04 595.95 1297.57 623.86
00012529 00000061 1133.77 160.14 370.99 581.16 1182.11 390.51 1329.97 423.47 1186.02 521.31 1181.13 598.09 1304.09 623.96
00012530 00000062 1134.92 158.19 372.19 584.53 1182.35 391.33 1330.43 423.65 1186.50 522.07 1183.28 599.61 1307.18 624.92
00012531 00000063 1136.59 151.13 372.50 591.88 1182.75 390.09 1332.53 422.53 1186.91 521.47 1183.37 598.55 1311.35 624.10
00012532 00000064 1136.02 160.60 373.67 580.64 1183.60 389.70 1333.18 421.68 1187.41 521.39 1183.98 597.51 1310.83 622.65
00012533 00000065 1134.52 159.48 375.80 578.66 1183.33 389.20 1335.65 421.68 1190.42 522.19 1183.06 596.12 1311.12 621.90
00012534 00000066 1131.76 163.08 378.39 571.50 1181.73 389.15 1337.34 422.00 1191.91 523.37 1179.16 594.20 1311.32 620.43
00012535 00000067 1129.16 161.83 380.97 571.69 1180.60 389.28 1338.11 422.55 1192.33 523.45 1176.70 595.13 1308.79 621.89
00012536 00000068 1126.03 158.84 382.96 575.94 1178.77 390.28 1337.63 423.21 1191.92 522.78 1174.50 596.70 1305.72 623.31
00012537 00000069 1125.10 155.47 384.19 581.60 1177.42 391.12 1337.54 425.51 1191.27 523.88 1172.08 598.31 1303.21 626.23
00012538 00000070 1124.26 154.73 383.56 584.84 1175.98 393.33 1336.62 427.88 1190.72 526.50 1171.28 600.33 1302.65 628.30
00012539 00000071 1123.90 159.46 381.98 581.73 1175.05 395.67 1334.12 430.13 1189.34 529.22 1171.98 602.32 1301.05 629.88
00012540 00000072 1124.72 165.83 378.88 577.04 1174.61 396.36 1332.49 430.59 1186.58 530.19 1173.05 605.14 1299.41 632.28
00012541 00000073 1126.38 167.91 376.77 579.23 1175.90 396.94 1331.60 429.72 1185.83 528.76 1176.25 608.02 1299.64 633.82
00012542 00000074 1125.27 165.08 376.53 584.00 1175.41 397.09 1330.52 429.33 1184.88 527.57 1176.71 608.57 1299.20 633.75
00012543 00000075 1126.01 163.46 375.12 587.82 1175.05 397.02 1328.50 429.12 1182.64 526.50 1178.18 609.47 1300.15 634.32
00012544 00000076 1125.53 163.85 375.33 586.73 1175.01 395.75 1328.54 427.66 1181.08 524.36 1176.11 608.84 1298.74 633.66
00012545 00000077 1121.88 163.14 378.72 585.78 1172.54 394.33 1328.10 425.21 1179.63 522.42 1173.34 606.81 1297.92 630.91
00012546 00000078 1118.67 162.13 380.15 585.72 1170.34 391.50 1325.99 420.95 1178.25 519.16 1171.39 605.62 1294.52 628.50
00012547 00000079 1117.13 162.11 380.90 583.89 1169.65 390.72 1323.78 419.43 1178.24 516.92 1170.41 602.60 1293.05 624.78
00012548 00000080 1116.11 156.93 380.16 586.78 1168.83 389.25 1322.40 415.31 1178.65 513.58 1169.40 599.80 1293.35 620.02
00012549 00000081 1115.23 149.29 380.87 594.12 1168.67 388.41 1322.08 414.81 1177.84 510.82 1168.28 596.82 1293.79 617.44
00012550 00000082 1111.83 156.13 382.05 574.51 1162.20 392.30 1317.27 413.38 1175.83 513.89 1168.06 596.43 1296.16 613.34
00012551 00000083 1112.17 158.01 381.86 572.09 1162.09 392.40 1317.17 413.20 1175.14 513.45 1167.97 596.40 1295.86 613.14
00012552 00000084 1112.20 156.44 381.85 573.42 1161.71 392.77 1316.91 413.62 1175.03 513.84 1167.93 596.33 1296.10 612.95
00012553 00000085 1115.13 151.38 380.98 589.71 1168.25 389.54 1321.52 414.83 1178.25 510.12 1167.85 596.78 1293.55 616.49
00012554 00000086 1114.43 153.39 381.72 587.76 1167.99 389.53 1321.91 414.65 1178.47 510.02 1167.39 597.38 1293.16 616.97
00012555 00000087 1113.26 153.71 382.78 586.22 1167.51 389.58 1321.70 413.94 1179.09 510.44 1167.49 598.21 1292.49 617.26
00012556 00000088 1114.27 160.20 379.40 573.26 1156.52 391.62 1320.37 418.02 1171.82 516.44 1169.63 600.75 1293.13 622.52
00012557 00000089 1110.34 161.45 380.85 570.09 1157.71 394.98 1318.08 421.48 1170.95 511.68 1171.06 599.51 1287.93 621.59
00012558 00000090 1111.12 162.24 380.09 563.94 1157.76 392.61 1317.83 420.09 1170.22 507.91 1168.44 597.84 1281.71 621.18
00012559 00000091 1111.70 160.53 380.64 560.99 1155.88 386.07 1321.68 416.90 1172.37 507.23 1160.63 594.47 1280.50 621.02
00012560 00000092 1109.48 156.03 383.69 562.88 1154.48 382.56 1321.98 413.74 1171.69 503.65 1156.34 590.46 1277.80 617.46
00012561 00000093 1110.72 162.13 381.30 555.30 1155.43 377.89 1322.45 411.38 1172.30 501.56 1154.60 588.04 1274.25 617.40
00012562 00000094 1112.31 161.70 380.40 557.52 1155.21 375.50 1324.10 408.80 1171.53 501.00 1155.01 588.79 1275.58 618.04
00012563 00000095 1114.06 159.52 378.29 564.95 1155.46 375.32 1324.82 406.34 1170.68 500.68 1158.43 592.82 1278.86 619.94
00012564 00000096 1114.79 158.23 379.22 567.30 1154.28 376.70 1325.90 406.87 1170.06 501.84 1157.69 594.24 1284.20 620.63
00012565 00000097 1115.57 160.93 377.93 563.78 1154.60 377.29 1325.35 408.20 1168.85 501.40 1156.65 593.15 1284.67 620.12
00012566 00000098 1114.03 160.60 379.30 565.18 1154.91 375.98 1325.09 409.38 1167.98 502.53 1156.65 591.77 1284.90 620.43
00012567 00000099 1113.26 158.46 380.46 569.96 1156.52 376.68 1325.88 410.40 1168.77 501.83 1156.86 594.05 1280.77 622.99
00012568 00000100 1113.36 161.70 381.70 570.22 1156.45 378.66 1326.46 411.38 1168.98 505.15 1157.68 598.80 1281.41 626.99
00012569 00000101 1112.73 159.65 381.60 577.08 1157.15 380.68 1327.06 414.09 1169.22 509.08 1158.94 599.89 1285.22 628.27
00012570 00000102 1107.89 161.67 387.63 572.48 1161.49 387.27 1318.39 410.98 1173.99 510.90 1163.76 595.39 1294.17 614.25
00012571 00000103 1108.25 164.65 387.73 568.95 1160.33 388.42 1318.51 412.00 1171.58 511.97 1164.01 591.77 1300.27 610.02
00012572 00000104 1106.87 166.73 388.13 565.44 1158.57 389.37 1315.87 413.15 1169.92 512.35 1163.50 590.30 1300.79 608.47
00012573 00000105 1106.53 166.86 387.70 564.12 1157.57 390.27 1315.07 414.82 1168.91 512.46 1162.37 590.32 1300.13 609.05
00012574 00000106 1106.39 166.75 387.71 564.02 1157.20 390.48 1314.69 416.30 1168.40 514.15 1162.20 588.67 1301.10 608.28
00012575 00000107 1106.86 169.00 386.85 559.67 1156.88 390.38 1314.55 417.36 1167.55 514.54 1160.85 586.26 1301.75 606.79
00012576 00000108 1106.57 169.90 387.19 557.93 1156.26 390.34 1313.97 417.30 1167.71 515.36 1161.42 586.04 1302.29 606.42
00012577 00000109 1105.90 171.58 387.41 555.72 1155.66 390.85 1313.61 417.79 1167.90 517.38 1161.67 585.89 1303.88 606.12
00012578 00000110 1104.25 170.61 387.85 554.72 1154.46 391.57 1313.61 419.16 1168.79 519.15 1161.79 584.40 1307.28 605.00
00012579 00000111 1103.04 173.30 388.03 551.72 1155.08 391.00 1313.65 420.60 1169.60 520.70 1160.38 580.46 1308.85 602.87
00012580 00000112 1102.26 174.76 388.07 549.66 1154.55 389.99 1312.33 419.68 1168.78 519.33 1159.90 579.49 1308.17 601.86
00012581 00000113 1107.28 174.39 382.18 558.98 1150.76 385.07 1312.61 422.86 1169.64 522.03 1163.86 578.24 1313.52 607.63
00012582 00000114 1099.73 175.12 390.28 547.02 1153.05 386.89 1310.87 419.50 1166.12 518.55 1156.23 573.07 1309.38 597.71
00012583 00000115 1102.69 169.03 382.64 562.20 1147.79 378.45 1313.05 420.70 1170.07 522.24 1158.01 565.26 1318.67 598.22
00012584 00000116 1095.70 174.81 388.55 543.35 1150.67 384.66 1308.56 418.61 1165.88 517.71 1154.16 567.41 1310.49 593.34
00012585 00000117 1100.94 167.20 379.27 561.44 1144.73 376.87 1311.39 418.88 1168.46 523.16 1154.40 559.43 1320.74 592.30
00012586 00000118 1100.69 166.49 377.74 560.37 1144.33 374.22 1309.36 418.24 1165.50 523.08 1154.31 555.34 1319.33 589.74
00012587 00000119 1096.01 169.12 382.11 551.72 1149.45 382.35 1304.35 414.06 1163.42 515.00 1157.11 567.51 1310.43 591.48
00012588 00000120 1097.23 165.74 383.88 563.36 1149.79 382.18 1302.40 409.40 1162.55 512.68 1163.08 573.44 1313.66 593.34
00012589 00000121 1099.75 163.22 381.45 569.93 1150.17 382.15 1301.27 406.52 1161.35 512.23 1165.86 575.50 1316.79 593.02
00012590 00000122 1098.96 166.50 383.03 570.53 1150.06 382.73 1300.85 406.12 1161.78 513.30 1166.95 577.22 1318.81 593.84
00012591 00000123 1098.69 168.15 382.61 570.62 1150.48 382.51 1300.63 405.86 1162.40 512.97 1167.24 577.72 1318.48 594.40
00012592 00000124 1098.22 169.28 382.29 569.68 1151.20 381.35 1299.84 405.99 1161.20 511.75 1165.93 576.98 1315.29 594.71
00012593 00000125 1097.98 170.56 381.48 567.21 1150.73 380.72 1297.86 405.20 1159.84 510.26 1165.43 576.93 1312.35 594.57
00012594 00000126 1097.91 167.70 380.12 569.05 1150.36 380.66 1295.71 404.79 1158.16 508.06 1164.60 576.40 1309.60 593.68
00012595 00000127 1097.55 166.17 379.18 569.24 1149.80 379.27 1293.97 404.19 1156.63 507.62 1164.00 575.71 1306.59 593.68
00012596 00000128 1097.26 167.28 377.62 566.37 1149.80 378.00 1290.58 403.69 1153.75 506.29 1164.83 573.93 1303.64 592.63
00012597 00000129 1096.96 167.79 375.91 563.62 1149.24 378.11 1288.95 402.83 1152.48 503.53 1162.00 573.39 1298.51 591.60
00012598 00000130 1093.46 162.07 375.08 563.33 1144.66 375.20 1287.64 401.32 1148.71 501.45 1155.34 570.45 1291.72 589.95
00012599 00000131 1090.77 167.81 372.56 551.77 1139.40 372.95 1279.04 399.80 1140.61 498.91 1152.40 568.86 1282.60 589.43
00012600 00000132 1092.04 172.81 362.27 537.18 1135.45 372.07 1266.42 401.03 1125.35 494.91 1146.72 566.31 1268.10 588.89
00012601 00000133 1090.40 172.86 352.82 531.09 1125.64 374.34 1246.03 399.62 1107.28 496.16 1134.40 568.88 1244.78 588.45
00012602 00000134 1076.27 141.95 359.09 564.01 1115.45 372.24 1233.18 400.56 1079.33 486.20 1125.74 567.91 1223.94 590.84
00012603 00000135 1070.34 149.63 350.99 556.51 1108.51 373.70 1214.75 398.92 1066.08 485.10 1121.52 567.83 1206.26 589.37
00012604 00000136 1064.72 144.90 350.82 564.94 1107.10 375.73 1209.53 399.66 1065.79 486.06 1118.46 569.16 1200.16 589.44
00012605 00000137 1063.76 148.18 348.34 558.78 1105.13 376.28 1203.17 404.10 1062.86 489.10 1116.46 566.49 1194.49 590.02
CROP_BBOX: 817 0 1674 874
