Video ID: 	QoBM7557xVU
H: 	1080
W: 	1920
FPS: 	25.0

FRAME INDEX X0 Y0 W H [Landmarks (5 Points)]

00013077 00000000 576.09 215.77 363.04 545.69 720.13 484.90 872.35 455.43 827.39 587.05 755.39 655.35 873.22 630.39
00013078 00000001 579.40 215.60 361.79 545.55 721.24 485.23 875.82 453.92 830.63 587.18 757.66 656.20 877.51 629.83
00013079 00000002 579.02 214.05 362.07 547.03 720.09 483.08 875.69 451.96 830.44 584.51 755.34 653.24 876.84 627.16
00013080 00000003 577.45 212.59 363.72 548.07 719.07 480.90 872.83 451.49 827.27 581.50 753.99 650.64 874.54 625.82
00013081 00000004 576.73 210.98 366.09 550.73 716.22 478.65 870.76 449.37 824.00 579.29 752.68 649.51 873.36 624.83
00013082 00000005 575.88 212.76 365.67 549.19 714.12 477.53 868.76 449.09 822.18 578.08 751.32 648.44 872.78 624.36
00013083 00000006 574.68 217.91 364.74 544.18 713.14 475.02 868.14 447.36 821.96 576.05 748.69 646.21 871.26 622.88
00013084 00000007 572.55 207.01 367.52 551.87 713.06 473.19 867.99 444.49 822.61 573.41 749.08 643.59 870.94 619.47
00013085 00000008 568.80 199.57 368.96 553.67 708.39 468.59 865.91 439.77 819.98 570.41 745.96 639.89 868.89 615.92
00013086 00000009 569.88 185.05 368.48 563.47 703.05 460.62 864.18 433.59 814.91 563.94 744.87 637.00 869.43 614.45
00013087 00000010 565.60 187.20 371.35 558.83 699.59 456.80 859.82 431.39 810.01 559.70 741.65 634.86 865.25 613.65
00013088 00000011 560.83 182.79 375.24 561.48 692.28 451.90 853.25 428.67 801.93 557.62 735.68 631.45 861.65 611.68
00013089 DELETE   553.29 184.59 378.12 556.04 688.90 446.64 847.16 425.32 796.02 555.31 729.46 625.85 854.20 608.25
00013090 DELETE   551.37 183.63 379.64 553.20 681.63 442.71 840.91 424.54 785.59 550.79 721.05 620.45 848.54 605.86
00013091 DELETE   548.12 185.93 381.97 549.33 670.54 444.57 831.79 425.86 772.59 550.79 715.10 619.77 843.45 604.82
00013092 00000015 544.67 176.27 382.75 558.60 663.18 444.79 824.99 428.52 764.44 550.46 707.19 619.91 837.01 606.87
00013093 00000016 540.01 170.27 382.98 564.13 657.40 447.30 818.01 428.21 759.59 551.50 701.40 622.43 832.47 607.38
00013094 00000017 538.44 166.09 381.42 570.74 654.80 448.11 815.45 429.18 758.83 553.30 697.65 624.06 830.68 609.19
00013095 00000018 530.53 173.52 383.37 562.56 643.26 460.82 802.64 429.99 745.63 562.13 692.09 635.36 818.12 609.89
00013096 00000019 529.21 173.19 384.13 565.79 643.47 462.24 801.96 430.60 745.77 563.32 692.78 637.08 818.45 610.76
00013097 00000020 529.41 175.34 383.05 563.55 643.10 462.97 801.12 430.83 745.25 563.38 693.23 638.14 817.31 611.55
00013098 00000021 529.75 175.76 382.38 563.59 643.98 464.25 802.10 432.08 746.52 564.26 693.36 638.36 817.96 611.76
00013099 00000022 528.93 175.17 384.00 564.81 644.84 464.36 802.37 431.87 747.41 564.77 694.01 639.05 817.90 612.24
00013100 00000023 538.47 166.35 381.08 574.38 655.41 451.65 814.95 432.21 759.05 555.07 700.94 627.47 830.76 612.31
00013101 00000024 531.45 173.29 381.93 565.36 645.18 463.81 801.88 432.12 746.61 564.73 695.39 640.26 816.83 613.98
00013102 00000025 540.48 168.42 378.81 569.40 655.27 451.23 816.10 432.15 758.49 555.54 700.40 626.30 831.51 611.27
00013103 00000026 541.03 168.80 380.04 568.64 656.27 450.56 817.76 431.81 758.71 554.77 699.72 623.80 832.85 609.02
00013104 00000027 541.36 170.94 381.05 567.48 655.70 451.13 818.04 432.38 758.34 554.92 698.76 623.76 833.96 608.81
00013105 00000028 542.54 168.61 380.57 569.28 656.70 452.02 819.20 433.05 759.03 556.87 699.27 624.08 834.01 609.00
00013106 00000029 543.70 173.38 379.86 563.96 658.69 452.71 820.23 433.94 760.07 557.57 701.61 623.37 834.49 608.48
00013107 00000030 543.09 173.00 381.08 566.58 657.85 451.30 820.02 433.16 760.46 557.34 701.75 624.16 835.55 609.61
00013108 00000031 543.66 173.77 380.26 566.39 658.59 451.24 820.13 433.37 760.39 557.84 703.26 624.89 834.79 610.57
00013109 00000032 543.47 177.76 380.10 561.23 658.30 451.07 819.61 433.21 759.53 557.92 704.29 624.85 834.32 610.60
00013110 00000033 543.47 176.82 380.40 563.51 658.41 451.18 819.80 432.98 760.05 557.47 704.02 624.73 834.76 610.17
00013111 00000034 543.53 175.37 379.86 565.48 658.01 450.86 818.92 432.86 759.97 557.18 703.48 624.36 835.15 609.90
00013112 00000035 543.20 174.61 380.71 565.95 658.13 450.57 819.49 432.65 759.99 557.26 703.36 624.42 834.87 610.08
00013113 00000036 542.74 176.80 381.53 563.04 658.17 450.04 819.39 431.74 760.22 556.96 703.38 624.01 835.06 609.46
00013114 00000037 542.61 176.29 382.35 564.08 658.71 449.28 819.78 431.63 760.25 556.95 704.14 623.71 835.00 609.67
00013115 00000038 543.51 179.52 380.76 559.71 659.17 448.62 820.14 431.36 760.32 556.52 704.19 622.87 835.18 609.12
00013116 00000039 542.84 179.46 381.99 558.85 659.49 448.52 820.81 431.11 760.56 556.69 704.69 622.71 835.35 608.82
00013117 00000040 542.90 179.56 382.17 558.71 659.37 449.23 821.88 430.78 760.98 557.21 703.94 622.39 836.48 607.65
00013118 00000041 542.70 177.03 382.86 560.63 659.26 450.50 822.52 432.12 760.56 557.88 702.86 622.57 836.15 607.83
00013119 00000042 543.88 178.22 381.35 559.77 660.00 452.34 822.76 434.73 760.66 558.28 702.77 622.26 836.64 608.06
00013120 00000043 543.85 176.82 382.23 561.54 660.32 453.99 822.33 436.29 760.24 558.13 703.28 622.31 836.12 608.08
00013121 00000044 544.38 178.01 381.59 561.81 660.62 454.41 822.76 436.41 760.81 559.44 702.68 621.75 836.82 607.18
00013122 00000045 545.74 178.59 380.81 562.56 661.69 455.20 824.36 437.51 761.57 559.90 702.25 621.68 837.70 607.31
00013123 00000046 546.60 173.69 379.80 568.17 662.36 455.95 825.65 438.39 762.76 560.13 701.26 621.90 838.72 607.51
00013124 00000047 547.37 177.00 379.38 565.07 664.74 455.48 827.46 437.91 765.76 558.17 703.48 621.55 841.02 607.09
00013125 00000048 547.44 186.82 380.09 554.27 671.28 452.68 834.35 433.74 775.05 553.51 710.35 619.35 846.94 603.83
00013126 00000049 551.06 194.59 374.83 545.76 681.61 453.15 841.12 429.17 790.10 552.06 723.21 622.21 853.28 602.67
00013127 00000050 554.61 183.50 370.32 560.51 689.12 460.87 845.44 430.44 802.39 552.95 735.89 628.25 863.76 602.62
00013128 00000051 554.90 181.03 371.76 565.56 691.95 462.00 847.63 429.97 806.32 554.30 740.09 631.57 867.51 604.28
00013129 00000052 552.46 181.68 373.83 566.95 686.39 459.94 846.14 430.79 800.98 555.40 734.19 632.14 865.52 607.33
00013130 00000053 550.49 184.95 374.69 561.54 682.55 458.94 841.12 433.82 792.92 555.61 725.23 627.00 857.83 605.98
00013131 00000054 548.59 181.25 378.80 564.50 675.29 455.91 838.34 434.92 782.06 558.26 715.39 623.62 853.10 605.97
00013132 00000055 550.68 182.98 376.76 563.98 673.22 456.50 833.39 436.68 776.50 559.91 711.58 620.96 849.84 604.30
00013133 00000056 550.23 184.61 376.63 559.21 671.75 456.54 834.61 435.75 776.60 559.74 710.73 621.01 850.93 603.37
00013134 00000057 550.71 184.82 376.28 556.94 673.46 456.60 835.47 434.44 778.61 558.18 713.37 621.19 851.42 602.62
00013135 00000058 550.56 185.90 375.90 555.48 675.35 455.58 837.32 432.49 781.58 557.56 716.61 621.93 852.08 602.76
00013136 00000059 550.19 183.93 375.48 558.49 676.37 453.44 837.92 432.41 781.86 557.12 718.02 623.61 850.45 606.43
00013137 00000060 549.89 183.27 376.85 557.72 674.57 453.00 838.39 432.35 780.13 555.18 716.23 624.15 850.22 607.30
00013138 00000061 550.95 184.32 376.23 555.53 675.98 454.12 838.18 432.23 781.45 553.83 717.68 621.30 852.35 603.31
00013139 00000062 551.43 185.10 376.02 554.88 677.45 452.19 839.66 430.30 783.90 551.45 720.16 622.13 852.69 604.17
00013140 DELETE   553.91 182.61 375.40 558.61 683.73 452.46 843.25 430.41 791.02 551.57 726.96 623.91 856.59 605.52
00013141 DELETE   554.26 189.89 378.43 550.89 692.24 446.88 850.72 417.56 806.32 550.20 739.59 624.99 866.03 600.34
00013142 DELETE   561.94 181.65 373.24 554.83 701.97 443.91 857.04 411.40 816.60 543.69 751.12 625.69 872.64 598.11
00013143 00000066 568.86 183.74 368.42 545.87 709.39 441.39 862.63 408.91 823.10 538.86 757.84 621.62 875.04 594.42
00013144 00000067 571.59 178.79 368.62 551.32 713.08 442.93 866.04 410.26 826.38 538.43 763.16 624.21 877.13 596.80
00013145 00000068 572.92 177.08 369.72 552.14 715.51 441.95 870.72 408.93 830.40 538.67 767.35 625.74 881.14 597.80
00013146 00000069 575.63 174.70 368.13 555.76 719.65 441.48 873.17 409.16 834.65 538.28 769.30 625.60 883.35 598.21
00013147 00000070 576.65 176.48 368.26 556.47 719.89 441.04 873.39 411.19 833.34 537.63 765.31 624.70 881.22 599.52
00013148 00000071 577.79 182.08 367.15 547.67 720.61 441.09 875.92 411.75 834.18 538.59 764.26 623.47 881.39 598.86
00013149 00000072 578.55 178.81 369.35 551.89 724.30 442.22 879.48 410.67 840.46 538.17 769.25 624.85 886.80 598.19
00013150 00000073 581.09 175.43 370.59 555.17 728.97 440.29 883.98 408.21 846.37 538.68 775.53 626.65 891.11 599.34
00013151 00000074 584.08 174.49 369.62 554.93 732.46 439.02 887.93 407.11 850.29 536.42 776.67 625.14 894.03 598.22
00013152 00000075 585.77 179.25 368.36 548.39 735.36 433.89 891.02 404.88 853.02 534.95 776.93 621.49 893.60 597.14
00013153 00000076 585.59 176.21 369.76 552.58 734.54 431.45 890.03 404.65 851.10 532.91 771.94 618.12 893.00 595.73
00013154 00000077 586.14 172.21 370.13 556.90 735.94 428.59 889.24 402.79 852.06 531.58 770.03 615.16 892.12 593.87
00013155 00000078 587.69 166.22 369.54 557.97 736.71 426.47 892.19 401.99 853.50 529.30 769.94 611.64 894.52 591.43
00013156 00000079 589.08 163.96 369.29 560.70 738.42 424.62 892.70 400.45 855.71 525.26 773.49 610.24 897.33 590.20
00013157 00000080 589.39 164.85 369.55 557.84 734.77 424.98 892.28 401.03 852.25 524.42 775.20 612.87 897.39 592.78
00013158 00000081 587.74 161.81 369.92 560.20 734.96 426.73 889.47 403.47 848.88 529.09 777.31 616.49 892.98 596.63
00013159 00000082 587.05 169.17 369.55 551.01 729.54 430.07 889.64 405.41 845.05 532.69 774.61 619.02 892.81 597.87
00013160 00000083 584.59 173.77 370.78 547.31 726.83 432.17 887.29 406.25 842.30 534.85 771.38 620.92 889.49 598.89
00013161 00000084 583.32 172.22 371.52 552.78 723.56 432.48 884.01 407.35 837.71 535.03 767.41 621.37 886.40 600.01
00013162 00000085 581.76 178.57 369.73 546.48 722.08 432.37 880.62 407.31 835.01 534.21 765.29 620.02 882.53 599.00
00013163 00000086 580.48 175.75 369.82 548.63 720.15 432.00 878.40 407.51 832.02 534.63 761.04 618.45 879.08 597.95
00013164 00000087 578.91 177.82 371.06 548.19 718.49 431.95 876.49 408.46 828.91 535.61 758.54 618.15 876.72 598.54
00013165 00000088 576.43 176.99 372.56 556.10 716.33 433.34 871.38 409.50 824.62 538.71 754.63 620.08 873.27 600.12
00013166 00000089 572.35 184.97 373.94 550.37 711.89 433.93 864.79 410.48 817.69 542.37 749.08 620.13 866.67 600.70
00013167 00000090 569.06 183.74 373.92 553.77 705.32 435.93 860.02 413.55 812.04 545.99 743.65 621.35 863.41 602.61
00013168 00000091 566.47 183.72 372.86 553.62 698.96 436.00 854.06 416.64 803.87 547.84 738.65 620.12 859.10 603.67
00013169 00000092 563.39 181.14 375.87 554.95 692.93 436.66 850.15 418.62 797.90 545.62 734.90 619.41 856.00 604.11
00013170 00000093 563.78 180.11 374.30 554.79 691.20 436.40 849.33 420.46 795.59 545.79 730.58 616.91 854.63 603.38
00013171 00000094 561.56 180.77 375.53 553.56 689.20 435.22 848.51 420.12 793.15 544.96 725.98 614.47 852.24 601.78
00013172 00000095 560.02 177.02 375.43 556.72 688.30 434.53 846.26 420.22 790.97 544.29 723.57 612.11 850.29 600.04
00013173 00000096 560.05 179.21 374.47 555.34 687.58 434.19 844.48 420.57 789.07 544.55 721.62 611.56 848.28 600.18
00013174 00000097 559.70 179.66 374.36 555.01 685.87 434.68 841.86 420.53 786.84 544.70 721.34 611.51 847.10 599.81
00013175 00000098 558.56 177.22 375.06 556.75 684.44 435.36 841.97 421.11 786.47 546.04 720.19 611.65 847.81 599.82
00013176 00000099 558.92 171.57 374.26 563.53 684.02 435.30 841.15 421.93 785.77 546.30 720.01 612.88 847.12 601.77
00013177 00000100 557.68 172.50 375.23 565.22 682.72 435.23 841.64 421.82 785.15 546.18 719.94 616.01 846.82 604.93
00013178 00000101 556.90 174.62 376.63 563.07 681.28 435.01 841.72 422.52 783.26 546.11 719.17 617.54 845.24 607.43
00013179 00000102 556.56 173.88 376.24 564.15 680.67 435.17 841.98 422.69 783.01 546.45 718.84 618.03 845.99 607.82
00013180 00000103 557.19 173.47 376.64 565.45 681.50 435.61 842.25 423.52 783.71 547.15 719.57 618.57 846.19 608.64
00013181 00000104 557.18 169.82 376.00 569.13 681.77 435.77 842.50 424.55 783.72 547.30 719.16 618.34 846.09 609.10
00013182 00000105 557.31 171.14 376.35 568.37 682.00 435.41 842.66 424.39 783.87 548.15 718.94 618.56 845.65 609.52
00013183 00000106 557.42 170.12 376.49 568.92 681.71 435.14 842.89 424.09 783.68 547.22 718.95 618.40 845.83 609.34
00013184 00000107 556.82 172.66 377.09 565.80 681.44 435.01 842.57 423.39 783.69 547.25 718.58 617.85 845.71 608.41
00013185 00000108 557.34 173.08 376.29 564.71 681.36 435.18 842.31 423.16 783.89 546.56 718.52 617.52 846.00 607.73
00013186 00000109 557.09 174.67 376.66 562.73 680.92 435.05 841.97 422.78 783.06 546.13 718.45 617.48 845.45 607.56
00013187 00000110 556.93 176.51 376.97 560.12 681.03 434.83 842.07 422.64 782.96 546.65 718.57 617.33 845.12 607.55
00013188 00000111 556.95 172.67 376.65 564.72 681.24 435.34 841.91 423.21 783.48 546.39 718.72 617.61 845.64 607.72
00013189 00000112 556.64 175.66 377.25 560.98 681.03 435.39 842.18 422.83 783.49 546.33 718.45 617.36 845.72 607.19
00013190 00000113 557.03 175.10 376.35 562.37 681.52 434.94 842.58 423.19 783.91 546.45 718.01 617.49 845.03 608.05
00013191 00000114 556.15 174.37 377.08 565.10 681.17 435.03 842.14 423.22 783.41 547.39 717.26 618.28 844.60 608.78
00013192 00000115 556.74 172.19 375.98 567.81 680.53 435.37 841.26 424.00 782.85 547.67 716.53 618.36 844.33 609.11
00013193 00000116 555.78 172.00 378.53 568.59 679.87 435.51 841.08 424.57 781.28 547.81 714.83 617.85 843.39 609.00
00013194 00000117 556.63 168.36 378.31 572.37 679.37 436.50 840.62 426.53 780.00 548.80 713.94 617.65 843.16 609.54
00013195 00000118 556.60 170.41 378.09 570.13 678.99 436.90 840.12 426.98 779.87 549.32 714.39 617.70 843.73 609.53
00013196 00000119 556.76 168.74 377.91 571.48 679.43 437.29 840.10 427.50 779.86 549.31 714.51 617.47 843.70 609.38
00013197 00000120 556.79 171.45 377.72 568.16 679.13 437.20 840.55 427.13 779.98 548.83 714.75 617.12 844.37 608.80
00013198 00000121 556.78 170.65 378.11 568.81 679.54 436.80 840.75 426.22 780.96 548.60 715.39 617.39 845.09 608.63
00013199 00000122 556.67 168.88 377.72 571.18 679.99 436.53 840.96 425.94 781.65 548.40 715.43 617.17 845.52 608.34
00013200 00000123 556.89 169.03 377.37 570.89 680.18 436.27 841.60 425.87 781.98 548.71 715.73 617.31 845.55 608.67
00013201 00000124 556.87 172.93 377.01 567.03 681.45 436.22 842.16 425.69 783.22 548.18 716.29 617.35 845.02 608.74
00013202 00000125 556.72 173.90 378.13 566.12 682.17 436.47 842.70 425.61 783.91 548.87 717.32 617.90 845.22 609.00
00013203 00000126 557.38 172.83 377.12 567.63 683.36 436.74 843.33 425.63 785.44 549.47 718.21 618.38 845.66 609.25
00013204 00000127 557.24 171.18 376.70 568.88 683.28 437.15 843.43 425.98 785.84 549.62 718.51 618.60 846.20 609.34
00013205 00000128 557.83 167.67 376.26 572.98 683.63 437.17 843.33 426.65 785.84 549.50 718.75 618.42 846.62 609.56
00013206 00000129 557.65 172.30 375.89 567.89 683.20 436.85 843.48 426.01 785.50 549.70 718.47 618.38 845.98 609.44
00013207 00000130 556.93 173.04 377.00 566.85 683.42 437.21 843.52 426.16 785.74 549.95 718.60 618.75 845.81 609.70
00013208 00000131 556.96 172.21 376.67 567.99 683.63 437.17 843.70 426.39 785.69 549.87 718.61 618.68 845.70 609.82
00013209 00000132 556.92 171.52 376.48 569.01 683.96 437.00 843.83 426.33 785.93 549.79 718.99 618.75 845.72 609.97
00013210 00000133 557.31 174.48 376.27 565.70 683.98 437.05 844.08 426.09 786.19 550.18 719.04 618.86 845.70 609.92
00013211 00000134 557.27 173.42 376.45 566.59 684.12 436.86 844.67 425.49 786.48 550.15 719.30 619.32 846.07 610.05
00013212 00000135 556.96 173.61 377.01 566.24 684.14 436.85 844.71 425.51 786.55 550.05 719.68 619.44 846.37 610.19
00013213 00000136 556.87 175.51 377.21 564.34 684.16 436.91 844.68 425.29 786.50 550.11 719.62 619.45 846.12 610.02
00013214 00000137 557.55 175.37 376.70 564.84 684.37 436.62 844.84 425.27 786.74 550.21 720.28 619.63 846.71 610.35
00013215 00000138 557.61 174.25 377.09 566.04 684.52 436.59 844.84 424.69 787.40 550.16 720.96 620.41 846.87 610.66
CROP_BBOX: 332 0 1220 899
