Video ID: 	l18hRpfLT44
H: 	1080
W: 	1920
FPS: 	25.0

FRAME INDEX X0 Y0 W H [Landmarks (5 Points)]

00007386 00000000 707.71 192.85 453.10 529.48 785.43 384.68 969.04 371.25 854.79 499.79 827.40 580.37 982.19 567.70
00007387 00000001 702.52 202.22 457.13 522.44 775.39 374.69 967.41 362.70 851.71 505.29 824.59 577.14 982.80 565.71
00007388 00000002 709.63 195.78 451.92 525.64 787.65 384.48 970.58 371.75 856.07 499.70 828.47 579.94 983.41 568.04
00007389 00000003 710.73 196.82 450.97 524.18 789.25 384.90 971.44 372.16 857.82 499.55 830.30 580.13 984.47 568.23
00007390 00000004 711.60 205.87 450.73 518.16 778.78 378.02 975.59 357.67 858.86 507.36 831.92 580.03 990.64 560.23
00007391 00000005 711.80 205.25 450.23 520.80 779.42 378.00 974.96 358.13 858.94 508.51 832.25 580.47 990.56 561.03
00007392 00000006 711.99 205.90 451.83 520.71 780.36 378.19 976.33 358.64 859.48 508.22 832.80 580.83 991.37 561.63
00007393 00000007 713.20 206.79 450.97 520.45 780.54 378.53 976.45 358.65 859.43 508.07 832.77 581.47 991.75 561.97
00007394 00000008 712.95 205.78 450.91 520.88 780.33 378.73 976.37 359.21 859.13 508.70 832.15 581.65 992.09 562.53
00007395 00000009 713.51 210.52 450.01 516.52 780.02 379.15 975.92 359.73 858.65 508.42 831.75 581.60 991.47 562.48
00007396 00000010 712.39 210.79 450.49 516.53 779.07 380.31 974.78 360.27 857.23 509.79 831.76 581.99 990.83 562.44
00007397 00000011 712.28 208.88 450.88 518.71 778.78 380.65 974.45 360.39 856.92 510.08 831.76 581.95 990.38 562.26
00007398 00000012 712.04 207.58 449.62 519.73 777.82 379.77 973.11 360.34 855.35 509.32 830.33 580.96 988.83 562.07
00007399 00000013 711.14 207.42 450.60 519.01 777.57 380.45 972.88 360.87 855.03 509.28 829.22 580.89 988.22 561.93
00007400 DELETE   703.61 208.80 457.56 520.07 776.15 376.99 967.99 366.11 851.72 507.80 824.97 579.98 984.94 569.29
00007401 00000015 702.00 196.70 457.77 532.18 774.92 376.16 966.26 365.08 850.86 508.30 824.25 579.20 983.73 568.21
00007402 00000016 701.10 196.15 457.05 532.59 774.30 376.16 965.39 364.71 850.57 507.71 823.91 578.81 983.23 567.51
00007403 00000017 700.58 199.46 457.98 529.81 773.43 376.57 965.49 365.17 850.13 508.12 823.45 578.99 983.69 567.70
00007404 00000018 700.45 199.26 457.99 530.67 773.78 376.56 965.56 364.37 850.37 506.85 823.50 578.75 983.62 566.78
00007405 00000019 706.85 194.97 454.77 530.48 786.21 388.33 967.83 373.51 855.02 501.85 828.57 582.19 982.74 568.33
00007406 00000020 699.70 197.35 458.54 534.68 773.04 378.53 965.21 366.64 850.94 511.86 823.93 581.38 984.98 569.44
00007407 00000021 699.12 193.31 459.21 540.17 772.08 380.13 964.58 368.42 850.76 514.82 823.81 582.34 985.49 570.43
00007408 00000022 699.47 194.71 458.63 537.81 771.19 381.79 964.50 370.17 850.15 517.16 823.31 584.50 985.61 572.74
00007409 00000023 700.24 194.14 457.70 540.33 771.84 381.56 964.95 370.62 850.56 517.99 824.21 584.74 986.72 573.50
00007410 00000024 699.84 192.58 457.90 541.18 771.42 381.15 964.76 369.69 850.55 517.13 823.88 584.22 986.43 572.60
00007411 00000025 699.46 190.64 458.52 542.46 772.60 378.77 965.21 367.86 851.28 513.72 824.08 582.12 985.41 570.91
00007412 00000026 700.76 197.25 458.85 533.80 774.02 378.00 966.12 367.01 851.18 511.32 824.82 580.37 985.52 569.29
00007413 00000027 701.83 202.55 457.15 527.39 774.86 377.03 966.07 366.10 850.90 508.86 824.78 579.62 984.40 568.78
00007414 00000028 702.03 204.75 456.53 524.74 774.83 377.40 966.02 365.86 851.03 508.14 824.94 580.02 984.26 568.76
00007415 00000029 701.38 203.38 456.78 526.68 775.02 377.26 965.60 366.24 851.49 509.76 825.18 579.65 984.34 568.68
00007416 00000030 701.08 204.16 457.40 527.63 774.06 378.19 966.19 367.55 851.41 511.81 824.33 581.32 984.40 570.66
00007417 00000031 699.53 199.57 458.69 534.10 773.00 379.20 965.02 368.13 850.96 513.10 823.90 581.68 984.56 570.33
00007418 00000032 707.47 191.35 452.75 535.93 784.91 390.01 965.95 376.06 854.08 506.43 827.83 584.17 981.51 570.82
00007419 00000033 707.31 195.13 453.46 530.73 785.48 389.78 966.43 376.14 854.04 505.44 827.99 583.14 981.52 570.19
00007420 00000034 707.50 195.54 452.15 529.01 785.19 387.05 967.12 373.73 853.24 501.99 826.67 581.16 980.68 568.57
00007421 00000035 707.52 192.43 450.10 530.68 784.30 385.48 966.57 372.29 852.53 499.94 825.18 579.89 980.33 567.53
00007422 00000036 709.04 194.37 449.81 528.07 786.21 384.93 968.03 372.72 853.45 499.60 825.59 578.59 979.99 567.14
00007423 00000037 708.39 196.18 451.51 525.38 786.51 384.97 968.93 372.59 854.53 500.29 826.44 578.67 981.55 567.08
00007424 00000038 708.31 197.15 451.61 525.21 786.25 386.71 967.07 372.88 853.65 500.22 827.96 580.25 981.51 567.41
00007425 00000039 707.79 194.89 452.46 528.32 785.80 386.67 966.96 373.32 854.18 502.19 827.89 580.69 981.28 568.19
00007426 00000040 701.87 196.71 456.33 530.56 774.36 377.07 964.94 365.21 851.05 509.55 824.85 579.14 984.36 567.42
00007427 00000041 708.08 193.04 451.38 530.19 785.89 387.76 967.08 373.43 855.17 501.84 828.01 581.47 981.99 568.08
00007428 00000042 708.70 194.80 450.63 527.06 786.71 385.29 967.66 372.79 854.42 501.55 827.75 579.40 981.72 567.71
00007429 00000043 709.16 196.39 450.77 523.86 787.21 383.95 969.27 371.34 855.73 500.22 828.71 579.12 981.55 567.28
00007430 00000044 709.70 196.62 450.83 523.90 787.51 384.39 969.60 371.38 855.97 499.67 828.90 579.22 982.29 567.04
00007431 00000045 709.25 195.79 450.69 525.73 787.49 384.51 969.21 371.60 855.60 499.60 828.66 579.59 981.89 567.52
00007432 00000046 708.61 198.88 452.87 522.91 786.99 385.66 969.26 372.22 854.91 500.37 828.90 580.14 982.70 567.55
00007433 00000047 707.07 199.49 452.78 525.23 774.78 378.68 970.07 358.61 853.23 508.30 828.35 579.89 986.39 560.72
00007434 00000048 707.94 197.41 453.64 524.92 786.50 385.87 968.61 372.39 854.54 500.36 828.72 579.98 982.98 567.27
00007435 00000049 708.53 199.63 452.72 521.80 786.78 384.51 968.76 371.58 854.40 499.78 828.02 579.03 981.70 566.92
00007436 00000050 707.30 194.98 450.79 526.16 784.85 385.09 966.21 371.11 852.69 498.51 826.63 579.19 979.97 566.19
00007437 00000051 707.22 195.75 450.14 525.17 783.72 384.09 965.88 370.33 851.40 498.09 825.73 579.02 979.48 566.28
00007438 00000052 706.91 190.69 451.16 530.28 783.96 383.48 966.52 369.78 852.60 497.18 826.47 578.31 981.03 565.47
00007439 00000053 708.55 191.77 450.88 528.13 785.51 383.44 967.51 370.11 853.52 498.04 827.79 578.24 981.44 565.73
00007440 00000054 708.14 188.83 450.78 531.19 784.70 383.35 967.12 370.49 853.13 498.76 827.32 579.02 981.02 566.83
00007441 00000055 707.26 192.48 451.48 528.88 784.64 384.52 967.05 370.98 852.90 498.88 826.32 578.84 981.21 566.15
00007442 00000056 706.79 188.98 449.95 532.32 783.66 384.25 965.64 370.81 852.34 499.08 826.00 579.28 980.00 566.61
00007443 00000057 708.45 184.33 449.08 536.77 783.54 383.95 965.47 370.56 851.98 498.64 826.00 579.21 980.21 566.38
00007444 00000058 709.48 181.50 448.17 536.95 783.03 383.11 966.46 369.44 852.59 497.72 827.04 579.09 982.83 565.83
00007445 00000059 710.34 181.28 447.85 537.05 783.89 382.14 967.55 367.94 853.83 496.77 827.85 578.54 983.90 564.78
00007446 00000060 709.83 183.19 449.02 534.72 784.20 382.53 968.26 368.29 854.54 497.13 827.90 578.46 984.23 564.72
00007447 00000061 709.60 187.16 448.95 530.56 784.80 382.74 967.74 368.39 854.07 496.02 828.44 578.15 983.29 564.45
00007448 00000062 709.78 182.13 448.27 535.72 783.82 382.11 967.45 368.68 853.38 496.93 827.71 578.00 983.61 564.87
00007449 00000063 710.59 179.34 448.50 538.25 783.81 380.91 968.24 367.97 853.59 497.26 827.44 577.63 984.55 564.88
00007450 00000064 709.24 186.44 449.26 529.87 784.38 381.23 968.99 367.68 854.67 496.47 828.64 577.31 985.56 564.21
00007451 00000065 708.82 185.11 448.71 531.07 783.10 381.62 967.84 367.90 853.38 495.79 827.02 577.04 984.42 563.80
00007452 00000066 708.37 183.81 448.45 532.53 782.24 382.25 966.57 367.93 852.32 495.75 827.16 577.45 984.27 563.62
00007453 00000067 707.36 186.73 448.44 529.82 782.85 382.11 966.29 367.76 853.91 496.48 827.86 577.12 983.91 563.44
00007454 00000068 707.72 185.87 448.97 530.86 782.61 382.87 966.73 367.92 853.60 496.43 827.70 577.06 985.70 562.76
00007455 00000069 707.56 183.64 448.67 532.56 781.99 383.10 965.49 367.88 853.29 497.24 827.48 575.29 986.32 560.54
00007456 00000070 706.77 187.26 448.35 529.95 781.10 383.88 963.74 367.18 851.84 495.68 826.69 575.61 985.06 559.84
00007457 00000071 706.34 190.15 449.04 526.55 781.53 383.46 963.64 366.79 851.89 494.61 826.95 575.28 984.21 559.67
00007458 00000072 706.28 186.16 449.25 528.66 780.76 382.57 964.30 366.17 851.34 493.64 826.65 574.62 984.43 559.02
00007459 00000073 705.84 182.76 449.67 531.09 779.42 380.02 964.46 364.48 851.27 493.22 825.10 572.76 984.12 557.78
00007460 00000074 705.62 189.09 450.30 523.78 780.94 380.32 964.49 364.71 851.10 491.61 825.70 572.14 982.54 557.30
00007461 00000075 706.36 179.29 449.51 535.59 778.96 379.76 963.59 364.05 850.09 492.96 824.18 571.91 983.36 556.68
00007462 00000076 706.35 177.67 447.90 536.67 778.64 380.95 963.16 365.76 850.03 493.43 824.02 572.64 983.64 557.88
00007463 00000077 707.56 179.16 447.42 537.69 780.17 382.12 963.41 367.06 850.91 494.33 825.35 574.61 984.40 560.00
00007464 00000078 707.33 182.58 448.23 535.03 781.19 383.65 963.85 368.57 851.62 495.97 825.61 575.54 984.38 561.03
00007465 00000079 707.42 189.57 448.52 527.85 782.06 384.08 964.81 368.03 852.02 495.40 826.24 576.03 984.65 560.98
00007466 00000080 707.41 185.98 449.21 531.43 781.24 383.29 964.53 367.94 851.43 495.91 825.61 575.63 984.39 561.04
00007467 00000081 708.18 183.48 447.56 533.20 780.88 381.32 964.18 366.17 851.02 494.23 825.65 574.02 985.06 559.51
00007468 00000082 707.56 179.54 450.59 535.73 780.42 379.90 965.90 364.88 851.15 493.29 825.62 573.37 985.35 558.76
00007469 00000083 708.48 182.55 450.08 532.22 781.35 379.65 967.17 364.84 851.70 493.64 826.18 573.22 985.97 558.94
00007470 00000084 709.78 174.86 447.35 541.27 781.04 380.03 965.83 365.42 851.81 494.59 826.06 573.59 986.56 559.23
00007471 00000085 708.82 184.36 448.80 531.14 782.82 381.64 967.78 367.52 852.58 495.20 826.03 574.28 986.69 560.73
00007472 00000086 708.69 185.75 448.06 531.04 783.17 382.49 966.80 368.02 853.64 496.23 827.31 575.78 985.95 561.99
00007473 00000087 708.44 183.93 449.28 535.08 783.47 382.87 967.16 368.31 854.49 497.67 827.53 576.73 985.95 562.70
00007474 00000088 707.84 184.73 450.11 533.20 783.20 382.73 967.11 368.60 854.05 497.83 827.22 576.49 985.70 562.89
00007475 00000089 709.01 183.42 448.10 533.81 782.55 382.71 966.54 368.37 853.26 497.56 826.86 576.69 985.52 562.93
00007476 00000090 709.28 183.71 447.20 533.34 782.46 382.78 966.67 367.38 853.17 495.45 826.84 576.68 985.90 562.03
00007477 00000091 708.11 186.18 449.03 528.44 782.74 380.53 966.98 366.29 853.12 493.83 827.66 574.80 985.00 561.12
00007478 00000092 707.73 186.47 449.55 528.21 782.55 379.33 967.47 364.08 853.42 492.63 827.38 573.83 985.01 559.33
00007479 00000093 708.25 184.05 450.22 531.66 782.33 379.80 966.97 365.08 852.58 493.07 827.30 574.17 985.15 559.98
00007480 00000094 708.54 177.75 448.56 539.69 780.88 380.84 965.88 366.44 851.65 494.74 825.14 575.22 985.15 561.21
00007481 00000095 707.05 182.40 449.04 536.64 780.90 382.86 965.39 367.30 852.47 496.29 825.49 577.23 984.32 562.42
00007482 00000096 707.06 181.03 448.37 537.91 780.40 382.88 964.47 367.31 851.76 496.22 825.12 577.28 983.72 562.47
00007483 00000097 707.21 183.57 447.14 533.83 780.25 382.45 963.32 366.39 851.16 494.16 825.19 576.12 982.32 561.00
00007484 00000098 707.27 177.10 445.83 539.38 778.34 380.82 962.27 365.04 849.59 492.90 823.54 574.45 982.23 559.36
00007485 00000099 706.63 176.51 445.25 539.80 777.45 380.70 961.13 364.65 848.61 492.63 823.03 574.02 981.34 558.66
00007486 00000100 705.52 176.95 445.80 539.40 777.15 380.31 961.29 364.22 848.68 492.27 823.13 574.16 980.99 558.83
00007487 00000101 705.77 174.64 444.60 541.14 776.88 380.00 961.41 363.74 849.28 492.21 822.96 573.83 981.35 558.34
00007488 00000102 705.88 176.95 443.89 539.38 776.95 380.25 961.04 363.84 848.47 492.19 822.82 573.97 980.73 558.35
00007489 00000103 704.18 175.76 445.12 540.38 775.81 380.08 959.98 364.15 848.33 491.82 822.02 573.71 980.09 558.35
00007490 00000104 703.22 180.81 445.54 536.35 776.06 380.23 959.30 363.77 848.17 491.12 821.85 573.34 979.14 557.69
00007491 00000105 702.67 185.84 445.51 528.94 776.31 379.10 959.68 363.38 847.62 490.52 822.13 572.54 977.56 557.66
00007492 00000106 701.76 185.19 445.31 528.83 776.36 377.96 959.38 362.31 848.63 490.11 822.65 570.92 977.61 556.08
00007493 00000107 701.73 188.73 446.98 524.27 776.98 377.91 959.86 362.29 848.80 490.01 823.21 570.65 977.40 555.87
00007494 00000108 702.09 187.78 446.61 525.56 776.56 378.24 959.58 362.16 848.22 490.26 822.88 570.83 977.89 555.59
00007495 00000109 701.16 184.02 447.74 529.14 776.03 379.74 959.10 363.36 848.59 491.10 822.97 571.19 978.68 555.47
00007496 00000110 701.04 153.55 444.46 557.22 777.19 388.25 957.61 371.83 853.13 493.35 824.25 569.93 982.68 553.26
00007497 00000111 704.00 154.08 439.98 557.65 776.93 390.84 955.82 371.28 852.43 491.67 824.63 571.21 983.35 552.02
00007498 00000112 702.32 159.87 443.74 550.92 776.61 386.11 957.16 369.48 851.30 492.02 823.85 569.58 980.01 552.98
00007499 00000113 704.68 179.53 444.55 533.21 778.23 381.66 958.66 364.54 849.59 489.86 824.94 570.85 978.41 554.56
00007500 00000114 704.91 186.20 447.14 526.02 779.17 378.38 960.83 363.49 849.86 489.44 825.55 570.50 978.18 556.27
00007501 00000115 705.69 186.46 447.25 525.11 780.27 377.67 962.57 362.83 850.95 490.48 826.46 570.19 979.72 556.03
00007502 00000116 705.85 194.52 448.82 516.20 782.61 377.69 964.84 362.91 852.75 490.34 828.25 570.54 980.93 556.74
00007503 00000117 706.57 191.31 450.23 520.54 782.68 377.20 965.38 362.45 853.00 490.68 827.71 570.49 980.90 556.50
00007504 00000118 706.77 191.17 449.50 520.72 783.04 376.98 965.67 362.23 853.34 490.30 828.64 570.36 981.99 556.37
00007505 00000119 706.41 192.00 450.15 519.77 783.43 376.98 966.53 361.86 853.95 490.20 828.78 570.19 983.17 555.94
00007506 00000120 706.54 192.50 449.61 518.79 783.58 376.93 966.68 361.46 853.93 490.23 828.64 570.00 983.55 555.47
00007507 00000121 707.61 192.93 449.15 517.77 784.51 377.16 967.25 361.70 854.23 489.66 828.66 569.32 983.68 554.82
00007508 00000122 707.37 194.78 449.10 515.61 784.91 377.05 967.31 361.34 854.82 489.46 829.12 568.75 983.41 554.06
00007509 00000123 707.47 194.35 449.12 516.42 784.78 376.47 967.03 361.47 854.56 489.50 829.08 568.45 982.70 554.31
00007510 00000124 706.88 194.62 449.62 516.78 784.42 376.53 967.29 361.01 854.72 490.44 828.97 568.61 983.79 554.02
00007511 00000125 706.93 192.84 449.52 518.71 784.79 376.48 967.57 361.66 855.08 490.89 828.91 568.16 983.94 554.05
00007512 00000126 706.35 190.46 449.07 520.71 783.75 376.03 967.43 360.80 855.26 490.37 828.49 568.44 983.66 553.94
00007513 00000127 706.63 193.21 446.70 517.36 783.81 375.98 966.02 360.27 854.49 489.16 828.53 567.30 983.27 552.52
00007514 00000128 706.17 193.96 446.64 516.63 783.27 376.03 965.75 359.79 853.94 488.34 828.05 567.57 982.52 552.44
00007515 00000129 706.26 198.50 446.95 512.59 783.83 375.95 965.74 359.13 854.23 487.56 828.50 567.57 982.77 552.09
00007516 00000130 706.00 188.20 448.20 521.12 782.82 374.33 966.45 358.77 854.13 488.52 827.72 566.43 983.83 551.67
00007517 00000131 708.04 195.80 447.08 512.69 784.58 373.70 967.56 357.84 854.81 486.13 827.55 564.68 983.59 549.80
00007518 00000132 707.67 191.83 446.50 516.37 783.38 372.63 967.33 356.44 854.36 486.33 826.77 564.21 983.87 548.94
00007519 00000133 707.12 190.61 446.20 517.67 783.47 371.71 967.34 355.78 854.92 486.07 826.79 563.48 984.27 548.40
00007520 00000134 706.45 191.66 446.13 516.00 782.44 370.41 966.92 354.42 854.19 485.45 826.05 562.99 983.09 547.79
00007521 00000135 706.32 187.04 447.52 518.34 782.58 369.50 966.91 352.74 855.22 484.46 827.59 561.90 983.75 545.85
00007522 00000136 707.99 184.56 445.77 520.02 782.55 367.28 966.26 349.90 855.66 482.71 829.26 560.75 984.47 543.98
00007523 00000137 706.65 184.65 446.29 520.36 781.53 366.33 965.54 349.06 854.76 481.93 827.88 559.60 983.03 542.79
00007524 00000138 706.57 188.50 443.69 516.39 781.52 366.99 964.89 349.67 854.57 480.66 827.16 559.15 981.90 542.40
00007525 00000139 705.96 183.47 441.65 521.33 779.45 366.45 962.70 347.46 853.48 480.63 826.78 557.46 985.40 539.18
00007526 00000140 707.18 183.61 438.79 521.09 780.58 368.38 960.82 347.74 854.62 479.67 828.36 555.33 988.77 535.67
00007527 00000141 707.01 178.49 438.92 526.07 780.02 366.77 960.00 345.51 854.78 479.35 829.87 553.47 992.52 533.14
00007528 00000142 708.89 177.41 433.97 527.94 779.64 366.24 957.99 344.85 853.11 479.87 829.37 551.49 993.36 530.94
00007529 00000143 705.89 173.88 436.91 531.30 777.49 364.61 958.28 343.71 852.77 480.83 827.98 550.60 993.98 530.31
00007530 00000144 704.25 167.20 436.86 536.59 776.30 364.02 957.26 343.13 852.52 480.66 826.97 549.23 994.31 528.84
00007531 00000145 704.69 171.26 437.25 535.27 776.66 363.58 957.40 343.01 852.37 481.50 827.12 548.39 996.14 528.28
00007532 00000146 705.29 172.26 436.26 534.40 776.51 364.02 958.30 343.41 852.70 482.94 827.87 549.20 997.56 528.98
00007533 00000147 706.81 187.11 435.64 524.27 778.51 367.97 960.87 347.61 853.13 485.60 826.54 551.84 997.78 532.32
00007534 00000148 706.80 196.32 440.33 516.54 780.70 370.48 964.27 351.55 854.00 489.73 827.04 554.46 999.62 536.63
00007535 00000149 706.27 192.42 441.25 521.62 781.52 372.19 964.78 353.96 855.08 490.94 826.72 555.86 998.99 538.68
00007536 00000150 707.83 190.27 439.40 521.98 783.06 372.06 965.11 351.45 857.09 489.10 828.88 554.14 1001.06 534.91
00007537 00000151 709.78 172.34 441.81 528.82 782.67 364.37 964.18 341.64 859.10 482.04 833.40 547.46 1001.91 525.42
00007538 00000152 713.03 167.09 444.28 521.29 782.03 351.64 966.07 323.72 860.27 467.33 840.22 539.36 1007.48 512.60
00007539 00000153 717.10 144.05 442.97 534.36 782.56 340.40 970.23 307.71 859.95 451.43 845.11 531.01 1012.20 499.77
00007540 DELETE   721.87 130.51 444.03 537.59 788.47 322.13 987.94 291.71 870.11 435.08 842.34 522.23 1019.20 493.41
00007541 00000155 732.45 137.27 436.74 528.21 797.65 320.49 994.11 291.05 877.30 430.96 848.21 519.61 1023.32 491.72
00007542 00000156 737.79 130.03 435.91 542.14 803.21 324.46 997.21 296.05 880.20 436.82 855.50 523.79 1030.97 496.41
00007543 DELETE   737.18 143.47 435.54 545.42 806.59 335.79 995.25 315.70 885.37 453.19 860.93 534.23 1032.89 513.98
00007544 00000158 739.59 184.96 436.51 519.52 809.77 348.90 998.76 338.76 886.24 473.70 859.91 543.24 1028.63 531.32
00007545 00000159 734.94 186.04 439.48 525.86 806.82 356.99 996.11 347.45 882.22 484.79 858.66 552.57 1024.49 541.64
00007546 00000160 739.12 185.41 434.36 520.85 806.71 350.54 994.22 341.49 878.58 475.88 858.00 546.37 1023.67 535.41
00007547 00000161 743.42 170.33 432.80 525.42 810.23 343.25 995.54 324.74 884.21 455.05 862.94 540.50 1030.69 521.54
00007548 DELETE   745.49 151.33 436.99 530.66 814.04 336.67 1000.65 310.05 888.20 442.02 869.32 534.15 1035.76 508.30
00007549 00000163 754.68 135.34 436.01 536.47 819.27 331.07 1008.38 297.56 892.55 434.78 874.78 528.32 1045.30 496.34
00007550 DELETE   750.95 127.76 449.41 541.83 826.31 328.55 1013.71 299.32 903.65 433.63 883.82 525.37 1051.31 498.06
00007551 DELETE   760.64 143.10 439.35 536.06 827.61 333.97 1020.44 306.01 903.88 446.00 882.24 532.62 1055.23 505.65
00007552 00000166 763.39 152.72 438.06 534.93 832.43 340.71 1023.74 314.86 909.30 450.90 883.50 536.78 1056.29 511.80
00007553 00000167 769.05 149.59 435.07 533.50 835.66 334.52 1028.95 310.92 907.63 443.00 882.16 532.03 1056.06 509.35
00007554 DELETE   775.04 153.78 437.19 510.46 837.97 317.28 1031.33 289.54 909.46 420.90 882.20 515.79 1055.53 489.93
00007555 DELETE   781.81 123.37 432.83 527.86 851.87 312.12 1038.49 286.55 923.93 401.56 888.70 504.40 1059.26 482.12
00007556 00000170 787.56 130.01 431.01 516.71 859.27 304.19 1044.28 278.42 931.23 390.57 895.54 492.67 1065.30 470.54
