Video ID: 	vRiLqYTn60o
H: 	2160
W: 	3840
FPS: 	25.0

FRAME INDEX X0 Y0 W H [Landmarks (5 Points)]

00038654 00000000 1284.59 286.85 526.94 712.46 1532.72 564.63 1749.35 597.23 1680.68 709.03 1533.21 824.16 1689.03 847.37
00038655 00000001 1281.31 284.04 522.31 698.35 1525.91 553.98 1743.28 579.30 1674.16 695.75 1522.59 815.27 1692.64 833.36
00038656 00000002 1271.53 274.41 521.23 709.52 1518.84 555.91 1736.03 579.24 1672.88 688.16 1530.19 810.47 1695.38 827.09
00038657 00000003 1270.97 270.03 516.06 703.31 1516.18 565.80 1732.56 564.45 1677.21 682.13 1538.41 821.56 1705.28 819.01
00038658 00000004 1269.62 263.40 504.22 714.99 1510.44 585.13 1726.15 571.38 1673.76 694.35 1538.45 829.28 1707.40 819.56
00038659 00000005 1261.44 275.31 504.63 708.63 1494.67 600.47 1713.94 576.49 1661.90 709.47 1531.56 851.46 1700.65 834.06
00038660 DELETE   1246.66 273.65 506.87 717.87 1481.84 603.43 1698.98 575.90 1649.93 711.26 1520.86 855.06 1688.06 835.10
00038661 DELETE   1231.24 249.70 512.62 729.51 1468.51 598.39 1683.57 563.69 1638.45 698.10 1514.98 843.67 1676.49 818.84
00038662 00000008 1222.40 261.30 518.98 713.37 1455.90 592.04 1669.27 559.16 1632.83 694.86 1509.44 832.16 1672.85 807.29
00038663 00000009 1219.33 244.69 517.12 716.95 1454.35 582.38 1668.11 547.09 1631.80 680.28 1505.26 825.37 1672.11 799.50
00038664 00000010 1216.15 241.02 514.41 726.31 1455.58 579.61 1664.68 546.53 1629.03 682.78 1498.32 823.41 1663.76 798.94
00038665 00000011 1215.07 242.53 517.88 730.53 1453.82 582.34 1665.60 548.26 1627.61 688.97 1494.48 825.89 1662.22 800.59
00038666 00000012 1215.36 255.70 515.64 724.95 1450.33 588.12 1663.33 561.05 1626.24 694.16 1493.74 828.88 1661.83 808.54
00038667 00000013 1215.25 252.84 514.95 718.79 1450.50 588.00 1663.31 560.04 1624.73 696.80 1496.25 828.88 1659.69 807.85
00038668 00000014 1213.61 242.53 516.29 714.36 1449.28 581.59 1663.47 550.91 1622.32 692.43 1497.43 827.08 1657.67 803.95
00038669 00000015 1210.10 243.44 515.25 711.66 1447.83 578.66 1661.25 547.61 1619.76 688.70 1493.86 824.51 1654.79 800.78
00038670 00000016 1203.91 228.88 518.05 733.84 1447.82 573.94 1659.95 544.76 1619.44 683.74 1494.33 821.42 1650.73 799.24
00038671 00000017 1207.21 237.87 516.74 730.38 1450.18 571.87 1660.92 545.21 1619.95 683.56 1492.91 822.50 1650.08 801.55
00038672 00000018 1205.67 247.77 519.05 733.80 1444.40 580.71 1660.03 555.07 1620.30 694.13 1492.50 832.05 1653.12 811.90
00038673 00000019 1215.57 265.68 510.65 720.82 1449.53 591.35 1663.19 568.37 1619.52 704.63 1489.75 841.08 1651.16 823.03
00038674 00000020 1216.78 266.72 512.21 715.87 1449.07 596.13 1666.50 570.66 1620.03 708.04 1491.35 845.62 1656.19 825.61
00038675 00000021 1215.40 264.06 513.00 712.61 1449.00 596.94 1665.69 567.35 1621.51 704.87 1497.15 840.18 1661.05 817.36
00038676 00000022 1211.30 247.63 513.73 707.05 1447.92 588.86 1661.20 551.76 1619.89 692.01 1493.23 824.37 1662.16 797.07
00038677 00000023 1208.11 245.01 514.10 708.47 1441.36 575.08 1659.35 543.18 1614.90 672.25 1487.41 814.82 1660.63 790.58
00038678 00000024 1198.12 231.18 516.41 723.25 1440.39 567.53 1651.93 534.05 1614.98 663.11 1485.04 805.30 1655.31 780.61
00038679 00000025 1196.19 230.38 519.89 729.02 1439.29 561.20 1651.73 530.34 1615.35 662.89 1485.79 809.51 1650.66 785.72
00038680 00000026 1201.78 230.72 519.95 734.00 1441.61 565.65 1658.22 537.80 1613.56 676.03 1484.85 817.06 1648.59 795.25
00038681 00000027 1209.82 248.15 516.23 716.28 1447.03 571.83 1662.51 549.04 1617.11 681.63 1487.55 821.35 1651.99 803.14
00038682 00000028 1212.69 248.97 518.11 711.95 1450.66 569.95 1666.29 548.23 1620.91 684.33 1489.46 822.07 1652.86 804.71
00038683 00000029 1210.92 232.41 521.86 721.06 1448.70 569.41 1668.43 546.92 1620.06 680.98 1491.35 820.22 1654.53 802.45
00038684 00000030 1208.00 231.72 521.30 716.91 1446.02 564.43 1664.84 541.89 1616.32 674.38 1491.62 814.38 1653.46 795.83
00038685 00000031 1207.86 234.77 520.74 710.16 1441.74 564.98 1662.97 540.81 1612.38 676.68 1487.20 812.71 1653.95 792.98
00038686 00000032 1209.29 237.31 518.96 711.12 1442.36 572.88 1663.08 548.45 1613.03 683.49 1487.54 817.66 1652.52 798.26
00038687 00000033 1208.24 238.76 517.53 718.01 1443.79 576.13 1660.34 551.37 1612.86 684.51 1483.94 820.05 1648.72 800.99
00038688 00000034 1203.79 240.57 517.45 712.47 1439.43 574.26 1658.40 546.52 1612.18 681.66 1480.46 817.53 1649.16 796.64
00038689 00000035 1200.28 249.04 511.89 705.56 1434.37 568.73 1650.93 546.46 1601.65 674.82 1477.92 814.79 1639.87 796.56
00038690 00000036 1195.21 252.81 511.73 699.91 1429.32 568.03 1646.49 545.93 1598.18 674.36 1470.89 814.95 1635.98 796.90
00038691 00000037 1188.34 255.06 512.03 698.34 1423.06 570.92 1639.58 547.74 1592.90 678.64 1465.22 819.04 1630.33 800.36
00038692 00000038 1186.54 262.56 504.20 693.86 1419.22 569.67 1632.45 549.15 1586.81 677.11 1460.71 821.31 1624.12 804.18
00038693 00000039 1180.92 259.69 505.56 693.71 1415.28 569.08 1627.94 550.60 1582.18 676.60 1453.59 821.82 1617.02 806.81
00038694 00000040 1168.91 275.84 511.54 681.99 1402.43 570.91 1610.86 553.78 1569.62 677.62 1443.56 821.33 1601.50 807.07
00038695 00000041 1159.01 268.55 515.31 694.25 1395.09 573.15 1605.93 555.74 1564.51 679.66 1436.14 824.02 1596.71 809.71
00038696 00000042 1149.45 270.80 516.19 698.81 1388.95 573.38 1599.49 553.07 1561.32 684.51 1426.93 829.25 1592.43 812.77
00038697 00000043 1141.00 258.62 514.02 710.16 1381.54 577.40 1591.88 551.01 1556.62 687.60 1425.96 830.43 1586.90 809.89
00038698 00000044 1135.08 254.38 513.06 711.43 1376.28 577.80 1585.54 549.95 1550.67 685.94 1423.31 830.63 1583.07 808.91
00038699 00000045 1129.73 261.27 511.78 710.41 1373.08 574.10 1582.03 550.93 1546.75 679.61 1419.00 827.68 1578.77 809.13
00038700 00000046 1121.94 244.97 512.14 729.80 1370.27 575.28 1580.59 546.23 1544.34 677.77 1411.54 824.89 1573.53 803.65
00038701 00000047 1119.04 243.74 511.54 731.95 1364.43 571.18 1576.63 546.37 1535.34 674.78 1408.18 823.09 1569.07 804.58
00038702 00000048 1117.30 245.04 510.33 726.81 1362.19 571.48 1574.53 548.58 1532.09 673.20 1404.63 824.35 1567.73 807.23
00038703 00000049 1122.38 262.57 506.93 702.24 1360.82 569.20 1574.43 543.78 1532.56 678.49 1407.11 827.35 1571.51 806.80
00038704 00000050 1118.46 259.30 508.75 700.12 1358.36 573.38 1572.91 540.68 1534.19 679.39 1402.53 824.95 1574.78 800.07
00038705 00000051 1114.72 251.12 508.61 697.72 1353.24 570.50 1568.32 537.57 1530.87 677.74 1397.79 820.15 1572.16 794.95
00038706 00000052 1109.26 245.30 509.52 698.87 1345.62 564.21 1561.50 532.36 1522.89 672.66 1394.64 815.86 1564.66 790.83
00038707 00000053 1108.29 236.84 507.06 703.97 1342.74 561.32 1558.47 530.28 1515.73 670.98 1388.90 813.30 1557.11 789.31
00038708 00000054 1109.17 244.29 507.58 706.19 1339.75 560.97 1556.71 532.81 1512.55 674.20 1387.80 817.35 1556.82 794.39
00038709 00000055 1109.80 253.15 511.54 703.40 1345.55 566.42 1561.68 540.51 1518.10 679.97 1398.60 823.73 1561.11 802.26
00038710 00000056 1113.76 260.86 513.09 704.07 1348.71 569.53 1567.72 544.55 1518.74 682.20 1395.76 821.63 1564.28 802.02
00038711 00000057 1117.77 255.90 511.38 715.15 1354.03 572.01 1572.07 543.37 1524.31 683.59 1395.48 821.21 1568.81 799.57
00038712 00000058 1117.48 250.38 514.79 721.33 1352.45 569.26 1572.92 542.63 1526.24 681.88 1396.01 824.21 1570.84 803.68
00038713 00000059 1121.94 251.37 513.83 717.84 1354.60 562.65 1576.18 538.88 1528.37 677.94 1400.24 824.68 1569.85 805.20
00038714 00000060 1124.59 253.05 515.12 721.56 1359.21 564.36 1579.70 548.88 1526.81 678.69 1400.66 822.28 1567.46 809.07
00038715 00000061 1129.82 254.35 517.10 724.48 1366.36 574.50 1583.78 554.14 1536.39 683.47 1406.68 825.32 1573.01 809.16
00038716 00000062 1136.86 255.01 519.54 722.23 1371.44 578.23 1588.93 554.57 1542.36 688.32 1412.12 826.23 1578.98 807.90
00038717 00000063 1144.63 255.52 516.66 715.22 1377.05 573.91 1594.49 553.26 1548.70 691.22 1415.11 825.82 1585.24 809.80
00038718 00000064 1151.96 260.25 515.88 699.10 1384.43 569.07 1602.67 549.26 1553.88 684.33 1423.36 825.10 1589.62 809.06
00038719 00000065 1157.81 263.39 512.52 693.96 1391.79 567.76 1606.26 547.56 1559.52 683.58 1424.74 823.78 1591.90 808.41
00038720 00000066 1163.32 271.11 513.11 685.79 1396.88 566.85 1610.65 551.03 1559.85 684.83 1427.22 821.00 1593.05 808.51
00038721 00000067 1170.06 261.11 516.05 704.85 1402.05 573.63 1614.44 559.43 1565.06 687.53 1442.57 825.32 1599.05 813.98
00038722 00000068 1177.08 276.64 514.14 695.22 1408.32 568.75 1617.77 561.50 1569.40 683.55 1450.71 824.80 1602.61 817.01
00038723 00000069 1188.38 268.78 500.13 705.53 1418.15 568.12 1631.45 558.36 1577.04 684.32 1456.00 824.37 1615.27 814.52
00038724 00000070 1190.82 269.85 500.15 706.47 1421.48 569.56 1634.98 559.46 1582.29 686.96 1454.83 825.01 1619.36 815.39
00038725 00000071 1190.68 256.16 503.95 721.80 1425.78 573.01 1639.20 561.66 1586.45 687.76 1457.82 823.29 1621.34 813.43
00038726 00000072 1191.66 252.69 507.59 726.00 1427.47 574.43 1643.72 562.59 1590.31 691.76 1460.22 824.52 1625.47 814.38
00038727 00000073 1194.61 249.46 508.81 731.27 1432.23 574.43 1647.70 564.79 1593.02 692.31 1464.63 823.48 1626.35 815.19
00038728 00000074 1197.95 255.69 506.43 728.08 1435.28 575.34 1649.10 566.12 1596.52 692.06 1466.63 824.51 1627.59 816.32
00038729 00000075 1195.49 248.47 511.64 730.17 1435.77 575.80 1651.16 564.76 1597.28 693.04 1466.07 823.16 1628.78 814.22
00038730 00000076 1195.48 244.11 513.47 727.37 1435.14 577.30 1652.00 563.98 1598.69 694.36 1469.94 824.63 1630.88 813.94
00038731 00000077 1198.85 252.80 509.98 716.95 1432.33 578.91 1653.20 565.25 1600.66 693.88 1467.42 827.37 1635.68 816.29
00038732 00000078 1197.35 240.81 510.88 727.74 1434.61 580.54 1652.78 562.22 1601.77 697.07 1466.38 826.15 1637.89 813.14
00038733 00000079 1201.57 248.89 510.46 722.33 1437.42 579.79 1655.69 564.32 1604.67 700.47 1467.62 826.76 1640.21 815.42
00038734 00000080 1203.43 254.21 507.77 721.56 1437.81 582.13 1654.28 568.03 1601.66 703.37 1466.76 827.57 1637.56 816.89
00038735 00000081 1199.98 250.33 507.56 729.97 1438.10 581.61 1650.88 571.33 1597.36 700.67 1465.75 827.62 1629.08 819.86
00038736 00000082 1196.29 253.61 507.37 724.59 1429.00 578.89 1646.09 567.66 1588.66 700.27 1455.93 822.60 1622.83 813.84
00038737 00000083 1189.67 262.77 504.39 709.22 1414.29 573.25 1633.11 566.86 1572.14 694.27 1444.44 821.18 1615.23 814.98
00038738 00000084 1181.69 255.14 504.37 716.85 1402.51 570.89 1622.67 564.18 1560.39 694.64 1429.51 822.43 1604.52 816.66
00038739 00000085 1169.99 270.62 513.34 694.50 1392.24 570.02 1613.02 559.50 1550.35 688.16 1418.94 818.97 1593.56 810.47
00038740 00000086 1163.70 261.80 514.95 705.20 1387.00 564.69 1606.50 553.82 1545.43 684.90 1417.29 819.95 1586.65 810.97
00038741 00000087 1161.85 258.33 516.68 710.98 1385.61 561.59 1605.88 553.60 1543.97 684.20 1413.94 819.04 1582.47 812.38
00038742 00000088 1167.32 258.33 514.03 711.32 1389.80 566.14 1611.71 558.75 1548.40 689.84 1415.80 821.28 1588.15 815.13
00038743 00000089 1170.74 253.07 514.61 716.64 1396.49 570.51 1615.28 561.15 1553.98 693.00 1422.30 822.45 1590.48 815.20
00038744 00000090 1172.74 264.31 513.60 710.01 1399.97 566.40 1615.87 562.63 1554.29 693.41 1420.19 822.29 1588.39 818.77
00038745 00000091 1172.70 272.30 512.24 706.15 1403.77 565.41 1615.98 563.48 1556.65 687.25 1421.82 820.41 1587.82 818.25
00038746 00000092 1168.63 270.34 522.21 716.44 1404.15 567.72 1615.70 569.45 1561.49 682.98 1430.95 819.86 1590.19 820.56
00038747 00000093 1171.57 266.22 517.84 715.25 1408.75 564.65 1623.66 561.67 1566.48 671.47 1433.43 816.21 1598.06 812.91
00038748 00000094 1171.00 272.13 522.59 713.66 1409.64 567.72 1620.50 564.06 1571.01 673.27 1440.91 814.02 1601.39 810.34
00038749 00000095 1174.65 274.37 519.86 711.23 1417.40 565.07 1625.51 562.02 1579.31 672.26 1452.91 815.81 1606.44 811.54
00038750 00000096 1182.61 263.55 515.25 713.83 1429.32 563.14 1632.89 551.50 1592.04 666.87 1469.45 815.89 1620.26 806.53
00038751 00000097 1189.70 238.37 503.27 744.52 1441.21 566.89 1645.14 546.69 1607.48 671.02 1477.86 820.39 1632.72 805.26
00038752 DELETE   1199.81 242.02 499.13 734.70 1451.96 567.61 1652.23 547.18 1623.71 673.92 1487.42 822.68 1643.71 807.66
00038753 DELETE   1202.67 243.21 506.22 728.31 1459.11 568.47 1658.26 545.33 1637.49 672.73 1503.11 822.79 1658.07 805.60
00038754 00000100 1210.80 250.83 510.63 718.17 1467.84 567.37 1666.35 547.73 1645.36 669.78 1511.06 816.44 1666.25 801.62
00038755 00000101 1220.21 257.00 509.81 711.52 1480.03 562.86 1674.16 550.20 1651.92 665.86 1518.76 813.86 1669.85 803.19
00038756 00000102 1231.98 247.18 502.72 734.68 1488.07 567.40 1682.82 551.81 1663.02 669.14 1520.45 817.48 1674.82 806.79
00038757 00000103 1236.40 236.99 504.67 753.49 1492.30 565.68 1688.87 550.83 1664.54 668.94 1523.56 818.94 1678.02 808.91
00038758 00000104 1236.41 233.38 507.33 756.34 1493.91 565.26 1691.64 551.95 1666.13 669.47 1524.30 818.71 1678.46 809.92
00038759 00000105 1238.86 235.99 505.48 749.71 1492.02 563.47 1690.94 553.49 1662.64 671.15 1521.49 818.04 1676.12 811.25
00038760 00000106 1231.97 250.85 509.65 717.52 1482.92 558.75 1684.03 550.83 1653.77 668.53 1513.34 813.01 1670.64 805.92
00038761 DELETE   1223.13 248.24 512.77 710.41 1468.98 554.95 1675.55 545.69 1640.76 665.70 1504.86 806.73 1667.10 798.14
00038762 DELETE   1211.19 248.65 517.38 698.89 1457.47 542.35 1670.51 535.61 1627.48 659.55 1499.36 803.74 1657.48 795.28
00038763 DELETE   1197.88 233.57 519.66 712.02 1442.02 534.57 1656.77 529.23 1610.84 645.39 1479.73 790.07 1640.83 783.21
00038764 00000110 1195.56 219.01 514.24 717.31 1427.86 520.94 1647.67 525.28 1592.28 632.27 1457.83 779.78 1628.49 780.70
00038765 00000111 1192.09 207.69 510.09 707.51 1416.96 512.82 1640.11 517.26 1579.23 624.05 1447.93 767.85 1621.33 769.17
00038766 00000112 1183.23 211.48 516.18 691.91 1404.67 504.84 1628.68 503.13 1568.15 612.56 1443.29 758.55 1613.85 753.90
00038767 00000113 1178.94 203.01 515.11 694.55 1399.09 500.25 1626.03 500.98 1561.89 609.75 1433.96 756.67 1605.91 754.67
00038768 00000114 1175.55 203.78 513.58 693.46 1397.61 500.16 1622.89 500.92 1558.58 610.25 1433.29 756.48 1600.75 754.53
00038769 00000115 1171.84 212.54 510.04 679.37 1390.59 505.47 1614.67 498.72 1547.39 614.94 1438.83 758.27 1591.41 750.21
00038770 00000116 1166.20 204.29 506.40 686.42 1382.48 506.24 1606.15 498.19 1538.04 615.23 1431.01 757.72 1582.91 748.64
00038771 DELETE   1154.57 200.40 509.96 693.16 1370.28 505.08 1596.71 494.74 1528.63 613.93 1419.14 756.74 1576.79 745.94
00038772 DELETE   1142.30 190.05 509.12 694.31 1360.83 506.46 1586.14 489.65 1520.18 609.93 1408.13 754.45 1569.86 740.17
00038773 00000119 1132.04 198.04 504.21 689.46 1345.65 494.10 1571.87 481.85 1505.16 602.97 1395.96 752.10 1560.80 739.66
00038774 00000120 1119.97 193.64 504.99 686.48 1333.39 487.54 1557.62 474.88 1497.90 594.72 1377.15 745.77 1551.66 733.03
00038775 00000121 1112.77 189.90 510.68 703.73 1332.67 484.22 1554.85 474.44 1497.23 590.04 1381.07 747.32 1544.31 736.20
00038776 00000122 1114.99 196.70 509.81 710.03 1334.50 490.50 1556.26 477.62 1498.67 599.54 1381.65 755.97 1547.92 742.74
00038777 00000123 1118.60 195.75 507.70 719.32 1340.47 503.22 1560.61 488.43 1506.76 613.49 1388.21 768.45 1556.23 754.26
00038778 00000124 1121.16 205.44 508.52 713.68 1343.53 511.57 1567.23 499.90 1508.44 624.00 1383.92 774.13 1555.90 763.29
00038779 00000125 1121.26 203.95 512.32 717.34 1347.59 513.78 1570.87 498.30 1516.43 626.10 1394.06 776.50 1560.50 762.28
00038780 00000126 1124.34 196.32 510.57 717.39 1345.78 506.75 1572.40 491.90 1514.18 619.93 1391.41 770.12 1561.55 756.34
00038781 00000127 1125.66 192.41 508.19 716.65 1345.19 502.59 1572.52 489.52 1513.38 612.98 1389.80 765.48 1564.27 753.01
00038782 00000128 1124.82 194.00 509.61 713.20 1347.39 502.79 1574.09 488.42 1515.11 611.39 1391.00 763.60 1564.20 750.48
00038783 00000129 1126.86 199.68 507.64 707.48 1349.59 506.24 1572.64 492.19 1516.31 611.57 1394.21 763.02 1565.24 749.89
00038784 00000130 1126.92 199.95 509.75 710.52 1349.13 512.27 1578.43 495.04 1518.49 614.03 1392.99 765.27 1569.38 750.65
00038785 00000131 1127.76 204.11 510.73 708.14 1350.96 514.62 1579.94 498.23 1520.66 618.60 1392.40 765.39 1570.08 751.61
00038786 00000132 1130.03 208.39 507.93 707.06 1351.77 517.90 1580.32 500.49 1522.18 622.02 1395.83 769.90 1570.59 755.11
00038787 00000133 1129.56 205.38 513.86 711.69 1355.96 520.41 1584.05 504.87 1526.12 624.01 1396.14 770.83 1573.32 757.91
00038788 00000134 1131.83 204.22 512.92 725.20 1359.31 519.71 1585.18 508.16 1526.66 624.36 1399.75 773.27 1571.82 762.90
00038789 00000135 1132.78 208.87 515.23 718.02 1359.61 520.47 1586.16 513.28 1526.24 628.35 1395.57 774.55 1570.70 767.97
00038790 00000136 1132.92 210.58 514.28 722.65 1361.30 523.46 1585.66 515.12 1525.35 630.26 1400.31 778.19 1567.52 770.51
00038791 00000137 1132.61 209.21 517.04 736.07 1363.39 523.67 1586.13 514.23 1526.87 631.10 1402.16 780.21 1566.22 771.70
00038792 00000138 1133.82 210.80 518.01 727.48 1361.80 522.97 1588.43 514.43 1528.65 635.17 1397.30 781.58 1569.03 773.82
00038793 00000139 1138.15 213.85 514.66 710.72 1363.79 529.77 1588.54 515.85 1531.40 640.27 1396.92 781.50 1572.92 770.46
00038794 00000140 1138.35 216.82 515.14 707.81 1362.41 529.30 1588.33 515.96 1530.87 641.25 1397.45 783.13 1573.05 772.15
00038795 00000141 1134.90 208.04 516.68 717.87 1360.85 529.39 1586.48 515.86 1527.76 644.15 1396.12 784.21 1569.62 773.49
00038796 00000142 1135.53 211.16 515.32 716.86 1359.80 531.75 1585.55 517.82 1527.19 646.04 1396.42 787.97 1570.21 777.12
00038797 00000143 1134.79 228.22 512.87 700.82 1358.68 542.01 1584.03 530.89 1522.15 648.87 1392.06 789.72 1569.93 781.26
00038798 00000144 1133.61 221.86 514.41 703.30 1358.66 543.99 1583.48 526.55 1524.00 649.13 1397.09 788.78 1571.15 775.88
00038799 00000145 1133.98 225.73 513.15 704.72 1358.41 544.54 1583.58 529.15 1523.41 647.27 1395.10 785.36 1570.06 773.82
00038800 00000146 1132.64 228.26 516.66 725.56 1358.64 541.48 1583.93 534.02 1518.40 646.50 1393.45 786.35 1564.28 779.76
00038801 00000147 1130.55 238.00 523.26 725.73 1358.66 544.03 1585.47 539.32 1517.20 653.10 1388.41 793.40 1563.43 788.83
00038802 00000148 1139.17 249.35 520.93 713.20 1366.57 557.43 1586.29 545.03 1523.38 674.22 1392.53 803.54 1566.61 793.90
00038803 00000149 1154.11 265.48 513.91 705.60 1379.13 567.55 1597.26 560.96 1531.44 691.84 1401.43 812.74 1574.34 807.22
00038804 DELETE   1166.90 292.52 508.81 705.08 1391.48 588.10 1610.39 589.67 1542.70 720.34 1412.09 842.95 1587.11 843.03
00038805 00000151 1175.22 316.77 516.83 697.04 1403.58 605.59 1621.03 608.32 1555.04 741.96 1420.75 860.43 1594.59 860.91
00038806 00000152 1174.10 306.05 527.92 715.80 1412.52 604.48 1632.71 610.27 1565.93 742.38 1424.43 865.17 1595.48 868.76
00038807 00000153 1176.11 290.29 526.73 725.15 1416.30 598.84 1635.24 603.76 1569.99 733.22 1425.72 855.54 1597.30 859.29
00038808 00000154 1182.25 274.33 520.50 730.06 1424.18 591.19 1636.81 595.75 1575.60 716.43 1433.18 840.58 1601.40 844.28
00038809 00000155 1182.75 255.64 517.44 739.94 1431.03 582.43 1643.01 582.86 1584.16 709.44 1438.65 830.24 1605.50 831.64
CROP_BBOX: 934 0 2152 1230
