Video ID: 	ZOWHN6yaVyk
H: 	2160
W: 	3840
FPS: 	24.0

FRAME INDEX X0 Y0 W H [Landmarks (5 Points)]

00001913 00000000 1949.61 528.73 704.64 1017.97 2217.65 957.47 2547.74 913.25 2471.92 1113.46 2282.22 1303.65 2565.74 1270.29
00001914 00000001 1959.92 557.00 704.84 1007.94 2236.51 962.35 2563.69 925.83 2484.38 1125.57 2291.16 1314.62 2571.24 1287.92
00001915 00000002 1967.51 560.11 706.63 1005.88 2244.55 960.75 2572.52 925.32 2488.71 1133.11 2295.36 1314.20 2577.42 1288.27
00001916 00000003 1968.11 548.45 707.44 1006.11 2240.38 958.56 2572.79 917.27 2485.81 1133.39 2296.37 1310.22 2581.30 1279.48
00001917 00000004 1972.52 535.66 707.15 1008.00 2243.07 952.22 2570.70 909.41 2487.86 1124.55 2299.07 1301.33 2583.37 1269.73
00001918 00000005 1985.21 500.04 713.64 1011.69 2264.06 922.61 2583.77 881.87 2507.39 1088.61 2333.35 1274.22 2591.16 1244.12
00001919 00000006 1965.22 495.35 722.88 986.13 2258.08 915.33 2580.33 881.35 2500.33 1079.64 2333.92 1251.03 2589.37 1223.02
00001920 00000007 1960.57 485.32 725.94 974.33 2259.25 893.39 2575.61 870.77 2498.17 1044.01 2314.60 1232.00 2577.03 1217.44
00001921 00000008 1969.03 479.83 721.59 973.79 2263.71 878.61 2581.12 863.42 2499.84 1031.37 2311.13 1219.09 2582.74 1209.27
00001922 DELETE   1964.74 452.31 699.57 934.38 2256.32 840.02 2566.62 826.61 2492.22 982.21 2310.20 1172.31 2572.05 1162.17
00001923 DELETE   1958.11 457.74 700.48 915.54 2246.66 823.79 2551.41 816.12 2474.92 965.96 2303.93 1150.97 2550.98 1144.64
00001924 00000011 1950.80 452.92 702.23 913.25 2237.93 817.33 2543.81 808.10 2470.22 953.56 2290.83 1139.56 2547.87 1132.36
00001925 00000012 1941.35 444.56 700.12 919.41 2225.99 806.29 2530.30 798.35 2456.43 942.27 2273.34 1130.03 2534.78 1124.05
00001926 00000013 1949.34 432.84 691.28 899.82 2232.59 791.56 2537.68 787.44 2469.21 918.16 2275.75 1107.57 2548.04 1105.18
00001927 00000014 1954.28 413.82 692.13 911.96 2236.25 787.92 2541.52 782.03 2469.95 913.64 2276.35 1101.25 2549.32 1097.59
00001928 00000015 1951.29 411.24 690.69 909.05 2232.15 785.06 2536.78 781.94 2463.98 910.12 2270.43 1098.77 2543.42 1097.34
00001929 00000016 1954.35 416.42 688.60 922.59 2235.21 787.80 2539.45 784.57 2469.16 912.51 2275.32 1108.71 2547.75 1107.65
00001930 00000017 1941.95 437.48 694.33 923.63 2225.21 802.46 2525.78 795.54 2458.02 930.82 2274.35 1126.49 2531.65 1122.04
00001931 00000018 1939.42 442.85 696.73 935.02 2226.78 810.08 2525.95 804.61 2458.39 938.10 2272.92 1132.16 2530.82 1129.24
00001932 00000019 1941.61 444.98 697.36 945.82 2228.21 818.19 2527.51 813.41 2457.00 946.64 2271.76 1143.60 2528.10 1141.79
00001933 00000020 1938.27 448.62 694.22 948.86 2225.02 822.51 2524.83 819.40 2455.34 951.12 2268.86 1150.38 2523.29 1149.69
00001934 00000021 1940.21 461.12 689.40 939.91 2226.22 833.42 2523.94 829.86 2455.01 960.05 2271.64 1157.88 2524.12 1156.91
00001935 00000022 1946.95 467.21 688.69 926.12 2232.13 837.21 2528.84 830.19 2462.11 960.58 2285.61 1157.25 2534.50 1153.32
00001936 00000023 1951.79 461.82 689.59 923.49 2237.63 842.86 2531.36 830.53 2466.59 963.51 2299.65 1158.16 2541.12 1150.01
00001937 00000024 1953.52 471.61 687.93 910.16 2238.80 845.88 2533.59 834.31 2469.73 969.92 2300.82 1159.93 2543.00 1151.54
00001938 00000025 1953.96 474.79 692.97 928.69 2244.45 862.49 2543.07 851.99 2478.57 989.95 2310.22 1186.56 2547.59 1179.89
00001939 00000026 1958.22 483.23 696.91 941.96 2251.94 869.78 2552.85 855.88 2488.24 998.91 2312.16 1199.53 2557.50 1190.63
00001940 00000027 1960.26 489.95 699.10 934.75 2255.49 870.55 2556.79 855.84 2490.27 1001.70 2312.22 1199.66 2559.93 1189.81
00001941 00000028 1956.77 484.90 701.09 941.90 2254.24 871.78 2557.48 860.81 2491.05 1007.50 2310.56 1200.64 2565.59 1193.10
00001942 00000029 1944.51 467.99 705.09 968.02 2244.41 869.04 2549.70 856.18 2482.11 1005.59 2297.20 1206.69 2548.40 1199.23
00001943 00000030 1942.18 471.10 702.44 955.88 2239.06 866.76 2546.31 855.31 2477.65 1000.95 2292.43 1200.30 2546.40 1193.55
00001944 00000031 1937.80 460.04 707.70 963.03 2236.65 864.88 2546.53 853.44 2475.13 999.87 2289.62 1197.87 2546.41 1191.26
00001945 00000032 1938.52 463.33 703.78 963.09 2234.02 862.96 2545.07 853.11 2471.58 999.20 2283.74 1198.51 2543.46 1192.98
00001946 00000033 1950.90 458.99 694.44 1015.20 2222.82 862.47 2544.54 851.04 2478.01 1009.54 2275.46 1221.77 2548.28 1214.33
00001947 00000034 1940.97 459.55 697.77 1014.57 2212.02 863.00 2536.00 855.13 2463.30 1010.60 2266.33 1222.88 2534.87 1217.91
00001948 00000035 1937.00 463.29 701.59 1012.31 2212.87 867.20 2530.00 859.19 2456.47 1015.40 2273.25 1230.68 2524.94 1224.85
00001949 00000036 1942.01 461.60 701.24 1012.48 2226.35 868.91 2541.16 859.39 2470.76 1017.16 2284.83 1230.77 2535.96 1223.64
00001950 00000037 1940.95 451.53 710.01 1025.81 2240.52 869.22 2563.02 851.03 2494.73 1017.29 2302.12 1234.76 2562.96 1217.84
00001951 00000038 1939.08 445.75 712.28 1028.94 2244.37 869.23 2566.55 853.53 2499.82 1020.25 2302.90 1235.04 2563.25 1220.57
00001952 00000039 1952.57 441.02 703.74 1028.15 2253.98 863.38 2562.23 849.92 2506.77 1023.43 2300.61 1227.95 2557.75 1219.95
00001953 00000040 1958.35 446.10 704.17 1019.35 2260.52 861.66 2569.80 847.51 2511.83 1024.00 2305.85 1225.05 2563.80 1216.46
00001954 00000041 1950.45 450.90 714.84 1005.89 2261.77 862.39 2588.56 853.31 2514.43 1021.90 2330.24 1209.27 2589.49 1201.12
00001955 00000042 1951.98 458.69 726.46 1005.74 2270.15 859.87 2604.12 851.56 2530.43 1019.03 2333.38 1209.93 2600.52 1202.29
00001956 00000043 1957.26 449.63 729.45 1020.10 2276.98 855.89 2606.13 850.10 2538.73 1018.88 2335.70 1209.27 2596.50 1204.30
00001957 00000044 1956.90 446.64 727.59 1023.82 2278.23 852.09 2603.17 848.40 2540.51 1014.65 2334.73 1204.96 2594.87 1201.61
00001958 00000045 1957.11 449.42 729.26 1020.70 2282.62 856.50 2605.19 849.36 2548.37 1017.46 2337.82 1205.30 2597.49 1199.47
00001959 00000046 1952.75 453.31 726.95 1021.66 2278.72 855.57 2602.37 848.24 2546.11 1019.96 2333.01 1209.19 2594.74 1203.16
00001960 00000047 1965.25 457.35 713.49 1022.17 2287.47 851.58 2593.64 842.33 2541.04 1028.65 2315.08 1221.30 2576.80 1217.62
00001961 00000048 1959.65 451.63 711.96 1029.98 2283.28 851.52 2587.66 843.09 2534.55 1028.24 2310.21 1223.80 2567.81 1220.99
00001962 00000049 1960.74 463.50 717.28 1035.40 2288.83 857.35 2589.08 849.33 2542.74 1030.09 2318.39 1231.64 2575.83 1229.15
00001963 00000050 1954.18 458.96 715.22 1036.98 2283.60 857.63 2583.93 847.68 2535.44 1031.81 2313.41 1232.30 2568.07 1227.93
00001964 00000051 1947.21 445.37 708.81 1045.61 2274.54 851.64 2574.78 842.35 2524.24 1027.48 2303.20 1231.39 2555.06 1227.42
00001965 00000052 1941.66 441.09 713.18 1052.82 2270.29 848.20 2571.41 842.22 2521.30 1021.87 2297.35 1228.17 2552.89 1226.76
00001966 00000053 1927.49 437.36 720.63 1058.93 2248.39 842.26 2557.24 833.30 2505.62 1015.54 2285.00 1228.02 2544.50 1223.64
00001967 00000054 1921.27 439.41 726.47 1065.21 2243.55 845.31 2555.90 838.44 2506.34 1018.07 2279.52 1231.19 2544.08 1228.30
00001968 00000055 1917.99 437.42 726.50 1077.76 2244.56 852.50 2551.19 844.30 2508.10 1019.76 2279.99 1235.49 2540.16 1231.82
00001969 00000056 1913.38 438.56 728.28 1084.79 2243.13 857.73 2548.89 850.07 2505.95 1023.78 2274.19 1237.22 2536.41 1234.23
00001970 00000057 1887.39 428.32 741.67 1104.59 2213.93 858.56 2528.76 850.92 2482.00 1017.59 2263.57 1244.15 2523.70 1238.14
00001971 00000058 1879.95 426.90 739.84 1109.52 2200.25 857.14 2513.70 849.80 2464.11 1014.02 2261.28 1246.59 2515.78 1239.51
00001972 00000059 1868.82 430.34 741.05 1105.14 2192.89 857.09 2491.16 849.38 2445.09 1015.06 2261.62 1249.01 2494.87 1242.14
00001973 00000060 1865.41 418.92 738.62 1112.29 2183.57 856.76 2482.53 847.36 2439.59 1012.83 2261.01 1250.97 2492.00 1243.28
00001974 00000061 1875.41 417.61 732.82 1100.25 2182.62 859.36 2489.89 848.60 2439.71 1009.12 2265.38 1250.75 2498.82 1241.80
00001975 00000062 1863.41 427.50 742.24 1091.70 2163.56 857.22 2478.52 840.23 2420.36 1011.52 2253.11 1251.48 2488.16 1236.62
00001976 00000063 1855.15 416.54 742.70 1093.66 2150.83 856.00 2468.28 838.69 2405.35 1015.66 2237.20 1247.35 2477.35 1233.34
00001977 00000064 1858.43 415.04 742.88 1089.38 2150.08 856.20 2471.51 837.15 2404.88 1019.18 2235.46 1248.52 2480.32 1232.62
00001978 00000065 1845.59 413.88 750.42 1100.35 2137.22 851.33 2463.30 828.28 2386.57 1018.12 2228.00 1252.65 2470.10 1232.67
00001979 00000066 1827.48 406.81 754.86 1074.26 2117.40 854.75 2463.62 840.92 2375.27 1023.66 2205.69 1228.04 2475.98 1215.35
00001980 00000067 1833.63 402.32 755.20 1071.73 2117.11 838.59 2465.31 827.66 2371.11 1006.99 2202.94 1212.71 2479.10 1203.18
00001981 00000068 1833.71 397.54 751.74 1061.71 2113.80 819.22 2458.12 811.30 2362.84 986.92 2201.70 1195.53 2471.18 1188.81
00001982 00000069 1822.28 388.42 729.48 1063.87 2093.30 803.50 2422.58 790.92 2335.64 960.03 2178.10 1172.86 2443.70 1164.04
00001983 00000070 1825.62 392.78 728.37 1065.63 2093.08 803.92 2420.43 791.84 2331.86 964.03 2176.37 1173.50 2444.31 1164.76
00001984 00000071 1818.77 397.19 731.44 1056.42 2090.02 807.68 2417.20 795.76 2327.16 965.57 2172.84 1170.79 2440.09 1162.10
00001985 00000072 1820.84 401.59 722.82 1040.18 2091.13 812.24 2417.05 799.30 2329.12 971.02 2174.80 1171.26 2436.98 1162.14
00001986 00000073 1821.44 419.22 720.21 1012.54 2090.47 819.17 2422.50 803.52 2326.10 981.05 2175.87 1172.78 2437.00 1161.02
00001987 00000074 1823.67 432.17 718.51 1010.30 2087.44 827.41 2423.07 802.44 2324.43 979.16 2154.76 1190.19 2431.59 1169.95
00001988 00000075 1825.31 433.59 716.11 1006.90 2087.34 828.39 2422.09 803.96 2323.92 978.09 2153.93 1188.31 2431.34 1168.57
00001989 00000076 1825.41 430.04 710.51 1009.72 2083.81 827.94 2422.52 804.81 2321.89 979.52 2149.68 1187.20 2433.22 1169.06
00001990 00000077 1823.05 430.86 710.44 1002.08 2077.90 827.97 2419.73 803.96 2315.38 982.17 2141.23 1181.19 2430.91 1162.85
00001991 00000078 1832.20 422.44 707.92 1006.16 2082.83 825.86 2426.62 801.12 2316.80 983.60 2143.89 1178.50 2435.07 1160.03
00001992 00000079 1832.47 425.02 709.21 1008.54 2085.43 825.44 2426.34 801.61 2317.97 982.36 2142.35 1175.95 2434.27 1158.62
00001993 00000080 1824.25 431.86 709.05 1006.75 2080.50 824.96 2418.56 805.22 2314.24 983.33 2135.18 1175.12 2428.50 1160.64
00001994 00000081 1825.69 433.64 711.56 1007.68 2088.47 836.36 2423.76 810.09 2324.02 990.83 2148.65 1188.47 2432.41 1168.32
00001995 00000082 1818.10 431.76 718.04 980.68 2096.81 832.09 2420.54 805.11 2336.10 987.50 2160.36 1181.24 2433.43 1160.58
00001996 00000083 1822.94 436.00 718.26 966.46 2098.35 833.88 2421.63 803.51 2338.41 987.60 2164.97 1179.29 2439.14 1155.89
00001997 00000084 1830.11 441.29 711.89 956.63 2104.46 834.36 2422.48 802.71 2342.87 987.02 2173.73 1176.61 2442.06 1152.11
00001998 00000085 1837.92 446.40 708.72 962.56 2113.11 838.98 2428.62 808.28 2350.18 992.24 2179.83 1181.42 2446.96 1157.81
00001999 00000086 1837.29 441.67 705.40 964.11 2114.72 842.38 2428.75 812.21 2352.34 991.35 2181.55 1182.12 2446.97 1159.50
00002000 00000087 1840.81 447.12 705.39 968.26 2115.94 840.55 2432.76 810.57 2358.73 984.41 2181.41 1184.71 2452.55 1162.61
00002001 00000088 1845.83 444.76 706.27 970.00 2123.46 836.57 2438.14 807.50 2368.91 977.82 2193.94 1182.65 2456.01 1161.91
00002002 00000089 1846.68 434.34 722.21 959.94 2130.68 829.17 2447.24 792.82 2385.38 962.39 2216.94 1174.27 2478.10 1147.27
00002003 00000090 1847.30 435.59 725.79 965.29 2132.18 834.67 2448.90 796.37 2388.77 965.96 2220.48 1178.96 2482.36 1150.69
00002004 00000091 1854.31 437.41 713.34 989.30 2117.79 855.27 2443.77 816.88 2369.47 980.14 2214.41 1188.54 2482.52 1156.63
00002005 00000092 1850.24 432.56 719.45 1032.15 2122.92 862.56 2440.66 818.59 2378.90 994.72 2211.69 1202.75 2481.86 1166.33
00002006 00000093 1862.63 457.27 722.61 1045.94 2132.60 875.86 2450.87 829.83 2387.92 1025.93 2214.88 1234.20 2491.58 1197.19
00002007 00000094 1856.76 467.48 717.62 1026.51 2127.50 887.52 2446.59 837.33 2384.36 1036.68 2207.08 1237.36 2485.36 1198.13
00002008 00000095 1836.58 468.74 725.60 1004.71 2112.56 900.24 2446.31 855.81 2371.46 1045.35 2202.72 1232.69 2487.25 1193.66
00002009 00000096 1834.79 470.66 723.73 1003.05 2113.00 903.25 2444.79 860.39 2369.21 1046.36 2200.51 1232.55 2483.65 1194.76
00002010 00000097 1834.93 463.03 728.91 1001.46 2110.62 897.95 2446.57 851.09 2366.51 1044.35 2203.38 1228.34 2486.74 1187.38
00002011 00000098 1839.80 457.22 730.13 1006.64 2114.53 894.58 2447.60 847.39 2370.15 1042.75 2207.88 1224.59 2489.58 1183.62
00002012 00000099 1832.84 463.25 736.21 995.58 2115.02 891.87 2443.10 845.71 2370.22 1037.83 2209.38 1217.73 2483.90 1177.80
00002013 00000100 1828.73 446.50 730.28 1009.41 2111.26 882.32 2439.13 836.94 2365.37 1032.66 2206.32 1214.10 2476.03 1175.24
00002014 00000101 1839.89 434.15 727.06 1024.59 2117.74 884.04 2440.68 832.22 2377.01 1034.97 2233.34 1231.33 2483.27 1187.04
00002015 00000102 1843.19 432.41 725.53 1023.56 2120.33 880.10 2448.87 828.66 2381.44 1039.01 2238.00 1235.75 2486.70 1191.68
00002016 00000103 1841.69 420.15 727.88 1040.49 2119.56 877.85 2451.58 829.91 2382.13 1042.66 2240.85 1244.40 2488.79 1202.35
00002017 00000104 1843.26 421.50 727.02 1051.31 2121.91 883.05 2455.14 840.33 2383.33 1048.70 2238.74 1251.49 2490.36 1213.54
00002018 00000105 1824.81 445.73 737.23 1046.67 2118.19 888.80 2440.33 841.26 2382.77 1061.35 2215.25 1248.61 2472.69 1207.93
00002019 00000106 1831.65 442.59 734.89 1046.00 2121.88 892.75 2445.38 843.84 2384.62 1058.29 2217.78 1245.35 2479.06 1203.10
00002020 00000107 1848.26 433.15 722.75 1035.72 2129.85 890.14 2457.24 847.09 2388.80 1053.84 2229.20 1239.23 2488.73 1201.52
00002021 00000108 1847.71 424.78 722.78 1032.21 2126.64 882.84 2459.34 837.78 2387.66 1040.82 2232.38 1232.97 2493.60 1194.02
00002022 00000109 1856.42 421.81 719.53 1034.80 2133.96 877.20 2464.51 838.15 2389.04 1032.66 2228.14 1221.63 2495.11 1188.07
00002023 00000110 1853.55 431.46 718.86 1035.27 2135.92 885.62 2464.37 849.29 2392.57 1043.33 2231.61 1231.77 2494.51 1199.86
00002024 00000111 1844.39 434.40 725.55 1040.41 2128.58 888.29 2458.20 850.84 2389.37 1049.63 2221.52 1236.32 2486.77 1203.33
00002025 00000112 1847.41 444.83 718.55 1033.78 2129.54 893.96 2455.18 854.80 2389.21 1050.74 2220.52 1239.02 2485.43 1204.68
00002026 00000113 1859.35 455.44 710.66 1028.63 2146.66 878.78 2456.51 841.91 2406.27 1038.58 2224.10 1241.32 2476.40 1213.70
00002027 00000114 1834.42 435.00 722.35 1026.60 2122.85 883.98 2449.77 847.23 2381.58 1035.99 2218.50 1225.34 2481.20 1192.97
00002028 00000115 1830.16 435.99 720.04 1015.45 2118.34 878.62 2442.33 840.10 2373.71 1025.18 2215.36 1215.45 2474.47 1182.34
00002029 00000116 1826.74 428.23 710.02 1008.66 2110.01 867.09 2435.33 829.22 2366.85 1011.81 2209.10 1205.60 2467.04 1173.57
00002030 00000117 1813.34 432.94 722.67 991.43 2115.22 853.83 2430.27 810.31 2372.03 997.56 2190.38 1201.89 2455.84 1171.98
00002031 00000118 1811.88 441.47 722.47 972.65 2111.31 847.38 2423.17 809.44 2369.02 985.59 2189.19 1191.66 2449.26 1165.45
00002032 DELETE   1790.31 438.56 719.69 978.67 2090.46 851.08 2399.36 806.60 2341.74 989.88 2174.05 1195.08 2426.92 1164.53
00002033 00000120 1791.66 432.50 713.00 995.60 2064.99 862.58 2399.28 801.23 2331.09 987.98 2153.47 1207.11 2433.39 1155.80
00002034 00000121 1790.09 430.06 711.10 990.88 2063.99 860.53 2395.93 804.53 2324.62 982.99 2146.89 1200.68 2425.17 1154.03
00002035 00000122 1788.30 450.78 705.36 999.93 2049.86 848.71 2383.06 812.81 2306.80 984.06 2124.81 1197.09 2414.38 1167.09
00002036 00000123 1782.35 450.82 704.91 1015.90 2037.55 849.17 2365.45 805.75 2294.22 988.76 2103.74 1201.92 2390.06 1167.78
00002037 00000124 1778.57 461.56 709.28 1002.54 2029.97 853.74 2363.45 811.12 2289.06 999.54 2095.29 1198.73 2391.02 1165.73
00002038 00000125 1770.29 461.16 715.26 999.91 2026.59 870.25 2360.21 827.72 2289.47 1011.90 2094.21 1203.23 2392.55 1170.80
00002039 DELETE   1752.16 463.99 717.81 1024.50 2004.18 888.18 2324.66 836.03 2254.68 1027.06 2082.49 1219.91 2370.48 1179.54
00002040 DELETE   1743.97 463.10 725.33 1034.38 1993.34 891.55 2314.25 837.16 2239.49 1025.74 2079.27 1229.05 2364.99 1185.70
00002041 DELETE   1733.40 459.07 728.84 1039.94 1981.90 887.55 2310.53 834.97 2227.75 1029.71 2068.08 1233.96 2355.28 1191.86
00002042 00000129 1719.59 455.78 728.50 1026.98 1967.52 892.96 2308.17 840.83 2211.85 1034.04 2054.25 1225.79 2352.34 1182.07
00002043 00000130 1733.81 471.97 734.35 1032.51 1971.67 878.91 2305.21 816.42 2220.31 1025.23 2066.44 1242.70 2355.45 1191.05
00002044 00000131 1738.42 465.00 727.50 1033.79 1976.91 874.60 2310.11 820.94 2224.47 1022.25 2072.71 1246.08 2348.25 1202.00
00002045 00000132 1737.02 466.18 724.60 1025.86 1978.32 870.57 2309.60 821.55 2224.10 1021.27 2073.83 1244.13 2342.71 1204.49
00002046 00000133 1736.74 459.06 726.77 1033.16 1980.22 868.18 2307.69 815.23 2227.62 1022.25 2078.59 1244.98 2342.08 1201.49
00002047 00000134 1745.35 458.76 725.00 1037.25 1987.48 873.47 2311.93 817.87 2233.47 1019.96 2090.24 1252.39 2346.47 1206.01
00002048 00000135 1742.88 451.49 729.84 1049.69 1988.85 877.10 2311.76 822.90 2235.29 1022.48 2087.13 1251.89 2348.84 1206.58
00002049 00000136 1748.54 456.22 731.67 1044.46 1995.59 882.43 2316.83 828.97 2240.27 1024.37 2089.40 1250.42 2352.81 1206.09
00002050 00000137 1748.03 457.72 731.94 1036.62 1997.85 885.34 2319.75 828.09 2247.76 1028.08 2091.46 1244.82 2361.73 1198.05
00002051 00000138 1762.70 451.65 735.72 995.11 2015.95 874.60 2355.13 817.33 2276.73 991.96 2116.87 1209.12 2410.69 1159.52
00002052 DELETE   1775.55 439.82 726.56 963.29 2030.77 860.39 2366.26 793.01 2290.19 966.04 2126.06 1173.12 2421.06 1117.38
00002053 DELETE   1778.34 418.72 722.63 954.69 2022.80 840.46 2353.18 765.90 2273.89 942.67 2115.81 1144.03 2411.33 1083.54
00002054 DELETE   1766.07 403.80 727.03 955.46 2014.73 821.15 2340.11 752.83 2263.99 912.97 2106.26 1128.15 2394.01 1073.52
00002055 00000142 1777.06 400.99 730.92 946.66 2030.32 807.01 2357.41 751.73 2280.75 892.10 2117.05 1111.15 2409.92 1067.44
00002056 DELETE   1791.62 386.34 724.97 965.67 2043.40 800.34 2376.59 748.64 2299.04 889.56 2135.48 1115.18 2429.36 1073.32
CROP_BBOX: 1345 0 3245 1979
