Video ID: 	p-u3K3BC52Q
H: 	1080
W: 	1920
FPS: 	29.97002997002997

FRAME INDEX X0 Y0 W H [Landmarks (5 Points)]

00000446 00000000 705.81 221.05 413.88 554.94 778.65 458.98 956.78 424.33 864.10 560.48 843.36 653.20 989.81 623.55
00000447 00000001 705.61 219.99 412.90 553.71 777.64 457.55 955.88 423.57 863.41 561.00 844.26 652.96 990.23 623.94
00000448 00000002 705.39 217.82 412.72 556.38 776.46 456.06 955.63 421.16 863.29 560.87 844.77 653.65 991.37 623.87
00000449 00000003 705.04 214.35 412.45 559.09 776.31 454.48 955.30 419.64 863.18 559.90 844.62 652.86 990.79 623.28
00000450 00000004 703.68 212.89 415.13 560.18 775.38 453.86 954.75 418.50 862.20 558.42 844.04 652.38 990.43 622.31
00000451 00000005 702.66 209.36 416.53 563.11 775.19 452.61 954.20 417.15 861.28 557.08 844.63 651.95 989.71 621.86
00000452 00000006 700.46 206.93 417.23 566.24 774.75 451.48 952.81 415.91 860.61 555.32 844.33 651.54 988.28 621.61
00000453 00000007 697.69 204.96 417.53 567.34 773.24 449.11 951.84 413.63 860.19 553.52 844.41 650.67 987.91 620.99
00000454 00000008 696.93 203.70 418.57 569.35 773.54 446.04 951.18 411.40 859.19 550.17 843.69 649.25 986.11 620.33
00000455 00000009 695.70 201.14 419.13 572.73 772.55 442.97 949.82 408.60 857.96 546.65 842.79 647.37 985.10 618.59
00000456 00000010 694.75 200.69 418.69 570.81 773.37 439.17 947.93 406.85 857.60 542.45 842.43 642.94 982.42 615.78
00000457 00000011 695.06 200.61 417.41 571.41 774.10 435.68 947.36 404.42 857.25 539.47 841.70 641.11 980.87 614.78
00000458 00000012 694.06 196.94 418.24 573.78 772.76 432.67 946.70 401.64 855.31 535.94 841.01 640.04 979.79 613.79
00000459 00000013 694.79 195.83 415.45 572.85 773.83 430.48 945.78 400.02 854.91 531.24 839.82 636.89 976.37 611.13
00000460 00000014 695.09 198.66 414.01 568.09 774.39 430.95 945.91 397.50 855.34 526.76 838.81 634.99 975.28 606.93
00000461 00000015 695.45 195.00 412.65 569.17 774.92 429.08 946.84 395.87 855.22 521.55 836.71 633.01 972.78 605.14
00000462 00000016 696.02 192.00 411.76 570.06 774.86 426.74 945.42 394.05 853.50 517.16 835.61 630.99 969.85 603.52
00000463 DELETE   695.37 189.93 412.60 571.12 774.33 424.57 945.64 392.00 852.85 514.48 834.33 629.61 968.22 602.35
00000464 00000018 695.33 190.55 412.81 570.36 773.41 423.25 945.94 390.25 851.01 511.15 832.46 628.78 967.41 601.19
00000465 00000019 698.63 186.63 410.24 571.81 774.05 421.77 945.37 390.50 849.21 508.46 829.79 625.56 963.83 599.37
00000466 00000020 700.09 184.72 409.44 570.57 773.88 419.19 946.83 389.11 848.63 505.88 826.08 622.69 961.75 597.73
00000467 00000021 701.11 181.99 407.74 568.05 775.31 417.12 947.39 390.53 848.93 504.94 823.56 619.79 955.34 598.25
00000468 00000022 701.00 180.49 408.32 566.81 772.63 413.33 947.22 387.96 845.23 503.62 819.64 618.86 952.32 598.42
00000469 00000023 703.24 179.05 406.55 565.76 771.35 411.40 946.19 385.71 840.74 499.44 816.04 618.47 949.76 597.77
00000470 00000024 704.34 174.09 406.43 569.52 772.39 412.65 945.18 388.36 838.71 498.27 813.65 616.54 946.66 597.04
00000471 00000025 707.20 173.08 405.42 570.57 774.54 411.40 946.11 388.18 838.68 495.92 813.33 613.69 947.02 595.15
00000472 00000026 708.61 172.54 406.25 572.78 775.44 408.97 947.54 385.48 837.81 492.51 813.26 612.69 948.08 593.93
00000473 00000027 711.17 171.83 405.80 574.87 776.40 407.16 948.99 383.86 836.92 490.84 811.81 612.72 950.21 593.90
00000474 DELETE   714.94 172.19 402.93 575.17 777.69 405.79 949.83 381.89 836.69 490.21 811.81 610.95 954.53 591.52
00000475 00000029 718.54 169.05 401.70 579.90 779.90 404.65 950.47 379.75 836.38 489.24 812.79 609.82 958.03 590.06
00000476 00000030 720.49 166.38 401.34 583.23 781.70 402.37 952.18 378.57 836.81 488.52 812.07 608.36 959.48 589.31
00000477 00000031 721.83 165.00 402.85 584.80 783.50 402.20 955.43 378.39 838.48 487.46 812.67 607.88 962.01 588.67
00000478 00000032 724.20 165.29 402.68 585.95 786.00 402.85 957.92 379.77 840.75 489.03 814.91 608.08 964.96 589.27
00000479 00000033 726.08 166.07 405.06 583.21 787.88 404.50 959.99 380.90 843.00 489.68 818.64 605.39 972.02 585.81
00000480 00000034 730.17 165.64 403.45 578.86 787.76 405.98 962.98 382.03 842.55 490.97 817.65 603.96 976.09 584.23
00000481 00000035 732.98 165.51 403.26 576.18 789.13 404.79 966.02 379.67 844.44 491.11 819.07 602.99 978.90 582.43
00000482 00000036 735.21 164.08 404.69 575.28 792.55 399.65 970.01 374.89 846.93 489.26 822.14 600.31 979.84 580.34
00000483 00000037 738.69 155.96 402.01 579.60 795.35 394.96 974.46 371.93 848.85 485.69 822.83 598.25 979.19 580.24
00000484 00000038 741.98 153.61 399.74 579.85 796.38 390.74 976.94 367.67 848.59 481.98 822.90 595.97 979.61 578.31
00000485 00000039 743.17 151.42 400.07 580.05 796.72 388.39 978.71 364.94 848.22 478.70 822.42 593.83 982.02 575.91
00000486 00000040 745.41 148.16 405.99 580.60 791.39 378.17 983.46 357.39 853.80 479.83 829.91 600.33 980.60 584.84
00000487 00000041 745.73 146.02 405.75 583.77 792.38 377.70 983.70 356.56 853.91 478.48 830.35 599.71 980.02 583.84
00000488 00000042 745.76 146.15 406.36 586.26 793.45 378.92 982.94 356.24 853.84 478.09 832.41 601.89 977.70 584.82
00000489 00000043 744.65 147.31 407.29 589.26 796.56 379.85 983.55 356.48 856.49 476.29 836.96 603.31 977.45 585.61
00000490 00000044 744.85 147.82 407.11 589.54 796.02 381.10 982.68 356.72 856.50 476.85 838.11 605.06 977.61 586.51
00000491 00000045 743.78 149.06 407.76 587.83 793.58 383.07 980.38 357.18 853.80 478.32 837.06 606.36 976.03 586.58
00000492 00000046 742.83 149.18 408.45 587.36 791.69 385.72 978.03 357.94 852.69 479.27 836.71 607.02 975.76 585.59
00000493 00000047 740.12 153.51 403.84 578.28 793.56 393.93 969.13 365.19 843.86 481.17 826.77 596.61 979.60 573.43
00000494 00000048 739.04 154.75 405.25 573.36 790.86 397.88 968.41 368.90 841.91 484.68 822.84 597.09 980.63 573.74
00000495 00000049 739.06 153.50 404.82 572.59 788.90 399.51 969.11 369.89 841.10 486.43 820.87 597.26 982.34 573.37
00000496 00000050 737.56 154.36 406.64 572.59 787.82 403.74 969.31 370.97 842.52 488.28 821.01 600.23 983.94 573.80
00000497 00000051 736.19 157.87 409.17 572.24 787.73 404.99 967.94 373.26 842.48 491.38 822.75 602.50 984.21 576.59
00000498 00000052 736.12 164.99 409.29 573.51 790.72 404.73 964.52 373.56 844.31 493.33 830.85 606.52 983.50 580.65
00000499 00000053 735.62 167.65 410.80 576.53 792.47 407.30 962.21 373.86 845.30 496.20 837.21 611.55 983.53 583.16
00000500 00000054 734.52 164.20 420.06 581.76 789.24 413.33 966.59 378.25 850.29 501.28 844.94 617.70 989.76 587.92
00000501 00000055 736.51 175.72 413.49 567.85 793.43 414.99 963.38 381.28 847.91 499.29 837.29 612.36 983.98 583.31
00000502 00000056 735.19 167.65 418.83 578.47 788.94 420.62 968.58 386.96 852.34 504.44 840.92 620.32 986.95 591.90
00000503 00000057 736.56 172.80 418.31 574.53 787.88 416.54 973.23 384.60 851.52 506.50 838.14 625.44 982.07 599.07
00000504 00000058 737.50 173.62 416.37 572.71 789.76 416.84 974.13 386.40 852.56 507.66 839.64 626.65 980.72 601.76
00000505 00000059 738.58 173.27 418.05 576.46 793.41 420.50 969.04 389.51 853.98 507.40 846.21 624.01 982.10 598.27
00000506 00000060 739.46 174.29 416.35 579.52 794.45 423.11 968.42 392.14 852.93 508.67 849.06 625.96 980.54 600.30
00000507 00000061 740.26 175.16 415.57 577.14 794.53 423.40 969.23 393.30 853.35 511.12 850.67 627.47 980.40 602.52
00000508 00000062 740.91 176.05 416.12 579.81 793.38 423.81 971.11 393.99 853.50 512.36 848.97 631.12 978.96 606.52
00000509 00000063 741.76 178.31 416.45 581.10 793.50 425.50 972.60 395.50 854.73 514.67 847.59 632.88 981.35 608.08
00000510 00000064 743.37 181.99 415.59 580.60 794.58 425.97 972.38 395.69 852.78 515.52 848.69 634.18 982.92 609.19
00000511 00000065 746.00 182.45 414.10 583.35 798.21 426.18 970.57 395.59 854.85 516.51 856.13 633.54 985.31 608.23
00000512 00000066 749.06 180.31 410.23 590.42 800.50 420.14 972.90 389.89 856.17 519.77 852.86 633.17 993.25 606.87
00000513 00000067 747.72 183.82 415.08 588.32 800.22 425.41 975.95 395.98 860.30 524.32 858.06 636.76 997.03 612.25
00000514 00000068 752.47 183.83 410.86 588.83 805.80 421.11 975.80 394.11 861.26 524.82 857.90 634.66 999.24 610.84
00000515 00000069 753.73 182.16 409.82 587.90 807.10 421.44 977.09 396.22 863.73 527.19 860.53 633.83 1000.43 611.44
00000516 00000070 754.32 184.19 410.18 584.81 808.55 421.35 978.32 396.27 865.59 527.52 862.58 633.69 1002.20 611.48
00000517 00000071 755.74 185.21 409.78 581.14 810.45 420.89 980.34 395.84 867.31 526.47 864.80 632.85 1004.01 610.66
00000518 00000072 756.71 185.24 409.69 577.66 811.95 419.87 981.99 395.12 868.62 525.30 866.44 631.40 1005.58 609.42
00000519 00000073 758.32 181.76 409.56 580.76 813.45 419.00 984.63 392.84 870.73 522.81 867.27 630.55 1008.62 607.43
00000520 00000074 758.68 181.33 411.79 579.41 813.71 418.53 987.85 390.73 872.25 521.52 867.35 630.04 1012.44 605.48
00000521 00000075 759.92 181.90 411.81 578.07 815.60 417.93 988.63 389.44 873.82 519.57 869.68 628.63 1014.28 603.48
00000522 00000076 760.63 183.76 411.29 577.00 815.73 418.20 989.95 389.13 874.14 519.55 869.79 629.27 1016.65 603.52
00000523 00000077 760.90 184.33 413.11 572.60 813.59 420.67 994.63 393.36 876.41 524.17 865.67 631.89 1013.90 609.21
00000524 00000078 760.16 185.65 413.12 569.65 812.33 422.89 994.24 395.96 877.32 525.79 863.41 630.95 1012.77 608.57
00000525 00000079 759.64 188.70 412.67 569.67 811.77 423.39 994.11 398.35 876.30 529.34 861.42 632.07 1012.31 611.33
00000526 00000080 761.32 186.80 409.87 571.76 813.14 425.73 994.77 402.48 878.74 538.10 860.09 636.11 1014.43 616.92
00000527 00000081 762.09 190.33 408.19 576.86 814.35 429.40 994.58 408.15 880.07 543.37 861.05 640.51 1010.33 623.01
00000528 00000082 762.16 194.70 408.46 573.74 813.36 432.67 993.34 410.26 878.71 544.91 861.09 641.98 1011.26 623.44
00000529 00000083 762.40 195.42 408.81 573.07 813.50 433.36 993.80 410.52 879.02 545.42 860.55 641.54 1012.33 622.72
00000530 00000084 762.48 199.10 408.33 571.69 817.26 431.43 993.76 409.41 876.49 536.93 864.33 637.88 1017.60 618.08
00000531 00000085 761.80 196.43 409.33 579.25 815.55 433.02 994.23 409.65 879.36 542.26 864.50 640.03 1012.22 620.87
00000532 00000086 761.75 196.26 408.77 581.78 819.58 429.59 990.02 407.11 877.54 535.03 867.90 637.25 1016.95 617.47
00000533 00000087 761.31 193.93 408.70 584.15 819.41 428.58 990.07 405.92 877.40 533.52 867.22 636.67 1016.74 616.72
00000534 00000088 761.04 194.20 407.78 581.77 817.90 427.70 989.81 405.20 876.20 532.94 865.14 636.00 1015.51 616.07
00000535 00000089 761.36 192.65 407.47 581.67 816.89 427.11 990.10 404.36 875.26 532.68 864.12 636.00 1015.32 615.80
00000536 00000090 761.88 192.12 405.86 576.28 815.86 427.84 991.03 405.50 874.46 532.61 862.24 634.15 1015.07 614.03
00000537 00000091 760.72 191.06 407.50 573.90 812.90 428.38 993.59 407.83 876.50 539.42 859.61 636.05 1009.31 618.99
00000538 00000092 761.01 193.67 407.07 574.18 812.89 429.92 993.47 409.13 876.43 541.19 859.83 637.45 1008.88 620.28
00000539 00000093 761.60 198.68 406.03 574.34 818.16 429.86 989.52 408.62 875.65 534.69 864.06 637.36 1010.21 618.68
00000540 00000094 761.47 195.59 407.76 579.11 814.69 431.12 993.61 410.00 877.76 539.83 866.62 640.21 1007.56 622.77
00000541 00000095 762.50 199.01 405.05 575.32 820.77 430.31 989.19 408.20 878.09 534.15 868.85 637.15 1012.47 617.86
00000542 00000096 762.72 201.41 404.84 569.11 821.08 430.59 989.95 408.52 879.18 534.51 870.04 636.53 1013.22 617.06
00000543 00000097 763.19 202.91 404.14 567.21 821.28 431.81 990.59 409.04 880.00 535.05 871.01 636.14 1015.78 616.02
00000544 00000098 764.87 202.44 403.14 566.83 821.46 433.35 991.05 410.85 879.67 535.24 870.68 635.27 1018.04 615.29
00000545 00000099 765.51 204.05 402.15 565.82 821.94 433.95 991.54 411.72 879.88 535.02 870.13 634.61 1018.63 614.85
00000546 00000100 765.45 202.29 401.24 567.92 821.50 433.91 991.06 411.69 879.66 534.39 869.06 634.29 1018.14 614.60
00000547 00000101 764.89 201.40 400.36 568.86 820.67 432.59 990.53 411.01 878.25 533.45 866.74 634.05 1016.59 614.84
00000548 00000102 764.82 201.87 399.91 570.77 820.98 432.41 989.28 410.93 877.58 532.97 866.58 633.50 1015.91 614.41
00000549 00000103 764.94 201.86 399.98 573.13 821.44 432.29 988.78 410.22 877.99 532.66 867.94 634.65 1015.95 615.17
00000550 00000104 765.30 201.97 399.53 570.32 821.72 433.65 988.05 411.85 878.37 533.17 868.19 634.18 1014.23 614.96
00000551 00000105 765.09 201.39 398.74 566.83 819.96 434.75 987.65 414.05 877.36 535.50 865.81 634.53 1012.04 616.03
00000552 00000106 765.61 201.85 397.83 560.17 818.90 435.43 988.59 416.33 874.59 535.61 862.68 634.70 1007.54 617.39
00000553 00000107 765.52 199.65 398.79 562.41 813.64 434.75 989.73 416.99 874.62 539.93 857.97 636.74 1002.20 621.76
00000554 00000108 765.65 197.94 398.03 563.33 814.21 434.27 989.19 417.32 874.14 539.47 857.40 636.63 1000.87 622.24
00000555 00000109 765.12 195.68 397.61 563.60 814.37 433.40 988.40 416.51 874.19 538.03 857.49 635.62 1000.60 621.25
00000556 00000110 764.82 193.89 397.00 564.16 814.57 432.88 987.82 416.38 874.09 536.70 857.29 634.95 1000.19 620.83
00000557 00000111 763.62 192.05 398.32 567.68 814.66 433.14 987.44 415.16 873.37 534.83 859.95 636.30 1000.46 620.98
00000558 00000112 761.69 190.98 400.16 570.78 813.84 435.10 986.61 415.19 872.93 534.62 861.16 638.90 1002.86 621.81
00000559 00000113 760.24 189.54 400.73 570.33 811.79 435.15 984.99 416.01 871.70 536.35 858.27 636.04 1002.51 619.54
00000560 00000114 759.90 190.71 401.19 571.73 810.84 435.70 984.53 416.76 869.82 536.76 856.58 636.42 1001.52 620.13
00000561 00000115 759.41 190.61 401.63 575.26 811.43 436.83 983.41 417.46 868.56 535.85 860.18 638.01 999.72 621.35
00000562 00000116 758.85 191.72 402.55 580.63 811.28 438.36 983.34 420.03 868.40 537.47 862.18 640.90 997.82 625.07
00000563 00000117 759.74 195.77 401.46 578.24 811.42 441.36 983.93 422.45 868.91 540.25 862.63 644.03 997.72 627.84
00000564 00000118 759.04 197.31 402.71 577.69 810.71 442.84 983.81 424.05 868.94 542.83 861.74 645.04 997.45 629.01
00000565 00000119 759.11 198.20 402.66 577.91 811.44 443.73 984.25 425.46 870.20 545.11 862.16 645.28 998.38 629.74
00000566 00000120 759.48 200.70 402.58 576.22 811.94 444.55 985.18 426.59 871.31 546.37 862.19 645.77 998.89 630.48
00000567 00000121 758.54 201.39 403.14 572.92 810.72 444.67 984.35 426.88 871.35 547.43 860.43 646.18 997.58 631.07
00000568 00000122 758.24 200.99 402.78 571.12 809.66 445.26 983.52 427.96 870.52 547.22 858.14 646.02 995.92 631.27
00000569 00000123 758.15 202.94 402.77 567.56 808.39 447.56 982.51 429.73 869.91 548.83 856.82 647.53 995.09 632.31
00000570 00000124 754.89 202.64 405.35 564.84 805.00 450.69 978.92 430.11 868.14 551.45 854.43 647.50 998.29 629.81
00000571 DELETE   749.38 201.07 411.56 565.95 801.96 451.60 978.82 430.06 868.65 551.64 849.92 644.31 1001.30 625.79
00000572 DELETE   745.35 203.22 415.84 563.44 799.23 448.23 981.75 427.18 868.11 550.41 845.81 642.01 1003.69 624.07
00000573 DELETE   744.60 204.49 417.29 561.80 798.36 447.52 983.04 426.51 867.37 550.02 843.48 641.10 1004.03 623.23
00000574 00000128 745.62 203.18 415.54 562.95 798.18 446.41 981.17 425.21 867.90 551.67 843.45 640.06 1004.00 621.98
00000575 DELETE   747.75 201.59 414.67 567.65 799.91 445.87 980.34 425.54 866.41 552.30 843.97 640.19 1003.29 622.86
00000576 00000130 747.45 200.34 415.47 577.06 800.48 446.22 980.98 425.73 864.63 552.36 845.36 642.96 1002.82 625.40
00000577 00000131 748.92 201.21 413.09 584.15 803.49 443.07 981.59 425.87 864.42 550.70 847.91 642.79 998.60 628.32
00000578 00000132 750.73 205.82 413.40 589.78 805.46 443.35 984.25 423.70 864.60 551.65 851.78 648.86 1001.73 632.50
00000579 00000133 754.93 208.90 409.53 589.01 808.63 444.62 986.92 424.92 865.91 554.93 856.51 652.65 1003.52 636.36
00000580 00000134 758.21 206.54 408.89 590.39 810.23 442.94 991.04 424.29 867.83 557.35 857.01 654.36 1004.00 639.22
00000581 00000135 753.33 212.61 411.20 570.64 811.67 434.61 1003.40 417.63 881.88 555.01 859.75 656.93 1009.22 643.29
00000582 00000136 757.82 214.27 408.05 564.10 815.57 431.51 1006.83 417.45 882.88 552.42 858.88 653.96 1009.25 643.02
00000583 00000137 402.31 103.75 278.05 355.55
00000584 00000138 769.18 210.36 401.74 574.85 826.42 434.62 1006.09 425.61 878.98 546.97 857.88 645.71 1009.92 637.83
00000585 00000139 403.25 103.30 278.25 356.12
00000586 00000140 777.54 218.46 394.61 566.02 830.83 442.75 1011.54 433.06 890.58 558.34 865.57 653.48 1014.70 644.95
00000587 00000141 776.37 224.01 398.89 565.85 830.45 449.33 1011.40 437.03 891.82 565.02 870.14 660.44 1019.92 649.46
00000588 00000142 772.53 228.75 405.75 563.01 827.06 453.94 1007.82 438.84 890.93 572.30 872.78 665.46 1022.75 651.87
00000589 00000143 770.64 233.96 409.07 559.40 823.15 457.39 1005.37 439.50 886.50 573.77 870.68 667.38 1022.14 651.20
00000590 00000144 770.63 233.04 408.86 560.70 821.47 457.42 1003.64 440.49 882.70 573.96 865.70 666.66 1016.54 651.51
00000591 00000145 771.61 232.68 410.11 562.56 821.82 458.28 1003.58 441.46 881.66 574.55 864.00 665.50 1017.37 650.22
00000592 00000146 773.99 228.55 409.65 567.03 823.71 458.40 1002.82 443.06 880.83 575.31 864.46 665.66 1016.11 651.54
00000593 00000147 774.94 227.70 410.96 568.52 825.93 458.22 1004.87 444.46 883.47 575.62 865.47 665.43 1017.21 652.59
00000594 00000148 407.49 114.04 280.37 354.09
00000595 00000149 408.43 114.99 280.48 353.91
00000596 DELETE   776.56 224.69 412.58 576.22 828.88 465.26 1010.66 450.91 888.71 578.85 867.43 669.49 1023.08 655.92
00000597 DELETE   775.96 225.55 412.97 576.23 828.76 464.45 1011.35 451.14 888.84 580.77 867.38 670.40 1022.65 657.78
00000598 DELETE   777.58 225.11 411.00 576.29 830.02 464.24 1008.55 452.42 887.53 583.52 869.56 672.06 1020.56 660.74
00000599 00000153 777.51 226.76 410.63 575.67 829.46 462.45 1006.49 450.68 885.18 583.18 870.33 672.48 1020.22 661.23
00000600 00000154 776.93 229.39 410.49 571.80 828.15 461.75 1004.53 449.49 883.80 583.63 871.37 673.42 1019.40 661.82
00000601 00000155 776.23 229.03 410.50 573.85 826.81 462.29 1002.94 449.89 882.48 585.02 870.99 675.15 1018.61 663.48
00000602 00000156 775.09 230.62 412.68 574.67 826.06 462.66 1001.84 450.56 881.76 586.99 871.38 675.99 1019.03 664.45
00000603 00000157 773.84 232.76 413.06 573.42 825.87 463.64 1000.70 451.40 880.98 587.85 871.61 676.37 1018.62 664.64
00000604 00000158 773.64 232.92 411.61 574.62 825.78 463.50 999.66 451.75 880.35 588.40 871.84 676.38 1017.89 665.07
00000605 00000159 773.35 236.25 409.11 571.69 826.00 463.00 997.40 451.34 879.74 587.37 872.52 675.87 1013.69 664.90
00000606 00000160 773.25 237.44 406.46 573.81 826.24 461.40 995.82 450.43 878.34 586.31 871.85 675.72 1011.44 665.42
00000607 00000161 772.95 235.63 404.79 574.99 825.11 461.15 993.56 450.34 875.85 584.69 870.39 674.36 1009.29 664.15
00000608 00000162 764.47 225.26 414.99 583.98 822.94 458.03 1000.78 448.83 877.88 587.38 869.26 677.54 1003.40 668.98
00000609 00000163 762.97 223.50 415.70 583.86 819.72 459.06 999.22 450.12 874.65 587.17 863.27 677.98 1000.23 669.78
00000610 00000164 762.10 221.37 414.69 584.64 817.20 458.24 998.60 450.53 870.56 587.05 858.61 678.49 997.74 671.32
00000611 00000165 760.07 220.05 413.84 585.89 815.44 457.95 996.65 450.49 868.62 585.62 856.02 678.24 994.85 671.27
00000612 00000166 763.93 218.26 411.88 591.02 816.45 460.68 991.75 451.72 870.50 580.16 855.70 670.50 997.33 662.58
00000613 00000167 765.70 219.04 411.60 590.06 818.05 459.45 990.35 453.83 860.04 575.65 852.20 667.05 993.18 662.86
00000614 00000168 757.06 219.94 411.73 583.77 811.82 455.37 994.53 450.72 863.34 582.64 848.82 676.07 990.57 671.56
00000615 00000169 754.37 218.11 409.81 585.04 808.52 454.91 991.73 451.22 859.73 583.55 844.90 675.61 987.42 671.88
00000616 00000170 751.04 217.70 410.88 586.93 804.99 454.02 988.71 452.41 855.49 584.12 840.68 675.64 982.36 673.66
00000617 00000171 748.64 223.14 413.66 582.56 801.71 454.78 985.57 455.22 851.52 587.12 837.48 677.83 977.69 677.52
00000618 00000172 749.92 222.07 411.51 586.28 802.95 460.39 976.69 457.45 851.40 586.39 838.57 671.68 981.29 668.11
