Video ID: 	TaXaGivAO6Y
H: 	1080
W: 	1920
FPS: 	25.0

FRAME INDEX X0 Y0 W H [Landmarks (5 Points)]

00000265 00000000 571.03 221.10 422.38 624.15 816.96 445.73 962.78 495.12 957.92 545.86 788.66 650.12 925.95 692.39
00000266 00000001 563.18 219.44 424.77 631.33 814.24 453.16 958.26 502.72 954.28 557.09 784.97 658.00 919.70 700.34
00000267 00000002 558.16 229.34 426.37 633.48 809.78 464.65 955.78 510.85 955.07 565.87 780.84 671.15 915.52 710.96
00000268 00000003 545.76 228.05 434.11 640.44 803.13 462.93 944.55 513.27 954.58 570.81 778.43 672.46 908.57 716.15
00000269 00000004 552.59 227.24 427.74 632.83 802.77 467.14 952.30 510.80 951.88 565.56 780.84 674.16 915.69 711.68
00000270 00000005 551.63 223.97 423.28 627.11 795.92 458.62 947.65 504.19 945.77 554.97 780.16 666.63 914.74 705.67
00000271 00000006 544.28 220.35 422.22 622.12 788.82 453.15 938.86 497.62 938.23 549.97 773.78 659.22 906.78 697.60
00000272 00000007 535.88 220.11 422.57 613.53 778.75 451.07 928.14 496.74 929.59 547.75 769.17 654.35 898.54 693.25
00000273 00000008 531.78 218.95 423.95 612.97 771.54 454.25 924.01 502.39 921.33 553.39 762.61 658.02 892.63 699.02
00000274 00000009 528.93 219.30 425.80 616.11 769.54 461.43 922.93 505.33 918.44 560.86 761.51 664.32 891.41 701.63
00000275 00000010 533.20 227.63 418.27 603.59 761.86 450.68 926.99 496.36 909.24 573.27 755.89 671.34 902.47 708.29
00000276 00000011 526.99 221.52 424.37 610.84 767.08 462.34 922.44 502.73 920.16 561.08 761.24 664.19 893.47 698.59
00000277 00000012 525.12 221.04 419.86 601.72 759.72 456.93 915.05 500.89 912.82 552.35 758.84 656.52 889.19 693.38
00000278 00000013 520.32 218.51 416.48 598.70 753.00 452.16 905.18 494.79 905.84 551.56 752.46 652.24 881.76 687.55
00000279 00000014 525.83 209.92 411.97 608.31 752.68 445.55 901.39 482.09 899.31 558.46 752.26 654.07 884.46 686.68
00000280 00000015 510.22 216.26 428.85 609.28 750.19 462.97 906.19 500.90 900.40 561.23 750.74 661.86 881.81 693.15
00000281 00000016 514.30 220.58 428.62 608.18 756.88 468.25 907.98 505.48 903.25 565.63 757.85 668.29 883.25 699.59
00000282 00000017 520.45 225.09 424.85 604.99 771.42 480.15 915.46 515.63 914.17 572.15 770.83 673.08 887.03 703.19
00000283 DELETE   525.44 225.63 417.42 604.54 773.35 480.43 913.75 511.55 917.98 564.99 780.10 673.11 894.27 699.24
00000284 DELETE   534.34 220.11 410.17 583.84 764.13 469.44 911.96 494.54 911.41 544.60 788.06 659.38 906.57 679.11
00000285 00000020 532.99 210.25 408.84 583.23 755.75 453.01 903.28 473.42 903.59 527.55 783.82 645.99 904.23 662.23
00000286 00000021 526.11 202.16 411.78 585.78 747.85 443.60 896.84 470.15 896.87 514.20 783.85 640.10 902.72 660.90
00000287 00000022 529.65 198.96 410.14 595.26 751.09 443.75 900.68 470.78 898.28 519.22 784.93 643.37 903.30 664.81
00000288 DELETE   532.13 208.04 410.74 606.28 760.12 455.54 905.07 479.52 903.12 539.74 788.83 659.15 903.33 678.71
00000289 DELETE   542.30 220.75 405.62 622.56 778.34 468.09 918.79 499.59 916.65 564.08 795.38 682.78 906.19 708.77
00000290 DELETE   549.31 232.20 408.05 626.35 790.36 485.08 926.86 509.28 939.09 584.03 818.64 707.42 920.02 726.94
00000291 00000026 562.71 230.35 402.26 626.49 807.54 492.49 933.08 496.96 958.67 588.91 842.10 716.70 934.47 721.14
00000292 00000027 566.10 230.49 401.88 622.50 800.39 490.43 921.74 484.80 942.73 583.96 840.03 710.18 926.35 706.50
00000293 00000028 571.38 232.47 397.12 618.00 813.48 490.89 937.25 489.95 961.19 584.51 833.36 705.75 930.93 705.19
00000294 00000029 569.33 232.47 394.78 615.96 809.59 483.59 935.47 487.81 960.63 577.56 829.44 699.65 928.47 703.46
00000295 00000030 565.35 223.87 394.10 617.62 800.09 478.07 930.96 487.59 951.79 563.10 824.06 688.84 931.24 696.82
00000296 00000031 562.90 220.68 394.51 614.86 788.15 472.34 924.84 480.14 940.25 553.96 811.70 679.90 928.50 686.82
00000297 00000032 562.51 224.81 395.62 608.76 786.12 472.77 926.95 478.48 940.38 554.30 802.99 677.78 924.57 683.76
00000298 00000033 560.24 227.48 400.43 615.92 789.51 482.66 932.67 487.49 946.73 566.12 803.28 688.10 926.55 693.58
00000299 DELETE   559.94 239.18 401.12 609.30 794.63 492.68 930.92 492.82 947.81 580.05 803.95 697.06 918.92 698.92
00000300 00000035 552.75 238.90 407.08 605.83 781.62 492.84 926.98 492.03 938.79 588.10 798.95 697.91 920.89 699.16
00000301 00000036 551.92 235.79 407.91 608.06 780.20 494.31 927.32 494.98 934.99 589.17 799.46 698.24 921.90 699.85
00000302 00000037 549.84 236.48 410.01 610.72 791.20 501.05 927.28 500.71 942.81 586.49 804.99 702.05 914.03 703.06
00000303 00000038 551.94 239.55 409.76 607.04 790.96 499.38 930.82 502.23 942.16 585.94 810.99 705.93 920.35 708.98
00000304 00000039 555.08 239.22 406.76 599.71 788.90 500.08 931.80 499.89 942.66 583.22 813.76 702.83 924.73 703.24
00000305 00000040 553.92 232.59 407.19 606.63 786.55 495.29 929.82 492.58 940.79 578.29 812.49 699.38 924.91 697.83
00000306 00000041 551.14 232.46 409.45 608.06 782.09 491.63 929.09 488.96 939.88 575.58 810.19 699.14 925.39 697.88
00000307 00000042 550.79 233.73 410.90 609.62 783.84 494.47 928.89 492.23 939.55 578.59 809.98 701.22 923.78 700.22
00000308 00000043 555.36 239.20 407.09 605.73 786.03 497.88 932.81 498.12 940.37 582.57 807.49 702.88 923.52 703.79
00000309 00000044 549.41 235.08 410.65 613.96 784.31 490.41 920.95 496.21 935.56 589.43 800.58 700.88 909.54 707.41
00000310 00000045 548.43 237.54 409.29 613.29 773.69 496.90 920.31 492.16 935.05 591.36 794.07 704.17 917.17 701.98
00000311 00000046 548.05 239.37 409.13 614.20 773.05 501.48 920.27 495.39 933.07 593.82 793.54 706.55 918.26 703.38
00000312 00000047 551.59 235.77 410.74 618.89 773.34 501.24 926.18 495.77 934.40 594.10 790.86 707.52 919.80 705.20
00000313 00000048 547.36 236.63 416.99 614.92 791.23 496.72 926.77 502.93 944.28 599.96 790.19 699.46 906.20 707.52
00000314 00000049 545.58 236.47 418.89 623.20 788.48 490.77 922.54 496.13 940.68 596.23 783.29 698.28 901.90 705.91
00000315 00000050 544.36 237.75 418.43 627.08 790.10 495.35 922.08 501.23 939.95 598.75 780.89 699.17 900.31 707.17
00000316 00000051 538.52 241.74 422.75 630.53 789.69 505.28 920.17 510.17 938.47 605.67 783.30 710.40 897.29 716.74
00000317 00000052 547.05 244.13 417.09 634.61 772.72 517.49 931.12 519.20 929.14 609.72 791.09 727.34 917.27 731.54
00000318 00000053 553.89 242.60 413.25 623.24 787.99 512.61 936.21 516.60 943.83 605.62 813.91 725.30 925.70 728.74
00000319 00000054 558.93 234.55 407.13 628.28 787.23 508.86 932.92 514.60 942.20 597.18 819.54 719.79 931.83 724.47
00000320 00000055 557.47 237.67 406.86 632.89 789.97 504.41 927.73 510.02 941.27 592.40 822.20 720.33 929.78 724.92
00000321 00000056 558.21 240.92 408.72 627.20 793.19 505.29 934.73 510.94 943.77 602.37 821.37 725.56 928.73 730.23
00000322 00000057 559.36 244.40 410.80 621.92 791.03 509.46 937.54 512.01 944.61 607.38 818.72 727.69 930.90 729.79
00000323 00000058 559.31 241.87 410.15 621.57 790.78 505.04 937.04 509.26 944.39 602.52 817.80 722.97 930.90 726.48
00000324 00000059 555.65 241.45 411.69 622.88 786.98 503.09 933.30 508.65 941.00 599.71 812.82 720.42 927.08 724.99
00000325 00000060 552.13 248.50 417.33 620.51 785.75 511.38 934.20 509.97 940.78 611.87 799.29 725.93 920.36 725.96
00000326 00000061 544.17 260.78 424.62 643.28 786.58 524.92 932.29 524.08 940.13 629.18 780.11 738.74 910.33 740.32
00000327 00000062 541.98 259.53 426.97 666.63 786.68 532.26 931.62 534.96 939.51 640.03 774.90 750.33 907.78 754.76
00000328 00000063 545.08 262.17 424.21 665.17 786.58 530.80 929.43 533.02 939.98 634.86 773.58 745.21 909.91 749.45
00000329 00000064 547.09 262.71 422.06 650.40 781.76 518.99 925.22 518.40 935.72 619.08 775.39 732.78 912.15 734.41
00000330 00000065 546.92 261.64 417.49 643.86 777.89 512.48 917.70 513.47 932.47 610.73 775.42 726.11 907.71 729.13
00000331 00000066 540.88 259.97 418.10 635.11 770.62 508.34 910.03 506.33 926.65 606.80 775.08 724.17 901.66 724.21
00000332 00000067 534.77 255.03 421.24 631.92 767.66 506.31 903.98 501.70 923.48 601.15 777.50 719.59 901.02 716.78
00000333 00000068 532.17 249.19 419.26 632.39 760.74 497.32 899.03 493.35 919.46 591.46 777.14 713.65 899.26 711.35
00000334 00000069 527.16 249.70 423.05 632.02 752.82 490.72 894.80 484.25 915.37 584.34 770.74 709.75 896.98 704.88
00000335 00000070 522.13 249.74 421.15 637.16 746.27 490.56 886.19 483.97 913.12 584.67 759.35 710.95 885.85 706.29
00000336 00000071 519.14 252.11 423.39 651.47 736.93 502.10 885.45 493.74 909.50 600.73 743.70 723.11 881.42 717.20
00000337 00000072 518.19 259.68 423.55 661.07 746.46 522.58 887.89 515.10 911.51 628.51 742.80 741.20 872.84 736.77
00000338 00000073 525.81 272.15 417.45 658.63 757.23 540.83 894.45 524.38 920.87 652.11 741.71 762.02 877.54 752.66
00000339 00000074 529.18 282.82 415.00 650.65 759.55 546.79 897.08 527.44 925.26 655.27 745.67 765.84 881.18 754.28
00000340 00000075 522.11 269.65 423.09 659.78 759.82 547.48 894.73 526.73 926.13 644.93 755.79 759.68 884.19 745.98
00000341 00000076 519.84 265.47 423.46 648.98 751.16 532.71 887.89 512.90 917.13 627.64 756.71 746.29 880.87 732.40
00000342 00000077 516.67 265.85 423.77 638.04 742.45 523.55 882.59 504.89 906.82 614.26 757.01 736.68 881.26 722.91
00000343 00000078 514.04 263.10 423.96 639.41 738.12 525.65 883.70 508.57 903.93 617.23 751.76 736.90 880.10 724.28
00000344 00000079 510.87 262.27 425.11 641.74 737.69 530.50 883.76 511.15 905.19 622.97 748.56 741.63 877.21 727.44
00000345 00000080 509.36 262.02 425.53 641.55 737.02 533.31 883.60 513.15 904.71 624.53 747.83 741.72 878.02 727.05
00000346 00000081 508.40 265.14 424.98 637.08 735.67 534.78 883.35 514.66 904.08 625.11 747.63 742.42 878.28 727.85
00000347 00000082 508.41 267.22 424.87 634.06 736.62 536.14 883.70 516.62 904.99 625.69 747.98 742.37 878.59 728.43
00000348 00000083 508.04 264.60 424.47 635.43 736.24 535.78 883.87 517.82 903.46 625.84 748.38 742.53 878.23 729.72
00000349 00000084 508.41 265.73 421.19 632.63 733.96 537.36 881.16 519.29 899.80 625.61 747.60 741.65 876.99 728.54
00000350 00000085 507.26 262.36 419.75 635.31 732.81 536.93 878.38 517.71 898.09 626.31 746.17 742.06 873.58 728.10
00000351 00000086 504.71 264.00 422.53 632.25 731.83 536.46 877.56 517.50 897.03 626.18 745.94 741.65 873.05 727.85
00000352 00000087 505.35 264.02 422.26 633.11 731.51 537.87 877.35 517.74 897.55 627.65 744.19 742.94 872.63 728.41
00000353 00000088 505.28 263.20 422.46 634.74 731.52 538.09 877.13 518.50 896.57 627.28 744.97 742.51 873.21 728.27
00000354 00000089 505.62 261.74 421.58 635.08 731.47 536.50 876.88 516.85 895.89 626.09 744.82 741.30 871.99 727.02
00000355 00000090 507.72 258.24 421.51 635.31 732.56 530.97 878.67 511.40 898.38 622.52 746.29 738.15 873.39 723.88
00000356 00000091 508.98 261.42 422.96 621.16 732.50 521.63 884.59 505.77 899.50 615.49 747.19 730.23 877.76 718.68
00000357 00000092 507.84 249.21 424.67 630.07 733.94 509.18 883.88 494.27 898.32 603.03 751.98 723.66 877.17 712.66
00000358 00000093 508.06 242.95 426.51 628.82 739.00 496.97 884.92 488.73 898.81 591.05 760.59 714.03 879.45 708.52
00000359 00000094 508.16 241.58 421.09 616.56 746.95 486.88 878.50 476.76 905.59 580.58 770.29 704.18 875.06 697.92
00000360 00000095 516.54 227.93 412.83 614.71 736.93 491.37 876.39 472.05 899.20 568.65 773.99 694.80 889.31 679.72
00000361 00000096 520.94 220.10 408.50 616.39 738.70 483.42 876.86 470.21 899.01 557.77 779.98 686.97 893.06 676.36
00000362 00000097 523.84 214.21 406.91 618.88 741.55 476.71 879.70 471.67 898.30 551.00 783.93 680.66 896.92 676.36
00000363 00000098 527.55 206.12 405.77 620.94 743.47 470.81 882.84 469.47 898.71 544.42 786.80 674.23 899.21 672.88
00000364 00000099 525.90 200.65 406.93 617.55 742.94 463.75 882.26 462.83 898.39 539.12 788.11 668.87 899.02 667.61
00000365 00000100 522.36 200.68 408.42 604.45 741.94 462.15 881.27 461.73 894.37 536.93 787.86 661.94 898.16 660.93
00000366 00000101 524.41 201.29 404.40 595.48 738.98 458.49 880.72 458.10 889.90 534.08 787.25 656.90 899.62 655.70
00000367 00000102 522.83 196.27 406.73 596.64 739.43 458.69 882.28 455.14 889.37 532.27 787.40 654.37 900.81 650.50
00000368 00000103 523.75 199.28 406.28 590.03 740.45 454.55 882.34 456.35 889.48 528.43 788.34 651.81 901.03 652.70
00000369 00000104 519.95 194.01 407.95 594.05 737.47 450.87 879.20 452.05 885.53 526.07 785.19 649.27 896.64 649.62
00000370 00000105 516.71 191.31 405.75 599.59 733.36 449.40 868.65 451.60 878.52 523.19 783.26 648.20 888.84 649.59
00000371 00000106 513.90 192.49 405.98 601.34 727.52 449.05 865.26 453.29 874.77 522.98 778.41 649.72 885.06 652.76
00000372 00000107 511.52 190.43 399.91 606.00 734.24 447.09 876.17 449.67 891.89 526.79 763.89 654.48 879.90 657.10
00000373 00000108 503.49 193.86 396.49 605.56 727.04 444.64 866.81 455.10 880.83 525.51 751.71 651.56 868.03 660.89
00000374 00000109 499.11 203.42 395.35 598.43 719.11 448.49 861.40 461.14 871.38 530.37 739.83 651.56 861.88 662.63
00000375 00000110 486.13 203.28 400.77 596.84 709.28 447.40 853.83 463.04 862.67 526.56 730.93 648.25 853.50 661.79
00000376 DELETE   476.93 202.24 398.29 596.76 696.46 449.16 838.82 460.90 850.31 528.99 721.78 647.73 841.32 657.79
00000377 DELETE   463.02 200.75 394.93 594.36 679.84 445.47 817.22 457.13 828.25 525.09 712.63 642.67 824.18 652.16
00000378 00000113 451.77 204.64 397.56 581.89 664.75 447.64 800.38 455.90 811.08 520.66 710.13 642.96 817.16 649.66
CROP_BBOX: 248 0 1289 1080
