Video ID: 	V1SeN4-d7QM
H: 	1920
W: 	3840
FPS: 	23.976023976023978

FRAME INDEX X0 Y0 W H [Landmarks (5 Points)]

00006176 00000000 1784.35 234.70 485.85 755.80 1987.75 541.01 2186.21 560.19 2118.32 706.69 1966.41 791.45 2130.80 811.06
00006177 00000001 1786.26 224.78 486.36 755.85 1981.42 534.82 2183.32 553.63 2105.73 695.38 1966.93 787.88 2129.69 803.87
00006178 DELETE   1782.97 209.16 474.82 746.60 1957.91 514.84 2170.19 539.17 2084.38 678.83 1939.92 765.67 2115.91 787.16
00006179 DELETE   1754.07 194.13 493.27 733.52 1925.79 484.83 2140.22 517.93 2040.58 649.27 1902.64 731.60 2085.59 762.67
00006180 DELETE   1735.33 173.13 489.28 735.52 1897.21 455.11 2118.69 486.29 2007.63 626.17 1876.90 713.07 2059.95 741.81
00006181 00000005 1725.50 160.32 482.67 751.55 1875.53 441.48 2090.58 474.47 1979.43 602.63 1858.78 704.73 2034.95 735.43
00006182 00000006 1717.84 163.29 480.81 748.29 1866.07 442.74 2079.37 471.42 1967.61 601.04 1851.62 701.78 2028.21 729.21
00006183 00000007 1709.20 168.18 482.07 749.25 1861.88 447.78 2073.64 474.90 1962.35 612.47 1844.16 703.71 2025.81 729.95
00006184 00000008 1700.88 177.48 483.30 750.83 1855.67 456.23 2066.34 479.52 1955.24 624.74 1836.20 712.83 2021.23 736.61
00006185 00000009 1691.88 192.23 487.59 740.71 1849.91 460.29 2063.40 483.13 1952.44 625.94 1824.09 713.84 2010.89 737.86
00006186 00000010 1687.24 185.99 482.42 735.78 1839.96 461.21 2053.45 483.32 1943.40 632.95 1819.62 708.47 2010.46 730.48
00006187 00000011 1683.52 185.08 480.42 728.65 1832.79 462.99 2048.61 484.53 1938.30 636.27 1813.48 706.42 2007.44 727.24
00006188 00000012 1682.20 188.25 480.09 724.87 1831.37 465.78 2047.36 487.10 1938.27 640.60 1812.74 707.66 2007.79 727.91
00006189 00000013 1682.36 188.15 480.38 726.88 1832.33 466.07 2047.85 486.61 1939.73 640.21 1813.67 708.00 2009.17 727.72
00006190 00000014 1683.22 186.92 479.82 730.20 1833.65 465.75 2048.57 485.85 1940.76 639.71 1815.99 709.94 2008.99 729.51
00006191 00000015 1684.58 185.85 479.06 735.12 1836.47 465.44 2049.67 485.29 1943.94 640.95 1818.56 711.20 2010.33 730.72
00006192 00000016 1684.11 185.99 483.66 747.99 1842.05 465.88 2052.66 485.94 1948.63 642.56 1821.87 715.25 2012.52 735.55
00006193 00000017 1688.24 190.21 489.97 765.11 1849.39 464.52 2061.40 485.30 1953.59 632.86 1824.86 727.14 2009.95 749.42
00006194 00000018 1690.83 189.50 492.48 768.12 1854.29 463.35 2068.29 485.13 1959.48 631.52 1829.30 728.59 2016.39 751.66
00006195 00000019 1697.76 181.16 492.72 756.38 1861.01 466.44 2072.66 487.78 1966.69 633.24 1843.05 722.46 2030.80 744.86
00006196 00000020 1702.32 176.79 492.22 751.87 1866.62 464.36 2079.60 486.76 1978.03 629.46 1850.23 720.90 2036.02 744.03
00006197 00000021 1707.20 172.19 490.73 749.91 1871.36 460.30 2083.61 484.24 1982.82 626.02 1855.20 718.11 2036.08 742.21
00006198 00000022 1714.74 169.27 488.94 746.34 1874.06 459.15 2088.16 482.33 1986.65 624.08 1864.10 719.68 2041.04 742.42
00006199 00000023 1723.79 172.39 486.90 740.44 1884.54 460.03 2100.02 483.81 1999.93 624.80 1877.25 721.02 2052.26 743.01
00006200 DELETE   1731.17 182.27 490.50 734.59 1896.96 465.69 2115.49 496.52 2014.44 635.82 1879.95 720.85 2064.58 746.13
00006201 DELETE   1745.28 191.94 481.45 733.70 1907.86 478.16 2119.69 509.63 2024.51 650.88 1888.83 734.33 2065.86 761.08
00006202 DELETE   1750.87 202.33 486.19 737.85 1919.28 487.87 2133.36 522.59 2035.37 662.80 1894.14 748.90 2078.24 778.85
00006203 00000027 1755.76 204.99 485.13 736.04 1923.40 496.81 2137.49 527.26 2044.99 674.11 1900.03 748.23 2084.73 775.02
00006204 00000028 1756.59 203.82 487.11 734.18 1924.97 496.84 2139.28 527.66 2046.41 672.35 1901.65 748.29 2085.85 775.13
00006205 00000029 1756.48 206.47 487.32 731.69 1925.01 498.47 2140.38 528.27 2047.23 675.26 1901.43 749.64 2087.75 775.72
00006206 00000030 1757.36 204.54 486.96 738.75 1928.29 504.91 2143.90 530.85 2053.28 683.35 1906.41 754.62 2092.36 777.48
00006207 00000031 1755.25 208.67 487.04 741.99 1926.78 508.69 2141.28 533.33 2052.10 687.48 1903.23 755.45 2092.55 777.55
00006208 00000032 1750.98 209.61 488.97 751.65 1924.21 506.02 2137.53 532.91 2047.20 687.58 1896.32 755.82 2086.57 780.51
00006209 00000033 1748.15 210.62 488.04 758.70 1923.61 504.24 2135.67 529.67 2049.15 687.35 1895.84 757.58 2086.06 781.54
00006210 00000034 1748.46 205.75 486.85 751.57 1924.14 505.60 2138.35 528.64 2053.66 683.59 1899.82 758.20 2087.36 779.79
00006211 00000035 1748.21 206.28 481.39 738.22 1921.42 508.54 2135.71 529.77 2052.20 684.04 1903.72 761.85 2083.89 781.44
00006212 00000036 1743.21 205.62 482.88 739.36 1915.95 503.89 2130.01 530.29 2040.88 676.39 1901.61 766.99 2079.46 788.52
00006213 00000037 1737.29 207.34 485.29 763.24 1915.27 506.12 2125.92 528.21 2044.71 682.87 1900.72 769.36 2075.34 789.73
00006214 00000038 1740.28 203.97 476.76 761.96 1916.94 497.76 2122.02 520.24 2041.66 674.96 1897.32 766.88 2072.50 786.76
00006215 00000039 1734.73 204.57 475.38 747.75 1910.96 496.69 2117.83 519.64 2035.59 672.85 1897.69 758.76 2066.84 778.47
00006216 00000040 1732.26 201.96 475.05 743.68 1908.88 493.52 2115.48 516.65 2033.33 669.54 1893.38 751.04 2065.13 771.06
00006217 00000041 1732.64 204.27 473.68 734.92 1908.30 492.92 2116.61 515.55 2033.82 668.24 1894.45 751.15 2066.41 770.41
00006218 00000042 1732.95 205.07 473.86 730.13 1905.77 495.86 2115.08 515.76 2032.00 670.20 1891.09 750.49 2065.67 767.83
00006219 00000043 1731.25 203.25 475.45 732.68 1901.86 496.88 2112.89 516.67 2026.50 673.48 1883.55 747.12 2062.55 765.03
00006220 00000044 1729.89 201.06 476.31 737.52 1895.72 492.33 2107.22 514.54 2015.66 671.09 1876.88 746.35 2057.57 766.47
00006221 DELETE   1716.87 200.02 486.78 731.47 1873.39 475.00 2095.00 505.39 1989.58 652.05 1852.29 740.13 2043.16 767.04
00006222 DELETE   1715.20 193.83 472.40 723.02 1848.53 466.06 2065.51 491.41 1944.46 642.78 1833.96 726.29 2014.68 751.78
00006223 00000047 1704.59 189.11 479.18 715.60 1838.57 458.23 2057.40 484.72 1927.01 625.00 1821.46 717.31 1996.18 742.23
00006224 00000048 1708.37 182.84 475.65 707.57 1840.96 450.07 2059.86 474.61 1931.50 612.38 1828.47 705.59 2001.67 728.94
00006225 00000049 1712.61 175.65 473.60 702.45 1843.55 446.48 2063.68 470.40 1935.56 604.78 1832.67 696.89 2005.45 719.75
00006226 00000050 1712.03 174.33 473.53 701.03 1843.33 444.42 2064.20 470.00 1934.53 604.67 1829.97 692.75 2006.17 717.29
00006227 00000051 1712.86 176.20 472.37 706.55 1844.59 447.26 2064.04 471.95 1936.79 609.01 1830.86 697.07 2007.16 721.22
00006228 00000052 1712.68 156.87 470.56 729.28 1844.72 437.86 2060.62 462.79 1934.17 603.19 1827.84 698.94 2010.58 720.74
00006229 DELETE   1711.38 157.43 460.76 718.88 1836.60 431.98 2046.75 456.65 1916.01 586.48 1821.00 691.19 1995.52 712.71
00006230 00000054 1705.67 161.70 460.36 706.60 1823.47 429.51 2036.24 453.60 1898.80 569.53 1807.43 677.79 1981.40 699.07
00006231 00000055 1706.54 155.67 458.91 706.69 1826.05 426.40 2036.37 450.04 1900.98 566.79 1809.86 673.89 1980.59 694.72
00006232 00000056 1707.16 153.87 460.94 707.94 1831.04 422.19 2041.35 447.70 1904.58 565.20 1813.86 674.38 1982.05 696.53
00006233 00000057 1707.24 154.28 463.53 710.29 1832.66 422.37 2043.00 447.65 1905.98 567.47 1816.51 680.29 1983.02 702.08
00006234 00000058 1709.14 150.36 466.67 711.94 1835.77 426.56 2046.06 453.21 1912.55 580.86 1820.44 688.28 1989.05 710.69
00006235 00000059 1713.88 150.50 465.00 716.76 1840.25 434.37 2051.18 460.60 1923.43 596.28 1825.32 699.00 1995.76 721.19
00006236 00000060 1713.51 170.49 471.20 706.77 1840.27 448.62 2057.35 477.16 1924.16 609.61 1826.29 705.23 1994.08 731.52
00006237 00000061 1720.90 174.38 468.70 726.74 1844.85 452.63 2060.66 479.78 1928.59 623.99 1835.28 718.63 2001.77 743.74
00006238 00000062 1719.32 179.38 480.61 725.77 1854.40 452.26 2071.28 482.10 1938.03 620.04 1838.39 723.40 2002.88 750.15
00006239 00000063 1722.74 166.62 476.66 739.39 1855.02 447.94 2070.20 477.10 1939.96 613.79 1845.26 719.92 2001.35 746.88
00006240 00000064 1721.52 165.33 478.24 735.65 1852.15 445.98 2071.86 475.72 1938.46 613.48 1842.29 719.52 2002.91 746.73
00006241 00000065 1722.58 163.94 481.53 742.31 1855.53 444.35 2074.70 474.92 1942.79 608.99 1842.70 714.40 2008.39 742.79
00006242 00000066 1725.16 164.76 482.12 744.37 1860.40 442.52 2075.79 474.06 1944.95 605.66 1843.09 706.20 2014.44 735.90
00006243 00000067 1724.85 178.02 488.06 731.99 1857.81 442.93 2078.98 474.12 1943.97 601.98 1841.46 697.74 2013.97 727.92
00006244 00000068 1724.59 162.28 485.66 751.46 1863.83 440.51 2077.50 474.37 1945.18 602.09 1840.54 698.69 2020.17 730.36
00006245 00000069 1725.00 163.61 488.29 742.24 1869.01 442.11 2083.86 476.50 1957.19 602.83 1846.78 694.63 2030.05 726.24
00006246 00000070 1729.11 161.89 488.09 743.52 1879.80 440.70 2094.00 476.11 1977.54 609.45 1854.81 692.29 2041.48 724.16
00006247 00000071 1729.21 157.19 487.10 743.48 1881.72 437.83 2096.27 473.39 1981.53 607.23 1856.54 688.74 2043.85 720.56
00006248 00000072 1727.84 158.77 482.60 727.24 1871.14 435.99 2086.98 468.82 1965.78 599.29 1852.32 688.01 2035.83 717.30
00006249 00000073 1727.70 157.59 480.87 722.63 1863.70 435.15 2080.18 468.13 1950.78 599.30 1844.04 688.54 2024.71 718.33
00006250 00000074 1729.04 156.56 480.14 723.73 1866.05 435.61 2082.94 468.73 1955.93 601.84 1847.13 690.05 2027.02 719.85
00006251 00000075 1731.87 156.17 480.36 721.72 1870.51 434.32 2088.15 467.84 1964.37 598.02 1853.42 690.15 2033.35 719.98
00006252 00000076 1735.32 155.32 479.97 721.78 1872.75 433.45 2089.80 467.43 1965.28 595.52 1854.16 686.58 2036.64 716.57
00006253 00000077 1731.71 157.31 485.95 710.19 1877.97 434.82 2094.19 467.98 1964.85 593.67 1856.68 677.77 2038.60 708.17
00006254 00000078 1736.87 156.19 483.71 714.11 1884.03 435.04 2099.68 466.89 1973.55 594.04 1864.69 677.79 2046.72 707.06
00006255 00000079 1744.19 151.50 479.38 739.33 1885.55 436.06 2101.00 466.75 1981.08 593.56 1868.98 685.21 2047.61 713.76
00006256 00000080 1745.46 149.33 478.96 754.68 1887.27 434.24 2099.70 463.41 1980.72 588.78 1872.33 686.75 2044.07 714.26
00006257 00000081 1745.13 147.03 478.57 763.30 1887.45 434.72 2099.23 463.08 1980.73 589.46 1871.29 689.35 2044.56 716.33
00006258 00000082 1743.69 149.70 480.41 759.65 1886.61 436.66 2099.75 464.44 1981.71 591.47 1870.54 690.63 2045.80 717.18
00006259 00000083 1743.87 154.63 477.69 751.07 1883.13 439.93 2094.68 465.44 1974.87 595.21 1868.28 690.11 2044.90 715.00
00006260 DELETE   1743.72 162.12 470.10 737.33 1874.28 448.01 2080.47 473.24 1951.59 591.68 1859.69 688.86 2033.35 713.65
00006261 DELETE   1737.01 155.02 470.66 748.64 1852.07 449.28 2062.76 472.21 1924.09 588.35 1842.94 695.27 2020.13 717.54
00006262 00000086 1731.34 158.09 471.64 743.59 1842.61 452.62 2056.99 477.06 1913.76 596.16 1836.04 698.52 2012.90 721.71
00006263 00000087 1733.00 164.66 472.19 748.30 1847.89 458.29 2057.93 481.00 1919.27 604.29 1842.48 706.99 2016.07 728.89
00006264 00000088 1733.66 169.05 477.63 752.46 1855.41 464.63 2063.20 486.45 1931.31 614.92 1847.44 716.59 2020.54 738.61
00006265 00000089 1714.03 174.88 476.02 721.46 1816.37 449.70 2030.97 470.39 1877.51 586.46 1805.58 706.35 1989.75 725.41
00006266 00000090 1717.16 182.34 471.97 718.70 1815.18 456.39 2023.55 476.62 1873.55 596.47 1806.45 717.77 1976.77 735.81
00006267 00000091 1719.24 198.34 469.72 709.29 1814.64 475.45 2029.07 495.12 1872.55 609.27 1807.46 733.40 1977.87 752.68
00006268 DELETE   1723.04 199.90 468.41 711.66 1824.69 477.64 2041.20 499.84 1889.10 615.24 1812.91 738.73 1990.74 759.59
00006269 00000093 1726.69 192.37 472.61 726.28 1832.50 474.42 2054.65 497.78 1903.19 619.42 1821.30 740.04 2006.06 761.46
00006270 00000094 1735.78 200.65 464.20 716.91 1836.49 478.06 2048.61 497.81 1903.06 610.64 1833.24 732.38 2000.79 752.38
00006271 00000095 1734.54 192.20 465.91 720.13 1835.81 475.41 2046.47 494.43 1900.54 603.60 1835.40 731.40 1995.80 750.94
00006272 00000096 1734.61 184.45 467.87 725.43 1834.57 472.64 2047.33 487.17 1898.66 606.47 1840.11 738.23 1995.01 753.58
00006273 00000097 1733.62 182.06 467.29 727.23 1835.42 476.59 2047.59 491.06 1902.48 619.56 1840.15 750.44 1995.78 764.73
00006274 00000098 1730.05 188.37 470.22 730.52 1834.08 481.56 2045.60 495.14 1903.48 627.86 1839.71 758.93 1993.09 772.03
00006275 00000099 1733.16 179.36 467.98 753.05 1826.71 487.51 2043.72 496.49 1900.72 643.50 1846.30 770.88 1991.50 780.60
00006276 00000100 1732.87 182.28 468.50 761.49 1828.83 485.14 2045.42 495.88 1902.54 641.67 1844.23 773.27 1990.00 784.54
00006277 00000101 1735.95 181.24 466.91 761.81 1832.11 478.37 2045.49 490.74 1900.14 633.02 1843.50 763.82 1990.19 776.59
00006278 00000102 1732.05 188.95 475.00 739.89 1833.27 471.23 2049.32 482.53 1900.16 613.99 1842.46 749.18 1991.64 761.36
00006279 00000103 1732.57 188.94 473.22 718.75 1833.63 474.84 2048.14 489.28 1903.60 619.46 1838.00 743.25 1998.77 757.24
00006280 00000104 1732.61 192.31 473.97 712.92 1833.88 478.07 2049.40 495.21 1905.15 624.98 1834.23 739.42 2002.43 755.33
00006281 00000105 1731.13 192.70 475.71 718.97 1833.97 481.53 2050.91 500.40 1904.70 630.06 1829.97 740.79 2007.15 757.91
00006282 00000106 1731.01 196.53 477.80 717.79 1834.88 481.77 2052.37 501.13 1905.82 631.53 1831.25 740.82 2010.59 758.29
00006283 00000107 1735.28 192.21 475.85 727.47 1837.58 480.18 2053.90 498.74 1907.22 630.67 1836.39 745.69 2010.49 762.41
00006284 00000108 1737.40 191.01 475.54 729.86 1841.46 478.24 2057.88 495.71 1913.00 630.30 1842.55 748.83 2012.94 764.40
00006285 00000109 1739.19 191.66 476.28 728.27 1844.49 477.36 2061.32 494.97 1916.70 629.19 1846.11 748.40 2014.82 764.10
00006286 00000110 1741.93 194.33 473.73 725.00 1846.86 479.33 2063.72 497.44 1920.31 631.67 1848.29 751.34 2016.97 767.28
00006287 00000111 1744.37 197.35 470.99 725.65 1853.80 481.31 2065.59 497.21 1923.50 631.66 1852.18 755.09 2020.92 769.02
00006288 00000112 1742.68 196.12 473.25 729.19 1854.34 481.65 2067.49 497.16 1925.13 633.32 1852.60 756.40 2024.42 769.90
00006289 00000113 1743.07 192.63 473.89 726.30 1851.60 481.42 2069.05 497.20 1923.43 633.10 1849.17 756.07 2027.70 769.92
00006290 00000114 1739.20 190.94 477.45 717.90 1847.40 479.79 2070.71 500.04 1924.97 640.04 1843.48 740.12 2020.61 759.46
00006291 00000115 1740.51 192.49 475.64 707.03 1848.94 480.06 2069.83 501.17 1926.06 640.22 1846.83 737.80 2016.94 757.64
00006292 00000116 1739.21 194.50 479.22 708.59 1851.00 482.13 2071.47 504.63 1928.40 640.08 1846.83 735.81 2018.72 757.20
00006293 00000117 1739.86 194.88 478.76 713.28 1853.36 484.12 2070.22 507.69 1927.54 641.28 1846.95 735.13 2018.85 757.64
00006294 00000118 1742.16 198.24 473.72 712.36 1853.60 489.15 2066.68 511.16 1925.73 639.86 1848.23 733.78 2021.67 755.40
CROP_BBOX: 1379 0 2575 1161
