Video ID: 	w51Xx9rcEy4
H: 	1080
W: 	1920
FPS: 	23.976023976023978

FRAME INDEX X0 Y0 W H [Landmarks (5 Points)]

00021465 00000000 917.70 105.60 423.77 585.41 999.03 356.31 1180.72 314.65 1085.78 431.88 1053.37 553.46 1209.60 518.20
00021466 00000001 910.58 107.97 427.13 581.15 991.76 357.95 1175.02 311.11 1082.20 430.00 1050.18 552.64 1209.49 512.94
00021467 00000002 906.46 111.16 426.82 578.74 988.18 359.91 1170.14 308.00 1078.90 425.48 1047.71 553.28 1204.95 509.38
00021468 00000003 903.12 118.77 425.11 568.75 984.66 360.54 1164.34 306.52 1076.18 423.91 1047.93 552.88 1201.42 506.90
00021469 00000004 897.56 121.86 430.05 573.41 979.67 359.26 1164.14 303.73 1071.86 424.38 1044.99 558.74 1201.60 511.68
00021470 00000005 891.79 122.31 431.17 580.74 972.37 364.60 1155.24 306.54 1063.81 429.45 1039.28 563.43 1197.01 514.47
00021471 DELETE   889.32 122.98 427.47 580.66 972.96 364.80 1152.17 316.40 1061.37 436.72 1036.12 564.14 1187.14 523.76
00021472 00000007 882.22 127.28 433.78 583.66 962.72 372.66 1143.89 319.43 1050.92 443.69 1032.98 575.57 1182.32 531.31
00021473 DELETE   883.63 130.16 433.20 592.87 957.52 383.44 1139.90 331.07 1040.64 455.81 1029.04 588.85 1178.32 545.61
00021474 00000009 879.39 134.60 436.45 607.95 954.93 399.08 1135.35 340.68 1041.56 473.35 1029.99 602.40 1181.08 554.55
00021475 00000010 875.57 151.04 440.05 598.76 955.88 417.49 1125.33 352.65 1040.98 491.25 1033.34 618.83 1180.88 562.91
00021476 00000011 872.81 150.79 445.12 608.84 953.58 421.24 1124.74 355.90 1038.52 493.29 1032.14 626.50 1178.15 570.08
00021477 00000012 873.13 152.11 445.12 608.77 952.97 421.82 1125.04 359.35 1038.22 495.03 1028.50 625.71 1176.08 571.87
00021478 00000013 875.28 154.67 443.59 601.06 953.53 421.30 1126.63 359.55 1037.74 493.48 1027.38 622.93 1175.25 569.93
00021479 00000014 877.18 151.62 443.50 604.42 956.27 418.15 1126.22 358.55 1037.02 492.03 1028.10 619.54 1175.40 568.19
00021480 00000015 880.88 151.65 440.43 602.34 957.82 415.15 1125.79 357.75 1036.93 490.03 1027.55 615.48 1174.82 565.80
00021481 00000016 882.78 148.86 439.76 601.19 958.49 411.84 1128.87 355.18 1039.14 488.14 1027.00 611.71 1174.96 562.94
00021482 00000017 884.38 147.48 438.12 602.13 958.96 409.56 1132.81 355.74 1040.74 486.96 1023.14 609.98 1175.17 564.12
00021483 00000018 884.96 145.28 436.13 601.90 956.95 406.26 1132.19 356.86 1036.14 487.10 1018.34 607.84 1171.50 565.49
00021484 00000019 887.87 142.86 433.58 597.66 957.54 399.69 1128.29 354.81 1033.50 485.66 1019.00 596.54 1158.59 560.08
00021485 00000020 886.31 145.57 431.21 592.65 955.04 395.77 1126.56 353.67 1029.50 484.12 1013.93 594.56 1153.83 560.35
00021486 00000021 885.26 144.37 429.08 588.95 952.37 394.52 1123.18 351.26 1028.34 481.17 1010.63 592.35 1149.37 557.18
00021487 00000022 884.73 143.76 425.13 581.92 950.39 393.33 1120.92 347.58 1027.12 476.64 1007.93 589.01 1145.15 551.69
00021488 00000023 884.44 143.79 423.13 572.21 946.15 389.60 1118.06 342.59 1023.18 471.89 1003.52 584.53 1142.09 545.77
00021489 00000024 887.84 143.98 420.79 563.82 946.28 388.68 1118.93 339.93 1021.90 466.29 1003.82 582.06 1139.37 541.90
00021490 00000025 891.44 141.25 419.89 567.92 949.70 385.56 1119.91 338.17 1024.15 463.10 1006.63 580.14 1138.95 541.05
00021491 00000026 892.10 139.10 423.17 574.77 953.02 383.82 1123.92 340.33 1025.01 460.33 1008.75 581.83 1138.06 545.97
00021492 00000027 893.15 136.61 425.42 584.75 956.03 383.62 1128.88 341.86 1026.68 462.93 1010.64 584.90 1141.96 550.78
00021493 00000028 897.42 137.44 422.97 588.45 961.80 383.62 1132.49 341.79 1029.42 464.56 1017.43 585.23 1148.80 551.12
00021494 00000029 901.84 140.31 413.82 601.02 969.70 378.55 1138.74 343.31 1036.97 460.11 1021.88 591.28 1160.37 561.47
00021495 00000030 910.00 142.04 411.07 597.16 977.95 377.36 1143.85 342.78 1042.30 457.70 1028.14 588.33 1163.45 560.12
00021496 00000031 912.08 140.00 414.13 602.01 979.28 376.61 1149.46 339.94 1044.68 456.95 1029.84 590.34 1173.09 560.14
00021497 00000032 912.61 139.70 415.01 599.05 979.06 379.91 1152.91 343.15 1047.67 459.81 1029.74 590.58 1176.69 560.29
00021498 00000033 913.82 140.59 414.14 595.22 981.10 382.90 1155.77 347.00 1052.58 463.68 1029.75 589.43 1181.08 559.78
00021499 00000034 913.62 146.37 415.91 586.58 981.81 385.10 1156.87 350.25 1054.73 466.03 1029.62 588.06 1181.48 559.04
00021500 00000035 916.48 144.64 411.62 577.87 984.90 384.83 1161.32 354.39 1059.27 466.69 1027.89 584.43 1179.74 559.42
00021501 00000036 916.07 143.20 413.83 576.06 986.93 385.05 1163.17 355.58 1061.62 465.30 1028.23 581.60 1180.15 557.52
00021502 00000037 917.12 141.32 414.73 575.41 988.77 383.04 1164.61 353.99 1064.02 462.94 1030.60 577.40 1183.69 553.61
00021503 00000038 919.55 141.38 415.78 575.50 990.41 381.53 1167.35 353.19 1064.80 462.29 1032.69 578.34 1186.37 554.75
00021504 00000039 924.72 139.11 415.41 579.20 992.65 379.31 1169.96 351.29 1063.81 460.82 1036.74 580.10 1186.38 557.13
00021505 00000040 926.22 136.93 415.60 580.34 996.46 377.88 1172.93 350.21 1068.39 459.20 1041.50 578.10 1186.68 555.58
00021506 00000041 929.75 133.76 414.13 585.51 1002.45 375.08 1173.87 349.06 1072.01 457.48 1046.63 574.71 1186.26 553.54
00021507 00000042 932.55 136.09 413.53 580.42 1007.32 372.77 1176.57 347.08 1076.88 454.19 1051.30 571.48 1186.42 550.13
00021508 00000043 931.48 133.49 416.81 583.37 1006.91 371.94 1180.19 345.65 1078.35 453.28 1050.19 570.47 1191.18 548.80
00021509 00000044 931.79 130.77 417.05 582.81 1005.13 372.41 1182.79 345.37 1077.80 454.25 1047.46 571.73 1192.93 549.48
00021510 00000045 936.28 126.61 421.78 582.18 1005.94 370.50 1188.81 340.21 1085.83 451.98 1050.40 571.51 1190.25 545.23
00021511 00000046 937.85 127.59 422.56 583.75 1009.28 368.43 1192.42 338.85 1089.07 450.76 1051.33 569.97 1192.23 544.39
00021512 00000047 934.69 125.55 416.12 585.51 1013.03 369.64 1191.17 342.02 1091.05 450.26 1054.08 567.92 1200.65 544.96
00021513 00000048 934.46 125.65 418.24 585.92 1012.92 370.12 1192.88 341.74 1091.73 449.34 1053.74 567.65 1203.03 543.84
00021514 00000049 934.92 127.20 419.94 585.45 1013.95 370.68 1193.17 342.44 1092.10 449.22 1054.19 566.84 1204.05 542.91
00021515 00000050 934.74 127.57 416.50 586.22 1012.80 373.48 1191.05 343.84 1090.95 450.64 1053.45 569.19 1204.41 544.51
00021516 00000051 934.72 128.26 417.17 587.37 1012.51 373.82 1191.04 345.44 1090.68 453.07 1052.94 569.27 1203.80 545.61
00021517 00000052 935.28 128.42 416.37 588.10 1013.38 373.70 1190.72 346.71 1090.90 455.31 1053.23 569.22 1201.75 546.95
00021518 00000053 934.19 130.49 419.39 588.53 1012.87 374.11 1190.40 347.54 1090.28 456.67 1053.79 569.28 1202.21 546.99
00021519 00000054 934.67 129.38 418.11 590.03 1011.65 374.98 1190.57 347.69 1088.46 458.45 1053.45 573.59 1201.99 551.20
00021520 00000055 933.86 131.70 422.21 595.46 1011.08 375.74 1189.77 346.66 1088.52 460.56 1056.33 576.53 1204.69 552.41
00021521 00000056 933.78 131.42 424.54 604.79 1011.66 379.87 1190.83 347.67 1088.73 463.37 1057.56 581.47 1210.43 554.29
00021522 00000057 935.46 131.54 418.90 594.67 1010.81 384.54 1189.71 350.01 1089.27 463.91 1055.82 581.65 1209.83 553.09
00021523 00000058 934.97 130.74 419.10 595.06 1011.18 385.45 1189.28 351.99 1089.55 464.78 1055.53 581.27 1209.28 553.45
00021524 00000059 935.20 131.59 417.29 593.47 1011.04 386.63 1188.79 353.10 1089.81 466.82 1056.62 582.44 1209.28 554.44
00021525 00000060 934.88 132.12 415.48 589.07 1010.12 387.18 1187.93 353.59 1088.72 465.02 1054.08 580.32 1209.10 552.49
00021526 00000061 933.05 134.94 413.70 585.53 1008.91 387.78 1186.91 354.48 1088.64 463.30 1051.50 578.90 1208.52 551.59
00021527 00000062 932.73 134.93 412.67 585.99 1008.35 385.42 1186.88 353.93 1088.37 463.45 1051.54 579.05 1204.13 553.47
00021528 00000063 933.64 133.76 413.30 585.76 1011.42 385.89 1183.41 354.57 1088.81 461.66 1055.25 574.15 1204.09 548.14
00021529 00000064 933.08 130.22 410.35 588.87 1017.50 385.76 1182.74 357.36 1093.77 456.84 1059.40 569.12 1204.27 545.30
00021530 00000065 932.61 126.34 409.52 590.78 1017.62 382.50 1184.30 353.03 1094.71 452.05 1061.09 567.36 1204.50 542.49
00021531 00000066 931.65 136.73 411.26 577.28 1020.25 374.34 1186.35 343.86 1098.69 446.38 1066.70 565.30 1204.18 539.87
00021532 00000067 928.56 125.34 415.29 583.57 1015.22 374.23 1189.87 342.90 1100.28 449.40 1065.32 566.88 1208.49 539.97
00021533 00000068 924.64 112.84 422.90 588.87 1010.93 365.39 1194.16 337.98 1097.80 448.52 1059.96 563.77 1208.38 540.67
00021534 00000069 925.06 116.09 421.35 585.53 1010.65 362.34 1192.12 331.46 1097.05 444.25 1060.63 563.05 1207.26 537.17
00021535 00000070 927.20 114.20 418.21 592.94 1009.25 359.71 1191.08 324.94 1095.13 440.52 1059.25 563.65 1209.73 534.65
00021536 00000071 928.50 113.71 414.55 584.06 1007.92 358.21 1191.47 322.00 1095.05 434.97 1059.13 561.43 1210.80 531.22
00021537 00000072 929.53 115.15 415.70 574.88 1009.24 355.06 1190.22 321.50 1095.05 433.77 1059.05 555.30 1208.22 527.05
00021538 00000073 927.58 111.81 414.27 577.91 1009.97 353.86 1186.56 318.68 1095.90 431.25 1058.32 550.32 1208.38 520.68
00021539 00000074 926.83 110.22 415.18 578.45 1009.86 351.64 1183.67 317.78 1093.50 429.33 1056.64 546.11 1206.10 517.18
00021540 00000075 928.36 112.38 415.73 572.31 1008.69 351.29 1179.30 316.27 1088.71 425.79 1056.21 543.13 1202.06 513.18
00021541 00000076 927.48 112.21 415.69 573.43 1007.82 349.54 1176.56 315.55 1085.11 423.85 1055.64 543.50 1197.82 514.72
00021542 00000077 929.38 110.86 415.99 577.64 1008.87 348.29 1179.14 315.87 1082.63 422.54 1052.65 544.67 1195.58 517.66
00021543 00000078 929.52 110.53 416.70 578.47 1005.49 352.09 1182.80 319.86 1079.91 425.56 1049.14 552.02 1194.70 525.46
00021544 00000079 927.49 107.58 416.18 590.09 1002.67 354.53 1185.70 322.20 1080.09 432.52 1044.86 557.31 1199.50 530.31
00021545 00000080 922.64 112.45 415.08 587.19 998.75 358.40 1182.73 328.51 1077.48 443.13 1043.32 561.42 1197.92 536.15
00021546 00000081 913.43 119.92 422.16 587.82 993.15 364.45 1175.18 337.38 1071.17 452.15 1037.90 565.33 1191.88 542.61
00021547 00000082 908.76 129.08 416.22 584.00 988.67 376.94 1168.61 346.73 1074.09 456.95 1037.78 573.38 1189.61 548.00
00021548 00000083 900.38 121.61 420.53 593.58 980.33 372.49 1160.60 343.29 1058.67 456.62 1028.31 570.32 1181.99 546.07
00021549 00000084 898.53 121.39 421.43 597.50 974.00 373.92 1152.77 343.53 1050.08 457.12 1020.56 574.05 1173.98 549.09
00021550 DELETE   897.69 124.39 420.60 591.53 969.70 377.03 1143.78 343.44 1043.42 458.04 1018.28 573.94 1169.87 546.32
00021551 00000086 897.96 124.54 420.30 592.74 969.40 377.15 1142.54 343.53 1042.95 460.13 1020.35 574.47 1170.66 546.66
00021552 00000087 902.46 124.13 419.50 600.65 973.23 380.63 1145.24 344.87 1044.19 461.45 1026.69 579.77 1174.60 550.31
00021553 00000088 905.85 126.75 418.53 592.40 976.16 385.09 1151.97 350.18 1049.30 468.76 1028.93 578.94 1180.39 550.06
00021554 00000089 909.63 133.11 418.96 591.90 980.74 389.38 1154.27 354.55 1052.87 473.39 1032.60 581.66 1184.41 552.76
00021555 00000090 910.77 132.87 421.60 594.12 981.33 393.72 1153.85 360.28 1051.39 481.91 1034.78 587.96 1181.91 560.00
00021556 00000091 912.28 126.74 418.65 609.52 978.02 393.86 1150.93 359.12 1047.90 486.89 1033.68 594.72 1182.39 565.74
00021557 00000092 912.85 135.84 413.01 612.21 974.49 407.60 1142.56 362.75 1043.21 493.19 1032.53 610.36 1182.22 572.75
00021558 DELETE   917.02 133.89 413.07 613.56 973.78 404.43 1135.19 366.15 1028.42 495.34 1026.65 604.91 1157.71 573.79
00021559 DELETE   913.95 131.11 417.37 625.33 968.39 406.71 1127.43 367.77 1018.53 498.83 1019.94 611.84 1149.57 580.07
00021560 00000095 915.09 131.62 416.08 624.68 967.48 405.30 1123.22 367.29 1012.08 497.95 1018.41 612.95 1144.59 581.70
00021561 00000096 918.85 128.74 415.37 624.15 966.84 405.38 1121.11 367.68 1007.24 497.74 1017.00 610.93 1142.78 579.88
00021562 00000097 923.38 131.72 410.25 625.09 970.73 406.89 1122.54 371.42 1008.09 499.33 1018.95 613.48 1142.10 584.45
00021563 00000098 924.84 130.29 410.02 626.09 971.80 410.03 1126.10 374.67 1009.01 499.87 1019.72 616.64 1141.96 587.97
00021564 00000099 927.54 129.29 407.50 631.35 970.57 416.61 1123.46 377.65 1004.65 501.10 1019.66 621.03 1142.86 589.33
00021565 00000100 925.55 130.72 411.12 624.58 968.41 416.04 1119.57 379.14 1000.68 502.34 1016.97 619.52 1137.00 589.56
00021566 00000101 927.72 133.87 407.71 619.51 969.61 407.99 1118.08 372.09 996.07 497.10 1016.91 614.82 1136.37 585.41
00021567 00000102 933.01 130.14 408.74 618.31 973.90 399.87 1115.97 368.38 995.42 492.30 1018.81 605.02 1136.90 578.50
00021568 00000103 940.38 125.32 407.03 631.74 980.71 397.63 1120.10 367.22 999.27 488.12 1022.92 602.09 1142.45 575.94
00021569 00000104 942.73 125.82 408.41 631.65 985.53 394.36 1120.65 364.02 1002.08 487.85 1027.75 602.41 1142.64 576.52
00021570 00000105 942.74 129.64 406.30 629.49 985.89 393.95 1123.82 366.30 1002.54 488.61 1025.22 603.34 1143.52 579.86
00021571 00000106 940.95 125.03 403.92 633.45 982.07 398.21 1122.87 371.34 999.70 492.82 1021.30 608.88 1137.15 586.49
00021572 00000107 938.79 122.08 400.91 633.06 976.49 399.54 1119.02 375.60 995.94 494.80 1013.25 607.91 1128.60 588.23
00021573 00000108 931.55 126.22 402.64 625.67 969.83 396.72 1113.14 377.07 991.50 493.55 1005.01 601.52 1121.83 585.52
00021574 DELETE   923.99 132.60 406.04 615.47 965.55 394.80 1110.88 376.38 989.80 487.77 998.53 598.19 1114.98 583.17
00021575 DELETE   922.16 125.93 407.81 615.63 962.71 388.33 1103.18 370.86 979.97 475.92 991.08 591.08 1105.82 576.91
00021576 DELETE   919.70 119.09 409.32 608.53 959.63 375.90 1100.80 363.26 973.95 464.69 982.71 581.72 1096.19 571.86
00021577 00000112 921.70 117.99 410.45 620.72 960.24 370.95 1100.49 358.41 969.41 458.74 983.24 584.24 1094.84 574.39
CROP_BBOX: 654 0 1692 975
