Video ID: 	TLHGrDD-Mec
H: 	1080
W: 	1920
FPS: 	25.0

FRAME INDEX X0 Y0 W H [Landmarks (5 Points)]

00002175 00000000 1043.71 97.95 408.48 625.70 1144.04 333.93 1316.40 331.51 1238.03 461.05 1168.88 542.22 1321.42 538.67
00002176 00000001 1042.01 100.01 407.92 624.87 1143.08 336.68 1314.15 334.77 1236.85 463.48 1168.73 546.20 1317.10 543.31
00002177 00000002 1042.46 106.12 406.52 620.81 1143.87 338.45 1313.09 336.40 1236.99 464.04 1171.53 549.56 1316.06 546.63
00002178 00000003 1041.32 97.28 410.67 615.19 1146.13 339.15 1316.68 335.87 1239.33 465.78 1175.91 551.80 1321.33 549.16
00002179 00000004 1043.15 97.24 409.66 608.61 1148.86 338.68 1319.86 336.47 1242.24 466.58 1177.74 548.35 1325.13 546.23
00002180 00000005 1047.11 97.03 407.35 607.58 1152.12 337.01 1323.48 335.30 1244.32 463.22 1181.94 549.42 1326.89 547.39
00002181 00000006 1050.13 94.60 408.04 618.94 1155.43 337.16 1325.95 333.95 1246.43 461.47 1186.73 555.84 1328.95 552.45
00002182 00000007 1052.61 94.55 408.72 616.74 1157.50 338.15 1328.19 334.91 1247.23 460.59 1188.46 556.45 1329.18 553.11
00002183 00000008 1054.86 97.15 407.49 614.14 1160.10 339.22 1329.85 337.44 1248.47 461.60 1189.72 556.34 1330.22 554.19
00002184 00000009 1059.23 107.01 404.75 615.60 1163.24 339.92 1334.90 339.25 1256.42 463.28 1191.17 556.57 1326.12 555.17
00002185 00000010 1063.27 114.63 403.36 616.90 1168.34 341.06 1336.38 341.26 1260.01 464.67 1191.16 553.93 1331.87 552.97
00002186 00000011 1066.10 115.52 403.88 615.06 1170.93 343.69 1339.53 343.35 1263.25 467.51 1192.42 553.75 1338.30 552.11
00002187 00000012 1070.06 114.31 399.95 612.80 1178.34 352.51 1340.33 352.07 1266.99 474.11 1197.50 552.79 1341.80 550.93
00002188 00000013 1068.30 106.12 398.88 615.42 1183.44 359.03 1345.30 360.02 1266.94 476.26 1198.41 553.13 1348.32 553.15
00002189 DELETE   1071.55 105.51 396.94 616.89 1183.60 356.13 1346.09 355.27 1267.70 476.87 1200.58 554.83 1350.67 553.12
00002190 00000015 1072.12 99.06 398.03 622.10 1183.90 351.28 1344.16 348.76 1268.60 476.15 1201.80 552.73 1351.65 549.55
00002191 00000016 1069.87 97.96 401.49 621.87 1180.76 346.41 1343.73 342.21 1266.46 473.92 1200.84 552.12 1352.64 547.15
00002192 00000017 1069.47 98.33 402.06 620.01 1181.86 344.68 1345.05 339.77 1267.84 472.41 1203.38 551.47 1354.76 545.70
00002193 00000018 1068.97 96.84 402.92 622.31 1182.65 344.97 1346.49 339.81 1269.65 473.21 1203.75 551.55 1355.96 545.51
00002194 00000019 1072.38 108.65 406.39 614.33 1185.32 348.33 1352.49 344.84 1280.34 479.64 1203.93 548.71 1355.48 544.01
00002195 00000020 1074.18 109.18 406.38 617.21 1186.45 350.91 1354.59 345.86 1282.05 480.19 1204.94 551.60 1359.51 545.64
00002196 00000021 1074.23 109.45 405.22 619.24 1187.30 350.73 1354.85 345.56 1283.16 480.83 1207.31 555.29 1357.83 549.32
00002197 00000022 1073.31 107.43 405.43 620.24 1186.83 347.20 1354.44 343.96 1281.80 478.10 1206.32 553.86 1355.06 549.45
00002198 00000023 1068.59 97.73 403.82 621.54 1182.92 343.23 1344.21 339.83 1266.24 471.50 1205.85 555.03 1349.69 550.64
00002199 00000024 1066.39 94.03 403.65 612.82 1178.87 342.14 1340.10 339.40 1262.19 470.80 1202.69 550.19 1342.97 546.91
00002200 00000025 1064.19 95.84 404.01 606.21 1171.04 342.17 1335.17 337.66 1257.16 467.89 1198.75 548.96 1340.05 544.38
00002201 00000026 1060.29 96.32 406.64 612.14 1163.42 340.35 1330.47 334.68 1250.59 463.58 1194.52 553.99 1336.04 548.37
00002202 00000027 1057.64 91.69 407.78 614.73 1157.68 341.56 1327.36 332.32 1248.68 462.82 1194.10 556.32 1338.83 547.49
00002203 00000028 1055.09 96.12 405.99 613.48 1154.44 342.81 1323.57 334.53 1245.05 466.85 1191.99 560.30 1334.02 552.62
00002204 00000029 1054.92 98.70 403.00 621.33 1154.77 347.75 1317.67 340.73 1240.00 470.35 1188.57 561.73 1327.87 555.67
00002205 00000030 1054.41 104.66 401.36 620.57 1152.39 353.54 1317.45 345.66 1239.75 481.45 1183.43 560.41 1334.27 553.44
00002206 00000031 1058.26 117.76 398.35 620.78 1156.29 359.45 1319.90 354.60 1248.13 495.50 1180.17 564.01 1332.02 558.58
00002207 00000032 1059.22 119.54 401.44 618.33 1157.81 362.97 1324.36 357.00 1252.01 499.66 1182.12 564.90 1336.71 558.49
00002208 00000033 1061.45 116.88 403.22 623.00 1162.44 361.68 1328.73 356.17 1256.94 500.40 1185.83 563.84 1341.35 557.92
00002209 00000034 1063.26 117.38 404.87 625.68 1164.95 358.31 1331.53 354.06 1258.90 498.81 1188.67 565.81 1341.48 560.87
00002210 00000035 1064.94 114.22 404.37 625.38 1167.51 357.39 1334.17 353.39 1261.10 492.25 1193.50 565.10 1341.68 560.49
00002211 00000036 1065.47 112.61 405.04 629.24 1170.15 355.80 1335.27 352.72 1262.84 492.17 1195.56 565.97 1342.18 562.09
00002212 00000037 1065.38 110.51 406.02 634.10 1171.35 355.73 1337.42 351.61 1264.15 491.83 1197.39 567.83 1344.43 562.89
00002213 00000038 1065.04 111.61 406.50 634.10 1170.64 355.30 1337.75 351.46 1263.84 490.42 1198.19 572.04 1341.49 567.28
00002214 00000039 1066.74 110.37 402.72 630.81 1169.85 356.41 1338.47 353.51 1263.57 491.14 1200.30 576.54 1336.26 572.94
00002215 00000040 1067.06 112.11 403.85 622.50 1169.58 357.71 1339.54 352.78 1266.37 487.87 1203.10 574.39 1339.95 569.20
00002216 00000041 1066.39 112.47 404.41 622.20 1173.12 357.42 1341.78 352.57 1270.33 488.07 1207.01 575.06 1341.57 569.83
00002217 00000042 1066.85 113.01 406.12 621.22 1175.28 359.09 1344.01 354.16 1273.18 488.33 1209.07 576.02 1342.39 570.62
00002218 00000043 1067.21 114.32 406.02 622.69 1176.63 359.35 1345.06 354.86 1274.27 488.73 1209.27 576.91 1342.63 571.63
00002219 00000044 1067.03 114.77 407.06 622.55 1176.26 361.08 1344.88 356.59 1273.71 489.56 1209.79 579.25 1341.95 574.03
00002220 00000045 1067.94 116.75 407.87 623.14 1177.75 362.63 1347.58 358.37 1275.91 490.32 1210.70 582.27 1344.25 576.98
00002221 00000046 1068.81 117.51 406.49 625.07 1179.96 363.32 1349.37 360.12 1277.23 491.46 1211.13 583.54 1345.30 579.02
00002222 00000047 1068.96 118.36 406.70 631.17 1184.56 362.17 1350.09 358.88 1279.51 490.82 1213.79 584.90 1345.89 580.02
00002223 00000048 1068.52 118.21 409.12 633.65 1186.45 360.50 1352.79 357.95 1281.82 489.30 1212.71 582.61 1349.09 578.16
00002224 00000049 1068.31 117.84 409.78 634.20 1187.56 358.69 1355.58 355.12 1285.07 487.13 1214.09 580.39 1354.33 574.81
00002225 00000050 1069.95 119.12 410.22 632.04 1188.66 358.17 1358.42 352.78 1287.35 483.75 1215.24 579.12 1358.80 571.96
00002226 00000051 1072.13 119.97 409.09 627.52 1190.37 356.39 1359.75 350.86 1290.25 479.12 1215.14 573.98 1361.66 567.03
00002227 00000052 1078.02 122.37 406.29 616.81 1198.02 354.43 1367.38 349.12 1299.77 476.40 1217.34 565.86 1368.63 559.84
00002228 00000053 1084.22 114.50 402.88 614.01 1203.78 351.49 1376.31 347.66 1306.97 475.76 1219.42 559.80 1374.90 555.33
00002229 00000054 1087.79 110.63 404.07 614.11 1207.99 346.46 1385.62 343.78 1315.48 465.65 1223.29 552.06 1384.37 548.64
00002230 00000055 1090.00 105.17 408.14 614.98 1215.41 336.10 1394.28 335.97 1326.11 451.02 1229.10 540.06 1395.73 538.36
00002231 00000056 1095.38 96.26 403.32 608.14 1224.86 322.42 1401.79 329.03 1328.65 437.52 1236.79 530.53 1399.71 535.00
00002232 00000057 1098.76 90.92 399.90 609.17 1233.29 317.34 1403.25 327.04 1334.68 432.10 1242.76 526.95 1396.96 533.54
00002233 00000058 1097.71 88.47 399.62 607.10 1234.17 314.87 1403.29 325.13 1334.26 429.08 1244.22 526.88 1392.19 533.85
00002234 00000059 1092.31 87.22 401.52 600.23 1230.62 314.83 1395.80 324.34 1331.18 430.17 1246.92 528.89 1382.06 535.15
00002235 00000060 1088.16 81.43 401.70 600.19 1224.64 315.31 1390.11 322.35 1325.90 431.55 1244.80 528.06 1379.10 532.00
00002236 00000061 1085.94 79.20 398.76 605.96 1221.07 315.85 1386.96 322.39 1322.26 432.85 1245.47 536.79 1373.80 540.42
00002237 00000062 1084.95 82.66 398.62 605.97 1219.04 319.11 1384.14 323.08 1320.46 432.58 1245.05 540.08 1374.65 541.93
00002238 00000063 1084.43 84.46 399.95 612.65 1217.87 319.42 1388.39 324.99 1321.59 434.42 1238.92 541.68 1377.24 544.77
00002239 00000064 1084.02 86.43 402.06 603.90 1212.69 323.17 1389.89 326.07 1319.41 437.55 1236.34 539.90 1382.35 541.07
00002240 00000065 1084.40 86.48 402.48 600.06 1214.18 323.75 1389.72 327.23 1320.01 437.70 1237.93 538.13 1381.51 539.70
00002241 00000066 1084.39 86.20 402.46 598.71 1213.88 323.46 1388.77 325.45 1320.08 436.40 1238.84 536.57 1382.90 536.78
00002242 00000067 1085.31 84.98 399.33 605.67 1217.62 321.06 1386.33 325.67 1320.18 434.42 1237.39 535.87 1378.23 538.39
00002243 00000068 1083.10 87.34 402.44 607.68 1214.22 320.88 1383.80 325.32 1314.62 432.56 1227.81 529.91 1379.74 532.28
00002244 00000069 1081.86 87.53 404.77 604.67 1213.98 320.54 1381.73 324.58 1313.73 431.50 1226.97 524.78 1380.02 526.97
00002245 00000070 1080.62 86.10 405.91 605.29 1212.45 321.22 1380.98 325.12 1312.33 434.41 1224.34 524.20 1378.75 526.38
00002246 00000071 1081.04 85.79 405.23 605.96 1212.36 322.57 1381.27 327.63 1310.53 439.11 1224.04 527.27 1376.55 530.42
00002247 00000072 1081.34 85.75 405.44 612.81 1212.69 325.49 1382.39 329.36 1310.71 445.04 1226.43 535.45 1376.57 537.24
00002248 00000073 1081.78 87.78 403.85 622.54 1213.84 327.91 1383.73 329.81 1311.53 449.60 1228.75 545.22 1378.62 544.88
00002249 00000074 1082.76 88.74 402.20 636.06 1213.31 331.59 1384.06 335.17 1309.31 456.53 1221.77 549.53 1378.85 550.69
00002250 00000075 1082.99 91.68 402.34 632.93 1211.50 335.81 1384.98 339.26 1308.42 457.87 1217.76 548.29 1380.29 549.84
00002251 00000076 1083.18 95.56 402.78 615.80 1208.34 338.44 1384.31 339.68 1308.42 460.19 1223.50 551.52 1378.32 551.21
00002252 00000077 1084.00 97.37 402.27 610.08 1208.70 339.65 1384.84 341.22 1308.68 462.18 1225.04 553.08 1376.74 553.13
00002253 00000078 1083.49 97.85 403.59 616.84 1209.27 338.76 1385.91 341.20 1308.86 464.93 1224.82 556.44 1376.17 557.04
00002254 00000079 1084.66 97.79 402.34 626.75 1211.19 337.14 1385.97 340.55 1308.54 466.15 1224.63 558.22 1377.27 559.42
00002255 00000080 1085.23 98.38 401.61 627.11 1212.01 337.67 1386.31 341.53 1308.72 467.42 1223.74 558.57 1376.88 560.14
00002256 00000081 1085.75 99.66 400.57 621.41 1213.21 339.41 1387.01 342.84 1310.75 468.60 1225.63 558.76 1376.59 560.19
00002257 00000082 1086.39 99.71 400.68 620.29 1214.49 341.26 1388.42 344.07 1312.99 468.59 1228.09 559.38 1378.21 560.44
00002258 00000083 1086.90 99.19 401.11 614.10 1215.75 340.97 1388.98 344.94 1314.16 468.69 1231.12 559.41 1376.22 561.45
00002259 00000084 1087.49 96.80 401.83 617.22 1217.23 340.96 1389.42 344.97 1315.33 469.13 1232.99 560.47 1376.63 562.46
00002260 00000085 1087.85 98.04 401.72 620.32 1217.46 341.59 1389.91 344.58 1315.95 471.81 1234.30 563.72 1377.67 564.76
00002261 00000086 1087.37 97.74 401.06 623.36 1217.91 340.78 1388.33 343.62 1314.93 469.07 1238.03 567.92 1375.98 568.67
00002262 00000087 1087.60 99.52 400.23 624.02 1216.28 341.81 1388.50 344.87 1314.87 466.51 1237.61 570.15 1376.21 571.39
00002263 00000088 1085.86 97.86 401.67 621.52 1212.26 342.43 1388.36 344.79 1313.30 465.24 1231.87 566.65 1375.72 567.45
00002264 00000089 1084.88 97.22 401.35 619.27 1212.89 341.87 1386.42 344.44 1312.41 465.86 1232.80 567.03 1372.21 567.98
00002265 00000090 1084.86 98.15 401.04 619.63 1212.22 342.37 1387.75 345.47 1312.12 467.64 1229.81 565.94 1373.63 567.29
00002266 00000091 1084.21 101.20 399.57 630.65 1211.99 341.65 1386.09 345.02 1311.08 471.57 1226.51 567.65 1376.03 568.94
00002267 00000092 1083.35 107.45 401.51 626.83 1210.51 344.05 1384.79 346.21 1313.25 477.94 1221.19 557.68 1374.37 557.89
00002268 00000093 1081.29 111.59 401.85 623.15 1208.60 346.06 1381.77 348.26 1311.17 480.71 1218.68 559.42 1370.94 559.90
00002269 00000094 1080.20 111.84 402.21 624.03 1205.41 348.92 1378.49 349.62 1307.95 480.84 1217.89 562.99 1368.74 562.21
00002270 00000095 1078.03 112.81 404.15 629.40 1206.00 349.86 1377.81 351.68 1307.66 482.00 1216.62 564.76 1368.01 564.70
00002271 00000096 1076.14 112.72 406.19 636.42 1206.03 349.16 1376.81 352.22 1305.90 484.07 1214.98 566.66 1366.24 567.32
00002272 00000097 1075.51 112.53 405.99 637.63 1206.03 348.51 1376.23 353.47 1304.64 483.80 1215.06 568.23 1362.97 570.33
00002273 00000098 1074.27 114.58 406.94 634.16 1203.90 350.13 1374.15 354.07 1303.19 483.92 1216.95 572.00 1359.74 573.21
00002274 00000099 1072.94 112.57 406.30 629.84 1199.00 352.48 1369.49 355.45 1299.32 483.87 1217.05 574.00 1356.27 574.31
00002275 00000100 1073.41 110.59 403.01 624.79 1193.84 353.27 1367.15 355.69 1294.89 485.15 1217.12 577.55 1351.68 577.54
00002276 00000101 1072.17 111.55 403.40 620.58 1191.22 354.69 1362.13 356.57 1290.83 485.51 1215.93 577.08 1347.12 576.75
00002277 00000102 1071.89 112.75 403.49 619.93 1190.38 354.83 1362.03 357.20 1290.17 487.05 1214.89 577.78 1346.24 577.98
00002278 00000103 1072.11 114.78 402.84 618.04 1189.62 357.83 1361.65 359.86 1290.23 487.32 1214.96 579.99 1347.03 579.99
00002279 00000104 1072.98 116.39 402.86 616.78 1191.53 361.42 1361.98 364.93 1290.65 490.34 1215.27 581.35 1347.47 582.54
00002280 00000105 1073.40 117.94 403.34 619.50 1196.11 363.49 1365.99 368.70 1295.14 491.32 1216.93 582.89 1350.32 585.48
00002281 00000106 1073.95 117.20 403.05 629.60 1204.88 363.10 1370.57 366.89 1303.26 491.82 1223.56 583.67 1357.45 584.36
00002282 00000107 1077.12 113.36 402.20 634.62 1210.29 359.34 1378.56 362.84 1312.35 487.91 1225.31 577.72 1367.67 578.34
00002283 00000108 1080.92 116.93 400.98 623.63 1216.11 356.05 1384.41 358.41 1320.28 485.80 1224.09 563.70 1378.64 564.06
00002284 00000109 1084.48 111.37 403.50 625.48 1217.75 355.22 1390.19 353.37 1327.54 480.65 1227.97 561.30 1389.29 558.49
00002285 00000110 1085.80 107.34 407.50 626.05 1221.35 349.25 1394.09 348.25 1331.16 475.57 1231.20 555.55 1393.24 553.47
00002286 00000111 1087.91 104.40 406.62 619.97 1222.20 345.52 1397.63 346.07 1334.09 474.41 1233.38 552.00 1393.15 551.39
00002287 00000112 1092.42 100.97 402.40 625.40 1225.07 346.03 1400.02 345.79 1329.53 470.56 1237.38 558.92 1397.06 557.69
00002288 00000113 1092.70 98.90 401.57 625.08 1224.92 342.75 1398.94 343.04 1328.44 468.43 1239.01 558.22 1395.15 557.30
00002289 00000114 1091.05 96.12 401.83 617.48 1224.85 340.17 1397.12 341.44 1328.01 464.66 1241.40 557.08 1388.65 556.73
00002290 00000115 1088.88 95.53 402.54 618.74 1221.70 339.90 1394.61 342.42 1323.71 460.37 1238.25 556.01 1385.96 556.78
00002291 00000116 1085.97 97.48 403.61 620.82 1218.60 338.95 1391.74 342.04 1319.44 461.91 1233.65 556.23 1383.09 557.21
00002292 00000117 1082.42 96.95 403.28 619.93 1215.26 338.95 1387.08 341.55 1315.04 462.81 1230.02 555.66 1378.26 556.35
00002293 00000118 1078.85 98.09 406.30 619.79 1209.93 338.99 1383.63 338.97 1310.52 463.95 1228.33 557.30 1376.59 555.59
00002294 00000119 1080.30 107.60 403.77 615.99 1203.74 337.02 1378.09 336.03 1308.31 461.49 1227.95 559.46 1365.17 556.65
CROP_BBOX: 799 0 1740 886
