Video ID: 	1Cee1G3cQto
H: 	1080
W: 	1920
FPS: 	25.0

FRAME INDEX X0 Y0 W H [Landmarks (5 Points)]

00001121 00000000 377.43 131.12 496.57 666.71 558.02 401.01 754.15 370.20 711.76 475.72 632.33 646.37 786.80 619.84
00001122 00000001 378.90 125.99 497.68 683.60 560.10 419.54 761.09 382.61 718.36 496.13 638.41 664.48 793.85 633.52
00001123 00000002 385.55 119.32 498.01 706.01 572.51 429.36 769.88 392.79 727.97 511.50 649.59 677.54 800.64 646.61
00001124 00000003 391.22 120.18 497.71 712.45 588.42 431.24 785.63 398.70 748.99 520.05 659.99 683.38 812.71 655.75
00001125 00000004 399.11 121.13 499.10 710.17 608.25 432.28 799.96 401.58 769.25 523.93 674.71 684.68 822.17 659.02
00001126 DELETE   413.00 119.95 493.72 707.83 627.57 427.82 822.38 401.48 791.30 523.50 691.18 682.61 839.62 660.46
00001127 DELETE   430.25 114.93 492.43 720.03 643.05 424.02 841.16 398.32 809.57 525.77 709.45 684.90 858.40 663.49
00001128 00000007 436.11 104.21 493.94 733.87 654.71 434.41 844.76 406.79 823.18 532.58 725.03 690.73 872.04 666.85
00001129 00000008 434.49 99.35 495.32 736.61 651.86 441.03 846.27 408.04 823.28 540.04 725.18 696.69 873.51 668.70
00001130 DELETE   430.24 131.24 494.43 722.52 632.26 456.63 831.39 419.43 801.37 548.36 716.44 706.65 865.53 673.91
00001131 DELETE   414.55 156.78 491.72 714.54 612.44 469.25 805.82 425.80 773.04 562.70 698.20 723.85 835.39 687.77
00001132 DELETE   398.53 144.26 499.85 744.85 582.29 486.33 789.93 439.28 746.49 581.60 668.48 738.77 818.89 698.92
00001133 00000012 384.98 151.91 500.91 744.72 571.36 497.85 770.36 451.89 730.87 597.15 652.49 754.42 804.76 714.86
00001134 00000013 392.33 140.03 502.50 756.85 576.78 497.97 792.69 451.97 744.64 600.21 659.44 757.66 812.19 718.58
00001135 00000014 403.46 139.51 498.25 754.02 597.21 500.41 806.54 453.63 762.82 602.52 676.56 754.16 825.58 714.80
00001136 00000015 413.37 143.84 495.17 745.63 611.90 495.59 820.21 452.74 777.83 598.55 686.62 751.87 835.60 715.59
00001137 00000016 422.10 133.28 496.05 756.40 625.03 494.02 829.89 450.71 792.92 599.01 699.36 748.75 849.19 711.91
00001138 00000017 420.61 140.35 504.44 763.76 628.97 494.57 835.47 452.34 805.26 600.74 700.58 752.84 861.07 716.82
00001139 00000018 423.14 150.04 504.39 751.60 628.81 496.97 836.60 453.52 803.51 603.82 701.77 753.94 862.26 717.12
00001140 00000019 432.57 148.50 496.23 748.96 630.29 499.62 838.29 452.77 799.66 605.87 707.38 759.99 858.86 720.76
00001141 00000020 431.72 134.35 498.16 773.61 640.06 501.46 842.90 458.46 808.47 608.08 711.50 764.86 856.42 729.13
00001142 00000021 436.16 130.01 496.38 785.48 646.33 501.34 844.80 470.20 814.40 610.74 708.77 764.83 867.05 737.73
00001143 00000022 437.62 129.08 495.40 788.43 648.34 496.62 847.24 466.92 815.35 611.34 708.72 763.23 866.91 737.17
00001144 00000023 427.59 116.75 499.80 802.33 642.71 496.51 842.23 465.02 810.83 607.26 704.94 761.58 865.36 733.41
00001145 00000024 422.26 127.16 502.41 788.04 629.96 501.10 833.80 464.31 802.21 607.25 699.05 761.46 863.91 728.96
00001146 00000025 424.25 137.62 499.42 779.92 625.97 498.87 835.50 455.74 794.63 608.33 697.69 764.65 852.36 728.15
00001147 00000026 420.31 128.92 501.86 788.62 625.47 499.98 835.59 457.15 794.78 609.92 694.92 765.11 849.98 729.04
00001148 00000027 422.44 131.00 498.36 785.23 624.65 497.53 834.57 454.38 794.02 606.97 693.70 761.86 850.58 725.35
00001149 00000028 415.65 141.12 502.45 778.12 624.03 495.98 830.31 456.80 798.74 603.35 691.59 758.84 852.63 725.53
00001150 00000029 417.30 134.52 498.82 779.92 624.70 488.21 827.28 448.83 793.71 591.46 692.75 753.42 842.68 720.72
00001151 00000030 413.90 127.56 500.30 782.30 619.80 488.14 824.37 449.13 788.72 589.65 684.83 748.12 840.38 715.17
00001152 00000031 409.21 140.38 502.98 769.92 617.88 492.67 818.17 455.98 786.38 597.63 674.89 748.08 841.40 716.90
00001153 00000032 408.91 144.62 503.33 765.93 615.12 495.66 816.98 457.54 784.30 599.61 675.03 751.54 841.03 719.40
00001154 00000033 408.36 139.86 502.83 764.40 616.45 495.93 818.57 457.29 785.00 603.26 676.54 751.31 839.68 718.71
00001155 00000034 416.07 130.32 497.58 760.90 615.66 490.21 825.32 448.36 784.10 594.99 684.90 745.38 842.11 710.03
00001156 00000035 418.00 131.20 500.71 752.70 618.98 489.33 827.96 447.79 786.12 591.57 690.58 742.17 844.16 707.36
00001157 00000036 417.02 133.30 502.91 748.80 617.48 486.87 827.52 443.72 786.31 589.33 691.98 742.18 846.18 706.22
00001158 00000037 416.43 128.05 502.74 756.36 618.34 486.37 826.66 443.25 786.67 588.87 692.27 741.26 846.24 705.13
00001159 00000038 414.67 129.59 500.61 755.58 613.51 489.64 824.46 446.32 780.57 591.72 683.82 740.65 842.06 703.89
00001160 00000039 408.10 129.30 503.42 758.26 608.22 492.83 818.03 449.18 775.07 592.20 678.84 741.52 837.12 704.55
00001161 00000040 399.92 129.84 506.68 757.89 598.92 495.84 811.85 450.38 768.28 592.71 673.49 743.89 833.06 705.58
00001162 00000041 395.06 132.18 507.35 754.71 587.02 497.58 800.62 449.36 756.77 589.97 666.15 742.15 825.69 701.62
00001163 00000042 390.04 128.68 507.12 759.65 577.03 493.07 792.78 446.07 744.80 588.13 655.93 739.91 819.02 700.20
00001164 00000043 385.59 130.65 508.73 754.67 567.19 490.52 784.82 443.17 732.62 588.20 647.19 742.19 808.68 702.21
00001165 00000044 384.03 125.02 507.79 765.95 565.68 488.56 782.18 443.56 729.42 589.97 643.37 742.30 806.04 704.03
00001166 00000045 391.91 123.07 506.52 766.32 576.36 489.64 790.24 445.70 737.96 588.97 652.11 738.77 811.03 701.66
00001167 00000046 404.89 133.87 501.10 751.23 594.49 485.50 802.89 444.80 755.46 584.06 668.90 733.68 822.31 699.47
00001168 00000047 412.90 136.73 505.45 743.39 614.22 483.29 818.72 450.53 778.28 581.30 680.60 732.49 837.10 704.00
00001169 00000048 427.62 144.63 502.74 736.24 628.48 478.90 832.71 447.54 792.64 582.63 694.19 730.87 848.76 703.93
00001170 00000049 437.35 128.56 495.88 758.68 635.44 473.13 841.92 442.47 801.26 579.64 702.13 727.27 862.76 699.66
00001171 00000050 432.15 112.29 498.24 766.53 631.76 472.54 837.46 438.42 799.29 574.83 704.59 721.11 864.47 690.29
00001172 00000051 417.04 120.83 499.40 752.69 621.37 472.57 822.94 433.12 784.23 573.69 692.45 721.79 844.92 687.89
00001173 00000052 403.36 130.95 502.01 750.02 601.87 475.51 805.09 435.19 765.05 572.47 674.76 725.00 829.63 690.54
00001174 00000053 401.50 133.10 503.73 750.93 597.62 476.49 800.61 433.05 762.25 574.59 672.51 730.85 826.69 694.02
00001175 00000054 399.95 136.79 509.54 760.23 608.92 479.62 807.09 444.57 772.18 579.71 678.99 737.83 833.15 707.12
00001176 00000055 410.00 147.40 504.15 745.28 618.46 479.81 817.37 446.67 783.30 580.83 687.95 738.90 840.67 709.93
00001177 00000056 408.88 140.24 505.52 747.24 616.40 476.58 816.45 443.50 782.67 573.85 685.76 734.02 841.11 705.08
00001178 00000057 407.75 141.68 500.26 743.22 602.18 476.27 804.30 437.49 762.60 574.29 676.70 729.40 827.52 696.92
00001179 00000058 400.97 135.86 499.33 740.22 577.81 477.29 787.51 434.45 736.01 577.67 654.85 728.34 810.76 692.97
00001180 DELETE   390.86 143.81 506.69 730.88 559.04 487.77 776.53 442.65 714.52 583.39 634.60 732.03 799.24 695.02
00001181 00000060 386.74 140.96 507.54 734.32 557.92 491.95 771.35 446.95 712.92 588.61 632.19 732.14 796.13 694.80
00001182 00000061 398.32 133.76 502.18 742.96 570.89 489.75 787.91 448.20 727.08 588.44 640.26 730.90 806.47 696.59
00001183 DELETE   405.25 134.04 502.61 749.38 591.86 478.31 804.27 442.63 751.39 579.35 656.45 725.86 820.46 696.03
00001184 00000063 410.41 132.38 497.31 747.10 606.52 471.63 809.52 438.85 766.45 568.55 671.55 720.33 829.80 692.82
00001185 00000064 407.29 139.82 500.18 737.29 609.44 457.68 807.51 431.94 771.20 558.95 665.96 710.65 829.44 687.39
00001186 00000065 402.01 126.40 501.71 751.42 600.06 457.00 801.01 429.03 759.25 557.96 652.63 707.53 822.91 682.32
00001187 00000066 403.32 126.18 496.01 761.42 585.37 465.31 793.66 436.59 741.18 570.05 640.71 714.93 812.64 691.11
00001188 00000067 399.90 121.27 497.54 764.41 570.85 468.91 784.84 436.00 724.64 578.28 629.32 720.16 805.69 692.67
00001189 00000068 401.73 122.37 495.10 756.81 570.56 470.43 785.26 435.79 724.05 580.12 632.22 722.24 804.28 693.47
00001190 00000069 406.42 116.53 495.13 757.51 584.43 471.14 794.31 436.37 739.27 576.42 647.75 719.57 810.36 690.73
00001191 00000070 408.17 117.00 500.47 756.34 593.97 469.23 800.69 434.42 749.28 570.84 659.62 717.71 817.45 688.67
00001192 00000071 411.17 122.66 499.20 749.01 593.61 467.14 801.45 432.05 749.31 570.63 660.08 717.99 819.12 688.85
00001193 00000072 409.43 119.78 499.63 751.43 589.99 467.29 798.27 432.37 742.92 573.82 653.91 718.96 813.19 690.10
00001194 00000073 407.72 119.39 497.71 748.99 585.33 469.82 796.56 434.91 739.29 576.02 648.64 721.19 809.40 692.32
00001195 00000074 408.05 121.90 498.88 746.30 587.67 469.29 799.18 435.88 740.83 576.99 649.70 719.74 810.70 691.98
00001196 00000075 412.94 123.28 496.88 745.93 592.61 468.70 802.39 434.51 746.44 575.75 657.54 719.34 815.95 690.76
00001197 00000076 412.14 122.59 497.23 748.79 594.36 467.58 801.30 433.04 747.62 572.21 660.41 718.69 815.96 689.85
00001198 00000077 403.50 116.42 501.86 754.23 587.01 473.48 797.49 438.15 740.15 576.38 652.19 718.68 811.77 689.03
00001199 00000078 400.73 115.18 502.76 758.83 585.28 473.49 800.56 439.00 741.14 578.11 645.67 717.36 814.02 687.97
00001200 00000079 402.90 127.42 505.03 743.30 594.37 475.47 807.46 440.34 753.55 572.29 657.22 712.58 823.79 682.90
00001201 00000080 409.90 125.54 500.08 745.37 610.83 470.76 819.86 436.13 775.23 567.01 674.14 713.35 837.95 683.38
00001202 00000081 416.73 122.24 497.13 742.61 623.44 465.47 826.77 429.85 788.56 565.31 689.07 715.94 844.14 685.63
00001203 00000082 417.76 123.80 495.07 740.26 625.43 463.98 825.19 430.57 789.50 564.24 692.45 717.81 840.55 689.81
00001204 00000083 414.80 120.05 497.34 756.95 626.10 461.99 824.12 432.09 789.70 564.67 688.62 720.14 838.71 694.86
00001205 00000084 416.88 127.33 496.71 749.08 629.71 465.54 828.40 434.54 796.10 565.22 693.41 718.96 846.14 692.54
00001206 00000085 425.98 120.71 491.99 749.40 635.37 459.94 836.33 429.43 807.45 561.76 702.25 717.87 856.97 691.57
00001207 00000086 429.11 124.94 487.78 746.54 636.72 465.29 833.78 431.15 802.09 566.00 702.28 718.91 853.57 690.47
00001208 00000087 423.17 120.42 491.38 745.35 631.40 464.38 832.35 428.09 799.07 564.31 698.33 717.78 851.53 687.18
00001209 00000088 418.98 121.94 494.28 738.49 628.72 462.45 828.99 426.46 796.39 563.47 695.82 715.01 847.88 684.80
00001210 00000089 419.99 120.51 492.44 736.41 629.86 462.74 828.34 427.73 796.13 563.80 695.34 713.33 845.99 683.98
00001211 00000090 422.77 120.10 491.53 738.53 632.48 463.91 830.89 427.18 798.67 563.48 700.26 715.67 849.30 684.81
00001212 00000091 426.22 124.43 488.96 744.89 633.86 463.94 829.79 429.58 797.83 563.29 701.28 720.65 847.07 692.04
00001213 00000092 425.72 126.09 489.31 746.44 632.75 464.62 830.85 431.02 796.74 564.98 699.75 722.37 847.37 694.27
00001214 00000093 425.09 122.56 489.93 747.38 633.40 465.35 831.13 431.74 797.30 566.18 699.90 722.41 847.00 694.27
00001215 00000094 424.17 120.31 490.75 744.26 632.50 467.13 831.77 431.48 797.43 567.27 699.48 720.88 848.09 690.90
00001216 00000095 425.34 122.40 490.23 741.65 632.47 467.22 832.15 431.36 797.85 567.33 700.66 720.74 849.61 690.50
00001217 00000096 423.17 124.13 490.54 741.05 632.22 466.45 831.10 431.20 797.60 566.41 698.72 720.76 847.61 691.05
00001218 00000097 420.93 119.36 491.45 744.50 631.50 465.48 829.34 430.89 796.63 566.09 696.06 718.30 845.03 689.10
00001219 00000098 419.15 118.53 492.03 744.57 629.16 465.42 826.87 429.37 794.54 565.71 696.17 719.48 843.77 689.07
00001220 00000099 422.36 115.80 494.66 755.97 638.24 470.51 831.43 435.96 800.23 569.57 705.73 720.93 847.95 691.60
00001221 DELETE   450.34 130.28 485.47 741.52 662.41 472.81 860.77 442.07 831.73 568.09 728.00 719.25 877.97 692.44
00001222 DELETE   475.02 146.53 492.78 737.14 705.58 482.49 894.47 459.08 872.08 577.02 766.98 731.88 903.39 711.02
00001223 DELETE   503.23 167.14 483.69 731.74 742.58 487.68 919.65 472.82 906.79 595.91 789.71 743.26 927.39 730.15
00001224 00000103 514.11 146.86 482.51 751.99 752.01 479.04 932.64 459.69 918.21 594.94 795.45 743.41 934.45 726.59
00001225 00000104 505.46 133.42 486.32 755.84 742.59 468.06 927.99 451.30 913.84 569.67 788.38 718.68 932.62 703.14
00001226 00000105 482.49 130.31 502.29 739.90 723.99 447.07 916.00 435.30 892.79 557.77 766.27 706.34 915.29 695.39
00001227 00000106 478.23 130.16 497.83 746.90 707.34 460.02 897.16 437.63 870.80 564.74 758.41 716.04 904.12 696.80
00001228 00000107 471.16 128.53 499.28 760.10 694.54 473.81 891.70 443.87 862.57 576.63 752.53 727.57 905.58 701.12
00001229 00000108 478.13 149.11 493.53 748.99 690.10 488.52 891.58 453.13 858.20 589.72 753.46 743.44 907.81 712.88
00001230 00000109 477.41 154.07 500.57 759.06 703.06 499.68 898.00 463.94 875.89 605.53 762.26 761.96 914.34 732.03
00001231 00000110 480.22 152.33 502.64 767.50 707.98 506.83 906.36 470.78 884.94 615.80 763.17 768.68 918.91 738.75
00001232 00000111 488.46 153.56 495.15 760.21 708.17 504.29 909.10 466.01 882.12 613.16 765.97 768.53 915.85 736.98
00001233 00000112 491.79 155.58 494.51 750.70 709.96 503.80 911.56 466.04 883.12 615.00 768.07 765.77 918.44 734.62
00001234 00000113 491.98 149.74 495.19 756.77 709.74 501.13 912.64 463.21 882.13 612.67 767.17 761.88 919.40 730.23
00001235 00000114 494.18 144.31 494.41 763.79 710.01 499.60 912.09 462.65 880.52 611.74 765.36 759.08 918.94 728.16
00001236 00000115 492.46 146.42 495.90 761.33 710.96 494.81 911.27 459.43 880.33 606.84 765.29 755.08 917.64 725.76
00001237 00000116 491.20 136.59 494.54 770.98 706.62 489.86 906.51 456.33 873.37 599.76 761.30 749.98 913.58 721.82
00001238 00000117 478.30 145.84 497.45 756.20 704.73 484.44 898.66 455.77 871.48 598.97 746.82 741.05 905.62 716.81
00001239 00000118 470.81 138.19 494.90 759.12 689.50 481.13 889.77 454.07 855.77 588.94 736.62 728.89 899.34 704.84
00001240 00000119 462.78 117.19 490.36 777.96 677.09 477.14 880.27 451.31 841.69 581.24 725.08 725.56 891.04 702.66
00001241 00000120 449.40 122.46 492.56 765.03 658.31 480.84 862.27 449.70 828.36 575.10 712.26 718.38 879.77 691.48
00001242 DELETE   438.56 125.34 498.84 757.45 646.42 476.75 850.75 450.59 814.63 571.14 704.01 715.35 872.70 691.65
00001243 00000122 427.11 110.59 502.86 770.03 633.90 473.01 840.14 442.79 803.13 566.99 700.25 717.52 864.85 690.40
00001244 00000123 416.40 113.56 508.42 759.34 621.66 470.19 831.10 437.77 794.10 560.40 693.34 716.37 858.55 687.08
00001245 00000124 415.46 120.73 502.34 743.88 615.88 468.34 822.10 430.70 780.56 559.88 685.57 712.04 843.72 680.33
00001246 00000125 413.63 120.00 503.03 747.21 608.84 463.35 816.16 424.36 772.76 557.95 679.46 711.45 840.38 678.57
00001247 00000126 413.12 122.03 504.44 747.98 606.84 463.80 812.61 424.07 769.23 557.05 678.31 711.23 838.23 677.84
00001248 00000127 408.70 115.28 510.74 756.96 598.29 459.84 808.03 422.78 761.63 555.29 668.11 709.02 836.93 676.00
00001249 00000128 415.39 122.04 504.41 746.82 598.25 466.54 806.37 426.00 758.12 561.37 668.18 709.67 834.18 675.81
00001250 00000129 414.54 123.40 507.76 747.97 595.43 467.39 805.21 427.37 753.87 563.38 663.85 709.36 833.94 675.80
00001251 00000130 415.97 117.50 508.17 750.67 595.11 467.29 805.34 427.04 753.41 564.19 664.67 709.97 833.98 676.11
00001252 00000131 415.49 110.94 514.53 761.19 594.28 465.15 805.97 424.00 753.91 562.13 665.84 714.24 843.37 678.09
00001253 00000132 420.58 112.58 513.50 759.39 594.75 469.28 806.83 426.22 753.51 564.36 671.38 719.93 843.24 682.40
00001254 00000133 420.18 111.83 513.88 759.94 594.73 472.21 807.39 429.13 753.74 568.51 672.27 722.75 842.41 685.27
00001255 00000134 420.49 115.75 512.97 755.40 593.78 472.40 807.54 430.17 752.45 570.56 670.28 723.46 840.65 686.66
00001256 00000135 419.26 112.79 513.62 760.11 592.61 470.08 807.04 429.09 751.03 569.30 666.67 722.74 839.05 686.93
00001257 00000136 418.25 113.36 513.07 757.66 591.64 468.73 806.71 428.03 751.06 568.35 665.52 721.81 838.88 686.16
00001258 00000137 417.61 113.97 512.98 756.37 589.93 468.57 806.27 427.80 748.86 569.26 664.12 722.83 837.89 687.08
00001259 00000138 421.94 122.92 502.96 747.43 593.47 469.53 805.77 430.96 748.89 570.73 665.31 718.60 828.44 686.37
00001260 00000139 419.56 124.09 505.02 748.32 591.40 470.54 804.79 431.57 747.53 569.35 664.27 719.32 827.77 686.59
00001261 00000140 418.97 123.43 504.01 749.05 590.51 471.59 803.04 432.33 745.66 570.73 663.41 719.22 826.08 686.16
00001262 00000141 418.16 123.33 503.71 747.61 589.76 472.37 802.74 432.79 744.53 572.45 661.88 718.77 824.12 685.59
00001263 00000142 417.45 123.75 505.67 748.80 587.07 474.11 802.28 433.95 742.31 574.82 658.93 719.76 823.77 686.11
00001264 00000143 417.11 123.76 506.74 748.66 587.14 475.90 800.94 435.75 741.44 574.64 661.19 721.03 821.98 687.22
00001265 00000144 415.72 124.90 507.55 756.18 587.75 476.50 800.33 437.63 741.30 577.43 661.61 726.40 820.04 693.52
00001266 00000145 416.31 128.88 504.38 753.39 586.96 479.63 801.27 441.65 740.83 582.92 658.75 730.86 817.82 698.88
00001267 00000146 417.27 132.79 503.41 747.36 586.69 481.55 800.35 444.43 738.22 585.36 657.22 732.30 813.78 701.12
00001268 00000147 417.44 136.07 504.68 744.62 586.62 482.94 801.39 445.40 738.73 585.72 656.71 732.31 815.39 700.79
00001269 00000148 417.98 135.69 507.03 745.08 587.19 483.18 803.68 445.59 740.47 586.30 657.42 732.93 817.73 701.33
00001270 00000149 417.05 132.92 507.48 750.73 589.03 483.87 804.64 446.52 742.34 587.76 657.68 732.92 819.28 701.30
00001271 00000150 416.54 130.01 509.39 751.89 589.83 484.13 806.75 446.57 743.29 590.53 659.19 734.45 819.65 702.80
00001272 00000151 417.16 129.56 509.41 755.79 590.85 484.64 807.13 447.64 744.02 591.48 661.30 735.73 820.12 704.58
00001273 00000152 420.86 135.23 505.76 745.93 591.93 486.05 807.59 448.30 744.78 593.01 663.31 737.08 820.38 705.58
00001274 00000153 419.87 130.09 508.88 750.58 591.95 487.25 809.14 448.57 746.11 593.08 664.63 740.60 820.75 708.39
00001275 00000154 419.31 131.12 510.77 750.73 592.23 486.47 809.44 449.46 745.36 593.82 663.04 741.16 819.67 710.26
00001276 00000155 418.33 130.57 512.13 753.06 592.68 487.11 808.95 449.38 746.22 592.65 663.63 739.93 821.07 708.34
00001277 00000156 418.51 131.54 509.91 748.68 592.80 485.67 809.29 446.91 746.84 590.78 661.54 735.08 822.26 702.53
00001278 00000157 419.17 130.94 509.55 750.79 592.91 481.68 809.41 444.87 747.03 589.21 658.72 730.05 823.01 698.84
00001279 00000158 413.19 127.73 518.26 754.84 586.77 479.36 810.12 442.56 748.12 588.77 656.34 732.82 833.48 699.59
00001280 00000159 419.55 136.66 509.37 740.20 590.67 480.61 808.34 444.35 743.82 589.62 654.12 726.78 821.62 696.22
00001281 00000160 419.86 130.43 507.82 746.21 590.28 481.02 808.11 444.63 743.07 589.17 653.04 727.01 820.32 696.47
00001282 00000161 417.11 113.49 508.16 764.77 595.05 484.43 810.96 446.60 749.18 584.09 659.34 723.87 826.53 691.65
00001283 00000162 414.80 153.13 513.34 716.34 593.52 466.10 808.98 439.63 748.56 567.70 655.89 707.88 829.48 683.29
00001284 00000163 419.30 173.62 504.55 683.59 587.79 446.03 811.00 415.40 746.28 546.13 658.21 697.40 833.97 669.21
00001285 00000164 417.76 172.95 502.43 680.49 588.00 423.74 813.47 409.29 737.66 532.85 647.38 685.30 819.63 669.87
00001286 00000165 422.27 156.40 503.44 696.41 589.33 408.57 816.74 404.32 732.33 527.22 638.69 682.28 806.24 675.78
00001287 00000166 430.06 161.36 498.65 688.60 592.44 407.88 819.57 409.21 730.22 527.47 634.00 681.72 798.83 680.35
00001288 00000167 433.85 161.69 503.91 689.11 597.06 413.56 827.94 422.67 729.70 540.87 630.36 686.13 797.85 691.76
00001289 00000168 440.05 159.52 504.08 701.88 601.07 419.90 831.93 422.92 733.55 550.92 635.47 695.89 803.12 697.07
00001290 00000169 444.61 157.15 504.23 711.78 613.05 425.91 836.35 427.23 745.33 554.02 646.14 699.89 807.89 700.03
00001291 00000170 461.88 148.73 496.12 724.51 627.62 432.67 841.19 433.94 755.02 562.07 654.59 700.37 820.52 702.12
