Video ID: 	n3WFjh7J8mM
H: 	1080
W: 	1920
FPS: 	25.0

FRAME INDEX X0 Y0 W H [Landmarks (5 Points)]

00012851 00000000 757.07 349.96 397.25 539.25 788.12 550.50 913.72 551.34 787.91 678.18 838.59 763.12 930.21 760.79
00012852 00000001 756.77 337.81 396.34 546.99 783.01 540.32 921.90 541.01 789.27 675.23 843.64 761.26 937.69 759.57
00012853 00000002 756.87 319.05 400.02 562.56 785.28 534.14 929.12 538.16 794.35 668.46 839.57 754.75 938.33 756.65
00012854 00000003 759.09 326.58 399.49 553.06 789.20 530.00 931.77 535.47 796.47 664.90 844.55 751.56 942.05 754.35
00012855 00000004 762.39 336.82 395.82 542.28 790.55 528.33 935.37 535.25 799.37 666.09 844.70 751.49 944.24 755.52
00012856 00000005 763.36 334.44 394.74 543.80 790.92 529.59 939.33 538.17 802.94 669.59 841.77 753.21 943.85 758.81
00012857 00000006 768.17 349.36 394.41 536.11 798.38 535.31 937.48 544.93 807.31 674.07 834.51 752.61 940.79 758.09
00012858 00000007 768.71 354.07 395.15 532.80 798.99 536.27 937.50 545.49 808.24 676.87 836.72 755.11 941.28 760.13
00012859 00000008 768.35 358.85 396.48 531.49 801.19 539.60 939.72 546.96 812.40 678.17 841.91 757.19 944.85 760.60
00012860 00000009 767.14 350.21 399.76 542.56 803.69 538.52 947.11 547.87 819.21 680.70 846.07 759.43 952.49 764.73
00012861 00000010 768.74 351.39 400.73 541.73 808.29 539.90 955.71 549.81 830.99 684.85 850.94 761.01 961.65 767.09
00012862 00000011 774.74 358.57 397.48 534.04 816.22 542.37 970.11 552.17 848.17 691.10 862.15 764.35 979.38 770.41
00012863 DELETE   780.68 363.98 397.05 523.89 821.61 551.05 990.57 557.64 867.72 692.62 873.44 767.80 998.12 771.24
00012864 DELETE   787.56 363.69 401.37 531.83 839.70 563.72 1001.49 564.73 887.82 689.38 882.80 769.28 1011.17 768.96
00012865 DELETE   796.02 358.48 397.23 539.16 849.71 566.54 1017.36 563.56 908.52 695.16 895.41 775.60 1027.65 771.68
00012866 00000015 795.54 362.09 400.02 538.34 855.18 566.12 1022.75 562.64 917.60 697.50 904.11 777.96 1033.95 772.88
00012867 00000016 797.75 355.43 400.69 542.72 859.67 565.67 1032.18 561.94 927.54 700.60 910.76 782.31 1041.90 776.53
00012868 00000017 800.44 360.38 399.44 538.19 864.33 563.79 1036.96 560.21 932.78 697.80 914.03 782.05 1043.89 776.55
00012869 00000018 803.36 360.73 396.87 537.92 866.72 561.93 1039.86 558.95 933.66 695.91 914.20 781.59 1044.32 776.75
00012870 00000019 804.63 359.47 395.97 539.49 867.34 560.09 1040.56 558.60 933.30 695.29 913.88 781.43 1043.49 778.01
00012871 00000020 804.18 358.53 395.37 539.21 866.09 559.31 1039.60 557.75 931.96 695.16 912.22 781.88 1041.95 778.50
00012872 00000021 803.49 355.23 396.32 542.00 865.45 558.26 1039.47 557.04 931.58 695.01 912.38 782.22 1041.04 779.11
00012873 00000022 803.25 355.45 396.21 541.30 865.16 557.01 1039.24 556.25 930.96 695.10 911.21 781.77 1039.62 779.17
00012874 00000023 802.03 356.37 397.21 542.44 864.19 558.67 1038.44 557.64 929.90 695.49 908.85 782.24 1038.41 779.49
00012875 00000024 802.54 362.94 395.71 537.21 864.45 561.84 1038.70 559.74 930.67 696.42 907.78 782.85 1039.19 779.27
00012876 00000025 802.07 365.18 395.46 537.13 864.80 563.22 1037.50 560.55 930.57 696.93 907.50 783.81 1037.13 779.99
00012877 00000026 798.18 362.73 398.25 539.50 861.42 562.52 1033.48 559.63 928.06 697.57 906.90 784.21 1034.42 780.07
00012878 00000027 795.55 360.14 399.94 541.57 857.88 561.89 1030.39 558.58 924.85 698.88 904.53 784.37 1032.06 779.84
00012879 00000028 793.52 360.48 400.46 541.85 855.18 562.41 1027.79 558.65 922.26 700.08 903.31 785.38 1030.25 780.54
00012880 00000029 792.08 358.54 400.43 545.20 852.59 562.79 1025.62 558.65 918.97 700.80 901.41 786.26 1028.49 781.26
00012881 00000030 789.26 357.71 401.26 544.21 849.50 563.60 1022.77 559.28 916.43 699.74 898.98 784.80 1028.42 779.55
00012882 00000031 788.19 357.55 401.08 543.28 847.91 563.55 1020.99 559.25 914.28 699.14 896.31 784.61 1027.23 779.44
00012883 00000032 787.74 359.17 400.74 540.56 847.23 563.42 1020.17 559.79 912.87 699.83 895.24 784.53 1025.93 779.96
00012884 00000033 786.56 361.89 399.28 537.66 845.72 560.99 1018.88 559.62 910.33 702.99 893.03 785.67 1021.95 783.14
00012885 00000034 782.60 369.00 404.94 535.19 846.65 554.22 1016.87 559.22 903.31 701.01 890.54 779.97 1014.58 783.33
00012886 00000035 787.26 364.51 394.53 535.07 844.48 556.09 1015.13 558.33 902.91 700.23 885.39 783.83 1010.27 784.99
00012887 00000036 785.27 366.66 396.57 530.24 841.67 553.27 1010.66 554.66 897.46 698.86 886.15 783.20 1007.22 783.31
00012888 00000037 783.26 365.42 399.00 532.40 839.37 552.54 1007.32 553.29 894.50 697.01 885.75 781.84 1006.20 781.38
00012889 00000038 782.04 368.89 399.74 529.45 838.48 553.81 1005.86 553.46 894.31 694.66 885.41 779.63 1007.98 778.32
00012890 00000039 781.73 369.46 399.76 529.19 837.11 554.05 1004.15 554.50 890.79 691.00 881.11 776.60 1006.14 776.01
00012891 00000040 780.26 369.75 399.58 529.25 835.27 553.23 1001.32 553.53 888.05 690.69 879.40 775.38 1003.37 774.69
00012892 00000041 778.06 367.89 402.10 526.47 833.75 553.04 1000.82 551.58 888.73 691.00 880.46 774.28 1004.05 771.90
00012893 00000042 769.26 369.53 413.23 525.17 833.74 547.02 1001.43 548.94 884.54 689.29 879.45 767.17 1005.35 767.00
00012894 00000043 766.90 367.36 414.17 525.74 831.01 546.15 1000.08 545.44 883.46 686.16 877.12 764.23 1006.50 761.82
00012895 00000044 762.33 365.91 417.86 527.38 827.53 545.16 997.33 542.99 880.63 685.15 877.02 765.05 1004.20 761.51
00012896 00000045 767.57 366.35 407.31 528.10 820.88 546.16 999.63 546.98 885.72 698.26 878.04 769.73 1004.38 769.03
00012897 00000046 765.75 364.91 408.23 533.34 819.79 547.39 997.44 549.72 884.37 701.34 877.82 771.83 1001.49 772.39
00012898 00000047 764.83 366.45 407.43 532.93 819.02 549.03 995.52 551.97 882.70 702.10 877.13 773.03 1000.14 773.97
00012899 00000048 765.12 369.04 404.73 527.89 818.97 551.33 995.70 555.26 882.77 702.22 874.87 771.15 1000.00 772.83
00012900 00000049 766.36 369.78 401.45 523.30 824.92 555.72 992.36 551.66 883.53 688.52 873.51 769.21 999.39 764.43
00012901 00000050 765.90 368.42 402.53 525.13 824.98 556.07 992.50 551.23 884.24 688.58 874.37 769.84 1001.43 764.30
00012902 00000051 757.68 369.37 417.02 526.11 824.71 550.64 995.68 549.59 882.28 691.34 876.40 771.63 1003.67 768.87
00012903 00000052 759.34 364.17 416.10 531.57 825.69 550.99 996.20 548.21 884.15 690.36 878.86 771.98 1007.03 767.85
00012904 00000053 759.99 366.64 416.44 530.82 827.89 551.40 997.89 547.72 886.57 689.37 880.69 769.81 1010.46 764.74
00012905 00000054 769.41 363.61 406.13 531.60 830.81 554.49 999.82 549.26 893.41 687.57 882.94 768.97 1011.43 763.13
00012906 00000055 762.92 365.12 414.33 532.05 833.08 550.80 1000.50 545.43 891.32 683.41 883.00 765.56 1012.78 759.42
00012907 00000056 764.40 365.91 413.53 532.25 835.13 551.16 1001.33 546.92 892.12 683.97 883.67 765.67 1012.78 760.52
00012908 00000057 774.75 362.30 403.42 533.68 835.21 555.20 1001.34 552.49 894.43 686.25 883.64 767.84 1011.41 764.31
00012909 00000058 776.66 364.26 401.24 531.89 836.08 555.83 1001.62 553.90 893.79 686.79 883.02 768.52 1011.39 765.65
00012910 00000059 778.01 363.43 401.26 532.62 837.01 556.87 1002.43 555.65 893.82 687.88 883.52 769.68 1012.02 767.34
00012911 00000060 778.06 362.21 401.73 534.47 837.13 556.87 1002.34 555.79 894.30 689.39 884.23 770.60 1012.18 768.37
00012912 00000061 773.21 366.68 409.94 533.78 838.98 554.56 1002.77 552.93 892.93 688.85 887.25 769.60 1015.33 766.57
00012913 00000062 780.42 363.82 400.50 533.49 839.62 557.80 1004.37 557.91 896.79 690.04 885.18 771.31 1012.94 770.24
00012914 00000063 774.12 368.09 409.86 532.70 840.09 555.09 1004.82 554.77 894.40 690.53 887.79 770.42 1015.95 768.54
00012915 00000064 780.42 364.84 400.29 533.23 840.07 558.79 1005.31 559.09 897.77 691.61 885.59 772.89 1013.14 772.03
00012916 00000065 781.28 370.58 398.97 529.16 840.25 559.39 1004.99 559.64 896.43 692.27 885.34 774.10 1012.98 773.23
00012917 00000066 781.36 371.87 398.05 529.20 839.89 560.59 1004.17 560.43 895.19 692.86 884.77 775.49 1012.73 774.38
00012918 00000067 780.45 370.15 398.45 532.48 838.65 560.30 1003.01 560.67 893.53 693.95 883.48 775.89 1011.38 775.29
00012919 00000068 778.69 372.57 399.19 529.86 836.50 560.83 1001.63 560.53 891.47 694.09 883.07 776.22 1010.45 774.99
00012920 00000069 777.22 373.52 399.47 528.85 835.46 561.61 999.90 560.29 890.63 694.52 883.08 776.74 1009.58 774.59
00012921 00000070 775.87 374.77 401.13 528.71 834.14 562.30 997.77 561.19 888.73 695.18 882.19 776.89 1007.99 774.89
00012922 00000071 773.08 374.48 402.45 529.41 831.58 563.96 994.92 562.13 886.38 695.82 881.04 777.64 1006.48 774.95
00012923 00000072 772.16 377.92 403.08 526.99 830.42 564.99 993.67 562.39 884.75 696.78 881.07 778.98 1005.74 775.68
00012924 00000073 772.37 381.86 401.66 524.52 830.16 565.26 993.04 562.54 883.39 697.57 880.25 780.01 1004.67 776.69
00012925 00000074 772.67 383.07 400.38 523.48 829.84 565.81 992.37 562.51 882.62 698.19 880.00 781.20 1003.80 777.41
00012926 00000075 771.79 383.33 401.49 523.37 828.47 565.66 990.53 561.71 880.76 698.92 880.42 781.71 1002.84 777.44
00012927 00000076 770.26 385.65 402.34 521.43 826.82 567.18 987.03 561.56 878.15 699.50 881.77 783.06 1002.60 777.26
00012928 00000077 768.52 387.00 402.56 524.78 825.36 568.32 985.11 561.33 875.34 700.44 883.41 787.61 1003.59 780.62
00012929 00000078 764.95 387.95 405.39 526.08 821.64 568.81 986.13 561.68 874.60 704.76 880.82 789.85 1005.39 782.85
00012930 00000079 754.17 375.34 417.86 540.93 818.46 566.11 990.75 561.80 876.86 712.71 880.88 790.06 1007.39 784.97
00012931 00000080 761.56 389.01 407.53 520.93 818.56 570.79 985.00 564.42 874.23 708.84 875.81 790.44 1001.24 783.95
00012932 00000081 761.62 391.98 405.09 521.69 818.72 572.16 984.20 565.93 873.76 711.69 877.42 791.82 1001.82 785.68
00012933 00000082 760.34 394.25 404.40 523.53 817.35 574.28 982.93 566.66 872.79 712.12 877.61 795.01 1002.81 787.85
00012934 00000083 758.92 393.44 402.96 522.70 815.19 575.42 980.26 566.81 871.62 713.62 877.31 796.29 1001.07 788.38
00012935 00000084 750.35 391.94 417.50 523.74 816.43 568.26 986.64 568.66 867.89 713.74 873.55 792.97 995.11 792.24
00012936 00000085 749.33 391.26 418.10 521.55 816.52 568.14 986.75 568.58 868.97 712.76 873.22 792.46 992.80 791.76
00012937 00000086 748.90 392.94 418.62 520.18 815.92 569.07 986.45 568.18 868.60 711.80 872.28 792.03 993.24 790.23
00012938 00000087 750.52 380.69 416.66 535.83 816.61 570.75 985.75 566.24 872.88 713.44 875.88 791.40 998.98 786.39
00012939 00000088 747.03 391.52 418.20 522.86 814.91 569.93 984.36 567.92 868.12 710.58 871.16 792.17 992.16 789.50
00012940 00000089 745.86 392.93 418.12 521.08 813.10 569.80 982.61 568.04 866.37 710.83 869.95 791.58 991.17 788.96
00012941 00000090 750.95 389.51 413.26 524.56 808.61 575.08 978.22 570.68 871.18 720.68 872.54 791.90 990.90 786.46
00012942 00000091 750.49 388.51 414.04 526.72 808.19 575.70 977.37 570.77 870.33 720.83 872.06 792.70 990.53 786.85
00012943 00000092 751.75 390.64 412.37 525.92 808.88 576.45 977.41 570.49 870.09 720.84 873.12 793.47 990.78 786.81
00012944 00000093 752.29 390.03 411.63 526.30 809.26 577.72 977.41 572.13 870.56 721.85 873.40 793.70 990.55 787.35
00012945 00000094 753.35 392.85 411.61 524.50 809.95 578.13 977.94 571.74 870.74 721.78 874.02 793.63 991.43 786.67
00012946 00000095 754.07 390.12 411.27 527.14 810.85 577.68 977.92 571.95 871.37 722.44 874.93 793.63 991.78 787.22
00012947 00000096 757.62 393.02 404.94 521.64 814.90 579.14 977.91 567.59 871.44 712.93 873.78 796.52 993.66 786.24
00012948 00000097 757.87 391.17 407.60 528.66 816.58 577.58 980.06 567.25 872.12 712.37 878.72 797.01 998.12 787.81
00012949 00000098 760.90 391.31 406.32 527.56 818.22 576.10 983.66 567.35 873.90 712.88 879.64 796.77 1003.14 788.89
00012950 00000099 761.08 391.30 409.94 521.00 818.62 572.37 986.71 565.58 875.19 712.73 879.69 794.30 1003.52 787.44
00012951 00000100 762.97 388.99 409.21 520.75 820.77 569.58 988.79 563.64 876.85 709.81 878.78 791.60 1001.92 785.26
00012952 00000101 767.32 382.60 406.67 524.88 824.27 568.22 992.02 563.34 879.26 708.05 878.07 790.84 1000.83 785.45
00012953 00000102 772.70 375.45 402.31 529.16 828.32 568.37 995.15 564.81 883.41 708.92 879.38 791.34 1001.12 787.26
00012954 00000103 776.73 378.21 397.81 525.55 832.10 568.44 997.02 565.58 886.16 708.38 882.11 791.36 1001.72 787.91
00012955 00000104 778.62 376.43 397.58 529.25 834.85 567.63 999.31 565.26 889.41 704.65 882.51 790.12 1003.89 787.25
00012956 00000105 779.62 377.45 397.44 528.35 836.22 566.83 1000.80 564.99 889.95 704.09 883.51 790.16 1005.22 787.57
00012957 00000106 779.94 374.79 396.85 529.58 836.52 565.84 1001.21 563.96 890.13 704.11 884.47 789.53 1007.02 786.84
00012958 00000107 778.31 372.13 399.59 529.59 833.98 563.99 1001.89 561.69 890.46 703.33 882.29 787.30 1007.52 784.17
00012959 00000108 776.39 373.00 399.45 526.67 831.25 562.97 999.99 560.10 887.74 702.75 879.87 786.25 1006.29 782.54
00012960 00000109 774.14 372.35 402.20 530.91 829.49 562.80 996.39 559.63 884.92 700.74 879.34 783.64 1004.47 779.99
00012961 00000110 772.71 378.05 402.57 527.78 828.28 563.52 992.77 560.33 881.27 698.80 879.76 782.18 1003.74 778.44
00012962 00000111 771.20 380.53 403.27 525.81 826.73 564.55 990.71 559.98 879.13 697.80 878.99 783.01 1001.87 778.10
00012963 00000112 770.87 383.05 401.28 522.99 825.85 565.83 988.40 560.95 877.24 698.44 877.02 783.23 1000.29 778.09
00012964 00000113 769.13 385.99 401.41 521.18 824.55 566.99 986.88 561.11 876.05 697.89 875.39 782.75 1000.17 776.84
00012965 00000114 768.49 385.69 401.34 523.67 824.44 565.80 985.53 560.70 874.46 695.93 874.85 781.44 999.83 776.22
00012966 00000115 766.66 385.74 402.08 527.17 822.38 566.41 983.10 559.65 872.01 698.86 878.23 785.71 1002.28 779.01
00012967 00000116 763.66 380.87 407.23 530.17 815.12 563.16 987.21 560.99 874.83 710.80 876.74 786.66 996.80 783.36
00012968 00000117 761.39 381.53 407.45 527.88 810.63 562.14 982.89 560.70 869.81 708.54 869.31 786.43 989.42 783.55
00012969 00000118 757.75 380.91 408.59 528.83 807.33 561.14 980.77 560.01 866.29 706.53 862.15 785.98 985.57 783.35
00012970 00000119 756.18 380.92 410.17 529.81 806.11 562.02 978.18 559.94 864.53 706.59 861.48 787.50 983.65 784.06
00012971 00000120 754.59 379.19 410.52 530.90 805.30 561.82 976.51 558.85 863.80 705.42 860.17 788.15 981.16 784.10
00012972 00000121 753.53 378.38 409.52 531.88 802.95 561.84 973.86 557.77 859.64 702.46 855.61 785.34 979.42 780.33
00012973 00000122 751.44 378.28 410.25 532.58 801.45 561.39 972.64 558.38 858.08 701.98 853.32 781.50 979.56 777.27
00012974 00000123 748.11 376.91 409.60 531.71 797.73 562.89 969.44 559.26 856.69 703.06 851.62 780.56 977.87 775.77
00012975 00000124 746.44 373.17 408.92 533.24 794.39 562.87 964.66 559.30 851.23 703.11 848.27 779.76 973.53 774.95
00012976 00000125 744.46 373.45 407.64 535.41 792.75 564.04 960.54 559.34 846.16 701.82 848.31 780.79 969.88 774.92
00012977 00000126 743.11 375.37 406.51 532.74 789.56 565.92 956.50 560.49 842.35 704.81 846.54 783.87 964.67 777.14
00012978 00000127 737.08 367.21 413.25 541.71 783.78 572.23 951.99 567.00 835.79 707.22 842.96 786.40 959.91 779.73
00012979 00000128 736.46 369.31 396.22 540.22 779.04 571.75 939.14 566.73 821.22 695.45 826.24 789.11 948.73 784.40
00012980 DELETE   730.59 366.00 397.43 540.99 768.09 567.63 926.20 564.82 805.71 697.67 816.61 789.15 938.65 786.11
00012981 DELETE   731.25 363.62 394.93 544.58 762.56 558.77 916.45 563.81 790.21 708.22 815.31 786.05 926.13 788.11
00012982 DELETE   724.53 361.26 397.52 542.59 754.39 551.58 905.60 561.54 777.28 705.43 807.49 782.21 917.23 788.00
00012983 00000132 722.26 357.25 396.05 545.84 749.86 548.64 894.32 558.53 769.72 700.21 798.84 777.87 907.06 783.94
00012984 00000133 721.15 350.03 396.71 550.64 748.39 547.37 889.36 555.57 762.81 694.64 797.48 775.04 904.68 779.82
00012985 00000134 719.88 339.94 397.18 558.83 748.29 547.82 888.17 552.19 762.79 690.56 798.48 774.08 904.69 776.05
00012986 00000135 719.42 340.27 397.20 555.64 748.44 546.52 885.08 547.64 759.24 684.69 800.42 770.65 903.08 769.97
00012987 00000136 718.78 336.25 398.83 556.18 752.26 544.56 887.32 544.65 763.14 676.81 800.35 764.67 900.45 763.50
00012988 00000137 720.06 334.86 400.31 555.34 755.17 543.62 891.10 541.24 766.11 671.42 801.12 761.21 901.32 758.25
00012989 00000138 722.94 337.41 402.87 551.49 756.49 542.52 895.74 539.73 768.39 670.34 801.59 760.53 904.82 757.16
00012990 00000139 726.11 337.81 401.94 548.92 758.91 540.88 900.03 539.44 772.36 670.24 802.68 759.72 906.50 757.47
00012991 00000140 728.81 334.56 400.22 551.61 761.54 538.68 902.41 540.35 773.83 671.82 805.06 758.15 910.22 758.37
00012992 00000141 729.82 340.22 398.54 545.41 763.37 537.47 906.43 540.57 775.51 672.29 806.63 757.72 912.70 758.99
00012993 00000142 732.35 340.23 398.85 543.55 765.27 537.96 910.62 540.89 778.10 672.94 808.75 759.25 916.18 760.17
00012994 00000143 732.89 341.66 397.23 543.43 767.14 538.47 914.04 540.03 781.96 672.77 811.67 760.75 920.66 760.54
00012995 00000144 736.16 345.01 395.31 539.22 770.90 537.30 917.18 540.33 784.48 673.37 815.59 759.43 923.51 760.20
00012996 00000145 740.81 346.86 392.06 536.21 775.15 536.14 922.40 542.13 787.32 674.26 818.07 758.01 928.14 760.88
00012997 00000146 744.27 341.91 395.44 545.17 772.89 534.50 922.48 538.56 788.93 674.93 826.59 758.35 931.58 760.77
00012998 00000147 749.65 348.58 395.70 537.08 782.21 537.95 934.13 544.60 796.99 674.76 821.93 758.77 937.53 761.73
00012999 00000148 756.81 341.35 395.90 551.08 791.69 542.86 937.38 547.41 807.95 675.58 833.78 757.26 944.86 758.34
00013000 DELETE   754.99 343.75 402.45 549.33 796.16 560.01 949.16 561.02 823.95 684.34 845.61 762.05 965.63 760.32
00013001 00000150 758.68 354.13 406.85 543.78 803.23 562.77 964.38 564.07 842.60 690.41 852.50 765.16 979.13 764.30
00013002 DELETE   765.02 361.05 402.88 537.34 815.08 560.17 983.47 560.57 866.37 690.26 867.16 767.84 996.69 766.67
00013003 00000152 764.41 367.55 411.29 533.97 824.71 560.01 989.20 557.49 874.18 688.79 873.52 769.47 1006.14 765.54
00013004 00000153 773.76 367.52 400.78 531.38 829.83 562.80 994.24 560.47 883.66 690.12 876.49 767.82 1008.18 764.44
00013005 00000154 767.54 367.72 410.27 534.74 831.62 560.37 993.03 558.86 883.14 692.06 880.85 768.57 1010.50 765.51
00013006 00000155 766.33 369.82 410.38 532.12 831.18 560.44 994.49 559.08 884.07 692.19 879.99 768.91 1010.52 766.05
00013007 00000156 764.80 370.21 412.22 531.11 830.25 559.82 994.93 558.45 884.11 692.16 879.51 768.44 1010.64 765.52
00013008 00000157 771.30 369.16 402.53 527.08 829.20 562.40 994.82 558.50 887.29 691.31 878.62 768.04 1008.65 763.31
00013009 00000158 769.92 372.77 402.98 523.44 828.47 561.37 994.19 556.67 887.35 690.97 878.99 768.46 1008.47 763.04
00013010 00000159 769.18 373.87 402.31 523.00 827.27 561.20 992.49 555.96 885.96 691.10 878.28 768.70 1008.13 762.86
00013011 00000160 767.81 375.25 402.24 522.52 825.56 561.59 990.54 555.71 884.10 691.60 877.63 769.40 1007.87 763.03
00013012 00000161 767.03 375.70 400.73 521.18 824.19 561.97 988.87 555.18 882.60 692.03 877.05 769.66 1006.84 762.55
00013013 00000162 766.25 375.50 400.10 520.35 822.88 562.06 987.23 554.71 881.58 692.36 876.62 770.02 1005.22 762.46
00013014 00000163 765.28 376.85 399.36 520.01 821.83 561.91 985.26 554.62 879.83 691.74 876.31 770.14 1005.02 762.59
00013015 00000164 765.09 375.18 399.80 522.66 820.91 561.86 983.82 554.39 877.77 691.93 875.84 770.75 1005.11 763.05
00013016 00000165 758.01 370.90 408.03 532.57 812.33 556.70 985.39 554.87 875.83 702.02 872.52 772.30 1000.54 769.14
00013017 00000166 756.34 366.41 409.96 536.26 809.41 555.50 982.30 553.87 870.84 700.40 866.45 774.14 995.04 771.29
00013018 00000167 754.50 363.81 409.96 541.04 807.37 554.35 978.14 552.31 866.61 700.12 864.37 777.40 989.71 774.21
00013019 00000168 752.97 365.12 411.70 542.91 805.30 557.21 974.05 552.41 861.77 698.70 863.61 779.39 987.84 774.03
00013020 00000169 752.21 367.55 410.65 540.81 804.37 561.07 971.64 554.69 860.92 699.14 863.78 782.35 987.88 775.69
