Video ID: 	RxEeGyMcJHE
H: 	1080
W: 	1920
FPS: 	25.0

FRAME INDEX X0 Y0 W H [Landmarks (5 Points)]

00005724 00000000 848.66 152.74 370.97 607.51 885.37 424.93 1023.08 429.37 897.74 536.04 911.16 635.53 1018.18 637.45
00005725 00000001 852.55 151.73 370.79 608.75 889.08 420.63 1029.12 427.09 901.88 535.96 911.39 634.47 1021.21 638.30
00005726 00000002 853.83 153.83 373.64 607.12 892.82 417.64 1034.07 427.32 905.76 538.86 913.79 634.40 1025.62 640.68
00005727 00000003 856.12 153.40 374.53 607.15 896.39 414.77 1039.11 426.59 910.84 540.15 918.13 634.23 1031.20 642.21
00005728 DELETE   858.68 152.51 375.56 608.84 901.29 416.56 1043.08 427.02 917.66 540.09 924.06 635.62 1035.76 642.38
00005729 00000005 861.82 153.16 376.01 609.17 903.20 417.09 1045.72 427.02 919.66 540.53 926.10 636.67 1038.21 643.08
00005730 00000006 863.52 151.88 375.84 610.99 904.64 416.10 1048.57 425.75 922.99 540.03 926.63 637.24 1039.38 643.66
00005731 00000007 864.08 150.80 376.07 612.70 904.67 416.20 1049.34 425.31 923.68 541.14 928.16 637.83 1041.80 643.84
00005732 00000008 863.19 152.22 378.23 614.47 904.99 417.51 1050.24 426.62 924.30 542.32 928.56 638.82 1043.48 644.92
00005733 00000009 863.52 152.53 378.23 615.50 905.13 418.10 1050.91 427.98 924.88 543.79 929.03 640.46 1043.54 647.28
00005734 00000010 866.21 152.95 376.98 617.26 906.29 419.34 1053.23 429.22 926.27 545.39 929.70 641.91 1045.54 649.00
00005735 00000011 867.52 153.75 375.51 616.42 907.36 419.62 1054.14 429.77 927.57 546.12 930.69 642.20 1046.29 649.61
00005736 00000012 869.17 149.94 376.96 620.55 909.17 418.96 1056.65 429.59 928.63 545.89 932.37 642.13 1048.88 650.06
00005737 00000013 871.39 149.64 375.02 620.55 910.33 418.84 1059.41 428.87 931.49 546.61 934.96 642.31 1052.65 649.99
00005738 00000014 873.60 151.13 376.58 619.01 912.25 419.48 1062.31 428.76 932.25 546.76 937.39 642.50 1056.32 649.69
00005739 00000015 880.28 145.71 370.91 624.89 912.59 415.98 1062.82 425.66 938.22 551.78 942.23 643.06 1056.56 650.92
00005740 00000016 881.24 147.29 373.28 625.04 915.94 417.70 1065.87 426.72 942.12 552.69 946.29 642.61 1061.30 649.85
00005741 00000017 884.74 147.63 372.66 624.51 919.63 419.87 1068.88 427.25 945.47 551.88 950.28 642.55 1065.70 648.25
00005742 00000018 887.46 148.86 373.20 621.53 924.56 419.62 1073.98 427.52 950.86 550.61 956.94 640.60 1069.41 646.53
00005743 00000019 891.07 148.32 374.38 621.08 931.38 419.66 1079.25 425.28 956.69 546.48 963.71 639.85 1073.94 643.56
00005744 00000020 895.17 148.71 374.56 619.68 936.78 421.14 1081.68 422.89 960.45 541.76 969.57 639.32 1075.85 639.57
00005745 00000021 901.32 149.88 372.91 615.79 941.21 420.06 1085.02 419.99 963.92 538.48 972.51 638.65 1077.99 637.37
00005746 00000022 904.99 150.96 376.44 613.93 943.51 420.22 1087.42 420.14 964.06 539.09 974.62 637.68 1082.37 636.22
00005747 00000023 907.28 148.35 378.26 614.91 946.67 419.28 1090.59 420.01 966.22 538.17 976.22 636.45 1084.62 635.48
00005748 00000024 909.97 147.34 378.29 616.59 947.99 419.06 1092.70 420.15 966.59 538.12 976.58 636.51 1087.27 635.85
00005749 00000025 910.78 148.27 379.34 616.16 948.72 418.53 1093.86 420.35 967.00 537.86 976.25 636.53 1087.13 636.63
00005750 00000026 909.41 147.64 380.76 615.43 948.03 417.35 1093.58 419.25 966.80 537.48 976.29 635.86 1086.27 635.94
00005751 00000027 907.00 144.26 377.73 618.01 945.15 416.74 1089.57 416.54 963.87 534.14 974.41 636.35 1081.94 634.70
00005752 00000028 902.87 139.68 375.04 624.70 941.31 415.58 1085.75 414.44 961.89 531.99 969.35 635.69 1076.44 633.85
00005753 00000029 897.25 138.36 373.57 630.82 934.81 414.93 1080.36 417.62 955.10 538.60 964.37 637.84 1072.62 639.16
00005754 00000030 890.20 137.25 372.72 637.41 924.13 412.73 1071.07 420.13 941.95 547.46 955.29 640.30 1067.83 645.79
00005755 00000031 883.14 141.41 374.01 635.90 913.96 412.56 1061.70 422.97 932.28 556.73 948.67 643.50 1063.61 651.61
00005756 00000032 875.16 151.61 381.14 626.77 904.87 415.51 1048.59 428.36 922.16 562.96 942.73 645.68 1052.54 656.06
00005757 DELETE   865.87 158.92 388.40 620.76 900.39 423.20 1044.69 429.89 912.88 552.85 933.49 649.04 1048.68 653.30
00005758 00000034 857.83 157.21 391.51 621.53 896.59 423.52 1036.01 429.56 909.06 552.09 935.10 648.31 1044.90 651.69
00005759 00000035 854.71 158.94 391.31 621.93 893.41 426.02 1030.43 429.81 904.18 552.37 934.32 650.05 1042.65 651.75
00005760 00000036 853.81 160.61 391.66 619.75 892.47 427.93 1028.10 431.43 903.33 553.46 935.32 650.76 1041.55 652.08
00005761 00000037 856.13 163.05 388.36 618.20 893.43 431.91 1026.34 435.40 903.15 555.52 936.63 653.50 1039.71 655.08
00005762 00000038 857.57 164.02 386.94 621.39 894.76 435.05 1025.25 438.64 902.65 559.33 939.83 658.12 1039.91 660.04
00005763 00000039 859.73 164.98 387.11 622.04 896.94 437.65 1025.71 443.67 902.16 563.93 943.62 660.31 1042.53 664.03
00005764 00000040 859.67 170.67 387.10 617.79 899.52 444.36 1026.16 449.78 904.35 569.20 945.98 665.60 1040.98 669.07
00005765 00000041 860.10 175.91 386.37 619.67 901.17 452.25 1027.61 457.03 906.52 577.32 946.04 673.45 1039.89 676.49
00005766 00000042 859.15 177.04 388.01 621.13 901.04 455.50 1026.50 462.40 905.73 583.47 947.01 675.61 1040.42 680.12
00005767 00000043 857.44 179.58 387.80 619.08 900.93 458.40 1023.73 465.77 906.90 587.46 949.28 677.77 1038.96 682.67
00005768 00000044 857.97 180.17 388.92 619.58 901.31 459.52 1024.74 467.81 907.01 589.93 950.50 679.01 1040.78 684.57
00005769 00000045 859.12 180.05 389.11 621.19 902.04 460.69 1026.19 468.42 908.02 591.73 951.77 680.32 1042.63 685.55
00005770 00000046 862.81 177.29 387.90 621.63 903.77 459.12 1029.64 466.38 909.20 589.94 951.95 680.08 1044.77 684.87
00005771 DELETE   867.02 175.07 388.01 620.05 906.37 452.08 1035.30 459.84 912.57 584.30 954.03 674.80 1051.12 679.63
00005772 00000048 869.86 162.69 387.60 623.34 906.93 438.56 1041.63 448.40 917.76 571.63 953.77 661.35 1059.51 667.70
00005773 00000049 873.69 161.87 387.49 617.79 911.62 426.80 1044.66 437.33 919.71 560.45 955.81 648.91 1062.36 656.16
00005774 00000050 877.64 154.90 390.19 609.64 918.00 418.33 1049.04 427.21 921.54 549.34 959.11 637.65 1061.97 643.37
00005775 00000051 881.84 146.06 387.04 606.84 928.42 409.91 1046.25 419.74 922.01 536.73 964.58 627.57 1055.05 633.82
00005776 DELETE   893.56 121.14 375.73 624.21 925.01 394.15 1045.62 402.86 919.16 519.44 961.12 611.48 1046.01 617.82
00005777 00000053 896.83 116.10 368.96 620.69 933.82 381.57 1045.94 394.63 922.33 507.70 963.94 599.60 1043.28 609.68
00005778 00000054 897.64 108.96 368.79 625.34 936.62 369.43 1050.48 387.02 923.19 498.74 963.94 591.47 1045.10 605.48
00005779 00000055 901.89 108.98 364.49 622.21 939.81 365.51 1051.28 383.31 923.03 493.21 963.14 587.63 1041.67 601.77
00005780 00000056 904.64 112.61 368.42 616.91 944.23 359.98 1056.27 379.33 924.42 489.03 963.69 584.30 1041.12 599.64
00005781 00000057 906.61 112.78 372.71 617.81 949.38 358.95 1060.84 380.03 927.10 488.73 968.96 583.10 1047.48 599.49
00005782 00000058 908.85 114.00 374.01 616.74 952.71 360.69 1064.64 379.15 929.60 486.61 973.18 583.66 1053.45 597.42
00005783 00000059 909.89 109.90 369.92 617.55 953.25 362.10 1067.71 380.68 933.32 484.36 974.22 582.62 1056.12 596.70
00005784 00000060 910.45 105.75 369.72 616.83 954.45 360.93 1070.86 378.44 937.50 479.45 974.63 579.45 1058.33 592.51
00005785 00000061 910.30 102.86 369.36 617.44 956.08 359.77 1071.41 375.38 938.69 476.02 976.18 576.47 1059.69 587.79
00005786 00000062 909.80 103.15 365.68 617.72 954.84 358.46 1070.20 374.96 937.80 477.24 975.48 576.79 1057.42 589.18
00005787 00000063 909.99 108.37 365.40 616.53 951.66 360.91 1069.59 377.45 936.25 482.26 972.38 580.82 1056.14 593.45
00005788 00000064 908.25 111.59 368.86 618.43 947.13 364.83 1068.11 381.12 933.46 488.94 969.46 585.31 1057.28 597.77
00005789 00000065 907.46 112.68 367.21 619.84 946.26 371.12 1064.63 388.11 932.22 496.28 969.79 589.30 1055.96 602.37
00005790 00000066 905.82 117.40 366.37 615.47 945.94 373.87 1062.45 391.57 930.96 500.26 970.72 593.15 1053.58 606.82
00005791 00000067 903.77 120.35 366.67 614.19 943.95 379.26 1058.70 396.37 929.95 504.13 970.37 596.80 1050.21 609.92
00005792 00000068 904.47 125.84 368.08 613.01 943.14 387.25 1053.42 401.10 927.28 507.42 968.84 600.31 1046.04 610.55
00005793 00000069 903.87 136.66 368.09 608.60 941.75 392.31 1049.71 405.75 923.35 514.39 968.64 608.79 1044.37 618.51
00005794 00000070 900.73 144.88 369.34 612.17 941.30 398.91 1053.45 412.43 924.52 522.75 966.96 617.34 1047.19 627.61
00005795 00000071 905.58 152.71 365.85 609.51 943.86 410.01 1055.04 416.68 927.71 532.37 978.35 631.82 1052.38 636.23
00005796 00000072 903.60 160.70 363.66 604.85 939.40 413.52 1054.95 426.00 929.00 545.80 976.82 635.66 1057.17 644.11
00005797 00000073 904.93 170.00 361.69 599.75 936.96 417.84 1055.06 431.97 928.20 553.65 977.35 639.51 1061.48 648.96
00005798 00000074 905.25 170.51 360.59 600.96 937.21 422.28 1053.86 434.44 930.66 554.60 979.38 642.28 1062.02 650.11
00005799 00000075 905.43 171.12 361.41 599.82 938.30 422.60 1055.73 433.34 932.23 553.89 982.41 642.56 1064.85 648.99
00005800 00000076 905.61 168.57 363.56 599.57 940.51 423.02 1057.58 431.62 935.69 552.31 985.98 641.42 1067.79 645.81
00005801 00000077 906.59 163.54 362.17 605.60 940.85 423.51 1060.01 429.44 938.45 549.82 986.93 641.20 1072.16 643.38
00005802 00000078 907.33 168.69 367.05 603.02 936.43 426.56 1057.87 431.32 936.07 550.78 982.31 643.95 1064.37 644.85
00005803 00000079 908.01 166.39 367.50 604.51 938.13 428.48 1058.28 431.82 938.31 550.44 984.66 644.26 1066.41 644.15
00005804 00000080 908.46 165.96 366.33 602.88 938.54 427.61 1058.98 431.31 940.19 551.17 985.43 644.17 1067.27 644.39
00005805 00000081 908.29 166.23 367.00 601.43 940.26 427.37 1059.37 431.20 940.83 549.44 986.42 641.75 1068.13 642.13
00005806 00000082 908.43 166.14 366.93 597.67 941.64 426.47 1058.77 427.74 942.30 545.85 988.55 639.34 1069.00 637.63
00005807 00000083 905.93 163.46 372.76 594.75 939.86 425.18 1058.64 421.13 943.41 542.70 990.33 636.60 1074.01 630.61
00005808 00000084 905.86 161.43 375.62 596.41 940.44 424.84 1058.11 417.75 945.24 538.25 991.20 634.52 1075.70 626.21
00005809 00000085 905.24 158.67 380.54 598.92 940.12 423.27 1060.38 414.16 947.06 534.95 991.93 632.24 1080.01 622.39
00005810 00000086 906.08 151.99 378.67 604.39 942.63 421.85 1063.10 413.74 949.48 533.64 995.19 629.44 1086.88 620.35
00005811 00000087 906.58 150.10 380.99 603.85 944.29 421.76 1066.04 414.25 952.21 533.31 996.29 627.15 1090.77 618.61
00005812 00000088 905.83 147.69 379.34 601.38 942.96 419.55 1073.95 412.30 956.22 531.55 989.64 629.04 1092.11 621.53
00005813 00000089 906.10 148.09 383.30 601.78 944.10 417.59 1075.49 412.03 955.99 531.73 990.53 627.82 1093.72 621.55
00005814 00000090 909.10 145.82 383.64 605.30 946.94 418.67 1078.88 413.32 959.06 534.40 993.58 629.60 1097.46 623.40
00005815 00000091 911.69 145.14 387.70 609.84 951.54 421.70 1081.22 417.48 961.44 537.71 998.52 633.53 1101.15 628.06
00005816 00000092 913.98 146.78 386.84 610.79 954.65 423.73 1086.45 422.09 966.61 541.69 1003.93 635.73 1106.34 632.17
00005817 00000093 914.51 146.78 386.35 612.66 955.13 427.68 1091.85 425.89 971.82 543.71 1003.90 638.92 1109.12 635.49
00005818 00000094 916.66 146.10 384.83 612.45 956.11 424.40 1093.96 423.49 973.71 544.08 1001.51 640.27 1107.90 637.64
00005819 00000095 914.78 145.29 384.64 613.34 953.62 420.26 1092.76 419.66 969.99 542.50 997.80 637.42 1106.69 635.05
00005820 00000096 910.83 141.73 382.36 615.78 949.33 420.76 1085.37 419.72 964.04 540.98 990.52 635.57 1098.80 632.65
00005821 00000097 905.80 140.55 380.05 617.03 942.56 419.22 1078.53 417.03 958.77 539.95 983.00 634.83 1088.32 631.00
00005822 00000098 903.89 136.92 373.92 623.28 939.22 420.22 1073.04 416.40 953.34 539.32 979.39 637.05 1082.40 631.99
00005823 00000099 897.13 138.46 376.78 622.61 933.38 416.21 1069.43 414.84 949.21 542.64 975.86 638.13 1076.50 635.34
00005824 00000100 889.84 140.17 377.70 620.96 926.16 411.78 1067.18 412.95 945.45 545.94 970.66 637.48 1073.19 637.40
00005825 00000101 886.61 138.00 377.55 620.47 922.74 411.12 1063.29 410.47 942.68 541.48 967.73 634.36 1071.21 632.99
00005826 00000102 887.38 135.90 375.29 617.84 921.57 408.31 1060.60 407.57 941.89 538.40 967.11 631.37 1069.74 630.12
00005827 00000103 887.22 137.14 374.48 616.56 920.67 406.08 1059.65 407.11 939.86 538.69 965.71 629.46 1069.41 629.60
00005828 00000104 882.28 147.88 379.62 598.65 923.80 408.11 1051.24 415.62 932.44 537.88 962.55 623.02 1063.01 628.06
00005829 00000105 881.02 149.64 379.02 599.68 923.38 410.14 1052.08 417.91 932.03 540.16 959.74 626.50 1060.75 631.80
00005830 00000106 879.68 153.62 379.03 597.56 921.22 410.86 1051.31 419.25 930.92 543.36 958.35 628.78 1060.03 634.57
00005831 00000107 878.91 157.38 378.56 595.21 919.54 411.48 1049.18 420.51 929.85 545.31 957.88 630.03 1058.61 636.41
00005832 00000108 877.33 160.71 378.34 592.68 918.75 412.11 1048.50 420.71 929.79 546.01 958.34 631.14 1058.03 637.29
00005833 00000109 877.80 161.59 377.20 590.18 919.89 412.53 1048.22 421.59 930.14 545.21 958.57 630.46 1056.78 637.04
00005834 DELETE   880.55 163.80 373.15 584.02 922.70 412.02 1047.74 420.74 931.61 542.73 961.41 628.52 1056.40 634.96
00005835 00000111 882.92 163.59 369.86 580.67 925.08 412.06 1048.69 419.58 933.50 538.60 963.85 624.25 1058.52 629.84
00005836 00000112 891.02 159.12 363.90 579.44 933.18 409.38 1051.50 417.32 935.12 533.56 969.43 618.24 1061.69 624.18
00005837 00000113 900.54 151.72 358.20 590.18 931.56 403.78 1059.35 409.37 938.86 526.17 968.78 612.36 1062.56 615.87
00005838 00000114 905.20 146.67 355.44 593.83 935.74 402.47 1063.98 408.32 942.69 520.50 968.67 610.30 1063.95 613.83
00005839 00000115 906.75 145.09 356.60 593.21 939.55 400.04 1069.06 405.96 948.01 516.26 971.48 608.22 1067.26 611.82
00005840 00000116 906.75 137.30 358.17 602.89 941.97 399.83 1076.54 405.66 953.89 514.36 973.45 607.17 1073.92 610.89
00005841 00000117 908.82 138.48 357.34 601.33 945.17 400.62 1080.19 406.90 958.23 513.97 976.74 607.25 1077.42 611.47
00005842 00000118 909.62 138.04 361.33 602.29 947.84 399.67 1081.42 407.60 960.47 515.49 980.92 607.02 1081.16 612.82
00005843 00000119 912.29 139.71 367.31 601.99 950.12 402.42 1082.71 408.16 961.64 518.77 985.26 608.49 1085.78 612.71
00005844 00000120 916.39 143.58 365.21 599.09 955.33 405.10 1087.04 410.13 967.34 520.48 989.66 609.52 1090.11 613.52
00005845 00000121 920.90 144.47 367.70 598.63 959.85 408.91 1093.97 413.18 974.42 522.66 992.51 612.04 1094.19 615.89
00005846 00000122 922.11 145.98 373.13 597.07 963.85 407.81 1101.15 415.25 982.05 526.59 995.62 613.85 1098.01 620.37
00005847 00000123 922.57 143.42 375.69 602.71 965.41 408.54 1106.49 415.88 985.39 527.93 995.89 616.27 1101.81 622.48
00005848 00000124 922.70 144.92 376.06 604.49 965.34 408.78 1109.78 418.13 988.91 531.30 994.61 619.13 1101.44 627.17
00005849 00000125 920.69 143.36 376.56 609.40 964.38 412.76 1112.22 421.63 991.84 534.48 993.05 624.40 1100.43 631.99
00005850 DELETE   918.77 143.41 379.98 613.46 960.86 412.77 1110.48 423.84 987.86 542.63 989.34 633.13 1103.25 641.12
00005851 00000127 916.91 148.18 381.61 615.37 959.69 420.30 1108.42 431.53 989.03 549.26 992.20 638.45 1106.37 646.43
00005852 00000128 916.62 153.93 379.39 616.41 955.50 427.39 1104.06 437.57 983.43 554.80 992.60 643.38 1109.41 650.62
00005853 00000129 914.86 157.29 381.34 615.42 955.42 430.27 1103.09 440.76 982.17 557.77 993.73 644.90 1109.52 652.40
00005854 00000130 914.97 162.05 383.43 610.60 957.23 432.45 1104.99 443.85 985.59 559.32 995.54 645.50 1110.13 653.98
00005855 00000131 915.58 162.29 385.42 609.21 958.64 431.54 1107.09 443.76 987.17 560.23 997.77 645.27 1112.64 654.40
00005856 00000132 916.80 164.12 383.79 605.81 959.32 431.71 1108.21 442.63 988.90 559.24 998.49 644.52 1113.84 652.69
00005857 00000133 918.21 164.69 383.03 607.07 959.46 432.43 1109.69 441.67 990.67 561.50 1000.96 646.71 1118.18 653.51
00005858 00000134 918.75 163.78 381.74 608.85 960.82 434.95 1111.05 443.38 994.90 564.68 1003.75 649.08 1120.75 655.23
00005859 00000135 917.56 166.74 383.68 608.90 962.16 436.74 1113.48 445.70 997.81 567.54 1005.96 651.51 1123.47 658.26
00005860 00000136 917.33 170.25 382.96 605.90 961.94 439.93 1113.95 448.93 998.97 572.27 1007.77 654.60 1124.88 661.38
00005861 00000137 917.38 177.32 381.27 600.67 961.24 444.28 1113.13 453.13 999.35 575.79 1008.71 656.44 1125.46 663.18
00005862 00000138 917.87 181.96 379.97 594.49 960.47 446.90 1111.89 454.70 999.04 578.87 1010.86 660.62 1123.73 666.64
00005863 00000139 916.91 184.81 378.82 592.07 958.87 450.87 1109.90 457.76 998.64 580.21 1009.87 662.08 1121.53 667.18
00005864 00000140 915.13 189.56 376.90 585.97 958.05 452.80 1106.26 458.46 997.25 579.31 1010.12 661.69 1118.34 665.77
00005865 00000141 914.49 192.65 375.48 580.68 957.55 454.71 1104.65 459.51 996.35 578.23 1010.21 662.70 1115.64 666.14
00005866 00000142 914.71 189.68 373.88 583.93 956.71 455.30 1102.85 459.39 995.11 578.55 1010.61 663.99 1114.81 666.81
00005867 00000143 914.55 189.21 373.06 585.41 956.32 456.58 1101.71 459.59 993.81 578.71 1011.19 664.91 1115.02 666.74
00005868 00000144 913.32 191.02 371.48 583.39 956.10 457.84 1100.02 460.86 994.13 578.64 1011.93 664.43 1113.59 666.30
00005869 00000145 911.76 192.06 373.66 584.12 956.39 458.53 1098.78 461.12 995.33 580.69 1012.20 667.10 1110.46 668.76
00005870 00000146 912.36 193.95 373.00 581.82 957.69 460.12 1097.55 464.10 995.66 581.41 1014.43 667.15 1110.33 669.89
00005871 00000147 913.28 194.81 373.41 581.39 958.57 460.75 1098.79 464.46 997.99 581.96 1015.66 668.43 1110.46 671.17
00005872 00000148 913.49 199.20 375.10 577.49 959.00 460.28 1098.34 464.67 998.59 584.32 1016.63 670.24 1109.64 673.52
00005873 00000149 912.16 198.89 382.33 580.09 954.59 468.85 1103.54 470.26 1001.68 600.24 1014.20 674.06 1112.01 673.84
00005874 00000150 913.22 197.60 384.31 583.15 955.81 470.56 1104.49 470.54 1002.74 600.30 1015.10 677.08 1111.96 675.86
00005875 00000151 914.51 200.96 386.20 580.85 957.48 470.65 1107.02 469.87 1004.81 600.76 1016.46 679.03 1113.15 677.36
00005876 00000152 914.86 199.90 385.74 582.57 957.67 469.35 1107.55 467.96 1004.97 599.18 1016.55 679.29 1113.47 677.20
00005877 00000153 914.44 200.81 387.13 583.26 959.73 466.48 1109.84 464.72 1006.68 597.51 1019.83 676.67 1118.71 674.23
00005878 00000154 914.72 197.65 385.24 584.66 961.43 458.93 1112.23 457.51 1006.39 587.47 1027.03 667.33 1140.34 665.54
00005879 00000155 914.79 193.33 388.29 587.42 961.11 456.48 1115.56 454.54 1008.01 587.57 1027.02 663.11 1148.74 660.62
00005880 00000156 915.37 194.40 388.73 584.18 962.45 454.08 1117.43 453.35 1010.37 587.12 1027.76 661.08 1149.20 659.66
00005881 00000157 913.99 193.71 391.15 584.13 964.47 455.10 1120.80 456.08 1013.96 588.03 1027.99 662.61 1148.18 662.73
00005882 00000158 912.29 196.40 393.46 582.98 965.20 459.03 1120.24 457.66 1016.36 590.17 1030.23 665.85 1148.42 664.07
00005883 00000159 909.34 201.31 396.56 579.69 963.16 464.17 1120.53 461.47 1016.17 596.67 1030.28 670.10 1148.80 667.40
00005884 00000160 907.18 206.21 398.70 578.25 964.83 472.69 1118.63 467.23 1018.61 602.34 1035.95 672.38 1152.94 667.39
00005885 00000161 904.82 206.17 404.36 581.81 967.68 478.00 1123.15 468.51 1026.22 604.44 1041.05 674.75 1160.50 666.43
00005886 00000162 905.14 203.75 405.93 584.07 969.88 475.31 1128.47 463.76 1033.03 603.50 1045.78 672.68 1169.95 662.30
00005887 00000163 906.66 200.35 410.34 582.39 976.02 470.15 1136.06 456.89 1042.23 597.88 1050.73 669.66 1175.64 658.01
00005888 00000164 906.75 197.63 411.98 582.78 978.70 466.07 1140.93 453.06 1047.87 595.70 1052.31 668.42 1178.58 657.00
00005889 00000165 908.46 193.62 410.83 584.40 979.40 463.06 1141.81 449.65 1048.47 591.95 1053.00 665.38 1180.11 653.53
00005890 00000166 909.25 192.29 410.28 585.17 979.38 460.41 1141.73 447.11 1047.97 590.23 1052.99 664.28 1179.30 652.61
00005891 00000167 908.48 189.07 410.92 588.32 978.31 458.80 1139.36 445.53 1045.56 588.33 1052.05 662.87 1178.00 651.08
