Video ID: 	cOWGgnuHZuE
H: 	1080
W: 	1920
FPS: 	29.97002997002997

FRAME INDEX X0 Y0 W H [Landmarks (5 Points)]

00092134 00000000 644.23 166.00 346.56 514.16 700.70 375.81 844.31 360.35 748.97 443.34 726.04 556.47 835.95 545.06
00092135 DELETE   642.03 179.51 343.83 505.52 688.01 389.01 834.45 366.72 732.41 456.93 723.73 569.89 837.29 552.57
00092136 00000002 631.85 185.08 356.50 508.27 684.78 397.99 822.04 379.52 723.12 469.70 710.91 569.79 829.79 555.76
00092137 00000003 629.46 193.05 347.50 509.92 671.52 406.28 811.53 389.41 701.94 478.09 701.17 581.18 818.34 568.25
00092138 00000004 621.77 195.61 361.18 510.74 669.91 411.10 805.76 394.48 701.74 491.61 697.05 583.84 816.35 570.82
00092139 00000005 621.90 195.52 360.97 510.82 669.78 411.10 805.58 394.42 701.60 491.53 697.04 583.84 816.28 570.75
00092140 00000006 619.42 204.69 360.30 502.50 665.64 416.10 800.17 400.30 697.52 498.01 691.19 587.12 808.79 574.58
00092141 00000007 618.56 208.42 358.36 499.57 664.53 422.59 797.55 410.44 695.85 503.89 688.12 588.61 805.25 579.20
00092142 00000008 615.63 211.54 355.97 500.54 662.72 427.20 795.90 414.61 695.81 507.20 687.91 593.41 804.41 583.87
00092143 00000009 613.99 214.65 354.95 499.92 661.15 429.66 794.12 418.67 695.69 510.41 686.65 595.91 801.47 587.92
00092144 00000010 614.35 215.20 355.51 499.56 661.75 429.66 794.37 419.32 695.41 510.62 686.53 595.30 801.15 587.88
00092145 00000011 613.64 215.88 355.26 499.73 661.44 431.07 794.72 421.26 695.32 511.36 685.71 595.64 801.14 588.68
00092146 00000012 614.62 216.06 354.26 500.02 661.26 431.65 794.90 422.50 694.83 512.66 685.02 595.99 800.78 589.61
00092147 00000013 614.82 216.08 353.63 499.75 661.21 431.35 795.74 423.40 694.83 513.43 684.11 596.23 800.02 590.92
00092148 00000014 614.65 217.58 353.94 498.52 660.97 431.42 796.08 424.22 694.41 514.04 683.11 596.38 799.22 591.76
00092149 00000015 614.63 217.67 354.26 498.38 660.85 431.40 795.94 424.01 694.29 514.03 683.03 596.52 799.05 591.75
00092150 00000016 614.59 220.07 354.74 495.88 661.09 432.15 796.07 425.17 694.13 514.71 682.85 597.30 797.83 592.93
00092151 00000017 612.31 221.85 358.80 499.63 661.07 433.71 797.65 425.33 693.89 514.08 682.62 599.31 799.73 593.81
00092152 00000018 612.23 222.39 357.74 499.41 659.18 430.68 794.59 422.80 691.83 514.04 682.35 599.63 798.41 594.30
00092153 00000019 613.21 222.46 357.02 506.64 658.53 430.17 790.61 420.85 687.17 512.89 682.95 601.39 797.82 594.97
00092154 00000020 613.20 222.77 356.51 506.08 658.56 430.31 790.46 421.06 687.28 512.91 683.18 601.36 797.73 595.02
00092155 00000021 612.50 221.67 356.90 510.90 657.72 429.57 789.53 419.54 685.42 512.84 681.89 600.94 798.99 593.97
00092156 00000022 615.40 220.61 355.46 509.44 660.90 428.00 793.11 418.60 688.74 510.97 682.61 599.27 799.10 592.97
00092157 00000023 614.14 217.80 356.79 502.66 663.12 426.28 798.90 417.11 695.42 508.73 683.69 594.45 802.15 588.48
00092158 00000024 611.15 213.23 362.92 505.79 665.54 424.80 804.80 412.51 703.42 507.49 689.83 593.65 811.79 584.81
00092159 00000025 611.36 213.29 362.64 505.80 665.67 424.82 804.75 412.58 703.43 507.48 689.88 593.63 811.74 584.83
00092160 00000026 610.69 212.35 368.09 505.36 671.57 421.90 811.89 404.61 714.51 502.05 700.93 591.95 823.04 578.35
00092161 00000027 619.10 200.64 351.88 520.28 667.32 421.20 811.72 399.55 713.24 493.56 703.65 596.20 828.76 578.23
00092162 00000028 621.59 199.29 355.84 519.57 668.74 416.80 818.40 393.87 718.85 487.47 703.48 592.49 835.65 573.50
00092163 00000029 622.32 197.61 356.75 519.97 669.50 413.37 820.49 390.39 721.86 483.98 704.22 590.41 837.36 571.69
00092164 00000030 618.55 204.30 369.72 512.99 678.82 415.53 827.56 395.38 726.27 486.86 704.15 582.30 839.59 566.41
00092165 00000031 621.63 199.07 368.27 517.14 679.78 412.65 829.89 391.34 729.39 484.58 706.75 582.88 841.91 566.17
00092166 00000032 622.64 195.63 366.49 515.51 681.61 410.24 830.68 390.97 731.88 482.03 708.69 579.57 841.93 564.31
00092167 00000033 618.52 193.32 367.63 513.09 679.03 406.96 828.62 390.75 729.75 479.11 702.70 572.56 839.95 559.88
00092168 00000034 615.38 193.44 367.43 510.18 676.35 404.53 826.84 387.16 727.90 475.94 699.60 570.47 837.73 557.18
00092169 00000035 615.05 193.18 367.65 510.04 675.96 404.66 826.67 387.17 727.56 475.89 699.36 570.54 837.58 557.12
00092170 00000036 615.48 190.83 365.56 512.27 677.10 400.91 827.11 382.10 732.24 473.50 703.19 569.91 839.79 555.57
00092171 00000037 615.60 186.11 366.63 512.18 678.00 396.96 829.58 377.14 737.33 469.26 707.47 570.19 841.32 554.87
00092172 00000038 617.14 177.85 365.05 512.83 680.65 392.21 832.67 372.19 746.14 464.94 714.47 572.05 840.17 556.17
00092173 00000039 619.46 174.65 361.83 509.79 683.10 385.94 836.30 367.44 751.84 462.75 719.45 568.38 844.10 553.29
00092174 00000040 615.90 178.74 359.27 509.29 681.56 387.81 835.91 366.48 745.56 456.24 722.36 567.44 837.03 550.34
00092175 00000041 613.99 180.04 357.89 502.61 679.86 382.91 833.57 360.06 744.79 448.13 721.08 561.05 836.78 542.59
00092176 00000042 610.43 180.92 361.39 504.42 675.21 377.78 830.48 353.98 737.87 441.37 717.59 560.27 833.44 541.28
00092177 00000043 614.25 174.57 365.01 522.94 672.13 380.08 828.32 354.62 730.20 443.37 703.62 564.91 839.53 545.17
00092178 00000044 610.95 176.69 365.29 521.94 666.29 380.47 822.13 354.65 720.06 441.84 695.31 564.07 833.82 543.99
00092179 00000045 610.91 176.69 365.30 522.44 666.39 380.51 822.04 354.73 719.71 441.79 695.13 564.14 833.57 544.08
00092180 00000046 608.94 179.38 363.22 514.85 664.84 379.21 820.14 357.25 716.12 440.19 685.96 558.36 826.36 541.91
00092181 00000047 609.10 178.94 361.78 511.03 666.83 381.27 824.65 357.66 721.58 440.85 687.42 557.07 829.60 539.62
00092182 00000048 609.55 177.56 361.49 507.17 671.73 378.89 830.35 357.00 733.36 441.23 694.83 554.29 834.82 538.23
00092183 00000049 610.01 176.64 362.81 503.47 674.26 377.24 833.46 355.08 740.08 441.67 700.04 554.89 836.43 538.10
00092184 00000050 610.03 176.62 362.83 503.45 674.27 377.25 833.51 355.11 740.09 441.69 700.02 554.89 836.46 538.11
00092185 00000051 611.05 175.27 360.81 496.37 675.01 375.82 834.02 353.96 742.01 438.33 701.98 551.26 837.50 534.69
00092186 00000052 611.10 173.03 359.53 493.83 674.55 373.85 831.44 351.22 740.35 436.11 702.24 547.12 836.50 530.09
00092187 00000053 611.35 171.15 359.14 496.34 673.40 372.66 828.87 349.21 735.77 432.83 701.59 546.85 833.43 529.36
00092188 00000054 613.50 169.22 359.61 497.92 674.61 371.96 831.27 349.69 737.65 432.36 703.50 546.66 835.57 529.65
00092189 00000055 613.50 169.27 359.48 498.36 674.56 371.98 831.18 349.71 737.46 432.18 703.31 546.58 835.53 529.67
00092190 00000056 617.42 170.78 357.97 496.34 678.36 371.98 837.01 350.42 744.46 435.06 708.98 549.89 840.54 533.21
00092191 00000057 612.45 177.76 356.63 495.36 675.13 372.53 832.31 348.76 740.96 435.11 715.20 551.14 839.08 531.77
00092192 00000058 619.80 171.94 358.12 497.18 679.38 374.04 838.12 352.22 747.32 439.86 712.43 551.61 845.38 534.32
00092193 00000059 622.10 172.37 359.60 496.24 680.91 374.05 840.43 351.29 749.95 439.80 716.34 552.43 849.70 534.17
00092194 00000060 615.26 176.99 358.81 496.94 676.92 374.29 832.34 350.39 740.40 436.98 719.48 551.14 843.11 531.46
00092195 00000061 617.49 174.90 363.14 501.88 679.30 374.41 834.86 347.90 743.68 435.85 723.52 553.32 847.38 531.57
00092196 00000062 619.75 175.42 360.79 503.10 682.20 373.08 836.67 347.46 745.07 433.33 725.71 552.87 847.92 531.75
00092197 00000063 620.99 173.81 359.98 501.53 682.83 372.81 837.86 346.73 746.16 433.40 726.52 552.52 848.20 530.99
00092198 00000064 621.74 172.93 360.26 499.55 684.83 374.26 839.94 347.83 747.95 435.19 726.50 552.74 849.14 531.19
00092199 00000065 621.77 172.96 359.87 499.55 684.80 374.14 839.94 347.96 748.30 435.11 726.57 552.56 848.88 531.21
00092200 00000066 623.56 171.95 360.83 499.80 687.48 374.68 842.28 348.04 750.34 434.94 729.19 553.19 849.42 531.50
00092201 00000067 624.08 171.61 359.19 499.38 687.46 374.10 841.83 348.15 750.78 434.28 731.38 553.13 846.27 531.95
00092202 00000068 625.41 173.31 358.06 499.43 686.15 373.72 841.44 348.22 749.13 434.67 728.41 553.21 848.18 532.26
00092203 00000069 625.38 172.80 359.48 499.58 687.21 374.39 842.93 348.00 750.94 435.56 729.48 553.36 850.92 531.74
00092204 00000070 625.50 172.67 359.20 499.21 687.30 374.37 842.96 347.95 751.15 435.34 729.44 553.13 850.79 531.51
00092205 00000071 626.11 172.68 360.20 496.91 689.11 375.19 846.19 348.66 754.29 436.28 730.38 551.86 854.55 530.07
00092206 00000072 625.08 173.43 362.06 493.96 688.95 376.03 847.20 347.98 756.07 436.69 730.18 550.93 856.90 527.86
00092207 00000073 623.73 173.52 361.24 497.30 687.69 375.90 843.76 348.18 754.85 436.19 730.59 552.41 854.19 529.71
00092208 00000074 621.42 171.55 362.48 499.92 684.28 375.43 840.31 347.75 749.79 437.71 728.84 554.01 849.31 531.44
00092209 00000075 621.55 171.46 362.44 500.06 684.32 375.46 840.26 347.72 749.71 437.82 728.95 554.13 849.31 531.52
00092210 00000076 619.63 169.95 359.45 503.00 682.85 375.37 838.69 349.20 748.35 439.47 726.61 554.73 845.93 533.43
00092211 00000077 619.72 171.85 361.00 502.06 683.56 375.87 838.29 348.71 748.38 437.40 729.32 555.26 845.18 533.13
00092212 00000078 619.35 172.15 363.33 506.30 683.45 375.58 839.02 349.36 748.79 437.65 727.79 555.12 847.82 533.74
00092213 00000079 618.81 171.25 363.65 507.96 683.30 376.90 840.05 349.88 749.76 438.78 727.83 555.89 849.43 533.89
00092214 00000080 618.89 171.03 363.73 508.31 683.23 376.87 839.90 349.85 749.56 438.93 727.77 556.02 849.36 534.04
00092215 00000081 618.59 171.55 363.97 505.66 682.53 376.56 839.43 348.97 749.25 438.75 727.47 555.61 850.10 533.16
00092216 00000082 617.89 171.54 363.74 503.69 682.94 377.26 838.66 348.69 749.14 437.70 728.88 555.54 849.60 532.16
00092217 00000083 617.19 172.49 362.70 500.85 681.98 377.07 836.86 348.16 748.36 437.34 729.15 554.85 848.32 531.01
00092218 00000084 615.57 172.19 362.62 501.40 679.53 377.29 835.33 347.99 746.40 437.75 726.14 554.65 846.56 530.61
00092219 00000085 615.69 172.56 362.64 501.19 679.77 377.27 835.24 348.03 746.41 437.68 726.21 554.50 846.52 530.51
00092220 00000086 615.99 172.67 362.34 499.84 679.00 378.12 833.67 349.43 743.17 439.43 724.22 553.95 844.57 530.39
00092221 00000087 614.71 172.12 364.30 498.28 678.97 378.76 832.59 350.28 742.46 440.45 723.52 552.67 843.69 529.30
00092222 00000088 615.17 171.57 363.14 495.95 679.91 379.04 832.13 350.63 741.96 440.10 723.91 551.17 843.25 527.84
00092223 00000089 616.31 173.01 360.85 490.68 681.48 379.60 832.68 350.68 743.87 439.86 726.29 549.33 844.62 525.55
00092224 00000090 616.36 172.50 360.78 490.85 681.39 379.55 832.59 350.47 743.78 439.84 726.19 549.34 844.63 525.39
00092225 00000091 617.06 170.68 361.32 490.09 682.80 379.23 835.07 348.74 746.89 439.24 729.38 549.18 846.91 524.16
00092226 00000092 619.23 170.43 363.36 490.41 687.32 380.80 839.37 346.12 753.07 436.19 734.29 550.13 852.74 521.81
00092227 00000093 625.76 172.48 356.98 491.25 698.31 377.95 847.49 347.67 764.95 433.11 738.97 546.32 858.90 520.20
00092228 00000094 626.18 172.25 358.77 492.81 698.90 377.91 848.26 347.19 765.22 432.55 739.32 546.90 859.02 520.39
00092229 00000095 626.19 172.21 358.62 492.74 698.93 377.80 848.30 347.21 765.27 432.75 739.36 546.85 858.95 520.45
00092230 00000096 620.99 171.50 363.96 491.56 689.35 380.51 841.53 346.66 755.59 435.92 735.44 550.78 853.82 523.10
00092231 00000097 619.20 171.34 361.45 493.76 684.62 378.32 838.08 348.80 749.36 438.73 729.72 551.07 848.29 526.91
00092232 00000098 618.22 171.99 361.46 495.31 682.60 378.29 835.39 351.03 744.99 441.48 725.56 550.95 844.49 528.65
00092233 00000099 617.95 172.28 361.99 497.16 681.75 378.30 834.56 351.98 742.78 441.82 724.31 551.83 842.66 530.24
00092234 00000100 617.84 172.41 362.12 497.09 681.77 378.33 834.64 352.05 742.86 441.87 724.39 551.85 842.81 530.28
00092235 00000101 618.82 173.65 360.60 496.50 682.64 377.99 835.54 351.86 743.71 441.38 725.09 552.25 843.32 530.82
00092236 00000102 619.41 173.58 360.81 496.99 683.46 378.23 836.72 350.87 745.95 439.86 726.99 553.32 844.88 530.94
00092237 00000103 620.33 173.59 360.79 498.02 684.08 378.70 837.52 350.70 747.38 439.21 728.49 553.90 846.82 530.98
00092238 00000104 620.97 174.18 360.28 497.99 683.60 379.33 837.37 350.88 746.94 439.70 728.37 554.23 847.49 530.89
00092239 00000105 620.71 174.27 360.51 497.96 683.59 379.25 837.38 350.83 747.10 439.69 728.38 554.10 847.56 530.79
00092240 00000106 621.30 175.05 360.02 498.61 682.82 379.70 837.72 351.67 746.38 440.59 727.52 554.86 849.20 531.68
00092241 00000107 623.08 174.48 359.41 504.27 681.94 377.61 837.30 352.01 744.21 442.23 725.48 556.75 848.97 535.74
00092242 00000108 624.40 175.16 358.29 504.32 682.75 378.58 837.29 353.43 745.53 445.45 727.05 557.13 852.70 536.34
00092243 00000109 624.17 176.78 357.52 498.34 681.67 378.84 836.24 354.66 744.21 447.43 725.29 556.08 851.28 536.07
00092244 00000110 624.19 176.72 357.05 498.46 681.68 378.78 836.20 354.65 744.16 447.31 725.19 556.03 851.14 536.05
00092245 00000111 624.07 177.35 355.23 496.84 679.91 377.59 833.64 355.68 739.85 446.46 720.91 554.13 845.21 536.02
00092246 00000112 624.38 177.62 354.73 496.01 679.38 375.51 832.92 355.26 736.89 445.40 718.42 552.74 840.75 536.07
00092247 00000113 625.38 177.18 355.05 494.87 679.37 373.05 832.72 353.60 735.18 443.82 717.03 551.61 838.77 535.70
00092248 00000114 626.75 177.59 355.37 493.14 679.21 373.15 831.72 352.96 732.80 443.48 716.66 551.48 838.37 534.96
00092249 00000115 626.90 177.92 355.75 492.93 678.99 372.99 831.46 352.68 732.47 443.49 716.62 551.52 838.21 534.90
00092250 00000116 628.21 177.62 353.67 493.45 679.40 371.67 831.89 351.83 732.85 442.44 717.15 551.46 837.46 535.37
00092251 00000117 630.43 177.00 351.69 499.64 677.75 371.15 830.51 350.90 729.36 442.07 717.23 554.14 837.57 537.57
00092252 00000118 625.73 176.44 354.23 499.16 673.38 372.15 825.09 350.86 722.87 441.16 711.51 553.73 834.26 536.33
00092253 00000119 623.39 179.06 344.07 495.81 675.22 371.76 817.99 355.37 713.26 449.38 700.79 547.79 822.76 536.23
00092254 00000120 623.37 178.71 343.99 495.97 675.17 371.89 817.95 355.51 713.25 449.34 700.76 547.77 822.48 536.24
00092255 00000121 617.26 182.89 347.07 494.12 655.40 377.15 801.93 357.89 692.36 450.56 687.20 555.81 806.13 542.83
00092256 00000122 618.10 183.62 342.78 499.39 653.03 385.16 801.38 364.92 690.41 457.49 683.07 561.45 804.58 547.85
00092257 00000123 614.76 185.29 362.06 506.56 664.93 400.41 807.78 379.70 701.88 464.69 687.92 565.56 818.35 549.26
00092258 00000124 619.27 189.65 363.61 508.75 675.21 401.37 824.29 379.27 723.28 467.61 700.20 568.16 834.24 551.33
00092259 00000125 619.13 190.07 363.78 508.25 675.08 401.39 824.16 379.19 723.16 467.58 700.19 568.24 834.09 551.33
00092260 00000126 626.32 188.20 363.15 509.84 684.74 395.48 838.28 376.74 745.01 468.79 719.95 573.63 847.91 558.22
00092261 00000127 622.74 186.72 371.89 522.69 700.04 398.77 854.71 378.55 771.12 471.44 740.59 579.63 867.47 562.40
00092262 00000128 624.82 188.62 371.11 523.77 707.20 400.06 865.07 377.94 791.52 476.31 747.79 579.99 883.02 561.28
00092263 00000129 625.19 193.18 371.26 519.36 708.23 404.16 868.35 379.81 797.40 482.02 748.93 582.95 888.55 562.78
00092264 00000130 625.27 193.02 371.46 519.74 708.40 404.21 868.33 379.89 797.06 481.98 749.00 583.00 888.44 562.85
00092265 00000131 622.02 192.57 369.22 519.67 704.21 404.27 864.77 382.95 791.30 484.74 741.61 583.70 880.83 565.82
00092266 00000132 615.94 200.47 374.31 512.68 697.56 407.63 861.21 386.49 783.87 487.50 734.47 579.31 883.38 562.50
00092267 00000133 614.90 199.09 373.20 507.31 692.18 402.90 852.17 381.59 773.17 480.60 726.52 571.13 876.34 553.95
00092268 00000134 615.82 188.70 370.03 509.35 688.27 395.08 846.99 373.21 767.23 470.91 726.10 567.09 871.55 549.03
00092269 00000135 615.88 188.70 369.98 509.36 688.28 395.12 846.99 373.21 767.23 470.93 726.09 567.11 871.62 549.02
00092270 00000136 619.48 183.83 368.08 511.10 689.45 390.62 849.50 369.71 768.32 465.34 727.60 564.67 872.84 547.41
00092271 00000137 622.24 180.79 367.45 514.48 692.86 388.50 853.73 368.01 773.34 463.79 732.32 565.93 875.06 548.84
00092272 00000138 624.15 179.50 367.94 519.69 696.38 387.47 858.78 368.60 777.57 464.22 735.51 566.91 878.88 550.86
00092273 00000139 625.50 182.74 369.01 518.05 699.02 388.84 862.34 371.66 780.52 467.25 737.73 567.45 881.34 552.80
00092274 00000140 625.46 182.51 368.83 518.35 698.97 388.83 862.29 371.50 780.67 467.19 737.68 567.33 881.34 552.60
00092275 00000141 627.60 184.20 368.47 514.59 700.25 389.70 864.47 373.72 781.71 469.82 737.83 566.78 882.97 553.30
00092276 00000142 629.26 181.75 363.22 510.56 703.15 386.58 860.19 373.98 776.03 472.48 735.59 567.58 868.58 557.22
00092277 00000143 631.66 181.48 365.08 506.39 704.94 384.85 863.37 373.32 776.77 472.45 735.72 566.40 869.80 556.93
CROP_BBOX: 398 0 1222 850
