Video ID: 	hGR6RFp6ecg
H: 	1080
W: 	1920
FPS: 	29.97002997002997

FRAME INDEX X0 Y0 W H [Landmarks (5 Points)]

00000017 00000000 791.92 107.69 345.61 538.31 881.07 317.74 1035.75 321.58 959.10 408.17 899.36 500.52 1032.37 504.90
00000018 00000001 792.26 108.79 346.08 536.04 881.41 319.77 1037.89 325.74 958.47 412.73 896.34 498.90 1035.32 504.92
00000019 00000002 791.38 110.29 346.41 533.81 881.06 322.91 1037.89 330.71 957.42 417.33 893.38 498.21 1036.61 505.54
00000020 00000003 790.80 111.02 346.96 533.74 881.69 323.99 1037.82 332.21 957.60 419.38 894.19 498.33 1037.23 505.93
00000021 00000004 790.21 110.73 346.79 537.04 881.20 323.45 1036.28 332.05 956.53 419.78 894.06 498.99 1036.70 506.78
00000022 00000005 790.40 109.70 346.16 544.54 880.46 322.07 1034.64 329.09 954.47 418.84 893.12 501.51 1035.58 508.16
00000023 00000006 790.66 109.65 345.39 548.36 880.25 321.41 1033.48 327.44 954.17 416.31 891.87 502.04 1035.22 507.97
00000024 00000007 790.74 109.57 345.46 545.96 879.68 320.44 1034.28 326.34 953.58 414.81 891.08 500.64 1035.27 506.48
00000025 00000008 790.58 110.19 346.55 537.52 879.60 320.17 1035.07 326.86 953.62 412.55 891.30 496.71 1035.80 503.21
00000026 00000009 791.43 110.58 346.43 533.90 880.66 319.65 1035.91 327.03 954.36 411.31 891.60 493.28 1037.35 500.19
00000027 00000010 793.53 110.25 345.58 534.99 882.47 320.07 1038.05 328.24 955.80 412.70 892.80 493.73 1038.85 501.34
00000028 00000011 795.06 112.17 344.95 532.08 884.11 320.87 1040.29 328.89 957.66 414.06 893.57 494.15 1039.75 501.82
00000029 00000012 795.23 111.80 345.02 530.52 885.30 321.43 1041.84 329.68 959.99 414.24 894.05 493.14 1041.38 500.96
00000030 00000013 795.58 110.36 345.01 532.31 885.56 320.93 1041.88 329.63 959.81 414.18 894.27 493.02 1041.01 501.24
00000031 00000014 794.82 109.94 345.51 536.99 885.29 320.16 1041.21 329.48 959.03 414.48 893.54 495.87 1038.15 504.78
00000032 00000015 794.74 107.62 345.61 547.56 885.61 320.28 1041.24 328.89 958.99 417.24 893.40 500.82 1037.76 509.10
00000033 00000016 794.75 108.92 344.69 551.68 885.63 321.58 1041.60 331.20 958.52 419.78 891.90 503.27 1037.33 512.35
00000034 00000017 795.04 110.11 343.99 549.28 886.18 324.17 1040.82 334.85 958.64 422.11 891.90 504.01 1035.46 514.10
00000035 00000018 795.14 112.08 344.51 542.65 886.37 327.09 1040.61 338.13 959.30 423.63 893.80 504.82 1033.55 515.36
00000036 00000019 795.47 112.27 344.53 537.66 886.02 327.77 1040.54 337.78 959.85 421.93 897.62 506.18 1031.71 516.01
00000037 00000020 795.26 113.53 344.32 535.81 886.87 328.22 1039.96 336.63 961.56 420.56 901.79 507.19 1031.71 515.79
00000038 00000021 794.89 112.74 343.16 540.04 887.52 327.69 1038.95 335.00 962.09 421.21 903.30 509.52 1030.65 517.30
00000039 00000022 795.39 112.28 342.48 544.86 888.28 325.49 1039.01 333.30 962.57 421.71 902.13 510.56 1030.25 518.74
00000040 00000023 795.21 112.02 342.69 545.88 887.26 325.12 1038.54 333.05 960.74 421.41 899.59 509.00 1031.26 517.13
00000041 00000024 795.28 111.15 343.37 544.06 886.11 325.09 1039.35 333.41 958.99 421.72 896.86 505.59 1033.78 513.83
00000042 00000025 794.92 110.84 344.07 540.40 885.56 325.00 1039.81 333.43 958.85 420.79 896.09 503.11 1034.80 511.37
00000043 00000026 794.76 111.80 344.69 535.74 885.19 324.62 1040.88 333.23 959.67 418.88 895.77 500.39 1036.89 508.66
00000044 00000027 794.70 112.21 345.45 531.95 884.87 324.67 1041.37 332.44 959.96 418.48 896.26 498.23 1039.60 505.66
00000045 00000028 795.04 111.81 345.56 532.65 885.39 324.30 1042.06 331.88 960.75 417.85 896.76 497.52 1041.24 504.79
00000046 00000029 794.70 110.88 346.27 538.31 885.17 323.79 1041.46 331.47 960.21 417.47 896.04 499.50 1040.15 506.94
00000047 00000030 795.50 110.08 345.46 546.56 885.86 323.35 1041.41 331.21 959.56 419.48 895.03 502.65 1039.38 510.28
00000048 00000031 796.44 111.36 345.19 546.29 885.99 324.76 1041.52 333.06 958.87 420.80 894.84 503.95 1038.66 512.02
00000049 00000032 796.87 110.16 345.62 547.76 886.95 325.91 1042.49 334.49 960.27 421.28 896.05 504.58 1039.18 512.93
00000050 00000033 797.45 110.86 346.36 546.57 887.55 326.56 1042.91 335.09 960.81 421.94 897.11 505.21 1039.50 513.51
00000051 00000034 798.67 111.47 346.11 545.74 888.70 328.41 1043.62 336.60 962.41 422.45 899.49 506.63 1039.89 514.73
00000052 00000035 799.27 111.67 346.17 546.15 890.27 328.70 1045.22 337.58 964.32 422.97 900.31 506.62 1040.97 515.34
00000053 00000036 800.15 111.29 346.21 548.11 891.10 326.45 1045.96 335.70 964.88 421.42 900.02 505.99 1041.45 515.05
00000054 00000037 801.52 108.65 344.63 553.27 891.42 322.74 1047.49 331.04 965.90 419.80 899.33 505.38 1043.53 513.68
00000055 00000038 802.15 107.98 342.97 555.93 890.56 318.73 1047.76 326.00 964.17 413.76 898.86 504.81 1043.28 512.27
00000056 00000039 803.60 107.75 341.23 556.10 889.63 317.64 1046.97 322.75 962.48 409.95 898.26 504.66 1042.92 510.64
00000057 00000040 804.27 107.61 340.20 557.68 888.84 316.51 1046.65 319.31 961.96 406.59 899.22 505.79 1043.95 509.99
00000058 00000041 804.69 106.78 340.04 557.61 887.95 317.21 1046.27 318.34 961.86 407.04 900.02 508.72 1042.16 511.80
00000059 00000042 801.38 104.51 346.44 553.10 888.11 316.75 1046.72 318.48 964.50 410.02 903.19 507.93 1040.57 510.86
00000060 00000043 799.28 102.48 350.87 549.26 887.84 319.32 1045.96 321.96 965.98 413.61 905.86 505.43 1042.91 508.34
00000061 00000044 799.75 102.19 350.97 550.97 887.50 322.13 1046.72 323.83 966.56 418.26 905.90 508.79 1044.30 510.95
00000062 00000045 800.90 103.58 350.02 553.76 890.40 323.35 1046.67 325.82 969.03 419.89 907.67 509.69 1043.73 512.57
00000063 00000046 802.81 104.82 347.75 556.70 892.11 321.93 1048.69 324.87 970.52 417.11 906.38 508.11 1047.42 511.78
00000064 00000047 804.25 106.21 345.90 555.06 893.23 320.73 1049.35 322.83 971.15 415.15 906.63 506.57 1048.89 509.72
00000065 00000048 803.80 106.85 347.02 549.38 892.70 320.26 1048.80 322.35 970.31 413.22 906.35 502.84 1049.13 505.89
00000066 00000049 803.57 106.99 347.31 543.90 891.61 320.28 1048.69 322.14 969.88 412.92 905.70 500.33 1049.73 503.11
00000067 00000050 802.79 106.64 347.07 541.96 891.16 320.74 1047.99 322.97 969.57 413.46 906.18 499.75 1049.11 502.70
00000068 00000051 801.14 108.08 347.97 540.46 890.08 321.69 1047.30 323.33 969.39 414.39 905.61 500.11 1049.19 502.53
00000069 00000052 800.68 108.93 346.81 537.73 889.97 322.56 1046.18 324.73 968.87 414.22 906.09 500.95 1046.24 503.94
00000070 00000053 799.83 111.14 345.24 531.95 890.34 325.07 1043.61 327.84 967.97 413.87 907.07 500.58 1042.03 504.21
00000071 00000054 799.05 111.94 344.69 528.94 889.90 323.14 1042.41 324.36 967.71 412.34 910.10 502.60 1037.22 505.11
00000072 00000055 799.85 111.74 344.09 527.15 890.42 321.42 1044.10 321.89 969.67 410.82 913.60 502.34 1036.91 504.01
00000073 00000056 800.03 110.26 346.21 530.61 890.03 321.30 1044.24 319.73 969.98 411.71 916.03 504.49 1038.04 504.28
00000074 00000057 799.74 108.47 347.01 537.13 890.04 320.92 1043.97 317.21 971.41 413.08 919.71 509.48 1038.61 507.49
00000075 00000058 800.28 106.28 346.21 541.99 890.26 318.76 1044.70 315.78 971.63 411.83 919.73 512.07 1035.26 510.84
00000076 00000059 801.43 107.40 346.47 537.59 891.35 319.27 1046.12 315.68 972.58 411.55 920.08 508.97 1038.42 507.09
00000077 00000060 802.26 109.47 348.56 534.48 892.72 322.03 1047.83 316.55 975.40 411.44 920.51 506.94 1045.36 503.40
00000078 00000061 803.06 108.81 347.88 535.32 893.47 322.37 1048.23 318.14 975.47 412.88 920.24 506.10 1046.48 503.54
00000079 00000062 801.80 107.89 348.32 537.41 892.28 323.51 1047.36 320.37 974.02 415.30 919.42 507.80 1045.05 506.10
00000080 00000063 799.65 107.86 348.64 542.20 890.90 325.12 1045.64 323.25 972.40 419.20 918.83 513.01 1041.64 512.39
00000081 00000064 796.41 109.13 349.35 543.82 887.04 328.96 1042.77 326.13 968.99 422.99 916.59 519.78 1038.67 518.67
00000082 00000065 794.92 108.75 349.01 548.33 884.68 332.11 1040.16 328.76 965.90 424.59 915.43 525.24 1035.96 524.00
00000083 00000066 793.27 108.95 349.88 550.90 881.65 334.35 1036.90 331.84 961.68 425.08 911.03 527.34 1032.49 526.99
00000084 00000067 791.75 109.78 347.84 553.89 880.45 335.60 1032.39 333.15 959.12 424.64 908.65 530.87 1025.11 530.94
00000085 00000068 791.82 109.43 348.13 561.99 878.33 336.95 1031.06 335.02 954.56 425.58 902.45 533.91 1023.23 534.53
00000086 00000069 791.09 109.28 347.27 562.86 876.65 336.01 1030.92 338.66 948.67 429.18 896.00 531.53 1019.88 535.81
00000087 00000070 791.49 112.62 346.60 554.74 874.98 339.50 1027.80 344.69 942.68 432.84 891.92 530.08 1014.94 536.67
00000088 00000071 791.44 116.82 347.25 548.60 873.95 341.39 1025.59 348.57 938.28 437.40 888.48 527.83 1011.92 536.14
00000089 00000072 792.50 117.74 346.96 547.61 873.00 343.31 1024.53 350.44 936.73 439.68 887.86 529.13 1011.64 537.28
00000090 00000073 793.86 116.93 348.57 552.35 874.08 343.03 1026.18 349.86 937.34 440.65 888.33 529.37 1014.39 537.15
00000091 00000074 797.36 116.17 348.65 554.17 877.08 343.18 1031.26 348.25 941.47 442.86 892.66 530.27 1020.60 536.53
00000092 00000075 802.30 113.30 349.24 557.35 881.13 343.95 1036.94 346.63 947.83 444.81 899.44 531.91 1028.91 536.10
00000093 00000076 806.86 114.51 349.27 556.28 886.69 345.54 1044.35 345.50 957.65 444.79 906.71 532.56 1038.46 534.52
00000094 00000077 812.90 117.60 348.46 547.98 896.44 342.62 1053.18 341.95 973.15 441.74 916.31 528.40 1047.92 529.99
00000095 00000078 817.83 117.16 349.29 544.01 903.29 340.26 1060.95 336.45 982.79 435.00 922.70 523.67 1057.63 522.75
00000096 00000079 821.34 114.55 349.26 540.64 907.46 337.07 1064.83 332.22 987.55 431.59 926.76 519.37 1062.19 517.54
00000097 00000080 822.58 114.29 350.93 536.75 910.58 334.16 1068.21 330.87 991.26 427.91 928.17 513.95 1065.93 513.30
00000098 00000081 822.57 112.92 351.55 536.18 910.48 333.14 1067.79 329.66 991.18 427.22 928.55 512.59 1065.98 511.73
00000099 00000082 821.59 112.82 351.45 536.16 909.16 333.60 1065.47 329.36 989.44 426.96 927.50 512.47 1063.90 510.95
00000100 00000083 819.93 112.64 350.32 540.24 906.76 335.81 1062.95 329.37 988.15 428.78 928.18 517.56 1062.38 514.42
00000101 00000084 817.77 113.62 348.28 546.79 903.31 340.15 1059.44 332.15 985.34 432.90 927.31 525.29 1060.08 520.90
00000102 00000085 814.06 116.86 348.97 545.56 898.81 344.83 1053.59 337.09 981.27 440.87 926.75 531.07 1055.05 526.70
00000103 00000086 810.54 115.32 349.81 548.91 895.46 345.97 1051.11 339.33 977.24 441.03 924.73 533.42 1052.01 529.77
00000104 00000087 807.68 110.78 349.38 559.85 893.51 342.27 1048.95 334.74 976.04 436.15 922.14 536.62 1046.45 532.63
00000105 00000088 806.19 108.96 348.83 563.40 892.02 338.94 1046.75 330.75 975.79 433.02 921.97 539.82 1041.18 535.56
00000106 00000089 806.02 107.28 351.12 554.95 892.52 334.40 1048.15 324.52 977.57 428.33 924.28 529.96 1047.64 523.52
00000107 00000090 806.78 105.75 350.71 548.96 893.31 330.85 1048.12 322.72 976.12 426.87 924.36 522.80 1047.79 517.35
00000108 00000091 807.68 107.09 349.64 543.63 893.95 329.98 1047.86 324.26 974.86 425.86 922.04 516.94 1047.58 513.37
00000109 00000092 806.44 109.29 350.45 538.31 893.79 330.29 1047.01 325.95 973.16 425.02 918.97 513.70 1045.32 511.43
00000110 00000093 806.55 110.57 349.06 536.48 894.42 330.13 1046.05 325.94 973.06 424.12 920.65 514.30 1042.65 512.37
00000111 00000094 808.20 109.83 346.13 541.48 896.15 328.76 1046.32 323.81 974.76 423.97 923.83 516.94 1041.70 514.50
00000112 00000095 811.20 107.72 342.88 546.95 896.30 324.40 1046.18 319.54 974.21 418.91 923.16 518.72 1037.02 516.70
00000113 00000096 814.87 107.51 341.21 547.92 896.99 322.29 1048.17 316.21 973.88 412.03 920.20 514.30 1043.41 511.52
00000114 00000097 816.64 107.69 341.02 546.13 898.36 318.82 1050.54 312.67 974.22 404.15 918.40 508.42 1046.98 505.62
00000115 00000098 816.12 110.13 344.22 537.07 900.04 317.23 1049.52 309.37 975.52 399.86 918.23 500.28 1047.80 496.01
00000116 00000099 817.77 111.52 342.49 527.99 902.31 314.71 1051.79 307.77 976.65 394.13 918.25 493.55 1048.73 490.03
00000117 00000100 817.73 109.33 343.37 524.10 903.74 312.09 1053.86 305.44 978.87 389.56 920.47 488.14 1052.45 484.70
00000118 00000101 817.37 108.52 344.47 522.24 903.50 310.42 1054.03 303.03 978.76 386.31 920.29 485.02 1053.18 481.01
00000119 00000102 817.40 108.44 345.09 516.93 903.75 308.53 1054.69 301.49 979.49 382.52 920.73 481.83 1053.66 478.20
00000120 00000103 817.50 105.78 345.51 513.60 904.05 307.11 1055.25 300.75 981.09 380.71 921.52 477.24 1055.00 474.07
00000121 00000104 817.61 105.39 344.64 512.48 903.37 306.29 1054.05 300.97 979.94 380.55 920.42 475.40 1053.98 473.03
00000122 00000105 816.94 104.04 344.61 519.33 902.28 307.10 1053.64 302.52 977.57 382.01 917.10 477.87 1053.27 476.12
00000123 00000106 815.59 102.32 343.67 531.46 899.98 306.70 1051.45 302.52 972.31 383.12 913.53 482.35 1050.18 480.80
00000124 00000107 813.38 104.19 344.68 530.39 897.10 306.61 1048.72 302.99 969.28 385.00 911.18 483.13 1046.45 482.08
00000125 00000108 809.32 103.03 346.34 530.72 894.12 306.05 1046.98 303.17 968.30 386.01 910.05 483.67 1044.18 483.01
00000126 00000109 806.41 102.35 346.06 531.74 891.76 306.34 1044.87 303.97 967.12 387.57 909.34 485.27 1041.56 484.79
00000127 00000110 803.42 104.04 347.49 528.01 889.40 306.01 1043.51 303.41 966.73 388.32 909.91 488.14 1036.94 487.48
00000128 00000111 798.71 104.03 349.23 525.03 887.24 306.38 1039.93 303.47 967.83 386.74 913.12 489.50 1034.24 488.25
00000129 00000112 797.09 103.04 347.27 525.09 885.31 306.27 1037.80 302.49 966.18 387.01 913.54 491.37 1030.81 489.38
00000130 00000113 795.18 103.87 345.17 521.67 884.00 306.09 1034.91 300.80 965.55 387.10 914.39 492.76 1026.00 489.66
00000131 00000114 793.54 103.82 345.11 520.00 883.17 307.96 1033.41 301.63 965.64 389.68 915.37 495.39 1024.32 491.45
00000132 00000115 791.08 104.21 348.36 518.99 881.61 311.54 1033.35 305.76 964.81 392.77 912.25 496.40 1027.20 492.95
00000133 00000116 790.26 103.25 348.95 522.93 879.17 312.50 1032.91 306.87 962.89 395.94 909.01 499.48 1027.95 496.06
00000134 00000117 789.93 103.52 349.49 525.01 879.55 312.61 1033.13 306.96 963.96 397.12 910.10 501.04 1028.18 497.66
00000135 00000118 790.66 105.01 349.68 525.86 880.91 314.15 1033.26 307.73 964.20 395.87 912.66 500.92 1030.03 496.82
00000136 00000119 791.36 104.55 349.61 529.04 881.76 314.61 1033.85 307.50 964.82 396.22 914.80 502.47 1030.78 497.71
00000137 00000120 791.24 104.38 350.76 531.75 882.01 314.81 1034.69 307.78 965.34 396.74 915.40 503.27 1032.16 498.54
00000138 00000121 792.14 104.48 350.47 534.31 883.36 315.99 1035.63 308.13 966.62 398.77 917.57 505.07 1034.07 499.54
00000139 00000122 793.06 105.36 350.42 533.12 883.76 316.67 1035.94 308.09 966.87 399.62 918.66 504.86 1035.10 498.63
00000140 00000123 793.28 105.18 350.24 532.97 883.85 316.71 1036.11 307.20 967.51 399.97 919.94 505.19 1036.03 498.11
00000141 00000124 793.49 105.80 350.35 530.88 883.27 317.67 1036.25 307.83 967.15 400.90 919.56 504.87 1036.90 497.49
00000142 00000125 793.56 106.65 350.74 528.04 882.45 319.16 1036.10 307.90 966.72 400.95 919.58 504.77 1038.38 496.26
00000143 00000126 790.55 106.63 353.89 528.11 881.71 321.84 1035.89 311.27 967.98 404.42 918.97 505.97 1041.08 497.67
00000144 00000127 790.48 107.46 353.61 529.16 881.04 323.10 1035.07 313.76 967.31 407.05 914.25 503.80 1043.05 496.56
00000145 00000128 790.93 107.05 354.50 537.96 881.16 324.03 1035.04 315.63 965.90 409.28 913.04 505.10 1046.00 498.60
00000146 00000129 792.79 106.34 353.86 546.69 883.38 324.38 1036.06 316.62 966.49 409.78 914.32 507.18 1047.76 501.34
00000147 00000130 794.45 109.09 351.22 548.96 882.78 325.38 1036.40 317.15 965.57 411.87 911.55 506.73 1053.40 500.17
00000148 00000131 796.02 110.70 350.37 546.09 883.12 327.28 1037.60 318.84 965.92 414.93 911.19 504.88 1056.83 497.97
00000149 00000132 797.01 111.07 349.96 543.67 883.49 328.17 1038.35 319.21 966.04 414.70 911.57 503.32 1058.34 495.96
00000150 00000133 798.24 111.94 348.79 543.99 884.29 326.80 1039.01 318.82 965.73 413.68 910.66 502.05 1058.85 495.58
00000151 00000134 799.43 111.40 346.74 545.93 884.08 325.07 1037.96 317.80 963.36 413.11 908.83 502.26 1056.86 496.46
00000152 00000135 800.45 110.15 345.67 550.42 885.25 323.36 1039.22 317.44 963.35 411.05 908.42 501.26 1057.71 496.56
00000153 00000136 800.80 110.43 345.90 548.87 884.92 323.11 1039.14 316.71 963.42 410.44 908.82 500.63 1058.58 495.43
00000154 00000137 801.40 110.69 346.75 542.58 885.98 324.02 1040.53 317.85 965.12 411.25 908.85 497.45 1058.69 492.44
00000155 00000138 801.59 111.40 348.31 536.60 886.62 324.59 1041.94 317.76 966.85 411.16 910.17 496.39 1058.94 490.87
00000156 00000139 803.54 111.19 348.03 534.52 888.29 324.99 1043.61 317.70 968.61 410.96 911.06 495.34 1060.06 489.58
00000157 00000140 804.77 112.76 347.07 534.26 889.81 325.29 1045.04 317.96 969.89 411.97 912.39 496.43 1060.43 490.77
00000158 00000141 806.33 113.53 347.53 539.59 892.20 325.28 1046.66 318.19 972.54 412.12 913.40 500.26 1059.68 495.23
00000159 00000142 806.84 113.09 348.61 543.99 893.74 326.59 1047.78 318.51 975.10 413.86 915.88 504.62 1060.55 499.01
00000160 00000143 806.86 113.86 349.32 543.63 894.90 329.00 1048.73 320.46 976.51 417.44 916.81 506.36 1061.47 500.44
00000161 00000144 807.46 114.77 349.43 542.03 895.66 330.25 1048.82 322.08 977.04 418.92 917.86 506.35 1062.02 500.66
00000162 00000145 807.04 115.72 350.16 538.83 896.33 331.57 1049.12 323.27 978.08 421.21 919.21 506.16 1062.25 500.26
00000163 00000146 806.42 115.95 350.82 535.87 895.74 333.71 1049.03 325.14 977.93 422.10 920.34 506.44 1062.43 500.29
00000164 00000147 806.31 117.42 350.80 531.96 894.08 335.84 1048.61 326.13 977.60 423.71 920.43 506.84 1063.51 499.58
00000165 00000148 805.25 118.92 352.53 530.11 893.02 338.20 1046.64 328.10 975.86 427.01 921.08 509.11 1061.82 501.56
00000166 00000149 804.34 120.46 351.95 532.63 891.06 342.97 1045.05 332.42 973.27 431.40 922.29 514.80 1061.63 506.87
00000167 00000150 802.57 121.51 352.39 538.03 890.21 345.98 1042.72 336.32 972.04 438.61 922.27 520.74 1058.73 513.51
00000168 00000151 800.78 120.64 353.36 544.55 888.51 349.68 1040.62 339.84 969.93 444.96 921.92 526.07 1057.08 518.54
00000169 00000152 800.09 122.75 352.97 544.42 887.25 352.46 1040.69 343.57 968.93 448.04 921.34 529.70 1055.53 522.98
00000170 00000153 800.70 121.26 352.78 545.58 887.81 352.24 1040.71 343.59 969.36 448.58 922.06 530.55 1054.39 524.13
00000171 00000154 802.31 119.97 352.32 545.59 889.58 348.98 1042.62 338.51 972.42 444.16 923.53 530.66 1054.17 523.15
00000172 00000155 804.49 113.66 350.26 555.93 888.96 344.18 1044.21 331.47 971.89 435.56 923.16 534.89 1051.48 526.12
00000173 00000156 805.90 107.41 348.96 568.33 891.31 338.42 1047.25 324.69 978.48 428.47 927.65 542.87 1048.68 533.51
00000174 00000157 805.54 106.95 351.98 562.85 892.95 333.50 1048.58 319.64 982.59 428.19 931.22 538.39 1051.21 528.52
00000175 00000158 807.88 108.91 352.66 548.20 895.83 334.26 1050.67 320.55 984.33 429.12 933.55 527.58 1057.26 517.43
00000176 00000159 809.16 108.52 353.98 542.82 897.69 332.24 1052.04 320.01 985.54 427.48 933.16 521.24 1058.60 512.20
00000177 00000160 811.71 109.24 354.17 541.13 900.93 330.05 1053.87 318.97 987.68 426.00 933.97 518.21 1057.87 510.25
00000178 00000161 817.54 110.30 351.20 538.31 904.67 325.22 1057.34 315.70 989.27 420.62 931.41 511.92 1059.20 505.52
00000179 00000162 820.99 109.25 349.76 535.78 909.53 320.44 1060.10 313.49 992.28 411.64 930.39 503.65 1060.31 499.55
00000180 00000163 821.68 105.90 349.52 528.90 911.66 316.23 1060.51 307.59 992.86 400.01 932.71 493.42 1063.16 487.73
00000181 00000164 821.73 101.84 349.54 528.43 910.93 310.29 1060.79 302.13 991.89 389.51 931.31 485.65 1064.33 480.50
00000182 00000165 821.31 101.63 348.08 527.64 909.21 307.18 1060.29 298.92 988.61 382.99 927.68 482.58 1061.83 477.80
00000183 00000166 820.03 102.99 346.99 527.52 907.35 305.10 1058.64 296.84 985.66 379.97 924.58 482.67 1056.76 478.01
00000184 00000167 817.70 102.39 345.97 530.78 904.83 303.93 1054.53 297.04 980.67 380.36 920.89 480.30 1055.24 476.62
00000185 00000168 817.04 103.67 343.89 535.96 902.40 302.91 1051.19 296.70 975.84 379.88 917.42 480.92 1053.42 477.76
00000186 00000169 817.09 104.43 342.28 539.83 899.89 302.36 1049.36 297.66 971.44 378.52 913.32 481.50 1052.48 479.47
00000187 00000170 815.78 103.80 342.53 540.53 898.37 302.51 1048.71 299.00 970.23 378.59 910.80 480.50 1052.56 479.34
00000188 00000171 815.69 103.77 342.18 539.19 898.01 302.44 1048.80 300.08 969.11 378.82 908.92 479.45 1051.08 479.28
00000189 00000172 816.48 104.29 341.25 534.97 899.28 302.78 1049.11 301.39 969.12 380.61 909.45 478.78 1048.55 479.50
00000190 00000173 816.46 103.83 342.34 527.33 901.76 304.57 1050.56 303.30 972.08 383.11 912.29 478.68 1045.56 479.82
00000191 00000174 817.32 103.99 343.54 523.31 903.74 305.98 1053.77 305.70 976.86 386.77 913.84 479.20 1046.60 481.25
00000192 00000175 818.05 103.90 343.93 520.28 903.85 309.04 1054.68 305.49 978.57 389.07 917.56 480.99 1051.13 480.20
00000193 00000176 818.27 104.76 343.08 519.37 904.20 310.48 1054.47 307.04 979.16 392.84 917.39 481.35 1052.10 480.51
00000194 00000177 817.43 105.40 342.30 521.26 903.98 312.58 1053.53 309.41 978.70 395.36 916.92 482.61 1053.02 481.93
00000195 00000178 816.28 106.84 342.59 522.00 901.95 314.59 1052.61 310.49 976.81 397.38 914.88 484.20 1053.22 482.76
00000196 00000179 813.61 108.04 343.75 521.15 899.52 316.23 1051.24 311.65 975.07 398.21 913.10 484.71 1052.42 482.82
00000197 00000180 811.32 108.87 344.40 520.89 897.61 316.77 1049.49 312.38 973.82 399.55 913.08 485.70 1050.68 483.80
00000198 00000181 808.54 108.83 346.52 521.22 896.02 317.08 1048.37 313.44 973.40 400.66 912.65 485.90 1049.38 484.42
00000199 00000182 806.78 109.39 345.89 525.95 893.54 318.36 1047.22 315.82 970.56 402.72 910.64 489.09 1049.45 488.26
00000200 00000183 805.74 109.18 344.95 535.46 891.57 319.67 1044.82 317.31 967.39 405.95 910.94 498.88 1045.36 498.47
00000201 00000184 804.99 108.57 344.07 548.06 890.91 322.97 1045.09 320.11 967.76 412.46 909.97 506.26 1048.40 505.38
00000202 00000185 805.04 110.93 342.88 554.81 891.38 325.11 1045.95 322.24 969.43 417.77 908.52 511.44 1049.36 510.69
00000203 00000186 803.91 111.43 344.10 558.68 891.84 327.75 1045.81 324.93 970.94 420.30 909.18 514.69 1050.04 513.88
00000204 00000187 803.69 114.10 343.97 558.18 891.93 330.42 1045.60 326.62 971.11 421.32 910.41 516.06 1051.99 514.37
00000205 00000188 803.80 114.82 344.11 558.41 892.51 332.05 1045.50 327.63 972.37 421.52 911.84 516.81 1053.34 514.55
00000206 00000189 804.40 114.02 343.96 559.79 893.05 332.74 1046.06 328.07 972.97 421.84 912.53 516.71 1054.61 514.14
00000207 00000190 804.83 114.10 344.01 559.14 893.54 332.52 1046.74 327.59 973.48 421.68 912.90 516.31 1055.32 513.54
00000208 00000191 804.68 113.72 344.88 559.55 893.37 331.89 1046.86 326.77 973.51 422.14 912.91 516.07 1055.78 513.07
00000209 00000192 805.46 113.93 344.32 558.33 893.48 330.91 1047.15 325.62 973.16 421.83 912.52 514.72 1056.59 511.55
00000210 00000193 805.57 114.33 344.50 557.77 893.17 330.57 1046.64 324.71 973.24 421.39 912.31 514.09 1057.10 510.35
00000211 00000194 805.40 113.71 344.38 557.84 892.61 329.98 1046.46 324.47 972.43 420.79 911.92 513.18 1057.48 509.60
00000212 00000195 804.70 113.58 344.26 557.97 891.56 329.47 1045.63 323.79 971.04 419.15 910.97 512.21 1057.38 508.44
00000213 00000196 804.15 114.22 344.25 555.69 890.20 329.61 1045.16 324.17 969.83 420.18 910.08 512.49 1056.19 508.91
00000214 00000197 801.53 114.07 347.82 548.65 888.01 333.30 1043.79 327.14 969.45 422.34 912.95 512.67 1056.68 508.29
00000215 00000198 800.75 115.54 348.57 541.42 888.50 335.23 1042.93 329.88 969.39 424.86 914.04 512.31 1053.35 508.84
00000216 00000199 800.05 115.35 349.41 540.46 888.52 336.37 1042.15 330.24 969.96 425.46 916.15 513.88 1052.05 509.78
00000217 00000200 798.55 115.58 350.15 543.07 888.29 338.58 1040.40 331.14 970.48 428.07 919.36 520.75 1047.46 516.01
00000218 00000201 795.68 113.69 351.41 546.47 888.85 339.46 1039.69 331.88 973.32 432.02 923.11 529.25 1041.93 524.61
00000219 00000202 795.76 114.39 352.81 545.00 887.78 341.04 1040.31 332.44 973.56 432.87 923.08 528.67 1045.22 522.92
00000220 00000203 795.99 114.22 353.69 545.67 888.08 339.96 1040.01 331.40 973.21 432.53 923.48 527.70 1045.74 521.87
00000221 00000204 797.88 114.25 351.76 545.10 888.16 337.67 1040.95 329.04 971.54 429.32 921.55 524.93 1045.70 519.18
00000222 00000205 800.38 115.37 350.63 542.98 888.95 336.52 1041.17 329.11 969.71 426.70 919.05 518.33 1048.96 513.39
00000223 00000206 802.17 115.68 350.36 539.31 889.91 335.90 1043.64 328.47 971.21 425.37 918.88 514.95 1052.98 509.89
00000224 00000207 804.85 116.44 349.39 533.79 890.99 334.59 1045.22 326.59 972.25 423.56 918.84 510.19 1055.86 504.62
00000225 00000208 806.49 115.94 349.60 531.81 893.23 333.19 1046.37 325.56 974.22 422.70 919.53 507.53 1056.11 502.33
00000226 00000209 807.92 116.96 349.01 531.50 894.95 333.76 1047.08 325.67 975.77 423.23 922.06 508.44 1056.61 503.02
00000227 00000210 808.30 118.23 349.85 530.61 896.29 334.84 1047.71 325.61 978.24 422.84 924.85 510.13 1057.38 503.98
00000228 00000211 808.83 118.81 348.03 530.18 898.28 339.22 1047.74 330.62 979.83 426.17 926.73 512.35 1057.25 506.75
00000229 00000212 807.97 118.72 348.17 530.15 899.17 340.14 1047.94 331.46 981.18 428.09 928.11 514.47 1055.34 508.88
00000230 00000213 806.08 118.95 350.67 530.65 897.91 340.41 1046.47 331.56 979.90 431.28 927.63 516.75 1052.78 510.96
00000231 00000214 803.58 118.84 350.45 532.68 895.58 342.14 1044.74 332.76 977.91 433.55 927.69 520.42 1050.73 514.13
00000232 00000215 801.08 119.54 349.97 536.03 892.45 344.20 1042.13 332.41 976.83 435.32 930.09 528.84 1048.55 520.79
00000233 00000216 800.47 117.48 349.79 547.50 889.97 341.92 1040.07 331.08 973.70 430.89 924.09 528.95 1047.01 521.68
00000234 00000217 801.83 115.31 348.66 555.64 890.08 340.18 1040.86 329.90 972.69 427.66 920.64 526.40 1050.31 519.36
00000235 00000218 802.63 114.78 346.72 559.31 890.22 337.76 1041.54 328.89 971.93 424.85 917.81 524.14 1051.47 518.20
00000236 00000219 802.60 114.12 346.61 559.31 890.23 335.81 1042.12 327.70 971.82 423.17 917.17 521.56 1053.36 516.01
00000237 00000220 802.08 113.73 347.47 556.70 889.69 334.80 1042.03 326.99 971.38 423.40 917.43 519.41 1054.36 513.93
00000238 00000221 800.73 114.70 350.35 547.48 889.31 334.20 1041.55 326.71 971.07 423.82 918.31 514.45 1055.66 508.86
00000239 00000222 800.22 114.53 351.98 539.62 888.50 334.96 1041.90 328.12 970.30 423.15 916.93 510.17 1055.43 505.03
00000240 00000223 799.88 115.00 351.27 536.59 887.89 334.58 1041.53 328.46 968.87 422.02 915.37 507.88 1053.90 503.46
00000241 00000224 798.59 113.47 350.17 539.01 885.63 334.89 1040.54 328.24 967.19 422.15 913.58 509.32 1053.54 504.47
00000242 00000225 795.96 114.61 350.07 539.78 883.59 335.46 1038.49 328.80 965.34 423.33 912.15 511.23 1051.93 506.48
00000243 00000226 793.23 115.43 351.39 540.68 882.31 336.66 1036.21 329.90 964.17 424.63 910.40 512.50 1049.78 507.66
00000244 00000227 792.03 115.72 352.42 542.35 880.51 338.07 1034.99 331.01 962.65 424.48 909.69 513.63 1050.51 508.38
00000245 00000228 791.61 116.42 352.79 542.00 879.46 338.25 1034.66 331.23 961.00 424.69 908.40 514.30 1049.44 509.10
00000246 00000229 792.41 116.81 351.18 540.35 880.57 338.45 1035.61 332.12 962.50 425.35 909.15 514.48 1048.53 510.02
00000247 00000230 793.59 117.12 350.48 539.18 881.63 338.03 1036.60 332.24 963.39 424.90 910.00 513.84 1048.36 510.01
00000248 00000231 795.05 116.41 348.95 539.60 882.71 338.31 1037.09 332.72 963.76 425.60 910.95 514.39 1047.55 510.82
00000249 00000232 795.48 117.64 347.92 537.20 882.81 338.83 1037.25 333.52 963.74 424.82 911.15 514.40 1046.57 511.19
00000250 00000233 794.72 117.82 347.93 535.59 882.16 338.90 1036.62 333.96 963.02 425.96 910.45 514.36 1045.08 511.48
00000251 00000234 793.00 118.91 348.66 534.36 881.47 339.63 1035.49 334.91 962.73 426.78 910.37 515.03 1043.79 512.28
00000252 00000235 792.18 118.65 348.94 537.41 880.47 341.92 1033.26 336.07 961.69 428.72 911.76 518.71 1042.74 515.06
00000253 00000236 790.86 118.31 349.50 541.56 878.81 343.14 1030.87 335.44 960.81 430.10 912.94 523.98 1040.94 518.93
00000254 00000237 788.60 117.04 351.17 543.44 878.18 343.01 1029.44 335.46 960.66 432.51 913.67 525.74 1039.85 520.63
00000255 00000238 787.97 116.92 351.13 546.29 877.62 343.58 1027.88 335.35 959.97 432.78 913.06 527.60 1039.10 521.92
00000256 00000239 788.06 115.44 350.53 552.45 877.09 343.08 1026.86 334.39 958.55 431.45 912.15 529.21 1038.76 523.14
00000257 00000240 788.67 113.47 350.22 559.95 877.35 342.13 1027.68 333.56 957.91 430.23 910.72 530.51 1039.41 524.51
00000258 00000241 789.80 112.31 348.77 565.06 876.64 340.68 1027.56 331.39 956.88 427.57 909.92 531.96 1039.85 525.46
00000259 00000242 790.78 111.72 347.12 569.25 876.56 339.69 1026.77 330.09 956.40 425.23 909.82 533.28 1039.34 526.57
00000260 00000243 790.68 111.81 347.16 570.12 876.25 339.03 1026.72 330.03 955.83 425.00 909.17 533.43 1038.70 527.20
00000261 00000244 790.59 111.45 346.94 570.53 875.76 339.29 1026.44 330.16 955.05 424.66 908.72 533.41 1038.61 527.06
00000262 00000245 789.47 112.11 348.21 565.46 875.50 339.58 1026.64 331.35 954.71 425.33 908.03 530.73 1038.54 525.04
00000263 00000246 787.51 113.13 350.58 561.45 874.74 341.48 1025.38 332.75 954.33 427.88 908.62 531.26 1037.38 525.12
00000264 00000247 786.72 113.46 351.77 558.70 874.54 342.40 1025.41 333.88 954.75 429.53 909.12 532.03 1035.91 526.18
00000265 00000248 785.48 113.35 352.04 557.73 874.39 342.95 1024.56 334.55 954.82 430.89 909.62 532.61 1034.34 526.85
00000266 00000249 783.42 112.10 352.50 560.55 874.37 344.14 1023.98 335.75 956.18 432.74 910.55 535.52 1032.67 529.79
00000267 00000250 781.87 112.67 351.32 560.71 873.97 346.54 1021.82 337.56 956.57 435.30 912.38 540.82 1028.24 535.03
00000268 00000251 780.33 112.07 350.61 561.53 872.68 349.04 1019.63 340.42 955.03 436.14 912.51 544.52 1024.17 539.11
00000269 00000252 779.36 114.13 350.18 560.92 870.44 351.36 1017.34 343.45 951.02 438.77 908.76 547.44 1018.80 542.84
00000270 00000253 777.94 116.46 352.06 562.15 867.87 352.93 1014.67 346.28 946.63 440.70 903.94 548.55 1014.00 545.00
00000271 00000254 778.90 119.77 351.94 566.86 865.51 353.24 1012.28 349.01 941.05 444.62 898.39 551.57 1009.20 550.05
00000272 00000255 780.56 122.92 350.63 571.04 865.23 356.56 1012.22 353.16 940.25 449.95 896.07 553.91 1010.00 552.95
00000273 00000256 782.50 123.81 350.94 576.49 864.81 358.20 1011.44 354.94 938.18 452.81 895.11 556.29 1011.90 555.10
00000274 00000257 784.33 126.67 352.37 574.25 865.70 358.99 1013.10 355.10 938.65 453.84 895.23 555.21 1015.23 553.43
00000275 00000258 787.34 123.92 350.89 572.39 868.76 358.31 1017.18 354.34 941.49 453.89 897.47 551.50 1019.77 549.63
00000276 00000259 790.88 123.28 350.39 567.94 874.40 355.37 1022.80 351.54 947.40 450.74 902.03 548.88 1023.01 547.43
00000277 00000260 794.72 117.31 350.22 570.35 878.51 352.93 1029.42 347.56 952.82 448.20 907.52 547.54 1030.36 544.92
00000278 00000261 797.55 115.71 349.09 566.80 883.11 351.64 1035.41 345.09 960.77 446.84 913.61 546.63 1034.75 543.16
00000279 00000262 799.51 116.02 349.65 561.66 886.80 351.32 1040.08 344.22 967.87 446.71 919.33 545.53 1040.03 541.45
00000280 00000263 800.52 118.80 350.66 551.73 889.03 351.14 1044.16 343.57 973.13 448.11 924.76 542.84 1045.90 538.27
00000281 00000264 801.40 119.38 350.37 548.34 891.13 351.66 1045.75 342.65 977.51 449.59 929.12 542.34 1049.85 536.50
00000282 00000265 800.74 121.45 350.97 544.27 891.05 353.30 1046.47 343.09 978.57 449.46 930.75 542.43 1052.08 535.49
00000283 00000266 799.89 123.03 351.84 543.10 890.76 354.84 1046.39 344.34 978.44 451.46 931.38 542.95 1053.39 535.62
00000284 00000267 799.60 123.87 351.78 545.04 890.17 357.53 1045.31 348.88 976.74 454.75 929.50 544.10 1052.21 538.17
00000285 00000268 797.95 122.72 352.46 555.10 888.07 360.03 1040.86 350.82 972.16 456.68 928.15 552.29 1045.28 546.04
00000286 00000269 798.05 126.45 351.44 565.57 889.16 362.87 1038.55 351.75 972.62 457.72 927.03 559.14 1042.49 551.68
00000287 00000270 801.18 126.10 349.88 574.40 890.28 360.13 1041.68 350.98 970.99 460.21 922.02 557.23 1046.29 551.12
00000288 00000271 801.39 122.20 350.03 566.65 889.95 355.45 1044.79 348.17 971.26 452.90 919.07 548.08 1047.40 543.55
00000289 00000272 802.41 119.19 349.28 555.89 889.95 350.86 1044.77 344.51 971.36 447.24 918.81 537.97 1047.23 534.33
00000290 00000273 802.39 116.88 350.46 553.41 889.37 347.47 1043.22 340.27 970.43 445.33 919.52 533.40 1048.21 528.91
00000291 00000274 799.81 114.97 350.43 554.80 885.27 347.92 1040.53 340.09 966.69 442.65 917.33 533.27 1046.89 528.01
00000292 00000275 798.26 114.76 350.51 555.17 881.34 348.21 1035.64 339.40 961.66 443.58 915.23 534.23 1044.11 527.90
00000293 00000276 796.27 113.85 350.30 557.32 880.34 347.72 1033.13 339.20 960.16 442.78 914.43 536.09 1039.74 530.23
00000294 00000277 797.22 112.54 348.58 560.60 882.99 346.33 1033.45 338.64 961.30 442.01 915.29 540.27 1033.65 535.93
00000295 00000278 799.25 112.13 345.68 559.57 886.31 342.10 1037.17 335.28 965.13 434.31 916.84 543.94 1027.52 541.14
00000296 00000279 803.65 106.53 346.28 559.54 893.18 335.74 1043.62 329.75 975.61 429.69 924.54 539.30 1032.68 536.98
00000297 00000280 811.69 105.31 343.76 553.42 898.85 325.48 1048.04 319.69 979.62 422.10 928.94 526.78 1035.97 523.71
00000298 00000281 818.01 104.29 342.71 551.78 904.85 320.58 1052.98 314.95 984.32 414.50 930.11 520.52 1039.73 517.53
00000299 00000282 821.56 105.35 343.13 550.16 910.05 318.05 1056.83 313.12 988.28 406.37 929.07 513.42 1045.31 511.10
00000300 00000283 824.00 108.08 343.99 546.40 908.16 318.74 1057.34 312.48 984.64 403.09 925.18 507.92 1052.26 504.96
00000301 00000284 824.29 108.30 344.43 545.91 906.82 318.89 1057.31 312.78 981.73 403.26 921.87 504.38 1054.58 501.64
00000302 00000285 823.26 107.99 345.84 543.32 905.37 319.60 1055.76 313.46 978.89 403.95 919.61 500.93 1054.20 498.13
00000303 00000286 823.23 108.95 345.72 540.52 904.57 320.37 1054.79 314.04 977.49 404.64 918.84 499.56 1054.18 496.63
00000304 00000287 822.32 108.42 346.38 541.43 904.02 321.43 1054.38 315.08 976.96 406.49 918.81 500.44 1054.48 497.44
00000305 00000288 821.77 107.93 346.99 539.63 903.93 322.68 1055.06 316.47 978.03 406.76 920.61 501.12 1055.78 498.09
00000306 00000289 820.53 108.37 348.26 534.76 903.20 323.09 1054.65 317.75 978.18 408.54 921.54 498.38 1057.81 495.54
00000307 00000290 819.19 109.26 349.25 533.14 903.24 323.52 1054.49 318.94 978.59 410.03 921.18 497.78 1058.27 495.58
00000308 00000291 817.14 108.79 349.79 537.36 901.54 324.67 1053.99 319.03 978.59 413.25 922.13 502.35 1057.65 499.23
00000309 00000292 814.25 110.13 349.80 540.59 900.83 327.56 1051.85 319.55 980.04 419.58 925.47 509.88 1053.82 504.81
00000310 00000293 812.03 110.46 349.64 541.49 898.37 329.00 1050.11 319.94 979.25 421.88 927.02 515.72 1050.29 509.78
00000311 00000294 810.44 110.11 349.07 541.83 897.66 329.46 1049.26 321.17 978.18 422.83 925.77 516.40 1048.03 511.21
00000312 00000295 809.81 110.19 349.33 539.57 897.52 329.96 1049.35 322.25 978.63 423.03 925.94 516.03 1047.77 511.23
00000313 00000296 809.93 109.97 348.77 536.68 897.72 329.00 1048.86 321.81 978.19 421.81 926.36 514.63 1045.78 510.28
00000314 00000297 808.71 109.07 349.88 536.55 898.20 328.16 1048.80 322.47 978.16 422.88 926.48 513.36 1044.25 509.94
00000315 00000298 808.63 109.08 349.25 540.59 897.77 330.88 1048.45 325.17 978.50 424.00 924.89 515.56 1046.63 512.18
00000316 00000299 807.51 107.56 349.54 550.00 897.34 332.91 1049.28 326.36 979.72 424.77 923.85 523.72 1044.09 520.21
00000317 00000300 807.26 106.73 349.38 558.42 895.22 333.75 1049.54 327.81 978.25 426.59 921.14 527.70 1045.82 524.71
00000318 00000301 806.69 105.21 348.87 564.12 895.32 333.55 1049.76 328.03 978.57 427.05 920.82 531.10 1044.46 528.52
00000319 00000302 806.57 105.77 347.84 563.74 895.01 334.71 1049.37 328.67 979.37 428.69 923.11 536.32 1041.31 533.71
00000320 00000303 803.76 105.91 350.11 556.76 895.00 336.72 1049.35 329.92 980.48 429.07 926.32 534.89 1041.97 531.48
00000321 00000304 803.95 106.47 353.56 550.38 892.93 336.79 1051.10 328.96 979.77 429.76 925.97 528.53 1050.66 523.40
00000322 00000305 803.20 107.45 353.85 548.64 892.35 336.81 1049.75 328.58 978.99 430.36 925.61 528.03 1049.50 522.58
00000323 00000306 802.94 107.29 354.12 548.98 890.75 336.71 1048.75 328.45 977.02 430.06 923.71 527.90 1048.92 522.46
00000324 00000307 801.72 107.49 353.18 552.45 889.83 335.94 1047.24 327.43 975.24 430.23 921.67 530.71 1044.14 525.44
00000325 00000308 800.84 105.88 352.63 556.74 889.00 337.13 1046.09 329.88 973.32 429.92 919.75 530.83 1044.44 526.46
00000326 00000309 800.15 107.05 351.71 559.81 887.07 338.55 1044.54 330.93 970.59 429.53 917.09 530.70 1046.03 525.88
00000327 00000310 799.98 108.82 350.41 559.07 884.31 341.56 1042.36 332.55 966.36 430.22 915.02 531.52 1045.66 525.59
00000328 00000311 797.81 110.66 350.65 557.96 881.45 343.63 1040.19 333.03 963.92 433.69 913.53 534.25 1043.49 527.15
00000329 00000312 795.45 110.17 351.70 562.54 879.14 346.24 1034.93 334.02 961.89 436.26 914.90 539.07 1041.57 530.44
00000330 00000313 791.77 111.34 352.89 564.42 877.84 349.26 1031.01 335.74 962.38 438.58 916.34 543.11 1040.09 533.29
00000331 00000314 788.20 114.84 355.06 563.39 875.64 354.61 1028.15 339.98 962.06 441.18 917.76 547.75 1039.34 536.99
00000332 00000315 782.03 119.47 359.76 568.18 872.26 361.95 1023.42 345.21 959.63 447.94 919.01 555.19 1039.94 542.07
00000333 00000316 781.37 125.48 357.45 577.76 870.61 371.13 1020.00 348.36 960.87 456.14 923.05 570.75 1040.60 552.95
00000334 00000317 780.30 125.50 358.77 578.42 870.88 373.20 1020.77 349.27 964.47 456.56 926.59 575.88 1040.40 557.26
00000335 00000318 780.42 124.15 360.54 564.08 872.54 365.98 1026.40 348.69 963.13 455.15 921.95 562.37 1040.42 549.00
00000336 00000319 786.07 120.60 358.75 553.67 875.95 356.65 1033.41 343.32 966.44 450.19 922.14 552.00 1044.31 541.77
00000337 00000320 790.73 116.32 357.11 551.74 878.81 350.53 1037.24 335.05 969.94 445.43 923.72 543.81 1049.76 531.88
00000338 00000321 792.49 114.85 357.42 550.13 882.23 346.85 1040.16 333.79 972.19 444.64 923.51 539.45 1048.15 529.88
00000339 00000322 794.50 115.74 357.65 551.03 883.66 347.52 1039.85 336.32 971.19 446.87 923.63 539.84 1046.89 531.79
00000340 00000323 796.82 117.31 356.41 548.91 884.63 350.76 1040.72 341.50 971.52 450.10 924.72 540.18 1048.72 533.58
00000341 00000324 798.24 121.19 357.43 543.47 884.39 354.07 1043.54 345.50 971.32 452.13 924.12 537.29 1055.26 530.85
00000342 00000325 800.58 123.83 354.99 540.59 885.51 354.65 1044.44 347.12 970.29 453.36 923.82 536.72 1054.98 531.19
00000343 00000326 801.05 122.87 354.33 541.78 886.32 353.88 1044.38 346.20 970.80 452.16 923.62 537.32 1052.99 531.88
00000344 00000327 800.88 120.83 353.57 544.27 887.92 351.94 1043.25 344.91 971.57 449.71 924.76 540.58 1046.72 536.31
00000345 00000328 800.64 120.37 353.42 544.66 888.24 351.47 1042.85 344.25 971.07 448.75 925.00 541.86 1044.60 537.63
00000346 00000329 801.35 121.59 352.34 541.32 888.36 351.17 1041.86 344.09 969.99 448.47 923.80 540.82 1041.77 536.84
00000347 00000330 802.39 122.41 351.19 536.98 889.44 351.64 1042.38 344.86 970.72 448.29 925.53 540.33 1041.82 536.63
00000348 00000331 804.38 124.81 349.64 531.06 890.40 350.62 1042.26 344.53 970.38 447.99 924.83 535.91 1042.29 532.73
00000349 00000332 805.68 122.61 350.12 533.98 891.84 348.18 1043.28 342.97 970.66 446.66 922.79 531.88 1042.90 529.37
00000350 00000333 804.89 118.03 351.04 543.31 891.66 344.58 1043.50 339.67 970.54 441.56 920.24 532.23 1040.62 530.24
00000351 00000334 806.44 112.81 350.49 558.31 892.61 341.51 1045.86 334.58 972.83 434.44 919.94 537.16 1040.99 533.86
00000352 00000335 806.82 110.62 349.94 563.03 892.77 340.54 1047.11 332.07 974.80 432.23 922.12 539.47 1042.75 534.70
00000353 00000336 804.98 110.43 352.16 559.19 891.35 340.41 1045.94 329.80 975.59 432.08 925.44 539.35 1044.76 532.56
00000354 00000337 804.60 111.53 355.42 547.50 890.79 340.98 1046.48 328.50 975.87 433.67 928.13 531.20 1051.82 522.21
00000355 00000338 804.69 112.81 355.81 543.09 891.10 340.00 1046.93 327.92 976.14 432.28 927.26 526.01 1054.39 517.15
00000356 00000339 804.96 113.44 356.92 542.56 890.53 340.01 1047.03 326.81 975.39 431.53 926.56 524.85 1056.12 514.97
00000357 00000340 805.07 113.02 356.01 546.90 890.19 340.44 1044.67 327.66 972.84 431.74 925.20 525.69 1053.67 516.32
00000358 00000341 805.76 114.66 354.13 545.42 889.73 340.56 1044.14 327.22 971.20 430.22 923.82 522.94 1056.00 512.99
00000359 00000342 806.37 115.89 353.61 542.39 889.58 340.78 1044.72 327.75 970.76 430.27 922.71 519.70 1059.07 509.78
00000360 00000343 806.70 117.85 352.20 538.36 888.93 342.47 1044.44 330.33 969.40 433.02 921.33 519.66 1058.48 510.49
00000361 00000344 806.37 119.56 352.22 536.84 888.92 344.60 1043.69 332.83 969.21 437.11 921.10 520.08 1058.79 511.08
00000362 00000345 805.42 119.91 352.53 535.31 886.91 345.65 1042.24 333.84 966.79 437.00 920.09 519.83 1059.22 510.55
00000363 00000346 802.80 119.54 352.87 534.09 883.75 345.38 1040.64 333.48 963.57 436.04 916.52 518.15 1058.28 508.66
00000364 00000347 800.81 119.13 352.41 536.02 881.50 345.23 1037.18 334.48 959.48 435.99 913.84 517.80 1055.02 509.26
00000365 00000348 799.17 118.52 351.86 539.34 878.77 344.93 1034.18 334.76 954.65 436.03 911.37 518.67 1052.01 510.65
00000366 00000349 797.38 119.40 352.50 542.00 877.95 346.30 1032.71 337.73 953.61 438.51 909.61 520.03 1050.09 513.23
00000367 00000350 797.07 119.61 352.60 547.12 877.68 347.82 1031.31 338.93 953.34 439.97 909.87 523.21 1048.85 516.16
00000368 00000351 798.09 119.55 351.53 550.10 879.11 347.42 1032.07 339.36 954.29 440.71 910.43 524.23 1049.13 517.92
00000369 00000352 798.95 118.76 351.25 551.58 880.67 347.26 1034.39 339.79 956.10 441.69 910.63 523.76 1050.87 517.87
00000370 00000353 800.15 118.03 350.27 551.69 882.14 346.42 1036.01 340.03 957.34 441.89 910.78 522.90 1051.47 517.98
00000371 00000354 800.06 118.05 350.59 552.16 882.48 345.82 1037.09 339.30 958.40 440.73 910.97 522.51 1052.84 517.45
00000372 00000355 800.44 118.30 350.75 550.89 883.02 345.11 1037.52 338.26 959.35 439.28 911.23 521.45 1053.57 516.16
00000373 00000356 801.10 117.35 350.26 551.05 883.74 343.87 1038.72 336.81 960.27 436.89 911.90 520.39 1054.91 514.93
00000374 00000357 801.42 116.65 349.86 552.03 884.45 342.55 1040.08 335.47 961.46 434.54 911.66 519.35 1055.98 513.96
00000375 00000358 801.60 117.07 349.55 551.42 884.21 342.04 1039.90 334.45 961.45 433.35 911.95 518.89 1056.57 513.05
00000376 00000359 800.65 117.97 349.84 549.18 883.83 342.37 1039.79 334.87 961.53 433.60 911.62 518.48 1055.95 512.69
00000377 00000360 799.28 119.25 351.09 544.87 883.20 343.57 1038.35 335.48 961.58 436.34 912.06 518.31 1055.34 512.00
00000378 00000361 797.47 118.85 351.26 543.33 882.34 344.80 1037.20 335.93 961.38 436.68 912.78 518.63 1054.63 511.67
00000379 00000362 795.55 119.39 352.21 540.60 881.01 345.87 1034.79 336.54 960.85 437.87 913.41 519.38 1052.38 512.02
00000380 00000363 795.02 120.20 351.54 538.26 880.08 345.80 1033.81 335.37 960.79 436.85 914.50 521.08 1050.47 513.03
00000381 00000364 795.50 119.36 351.18 537.79 880.33 345.25 1033.94 335.24 960.80 436.26 914.41 521.38 1048.51 513.92
00000382 00000365 797.05 119.55 349.90 535.93 882.01 343.82 1036.17 335.84 962.39 434.55 914.32 519.61 1047.84 514.08
00000383 00000366 799.17 120.80 349.01 533.31 883.60 344.10 1037.41 336.79 962.92 435.57 914.88 519.16 1047.28 514.35
00000384 00000367 802.02 120.68 348.14 532.68 886.56 344.09 1039.32 337.40 965.14 437.19 916.86 519.78 1047.80 515.69
00000385 00000368 804.74 121.14 347.34 534.20 889.60 343.99 1041.09 337.59 966.87 437.53 918.83 520.87 1049.11 517.18
00000386 00000369 805.41 119.32 347.13 542.51 891.28 343.99 1042.47 336.69 969.98 437.54 920.16 525.51 1048.61 521.39
00000387 00000370 806.98 118.10 346.81 548.61 892.12 343.34 1042.92 335.27 970.63 436.24 919.82 526.59 1050.12 521.80
00000388 00000371 806.40 118.67 347.77 545.25 891.76 342.72 1043.87 334.39 971.18 435.09 920.19 524.16 1052.44 518.95
00000389 00000372 805.74 117.76 346.92 544.34 889.89 342.37 1042.97 334.12 968.94 433.46 919.08 523.07 1052.18 517.77
00000390 00000373 804.38 117.29 346.99 542.86 888.26 342.83 1041.48 335.10 967.20 433.69 918.54 522.97 1049.73 518.08
00000391 00000374 802.82 117.87 348.24 541.00 887.57 343.10 1040.15 335.60 966.80 434.47 918.87 521.90 1049.73 517.02
00000392 00000375 803.27 118.03 347.32 539.96 887.27 343.78 1039.69 335.53 966.67 434.56 920.25 522.74 1050.08 517.24
00000393 00000376 802.91 118.96 347.77 537.40 887.51 344.04 1039.60 335.72 967.26 435.58 920.51 522.96 1049.14 517.49
00000394 00000377 804.47 119.51 347.71 535.07 888.83 343.38 1040.65 335.97 967.20 434.54 919.82 519.73 1049.96 514.91
00000395 00000378 805.30 118.19 347.97 536.88 890.91 341.66 1040.84 334.27 969.03 433.23 921.59 518.29 1050.40 513.30
00000396 00000379 805.17 118.48 349.48 539.18 891.45 341.60 1040.82 333.63 970.16 433.41 922.37 520.49 1049.96 515.14
00000397 00000380 805.18 115.53 350.05 547.25 891.15 343.70 1041.53 333.67 971.80 435.04 924.51 529.99 1047.67 523.43
00000398 00000381 805.68 114.14 347.29 554.26 893.59 345.54 1041.06 335.71 974.25 437.77 928.67 540.12 1041.04 534.33
00000399 00000382 805.52 114.76 345.66 557.75 895.19 346.90 1039.99 337.82 974.92 440.48 928.89 547.41 1032.79 542.93
00000400 00000383 805.58 115.88 346.01 557.24 895.34 347.71 1040.34 338.35 975.32 444.67 931.62 550.23 1034.47 545.21
00000401 00000384 805.79 116.87 346.48 556.19 895.63 348.71 1040.93 340.00 975.45 445.15 931.65 550.51 1035.26 546.10
00000402 00000385 806.38 117.68 346.18 555.32 895.53 349.02 1041.47 340.05 975.88 445.39 931.17 550.69 1035.91 546.07
00000403 00000386 807.10 118.92 348.13 552.79 894.62 349.04 1043.59 339.43 975.82 443.26 929.47 547.12 1040.92 541.71
00000404 00000387 807.10 119.02 349.70 550.05 894.81 349.52 1045.40 339.44 976.94 443.25 930.78 544.57 1045.93 538.48
00000405 00000388 807.79 118.87 350.48 548.65 895.26 349.44 1046.08 338.58 977.69 443.19 931.60 542.36 1049.43 535.43
00000406 00000389 807.82 118.33 350.86 549.12 895.75 348.96 1045.90 338.33 978.12 443.22 931.51 542.05 1048.51 535.35
00000407 00000390 808.11 117.95 350.93 550.66 896.04 349.10 1046.70 338.56 978.85 442.93 931.60 542.90 1049.03 536.28
00000408 00000391 808.64 117.15 350.78 551.35 896.56 348.85 1047.57 338.73 979.57 442.69 932.03 543.19 1049.28 536.89
00000409 00000392 809.53 116.92 350.34 552.07 896.71 348.85 1047.88 338.19 979.78 442.06 932.71 543.77 1049.89 537.01
00000410 00000393 810.43 118.04 349.74 549.09 897.47 349.18 1048.76 338.08 981.69 441.57 934.00 542.90 1051.58 535.82
00000411 00000394 810.38 116.99 350.74 547.26 897.63 348.88 1048.59 337.37 981.76 442.14 935.11 540.82 1053.05 533.23
00000412 00000395 809.66 117.14 352.10 543.81 896.68 347.35 1050.26 336.40 981.41 441.47 932.87 536.62 1055.27 529.41
00000413 00000396 809.82 117.74 352.24 540.55 896.97 347.52 1050.09 336.26 981.78 442.28 933.52 535.20 1055.13 527.75
00000414 00000397 809.45 116.90 352.11 540.46 896.69 347.64 1049.58 336.23 981.57 443.25 934.33 535.23 1055.30 527.48
00000415 00000398 808.85 116.14 351.87 542.86 896.06 347.17 1048.80 336.18 980.41 443.86 934.45 535.96 1054.89 528.45
00000416 00000399 807.40 115.57 349.95 550.35 896.40 347.69 1045.63 337.27 979.05 443.05 934.35 543.45 1046.10 536.89
00000417 00000400 808.03 115.37 349.39 556.19 894.61 346.38 1045.02 336.43 976.36 440.41 927.16 541.01 1045.43 534.99
00000418 00000401 807.87 115.42 350.49 554.30 893.46 345.50 1046.44 335.47 974.70 440.02 923.86 534.63 1050.77 528.13
00000419 00000402 808.63 117.24 349.57 546.70 892.52 345.36 1046.50 334.16 973.74 438.99 923.58 528.64 1055.11 520.85
00000420 00000403 808.34 119.69 350.39 538.79 891.81 344.60 1046.41 333.77 972.98 437.43 922.64 523.79 1056.19 516.16
00000421 00000404 808.40 120.90 351.16 531.81 891.39 342.99 1047.10 332.99 972.47 435.24 922.41 520.97 1056.55 514.06
00000422 00000405 808.06 121.81 351.62 526.12 891.96 342.86 1047.93 333.31 974.01 435.49 923.13 519.82 1056.02 513.34
00000423 00000406 807.79 121.54 351.63 527.33 891.64 343.13 1047.54 333.46 973.53 435.37 922.78 520.13 1055.69 513.57
00000424 00000407 808.30 122.36 350.73 526.41 891.25 343.22 1047.23 333.80 972.37 435.55 921.92 520.40 1054.89 514.20
00000425 00000408 807.96 122.41 350.90 526.71 890.62 343.37 1046.54 334.02 971.48 436.06 921.19 519.97 1055.10 513.74
00000426 00000409 807.59 121.58 350.55 528.03 889.28 343.98 1045.97 334.63 969.80 437.44 919.52 520.77 1054.73 514.46
00000427 00000410 807.13 122.32 349.73 527.04 888.21 344.44 1044.73 334.96 968.33 438.26 919.07 521.01 1053.74 514.55
00000428 00000411 806.05 122.58 350.43 527.35 886.90 345.29 1043.90 336.11 966.66 440.33 918.52 521.95 1053.00 515.62
00000429 00000412 804.84 121.38 351.29 530.01 885.64 346.88 1042.98 338.47 965.25 443.26 917.92 523.35 1053.26 517.31
00000430 00000413 803.54 120.81 350.71 536.75 885.05 348.78 1040.61 340.83 963.99 445.41 917.79 527.22 1049.97 521.78
00000431 00000414 801.90 117.48 350.71 550.90 883.71 349.54 1036.28 341.13 961.60 446.40 917.68 534.52 1045.11 528.88
00000432 00000415 801.70 116.22 350.03 553.96 881.72 349.33 1034.75 339.59 958.95 445.40 917.17 534.62 1046.24 527.64
00000433 00000416 800.56 117.16 350.91 550.71 880.11 349.49 1033.49 338.28 958.07 444.58 917.60 533.84 1047.30 525.40
00000434 00000417 799.66 117.17 351.61 548.11 879.65 348.78 1032.61 337.42 957.55 442.77 917.48 532.07 1046.53 523.47
00000435 00000418 798.59 117.18 352.57 546.26 879.04 349.25 1032.23 337.60 958.07 442.16 918.28 531.17 1047.32 522.26
00000436 00000419 796.63 116.55 353.50 550.64 878.21 349.14 1030.40 337.12 957.96 442.18 918.48 534.72 1044.70 525.59
00000437 00000420 794.12 114.10 352.95 561.50 877.19 350.28 1027.13 336.47 956.40 440.50 917.62 541.47 1039.40 531.38
00000438 00000421 791.00 112.76 352.22 570.04 875.70 351.98 1022.49 338.71 954.31 439.61 915.52 546.63 1033.10 537.37
00000439 00000422 786.76 116.70 353.82 570.87 872.62 355.85 1018.22 342.88 951.33 442.49 914.03 550.33 1030.58 541.07
00000440 00000423 783.27 120.51 356.97 567.39 868.89 358.96 1016.50 346.13 948.20 445.55 911.17 550.51 1030.58 540.86
00000441 00000424 782.46 122.40 357.87 555.24 868.30 360.20 1018.76 348.64 949.53 447.20 911.26 546.58 1031.94 537.76
00000442 00000425 785.39 124.73 356.53 538.98 869.52 356.69 1023.92 348.45 951.15 446.94 910.50 539.09 1035.08 532.74
00000443 00000426 788.95 123.07 354.36 532.39 872.27 353.71 1028.72 344.42 955.33 441.50 913.56 531.96 1042.04 524.89
00000444 00000427 788.43 121.06 355.15 532.85 872.83 349.22 1027.50 337.66 956.19 439.06 915.70 530.69 1041.13 521.96
00000445 00000428 787.53 118.27 356.02 534.75 872.02 345.80 1025.16 333.74 954.86 433.66 914.23 526.35 1040.86 516.96
00000446 00000429 784.83 115.76 354.14 541.45 871.21 342.48 1022.63 330.48 954.31 428.21 914.09 529.84 1035.26 520.87
00000447 00000430 782.47 112.34 354.69 551.50 870.09 341.26 1019.20 328.04 952.55 425.82 914.13 533.40 1032.73 523.47
00000448 00000431 779.17 108.89 353.27 562.58 868.89 340.62 1015.60 327.80 952.13 425.77 914.36 542.75 1022.20 534.04
00000449 00000432 775.77 107.99 352.96 566.37 866.34 342.69 1012.29 326.17 951.04 423.53 913.39 547.76 1016.32 536.52
00000450 00000433 773.97 109.02 353.89 562.57 863.15 343.73 1010.82 326.72 948.03 424.12 911.35 546.98 1015.21 535.18
00000451 00000434 774.71 110.25 355.26 554.63 862.90 341.53 1011.96 326.29 948.09 423.96 912.13 540.42 1019.42 529.67
00000452 00000435 776.87 112.22 359.22 547.55 863.64 340.05 1014.04 324.81 947.23 420.98 911.70 529.51 1027.98 517.83
00000453 00000436 781.12 112.40 359.80 545.76 865.97 337.72 1015.96 322.53 947.63 418.89 912.63 524.15 1033.39 512.10
00000454 00000437 789.44 112.44 356.25 544.54 871.95 337.03 1020.74 321.39 949.95 417.69 914.15 519.85 1040.79 507.58
00000455 00000438 798.74 112.70 352.21 539.64 876.83 334.80 1029.36 321.25 952.09 419.86 912.98 513.03 1048.37 502.49
00000456 00000439 804.42 111.24 351.42 540.22 883.47 331.37 1036.81 320.39 957.90 418.02 912.95 508.70 1050.88 500.57
00000457 00000440 809.12 113.70 349.39 538.58 888.44 330.38 1041.44 319.75 963.02 415.60 915.17 509.18 1050.50 501.96
00000458 00000441 812.40 113.40 348.57 536.18 892.07 330.03 1045.06 319.19 966.37 414.89 917.00 507.96 1051.19 501.00
00000459 00000442 813.00 114.40 349.78 530.73 893.99 330.28 1046.42 319.58 968.69 415.04 918.08 505.30 1052.33 498.34
00000460 00000443 813.41 114.36 348.82 528.98 893.49 330.01 1046.58 319.29 968.18 415.10 917.75 503.66 1054.05 496.44
00000461 00000444 812.96 114.44 348.31 528.60 893.65 329.59 1046.23 318.93 968.90 414.84 917.68 502.30 1054.84 494.94
00000462 00000445 813.20 113.16 347.58 533.19 893.34 327.96 1045.27 316.72 968.20 412.63 916.39 502.09 1054.18 494.47
00000463 00000446 812.65 110.42 348.65 538.50 891.24 326.41 1042.64 312.88 965.78 408.95 917.49 502.97 1055.09 493.29
00000464 00000447 810.34 109.66 349.75 539.75 889.30 325.54 1040.57 310.93 964.17 405.34 917.52 504.21 1053.13 493.63
00000465 00000448 809.45 110.54 349.60 537.87 888.40 325.98 1039.29 311.41 963.45 405.44 917.30 504.15 1052.02 493.55
00000466 00000449 809.24 111.33 350.06 535.98 888.07 328.24 1038.83 312.63 963.77 408.67 918.88 504.65 1053.42 492.95
00000467 00000450 808.34 111.17 351.34 535.06 888.55 328.07 1040.78 314.47 965.07 410.28 917.66 502.26 1056.00 491.92
00000468 00000451 808.61 113.27 351.74 533.80 889.34 330.02 1041.61 316.27 966.50 413.15 918.65 504.19 1056.66 493.76
00000469 00000452 809.74 113.81 350.04 534.43 890.70 331.15 1043.36 318.56 967.87 415.63 918.89 506.21 1056.15 496.96
00000470 00000453 809.97 115.57 349.89 534.63 892.43 333.05 1044.68 321.57 970.26 419.00 920.26 508.86 1055.79 500.70
00000471 00000454 810.43 116.18 348.71 536.54 893.39 334.10 1045.06 322.95 971.42 420.54 921.20 510.46 1056.61 502.59
00000472 00000455 810.44 117.16 347.88 537.48 893.87 334.73 1046.04 324.13 972.22 421.83 920.75 511.32 1057.75 503.92
00000473 00000456 809.61 116.74 348.59 538.11 893.37 334.83 1046.41 324.85 972.02 422.36 919.33 510.42 1058.54 503.39
00000474 00000457 808.45 116.68 348.79 537.89 891.95 335.35 1045.74 325.55 970.91 423.44 918.12 510.11 1059.23 503.02
00000475 00000458 807.65 115.42 348.35 539.80 890.38 336.21 1045.14 326.76 969.15 423.28 916.80 510.42 1059.90 503.46
00000476 00000459 806.56 115.02 348.09 541.73 889.12 336.44 1044.24 327.34 967.76 423.56 915.87 511.32 1059.16 504.60
00000477 00000460 805.56 116.62 349.14 542.74 888.31 338.26 1043.11 328.66 966.69 426.12 915.95 514.08 1058.20 507.02
00000478 00000461 805.76 118.03 349.02 544.59 887.30 342.20 1042.31 333.12 964.47 429.46 916.16 518.50 1056.94 511.87
00000479 00000462 807.19 118.79 347.71 546.33 888.37 344.76 1043.70 335.89 966.19 433.04 916.79 522.34 1056.05 516.07
CROP_BBOX: 552 0 1395 824
