Video ID: 	quytFBVK_h8
H: 	1080
W: 	1920
FPS: 	25.0

FRAME INDEX X0 Y0 W H [Landmarks (5 Points)]

00003468 00000000 594.36 158.84 478.74 696.42 830.57 459.76 1018.53 472.58 962.09 622.32 810.40 699.63 949.99 712.20
00003469 DELETE   604.97 170.77 479.46 685.89 837.72 463.80 1026.37 474.73 966.24 620.82 823.09 704.00 954.24 715.49
00003470 00000002 616.28 169.82 478.31 689.76 853.24 464.91 1038.87 473.75 979.07 621.93 842.42 710.66 964.30 720.42
00003471 00000003 632.44 176.40 470.80 682.26 859.81 469.23 1043.95 480.51 983.83 625.18 854.81 718.24 975.25 729.33
00003472 00000004 631.85 189.01 478.27 672.50 859.83 476.32 1046.53 488.44 985.16 628.92 851.90 718.13 977.77 730.07
00003473 00000005 635.60 186.46 476.27 677.15 860.31 480.42 1046.63 492.00 985.14 631.61 849.98 717.50 980.05 729.09
00003474 00000006 631.99 184.40 478.84 680.27 860.87 478.64 1046.23 489.84 986.22 629.72 849.32 716.45 978.44 727.88
00003475 00000007 628.01 185.85 481.75 677.63 860.11 473.05 1045.50 484.26 986.72 626.68 847.37 712.16 976.15 723.91
00003476 00000008 625.67 181.76 480.93 681.90 859.91 471.65 1042.78 480.65 987.03 625.70 843.41 709.02 972.75 719.50
00003477 00000009 622.68 175.64 480.07 691.40 858.18 470.74 1040.49 479.36 987.21 624.06 841.01 707.68 972.59 717.92
00003478 00000010 619.89 173.40 478.71 694.13 857.74 469.31 1039.38 478.18 988.39 625.93 840.34 711.28 969.49 721.81
00003479 00000011 619.62 167.48 476.62 701.10 858.13 466.86 1039.48 476.66 990.12 624.13 839.61 713.15 968.24 724.33
00003480 00000012 618.17 164.80 476.13 703.89 860.13 461.68 1040.32 472.87 992.63 621.28 838.75 708.93 969.12 721.12
00003481 00000013 614.27 161.68 477.81 706.55 858.57 458.86 1038.08 471.33 991.70 617.04 837.98 705.96 967.71 719.08
00003482 00000014 612.11 158.06 476.21 707.69 858.17 455.41 1035.69 467.65 992.43 611.99 838.59 701.84 968.57 714.40
00003483 00000015 611.25 158.23 474.42 704.83 857.78 451.09 1033.90 463.86 991.57 608.08 838.76 697.82 968.42 710.63
00003484 00000016 610.80 154.73 472.75 707.26 856.47 450.77 1032.12 461.18 990.78 605.50 839.23 696.58 968.67 707.49
00003485 00000017 612.13 152.87 471.04 707.10 856.93 449.88 1032.78 460.11 990.49 603.85 839.30 694.58 969.12 705.25
00003486 00000018 612.81 148.92 470.72 711.83 857.00 450.63 1032.85 459.99 990.47 604.06 838.84 694.45 969.94 704.29
00003487 00000019 614.71 150.21 470.38 712.92 857.01 453.24 1033.18 463.08 990.37 606.97 838.35 696.75 970.93 706.99
00003488 00000020 615.52 157.02 472.24 710.53 857.14 458.11 1034.16 468.84 990.07 612.82 837.83 702.67 968.44 714.00
00003489 00000021 618.24 159.29 474.36 714.43 857.73 461.81 1038.01 471.99 990.78 618.16 835.27 707.33 969.00 718.57
00003490 00000022 621.39 161.80 474.86 712.84 857.52 469.44 1039.25 475.95 990.99 624.82 835.59 712.27 971.62 720.73
00003491 00000023 626.26 175.16 472.75 695.16 856.51 473.99 1038.84 481.74 986.71 626.91 842.36 715.69 974.74 724.88
00003492 00000024 628.95 180.55 473.59 687.55 855.37 477.30 1040.72 484.69 984.06 629.09 845.13 719.19 976.99 727.95
00003493 00000025 631.20 182.82 475.76 685.01 857.56 477.71 1043.27 488.39 983.22 632.68 841.22 718.95 973.97 730.52
00003494 00000026 631.10 188.86 479.69 682.51 859.24 476.19 1044.31 490.22 985.07 631.63 840.91 716.99 974.24 731.30
00003495 00000027 626.16 180.09 484.96 699.23 870.08 474.76 1046.81 494.82 994.03 637.11 839.22 718.76 968.71 737.52
00003496 00000028 635.20 184.97 483.11 690.94 868.09 476.78 1049.66 495.74 991.22 635.06 846.98 719.00 977.30 737.18
00003497 00000029 638.00 183.83 479.37 688.44 867.70 476.53 1050.45 491.73 991.93 632.58 855.86 720.83 983.26 735.50
00003498 00000030 637.79 181.24 477.60 685.50 864.87 476.00 1048.98 488.79 988.91 629.73 853.28 719.63 979.94 732.40
00003499 00000031 632.93 186.59 480.13 676.04 858.74 473.91 1047.49 485.08 985.08 629.67 846.60 716.65 976.83 728.54
00003500 00000032 628.75 180.89 480.22 686.78 859.84 473.61 1043.96 486.22 984.04 632.44 835.80 714.35 968.35 727.94
00003501 00000033 626.45 176.50 480.03 696.24 859.14 473.92 1041.62 487.86 984.72 632.01 829.86 713.38 966.53 728.19
00003502 00000034 615.20 176.08 485.92 703.35 863.95 470.19 1036.99 489.47 986.23 635.39 829.53 713.60 960.16 731.80
00003503 00000035 615.78 178.19 484.33 701.15 861.08 472.64 1037.31 489.35 985.05 635.88 834.25 717.90 963.76 733.82
00003504 00000036 624.41 181.37 478.89 695.54 854.44 481.39 1039.64 491.55 982.69 634.54 839.68 723.03 973.92 734.25
00003505 00000037 620.50 178.58 482.14 700.23 862.11 482.15 1042.37 496.28 987.78 644.52 841.64 726.78 970.30 740.46
00003506 00000038 624.63 184.90 478.88 696.33 865.16 483.51 1043.15 500.92 989.33 643.95 845.19 726.55 971.67 742.92
00003507 00000039 633.19 189.24 478.13 687.03 861.29 490.32 1044.15 502.97 986.31 644.26 840.44 720.21 979.09 733.34
00003508 00000040 635.09 180.26 476.49 693.21 861.40 487.21 1044.34 499.47 987.39 638.20 834.28 708.31 980.59 721.55
00003509 00000041 635.42 178.18 477.64 694.45 863.82 483.70 1045.48 499.04 989.08 637.78 833.46 706.26 979.20 722.06
00003510 00000042 635.58 182.80 476.48 694.17 861.94 484.71 1044.72 502.66 987.28 640.33 830.84 710.59 977.35 728.62
00003511 00000043 626.38 185.20 479.61 700.04 866.56 485.39 1041.51 504.72 991.17 645.22 827.65 714.87 968.25 734.26
00003512 00000044 620.05 196.50 482.54 690.27 862.41 493.53 1037.81 507.03 987.03 652.37 828.96 725.56 964.25 740.24
00003513 00000045 612.29 204.22 481.64 685.43 851.16 508.92 1032.21 515.39 975.56 666.29 812.84 733.50 953.42 743.63
00003514 00000046 609.30 215.10 480.90 681.55 847.20 516.18 1028.73 523.98 971.41 677.53 808.17 741.23 948.37 752.46
00003515 00000047 600.51 212.95 483.90 685.24 838.61 521.88 1025.15 524.78 966.81 681.22 798.06 742.40 946.14 749.86
00003516 00000048 598.38 214.46 486.30 677.09 832.54 518.86 1026.84 518.83 965.27 677.93 801.27 745.32 950.12 749.77
00003517 00000049 600.23 211.20 486.37 680.61 835.16 513.71 1027.88 513.89 968.06 670.72 811.34 744.93 956.42 748.93
00003518 00000050 606.61 203.05 482.82 687.89 838.95 509.40 1030.21 512.17 967.90 665.15 817.58 742.42 959.74 748.18
00003519 00000051 609.88 198.10 483.14 685.97 844.55 508.20 1033.25 510.58 971.35 664.77 822.01 739.34 961.05 744.69
00003520 00000052 617.10 203.00 480.12 680.22 850.36 510.18 1037.50 509.34 977.10 664.59 834.35 743.17 967.31 745.60
00003521 00000053 621.42 210.87 479.27 679.85 856.35 513.40 1043.43 515.41 983.67 670.82 837.45 749.07 969.12 754.20
00003522 00000054 624.15 222.90 479.73 674.12 861.47 522.96 1045.76 526.86 987.39 679.49 832.26 748.66 968.98 755.89
00003523 00000055 626.61 240.28 476.74 662.29 866.69 531.98 1044.44 535.34 990.99 687.77 831.37 749.39 964.57 757.02
00003524 00000056 626.00 239.30 476.22 662.35 865.58 533.42 1043.31 537.29 989.84 689.16 826.98 745.49 964.74 753.79
00003525 00000057 623.69 232.04 478.16 665.16 861.39 527.16 1042.77 531.10 986.29 681.48 826.03 741.82 967.28 749.90
00003526 00000058 620.31 221.12 481.88 672.54 858.96 518.85 1042.35 522.40 986.13 675.19 824.95 738.17 968.04 746.02
00003527 00000059 621.93 216.28 481.51 673.71 859.64 512.76 1042.29 517.77 987.28 671.69 824.13 733.96 968.00 743.58
00003528 00000060 623.32 216.36 483.63 669.42 861.47 512.17 1044.07 515.42 988.84 668.92 827.71 729.40 972.00 737.57
00003529 00000061 630.14 212.98 480.54 671.99 866.34 511.36 1049.02 517.21 990.83 669.33 835.92 732.98 975.43 742.29
00003530 00000062 636.10 226.90 479.20 660.28 872.46 517.83 1056.42 523.47 997.26 676.42 846.76 745.81 977.59 754.64
00003531 00000063 640.73 232.81 477.39 657.92 875.33 519.46 1059.06 528.24 1000.47 677.84 855.23 749.51 983.03 760.23
00003532 00000064 640.97 232.44 478.21 657.68 878.03 517.09 1059.32 527.19 1002.53 676.08 855.64 748.18 981.29 760.21
00003533 00000065 638.72 229.86 482.24 661.13 879.31 504.20 1067.52 517.20 1007.46 675.13 841.17 739.40 984.00 753.99
00003534 00000066 638.67 218.92 484.98 666.00 877.91 498.51 1066.95 510.87 1005.28 666.55 840.49 733.39 983.76 747.51
00003535 00000067 637.99 210.51 487.90 675.30 877.38 496.45 1066.54 507.90 1005.30 663.01 841.44 731.95 985.55 745.16
00003536 00000068 638.25 211.48 487.24 674.07 878.25 497.18 1066.59 507.16 1006.84 664.46 840.35 730.77 985.40 743.02
00003537 00000069 639.12 208.55 481.86 673.94 876.90 503.62 1061.07 511.10 1004.03 663.34 849.14 732.23 986.22 742.14
00003538 00000070 639.76 210.23 480.30 671.77 876.01 502.11 1060.43 508.87 1004.39 661.39 847.69 729.09 988.46 738.63
00003539 00000071 641.26 205.62 479.03 674.69 875.66 497.60 1059.12 505.85 1003.29 657.31 846.45 721.46 991.57 731.79
00003540 00000072 642.82 201.97 474.62 674.85 876.23 493.48 1057.84 502.04 1005.16 650.77 847.65 715.05 994.62 725.47
00003541 00000073 648.52 193.48 474.26 679.81 873.86 491.25 1057.91 501.47 1002.27 646.48 843.98 709.55 998.14 720.93
00003542 00000074 643.70 201.36 474.19 676.23 875.52 492.70 1056.98 499.58 1006.19 648.71 846.50 712.52 998.02 721.71
00003543 00000075 639.07 202.19 484.53 679.67 877.49 494.74 1062.95 500.34 1008.65 653.30 838.32 719.33 991.58 727.56
00003544 00000076 640.88 203.10 478.34 681.66 877.39 498.15 1057.97 505.24 1006.18 654.20 846.23 720.10 993.56 729.43
00003545 00000077 639.39 206.66 478.11 679.12 875.23 499.42 1056.35 505.05 1004.67 654.28 844.65 719.75 994.44 728.15
00003546 00000078 636.77 204.28 479.42 682.32 872.59 498.89 1053.75 504.77 1002.74 653.61 840.65 720.13 990.35 729.06
00003547 00000079 633.31 200.51 479.22 683.39 868.92 497.17 1050.02 503.26 999.39 651.16 839.44 719.79 987.22 728.77
00003548 DELETE   634.23 196.12 473.89 684.75 867.38 505.80 1050.12 509.86 996.58 653.48 837.92 722.20 986.06 728.87
00003549 00000081 630.52 198.48 476.27 680.88 864.02 507.16 1048.58 512.70 992.87 652.86 834.66 720.35 983.83 728.39
00003550 00000082 628.58 194.21 474.13 684.92 861.99 503.07 1045.04 505.99 993.62 648.17 834.35 720.36 984.60 726.13
00003551 00000083 627.31 195.20 473.47 682.95 859.06 497.92 1040.39 501.10 990.57 644.61 833.17 716.05 984.47 722.17
00003552 00000084 626.72 191.23 473.57 685.24 859.86 494.64 1038.12 499.79 988.30 641.42 834.97 712.24 982.72 719.36
00003553 00000085 635.07 184.65 470.68 696.05 855.63 493.17 1042.30 499.02 984.83 644.30 826.69 708.62 988.49 716.40
00003554 00000086 636.48 182.18 471.19 695.08 856.99 489.47 1042.70 495.00 985.68 642.01 825.97 702.60 987.98 710.58
00003555 00000087 636.86 181.38 470.85 695.97 856.86 488.63 1043.19 495.00 986.58 640.97 825.91 701.18 989.73 709.63
00003556 00000088 636.59 179.91 470.59 697.82 857.96 488.68 1042.62 494.42 986.67 641.11 826.16 701.00 988.44 709.05
00003557 00000089 636.07 183.35 470.39 694.02 854.63 491.93 1041.03 496.08 984.21 642.13 827.46 703.77 991.15 710.01
00003558 00000090 633.64 183.08 470.80 693.29 853.41 489.16 1039.82 491.44 982.37 638.99 828.10 702.95 988.24 707.88
00003559 00000091 631.35 181.52 469.99 692.24 854.28 487.49 1037.70 488.68 982.63 637.18 830.62 702.92 984.11 707.01
00003560 00000092 629.28 181.30 470.19 691.68 854.45 488.44 1036.82 488.20 982.89 636.26 833.45 706.50 981.01 709.46
00003561 00000093 628.96 182.19 470.97 687.22 854.79 488.86 1037.88 488.49 982.45 636.02 836.11 708.15 979.31 711.02
00003562 00000094 632.18 179.57 469.39 689.01 855.64 488.07 1039.31 487.85 983.96 633.34 839.77 707.62 983.07 710.45
00003563 00000095 635.53 180.73 469.02 687.50 857.24 487.24 1043.21 488.50 985.33 634.21 840.51 707.67 985.83 711.72
00003564 00000096 635.36 180.98 471.55 688.21 857.53 487.44 1043.99 490.18 985.60 634.16 837.68 706.86 984.28 712.48
00003565 00000097 635.97 182.77 471.43 690.10 858.99 485.27 1044.45 493.01 987.39 637.78 826.26 698.27 985.95 708.50
00003566 00000098 637.39 184.63 470.71 690.52 859.17 486.72 1044.86 495.71 988.72 639.40 822.19 695.20 989.23 706.48
00003567 00000099 638.65 186.04 471.36 687.73 864.20 486.27 1047.01 497.55 993.33 638.72 827.34 695.90 989.80 708.93
00003568 00000100 641.70 183.60 470.41 686.23 869.16 486.83 1051.51 499.82 998.33 635.19 832.33 691.01 995.59 705.42
00003569 00000101 644.23 179.46 470.71 687.95 874.30 487.26 1053.63 495.70 1003.53 634.26 846.08 698.05 997.92 708.20
00003570 00000102 645.64 177.39 471.63 687.46 873.98 480.40 1054.79 490.57 1002.33 627.74 851.00 698.95 996.03 710.06
00003571 00000103 643.52 175.01 474.67 688.20 873.60 474.27 1056.05 485.30 1003.05 623.49 852.31 696.61 996.95 708.41
00003572 00000104 640.22 173.83 475.61 688.24 871.01 472.11 1052.62 484.25 998.69 619.56 848.66 693.80 992.08 706.69
00003573 00000105 635.15 180.71 476.05 688.73 865.53 475.74 1046.97 486.94 993.39 626.23 838.85 696.99 985.42 709.52
00003574 00000106 631.08 187.75 475.81 691.55 859.40 483.06 1041.90 493.26 988.44 637.44 822.34 698.34 981.53 710.87
00003575 00000107 622.92 187.31 475.94 693.14 863.51 485.55 1036.12 494.16 993.97 637.85 825.69 701.19 978.49 712.30
00003576 00000108 620.52 186.01 477.47 693.90 863.27 484.35 1034.27 491.63 993.53 638.35 823.11 699.07 975.44 709.37
00003577 00000109 627.95 184.13 472.48 691.32 856.90 483.31 1039.98 489.48 989.78 632.61 825.45 701.03 980.47 710.38
00003578 00000110 627.79 181.43 474.90 686.46 858.36 482.04 1040.24 484.86 988.10 624.78 844.84 707.60 980.78 712.90
00003579 00000111 631.17 177.23 474.36 685.56 860.41 477.18 1044.43 480.88 990.18 623.11 852.12 711.14 982.94 716.83
00003580 00000112 632.90 176.30 473.75 683.71 862.18 476.47 1046.21 481.14 991.33 622.93 854.32 712.86 982.34 719.33
00003581 00000113 633.51 175.21 473.88 687.12 861.21 477.18 1044.51 483.87 988.95 622.64 850.89 710.26 981.80 718.42
00003582 00000114 631.30 176.53 475.17 692.84 860.48 477.30 1041.72 486.81 988.21 623.52 842.48 706.46 980.95 716.87
00003583 00000115 629.52 179.49 476.47 693.77 859.30 476.75 1041.00 487.84 987.61 625.12 834.21 703.59 978.81 715.95
00003584 00000116 627.64 179.64 476.45 697.03 859.22 474.77 1040.96 486.73 990.00 627.36 827.95 701.30 978.34 714.69
00003585 00000117 623.72 178.14 478.25 698.55 858.72 469.93 1037.34 481.93 988.85 626.28 826.71 698.00 975.08 711.22
00003586 DELETE   616.47 171.42 481.18 705.19 857.93 465.08 1036.70 479.80 988.86 624.83 823.38 693.88 972.85 709.14
00003587 00000119 616.37 174.68 479.70 697.06 852.23 458.07 1032.16 477.32 979.40 621.73 815.68 686.10 965.92 705.29
00003588 00000120 612.75 168.87 478.29 691.15 847.17 455.96 1022.95 476.49 969.29 616.70 809.88 673.76 960.10 693.67
00003589 00000121 615.50 156.03 474.80 700.80 843.53 451.01 1021.33 476.32 962.22 612.18 807.06 669.11 960.74 691.98
00003590 00000122 612.91 159.70 474.82 698.21 838.65 446.48 1016.88 475.90 955.85 607.86 803.14 669.84 952.86 695.93
00003591 00000123 611.72 158.93 474.97 700.96 836.22 448.66 1015.42 476.93 954.92 609.40 800.63 671.98 952.66 697.04
00003592 DELETE   613.35 160.39 472.74 699.31 836.82 459.82 1019.59 482.00 956.11 614.57 801.06 674.68 956.74 695.20
00003593 DELETE   620.27 160.06 470.17 697.49 839.95 465.67 1024.46 485.27 958.27 617.27 805.44 672.66 963.82 691.01
00003594 DELETE   619.58 156.75 474.66 690.78 840.40 463.95 1029.81 477.99 962.88 610.39 818.97 677.85 970.81 690.66
00003595 00000127 620.39 150.05 473.98 699.09 851.84 456.18 1032.96 472.56 972.75 608.10 830.32 685.14 967.42 699.85
00003596 00000128 617.31 149.90 473.61 694.49 851.00 451.82 1030.45 469.28 973.07 601.89 828.94 678.20 967.58 693.96
00003597 00000129 616.42 145.19 472.30 699.39 849.43 446.32 1028.84 465.13 972.85 599.51 824.78 675.42 965.03 692.83
00003598 00000130 613.45 139.23 470.41 706.61 846.83 444.67 1027.16 462.05 972.53 598.09 822.38 677.06 963.14 693.56
00003599 DELETE   609.52 137.23 470.43 712.17 844.80 445.64 1023.17 463.48 972.42 598.68 816.79 675.85 960.70 692.79
00003600 00000132 606.40 138.78 471.84 710.81 842.52 448.53 1022.97 465.45 971.58 600.83 814.85 677.61 959.48 693.80
00003601 00000133 607.88 144.05 470.77 702.60 841.44 452.19 1023.62 466.19 971.15 603.13 815.35 676.90 963.54 690.37
00003602 00000134 608.85 144.36 469.95 700.84 843.26 451.60 1025.15 465.82 972.69 603.03 818.14 678.20 963.08 691.93
00003603 00000135 613.66 146.37 467.09 704.15 848.24 455.19 1025.78 469.58 975.82 606.49 823.43 681.85 964.28 695.66
00003604 00000136 610.48 151.86 470.86 706.53 849.62 457.42 1027.55 469.98 980.79 609.68 823.47 687.16 963.13 699.71
00003605 00000137 617.02 162.22 468.63 703.69 852.21 463.86 1033.44 472.47 984.58 616.51 825.91 691.84 969.56 701.78
00003606 00000138 619.98 164.68 471.83 707.40 856.48 469.48 1035.95 475.96 989.07 621.77 830.71 701.01 971.51 709.36
00003607 00000139 623.00 174.83 472.14 697.97 858.37 476.49 1034.33 480.92 988.88 626.55 831.75 701.68 972.19 708.71
00003608 00000140 625.52 184.78 474.59 687.82 857.05 478.33 1037.89 482.43 988.83 629.08 829.62 700.52 976.32 707.99
00003609 00000141 628.90 183.91 473.63 689.60 859.61 478.00 1040.56 484.05 989.94 630.16 826.77 697.70 977.29 706.87
00003610 00000142 631.32 181.06 474.19 691.46 862.56 475.23 1042.97 484.05 992.47 628.61 827.60 695.17 979.32 706.59
00003611 00000143 630.88 181.47 479.12 680.22 863.97 474.30 1046.14 478.39 991.29 622.64 846.21 703.61 978.25 710.14
00003612 00000144 634.36 181.87 477.67 679.97 864.62 477.58 1048.06 481.22 993.02 628.21 852.55 710.94 982.36 716.90
00003613 00000145 634.99 182.73 476.25 682.03 863.91 484.36 1046.88 486.75 991.96 634.22 852.28 715.34 982.83 720.12
00003614 00000146 633.82 181.24 476.33 683.97 861.84 486.79 1045.64 487.25 990.80 634.47 846.65 713.42 981.51 717.07
00003615 00000147 630.88 181.94 478.01 684.81 860.37 483.61 1044.84 486.96 990.26 634.64 839.07 708.32 979.99 714.82
00003616 00000148 632.81 179.50 476.25 685.78 861.39 477.84 1044.49 482.41 990.46 628.14 839.36 702.40 980.59 709.77
00003617 00000149 632.17 175.98 474.71 689.92 864.80 474.53 1043.59 478.23 993.68 624.15 839.60 697.01 981.78 703.58
00003618 00000150 632.78 173.58 472.73 692.27 866.56 475.00 1043.64 480.08 995.44 625.71 837.00 693.75 981.83 701.63
00003619 00000151 632.67 173.35 471.54 692.11 866.10 476.40 1043.55 480.01 996.21 625.66 837.77 694.36 983.31 701.01
00003620 00000152 630.97 179.16 472.64 686.70 862.72 479.20 1044.02 480.74 996.83 627.73 836.29 697.37 984.65 702.74
00003621 00000153 632.33 176.59 471.52 692.22 861.53 485.64 1043.50 484.77 994.68 633.52 833.99 699.78 984.49 703.34
00003622 00000154 635.01 172.85 469.74 697.46 863.90 487.26 1044.77 486.46 996.95 634.34 836.63 700.19 988.68 703.35
00003623 00000155 637.49 171.62 469.24 696.99 868.31 485.60 1045.96 485.01 1001.55 632.60 840.91 699.10 990.45 702.50
00003624 00000156 642.82 172.27 467.10 691.58 871.51 480.00 1051.50 481.68 1005.77 626.85 847.06 696.68 995.76 701.60
00003625 00000157 644.51 166.10 470.48 688.99 878.29 474.85 1057.06 479.86 1010.07 619.07 858.23 693.51 998.76 700.40
00003626 00000158 646.90 160.21 473.21 692.55 881.41 467.78 1064.54 475.28 1014.38 616.35 861.38 693.58 1001.91 702.68
00003627 00000159 648.80 153.84 472.56 702.78 890.69 462.99 1067.83 468.76 1024.41 616.79 865.63 691.43 1005.22 699.30
00003628 00000160 648.03 157.05 467.74 704.26 894.53 454.06 1070.82 464.82 1033.21 613.21 856.24 685.51 1002.56 698.00
00003629 00000161 649.29 156.44 466.05 709.52 896.32 454.12 1070.42 464.74 1034.56 618.45 848.16 684.66 998.95 697.75
00003630 00000162 651.98 156.61 464.34 710.93 893.90 458.74 1071.53 465.86 1035.49 623.30 848.27 688.60 1003.60 698.72
00003631 00000163 652.54 159.38 468.71 710.61 891.99 469.61 1067.33 476.85 1028.21 628.31 854.98 691.92 1008.08 701.46
00003632 00000164 649.94 172.31 470.26 692.90 882.77 477.08 1062.54 481.23 1017.59 631.00 853.01 697.38 1002.40 704.54
00003633 00000165 646.21 173.22 471.03 693.11 880.82 477.67 1057.19 482.25 1014.03 630.47 850.16 696.00 997.94 703.53
00003634 00000166 641.80 169.14 470.79 695.55 878.01 473.24 1053.11 479.23 1010.52 625.03 846.30 690.24 994.84 698.72
00003635 00000167 636.36 167.68 471.72 693.15 872.42 466.46 1049.86 472.16 1007.38 616.98 841.40 685.19 991.06 693.51
00003636 00000168 634.31 168.06 470.25 685.93 871.75 464.70 1049.91 468.97 1005.91 616.00 842.46 682.12 990.57 689.46
