Video ID: 	ddQvLc0Xx7g
H: 	1080
W: 	1920
FPS: 	29.97002997002997

FRAME INDEX X0 Y0 W H [Landmarks (5 Points)]

00004122 00000000 727.72 172.89 498.28 672.24 988.28 454.87 1167.84 483.77 1121.40 620.95 933.72 679.00 1074.33 707.27
00004123 DELETE   728.17 173.00 497.12 673.93 988.66 454.93 1168.09 484.84 1121.96 620.92 934.43 679.42 1075.50 708.48
00004124 DELETE   728.06 174.44 495.41 674.45 989.86 455.22 1167.49 485.49 1123.06 621.57 934.11 677.85 1076.04 707.38
00004125 DELETE   728.09 174.50 498.24 681.13 990.82 454.35 1166.17 486.06 1121.98 620.60 934.08 677.63 1074.85 708.17
00004126 00000004 727.90 171.71 497.64 686.86 989.67 454.46 1165.06 486.20 1121.02 621.86 928.89 676.85 1072.73 707.58
00004127 DELETE   727.85 167.54 497.24 693.43 989.46 453.64 1164.01 486.16 1120.71 620.90 926.22 675.75 1072.09 706.93
00004128 DELETE   729.38 169.16 493.57 694.83 989.84 452.79 1163.36 485.37 1120.86 621.36 923.20 674.38 1071.54 705.83
00004129 00000007 729.02 169.06 495.09 693.91 990.54 450.04 1164.69 484.85 1121.61 619.22 923.75 672.40 1072.65 705.60
00004130 DELETE   729.76 165.85 493.15 696.65 991.17 448.54 1165.25 483.58 1123.42 616.22 924.18 669.90 1075.80 703.13
00004131 00000009 731.14 170.45 492.67 694.84 991.77 446.48 1164.75 482.35 1125.00 614.28 923.71 668.08 1077.48 702.30
00004132 00000010 731.86 168.75 492.38 695.97 990.60 446.66 1165.74 479.82 1125.19 613.27 923.69 668.12 1079.37 700.16
00004133 00000011 730.50 172.26 491.81 690.33 987.13 446.07 1163.98 479.03 1122.59 611.01 923.31 669.10 1078.90 700.90
00004134 00000012 730.66 169.89 490.43 694.27 984.82 445.07 1163.43 478.29 1120.86 611.08 919.90 669.77 1077.77 701.73
00004135 00000013 729.86 168.54 490.73 694.15 983.20 442.42 1164.41 476.80 1119.59 608.85 918.50 668.67 1077.98 701.38
00004136 00000014 728.99 163.09 489.03 701.39 981.10 439.62 1161.58 474.89 1116.72 604.17 915.74 665.97 1076.52 699.19
00004137 DELETE   724.19 162.45 493.10 699.92 973.05 436.30 1156.30 468.90 1109.57 598.62 906.67 662.24 1072.27 693.72
00004138 DELETE   716.94 163.71 494.77 699.28 964.91 425.97 1147.39 464.73 1097.74 590.10 897.97 656.28 1064.52 692.33
00004139 00000017 710.74 147.62 490.98 716.15 956.36 411.08 1138.15 453.95 1089.92 579.09 888.30 649.99 1060.12 688.95
00004140 00000018 706.08 138.33 492.16 723.13 948.63 402.90 1129.58 447.37 1079.16 569.02 883.91 647.53 1056.64 687.15
00004141 00000019 697.32 133.71 499.94 719.80 939.00 393.69 1121.27 437.50 1070.26 560.15 884.40 642.23 1056.20 680.93
00004142 DELETE   695.91 128.17 496.65 714.76 929.85 387.97 1115.82 428.70 1062.12 554.92 878.14 635.88 1053.32 671.86
00004143 00000021 696.37 123.59 495.24 715.05 928.44 385.50 1115.45 423.91 1061.62 552.49 877.80 633.70 1054.79 667.59
00004144 00000022 695.64 125.96 494.92 711.85 928.20 389.95 1115.59 426.36 1063.15 555.26 879.60 636.37 1057.23 668.71
00004145 00000023 698.41 131.07 493.58 707.79 931.17 397.43 1118.75 435.18 1062.84 560.85 883.97 638.84 1060.26 672.25
00004146 00000024 701.40 133.07 493.00 708.93 935.10 401.58 1120.55 440.18 1064.27 564.85 887.40 640.95 1061.42 675.07
00004147 00000025 701.94 135.08 492.82 708.33 935.95 401.64 1120.87 440.53 1065.39 565.58 886.35 641.13 1060.96 675.69
00004148 00000026 698.26 128.55 495.98 714.47 935.41 397.13 1120.68 437.02 1066.09 561.98 885.74 639.63 1060.71 674.81
00004149 00000027 696.34 125.95 497.79 709.78 931.74 389.69 1119.51 428.04 1064.23 556.48 882.61 633.24 1061.38 667.24
00004150 00000028 697.79 121.19 494.09 703.85 929.06 380.32 1118.32 420.83 1060.42 549.49 881.45 625.93 1059.69 661.48
00004151 00000029 699.43 119.87 490.25 697.30 929.60 375.61 1118.44 415.90 1058.07 544.07 882.86 621.04 1057.92 656.12
00004152 00000030 700.89 116.80 485.80 694.72 930.94 372.24 1119.31 412.30 1057.88 540.79 885.42 618.05 1058.69 652.65
00004153 00000031 700.97 115.49 484.78 694.29 930.63 370.61 1118.98 410.93 1056.84 539.14 885.89 617.24 1057.51 651.87
00004154 00000032 701.88 116.01 483.32 693.25 930.99 371.06 1119.40 410.72 1056.99 539.55 887.02 618.00 1058.18 652.08
00004155 00000033 701.26 115.60 484.13 693.61 931.39 372.73 1119.82 412.52 1057.70 541.06 887.99 619.31 1058.28 653.46
00004156 00000034 700.03 119.73 484.61 692.03 930.83 374.50 1118.09 412.59 1057.44 541.85 889.16 621.31 1058.61 654.00
00004157 00000035 698.83 120.57 486.26 694.52 929.92 376.27 1117.34 415.18 1057.14 543.37 888.08 622.91 1058.43 656.40
00004158 00000036 697.38 123.49 488.25 694.28 928.86 379.87 1115.18 416.98 1056.47 544.87 888.12 625.91 1056.76 657.97
00004159 00000037 696.42 123.04 488.00 698.43 928.15 381.50 1114.88 418.20 1057.46 546.13 887.94 629.12 1056.24 660.94
00004160 00000038 696.60 125.53 486.88 699.91 927.79 383.54 1114.03 418.61 1057.83 547.46 887.25 632.07 1055.93 662.68
00004161 00000039 696.06 125.26 486.73 702.74 928.50 385.60 1113.63 419.47 1058.99 547.78 888.15 634.29 1055.55 664.00
00004162 00000040 695.62 129.96 486.97 699.40 928.04 386.84 1113.19 420.23 1058.85 548.32 887.44 635.14 1055.54 664.60
00004163 00000041 695.52 129.11 486.62 700.82 928.43 387.60 1113.52 421.03 1058.98 549.32 887.66 635.77 1055.41 665.20
00004164 00000042 695.27 130.15 486.49 700.93 928.05 389.73 1112.34 422.70 1058.30 550.54 887.64 636.87 1054.90 665.93
00004165 00000043 694.49 131.95 487.20 702.96 927.64 391.35 1112.20 424.40 1059.01 552.73 885.86 638.09 1054.91 667.41
00004166 00000044 694.20 132.80 487.49 705.10 927.96 392.78 1112.38 425.81 1058.70 553.82 885.46 640.01 1054.10 669.34
00004167 00000045 694.31 133.66 486.77 706.84 927.25 394.93 1111.64 427.63 1057.79 554.27 886.80 641.44 1055.32 670.41
00004168 00000046 693.41 138.40 486.81 704.58 924.58 398.36 1110.18 428.39 1057.07 555.07 886.32 643.00 1056.21 669.91
00004169 00000047 693.14 138.47 486.67 704.18 922.79 401.71 1109.11 432.31 1052.77 558.84 888.41 645.51 1054.82 672.54
00004170 00000048 693.71 141.50 484.98 701.83 919.29 406.37 1108.99 434.73 1051.64 562.97 890.28 649.58 1057.86 674.63
00004171 00000049 694.52 140.16 482.82 704.07 917.61 409.94 1109.06 438.01 1050.70 566.94 890.55 654.73 1057.19 679.56
00004172 00000050 696.31 143.56 479.76 700.24 915.77 413.29 1109.91 441.86 1048.27 569.88 890.55 657.99 1056.82 683.12
00004173 00000051 694.99 146.10 478.58 700.33 912.57 416.63 1108.60 445.97 1045.59 571.15 888.03 660.47 1054.36 686.07
00004174 00000052 692.74 147.33 479.17 703.94 910.57 418.18 1106.82 449.13 1043.62 572.69 883.48 662.54 1050.61 689.48
00004175 00000053 691.78 149.93 478.08 702.10 909.81 419.97 1104.97 452.13 1041.98 575.23 881.81 664.20 1046.63 692.21
00004176 00000054 691.38 150.40 476.74 702.61 907.81 422.43 1103.94 453.29 1040.92 577.24 878.52 666.87 1043.61 694.06
00004177 00000055 687.04 156.12 477.14 698.45 904.89 426.71 1101.09 457.80 1038.35 580.16 874.87 669.50 1038.49 697.06
00004178 00000056 682.28 157.68 478.67 697.58 902.56 431.07 1099.95 462.91 1035.63 584.52 870.38 672.79 1033.15 700.90
00004179 00000057 678.09 159.38 480.01 697.98 898.31 435.39 1097.28 466.97 1032.30 588.50 867.51 676.17 1031.11 703.81
00004180 00000058 675.85 161.99 480.18 700.18 895.43 437.84 1095.32 469.65 1029.67 590.41 863.85 679.24 1028.26 707.06
00004181 00000059 673.86 163.88 481.07 702.91 893.15 440.33 1094.39 471.35 1027.99 593.74 863.32 684.16 1026.84 711.29
00004182 00000060 672.28 164.37 481.43 707.47 891.72 441.88 1093.42 472.70 1026.29 596.17 862.05 687.66 1025.48 714.59
00004183 00000061 671.49 166.96 481.15 707.87 891.69 444.28 1092.62 475.52 1025.28 598.53 863.29 690.68 1024.66 717.82
00004184 00000062 670.77 171.30 481.32 707.69 889.35 446.55 1090.21 474.96 1023.56 600.90 861.61 692.57 1024.28 717.53
00004185 00000063 669.36 174.20 481.43 707.05 888.30 448.56 1087.91 474.97 1023.54 602.90 859.86 693.41 1022.71 716.88
00004186 00000064 669.36 177.15 478.04 702.30 886.86 455.41 1088.03 481.60 1019.88 605.69 858.42 695.39 1021.03 718.77
00004187 00000065 669.51 176.96 477.06 702.12 887.84 457.35 1087.41 483.77 1021.72 605.76 858.60 694.91 1021.18 718.38
00004188 00000066 666.48 179.53 478.32 698.74 887.05 458.89 1085.51 483.79 1021.61 607.26 857.66 693.88 1020.63 716.26
00004189 00000067 665.19 182.16 478.57 693.83 884.49 458.75 1084.13 483.58 1019.05 608.45 855.84 693.90 1019.61 716.23
00004190 00000068 664.18 182.88 479.34 693.63 884.51 461.97 1084.03 483.90 1020.09 610.61 856.77 696.06 1020.42 716.12
00004191 00000069 663.38 184.51 479.70 692.85 883.69 462.31 1083.23 484.13 1020.36 611.23 854.41 696.07 1019.46 716.22
00004192 00000070 663.20 187.69 479.82 690.71 882.61 463.68 1081.84 484.93 1020.01 612.13 853.12 696.52 1018.93 716.33
00004193 00000071 662.50 189.44 479.99 687.85 882.59 463.72 1080.99 484.16 1019.84 613.88 853.88 697.56 1018.13 716.68
00004194 00000072 661.16 191.48 481.08 686.14 882.79 465.21 1080.34 486.07 1020.71 615.74 853.30 698.11 1018.16 717.54
00004195 00000073 660.56 193.40 481.22 684.23 882.23 466.33 1079.27 486.54 1020.28 617.13 853.07 698.35 1017.52 717.32
00004196 00000074 659.49 195.34 481.35 682.19 881.87 466.75 1079.39 487.92 1019.88 618.22 852.31 697.76 1017.96 717.58
00004197 00000075 659.82 197.36 480.56 683.39 881.10 467.02 1078.43 489.24 1019.02 619.00 850.71 697.77 1018.36 718.34
00004198 00000076 659.41 199.46 479.75 685.43 880.51 467.24 1077.36 490.19 1019.04 618.46 850.16 698.31 1018.49 719.53
00004199 00000077 659.12 199.05 480.03 689.24 880.97 466.95 1076.65 490.66 1018.39 618.49 851.10 699.70 1018.51 721.33
00004200 00000078 658.23 199.34 480.85 694.30 881.35 466.67 1075.73 491.76 1018.58 618.40 848.95 700.26 1017.45 723.08
00004201 00000079 657.73 200.39 481.08 695.73 881.18 466.69 1074.98 492.98 1018.39 618.44 847.92 700.17 1017.10 724.00
00004202 00000080 657.09 201.49 480.96 696.22 880.54 466.89 1074.05 494.34 1017.92 618.44 847.30 701.28 1016.87 726.02
00004203 00000081 657.15 200.52 480.44 698.61 881.16 466.51 1073.63 494.99 1017.69 618.61 847.07 701.76 1015.78 727.32
00004204 00000082 654.70 213.67 480.56 682.37 875.50 472.09 1070.73 499.27 1010.95 627.67 852.19 710.89 1016.94 733.78
00004205 00000083 655.27 215.16 480.14 679.85 875.21 472.21 1070.88 499.57 1010.63 628.18 852.24 711.14 1016.81 734.17
00004206 00000084 655.34 215.69 480.25 678.67 875.68 472.49 1071.28 499.78 1011.24 628.23 852.64 710.84 1017.40 733.79
00004207 00000085 657.20 199.35 479.99 697.95 881.45 468.09 1074.53 496.38 1017.99 618.99 847.91 701.85 1016.72 727.09
00004208 00000086 657.58 198.90 479.91 697.56 881.79 468.82 1074.84 495.86 1018.37 619.52 848.27 701.82 1016.88 726.13
00004209 00000087 657.97 199.56 480.57 698.07 883.17 468.66 1075.47 496.50 1019.36 619.46 849.04 701.91 1017.13 726.87
00004210 00000088 659.10 199.52 480.43 697.10 884.05 469.50 1076.50 496.38 1020.26 620.36 850.25 702.23 1018.01 726.46
00004211 00000089 659.32 202.05 481.48 695.09 885.17 469.11 1077.59 496.99 1022.14 619.71 851.77 702.11 1018.75 727.29
00004212 00000090 660.01 200.65 481.82 698.02 887.53 468.99 1078.17 497.91 1023.33 619.20 853.53 702.55 1018.49 728.53
00004213 00000091 661.09 199.08 480.93 701.17 889.00 469.16 1079.66 498.90 1024.36 620.11 854.02 703.74 1018.77 730.34
00004214 00000092 661.74 199.65 480.57 700.64 889.34 469.46 1079.60 499.36 1024.68 620.23 853.82 703.71 1018.33 730.48
00004215 00000093 661.97 201.04 480.71 696.84 889.56 470.32 1079.95 499.56 1025.16 620.59 855.24 702.81 1019.04 729.13
00004216 00000094 662.24 201.33 481.47 692.52 888.65 471.63 1080.29 498.68 1024.96 620.42 856.84 702.56 1021.05 726.99
00004217 00000095 663.80 201.61 481.00 688.19 888.23 472.67 1081.91 498.39 1024.78 620.95 857.44 702.04 1022.29 725.47
00004218 00000096 666.03 201.93 479.00 684.72 888.11 472.96 1082.82 498.50 1024.11 621.21 859.64 702.79 1022.46 726.05
00004219 00000097 665.58 200.68 479.80 684.71 889.25 473.92 1083.34 498.41 1025.23 622.10 862.29 703.62 1023.52 725.95
00004220 00000098 666.81 201.70 479.76 682.61 889.38 473.65 1084.33 498.07 1025.21 622.32 865.14 704.86 1024.60 727.12
00004221 00000099 668.47 200.95 478.93 680.90 890.07 474.00 1086.62 497.83 1026.06 623.56 868.20 707.24 1026.27 728.85
00004222 00000100 669.97 198.62 477.56 679.59 892.39 472.69 1088.81 497.28 1028.43 624.38 870.66 708.24 1027.03 730.43
00004223 00000101 670.55 195.09 477.29 681.75 893.30 469.14 1090.30 495.46 1028.53 620.48 872.32 707.09 1026.85 730.40
00004224 00000102 668.79 189.97 479.23 688.35 894.76 462.19 1091.43 489.06 1031.78 612.97 874.12 702.92 1029.24 726.62
00004225 00000103 667.38 184.67 479.59 690.80 891.90 455.51 1090.57 481.06 1031.66 604.91 875.96 700.21 1032.15 722.65
00004226 00000104 667.20 172.09 479.21 697.19 894.57 448.31 1090.59 474.59 1034.50 596.68 876.25 690.86 1031.92 713.98
00004227 00000105 662.62 168.45 479.26 695.90 893.83 440.71 1087.42 470.91 1033.78 589.83 870.51 680.02 1029.03 706.37
00004228 00000106 659.91 164.92 477.78 700.53 893.83 437.18 1086.15 467.60 1036.50 586.84 869.90 676.24 1031.05 702.48
00004229 00000107 657.99 167.28 477.32 697.10 893.33 438.80 1085.15 467.52 1037.59 587.20 872.14 676.86 1031.88 701.74
00004230 00000108 656.51 169.80 477.09 693.92 890.86 444.04 1082.98 465.85 1038.44 589.14 875.15 680.28 1033.79 699.50
00004231 00000109 651.30 172.62 477.05 692.33 886.48 449.04 1079.12 465.26 1039.48 592.31 875.65 685.06 1034.38 699.64
00004232 00000110 646.85 174.81 477.61 688.93 881.38 449.00 1075.49 463.22 1036.69 591.86 870.21 685.06 1030.98 698.08
00004233 DELETE   641.93 172.31 474.80 689.62 879.21 444.52 1071.16 460.04 1034.45 589.53 863.13 681.99 1024.16 696.17
00004234 00000112 635.25 172.10 477.17 685.84 875.22 441.26 1066.26 457.81 1032.44 586.38 858.45 679.81 1020.19 694.92
CROP_BBOX: 258 0 1455 1080
