Video ID: 	aFXLRiScIPM
H: 	1080
W: 	1920
FPS: 	25.0

FRAME INDEX X0 Y0 W H [Landmarks (5 Points)]

00002965 00000000 913.92 166.07 386.92 535.81 954.05 392.04 1104.30 387.22 965.73 479.45 958.11 578.68 1081.14 575.67
00002966 DELETE   916.01 164.18 371.87 533.49 948.83 399.54 1092.07 387.51 953.91 473.16 953.45 579.59 1073.99 570.65
00002967 DELETE   914.71 169.07 363.18 522.80 945.25 404.42 1085.39 391.94 946.11 469.97 948.29 579.89 1064.09 570.28
00002968 DELETE   898.53 155.62 375.07 534.80 929.77 395.71 1072.92 379.99 945.68 469.84 940.38 581.56 1051.44 569.77
00002969 00000004 891.39 152.95 373.98 538.34 919.85 393.97 1062.31 374.45 932.69 469.69 932.55 582.99 1046.61 568.46
00002970 00000005 885.60 154.27 376.39 541.13 913.12 397.75 1049.16 375.52 919.44 470.31 926.32 583.96 1038.04 567.30
00002971 00000006 881.43 165.38 377.99 539.47 911.53 411.23 1040.35 381.59 911.37 469.60 927.57 589.14 1033.70 566.19
00002972 DELETE   875.45 167.99 375.12 540.23 906.47 414.69 1031.20 383.84 904.57 473.71 926.67 592.56 1032.51 568.28
00002973 00000008 869.92 169.17 375.67 540.69 899.55 408.37 1024.68 383.83 896.41 481.90 920.45 591.85 1026.51 572.73
00002974 00000009 867.73 176.46 369.37 531.77 896.53 413.50 1020.39 388.08 894.04 485.60 915.54 593.85 1021.45 574.15
00002975 00000010 867.18 179.63 366.69 528.63 892.71 419.88 1017.79 393.28 890.50 487.67 912.44 597.55 1018.58 576.80
00002976 DELETE   866.21 180.54 364.98 534.11 892.31 430.59 1013.27 405.98 885.34 488.16 914.90 602.19 1013.91 581.96
00002977 DELETE   868.40 179.74 365.13 536.99 891.39 431.87 1013.35 401.59 889.20 490.02 917.03 608.34 1017.26 583.72
00002978 00000013 868.92 180.04 367.50 536.01 889.55 423.12 1016.91 393.57 888.52 491.56 916.94 608.88 1019.03 585.11
00002979 00000014 866.20 179.21 375.42 536.39 892.31 420.05 1020.96 391.75 894.12 489.27 915.06 602.95 1019.55 580.47
00002980 00000015 865.87 177.83 377.42 538.09 894.08 416.08 1023.30 389.70 896.92 489.62 917.07 600.80 1022.17 579.87
00002981 00000016 865.55 175.26 379.17 542.73 896.50 413.57 1026.95 388.65 900.10 488.66 920.55 600.48 1026.82 580.57
00002982 00000017 865.96 176.39 381.42 542.90 897.45 413.62 1029.32 387.81 904.78 490.12 923.07 602.61 1029.69 581.92
00002983 00000018 866.56 177.41 382.98 539.55 898.35 414.67 1030.74 389.43 906.68 489.98 922.89 601.99 1029.70 581.77
00002984 00000019 867.74 176.77 383.52 538.05 900.83 416.22 1033.30 390.93 910.75 489.98 922.19 600.38 1029.45 580.41
00002985 00000020 868.61 175.87 386.23 543.29 904.05 414.19 1038.42 391.21 916.70 490.51 924.90 600.12 1033.49 582.06
00002986 00000021 871.84 175.61 386.50 547.63 906.70 412.75 1042.70 391.30 920.63 494.27 931.73 602.00 1041.15 584.92
00002987 00000022 874.73 177.38 386.05 548.47 910.93 409.87 1048.79 390.71 926.51 495.94 935.61 603.94 1044.07 588.70
00002988 00000023 876.91 174.81 385.15 551.29 913.62 407.32 1053.30 391.39 928.86 496.05 936.23 602.44 1047.60 589.79
00002989 00000024 879.83 174.55 382.98 549.51 915.98 406.29 1056.77 392.34 931.71 496.56 936.94 601.23 1049.93 590.04
00002990 00000025 881.94 175.21 384.12 548.03 917.82 406.14 1059.75 393.27 934.78 497.75 937.05 601.66 1050.78 591.33
00002991 00000026 883.46 174.87 382.13 547.45 919.45 405.07 1063.27 393.62 937.86 499.03 938.01 601.97 1053.09 592.81
00002992 00000027 884.11 174.53 380.73 548.81 920.19 404.17 1065.51 394.05 939.45 500.66 939.28 601.66 1056.06 593.64
00002993 00000028 884.63 175.51 380.85 546.49 919.83 405.47 1066.32 395.31 939.27 501.30 938.76 601.57 1058.07 593.35
00002994 00000029 886.12 174.62 379.39 543.39 920.76 406.20 1067.50 395.72 941.11 501.70 938.58 600.26 1059.04 591.77
00002995 00000030 888.28 174.75 378.15 543.20 921.53 405.10 1069.29 395.81 942.03 502.15 938.96 599.78 1060.33 592.18
00002996 00000031 888.66 177.52 379.19 543.15 922.38 402.45 1071.41 394.52 942.67 501.76 940.01 599.47 1061.10 593.03
00002997 00000032 889.24 177.71 379.59 543.45 924.42 402.15 1072.60 393.62 944.42 500.39 942.15 600.32 1061.85 593.37
00002998 00000033 889.81 177.13 380.89 543.93 925.20 402.68 1073.53 394.59 945.52 501.93 943.54 600.77 1064.72 594.03
00002999 00000034 890.36 178.11 381.67 542.65 925.90 403.11 1075.22 395.08 947.18 501.99 945.40 601.21 1066.71 594.36
00003000 00000035 891.61 180.36 382.39 539.96 926.80 403.53 1075.95 395.43 948.54 502.91 947.63 602.06 1067.52 594.93
00003001 00000036 893.18 179.78 380.17 538.90 927.55 403.70 1077.03 395.72 949.74 502.77 948.74 601.74 1068.87 594.65
00003002 00000037 893.73 180.54 380.98 538.50 928.29 403.26 1078.23 395.07 950.63 502.48 949.76 602.21 1069.57 594.96
00003003 00000038 894.46 179.90 382.02 540.94 929.58 404.01 1078.12 395.13 950.85 501.41 951.22 602.61 1069.33 594.86
00003004 00000039 894.06 179.82 382.17 540.89 929.18 404.20 1078.73 395.22 951.16 501.31 950.57 602.45 1069.58 594.65
00003005 00000040 894.34 179.63 381.80 540.84 929.02 404.15 1077.61 396.10 950.38 502.13 949.61 602.04 1067.75 594.98
00003006 00000041 893.30 180.26 381.00 540.60 927.70 403.84 1075.27 396.42 948.64 502.72 947.11 601.78 1064.68 595.30
00003007 00000042 891.64 179.37 379.09 543.12 925.16 404.48 1069.83 395.88 943.44 503.00 944.38 603.11 1059.77 595.89
00003008 00000043 888.00 178.27 376.92 544.17 921.95 405.21 1065.39 394.25 940.87 501.16 941.69 604.50 1052.90 595.62
00003009 00000044 883.02 172.02 377.59 550.30 917.52 407.74 1058.77 394.97 933.20 499.57 936.96 602.65 1049.67 592.51
00003010 00000045 878.29 170.77 380.84 550.71 914.30 406.33 1052.92 392.37 927.59 495.04 932.26 599.73 1043.02 588.98
00003011 00000046 872.75 172.95 384.59 548.83 907.56 406.89 1048.48 392.06 922.15 495.32 926.55 602.14 1036.91 590.81
00003012 00000047 869.66 176.17 384.29 547.60 903.10 406.97 1044.31 393.43 916.57 496.35 922.14 604.91 1029.71 594.47
00003013 00000048 865.12 181.07 387.48 544.29 898.44 408.42 1038.92 396.65 911.61 498.83 919.35 604.81 1024.27 595.44
00003014 00000049 861.97 183.32 384.42 544.77 895.05 410.26 1033.50 397.86 905.96 501.00 916.53 607.62 1020.67 597.74
00003015 00000050 859.57 185.91 380.48 546.04 893.11 409.96 1030.35 400.20 904.46 504.00 914.88 609.09 1019.80 601.04
00003016 00000051 856.62 187.03 379.27 545.42 891.93 412.30 1027.65 401.88 902.48 503.30 913.39 610.39 1018.42 601.78
00003017 00000052 854.42 190.85 377.33 540.90 890.25 414.25 1024.73 402.94 899.40 504.10 911.44 611.79 1018.98 602.34
00003018 00000053 852.35 190.33 377.31 542.64 888.37 415.93 1022.40 404.95 895.47 505.41 908.50 612.92 1017.50 603.73
00003019 00000054 850.66 191.54 378.11 542.45 886.46 417.61 1020.60 406.92 891.87 505.88 907.06 613.46 1016.11 604.36
00003020 00000055 849.19 192.82 378.23 542.10 885.14 418.32 1018.51 408.03 890.55 507.00 906.66 614.33 1014.65 605.48
00003021 00000056 848.64 192.95 376.05 541.65 884.15 419.65 1018.83 409.38 891.11 507.63 905.77 614.65 1014.14 605.72
00003022 00000057 848.39 193.81 376.30 540.09 883.46 420.20 1018.39 409.65 890.61 507.53 904.91 614.21 1013.04 605.01
00003023 00000058 848.19 194.45 375.96 539.14 883.39 420.44 1018.74 409.48 890.41 507.57 905.17 613.96 1014.03 604.36
00003024 00000059 848.43 192.59 377.63 540.83 883.69 420.39 1019.17 409.22 890.74 507.13 905.73 614.14 1014.33 604.51
00003025 00000060 847.48 190.32 379.96 543.78 883.04 419.97 1018.61 409.17 888.11 505.59 905.53 613.44 1013.61 604.08
00003026 00000061 848.97 189.20 380.04 541.00 883.73 420.45 1018.83 408.60 888.75 504.66 905.40 612.02 1014.18 601.88
00003027 00000062 849.91 189.25 380.54 540.62 884.80 418.21 1019.65 407.06 890.58 504.12 906.17 610.85 1014.45 601.33
00003028 00000063 850.88 189.95 380.55 540.04 885.45 416.29 1021.28 405.60 891.76 504.74 906.67 611.52 1013.63 602.46
00003029 00000064 852.09 189.88 381.59 539.01 886.48 415.13 1023.41 404.82 894.26 505.31 906.58 611.99 1013.69 603.40
00003030 00000065 852.45 189.32 382.94 540.13 887.22 415.04 1025.95 404.77 896.57 505.87 907.78 612.34 1015.10 603.82
00003031 00000066 853.43 188.12 384.67 542.50 888.45 414.34 1028.14 404.08 899.77 506.57 910.55 612.94 1017.91 604.41
00003032 00000067 855.09 185.12 384.91 546.52 889.10 413.32 1029.96 403.67 902.24 507.35 911.98 612.37 1019.97 604.31
00003033 00000068 856.34 187.19 385.98 545.10 891.15 413.17 1032.09 404.03 905.54 507.62 914.65 611.44 1022.75 603.83
00003034 00000069 858.24 187.11 386.09 544.23 891.62 413.51 1032.95 404.20 906.68 508.05 915.20 611.56 1023.73 603.86
00003035 00000070 860.69 185.11 386.05 546.02 893.70 412.82 1034.92 404.01 909.27 508.69 916.81 611.41 1026.27 604.24
00003036 00000071 863.01 186.30 385.11 546.03 896.61 411.69 1036.97 402.96 912.79 508.96 920.48 611.73 1029.81 604.65
00003037 00000072 865.09 185.80 384.16 546.42 900.11 410.64 1041.06 402.01 917.29 508.53 924.60 610.66 1036.22 603.61
00003038 00000073 867.03 182.75 385.92 549.84 903.18 410.11 1045.95 401.36 922.70 509.22 928.50 610.04 1042.54 602.93
00003039 00000074 869.08 182.26 386.36 548.75 905.74 409.93 1049.34 401.68 926.87 510.01 931.29 609.77 1045.88 603.00
00003040 00000075 871.43 181.13 386.30 548.43 908.94 408.53 1054.02 401.72 930.59 510.46 933.74 608.50 1049.37 602.89
00003041 00000076 874.61 180.96 384.15 547.58 911.39 406.99 1058.03 400.95 932.24 510.06 935.09 607.39 1051.86 602.44
00003042 00000077 878.34 179.91 381.90 546.38 915.25 406.06 1061.56 400.84 934.60 509.32 936.64 605.10 1054.74 600.76
00003043 00000078 882.13 179.95 380.14 542.49 918.26 406.43 1065.66 401.22 937.94 509.50 937.86 604.27 1059.59 599.75
00003044 00000079 886.39 182.00 381.85 540.42 920.86 406.55 1069.90 401.83 941.80 510.05 940.19 604.47 1062.66 600.16
00003045 DELETE   889.86 181.05 379.73 542.76 925.52 415.17 1070.82 407.11 947.19 507.75 946.90 606.68 1066.49 599.34
00003046 DELETE   898.02 184.02 375.14 539.01 925.28 425.33 1075.14 411.24 942.79 506.32 952.86 607.96 1070.78 599.59
00003047 DELETE   896.47 183.28 382.13 538.85 930.29 414.50 1079.74 408.33 953.60 506.62 949.60 604.90 1071.61 598.79
00003048 00000083 902.63 181.42 378.04 538.23 931.10 412.09 1085.04 406.01 949.86 504.54 956.61 603.57 1073.23 601.92
00003049 00000084 905.55 181.45 381.22 538.76 943.28 407.99 1088.11 405.20 951.45 503.07 958.56 601.70 1075.79 599.61
00003050 00000085 908.09 182.13 378.37 540.53 946.64 406.20 1090.98 403.49 953.32 501.55 960.70 601.69 1077.34 599.54
00003051 00000086 910.65 179.86 378.47 546.43 951.10 404.14 1094.01 401.70 957.13 499.96 964.68 602.02 1078.77 600.03
00003052 00000087 914.36 181.45 377.18 546.45 955.02 403.22 1096.83 401.34 959.90 498.84 965.76 602.57 1077.06 601.15
00003053 00000088 915.94 178.98 378.97 549.02 955.55 402.03 1099.14 400.48 961.19 499.29 966.38 602.89 1078.66 601.69
00003054 00000089 916.59 177.32 380.60 549.02 955.94 403.01 1101.71 400.94 963.83 499.07 963.30 602.27 1080.45 600.98
00003055 00000090 917.98 179.01 380.23 546.06 956.42 402.62 1101.90 400.81 963.64 498.17 962.33 600.30 1079.96 599.20
00003056 00000091 918.24 179.27 380.54 546.46 957.69 401.21 1102.60 398.35 965.53 496.67 967.97 600.73 1083.15 598.53
00003057 00000092 919.90 177.51 379.48 548.16 959.48 397.43 1104.00 396.44 966.30 495.40 969.04 598.27 1084.58 597.65
00003058 00000093 919.52 176.83 379.94 549.82 961.12 395.97 1104.79 395.84 967.36 492.76 969.03 595.73 1085.57 595.83
00003059 00000094 919.86 175.60 379.59 551.90 961.96 395.83 1104.91 395.61 967.55 491.72 968.87 595.12 1085.71 595.23
00003060 00000095 919.44 175.80 379.80 550.84 961.23 395.97 1103.89 395.12 966.83 490.81 968.74 594.89 1084.72 594.45
00003061 00000096 918.12 175.84 377.44 550.31 959.20 396.56 1102.05 394.95 964.54 490.19 967.61 595.63 1082.24 594.49
00003062 00000097 916.65 172.87 376.77 552.12 957.42 395.88 1100.20 394.30 961.94 490.22 965.26 594.94 1080.29 593.89
00003063 00000098 914.03 170.55 377.66 552.89 953.42 396.88 1099.28 393.92 959.26 491.07 961.39 595.56 1080.05 593.48
00003064 00000099 913.15 168.59 375.47 550.06 949.56 397.82 1095.90 394.04 954.55 492.63 957.44 594.99 1077.14 592.37
00003065 00000100 911.30 168.79 378.14 550.43 947.96 398.38 1094.95 393.42 952.83 492.31 957.62 596.18 1076.70 592.60
00003066 00000101 908.14 173.11 379.26 546.12 944.30 398.18 1092.09 393.66 948.92 493.81 957.33 597.31 1075.38 593.95
00003067 00000102 905.93 171.52 380.03 546.50 933.71 396.51 1093.31 392.80 948.74 493.75 955.19 597.42 1074.33 597.43
00003068 00000103 905.77 171.49 377.59 543.90 932.14 395.32 1091.27 393.51 947.61 495.10 952.78 594.83 1072.81 596.70
00003069 00000104 903.57 172.64 376.82 542.28 929.86 395.33 1088.23 393.71 946.61 496.40 950.21 594.54 1069.10 596.74
00003070 00000105 901.37 175.24 377.40 542.27 928.06 395.59 1083.86 393.40 944.14 496.26 950.32 594.88 1067.91 596.64
00003071 00000106 893.04 176.63 379.39 542.51 928.14 396.20 1078.42 392.20 948.04 498.63 944.68 595.91 1067.19 592.41
00003072 00000107 889.38 174.48 375.77 546.83 925.25 395.90 1074.10 391.99 943.66 499.29 942.66 596.14 1064.20 593.02
00003073 00000108 885.90 173.35 376.84 546.83 922.45 399.33 1069.15 392.23 941.43 499.50 941.02 598.15 1059.37 592.52
00003074 00000109 881.89 173.58 378.39 546.35 917.95 401.89 1062.88 392.42 935.93 499.89 937.90 599.50 1054.00 591.91
00003075 00000110 879.11 173.98 381.24 546.47 914.78 404.22 1057.22 393.00 931.90 500.20 936.70 601.57 1049.52 592.58
00003076 00000111 873.78 175.92 386.56 545.68 909.43 405.94 1051.70 393.38 927.81 500.79 931.13 602.63 1044.33 592.72
00003077 00000112 870.83 176.06 386.96 547.17 904.07 409.01 1047.44 395.83 922.44 502.98 927.11 604.70 1040.69 594.30
00003078 00000113 868.36 179.53 387.69 543.64 900.14 410.78 1042.08 398.58 917.90 506.33 925.04 605.76 1036.82 595.93
00003079 00000114 866.15 181.72 387.50 542.25 898.26 412.49 1038.77 399.86 915.28 507.73 923.78 607.51 1034.26 597.22
00003080 00000115 863.95 183.25 386.64 542.23 896.33 414.14 1035.76 402.81 911.79 509.10 921.95 608.50 1031.81 599.13
00003081 00000116 862.21 184.62 385.83 543.45 894.73 413.72 1033.85 403.00 910.16 509.03 920.61 610.61 1027.25 601.74
00003082 00000117 861.45 185.65 385.70 544.75 894.40 413.68 1033.29 402.95 909.60 509.61 921.13 612.50 1027.68 603.62
00003083 00000118 861.22 184.49 386.48 543.39 894.26 413.81 1033.33 403.20 908.88 509.64 919.26 612.03 1027.95 603.26
00003084 00000119 860.85 183.24 387.17 545.68 894.53 413.21 1034.06 402.68 909.08 509.35 919.59 611.57 1029.16 602.95
CROP_BBOX: 666 0 1481 851
