Video ID: 	axJWemP3ZYU
H: 	1080
W: 	1920
FPS: 	25.0

FRAME INDEX X0 Y0 W H [Landmarks (5 Points)]

00004750 00000000 442.53 117.32 338.53 759.17 733.21 445.97 719.44 449.88 809.37 565.28 728.65 708.38 712.83 711.46
00004751 00000001 449.23 114.16 339.51 759.39 742.33 449.15 725.16 454.32 817.67 573.27 731.00 707.42 714.29 712.04
00004752 00000002 436.28 107.98 349.04 777.25 730.72 459.13 722.07 462.79 805.93 574.62 726.89 704.28 714.67 704.94
00004753 00000003 430.91 116.11 367.22 772.04 731.08 467.43 730.60 468.86 813.28 584.12 724.83 707.87 720.73 707.26
00004754 00000004 429.21 155.14 376.52 745.29 724.08 479.05 731.25 482.92 808.86 595.49 712.22 715.35 720.08 718.19
00004755 00000005 427.49 164.87 386.35 741.69 722.67 489.13 738.83 488.41 813.37 608.64 704.93 723.64 721.05 724.02
00004756 00000006 418.06 189.34 398.06 734.68 699.00 477.91 732.92 475.17 808.51 597.68 692.66 733.37 718.03 733.40
00004757 00000007 397.21 207.13 424.11 721.12 689.64 477.67 736.73 476.97 810.36 600.02 684.37 734.10 720.06 735.78
00004758 00000008 391.53 203.02 433.23 732.38 699.77 480.11 738.52 484.16 818.26 608.36 685.08 741.43 711.07 748.16
00004759 00000009 396.39 186.83 430.36 754.58 705.95 486.22 738.99 487.47 820.34 623.29 686.07 751.45 707.24 756.54
00004760 DELETE   417.77 198.53 422.28 781.64 742.99 508.93 740.08 515.24 836.23 653.85 701.43 771.84 705.68 781.34
00004761 DELETE   429.29 255.15 411.73 738.57 742.00 544.38 751.44 548.79 836.86 695.02 689.98 804.05 698.00 812.72
00004762 00000012 441.98 248.66 403.61 756.23 753.01 556.08 758.19 564.70 839.97 712.37 691.03 815.37 698.47 827.67
00004763 DELETE   439.28 253.96 417.40 759.02 764.20 567.45 770.58 574.72 848.10 724.78 697.79 820.16 705.47 831.02
00004764 00000014 455.13 321.38 414.46 681.42 761.91 569.52 773.51 577.20 832.57 721.35 702.89 822.19 714.50 831.32
00004765 DELETE   465.91 333.55 404.00 670.67 772.80 578.41 779.83 583.44 838.13 732.65 702.92 820.24 714.94 827.79
00004766 00000016 481.03 334.46 389.99 663.83 784.57 578.26 787.47 581.17 842.25 730.35 717.96 822.64 725.00 828.00
00004767 00000017 490.95 314.87 385.58 688.49 795.29 577.93 793.51 585.05 851.82 731.72 723.15 824.38 724.13 832.09
00004768 00000018 498.69 309.45 383.62 696.82 806.40 581.98 802.28 590.68 858.89 738.25 726.50 829.96 727.13 838.67
00004769 00000019 502.16 317.16 381.51 685.50 809.65 581.85 804.00 589.54 857.71 740.98 726.81 830.63 726.11 838.14
00004770 00000020 508.10 314.85 377.94 693.62 810.75 582.41 807.00 589.46 859.40 739.55 727.55 831.80 730.60 838.47
00004771 00000021 510.98 318.11 373.94 687.84 811.09 583.22 808.91 590.51 859.49 737.53 731.51 832.55 735.89 839.50
00004772 00000022 514.96 322.35 370.76 683.56 810.43 579.78 813.21 590.88 858.93 738.69 729.18 831.67 736.09 841.59
00004773 00000023 517.23 320.79 367.46 686.88 812.45 583.23 812.82 593.71 859.88 739.05 730.08 832.03 734.82 841.63
00004774 00000024 525.23 326.50 356.96 678.70 807.73 587.77 811.38 596.08 853.61 743.00 726.59 833.52 734.63 841.24
00004775 00000025 522.79 317.41 351.57 686.34 805.86 591.08 808.94 601.91 853.89 749.04 725.83 833.84 732.77 843.76
00004776 00000026 520.45 301.20 350.30 701.45 806.68 595.98 809.26 607.23 851.13 753.63 726.13 835.05 731.43 844.74
00004777 00000027 521.94 302.93 347.93 701.16 805.39 593.54 806.18 607.60 846.00 751.56 722.36 833.23 725.06 844.98
00004778 00000028 523.90 301.85 342.95 709.09 804.77 597.84 807.29 613.79 842.87 750.97 717.60 833.48 722.60 846.77
00004779 00000029 527.36 293.28 337.59 715.27 809.59 597.23 807.14 613.27 844.73 746.14 723.09 828.95 727.31 841.46
00004780 00000030 525.83 305.98 336.12 699.32 805.83 594.67 803.49 610.44 840.51 740.19 725.48 827.13 729.02 839.30
00004781 00000031 526.88 300.61 336.38 701.60 800.68 592.93 803.27 608.56 838.83 737.26 720.14 822.86 728.48 835.43
00004782 00000032 527.13 296.15 333.70 705.38 798.40 588.97 800.11 605.63 835.37 733.12 716.85 821.71 723.24 834.74
00004783 00000033 520.08 287.92 344.66 712.41 797.14 586.39 800.92 600.72 836.73 731.73 717.69 820.34 723.60 831.95
00004784 00000034 517.72 298.14 342.43 700.23 789.57 582.55 799.97 599.23 835.83 728.86 715.24 820.19 724.21 834.01
00004785 00000035 509.10 297.43 346.60 694.36 789.15 579.53 800.00 595.81 837.32 726.40 715.84 816.69 724.59 830.45
00004786 00000036 509.19 300.27 346.94 687.84 790.32 577.21 797.75 592.85 837.64 723.83 713.71 810.94 723.12 824.95
00004787 00000037 507.63 313.13 347.55 665.04 785.96 570.52 796.09 586.44 835.55 717.97 712.25 802.05 725.80 817.06
00004788 00000038 504.41 310.24 351.14 665.67 785.33 566.55 793.02 579.12 838.82 712.14 715.74 802.06 725.17 814.47
00004789 00000039 505.66 293.49 349.08 682.56 780.69 561.97 790.75 575.16 839.34 702.41 721.19 799.61 730.76 812.46
00004790 00000040 502.54 294.23 351.46 684.14 779.03 560.38 790.80 573.82 839.35 703.39 721.16 802.27 730.58 815.08
00004791 00000041 502.17 299.74 351.93 672.32 776.89 559.81 789.84 572.32 838.72 700.78 721.01 799.72 731.24 811.86
00004792 00000042 495.27 300.85 357.58 673.98 778.53 560.68 787.69 571.42 840.57 701.50 722.59 801.56 729.98 812.35
00004793 00000043 493.04 293.76 358.74 679.66 777.77 560.98 786.45 573.47 840.55 701.28 721.91 799.69 728.96 812.23
00004794 00000044 493.56 294.36 359.38 683.69 781.35 561.53 786.33 571.38 842.47 701.34 716.48 798.14 724.50 809.20
00004795 00000045 492.40 297.21 361.03 682.87 784.72 560.59 786.74 570.62 844.52 702.60 718.26 800.25 723.89 811.25
00004796 00000046 484.41 273.29 366.34 706.00 786.92 563.38 781.58 573.28 844.27 703.03 719.93 799.91 717.86 811.05
00004797 00000047 481.96 288.34 365.97 697.26 782.06 560.46 783.62 572.24 844.74 704.13 717.43 805.58 717.66 817.45
00004798 00000048 482.65 281.67 364.67 704.73 778.63 555.83 781.89 571.27 842.12 701.12 715.62 805.26 716.42 819.83
00004799 00000049 483.58 287.76 363.86 695.07 773.10 547.36 781.53 565.66 840.13 694.75 705.62 798.71 711.93 815.91
00004800 00000050 480.44 293.86 369.98 689.69 769.52 546.62 782.16 568.01 837.47 692.89 703.57 796.61 713.59 816.45
00004801 00000051 476.95 302.77 373.13 685.45 765.23 546.44 781.01 569.71 831.21 696.19 693.46 797.68 705.98 818.98
00004802 00000052 470.61 294.82 382.27 694.90 763.25 542.45 777.65 564.64 832.27 693.20 696.12 798.07 707.30 818.95
00004803 00000053 469.07 296.92 384.32 687.92 769.66 538.58 778.42 559.09 834.44 688.28 701.60 794.11 711.20 813.89
00004804 00000054 466.99 302.02 385.61 680.85 770.44 535.96 777.92 551.28 838.45 688.09 704.56 794.08 713.85 810.50
00004805 00000055 439.79 272.35 409.62 711.98 757.82 538.20 768.64 544.25 850.59 692.87 708.56 791.74 717.12 800.07
00004806 00000056 421.85 239.87 417.35 734.10 734.26 527.56 764.19 536.37 829.41 672.89 702.52 782.07 726.41 790.30
00004807 00000057 406.43 236.24 436.28 732.80 727.57 510.19 770.06 520.28 838.27 665.71 689.34 771.40 720.63 782.61
00004808 00000058 399.51 232.78 449.77 743.06 727.84 508.99 775.37 519.40 842.00 667.99 683.04 773.03 717.62 784.96
00004809 00000059 384.63 258.11 466.20 727.84 730.49 505.69 768.98 507.33 839.03 665.43 666.74 771.89 704.71 781.29
00004810 00000060 376.15 272.30 477.09 713.90 723.06 507.91 775.09 517.80 834.59 670.44 661.03 772.87 707.50 789.13
00004811 00000061 373.37 273.44 473.23 714.83 720.79 509.01 773.49 524.44 831.94 676.61 656.87 772.59 703.20 793.58
00004812 00000062 367.28 280.43 479.51 709.17 715.15 515.81 777.49 531.51 832.73 679.61 662.05 779.33 710.52 799.56
00004813 00000063 369.55 277.21 479.73 703.02 718.89 512.62 785.12 523.53 843.61 676.68 674.16 779.39 723.00 795.84
00004814 00000064 366.26 282.58 484.09 692.31 714.44 508.19 784.39 518.92 847.96 671.73 672.07 775.34 724.43 791.61
00004815 00000065 358.11 288.73 496.73 690.37 709.47 503.68 785.94 516.25 846.75 667.34 662.74 771.59 721.99 789.55
00004816 00000066 359.53 295.06 498.73 695.85 707.99 503.17 785.90 517.62 838.29 669.67 648.76 768.46 716.14 787.60
00004817 00000067 354.23 293.50 504.90 707.20 707.74 503.13 791.87 523.20 835.72 676.17 635.79 768.73 712.81 792.75
00004818 00000068 365.79 284.34 497.96 703.98 710.31 504.33 800.45 531.50 841.84 681.23 633.77 768.82 714.33 796.77
00004819 00000069 360.36 278.78 513.93 704.55 712.66 505.56 807.29 526.65 846.40 679.78 643.61 772.10 723.85 794.89
00004820 00000070 362.90 274.53 515.61 703.09 716.07 504.23 815.09 524.87 849.38 678.02 651.19 770.16 733.09 792.60
00004821 00000071 365.25 280.46 513.88 698.08 719.88 509.18 816.73 532.05 850.80 682.01 656.29 772.24 735.14 796.07
00004822 00000072 365.57 286.65 519.30 698.54 719.92 507.64 821.56 534.11 853.36 685.89 654.09 775.88 737.33 802.06
00004823 00000073 364.87 287.32 521.14 706.94 720.21 507.16 820.52 533.75 855.09 686.54 652.75 779.14 736.38 805.25
00004824 00000074 362.56 287.28 523.95 709.99 719.99 510.08 818.81 532.56 858.00 688.10 658.01 783.53 738.71 806.16
00004825 00000075 365.07 292.48 517.01 697.01 719.85 523.73 819.17 543.81 858.85 693.27 669.51 790.33 746.64 810.30
00004826 00000076 361.02 293.96 525.06 701.47 716.93 529.49 825.62 552.99 859.48 701.49 668.27 799.88 749.29 822.24
00004827 00000077 364.33 297.50 527.62 707.89 717.08 528.03 826.22 553.49 857.65 706.26 660.06 801.36 744.95 825.44
00004828 00000078 356.38 291.23 531.06 717.61 716.83 530.87 823.12 554.83 856.73 707.12 658.06 801.52 741.19 824.24
00004829 00000079 355.75 296.38 527.65 712.40 707.03 532.94 821.95 556.49 850.23 705.84 651.63 802.23 744.43 824.50
00004830 00000080 348.51 293.00 529.47 723.21 701.59 531.90 817.25 557.56 844.38 707.89 637.33 801.81 733.16 826.61
00004831 00000081 337.87 292.67 530.63 729.05 689.85 533.82 806.82 552.67 836.91 711.22 626.41 809.36 726.02 828.76
00004832 00000082 337.40 289.38 528.29 731.17 684.97 535.01 804.92 558.31 831.56 713.73 620.15 811.06 722.58 834.09
00004833 00000083 324.05 285.20 531.24 724.79 667.82 536.80 800.71 550.09 826.15 713.08 615.66 804.08 724.50 821.92
00004834 00000084 314.27 296.48 535.27 702.99 659.49 539.39 802.80 550.20 824.84 715.14 613.65 802.98 729.08 818.38
00004835 00000085 307.22 283.78 535.27 715.09 650.44 539.70 801.29 550.98 818.36 713.96 608.43 804.64 730.14 819.53
00004836 00000086 302.97 281.59 536.21 725.29 647.98 541.21 795.05 551.04 814.85 716.40 602.21 808.97 722.05 822.34
00004837 00000087 301.49 279.60 539.60 736.64 642.37 538.44 792.71 551.51 806.36 713.61 596.98 811.34 718.95 826.55
00004838 00000088 300.88 276.27 535.80 740.63 636.68 542.09 789.02 554.29 800.78 714.07 593.49 813.56 716.16 828.19
00004839 00000089 303.72 277.96 535.59 737.58 636.04 541.51 793.69 553.95 801.67 714.37 599.91 818.18 723.20 832.99
00004840 00000090 304.87 275.96 532.02 739.51 636.71 542.97 794.58 557.51 803.62 714.28 608.88 825.47 726.14 842.02
00004841 00000091 304.60 286.24 529.41 720.15 634.34 544.13 795.62 557.73 804.49 714.31 611.51 824.69 729.81 840.10
00004842 00000092 301.12 275.80 531.72 728.36 637.75 550.51 795.46 561.52 807.01 719.45 610.92 821.01 729.31 834.86
00004843 00000093 297.63 282.05 537.23 721.64 637.90 550.50 796.14 561.17 807.57 720.38 608.70 817.54 729.46 831.26
00004844 00000094 301.31 278.53 536.35 729.94 641.86 551.16 801.22 565.79 809.89 722.31 607.82 816.46 730.03 833.54
00004845 00000095 303.89 282.19 536.08 731.13 647.70 554.16 803.45 568.75 815.68 724.34 608.98 815.86 730.64 833.37
00004846 00000096 309.88 280.17 531.58 732.50 648.44 555.63 805.42 570.83 815.16 726.37 609.34 816.81 732.57 834.58
00004847 00000097 308.35 274.81 535.28 737.00 652.29 553.89 806.69 570.19 818.78 723.38 609.96 815.00 730.75 833.96
00004848 00000098 311.39 274.98 534.44 740.21 652.17 549.11 805.18 567.89 815.30 717.50 609.04 814.17 729.59 834.67
00004849 00000099 309.17 280.61 534.84 736.34 651.60 548.48 799.35 567.18 812.97 719.73 609.17 818.78 723.86 839.29
00004850 00000100 308.17 286.48 536.17 734.75 650.24 547.73 801.52 570.96 812.18 722.11 604.94 818.92 726.22 843.09
00004851 00000101 309.02 282.14 530.10 736.39 647.09 551.21 799.15 572.22 810.54 720.94 606.07 816.92 729.70 839.35
00004852 00000102 307.17 281.80 529.32 734.27 650.19 551.49 799.75 568.94 813.23 723.63 608.59 815.35 730.34 834.91
00004853 00000103 304.74 287.82 527.34 723.06 649.47 555.78 794.70 573.68 812.05 722.87 611.63 812.90 729.90 832.30
00004854 00000104 303.31 287.08 528.43 724.28 647.46 556.87 792.34 571.13 810.41 723.92 611.02 815.74 728.20 832.28
00004855 00000105 301.75 280.72 526.60 729.68 650.27 559.13 788.00 573.33 809.34 723.05 611.19 814.05 721.46 830.77
00004856 00000106 292.46 289.35 530.32 723.32 642.28 559.02 784.28 573.02 805.41 723.58 604.68 816.04 719.67 832.35
00004857 00000107 288.70 290.24 532.92 720.45 638.62 560.45 786.09 572.16 805.58 723.07 604.27 817.12 722.71 831.44
00004858 00000108 288.13 287.16 532.55 721.14 635.80 560.55 785.30 571.21 802.78 722.60 603.96 817.62 722.68 830.87
00004859 00000109 293.16 290.00 530.18 714.11 636.12 560.35 786.89 572.00 802.56 721.21 606.96 816.21 725.62 830.26
00004860 00000110 291.74 292.93 532.69 711.82 637.78 562.17 788.06 571.41 805.57 721.46 608.26 814.93 727.33 827.16
00004861 00000111 293.50 283.37 533.31 720.63 640.89 560.67 789.08 569.69 807.84 719.79 612.07 815.47 727.45 827.58
00004862 00000112 303.93 290.41 528.69 719.60 640.71 557.58 790.29 567.02 805.40 719.39 610.86 818.49 729.12 830.81
00004863 00000113 303.14 281.41 533.58 731.88 644.30 557.18 793.60 566.05 806.03 722.76 609.99 822.28 724.94 834.46
00004864 00000114 310.65 292.92 529.56 720.27 645.96 557.53 794.74 569.18 806.72 723.88 611.47 822.76 725.90 837.41
CROP_BBOX: 0 0 1229 1080
