Video ID: 	AnHjuNOakU0
H: 	1080
W: 	1920
FPS: 	25.0

FRAME INDEX X0 Y0 W H [Landmarks (5 Points)]

00009676 00000000 774.63 162.91 390.94 571.08 825.69 401.67 913.67 378.72 795.35 490.27 869.97 601.15 940.75 579.95
00009677 00000001 779.02 173.34 381.88 555.98 831.89 405.39 901.93 383.24 793.86 492.95 864.13 598.53 930.34 578.11
00009678 00000002 777.59 172.62 383.24 551.93 830.46 407.27 903.27 385.77 795.11 492.95 860.94 596.12 930.43 576.69
00009679 DELETE   779.78 175.83 382.44 550.69 829.18 408.35 905.32 384.61 796.99 493.19 865.08 598.01 936.66 576.35
00009680 00000004 778.97 166.04 387.65 563.65 829.60 403.50 915.37 380.53 799.68 494.15 878.93 601.58 948.95 580.27
00009681 00000005 780.71 168.33 385.07 558.70 828.00 402.29 916.95 378.93 802.71 493.64 882.97 596.84 961.24 575.21
00009682 00000006 780.26 171.07 384.71 558.73 827.75 405.44 915.85 380.66 803.44 494.41 886.06 597.36 967.24 573.74
00009683 00000007 776.09 174.39 387.70 565.23 827.41 409.01 914.73 385.74 802.99 499.60 888.68 600.58 972.24 576.98
00009684 00000008 778.94 176.74 385.80 567.14 821.16 405.47 909.80 385.97 793.15 502.39 882.36 603.49 962.99 584.16
00009685 00000009 775.64 175.70 380.94 566.43 814.96 409.53 903.77 392.33 785.93 507.65 876.50 602.75 955.75 585.27
00009686 00000010 772.45 175.81 380.39 559.48 810.65 410.65 900.11 397.01 781.57 508.68 868.71 600.52 947.53 586.19
00009687 00000011 773.22 176.10 376.08 554.84 810.75 411.68 899.62 399.02 782.23 509.05 866.11 599.16 944.87 585.64
00009688 00000012 771.11 170.91 377.58 558.25 816.66 415.86 900.72 397.74 787.83 506.97 873.00 598.04 947.45 580.04
00009689 00000013 768.72 172.80 379.53 554.01 813.04 415.16 901.01 397.71 787.76 507.06 869.01 596.71 945.34 579.74
00009690 00000014 765.13 171.68 378.74 556.85 807.63 417.30 899.12 398.62 785.66 507.96 864.94 596.48 944.94 578.44
00009691 00000015 766.11 172.58 377.21 558.34 808.58 417.44 897.31 397.96 785.11 510.18 868.98 598.46 947.14 579.35
00009692 00000016 766.21 173.01 381.22 565.88 811.20 417.52 898.04 394.19 785.20 507.79 873.67 602.24 951.42 578.92
00009693 00000017 766.49 173.58 381.17 565.94 813.40 417.97 899.68 392.63 788.17 507.17 878.02 602.90 956.46 577.70
00009694 00000018 770.04 180.80 378.87 554.97 806.40 413.02 899.53 393.66 780.56 510.65 869.57 602.89 950.81 583.61
00009695 00000019 770.56 174.07 383.97 559.14 817.17 412.36 907.91 388.76 794.33 503.85 876.52 601.72 954.26 579.54
00009696 00000020 775.28 170.40 375.88 552.89 819.75 413.35 908.90 391.86 796.43 502.04 871.21 602.06 940.78 582.92
00009697 00000021 778.23 168.61 377.13 553.39 827.02 411.12 910.57 393.27 797.22 500.23 872.51 600.74 936.14 584.48
00009698 00000022 779.33 170.18 379.93 554.67 826.64 409.79 912.14 390.49 797.22 498.82 873.17 602.27 938.45 584.64
00009699 00000023 777.31 168.55 381.87 565.46 826.60 409.12 914.64 387.60 799.17 497.50 876.97 604.87 946.51 584.50
00009700 00000024 777.26 168.35 381.67 567.95 828.69 409.78 915.63 387.50 799.96 497.21 877.48 607.19 944.67 586.18
00009701 DELETE   775.24 168.63 382.99 561.69 825.42 413.34 912.62 392.49 797.44 502.08 871.34 607.80 934.32 588.60
00009702 00000026 771.26 180.74 376.80 553.48 821.82 423.23 893.81 405.29 790.52 508.14 861.47 607.87 922.89 590.53
00009703 00000027 767.57 185.21 375.28 550.58 816.66 430.43 888.50 414.86 785.85 514.96 856.09 609.43 919.65 594.10
00009704 00000028 762.91 186.48 371.24 549.55 808.82 433.75 879.87 416.63 781.84 519.03 853.31 611.46 918.52 594.50
00009705 00000029 762.81 191.57 368.40 545.53 808.59 435.00 878.41 416.44 780.78 520.29 854.94 613.36 920.04 595.17
00009706 00000030 761.00 198.93 381.97 541.12 808.09 425.64 888.15 402.21 779.74 519.57 862.29 612.31 933.58 589.78
00009707 00000031 763.23 197.12 378.78 538.06 804.01 425.64 889.09 399.18 781.34 519.98 865.06 607.78 945.11 582.04
00009708 00000032 762.89 195.97 378.90 533.59 800.53 424.67 890.78 397.60 782.07 517.67 860.36 603.34 946.24 577.72
00009709 00000033 764.84 186.09 372.81 548.25 797.03 423.45 888.47 401.95 776.22 525.27 862.03 610.16 942.68 589.05
00009710 00000034 765.60 185.10 370.66 549.94 798.52 420.85 886.88 401.48 775.01 525.21 863.78 607.69 942.29 588.27
00009711 00000035 767.64 192.34 373.40 541.09 808.32 417.98 890.71 391.42 782.14 514.16 870.60 601.67 952.20 575.07
00009712 00000036 766.98 190.90 375.22 541.86 807.67 416.30 889.55 390.37 780.80 513.58 870.19 600.63 951.23 574.54
00009713 00000037 767.63 189.92 374.63 543.66 808.05 415.80 890.88 389.64 782.17 513.01 870.98 600.60 953.00 574.27
00009714 00000038 767.36 191.62 373.77 541.34 807.21 416.85 890.39 390.71 781.18 512.68 868.00 600.22 950.27 574.13
00009715 00000039 764.99 192.72 372.00 535.99 805.52 415.37 885.37 392.08 778.40 511.66 860.51 595.58 940.90 572.47
00009716 00000040 763.06 191.85 369.04 533.62 803.66 414.10 884.14 392.70 777.26 509.62 854.28 592.44 935.72 571.51
00009717 00000041 762.76 189.09 369.00 535.46 802.89 412.19 884.95 391.64 778.12 508.31 853.76 590.87 936.66 570.72
00009718 00000042 765.92 189.58 368.17 532.56 803.89 410.38 888.74 388.59 779.02 506.73 856.11 590.35 940.98 568.94
00009719 00000043 761.62 175.40 377.14 547.39 799.58 414.97 895.76 392.03 780.78 505.85 858.32 596.34 939.71 575.72
00009720 00000044 763.77 174.38 378.81 549.73 805.37 413.52 897.65 390.74 784.87 503.01 866.23 595.63 945.92 574.45
00009721 00000045 765.09 171.10 382.14 556.07 810.72 411.15 900.68 389.52 788.62 501.87 870.22 595.69 949.67 575.22
00009722 00000046 767.50 174.98 383.45 552.60 814.12 409.45 902.70 389.31 790.35 501.78 873.82 595.38 952.73 575.82
00009723 00000047 770.89 175.09 381.27 551.35 819.21 408.99 903.60 389.04 794.21 501.96 880.35 594.55 956.25 575.18
00009724 00000048 776.02 177.69 379.54 549.82 823.49 411.15 908.77 388.32 799.60 499.75 883.18 595.45 962.00 573.52
00009725 00000049 779.39 178.82 379.36 547.78 826.84 413.22 913.04 388.94 802.97 499.68 885.57 597.57 966.12 574.14
00009726 00000050 778.38 175.05 380.90 555.08 825.39 417.21 912.24 392.34 802.58 503.42 887.25 598.94 968.73 574.56
00009727 00000051 776.89 177.13 382.76 558.58 825.02 421.22 912.58 394.10 802.47 505.20 887.26 601.77 970.86 574.87
00009728 00000052 776.25 175.07 386.37 566.71 824.68 423.28 912.57 394.42 802.75 506.60 888.06 604.45 971.83 575.72
00009729 00000053 775.37 172.61 387.40 572.18 822.96 427.56 911.99 394.19 802.89 507.88 887.96 608.52 972.56 576.19
00009730 00000054 775.97 173.20 384.35 572.70 823.20 429.26 910.61 395.10 801.93 508.11 888.24 609.36 972.44 576.14
00009731 00000055 779.72 177.18 380.77 564.89 814.67 425.56 905.68 397.76 792.38 514.57 881.49 612.14 961.53 586.20
00009732 DELETE   779.94 180.00 373.89 561.93 814.60 430.04 903.12 403.34 792.89 520.45 881.83 617.68 957.22 593.33
00009733 00000057 776.71 178.77 372.54 561.30 816.86 431.78 904.54 413.10 797.57 521.47 873.22 618.52 943.12 600.92
00009734 00000058 774.03 184.19 373.05 554.57 813.43 432.08 905.49 415.45 795.51 525.10 870.38 617.84 943.69 601.70
00009735 00000059 770.61 190.96 372.56 550.70 811.33 433.08 904.10 415.95 794.25 526.73 871.62 618.30 944.07 601.14
00009736 00000060 769.75 191.53 370.54 551.09 805.75 434.18 903.25 414.32 790.79 529.13 872.77 618.57 951.87 599.07
00009737 00000061 768.37 195.16 372.68 549.66 803.08 436.97 904.78 414.89 792.38 531.59 873.06 617.71 959.31 595.86
00009738 00000062 767.17 199.35 374.78 548.16 802.72 439.42 907.46 416.79 795.62 533.92 872.41 618.30 962.57 595.75
00009739 00000063 766.61 204.85 371.54 545.63 802.38 443.87 910.41 419.62 797.90 536.44 871.30 620.88 964.86 597.01
00009740 00000064 768.22 213.69 367.61 543.05 811.45 452.99 906.16 419.89 802.22 535.33 884.62 623.52 979.80 589.35
00009741 00000065 765.99 212.80 369.96 544.60 811.22 456.63 905.43 424.75 806.69 539.02 885.97 623.87 980.12 590.80
00009742 00000066 766.73 217.40 367.23 540.68 811.53 457.00 903.92 427.96 806.08 541.30 886.58 623.49 979.96 592.57
00009743 00000067 765.73 219.85 364.97 538.50 810.48 456.18 903.31 428.64 805.34 543.80 886.04 623.47 980.04 593.56
00009744 00000068 768.31 226.43 362.48 532.38 811.62 457.35 902.50 431.10 805.72 544.94 885.94 623.78 978.46 595.04
00009745 00000069 768.27 223.90 362.40 535.94 812.02 457.58 901.27 431.98 805.29 547.02 886.59 624.77 978.08 596.42
00009746 00000070 766.95 221.74 363.77 539.70 810.38 458.41 900.14 433.15 804.28 548.17 885.08 626.43 975.47 598.52
00009747 00000071 763.21 216.80 367.73 544.05 802.81 456.63 905.80 437.71 804.44 555.24 877.16 627.75 965.03 607.95
00009748 00000072 762.38 216.36 365.53 543.27 804.30 458.53 904.11 440.68 806.00 556.09 877.81 628.31 961.98 609.55
00009749 00000073 761.24 221.01 369.54 534.40 806.14 460.54 904.19 443.63 808.38 554.80 875.84 630.08 954.47 612.44
00009750 00000074 759.86 219.83 369.17 532.51 805.52 461.32 903.62 444.90 808.99 555.49 876.55 629.54 954.82 612.28
00009751 00000075 760.19 222.84 370.13 529.40 805.50 462.97 906.24 445.76 810.12 554.57 875.07 629.26 955.66 611.31
00009752 00000076 764.62 223.52 367.65 526.77 799.46 469.77 904.95 438.31 806.58 548.41 871.29 635.95 955.12 609.87
00009753 00000077 762.63 226.84 369.28 523.29 795.60 473.33 906.47 439.03 806.98 547.74 867.97 637.10 957.37 608.73
00009754 00000078 762.30 225.56 369.17 524.50 794.85 473.06 907.25 438.77 806.88 547.97 866.58 636.99 957.11 608.63
00009755 00000079 761.61 228.33 369.61 519.96 799.98 476.10 907.59 443.81 812.99 547.39 867.35 634.97 962.90 605.09
00009756 00000080 763.41 225.45 369.74 523.64 798.82 469.41 904.32 437.87 805.69 546.45 869.32 634.73 952.67 608.78
00009757 00000081 764.13 225.47 369.01 523.85 798.76 468.28 903.68 436.21 804.84 545.54 869.68 635.09 952.46 608.74
00009758 00000082 764.23 224.32 369.20 524.98 799.68 467.77 903.92 436.31 805.27 545.51 870.45 634.75 952.58 608.85
00009759 00000083 763.60 225.92 368.49 522.75 803.87 474.24 904.58 441.91 811.39 546.08 868.92 635.21 959.52 605.49
00009760 00000084 764.62 227.66 368.45 521.06 799.92 467.42 904.78 436.61 806.09 545.88 870.15 634.61 952.04 609.40
00009761 00000085 764.09 229.09 368.02 519.27 798.98 467.03 904.48 436.58 805.61 546.55 869.57 634.47 951.99 609.56
00009762 00000086 763.20 229.89 367.53 518.28 804.06 471.22 905.19 442.88 811.93 548.64 867.75 633.42 957.96 606.87
00009763 00000087 764.29 226.85 368.30 521.47 799.74 466.49 906.08 438.17 806.97 548.30 869.66 633.51 952.47 610.18
00009764 00000088 764.32 224.52 367.69 523.40 799.45 465.58 906.81 437.52 807.36 548.81 869.37 633.40 952.42 610.30
00009765 00000089 764.41 224.76 366.50 523.18 799.02 466.22 908.11 437.99 808.47 549.34 869.21 633.12 955.45 609.74
00009766 00000090 764.68 224.59 367.75 524.27 799.49 466.23 909.33 438.04 809.06 549.54 868.79 632.96 957.18 609.53
00009767 00000091 764.25 224.78 370.52 528.85 800.46 465.09 910.68 438.03 809.48 548.89 868.37 634.13 956.95 611.63
00009768 00000092 765.28 223.98 373.27 539.30 804.21 465.84 908.10 436.68 809.56 547.40 873.34 640.64 954.01 616.69
00009769 00000093 765.47 224.11 373.98 550.65 805.74 467.63 906.00 436.74 808.98 552.71 878.47 650.86 956.17 625.11
00009770 00000094 764.79 225.52 375.93 552.36 807.38 467.21 909.65 436.82 812.62 554.56 882.31 652.20 963.22 626.19
00009771 00000095 766.94 226.11 377.63 551.05 808.64 466.74 913.23 436.33 813.81 554.32 885.81 648.79 974.01 622.05
00009772 00000096 768.43 220.55 376.16 549.81 808.26 462.48 912.59 433.21 811.37 547.02 883.28 641.55 973.03 615.67
00009773 00000097 770.45 215.89 374.20 540.98 808.73 457.20 915.42 433.03 810.79 541.94 877.14 631.33 965.48 610.49
00009774 00000098 770.11 213.94 376.28 535.29 808.73 461.65 917.17 432.63 813.48 534.74 870.70 627.56 964.60 600.23
00009775 00000099 767.69 213.77 380.36 532.81 805.56 462.56 915.68 432.81 812.61 534.63 865.86 625.87 960.89 598.16
00009776 00000100 764.73 213.65 377.85 533.21 802.56 464.59 911.31 434.13 810.21 536.24 863.78 626.16 959.42 597.82
00009777 DELETE   762.76 212.84 374.87 535.24 800.08 467.94 907.29 437.35 806.96 541.38 861.23 629.08 957.14 600.72
00009778 00000102 757.53 219.82 374.22 530.03 793.23 470.35 903.10 441.80 801.70 547.50 855.32 630.24 954.95 603.33
00009779 DELETE   752.30 227.63 377.45 528.95 790.32 473.65 899.80 445.26 797.66 556.07 851.62 634.31 954.75 607.55
00009780 DELETE   749.84 248.48 378.69 513.56 785.47 477.32 901.96 447.38 799.74 564.00 847.70 646.31 955.41 619.81
00009781 DELETE   749.83 236.97 381.81 525.89 789.57 480.65 898.84 451.42 799.55 564.52 851.26 640.66 957.32 612.94
00009782 00000106 750.80 248.98 378.06 515.01 786.71 476.45 903.99 449.78 802.30 566.38 848.79 647.24 957.04 623.33
00009783 00000107 756.01 247.65 372.96 523.20 788.36 475.25 901.33 444.38 800.92 565.50 858.42 648.36 966.62 620.16
CROP_BBOX: 525 0 1454 934
