Video ID: 	Z1hwRXg8i24
H: 	1080
W: 	1920
FPS: 	25.0

FRAME INDEX X0 Y0 W H [Landmarks (5 Points)]

00017101 00000000 574.25 193.11 442.67 670.77 768.44 473.84 933.03 416.37 950.50 542.28 817.44 690.84 974.99 644.64
00017102 DELETE   571.57 180.63 446.98 670.41 775.45 461.57 942.70 411.67 953.48 537.57 823.87 683.10 976.08 642.12
00017103 DELETE   571.53 179.44 446.30 662.11 777.04 452.53 952.26 412.70 954.46 529.91 820.52 669.60 980.79 635.98
00017104 DELETE   571.77 176.04 446.45 659.67 784.33 440.28 958.50 408.19 959.03 529.10 817.96 659.55 978.22 632.33
00017105 00000004 566.15 176.15 449.33 650.95 789.89 430.00 962.98 413.16 956.36 530.52 812.81 650.35 967.83 635.67
00017106 00000005 560.20 182.24 454.93 638.00 792.23 421.51 966.72 417.45 952.38 532.75 801.85 641.79 955.51 638.28
00017107 00000006 558.33 184.60 458.14 634.09 798.62 418.69 970.88 426.67 952.38 536.49 796.17 637.85 947.69 644.59
00017108 00000007 561.30 187.62 458.21 626.17 804.47 414.50 975.76 427.44 954.10 536.85 792.63 632.53 945.19 643.93
00017109 00000008 568.72 183.88 455.80 622.43 809.93 410.08 982.36 425.47 957.89 533.39 795.14 626.91 948.29 640.65
00017110 00000009 578.40 178.74 453.53 620.22 813.84 408.99 989.58 422.36 963.77 531.27 797.79 623.05 955.51 635.71
00017111 00000010 581.63 180.20 454.95 614.18 821.08 410.80 995.56 424.79 972.70 530.85 804.39 619.84 962.58 633.10
00017112 00000011 588.92 174.04 456.09 618.77 826.23 414.79 1003.07 426.70 976.99 536.00 809.59 620.29 970.53 631.66
00017113 00000012 599.91 176.40 456.51 621.01 837.71 416.96 1015.61 429.08 986.98 544.04 817.88 625.64 978.12 637.47
00017114 00000013 604.07 188.80 470.18 618.76 849.27 427.27 1025.20 436.73 1001.42 554.66 831.02 639.90 979.68 652.57
00017115 00000014 619.37 207.85 467.47 607.55 876.43 433.68 1043.15 458.28 1012.73 567.86 844.93 643.70 986.73 665.75
00017116 DELETE   637.12 199.18 468.95 617.41 878.75 435.24 1056.94 459.48 1015.63 577.04 844.85 648.71 994.09 673.08
00017117 00000016 652.98 210.02 466.79 612.52 891.48 441.58 1068.24 469.85 1025.32 586.38 850.18 652.68 998.72 681.23
00017118 00000017 663.44 215.00 469.46 612.31 899.15 446.30 1079.23 474.03 1033.01 596.45 858.42 656.70 1006.93 685.20
00017119 00000018 665.86 236.39 479.25 588.43 916.43 456.87 1081.96 476.31 1041.89 602.83 869.97 665.98 1011.44 685.12
00017120 00000019 671.94 241.18 483.95 583.48 923.84 462.79 1091.45 477.72 1051.29 608.36 877.39 668.86 1019.58 684.83
00017121 00000020 677.96 245.98 487.31 577.17 931.61 467.66 1098.58 478.21 1058.44 612.80 883.09 670.27 1023.93 683.35
00017122 00000021 690.52 238.40 485.10 585.85 931.13 465.59 1108.82 484.28 1057.10 618.54 887.11 668.22 1026.31 690.50
00017123 00000022 691.27 233.84 485.05 589.26 931.71 464.41 1110.56 481.61 1058.56 617.97 889.81 668.09 1028.29 689.19
00017124 00000023 690.81 234.39 485.30 585.01 931.32 463.39 1111.61 480.54 1059.52 614.62 890.54 666.65 1029.64 687.62
00017125 00000024 690.66 231.62 485.64 584.79 931.47 462.12 1111.80 482.50 1058.72 611.08 889.91 663.83 1028.76 687.15
00017126 00000025 686.39 227.64 484.98 588.22 926.39 457.86 1109.24 481.88 1055.50 605.28 885.83 660.98 1026.16 687.05
00017127 00000026 680.85 229.83 481.00 582.35 917.80 462.61 1097.66 487.41 1047.18 598.91 880.91 655.73 1022.09 682.38
00017128 00000027 674.56 223.82 481.66 587.32 909.89 457.96 1093.12 477.53 1042.89 597.49 874.72 657.12 1017.23 679.53
00017129 00000028 668.50 218.85 479.69 592.36 904.66 451.35 1087.38 471.81 1038.02 596.02 869.74 654.47 1011.75 677.26
00017130 00000029 660.10 218.35 481.27 591.95 897.41 448.32 1082.48 469.40 1032.85 595.37 862.03 655.89 1005.24 678.96
00017131 00000030 652.49 216.46 480.26 595.03 891.55 448.86 1077.05 470.38 1027.47 598.04 854.89 658.10 999.50 681.66
00017132 00000031 642.43 217.56 482.83 595.21 884.75 450.09 1069.73 472.03 1020.17 599.37 849.00 662.04 992.33 685.59
00017133 00000032 637.13 214.34 480.53 598.39 880.65 452.32 1065.44 472.55 1016.29 601.49 845.49 662.89 988.58 685.11
00017134 00000033 632.23 222.44 479.89 590.72 873.81 452.77 1058.08 474.36 1007.40 601.82 839.77 663.76 982.91 686.73
00017135 00000034 621.54 228.82 478.56 585.75 871.64 455.07 1048.73 470.88 1005.80 595.24 845.50 666.69 981.49 681.99
00017136 00000035 621.84 225.81 478.95 588.44 861.76 454.92 1042.62 468.63 994.68 598.75 842.21 670.26 972.54 686.28
00017137 00000036 612.32 224.13 479.79 589.24 851.74 456.42 1034.85 469.96 986.96 597.38 836.13 671.33 967.75 687.06
00017138 00000037 607.35 220.15 479.82 593.28 846.47 456.85 1031.22 470.00 983.80 597.07 833.80 672.16 966.06 687.47
00017139 00000038 605.44 218.26 478.97 596.06 842.98 455.09 1027.98 470.48 980.19 596.36 828.59 670.09 962.12 687.29
00017140 00000039 602.59 219.16 479.66 595.18 841.50 454.78 1025.50 469.31 978.95 597.81 822.44 668.92 956.82 685.80
00017141 00000040 600.20 220.06 479.17 593.77 839.10 454.32 1023.46 469.95 976.68 597.71 818.75 667.30 954.29 685.02
00017142 00000041 600.53 221.64 479.06 590.89 838.84 454.43 1024.06 471.02 975.99 597.79 817.86 666.39 954.42 684.82
00017143 00000042 601.74 222.25 476.92 590.13 839.38 453.89 1022.72 471.39 974.69 596.96 814.16 662.92 952.05 682.41
00017144 00000043 604.61 220.95 473.52 589.36 838.61 456.95 1022.45 474.05 972.12 597.93 810.39 659.66 949.79 679.05
00017145 00000044 606.02 221.50 472.39 585.93 836.24 464.86 1020.75 482.88 969.75 593.25 809.17 657.11 949.65 677.14
00017146 00000045 606.70 218.65 473.33 591.13 838.25 462.33 1021.34 478.17 972.49 594.14 810.26 657.42 950.41 675.91
00017147 00000046 607.33 211.10 474.99 598.30 839.56 455.51 1025.17 470.61 973.98 593.05 813.76 658.39 954.62 676.01
00017148 00000047 607.59 211.88 477.00 596.75 842.88 452.58 1026.11 463.85 978.99 591.06 817.60 658.11 956.49 673.05
00017149 00000048 607.32 209.91 477.39 598.24 844.37 449.79 1025.97 462.13 980.47 588.13 819.52 656.42 956.93 672.18
00017150 00000049 607.80 207.42 475.81 601.38 844.22 447.95 1025.38 463.13 979.26 586.08 819.16 655.56 957.01 673.34
00017151 00000050 607.46 207.01 476.41 602.93 844.03 449.01 1025.60 463.24 980.20 587.67 817.48 655.93 956.68 673.23
00017152 00000051 607.05 215.83 476.88 594.91 843.86 450.14 1025.19 464.45 979.86 590.60 814.63 654.97 954.82 672.80
00017153 00000052 606.49 212.94 475.26 598.21 842.63 447.42 1022.83 464.16 977.33 588.46 812.96 653.93 952.09 673.43
00017154 00000053 605.48 216.06 475.78 594.41 843.24 445.33 1022.21 463.27 977.91 587.65 813.07 652.07 951.18 672.65
00017155 00000054 603.51 214.56 475.14 595.51 841.21 443.62 1020.71 460.74 977.43 585.61 813.04 651.76 951.15 671.54
00017156 00000055 600.66 210.46 475.56 598.01 838.55 442.03 1019.13 459.35 975.21 583.23 811.82 650.09 950.43 669.65
00017157 00000056 599.15 210.97 473.17 595.66 837.37 439.04 1016.45 458.63 971.95 580.41 811.18 647.37 948.11 668.50
00017158 00000057 593.97 203.75 474.72 601.46 833.31 438.46 1014.11 455.98 970.39 578.25 807.57 647.52 945.80 666.79
00017159 00000058 593.25 206.90 473.64 595.86 831.73 437.58 1011.36 455.30 968.03 577.08 806.03 645.43 943.40 665.03
00017160 00000059 589.88 201.33 473.43 600.15 828.73 438.00 1009.78 454.65 966.21 576.05 802.36 645.87 941.13 664.52
00017161 00000060 586.72 203.14 474.18 598.49 825.53 437.46 1007.29 454.92 962.98 576.32 798.17 645.75 937.37 665.23
00017162 00000061 584.49 204.44 474.03 597.59 823.18 438.10 1004.79 454.37 961.72 576.39 794.74 645.38 935.69 664.09
00017163 00000062 582.00 205.45 474.85 597.54 821.72 438.15 1002.54 454.40 960.35 576.61 792.68 645.53 934.22 664.38
00017164 00000063 579.12 203.59 473.89 599.96 819.47 437.49 1000.74 456.79 957.72 575.69 790.81 645.96 932.35 666.87
00017165 00000064 578.12 205.93 473.22 597.69 817.73 437.50 999.15 456.42 956.30 576.40 789.98 646.88 931.46 667.52
00017166 00000065 577.63 208.23 473.08 595.03 817.12 437.28 997.61 457.07 954.91 576.20 789.20 646.49 930.19 667.79
00017167 00000066 577.28 208.93 472.97 593.66 816.65 437.24 997.14 456.76 954.40 576.54 789.03 646.72 929.70 667.81
00017168 00000067 577.13 209.37 472.69 593.27 815.20 437.44 996.19 455.66 952.91 576.17 788.32 646.86 929.47 666.96
00017169 00000068 576.23 206.41 473.52 596.45 815.40 436.87 996.83 455.50 953.50 575.74 787.62 646.42 929.72 666.71
00017170 00000069 576.31 206.31 473.71 596.21 815.04 435.43 996.24 455.43 952.12 575.06 787.51 645.98 928.97 667.25
00017171 00000070 575.92 208.28 474.09 594.85 815.32 435.87 995.63 455.46 952.58 575.55 788.10 646.40 929.08 667.40
00017172 00000071 576.98 210.54 472.88 591.50 815.60 437.96 995.31 457.36 952.01 576.07 787.77 646.15 928.68 667.10
00017173 00000072 577.16 210.70 473.14 591.61 815.60 437.94 996.31 456.95 952.50 576.55 787.47 646.13 929.53 666.85
00017174 00000073 577.14 208.64 473.55 594.13 815.99 438.41 997.11 457.84 953.27 576.41 787.63 646.68 929.97 667.65
00017175 00000074 577.12 208.56 474.04 594.18 815.91 438.12 997.52 459.35 952.26 576.28 787.79 646.29 930.02 668.56
00017176 00000075 577.06 207.75 474.59 594.55 815.69 437.01 997.56 458.28 952.18 575.87 787.91 646.26 930.01 668.47
00017177 00000076 576.64 206.80 474.31 595.09 815.55 435.66 997.74 457.10 953.00 574.59 788.31 645.79 930.78 668.10
00017178 00000077 577.30 206.33 475.54 594.81 817.24 435.32 999.52 456.53 955.39 573.28 791.28 644.83 932.96 666.95
00017179 00000078 578.80 208.18 474.38 592.78 818.10 434.88 1000.00 455.31 956.62 573.38 792.03 644.19 933.81 665.89
00017180 00000079 578.76 207.44 475.76 593.45 818.35 434.57 1000.88 455.29 957.22 573.06 792.74 644.49 934.60 666.34
00017181 00000080 579.28 208.20 475.90 593.58 818.96 434.97 1000.76 455.82 957.16 573.34 793.22 644.82 934.21 666.84
00017182 00000081 580.59 209.23 474.85 592.72 819.63 434.49 1000.78 456.12 957.20 574.19 793.91 644.83 934.29 667.49
00017183 00000082 580.74 208.56 476.18 593.56 819.64 435.04 1001.98 456.12 957.32 574.97 794.39 645.35 934.79 667.52
00017184 00000083 579.59 210.44 476.42 591.45 819.15 435.19 1001.66 456.11 957.66 574.95 793.77 645.22 935.17 667.40
00017185 00000084 579.03 206.82 476.15 595.02 818.65 434.76 1001.99 455.11 957.92 574.28 793.22 645.21 935.22 666.82
00017186 00000085 579.43 207.07 474.17 594.41 818.63 433.86 1000.69 455.08 957.17 573.18 792.37 644.06 934.40 666.37
00017187 00000086 579.12 207.81 474.00 593.09 817.99 433.73 1000.64 454.88 956.92 572.57 792.44 643.98 934.81 666.19
00017188 00000087 579.25 204.19 473.02 595.87 817.38 434.03 999.85 453.00 957.12 570.67 792.38 643.42 935.58 663.81
00017189 00000088 577.30 198.86 472.70 599.90 815.28 431.58 997.55 451.73 954.65 567.09 791.65 642.31 934.61 663.20
00017190 00000089 576.44 196.83 468.53 597.37 811.94 429.43 995.68 449.56 951.80 561.52 791.76 637.93 937.07 658.29
00017191 00000090 582.48 194.33 461.61 596.52 818.93 422.79 1001.22 446.59 955.72 562.50 800.96 635.58 947.74 656.26
00017192 00000091 581.04 190.03 461.35 595.54 811.07 417.01 999.25 436.38 952.22 555.53 801.20 635.85 948.76 652.63
00017193 00000092 577.47 177.12 458.39 594.05 795.94 415.95 988.15 419.51 941.53 544.10 802.92 630.82 951.49 635.71
00017194 00000093 574.33 166.92 457.44 600.24 794.08 406.10 983.00 411.67 938.67 532.69 803.50 622.24 952.01 627.69
00017195 00000094 572.29 158.77 457.55 605.49 791.62 399.62 982.58 403.83 939.16 525.47 806.43 619.36 954.90 622.80
00017196 00000095 569.73 152.30 458.60 612.58 789.54 393.46 980.70 401.51 938.17 518.89 806.20 617.33 953.23 623.24
00017197 00000096 567.50 147.58 458.16 618.53 786.68 388.67 977.08 397.98 937.41 512.58 804.30 615.47 951.06 622.24
00017198 00000097 564.95 144.96 456.67 624.60 784.15 386.17 971.76 393.00 936.11 509.90 800.03 615.32 946.69 620.28
00017199 00000098 563.57 143.12 452.20 625.64 781.77 384.11 966.03 389.87 933.07 507.37 794.20 612.79 938.72 617.31
00017200 00000099 561.56 143.21 449.13 623.04 775.36 384.91 959.02 387.36 928.66 504.42 787.81 608.42 936.71 610.31
00017201 00000100 564.06 130.62 447.89 630.09 763.68 384.21 953.09 379.36 918.09 497.41 787.35 601.73 942.51 599.33
00017202 00000101 560.08 127.85 448.72 628.70 755.76 379.39 948.04 373.95 912.04 492.26 783.64 597.94 942.42 595.00
00017203 00000102 552.64 137.65 444.59 610.08 749.54 375.39 946.92 370.33 910.89 489.28 773.28 595.90 940.19 591.26
00017204 00000103 547.98 132.14 445.22 610.12 745.28 372.66 942.99 366.43 906.73 484.20 770.81 591.76 936.87 585.78
00017205 00000104 542.94 118.12 445.82 616.93 738.11 367.44 940.79 356.78 903.75 477.99 766.11 589.00 936.58 579.28
CROP_BBOX: 263 0 1398 1034
