Video ID: 	5FmXjHQTQs0
H: 	1080
W: 	1920
FPS: 	25.0

FRAME INDEX X0 Y0 W H [Landmarks (5 Points)]

00004295 00000000 846.11 252.38 371.62 519.00 1053.06 436.36 1192.23 445.36 1190.40 538.28 1048.98 624.07 1164.67 633.72
00004296 00000001 849.93 248.07 368.44 521.12 1062.08 439.15 1196.31 450.22 1195.43 541.77 1053.19 623.79 1165.28 635.56
00004297 DELETE   852.65 247.52 368.44 515.91 1066.64 435.61 1198.87 447.30 1199.60 540.26 1054.04 619.47 1165.38 632.56
00004298 00000003 850.97 258.93 370.02 503.62 1064.45 434.27 1198.59 448.61 1194.98 541.50 1052.13 616.44 1165.87 631.29
00004299 00000004 848.37 258.10 368.42 500.54 1061.46 427.75 1193.43 444.34 1193.45 534.58 1052.10 611.91 1164.02 628.36
00004300 00000005 840.46 269.19 373.21 493.11 1052.78 424.82 1185.04 447.92 1184.39 531.19 1045.88 609.48 1157.37 630.00
00004301 00000006 835.21 262.99 373.51 504.58 1045.93 424.35 1181.68 450.90 1176.60 530.56 1039.97 611.12 1151.70 633.71
00004302 00000007 831.26 255.56 372.19 511.05 1040.69 424.83 1179.14 450.80 1172.79 530.47 1037.26 611.53 1150.23 633.24
00004303 00000008 830.92 252.23 372.17 512.95 1040.86 425.64 1178.26 448.05 1176.22 529.78 1037.73 612.55 1150.31 631.79
00004304 DELETE   833.54 251.85 372.67 514.36 1045.40 431.07 1180.84 447.61 1184.88 530.47 1043.52 615.23 1156.96 630.44
00004305 00000010 836.76 252.34 371.44 512.70 1051.83 434.83 1181.22 444.54 1193.24 533.44 1048.90 616.50 1159.76 627.14
00004306 00000011 841.94 249.60 369.31 515.43 1057.62 438.08 1187.86 447.09 1197.67 535.89 1052.24 617.97 1165.09 628.41
00004307 00000012 849.35 255.36 365.22 512.46 1062.20 445.27 1190.41 454.13 1198.72 542.66 1052.97 620.47 1165.40 631.24
00004308 00000013 853.53 256.30 363.54 510.16 1064.78 447.95 1193.56 457.25 1198.72 546.40 1051.25 620.08 1166.11 631.72
00004309 00000014 854.03 249.21 365.25 516.20 1069.48 444.78 1196.85 454.33 1205.35 544.39 1054.22 617.23 1168.87 629.86
00004310 00000015 854.09 248.00 367.02 509.89 1071.23 436.72 1197.03 442.48 1212.57 537.76 1058.10 611.74 1170.97 621.84
00004311 DELETE   851.61 256.68 371.20 495.06 1065.43 430.92 1196.72 437.91 1209.62 532.87 1056.56 606.77 1174.70 617.15
00004312 DELETE   849.17 262.79 370.08 491.39 1061.09 432.63 1189.59 439.71 1203.42 534.27 1051.04 606.41 1170.16 616.96
00004313 00000018 844.99 256.06 369.09 507.39 1056.78 441.30 1189.52 449.39 1198.19 539.54 1044.77 611.12 1169.29 622.44
00004314 00000019 845.58 253.35 367.61 517.97 1055.91 450.96 1189.25 457.32 1194.34 547.53 1037.58 616.19 1164.93 626.75
00004315 00000020 845.16 250.49 367.64 520.71 1056.63 452.23 1188.22 457.06 1195.73 548.40 1036.71 616.95 1163.80 626.82
00004316 00000021 845.86 253.62 366.92 517.23 1056.35 451.86 1188.61 455.09 1198.22 548.74 1036.89 615.77 1165.85 624.46
00004317 DELETE   841.58 251.56 370.26 515.81 1052.22 447.52 1184.98 448.66 1197.08 543.59 1036.34 614.08 1164.11 621.00
00004318 00000023 849.97 265.71 357.02 489.31 1054.65 433.90 1190.79 441.80 1190.08 537.85 1039.14 614.83 1163.22 625.63
00004319 00000024 833.38 249.13 370.71 511.26 1040.71 430.17 1177.81 436.85 1175.21 528.68 1028.82 612.76 1159.61 620.96
00004320 00000025 837.96 255.80 354.81 498.57 1043.87 428.40 1180.31 435.65 1178.73 537.00 1029.66 614.77 1152.30 624.92
00004321 00000026 834.80 258.36 358.88 500.22 1043.17 425.28 1180.21 438.48 1177.07 536.86 1028.01 615.63 1149.64 630.67
00004322 00000027 833.99 250.06 367.00 524.85 1041.10 431.63 1174.88 441.90 1175.64 534.24 1030.70 618.89 1152.47 630.18
00004323 00000028 833.92 253.17 357.99 525.59 1040.18 436.23 1168.65 446.88 1168.75 536.75 1034.15 625.86 1147.38 636.79
00004324 00000029 832.34 251.58 360.01 525.31 1039.35 438.24 1168.58 445.18 1170.29 536.97 1038.65 628.20 1151.55 635.49
00004325 00000030 829.32 251.08 362.56 519.75 1034.71 435.84 1169.73 441.29 1168.52 533.42 1039.28 627.68 1153.46 633.47
00004326 00000031 828.94 261.26 358.85 508.61 1031.01 432.88 1166.47 443.42 1163.39 530.12 1035.60 625.08 1149.64 634.93
00004327 00000032 827.56 261.13 358.66 515.12 1026.16 429.77 1164.35 445.48 1158.92 530.14 1025.73 623.16 1145.74 638.09
00004328 00000033 827.99 263.44 359.13 515.86 1026.75 428.88 1163.22 445.88 1160.04 531.16 1019.82 621.56 1142.12 638.57
00004329 00000034 830.03 263.98 359.93 516.25 1030.18 432.50 1164.13 448.93 1162.59 533.48 1019.80 620.84 1142.44 637.83
00004330 00000035 827.27 246.19 360.49 531.86 1031.99 439.97 1166.03 451.12 1167.03 538.39 1020.43 623.25 1144.04 636.15
00004331 00000036 830.71 250.09 352.89 513.86 1038.07 446.02 1172.46 460.20 1170.25 541.38 1027.96 624.09 1148.01 639.67
00004332 00000037 831.67 255.66 352.16 509.68 1037.77 444.59 1171.26 454.15 1172.54 542.37 1030.42 626.30 1148.96 638.33
00004333 00000038 829.57 250.10 361.63 524.73 1033.33 443.52 1168.46 451.50 1168.89 542.26 1022.00 624.63 1146.39 634.74
00004334 00000039 825.80 252.60 360.33 524.57 1029.39 442.86 1164.88 451.29 1165.25 539.61 1020.84 625.76 1144.29 636.10
00004335 00000040 821.95 249.43 358.18 525.37 1022.40 445.64 1160.65 452.35 1159.78 538.76 1018.83 627.51 1141.73 636.20
00004336 00000041 815.58 242.78 359.55 526.37 1016.21 447.73 1158.60 453.12 1155.30 537.31 1020.20 629.89 1140.02 636.81
00004337 00000042 810.84 240.59 360.28 526.32 1011.84 449.72 1153.08 457.20 1148.13 535.70 1017.83 629.82 1134.27 638.05
00004338 00000043 806.32 242.80 362.34 523.61 1007.64 449.95 1149.90 459.69 1143.14 536.86 1014.60 630.40 1129.48 640.45
00004339 00000044 798.38 241.27 360.43 526.50 999.22 452.28 1138.93 460.89 1134.40 537.53 1011.14 632.04 1121.01 640.69
00004340 00000045 785.03 254.18 363.95 513.26 990.82 449.73 1124.47 455.61 1127.06 535.30 1005.08 628.42 1110.63 634.58
00004341 00000046 773.39 247.89 366.48 520.05 984.93 448.67 1112.07 450.49 1122.30 530.69 1001.95 625.72 1102.16 628.05
00004342 00000047 765.22 234.12 369.11 532.61 981.05 455.60 1109.35 456.49 1118.60 527.72 999.41 624.70 1101.88 626.27
00004343 00000048 762.27 230.36 370.72 537.43 980.62 453.35 1110.82 457.52 1118.87 527.70 996.59 623.71 1101.43 627.94
00004344 00000049 760.60 225.08 367.29 539.76 980.62 446.75 1102.38 444.30 1121.73 526.09 997.11 623.94 1094.52 623.50
00004345 00000050 760.79 228.67 369.59 534.99 978.76 443.63 1103.96 440.54 1119.66 526.33 997.75 624.57 1095.21 623.01
00004346 00000051 763.17 231.25 371.00 533.21 979.66 444.35 1107.78 441.44 1120.59 527.33 998.20 625.00 1098.39 623.61
00004347 00000052 763.78 232.84 370.49 530.36 980.08 443.25 1106.54 440.12 1120.89 526.72 998.74 624.56 1097.23 622.97
00004348 00000053 764.47 238.31 371.73 524.60 981.23 442.20 1108.62 440.38 1122.69 526.58 1000.40 623.76 1099.70 623.09
00004349 00000054 764.91 235.18 370.36 526.45 982.08 442.63 1108.99 440.77 1123.10 527.26 999.97 623.63 1099.56 623.20
00004350 00000055 765.68 236.52 370.70 524.26 983.07 443.99 1109.26 442.52 1122.58 527.83 999.28 622.81 1099.25 622.86
00004351 00000056 765.19 238.25 368.82 523.89 983.67 448.12 1106.00 444.49 1123.71 529.25 998.65 623.18 1096.83 621.96
00004352 00000057 764.77 238.81 369.05 521.07 983.10 446.37 1106.94 443.81 1123.55 529.33 998.17 621.87 1097.13 621.45
00004353 00000058 764.88 238.43 368.25 521.92 984.74 449.77 1105.63 444.81 1124.16 531.14 998.57 622.99 1095.47 620.92
00004354 00000059 765.40 235.45 366.62 525.10 983.90 450.67 1105.57 446.16 1123.33 531.39 997.37 623.53 1094.81 621.95
00004355 00000060 771.12 240.81 356.73 515.88 985.71 445.46 1109.01 437.77 1126.93 534.05 998.77 630.22 1098.54 628.25
00004356 00000061 768.78 245.10 356.37 511.90 983.96 446.23 1110.07 441.90 1124.00 536.70 995.11 631.85 1096.85 632.48
00004357 00000062 756.59 236.81 367.79 523.51 975.50 449.94 1098.48 450.38 1115.74 528.50 993.23 622.33 1090.51 623.60
00004358 00000063 756.17 239.09 368.04 519.53 975.87 447.15 1095.92 444.73 1117.93 527.86 994.95 621.85 1089.73 620.92
00004359 00000064 755.37 238.41 368.98 519.02 976.00 447.32 1094.66 443.92 1117.93 527.73 995.08 621.91 1088.34 620.28
00004360 00000065 755.71 243.26 368.54 513.47 975.47 448.36 1092.99 446.27 1116.54 527.92 994.06 620.59 1086.78 620.09
00004361 00000066 754.96 243.11 366.86 513.18 975.96 449.27 1090.67 447.15 1117.23 528.06 993.69 619.90 1085.12 619.66
00004362 00000067 756.42 251.05 365.79 506.62 976.28 451.50 1091.87 450.43 1117.68 529.89 993.78 620.06 1086.45 620.46
00004363 00000068 757.53 248.02 365.48 508.60 977.61 450.82 1092.65 449.09 1118.54 529.96 994.30 620.54 1085.93 620.58
00004364 00000069 756.92 251.31 365.02 506.47 974.76 452.47 1089.12 448.84 1117.38 530.48 991.90 620.91 1083.40 619.57
00004365 00000070 755.73 256.34 366.76 502.24 974.28 454.37 1088.40 450.76 1115.31 532.46 991.27 621.12 1082.52 619.65
00004366 00000071 752.95 259.07 367.14 499.83 972.13 455.54 1086.14 451.83 1113.85 534.13 989.20 621.35 1080.99 619.82
00004367 00000072 750.28 258.63 366.31 497.60 970.77 450.51 1082.75 449.15 1110.41 532.64 988.35 619.05 1077.64 619.24
00004368 00000073 753.04 263.52 358.83 488.71 973.04 443.46 1091.67 438.84 1113.78 537.48 985.93 627.96 1079.77 629.22
00004369 00000074 752.08 257.34 366.24 502.37 966.88 448.90 1088.65 441.78 1104.66 536.92 973.41 625.51 1074.35 622.59
00004370 00000075 748.55 252.53 366.65 504.42 962.55 445.57 1085.79 437.61 1102.28 533.16 970.28 625.08 1071.19 621.70
00004371 00000076 749.25 252.92 365.07 503.54 962.27 445.42 1086.02 437.82 1101.85 533.88 969.49 625.30 1069.97 622.28
00004372 00000077 747.12 253.59 366.83 502.90 961.43 445.85 1085.82 438.22 1101.07 533.67 968.98 625.54 1069.76 622.29
00004373 00000078 745.55 250.15 365.70 504.23 960.71 444.19 1084.09 437.89 1100.79 532.38 968.44 624.82 1067.09 622.77
00004374 00000079 745.95 249.59 364.59 504.44 961.26 443.11 1084.22 437.12 1100.88 532.33 968.29 624.84 1066.13 623.20
00004375 00000080 745.70 252.96 365.50 501.77 960.97 443.63 1084.52 436.68 1102.14 532.17 969.15 625.73 1067.54 623.33
00004376 00000081 745.78 253.40 365.13 502.11 960.76 444.46 1085.20 439.06 1101.41 532.77 968.13 625.50 1068.24 624.32
00004377 00000082 744.18 254.31 364.71 500.61 957.17 444.46 1084.47 439.22 1097.82 533.61 965.45 626.49 1067.52 625.28
00004378 00000083 744.61 250.48 363.11 504.78 958.65 445.82 1084.36 440.01 1099.97 533.89 966.14 626.54 1067.55 624.98
00004379 00000084 744.33 246.66 363.77 509.81 960.09 446.84 1084.95 439.92 1101.79 534.52 966.60 627.23 1068.05 624.82
00004380 00000085 745.13 249.12 365.18 509.00 960.96 447.53 1085.60 440.10 1102.77 535.03 967.93 627.69 1069.58 624.63
00004381 00000086 745.75 249.65 366.21 508.41 962.34 447.99 1087.07 440.82 1103.73 535.77 967.93 627.02 1070.24 624.32
00004382 00000087 746.59 253.40 367.92 506.94 963.28 450.64 1087.73 442.65 1104.91 538.23 967.27 626.86 1071.67 623.76
00004383 00000088 747.59 261.84 357.58 486.06 966.87 447.26 1087.36 439.50 1105.84 538.94 976.15 626.39 1073.10 625.72
00004384 00000089 747.23 256.13 367.86 503.24 963.91 450.19 1088.08 442.35 1105.17 537.89 968.95 627.41 1071.91 624.29
00004385 00000090 749.27 263.03 358.01 485.59 968.56 448.38 1090.53 440.03 1109.76 539.61 981.07 628.52 1078.96 627.10
00004386 00000091 750.65 266.21 357.99 483.46 969.80 448.79 1091.20 440.22 1110.70 540.47 981.60 629.03 1079.10 627.53
00004387 00000092 741.82 258.00 371.47 497.44 967.99 457.65 1079.44 450.35 1111.46 536.49 983.84 622.49 1073.43 618.37
00004388 00000093 744.11 260.04 370.81 494.28 968.79 457.57 1080.23 449.65 1112.90 536.11 985.78 622.23 1075.28 617.65
00004389 00000094 745.97 261.03 371.71 489.63 971.55 450.48 1080.66 445.69 1117.06 532.25 988.51 617.81 1075.88 615.65
00004390 00000095 747.18 252.58 368.18 488.74 971.65 439.61 1078.24 436.45 1116.59 523.42 991.96 609.59 1075.90 608.45
00004391 00000096 757.97 251.12 365.09 490.77 971.45 431.15 1096.50 423.18 1113.68 521.81 987.07 616.68 1086.10 611.48
00004392 00000097 742.09 245.52 372.40 493.40 968.79 436.73 1082.76 430.30 1121.49 518.79 988.85 603.69 1080.60 600.86
00004393 00000098 741.67 240.26 371.24 497.75 966.07 437.63 1081.65 429.33 1120.82 518.42 988.12 604.08 1079.98 599.91
00004394 00000099 753.05 248.83 366.61 494.07 967.12 433.43 1092.56 423.51 1112.00 523.90 983.50 618.33 1082.47 612.13
00004395 00000100 752.13 248.98 366.52 495.92 966.65 435.73 1092.07 426.52 1111.32 525.21 981.53 619.87 1081.16 614.47
00004396 00000101 751.24 249.25 366.70 493.65 965.32 433.84 1091.67 424.99 1109.75 524.96 980.78 619.39 1079.55 614.25
00004397 00000102 740.69 239.66 372.06 500.08 964.02 437.54 1081.55 428.74 1119.13 519.45 986.74 605.84 1079.40 601.34
00004398 00000103 739.99 233.69 373.89 502.73 962.73 437.54 1079.88 424.79 1122.70 516.54 989.28 603.92 1080.90 596.58
00004399 00000104 738.51 233.28 375.07 500.12 959.72 432.74 1081.06 422.31 1120.60 513.64 988.23 600.46 1083.60 594.57
00004400 00000105 736.37 237.74 376.29 497.78 959.26 431.31 1079.93 421.02 1118.47 516.60 986.16 602.87 1080.47 597.20
00004401 00000106 746.78 251.83 368.42 489.90 961.25 432.47 1086.49 422.07 1107.30 523.58 979.68 619.85 1076.41 613.72
00004402 00000107 746.61 248.71 369.85 500.85 962.82 438.58 1085.94 430.04 1107.62 527.23 976.25 622.51 1074.22 618.58
00004403 00000108 747.01 257.14 371.72 494.95 963.18 440.81 1086.26 430.80 1108.78 528.06 978.06 623.89 1075.98 618.47
00004404 00000109 747.91 256.95 370.23 490.79 963.32 436.73 1087.39 428.19 1106.87 526.97 977.99 622.21 1074.99 617.92
00004405 00000110 743.88 265.16 362.44 470.35 959.17 421.21 1084.99 419.99 1104.89 521.84 976.62 613.47 1076.37 616.96
00004406 00000111 733.73 242.95 368.81 492.33 945.67 422.43 1073.23 421.17 1103.93 510.47 974.08 597.39 1078.09 598.60
00004407 00000112 732.22 238.93 366.42 490.65 944.72 419.90 1067.53 418.40 1085.82 503.52 957.41 602.00 1062.59 604.00
00004408 00000113 724.53 238.68 367.18 489.67 937.88 418.67 1059.38 414.88 1079.89 504.44 950.52 601.48 1054.12 602.37
00004409 00000114 716.31 238.79 367.45 490.45 926.19 418.20 1056.11 410.24 1077.46 510.69 949.36 607.93 1048.25 603.83
00004410 00000115 704.24 244.61 370.96 485.57 917.99 417.39 1042.56 409.92 1073.17 510.93 945.39 608.77 1036.45 604.92
00004411 DELETE   693.18 245.59 371.45 486.98 911.47 419.79 1028.58 413.28 1065.01 511.59 937.46 606.25 1024.75 602.98
00004412 00000117 680.05 244.68 370.18 490.39 901.96 435.45 1015.77 423.43 1059.76 511.99 927.05 599.83 1018.15 592.93
00004413 00000118 673.51 239.92 372.21 492.71 894.49 434.36 1013.16 426.06 1053.30 512.05 919.73 598.56 1014.72 594.38
00004414 00000119 668.04 234.76 374.49 500.08 888.11 432.78 1010.65 426.48 1048.28 512.92 915.98 599.80 1013.77 597.04
CROP_BBOX: 529 0 1371 908
