Video ID: 	hGFqQTIM7Gs
H: 	1080
W: 	1920
FPS: 	25.0

FRAME INDEX X0 Y0 W H [Landmarks (5 Points)]

00001882 00000000 929.86 247.95 426.14 580.70 1023.56 496.73 1205.07 479.62 1113.84 615.72 1076.71 699.68 1220.82 684.00
00001883 00000001 925.05 245.48 428.42 585.98 1017.38 497.96 1199.47 481.27 1108.20 616.46 1072.78 701.08 1218.28 685.76
00001884 00000002 923.90 247.95 426.79 583.32 1016.31 498.89 1198.48 481.29 1107.97 615.37 1071.13 700.18 1218.46 683.92
00001885 00000003 922.08 249.04 427.28 588.09 1014.45 500.66 1196.18 483.21 1105.63 617.36 1068.64 701.86 1217.61 685.66
00001886 00000004 918.62 257.25 427.86 587.01 1012.79 502.31 1196.56 487.11 1104.18 622.61 1064.61 704.22 1215.69 690.14
00001887 00000005 913.36 258.14 430.49 588.53 1005.46 502.35 1192.56 488.83 1095.82 627.56 1058.80 707.12 1213.72 694.77
00001888 00000006 910.61 265.24 431.27 579.57 1001.46 503.77 1186.68 491.95 1089.25 630.12 1056.04 709.02 1205.87 698.28
00001889 00000007 907.21 266.76 432.60 574.99 998.08 504.58 1184.02 491.33 1086.11 631.67 1054.02 710.24 1201.87 698.55
00001890 00000008 905.13 266.52 433.45 572.62 996.12 503.74 1181.86 490.51 1084.39 632.77 1053.91 711.60 1198.04 700.08
00001891 00000009 904.78 265.63 433.55 575.11 996.71 504.56 1182.14 491.08 1085.14 635.17 1056.52 715.56 1197.09 704.06
00001892 00000010 906.07 267.15 431.73 574.24 998.68 505.79 1183.87 494.32 1085.97 639.55 1059.61 719.77 1195.68 710.15
00001893 00000011 906.88 270.20 429.30 578.27 1000.00 506.77 1185.67 497.26 1086.63 645.45 1061.83 725.92 1195.26 718.29
00001894 00000012 909.56 265.61 425.16 583.88 1002.16 504.85 1186.90 497.73 1086.98 643.46 1060.67 724.46 1194.01 718.76
00001895 DELETE   916.85 252.02 425.89 591.66 1006.91 499.47 1194.09 487.69 1094.21 625.50 1057.88 710.03 1205.97 699.35
00001896 DELETE   923.37 236.61 424.66 586.47 1022.71 486.12 1210.17 472.01 1118.98 605.92 1067.47 691.71 1219.30 678.70
00001897 DELETE   934.24 223.61 421.95 591.28 1032.30 474.81 1222.71 463.23 1130.07 589.93 1070.73 680.19 1229.12 669.32
00001898 00000016 940.92 210.66 418.73 596.93 1038.03 469.47 1227.89 457.10 1135.34 582.09 1074.41 672.69 1234.32 661.10
00001899 00000017 943.14 206.68 417.29 594.27 1038.99 466.01 1225.80 452.68 1135.25 577.14 1075.78 667.73 1232.67 655.25
00001900 00000018 944.96 207.14 418.81 588.74 1039.39 466.17 1226.30 451.46 1134.81 577.48 1078.57 667.83 1233.08 653.85
00001901 00000019 949.38 212.46 423.20 590.59 1045.77 462.07 1237.36 451.46 1137.32 575.43 1083.12 663.04 1239.19 655.33
00001902 00000020 954.06 211.66 423.79 591.33 1048.85 459.92 1240.42 449.40 1140.50 573.36 1085.89 661.47 1242.86 653.54
00001903 00000021 955.73 209.22 426.67 595.02 1052.20 455.62 1243.76 443.68 1145.83 571.02 1091.22 659.20 1249.91 649.80
00001904 00000022 958.42 206.74 426.43 596.30 1054.47 450.09 1245.96 438.11 1148.83 567.02 1091.65 653.86 1254.76 644.39
00001905 00000023 961.08 201.60 425.42 596.58 1055.22 445.12 1248.24 434.18 1149.44 562.70 1091.55 650.24 1256.58 641.66
00001906 00000024 962.00 200.01 426.40 592.64 1056.63 439.96 1250.83 430.59 1149.73 556.90 1090.47 645.07 1256.80 637.72
00001907 00000025 963.60 199.57 426.56 590.52 1057.52 438.29 1253.14 428.04 1150.73 555.29 1092.18 643.30 1260.65 634.96
00001908 00000026 966.25 200.31 425.86 587.34 1059.98 436.39 1255.70 426.89 1152.21 553.94 1094.64 642.63 1261.72 634.71
00001909 00000027 966.29 199.97 425.67 586.29 1059.68 436.18 1255.47 426.80 1151.92 553.99 1095.30 643.01 1261.26 635.15
00001910 00000028 965.26 199.01 425.16 586.49 1058.27 436.45 1253.56 426.41 1150.67 554.07 1094.81 643.39 1259.99 635.03
00001911 00000029 963.94 199.34 424.71 586.20 1056.65 436.00 1251.18 425.94 1148.55 554.47 1094.09 643.91 1257.62 635.58
00001912 00000030 963.10 197.20 423.09 589.12 1055.02 436.42 1249.11 425.75 1147.72 553.72 1092.99 645.07 1255.75 636.31
00001913 00000031 962.20 198.14 422.50 590.28 1053.89 436.87 1246.62 426.83 1145.95 553.81 1091.32 645.75 1252.87 637.64
00001914 00000032 960.87 200.04 422.59 589.87 1052.09 438.77 1245.20 428.23 1144.45 553.93 1088.90 646.10 1252.07 637.73
00001915 00000033 959.75 200.78 422.71 589.29 1050.76 440.91 1243.15 429.57 1142.98 556.06 1088.69 647.22 1251.26 638.26
00001916 00000034 958.68 199.54 422.57 590.03 1049.89 443.18 1243.17 431.65 1142.39 558.43 1087.46 647.65 1250.93 638.55
00001917 00000035 957.41 200.27 422.86 589.67 1048.62 445.20 1243.42 433.21 1141.75 560.60 1085.42 647.71 1251.00 638.29
00001918 00000036 956.41 201.89 424.27 589.31 1047.79 447.82 1242.38 434.99 1140.16 562.72 1084.71 648.79 1250.17 638.68
00001919 00000037 955.22 205.69 425.13 587.86 1047.47 448.65 1240.07 436.19 1138.34 563.15 1085.09 650.68 1246.57 641.01
00001920 00000038 953.44 209.19 427.76 586.60 1046.36 449.36 1238.29 437.74 1135.86 564.53 1086.11 652.75 1244.53 643.75
00001921 00000039 953.18 208.20 428.87 588.65 1046.10 450.84 1238.91 438.41 1136.12 565.23 1086.02 654.31 1244.95 644.67
00001922 00000040 954.05 209.29 427.70 587.51 1047.26 452.53 1239.44 439.10 1137.93 566.02 1087.70 655.14 1246.06 644.66
00001923 00000041 954.35 210.72 428.15 586.19 1047.99 454.65 1240.83 439.90 1139.73 569.08 1089.83 656.31 1248.72 644.80
00001924 00000042 954.68 212.38 428.02 583.91 1048.45 457.25 1241.26 441.84 1139.98 571.18 1090.57 657.26 1248.75 645.15
00001925 00000043 954.06 213.03 429.38 586.29 1048.38 459.22 1240.07 443.54 1139.86 574.41 1090.69 659.34 1248.00 646.88
00001926 00000044 954.65 214.43 429.87 586.90 1048.40 460.71 1239.77 445.28 1138.83 575.65 1090.83 661.29 1246.86 649.01
00001927 00000045 955.79 215.63 430.08 589.11 1049.14 461.83 1239.73 446.21 1139.24 576.56 1091.75 663.23 1247.61 650.62
00001928 00000046 956.91 215.87 430.48 590.69 1049.64 462.35 1240.35 445.96 1139.99 576.76 1093.26 663.80 1249.71 650.40
00001929 00000047 957.23 214.15 430.72 594.27 1050.00 462.09 1241.75 445.31 1141.11 577.11 1094.19 664.39 1251.94 650.68
00001930 00000048 960.87 220.47 425.10 589.90 1050.24 462.93 1239.13 445.03 1145.53 577.83 1094.89 671.36 1248.78 656.09
00001931 00000049 958.32 215.32 431.14 595.38 1051.09 462.78 1242.88 445.67 1141.79 578.14 1095.61 666.12 1253.37 652.09
00001932 00000050 959.17 216.09 430.20 589.16 1050.95 463.12 1243.05 447.14 1140.95 579.23 1094.25 664.34 1251.87 651.22
00001933 00000051 958.51 215.44 429.41 587.47 1049.52 463.39 1242.75 447.79 1139.46 579.75 1092.13 664.74 1250.21 652.01
00001934 00000052 957.99 216.00 428.90 587.98 1048.31 463.96 1241.32 448.88 1137.11 578.69 1091.06 666.24 1247.55 654.02
00001935 00000053 955.77 216.98 429.34 591.22 1044.39 462.14 1235.75 447.36 1131.71 577.71 1089.37 669.75 1242.74 657.93
00001936 00000054 952.45 215.81 431.52 593.07 1040.28 457.45 1229.53 443.70 1123.96 574.60 1084.97 667.46 1235.04 656.90
00001937 00000055 953.38 219.11 429.30 584.73 1029.36 455.93 1221.71 438.91 1115.78 580.82 1081.02 669.94 1225.85 656.20
00001938 00000056 949.05 219.45 431.81 583.49 1022.03 456.10 1214.24 435.35 1108.83 579.32 1076.53 668.84 1222.96 652.08
00001939 00000057 944.42 218.48 431.48 582.79 1015.37 458.31 1209.15 435.94 1102.71 579.22 1068.90 668.54 1218.66 650.41
00001940 00000058 942.66 221.46 427.78 576.24 1009.54 461.82 1200.66 437.60 1094.44 581.60 1063.41 670.10 1213.37 650.40
00001941 00000059 938.43 222.64 432.35 573.24 1003.32 462.25 1196.99 437.77 1087.49 581.06 1055.93 669.54 1209.80 649.47
00001942 00000060 934.72 222.63 434.28 575.20 1000.99 462.31 1193.31 437.46 1084.31 581.51 1054.00 669.84 1207.31 649.34
00001943 00000061 934.28 220.76 434.45 577.88 1001.52 464.26 1193.42 438.24 1085.08 581.95 1054.57 670.45 1208.29 649.04
00001944 00000062 936.70 223.31 431.73 575.43 1003.81 464.93 1196.63 438.68 1088.93 581.61 1057.81 672.13 1210.93 650.54
00001945 00000063 939.04 220.17 429.02 580.02 1006.14 464.96 1198.79 438.24 1091.64 580.11 1061.81 672.89 1213.61 650.89
00001946 00000064 941.14 212.78 428.46 588.64 1008.97 462.72 1200.91 438.29 1093.89 579.74 1064.28 671.46 1214.11 651.39
00001947 00000065 940.18 203.24 431.15 596.14 1011.33 458.48 1204.34 436.29 1098.10 578.41 1066.89 667.53 1217.29 648.98
00001948 00000066 939.81 202.85 434.03 595.66 1013.96 454.72 1208.52 433.86 1102.89 575.78 1069.72 663.93 1220.30 646.55
00001949 00000067 942.89 199.66 433.03 598.26 1019.20 454.14 1209.99 433.71 1106.19 573.19 1072.98 660.83 1222.96 643.78
00001950 00000068 944.50 199.89 432.58 596.79 1022.01 452.78 1212.09 433.04 1109.61 573.31 1073.67 658.63 1225.61 642.15
00001951 00000069 944.38 202.96 433.93 591.20 1023.23 453.54 1215.17 435.21 1112.74 576.05 1071.62 655.63 1229.17 640.41
00001952 00000070 944.10 198.36 434.03 593.41 1025.37 456.67 1217.41 438.08 1116.13 578.76 1072.08 655.27 1233.86 639.93
00001953 00000071 946.84 209.54 429.28 588.17 1034.78 460.57 1228.42 441.12 1125.97 572.69 1078.77 655.14 1248.91 639.23
00001954 DELETE   946.44 216.83 434.20 587.22 1049.04 467.49 1242.64 448.02 1147.23 578.30 1089.66 656.22 1260.04 640.30
00001955 DELETE   950.29 220.81 435.11 594.66 1056.62 472.64 1246.72 449.44 1157.69 584.90 1104.57 666.51 1269.13 647.19
00001956 00000074 959.05 222.11 429.23 599.13 1057.38 468.86 1250.38 443.48 1166.22 587.28 1114.44 683.97 1276.59 661.55
00001957 00000075 959.03 221.39 429.70 601.44 1056.57 471.21 1253.68 446.46 1166.24 590.88 1112.40 688.35 1274.14 666.96
00001958 DELETE   954.91 219.31 431.94 600.68 1055.42 470.71 1250.91 447.51 1158.36 589.60 1111.46 680.00 1269.89 660.61
00001959 DELETE   954.55 201.24 428.91 604.86 1054.06 457.91 1249.47 436.93 1157.44 569.19 1105.61 667.66 1265.16 650.28
00001960 00000078 958.57 197.54 425.03 599.84 1055.24 444.22 1246.85 425.29 1155.57 553.07 1103.61 656.80 1258.69 641.78
00001961 00000079 956.88 193.65 425.71 598.70 1055.17 435.87 1247.53 417.03 1156.28 543.59 1104.26 652.57 1259.20 637.60
00001962 DELETE   957.28 195.77 424.55 594.22 1055.14 439.22 1248.74 419.81 1157.19 548.85 1106.20 655.54 1259.84 640.07
00001963 DELETE   956.38 195.59 424.98 601.92 1053.10 451.46 1250.41 431.42 1156.59 563.08 1106.30 667.15 1260.09 650.96
00001964 DELETE   951.40 208.54 429.71 604.73 1052.31 467.49 1245.02 449.92 1150.85 584.45 1109.01 682.32 1251.61 668.27
00001965 00000083 947.25 223.70 432.98 598.82 1048.40 476.16 1245.44 458.14 1147.87 599.13 1107.15 693.32 1246.73 679.19
00001966 00000084 947.49 224.40 430.62 596.45 1047.99 475.04 1245.08 458.75 1146.53 597.73 1103.86 691.34 1243.60 678.78
00001967 00000085 946.83 216.70 429.26 597.51 1048.80 468.90 1243.02 454.24 1145.23 584.28 1100.52 681.32 1243.55 670.03
00001968 00000086 948.84 207.32 427.74 597.47 1048.15 459.49 1242.58 442.67 1145.55 569.24 1095.90 669.36 1247.66 656.23
00001969 00000087 950.50 198.42 428.39 604.12 1048.77 451.71 1242.96 436.45 1145.78 563.30 1092.37 661.50 1250.25 649.60
00001970 00000088 948.56 199.65 429.51 607.12 1046.66 452.84 1241.59 438.16 1143.96 565.81 1088.74 663.07 1248.07 651.82
00001971 00000089 946.01 204.60 431.25 614.09 1045.25 460.42 1238.22 443.41 1142.35 572.63 1088.79 670.70 1247.68 657.43
00001972 00000090 943.52 214.64 428.95 604.10 1043.60 470.82 1234.88 456.02 1143.24 584.15 1084.47 677.54 1245.08 663.50
00001973 00000091 943.03 221.45 429.41 599.16 1044.31 474.36 1237.87 460.69 1144.04 592.79 1082.52 681.01 1245.95 668.07
00001974 00000092 941.84 223.33 431.19 596.16 1042.90 477.94 1237.56 466.04 1142.51 595.76 1080.72 681.22 1245.77 669.79
00001975 00000093 942.25 221.16 430.40 596.10 1043.74 477.73 1237.99 465.94 1143.28 595.76 1081.34 680.37 1245.97 668.96
00001976 00000094 942.84 222.90 431.45 593.89 1044.77 474.99 1238.53 461.65 1144.77 592.05 1083.57 679.43 1246.31 666.58
00001977 00000095 943.43 222.39 432.04 593.95 1045.36 472.86 1238.57 458.95 1144.54 587.89 1084.69 678.40 1244.69 665.07
00001978 00000096 945.61 225.78 435.23 597.79 1045.22 472.27 1244.81 457.08 1142.00 589.63 1090.06 678.62 1250.15 666.37
00001979 00000097 946.65 225.51 436.48 597.19 1046.30 471.24 1246.17 455.75 1143.08 590.13 1091.45 678.08 1251.85 665.50
00001980 00000098 947.38 225.30 437.37 593.63 1048.36 469.95 1249.68 456.60 1145.31 592.66 1093.03 676.45 1252.99 665.61
00001981 00000099 954.45 227.75 436.13 590.30 1052.09 468.56 1252.09 455.95 1146.83 591.48 1097.56 676.72 1256.12 665.97
00001982 00000100 963.83 225.35 429.44 592.41 1057.62 461.23 1255.73 449.58 1157.87 581.03 1100.23 677.91 1259.29 667.41
00001983 00000101 974.14 221.31 424.60 598.30 1068.91 456.32 1262.77 446.70 1168.99 573.06 1109.90 674.48 1266.22 665.81
00001984 00000102 984.88 213.08 420.45 599.46 1078.46 450.26 1268.21 444.10 1177.12 567.80 1118.18 667.47 1268.26 661.50
00001985 00000103 989.96 204.51 420.86 594.97 1084.56 444.72 1272.75 440.24 1182.44 568.27 1123.83 661.21 1268.97 656.68
00001986 00000104 1000.04 190.90 415.63 599.81 1092.43 441.68 1280.03 435.44 1191.29 562.74 1131.04 657.63 1276.58 651.94
00001987 00000105 1002.78 190.59 416.49 598.22 1105.32 441.93 1294.22 438.33 1197.75 563.35 1140.44 652.40 1291.87 648.40
00001988 DELETE   1013.86 189.86 415.56 601.23 1119.94 440.32 1308.14 436.97 1214.08 557.51 1152.32 651.25 1305.05 647.16
00001989 00000107 1027.23 190.46 416.22 597.66 1128.54 433.44 1323.94 432.42 1225.14 549.97 1156.11 644.39 1314.34 644.52
00001990 00000108 1031.52 188.79 419.09 593.80 1135.43 432.04 1332.17 430.15 1231.61 547.71 1164.07 645.08 1320.24 644.42
00001991 00000109 1037.04 189.70 418.09 588.96 1141.99 431.23 1337.49 430.72 1238.00 548.59 1169.58 642.35 1326.62 642.54
00001992 00000110 1043.56 187.92 414.51 591.26 1149.35 430.71 1343.09 430.92 1244.54 546.96 1176.03 642.07 1331.48 642.78
00001993 00000111 1049.65 192.87 415.08 590.13 1155.06 432.98 1347.52 432.99 1249.55 550.70 1181.05 643.13 1337.38 643.65
00001994 00000112 1053.31 192.38 415.83 595.73 1158.61 434.31 1351.12 435.71 1252.57 553.54 1183.72 644.20 1341.33 645.53
00001995 00000113 1064.03 196.57 411.03 604.00 1163.42 438.08 1352.37 437.99 1264.39 560.10 1195.03 657.78 1340.55 656.67
00001996 00000114 1064.56 205.88 416.01 603.18 1166.35 447.23 1357.84 449.16 1267.23 563.09 1194.72 662.34 1349.86 661.87
00001997 00000115 1064.84 215.04 416.72 601.66 1170.53 455.63 1358.39 456.92 1270.63 570.16 1196.49 667.00 1354.34 665.87
00001998 00000116 1062.36 220.36 418.66 600.46 1170.33 462.71 1359.11 462.64 1270.92 579.79 1195.95 673.38 1356.19 671.27
00001999 00000117 1061.75 219.72 419.63 602.57 1170.09 466.24 1361.54 464.95 1272.31 585.11 1195.17 676.05 1358.25 673.38
00002000 00000118 1060.74 222.38 418.77 598.17 1167.91 465.70 1359.57 464.90 1268.88 584.93 1191.56 674.90 1355.47 672.78
00002001 00000119 1058.09 219.29 418.55 597.21 1163.72 460.34 1354.56 460.62 1262.56 581.13 1190.46 673.48 1348.22 671.95
00002002 00000120 1054.67 220.96 414.07 592.06 1157.28 454.11 1351.17 456.44 1257.98 575.84 1182.93 668.16 1343.36 668.64
00002003 00000121 1046.90 209.90 423.00 590.41 1149.57 454.55 1349.45 455.46 1245.72 576.56 1169.87 656.46 1339.95 657.29
00002004 00000122 1040.43 205.47 420.48 588.36 1143.34 449.84 1346.27 450.16 1241.82 568.83 1165.82 651.68 1337.54 652.52
00002005 00000123 1036.08 202.55 421.43 589.82 1137.76 447.27 1341.58 445.98 1236.64 565.45 1161.50 648.76 1334.41 648.43
00002006 00000124 1027.56 207.47 425.14 587.99 1128.62 451.44 1333.72 447.38 1226.98 565.44 1153.51 649.75 1330.04 646.98
00002007 00000125 1018.79 208.88 425.75 596.77 1121.00 463.33 1318.86 456.91 1217.26 577.10 1147.51 656.05 1321.33 651.02
00002008 DELETE   1004.97 210.96 425.78 598.11 1107.00 469.85 1302.86 462.30 1209.60 584.75 1134.01 666.82 1311.53 659.07
00002009 DELETE   995.74 222.10 429.26 594.97 1094.42 479.44 1288.68 466.02 1196.69 595.56 1128.49 675.64 1303.80 663.25
00002010 DELETE   984.12 237.94 434.02 584.96 1085.68 487.31 1276.73 470.58 1188.28 607.23 1123.63 680.08 1299.32 664.66
00002011 00000129 977.94 242.41 432.57 581.71 1078.55 491.54 1271.71 476.81 1179.87 611.58 1114.01 680.92 1294.25 667.19
00002012 00000130 971.71 243.63 433.04 578.73 1068.75 491.46 1265.62 475.88 1169.70 611.69 1105.58 681.59 1288.53 667.26
00002013 DELETE   959.86 239.91 435.60 581.15 1059.44 489.54 1260.19 470.21 1163.54 609.95 1097.93 682.42 1282.84 665.17
00002014 00000132 951.65 236.93 437.81 581.75 1051.96 485.92 1252.82 464.97 1156.66 605.91 1093.27 681.11 1274.72 662.36
00002015 00000133 946.97 231.84 438.06 592.45 1048.65 490.83 1244.67 468.29 1147.22 607.21 1090.60 678.54 1260.21 659.99
00002016 00000134 938.38 230.47 435.11 588.16 1042.36 488.25 1233.54 471.10 1142.74 605.98 1080.52 680.50 1248.85 664.75
00002017 00000135 933.00 230.95 435.36 587.35 1034.48 489.10 1227.04 472.16 1133.60 606.38 1076.46 686.94 1239.49 671.37
00002018 00000136 927.51 236.02 435.21 586.54 1026.09 490.19 1220.25 470.95 1127.21 609.79 1073.43 692.18 1236.58 675.10
00002019 00000137 919.69 247.10 434.53 577.64 1020.83 492.97 1210.18 473.02 1120.75 613.97 1074.54 695.80 1229.40 677.83
00002020 00000138 914.92 244.86 434.72 578.11 1015.86 493.98 1203.11 472.53 1116.59 612.46 1071.05 694.40 1226.16 675.54
00002021 00000139 909.04 243.29 439.06 579.48 1009.51 492.07 1200.40 467.76 1113.36 608.93 1067.10 692.39 1229.28 670.50
00002022 00000140 907.79 237.60 439.68 584.47 1008.67 486.06 1197.79 463.16 1110.51 605.86 1064.39 687.78 1225.91 666.96
00002023 00000141 906.29 232.28 438.48 589.58 1006.17 481.90 1196.01 459.58 1109.14 598.90 1061.77 685.14 1222.65 665.01
00002024 00000142 906.06 228.71 438.04 589.52 1004.82 477.08 1192.85 456.97 1105.78 594.69 1059.32 681.26 1217.03 662.87
00002025 00000143 903.14 227.74 439.11 587.46 998.17 471.14 1188.18 450.47 1097.54 589.53 1056.02 679.27 1212.35 660.18
00002026 00000144 902.21 224.19 437.59 588.86 992.92 467.19 1185.68 447.26 1090.35 582.84 1048.84 674.28 1209.29 656.43
CROP_BBOX: 725 0 1653 982
