Video ID: 	a4oHPTmX1Ec
H: 	1080
W: 	1920
FPS: 	23.976023976023978

FRAME INDEX X0 Y0 W H [Landmarks (5 Points)]

00060205 00000000 578.05 198.55 397.43 584.09 660.70 380.82 858.62 360.90 748.71 450.76 685.89 600.06 854.49 583.87
00060206 DELETE   580.80 199.81 395.55 590.25 663.31 384.59 862.40 363.49 750.88 455.46 687.21 607.61 855.20 590.92
00060207 DELETE   584.97 205.94 393.77 597.63 664.94 386.59 866.91 363.60 750.93 465.19 688.86 616.74 860.13 598.85
00060208 DELETE   581.28 208.94 398.97 605.04 663.06 386.58 866.25 363.17 749.83 468.27 689.36 622.71 862.44 604.46
00060209 00000004 585.03 211.99 397.19 604.34 667.10 387.31 872.73 365.52 753.58 471.58 689.93 626.73 864.44 609.73
00060210 00000005 587.08 210.24 398.35 603.58 670.75 386.52 874.04 364.70 755.01 469.99 694.29 625.47 865.31 608.25
00060211 00000006 591.91 205.74 396.68 605.69 676.70 383.73 876.53 362.45 756.59 468.86 698.01 621.43 864.53 604.26
00060212 00000007 594.92 203.72 394.30 594.57 680.58 386.40 880.06 364.79 762.67 466.04 704.68 618.51 868.56 600.86
00060213 00000008 598.17 202.23 392.79 583.45 683.13 386.64 881.89 367.87 764.49 467.35 708.26 613.57 871.13 597.70
00060214 00000009 599.33 203.61 393.46 577.60 685.77 387.96 885.11 372.71 766.96 466.94 707.74 612.36 871.06 599.64
00060215 00000010 602.63 206.48 393.00 573.46 689.34 388.59 887.66 372.59 772.33 467.87 713.94 613.36 875.43 599.85
00060216 00000011 604.81 203.57 394.13 574.34 693.91 389.70 891.03 373.47 781.04 465.16 720.44 612.29 881.69 598.43
00060217 00000012 608.14 206.51 393.93 568.42 699.03 390.57 894.34 375.56 787.52 463.19 725.94 611.11 886.09 597.96
00060218 00000013 609.93 187.63 397.30 584.43 699.54 384.31 902.52 378.11 787.87 464.56 725.77 609.03 894.53 604.01
00060219 00000014 615.90 197.50 394.64 581.03 705.73 386.81 905.32 383.13 794.06 460.88 728.52 604.83 888.97 602.93
00060220 00000015 619.41 200.06 395.46 574.04 707.80 386.93 910.14 382.89 795.83 461.47 731.87 606.30 892.65 603.98
00060221 00000016 620.62 197.92 397.20 580.61 709.59 387.94 913.21 382.13 798.25 463.08 735.61 607.72 897.62 603.61
00060222 00000017 618.05 184.90 398.15 587.00 708.12 382.38 914.87 377.45 796.97 464.93 731.99 606.02 904.01 601.66
00060223 00000018 615.27 198.98 400.60 585.42 707.06 385.69 905.19 380.31 796.20 462.49 732.68 603.92 890.67 600.24
00060224 00000019 610.33 184.65 402.71 588.22 703.87 380.22 905.51 375.77 792.42 461.98 728.59 603.39 892.10 599.81
00060225 DELETE   607.65 191.97 400.16 579.04 700.32 388.04 897.47 379.30 788.29 461.24 727.21 605.52 884.77 598.65
00060226 DELETE   606.54 216.06 396.27 553.46 699.47 398.52 886.37 382.54 784.43 464.82 724.81 607.16 879.20 593.74
00060227 DELETE   604.01 215.11 397.42 561.08 693.95 396.24 885.21 378.46 777.49 462.58 717.85 610.13 874.90 595.98
00060228 00000023 601.74 211.77 399.51 577.88 689.74 394.05 885.47 374.72 771.34 467.15 710.69 616.42 870.82 600.70
00060229 DELETE   599.16 208.48 397.24 588.39 684.98 396.12 885.47 375.20 769.04 476.04 706.25 624.08 871.28 607.26
00060230 00000025 596.25 207.65 396.02 585.75 678.80 398.73 880.07 378.26 762.58 481.56 700.50 624.74 865.97 608.76
00060231 00000026 591.38 209.41 397.16 586.86 673.49 404.65 873.18 382.20 759.47 490.01 699.62 628.50 862.95 610.44
00060232 00000027 586.48 206.89 394.56 591.05 668.15 415.06 866.19 393.60 756.38 490.95 693.48 633.89 858.52 617.03
00060233 DELETE   579.89 211.06 397.53 597.54 659.26 421.77 859.51 404.58 744.17 500.44 682.58 640.10 853.35 626.79
00060234 00000029 575.33 220.46 393.43 587.94 649.22 427.78 848.63 413.38 731.49 510.87 674.96 645.53 845.22 634.90
00060235 DELETE   571.34 224.72 391.68 587.77 642.93 431.24 842.87 418.48 724.52 522.94 669.63 649.81 841.42 639.67
00060236 00000031 564.74 232.50 393.46 585.03 637.44 434.50 835.54 424.18 717.91 528.81 665.29 653.52 836.46 644.65
00060237 00000032 559.76 236.42 394.86 583.18 631.73 442.94 831.69 432.07 712.47 535.81 659.34 661.60 830.23 651.63
00060238 00000033 555.63 239.48 397.14 590.13 626.45 450.25 828.77 436.45 705.27 541.90 653.95 669.79 832.63 657.38
00060239 00000034 553.79 242.83 396.18 590.24 623.31 453.85 827.80 441.44 702.65 549.12 648.52 674.50 829.86 663.28
00060240 00000035 553.15 248.77 397.88 590.86 620.67 458.88 817.60 446.01 699.67 554.62 648.45 675.41 820.17 664.04
00060241 00000036 552.27 249.38 394.49 597.05 619.41 459.73 817.47 446.83 698.89 557.93 646.49 677.98 820.87 666.46
00060242 00000037 552.01 253.80 396.84 598.41 620.65 460.10 818.79 447.27 700.40 559.46 648.06 680.13 821.25 668.73
00060243 00000038 553.64 259.29 397.73 593.35 622.48 462.32 820.51 449.30 702.08 562.63 650.48 682.93 822.76 671.39
00060244 00000039 554.65 262.84 396.50 591.08 624.04 464.82 822.12 452.83 702.91 566.92 651.48 686.39 822.37 675.80
00060245 00000040 554.91 267.75 399.61 595.01 626.84 467.79 824.91 455.39 705.80 568.07 652.87 689.71 824.37 678.76
00060246 00000041 555.09 268.16 400.18 589.90 628.44 470.52 826.87 459.83 707.58 571.81 655.56 690.68 824.35 681.40
00060247 00000042 557.55 272.06 399.26 594.55 630.01 472.61 827.48 460.35 708.08 574.85 657.47 694.57 827.00 684.18
00060248 00000043 556.69 272.88 399.91 593.70 630.61 473.56 828.04 461.76 708.72 575.57 658.49 695.64 826.80 685.59
00060249 00000044 556.31 284.00 399.42 580.59 632.76 484.86 823.45 467.69 708.85 575.36 661.03 694.59 828.50 679.68
00060250 00000045 556.20 284.22 398.54 579.06 632.15 485.97 824.36 468.57 708.62 573.99 660.38 695.25 828.15 680.42
00060251 00000046 556.42 280.80 396.71 580.62 633.11 484.00 825.03 468.36 709.66 574.06 660.90 694.50 827.76 681.29
00060252 00000047 556.84 281.25 397.31 580.38 633.82 484.28 825.22 468.09 711.21 575.28 662.85 695.67 827.66 682.08
00060253 00000048 558.37 278.38 396.60 585.88 634.28 482.47 825.02 467.36 710.51 574.75 661.09 695.02 827.66 682.23
00060254 00000049 559.89 274.08 394.95 585.03 637.37 479.64 827.76 467.14 714.96 572.36 662.91 690.26 829.01 679.99
00060255 00000050 562.18 273.19 392.32 582.30 638.71 476.76 830.27 466.00 717.30 569.12 661.86 686.79 830.42 678.13
00060256 00000051 564.15 274.56 391.63 577.76 639.97 474.09 832.14 463.21 719.06 565.32 664.92 683.79 832.01 675.08
00060257 00000052 568.20 269.79 390.67 579.49 643.64 472.88 836.66 459.54 723.48 560.02 668.31 682.14 837.30 671.48
00060258 00000053 571.37 262.93 391.36 583.87 646.66 469.63 840.27 455.15 725.45 554.84 671.73 679.12 842.10 666.76
00060259 00000054 572.19 256.56 392.02 580.03 644.37 462.42 841.05 444.60 725.87 548.81 672.32 679.00 849.19 663.67
00060260 00000055 579.56 259.68 391.43 585.08 656.39 459.64 842.03 445.26 729.34 546.17 680.45 669.59 840.12 657.28
00060261 00000056 586.25 240.44 394.68 603.32 657.13 453.41 848.18 434.04 728.37 540.94 679.39 673.29 851.81 657.39
00060262 00000057 593.42 228.52 394.50 608.09 666.75 444.18 862.23 425.60 741.84 530.81 686.86 665.75 858.82 650.89
00060263 00000058 604.92 230.00 386.35 597.93 679.38 437.12 870.72 419.58 750.21 523.35 700.58 658.56 863.02 644.98
00060264 00000059 608.11 220.28 387.76 593.01 689.00 428.01 879.77 415.56 761.07 516.96 709.92 649.93 866.94 639.89
00060265 00000060 622.43 218.08 380.45 590.83 700.40 422.96 889.34 410.98 773.44 507.79 719.63 642.73 877.66 633.12
00060266 00000061 637.08 218.61 378.37 592.16 712.52 414.48 899.46 415.58 778.41 495.06 728.83 627.08 884.27 628.00
00060267 00000062 645.55 222.98 382.06 580.87 721.60 407.45 913.18 406.33 793.88 493.54 738.97 624.17 896.57 623.51
00060268 00000063 656.53 219.60 384.09 583.98 733.80 400.26 926.07 392.82 804.59 487.86 747.85 621.88 909.52 616.49
00060269 00000064 669.18 207.09 383.20 589.56 743.56 393.59 937.28 380.94 810.94 483.54 755.98 617.25 917.32 607.87
00060270 00000065 673.02 199.20 388.80 591.22 751.13 391.67 946.02 378.22 820.34 475.59 765.13 613.30 926.55 602.87
00060271 00000066 678.63 202.82 387.99 578.60 762.26 386.44 952.30 379.24 831.63 465.67 773.53 604.41 930.15 598.85
00060272 DELETE   684.81 192.81 388.28 579.87 773.20 383.11 960.74 380.11 842.53 458.34 783.38 598.01 933.90 595.69
00060273 00000068 694.04 174.13 380.04 586.66 780.62 370.63 963.25 375.05 849.25 448.74 791.26 589.63 932.27 595.36
00060274 00000069 702.62 175.27 380.32 573.01 786.39 366.95 976.94 372.14 858.99 441.69 796.65 582.49 940.21 588.62
00060275 DELETE   712.08 171.74 379.72 572.50 792.39 364.05 982.11 365.52 860.28 437.94 804.68 581.42 945.33 584.22
00060276 00000071 721.03 169.06 377.72 582.11 799.66 362.05 990.78 360.93 864.35 434.58 809.29 584.41 950.42 584.87
00060277 00000072 728.32 165.56 378.42 582.17 808.33 359.60 999.07 358.01 870.21 435.19 814.91 582.38 956.12 582.35
00060278 DELETE   733.37 168.83 379.72 575.83 816.28 358.54 1003.85 357.69 876.00 435.16 819.55 579.36 959.17 580.04
00060279 00000074 734.52 169.84 383.90 569.13 819.26 359.59 1010.29 358.48 879.29 433.23 820.47 578.11 963.90 578.72
00060280 DELETE   737.91 168.89 384.06 562.10 822.61 359.75 1012.69 357.18 880.66 430.53 822.16 577.17 963.34 577.25
00060281 DELETE   741.31 170.67 383.29 556.15 826.95 360.99 1013.18 357.76 887.16 432.51 831.81 576.13 969.07 575.63
00060282 00000077 747.30 186.37 384.65 565.57 828.65 365.08 1014.71 364.01 886.98 441.11 833.81 582.57 978.47 583.96
00060283 00000078 752.72 184.41 377.34 575.04 832.65 361.42 1021.81 363.81 893.81 443.27 834.47 580.07 991.05 583.30
00060284 00000079 753.25 174.66 382.96 585.89 834.50 358.23 1031.86 358.13 898.31 444.45 831.96 582.48 1002.51 584.51
00060285 00000080 755.10 172.56 383.68 593.02 837.06 357.74 1036.82 358.78 904.59 445.88 834.34 583.42 1008.82 586.45
00060286 00000081 755.56 174.29 384.45 586.51 839.88 355.74 1039.20 358.57 908.15 445.63 838.04 581.53 1009.03 586.01
00060287 00000082 757.42 175.24 384.40 591.01 841.24 354.88 1035.52 369.33 906.53 446.76 837.96 576.53 1009.07 589.18
00060288 00000083 758.32 172.93 383.33 591.52 840.35 353.34 1035.46 368.63 906.20 446.47 837.83 575.85 1010.97 589.01
00060289 00000084 758.50 172.36 383.41 591.51 842.41 352.26 1037.47 366.70 906.32 445.50 838.30 574.14 1012.86 586.61
00060290 00000085 759.05 169.51 383.32 592.70 843.20 351.88 1037.79 364.89 906.36 443.91 840.40 572.47 1013.49 583.96
00060291 00000086 758.18 168.81 385.32 600.34 843.54 350.96 1036.97 363.23 904.89 442.18 839.66 573.43 1014.10 584.26
00060292 00000087 757.44 166.84 386.63 603.33 843.37 350.60 1035.98 362.32 903.38 441.43 839.01 572.61 1011.73 583.27
00060293 00000088 758.21 178.70 386.21 598.60 842.29 344.77 1039.20 350.37 912.62 431.02 839.59 572.90 1016.34 576.93
00060294 00000089 757.74 168.21 382.41 583.54 844.45 353.32 1034.21 351.37 908.65 430.42 842.61 571.11 1009.71 570.86
00060295 00000090 751.74 161.96 385.00 574.49 837.97 353.73 1031.36 353.24 902.80 423.74 835.92 566.08 1004.79 567.53
00060296 DELETE   747.51 159.11 383.01 561.74 832.49 351.95 1026.85 356.19 896.80 421.77 828.46 559.93 996.57 565.25
00060297 00000092 742.29 154.69 384.19 558.96 830.24 349.46 1023.21 357.85 892.32 418.82 822.69 552.26 990.60 560.38
00060298 00000093 739.25 149.14 389.77 576.08 828.74 345.46 1022.68 353.01 891.45 418.84 820.00 551.50 989.62 558.58
00060299 00000094 737.84 152.27 392.76 574.71 826.10 341.12 1017.70 341.38 889.60 417.58 823.41 552.12 984.10 553.39
00060300 00000095 735.67 151.58 392.79 590.06 822.30 338.97 1016.31 334.20 887.51 417.09 819.58 559.84 983.55 557.01
00060301 00000096 729.65 152.24 394.29 590.11 816.27 335.50 1011.04 334.80 885.01 416.62 814.69 555.39 980.16 555.69
00060302 00000097 722.41 151.74 389.91 571.55 806.23 340.45 1000.67 343.61 875.61 418.01 811.10 548.47 972.39 551.87
00060303 00000098 717.74 154.78 384.17 559.10 797.86 343.96 993.93 351.16 866.61 419.31 800.13 545.24 966.36 551.88
00060304 00000099 711.64 153.12 381.06 568.52 792.03 344.36 986.31 353.28 860.83 417.19 796.39 546.47 961.05 554.53
00060305 00000100 703.55 150.96 381.80 584.14 782.74 340.66 972.49 345.68 850.26 413.33 790.99 547.17 950.26 551.94
00060306 00000101 695.72 148.08 383.37 595.18 772.74 338.91 964.93 340.21 840.42 411.83 779.61 548.59 945.24 550.25
00060307 00000102 684.84 151.73 382.93 575.28 766.54 342.76 957.93 326.17 838.13 402.07 778.53 554.18 946.87 541.89
00060308 00000103 677.22 151.38 383.77 577.36 757.68 340.17 948.37 320.51 826.13 400.06 768.57 552.08 937.11 537.37
00060309 00000104 672.66 151.72 382.60 582.15 747.29 344.21 939.96 321.80 814.13 403.12 755.42 553.86 930.67 537.36
00060310 00000105 662.67 151.97 385.47 590.37 732.77 347.38 928.26 324.08 802.33 413.10 744.68 557.86 925.40 540.83
00060311 00000106 648.13 158.54 390.91 589.17 721.56 348.67 916.77 334.29 796.99 420.67 740.76 561.82 918.44 550.76
00060312 00000107 638.39 156.43 385.04 600.78 714.46 351.92 906.13 343.39 784.59 419.86 729.35 565.98 906.55 558.89
00060313 00000108 627.28 156.74 383.68 608.34 703.85 353.24 897.79 346.93 773.18 420.53 716.22 571.30 894.97 565.44
00060314 00000109 617.50 166.90 384.68 601.21 696.87 356.13 891.38 338.32 769.78 428.76 712.37 580.85 884.91 567.31
00060315 00000110 608.92 163.74 380.58 574.40 683.30 363.58 876.04 340.59 752.84 427.72 698.35 575.25 868.63 558.49
00060316 DELETE   600.90 153.97 381.79 575.59 668.21 366.49 864.82 343.29 739.30 424.46 685.52 574.27 860.66 558.08
00060317 DELETE   593.12 157.79 384.18 576.84 658.69 367.24 856.65 345.32 728.15 424.79 675.28 574.89 851.80 559.48
00060318 00000113 587.99 162.35 382.55 577.06 653.33 369.43 850.34 347.74 723.94 431.45 672.00 576.10 849.44 560.27
00060319 00000114 580.79 160.71 386.10 579.40 650.73 371.15 845.58 351.78 723.37 434.09 674.20 577.67 845.02 562.39
00060320 00000115 577.86 164.74 388.92 576.80 651.34 371.78 836.70 353.25 721.90 439.64 679.28 578.39 832.04 563.19
00060321 00000116 576.53 168.13 388.08 577.46 650.21 376.88 835.70 358.44 721.49 446.11 678.71 581.90 833.51 566.45
00060322 00000117 576.62 169.69 389.47 581.84 645.99 380.95 839.19 360.04 719.34 449.57 673.33 588.58 840.95 570.93
00060323 00000118 577.91 174.73 388.83 576.18 645.65 384.67 840.27 362.37 718.93 454.23 672.53 591.66 845.26 572.78
00060324 00000119 578.72 177.16 391.35 573.14 647.85 386.87 840.76 362.95 720.50 456.52 677.25 595.21 845.64 574.89
00060325 00000120 581.87 180.26 391.96 581.47 648.11 390.72 844.63 362.41 722.97 460.49 679.30 604.21 853.88 580.24
00060326 00000121 584.60 183.95 394.81 585.62 651.62 390.53 850.72 362.17 726.62 461.15 681.42 606.75 860.22 582.79
00060327 00000122 591.16 202.86 393.21 586.18 663.26 393.94 855.25 366.19 735.27 465.56 686.87 608.44 854.06 586.49
00060328 00000123 596.21 198.60 389.25 593.92 667.67 392.17 861.02 363.47 739.99 470.86 690.77 610.36 860.63 587.30
00060329 00000124 598.27 197.32 389.06 590.75 671.25 391.22 866.30 364.07 744.24 468.74 693.98 607.93 865.99 586.11
00060330 00000125 601.69 200.11 389.95 589.45 673.62 390.79 870.10 362.78 745.90 470.47 699.53 613.04 868.82 590.27
00060331 00000126 604.80 202.36 392.01 588.36 679.55 389.98 875.46 364.76 753.28 470.28 706.87 615.00 872.50 594.21
00060332 00000127 607.95 199.64 393.99 588.14 686.77 390.56 879.32 368.10 760.77 466.63 713.00 613.19 874.43 594.30
00060333 00000128 614.18 198.26 390.82 573.51 691.22 389.19 881.37 371.35 763.29 467.62 717.05 607.33 873.42 592.29
00060334 00000129 618.41 184.36 388.73 579.83 693.57 386.19 888.04 371.35 766.09 459.51 720.52 605.00 876.07 593.14
00060335 00000130 625.39 202.86 386.56 579.68 699.69 387.23 889.08 380.57 770.26 463.27 714.88 597.49 874.55 593.12
00060336 00000131 628.29 202.21 387.99 586.17 702.88 390.43 895.32 384.31 772.77 467.67 715.02 599.93 884.25 595.58
00060337 00000132 630.17 207.95 391.27 585.15 702.83 395.45 898.96 385.79 773.14 472.38 717.73 606.24 890.95 598.78
00060338 00000133 634.14 209.43 390.86 590.37 703.90 399.11 902.68 383.81 776.84 478.68 728.45 617.93 899.16 605.13
00060339 00000134 636.25 210.71 390.68 596.53 705.49 399.20 903.05 380.95 777.48 480.63 732.38 619.09 902.90 603.41
00060340 00000135 638.79 210.18 388.24 594.40 707.40 399.53 905.95 380.10 780.13 479.36 734.74 617.20 906.12 600.79
00060341 00000136 638.89 206.61 387.04 591.84 709.43 399.39 906.67 380.55 782.97 475.11 734.22 610.93 907.13 595.26
00060342 00000137 638.35 197.06 390.24 600.62 711.23 395.83 904.74 378.95 781.55 469.16 733.00 607.18 901.33 592.99
00060343 00000138 634.51 184.68 385.14 568.22 705.84 389.79 903.20 375.15 778.26 461.59 729.49 599.37 901.65 586.71
00060344 00000139 631.19 176.87 390.68 584.84 703.59 387.66 901.76 374.14 774.03 461.25 723.38 598.98 899.03 587.19
00060345 00000140 631.27 181.71 387.94 579.51 703.20 387.57 902.72 376.11 773.31 461.75 721.30 600.05 896.81 590.05
00060346 00000141 631.94 197.57 388.30 591.61 706.67 392.28 896.66 380.22 774.89 462.00 727.55 603.60 886.38 594.05
00060347 00000142 631.17 205.33 388.10 588.61 706.91 389.80 893.81 381.29 774.20 465.62 728.99 605.21 879.87 598.05
00060348 00000143 631.07 204.01 385.84 591.11 705.80 390.87 895.16 381.57 773.68 466.25 727.71 608.28 880.50 600.59
00060349 00000144 628.46 206.73 386.35 586.39 704.43 389.12 891.46 381.67 774.06 462.73 727.24 607.12 872.72 601.83
00060350 00000145 627.10 208.04 386.68 583.00 702.16 388.98 888.07 380.19 772.39 462.37 728.14 608.47 870.50 601.85
00060351 00000146 626.53 207.69 386.04 579.98 701.75 390.68 885.93 380.31 769.65 463.23 727.10 608.84 865.47 600.97
CROP_BBOX: 345 0 1351 1010
