Video ID: 	vLfbL9CIMKs
H: 	1080
W: 	1920
FPS: 	29.97002997002997

FRAME INDEX X0 Y0 W H [Landmarks (5 Points)]

00010526 00000000 1025.99 181.14 375.16 526.79 1093.83 373.39 1251.13 410.79 1109.15 468.55 1070.68 551.11 1210.99 583.81
00010527 00000001 1027.17 188.42 375.61 521.29 1088.94 386.51 1248.47 422.14 1105.07 478.36 1064.25 556.42 1214.42 587.13
00010528 00000002 1030.92 189.28 373.43 521.01 1090.41 386.73 1251.23 424.76 1105.76 479.87 1064.59 556.57 1217.75 589.30
00010529 00000003 1032.50 193.06 374.47 517.45 1092.97 385.84 1254.32 426.84 1108.36 481.31 1064.59 554.15 1221.03 589.21
00010530 00000004 1033.43 195.18 374.45 512.73 1093.49 385.73 1254.81 426.82 1110.09 480.97 1065.30 551.73 1225.41 586.86
00010531 00000005 1031.96 189.96 374.27 516.17 1091.71 383.11 1253.84 423.98 1108.96 479.34 1064.34 550.03 1226.27 585.14
00010532 00000006 1033.61 187.62 374.22 523.28 1092.97 377.13 1253.87 414.97 1107.68 474.01 1067.81 551.01 1226.87 584.02
00010533 00000007 1032.98 176.69 376.74 535.91 1098.85 368.20 1255.09 400.04 1108.17 457.40 1076.97 545.14 1224.87 573.62
00010534 00000008 1033.22 170.99 377.59 537.36 1097.42 364.70 1256.65 396.08 1107.60 455.01 1075.35 542.89 1223.52 571.17
00010535 00000009 1034.54 169.48 377.20 533.85 1098.42 363.25 1256.73 396.34 1108.34 455.11 1074.36 542.38 1218.30 572.04
00010536 00000010 1038.30 171.00 372.80 527.36 1100.14 363.58 1256.81 400.41 1109.84 458.42 1074.69 543.73 1215.92 576.39
00010537 00000011 1038.14 187.06 373.30 517.61 1102.31 373.52 1256.52 413.12 1113.73 469.05 1073.44 547.72 1214.15 582.66
00010538 00000012 1038.38 189.30 377.63 519.62 1100.54 380.68 1257.45 422.52 1113.18 479.95 1073.54 551.78 1217.64 588.59
00010539 00000013 1040.62 189.18 381.03 522.72 1100.26 383.14 1263.94 426.44 1114.12 484.88 1071.61 556.68 1218.68 594.62
00010540 00000014 1043.76 193.28 378.87 525.03 1102.36 387.22 1267.82 431.91 1116.45 490.47 1074.94 561.67 1224.79 600.64
00010541 00000015 1048.57 202.00 377.83 528.31 1110.39 392.29 1272.76 436.95 1121.98 496.78 1083.05 566.09 1234.32 604.01
00010542 DELETE   1053.53 209.98 374.17 530.99 1117.52 401.44 1275.22 450.18 1124.49 511.25 1091.50 570.30 1244.73 609.17
00010543 00000017 1056.61 224.28 376.46 533.46 1119.00 409.89 1274.85 455.20 1123.97 519.52 1095.26 583.30 1250.01 617.56
00010544 DELETE   1057.24 233.86 376.67 530.23 1121.17 419.13 1277.31 462.34 1129.41 527.21 1097.29 592.58 1245.81 625.26
00010545 00000019 1061.67 235.77 373.41 530.34 1124.07 421.19 1278.79 466.82 1134.76 538.35 1102.51 595.41 1257.91 633.23
00010546 00000020 1068.76 235.02 366.74 534.68 1127.49 422.68 1279.24 465.30 1139.21 542.21 1109.98 603.14 1254.41 637.24
00010547 00000021 1069.66 231.26 372.05 536.84 1126.44 419.20 1281.18 460.10 1139.28 533.81 1108.33 604.30 1248.83 637.34
00010548 DELETE   1072.89 226.35 372.55 534.73 1130.42 411.85 1281.64 452.85 1142.01 525.22 1110.88 596.38 1247.57 630.16
00010549 00000023 1069.76 204.46 371.78 539.36 1133.96 404.08 1289.89 446.17 1138.90 514.02 1106.45 585.28 1254.02 618.43
00010550 00000024 1070.02 197.17 372.37 532.66 1137.86 391.56 1289.68 433.24 1140.41 497.37 1103.06 569.84 1254.13 603.55
00010551 DELETE   1068.79 186.37 374.00 529.95 1137.64 379.21 1290.32 421.13 1149.46 486.46 1109.84 560.47 1248.79 594.71
00010552 00000026 1067.75 181.37 373.08 532.79 1137.29 373.22 1290.87 414.21 1149.86 479.99 1107.58 555.05 1248.25 589.14
00010553 00000027 1065.75 177.35 369.94 531.22 1134.34 372.80 1285.83 413.36 1146.99 482.16 1105.71 553.23 1242.11 587.01
00010554 00000028 1059.61 186.15 377.81 535.06 1126.23 373.07 1283.18 419.19 1128.83 475.80 1093.77 555.47 1235.82 594.91
00010555 00000029 1057.35 189.36 374.89 535.34 1119.33 379.48 1279.06 428.75 1124.61 487.66 1087.11 558.92 1236.99 600.10
00010556 DELETE   1052.50 201.79 376.47 538.56 1115.83 391.62 1272.30 438.83 1120.32 498.01 1086.82 568.33 1235.98 606.67
00010557 00000031 1049.73 210.22 374.57 542.94 1111.07 398.89 1268.90 448.18 1121.02 513.24 1084.06 580.96 1235.79 620.27
00010558 00000032 1046.88 213.83 374.31 546.23 1101.48 413.62 1255.88 445.25 1114.86 525.38 1088.16 594.16 1235.28 621.88
00010559 00000033 1048.73 218.11 371.76 556.13 1102.98 415.96 1252.62 446.44 1110.67 525.52 1087.96 596.02 1235.41 622.98
00010560 00000034 1046.73 220.09 371.96 550.34 1102.56 414.31 1251.69 447.16 1110.48 524.89 1086.54 591.44 1233.47 620.57
00010561 00000035 1046.28 217.74 370.59 557.60 1101.93 413.47 1250.43 446.74 1108.80 523.14 1086.27 592.01 1233.53 621.12
00010562 00000036 1042.85 215.34 368.82 551.71 1098.94 408.83 1247.37 446.17 1106.45 521.09 1083.94 587.17 1228.55 619.56
00010563 00000037 1040.79 210.67 364.13 544.47 1094.52 404.04 1241.95 444.55 1101.45 519.16 1080.78 586.12 1219.04 621.34
00010564 00000038 1033.05 199.11 373.96 553.59 1096.57 398.57 1250.81 443.98 1104.05 516.93 1073.49 588.46 1213.15 625.08
00010565 00000039 1031.83 197.17 375.05 552.12 1093.94 395.22 1250.95 441.20 1101.50 515.14 1067.93 587.08 1209.75 624.25
00010566 00000040 1031.88 195.84 374.12 552.61 1093.17 394.78 1251.50 439.13 1100.96 512.38 1067.17 587.93 1209.09 623.86
00010567 00000041 1031.65 195.85 374.13 554.71 1093.05 395.92 1251.95 436.77 1101.09 509.62 1069.84 589.51 1212.08 622.64
00010568 00000042 1031.41 196.18 373.87 548.71 1092.91 395.25 1250.21 435.99 1100.73 507.91 1069.20 585.42 1208.61 618.62
00010569 00000043 1031.30 195.41 375.26 546.43 1093.59 395.72 1251.20 434.69 1101.14 503.74 1069.54 583.05 1209.73 614.87
00010570 00000044 1030.58 195.94 376.87 539.46 1092.01 393.47 1250.10 432.85 1100.12 501.47 1068.66 579.60 1209.93 611.50
00010571 00000045 1030.39 195.29 377.61 536.97 1093.01 391.07 1249.60 432.19 1100.48 498.55 1067.38 574.12 1210.26 607.35
00010572 00000046 1028.50 202.98 377.30 532.78 1087.75 395.91 1246.39 434.99 1098.26 492.52 1063.35 572.73 1206.43 605.63
00010573 00000047 1032.75 195.13 372.47 534.80 1096.54 392.93 1245.82 429.78 1101.94 491.86 1076.98 570.08 1210.23 601.90
00010574 00000048 1032.78 192.46 372.22 542.97 1096.62 393.31 1245.33 427.61 1102.25 490.93 1078.43 572.17 1211.41 602.05
00010575 00000049 1032.44 191.36 373.55 546.74 1096.84 391.90 1246.35 426.18 1103.28 489.48 1078.57 571.36 1213.80 601.03
00010576 00000050 1032.90 192.04 372.07 542.01 1096.62 392.32 1246.29 426.04 1104.07 489.49 1078.80 570.20 1213.91 599.48
00010577 00000051 1034.03 192.39 370.31 537.75 1096.75 393.43 1246.26 427.41 1104.32 490.07 1079.12 569.49 1213.51 598.88
00010578 00000052 1033.54 194.06 371.13 534.88 1096.54 393.80 1246.87 427.98 1105.15 491.31 1079.19 568.74 1214.69 598.36
00010579 00000053 1033.26 194.49 372.66 533.43 1095.99 394.38 1246.74 428.27 1104.98 491.99 1079.58 568.61 1215.91 597.82
00010580 00000054 1033.77 194.76 371.92 535.23 1096.50 394.81 1246.65 427.74 1105.91 493.47 1081.12 569.26 1217.64 597.75
00010581 00000055 1034.19 195.98 372.61 539.71 1097.44 394.49 1247.38 426.23 1106.75 494.61 1082.64 570.86 1220.45 598.41
00010582 00000056 1034.25 196.36 374.54 539.02 1096.97 395.26 1248.15 425.41 1107.20 494.05 1082.40 571.27 1221.28 597.63
00010583 00000057 1034.60 193.40 374.99 539.47 1096.44 394.73 1248.18 424.70 1107.15 491.15 1082.02 569.61 1221.72 595.59
00010584 00000058 1035.13 193.82 376.77 533.66 1095.67 392.22 1249.96 421.52 1108.11 483.86 1081.64 564.69 1225.95 589.70
00010585 00000059 1036.00 195.34 377.15 530.83 1090.88 392.63 1251.18 420.65 1105.54 478.81 1071.56 563.45 1228.52 587.64
00010586 00000060 1037.58 193.03 374.13 530.09 1092.22 388.32 1252.38 418.10 1106.14 477.51 1072.21 560.30 1228.73 586.19
00010587 00000061 1037.56 191.66 374.71 531.80 1091.48 390.64 1252.86 418.46 1106.51 477.59 1072.66 564.93 1225.69 589.21
00010588 00000062 1038.04 194.96 372.91 534.31 1092.74 392.49 1254.04 422.10 1105.98 480.69 1071.75 567.35 1222.89 592.69
00010589 00000063 1038.75 198.10 370.19 529.66 1095.12 391.19 1254.82 423.82 1109.00 485.30 1075.81 566.07 1222.24 593.73
00010590 00000064 1041.05 196.87 367.71 530.40 1093.14 390.96 1254.17 419.51 1108.79 484.19 1078.30 568.73 1225.10 593.44
00010591 00000065 1038.46 188.55 368.10 535.23 1098.55 388.46 1247.12 410.14 1114.46 477.11 1084.98 567.72 1219.83 587.65
00010592 00000066 1037.54 190.31 371.52 526.25 1095.60 392.18 1251.55 417.05 1115.22 477.10 1077.34 565.14 1213.28 587.91
00010593 00000067 1037.51 182.71 368.62 540.98 1099.69 390.56 1249.32 412.16 1118.49 474.44 1084.71 564.40 1223.56 584.16
00010594 00000068 1037.55 184.59 367.57 535.19 1097.95 389.38 1247.44 408.60 1117.24 473.80 1083.99 564.58 1220.56 582.91
00010595 00000069 1037.04 183.24 367.96 548.05 1097.15 392.09 1244.68 407.50 1116.06 478.21 1087.37 572.44 1222.28 587.53
00010596 00000070 1034.11 190.97 365.80 522.58 1086.66 402.58 1242.08 409.44 1114.56 483.28 1087.77 583.72 1210.15 591.59
00010597 00000071 1033.00 187.37 365.66 552.41 1086.80 399.08 1245.41 406.37 1115.00 492.54 1087.92 599.32 1209.53 606.21
00010598 00000072 1030.10 188.84 364.55 547.79 1083.31 401.34 1248.34 406.97 1119.94 500.55 1090.61 603.77 1215.47 609.10
00010599 00000073 1026.27 187.43 368.30 542.52 1081.39 401.21 1249.12 405.41 1124.48 497.39 1087.58 600.05 1214.01 604.35
00010600 00000074 1023.06 188.01 368.59 533.89 1088.69 397.27 1244.92 406.67 1125.58 485.40 1090.96 584.49 1217.66 594.70
00010601 00000075 1019.73 186.99 369.90 528.06 1087.09 390.41 1249.38 401.80 1127.51 476.47 1086.92 576.84 1222.25 588.42
00010602 00000076 1015.71 185.69 374.13 526.83 1083.92 386.34 1248.16 396.94 1126.97 471.15 1084.11 571.82 1222.12 582.53
00010603 00000077 1012.29 186.84 373.12 524.75 1079.95 387.20 1243.63 397.44 1124.79 471.16 1080.67 569.54 1225.27 579.55
00010604 00000078 1009.80 184.82 371.36 531.32 1077.72 390.25 1240.44 400.08 1123.81 476.96 1080.25 572.30 1227.88 581.55
00010605 00000079 1008.41 187.22 369.99 532.71 1074.31 395.31 1238.27 404.06 1120.52 483.00 1079.07 577.10 1227.03 585.56
00010606 00000080 1004.77 188.91 373.66 536.25 1071.07 400.70 1236.16 407.92 1118.92 490.04 1078.48 582.82 1226.08 589.59
00010607 00000081 1003.22 189.50 375.63 539.62 1068.08 406.06 1235.97 412.71 1116.62 496.25 1077.12 587.54 1227.17 593.40
00010608 00000082 1003.41 194.57 374.30 538.75 1066.84 410.82 1231.40 417.04 1112.56 503.74 1079.08 590.60 1225.60 595.82
00010609 00000083 1002.12 198.12 375.58 539.73 1065.87 412.24 1228.10 419.13 1109.67 509.08 1078.90 595.52 1221.04 601.04
00010610 00000084 1001.13 198.53 375.61 540.47 1064.54 413.99 1225.63 420.96 1107.08 511.77 1078.24 598.29 1217.51 603.71
00010611 00000085 1000.91 197.12 374.15 542.93 1062.82 414.09 1223.39 420.94 1103.92 512.57 1075.46 600.14 1213.71 605.48
00010612 00000086 1000.98 195.19 373.42 545.94 1061.94 413.84 1222.34 419.62 1102.69 511.46 1074.92 601.36 1212.39 605.98
00010613 00000087 1004.97 195.13 372.67 545.74 1062.79 413.25 1225.58 413.10 1099.37 507.66 1076.14 607.01 1211.05 605.98
00010614 00000088 1005.23 194.02 371.44 542.28 1062.70 412.72 1225.97 413.02 1100.46 506.57 1077.43 606.90 1210.00 606.35
00010615 00000089 1006.03 195.45 371.72 543.16 1062.99 412.15 1225.08 413.62 1099.01 506.43 1075.46 604.96 1209.94 605.35
00010616 00000090 1002.87 194.52 370.44 543.40 1061.27 412.73 1222.23 418.96 1100.99 509.16 1073.22 598.80 1213.17 603.86
00010617 00000091 1003.04 194.10 370.88 542.79 1061.05 412.66 1222.61 418.67 1101.53 507.94 1073.99 598.57 1214.63 603.39
00010618 00000092 1003.41 194.58 370.84 541.40 1061.92 411.82 1223.48 418.51 1101.54 507.53 1073.54 597.65 1213.38 603.39
00010619 00000093 1004.81 196.07 371.00 541.86 1055.99 409.22 1226.62 412.95 1099.37 504.17 1067.63 599.15 1211.65 601.91
00010620 00000094 1003.87 193.63 371.73 540.48 1062.87 410.44 1224.78 417.57 1102.80 505.20 1073.24 595.17 1214.79 601.38
00010621 00000095 1004.15 193.92 371.48 541.66 1063.50 410.01 1224.96 416.68 1103.23 503.84 1074.25 594.84 1216.31 600.74
00010622 00000096 1005.03 193.34 371.53 543.88 1064.90 409.11 1225.28 416.21 1103.23 502.98 1074.26 594.11 1215.84 600.47
00010623 00000097 1006.36 192.25 371.09 546.16 1066.02 408.71 1226.76 415.61 1104.55 503.10 1075.21 594.44 1217.47 600.70
00010624 00000098 1007.48 192.66 369.77 544.85 1067.40 408.97 1228.21 416.08 1106.20 503.26 1076.53 594.32 1218.18 600.97
00010625 00000099 1007.25 193.77 371.00 539.59 1067.65 408.81 1230.17 417.06 1107.08 502.96 1076.24 593.55 1217.90 601.27
00010626 00000100 1008.04 194.75 370.69 537.28 1068.23 409.73 1230.26 418.27 1107.23 503.79 1076.96 593.86 1216.81 601.95
00010627 00000101 1009.26 195.28 370.60 536.30 1069.80 410.03 1229.80 419.21 1107.13 505.03 1077.75 593.29 1215.32 601.87
00010628 00000102 1009.53 195.76 371.61 536.01 1070.69 410.42 1231.05 419.38 1108.44 503.77 1078.76 593.26 1215.85 601.79
00010629 00000103 1010.35 196.27 371.27 535.72 1071.81 410.74 1231.90 419.47 1109.81 503.18 1079.60 593.02 1217.08 601.38
00010630 00000104 1010.37 195.42 371.88 537.89 1072.54 410.26 1232.72 419.42 1110.40 503.07 1080.15 593.59 1217.26 602.36
00010631 00000105 1011.38 195.09 371.81 536.85 1074.08 409.13 1234.88 419.11 1112.32 501.81 1080.91 592.37 1218.46 601.92
00010632 00000106 1011.43 194.41 372.82 535.49 1075.29 407.32 1237.47 417.28 1115.98 500.26 1081.95 590.89 1221.49 600.49
00010633 00000107 1011.36 193.97 372.96 533.32 1076.28 405.67 1241.08 416.28 1119.28 498.17 1081.62 587.97 1224.25 598.25
00010634 00000108 1010.12 190.77 374.28 536.33 1077.68 404.19 1243.59 415.93 1122.56 496.32 1081.57 586.54 1225.52 597.66
00010635 00000109 1010.54 187.89 372.33 534.27 1080.02 402.04 1244.84 415.37 1126.18 493.48 1082.12 583.55 1225.19 596.00
CROP_BBOX: 688 0 1642 911
