Video ID: 	VatminI__is
H: 	2160
W: 	3840
FPS: 	24.0

FRAME INDEX X0 Y0 W H [Landmarks (5 Points)]

00029156 00000000 1973.05 674.40 395.51 578.21 2047.42 943.29 2226.30 949.63 2114.65 1047.59 2057.53 1111.96 2219.37 1117.38
00029157 00000001 1973.08 678.23 392.09 577.13 2045.32 942.81 2223.35 948.35 2110.83 1046.88 2056.20 1111.28 2219.62 1115.93
00029158 00000002 1973.63 679.97 389.12 578.47 2043.42 941.36 2221.78 947.71 2108.34 1046.79 2055.06 1111.60 2217.22 1116.65
00029159 00000003 1971.17 677.09 388.80 582.54 2040.71 940.64 2218.81 946.91 2105.29 1045.45 2053.07 1112.74 2212.57 1117.70
00029160 00000004 1969.87 679.90 388.95 580.11 2039.19 940.75 2216.83 946.13 2102.47 1043.00 2052.04 1116.26 2207.74 1120.77
00029161 00000005 1968.94 669.79 389.17 590.03 2036.73 940.63 2215.08 945.44 2099.07 1042.26 2051.02 1118.40 2203.55 1122.12
00029162 00000006 1972.29 671.58 384.19 595.19 2041.61 938.69 2208.76 943.63 2095.63 1041.86 2051.18 1122.64 2198.15 1127.20
00029163 00000007 1970.53 674.42 383.33 590.00 2039.01 936.78 2206.63 943.06 2091.43 1042.75 2047.76 1123.63 2194.55 1128.94
00029164 00000008 1967.07 669.51 385.16 590.90 2035.70 936.89 2203.18 942.96 2088.14 1044.47 2045.61 1123.18 2191.63 1128.26
00029165 00000009 1964.83 675.90 385.55 583.31 2033.18 937.67 2200.76 944.80 2085.37 1044.60 2042.43 1122.19 2188.81 1128.15
00029166 00000010 1957.05 679.05 391.93 582.99 2026.85 942.04 2195.76 950.14 2078.75 1044.53 2035.49 1121.36 2181.62 1128.08
00029167 00000011 1947.08 676.40 396.03 581.58 2013.36 945.67 2185.43 952.78 2064.62 1043.18 2024.97 1121.25 2170.22 1126.94
00029168 DELETE   1938.27 673.68 399.74 585.16 2002.22 947.07 2174.39 954.95 2051.67 1041.71 2013.64 1120.32 2158.56 1126.43
00029169 DELETE   1924.65 654.30 409.57 598.97 1986.49 942.90 2155.06 954.90 2026.95 1038.41 1996.92 1113.65 2142.40 1121.59
00029170 00000014 1917.36 647.02 407.57 599.42 1977.08 939.20 2144.61 952.21 2008.41 1034.72 1982.52 1116.22 2121.92 1124.91
00029171 00000015 1912.44 647.84 405.57 598.46 1967.94 936.08 2127.27 950.75 1992.35 1034.16 1977.57 1118.77 2108.02 1127.89
00029172 00000016 1907.93 648.39 407.26 599.09 1959.94 936.42 2115.91 950.79 1979.60 1036.82 1971.41 1122.61 2099.59 1131.10
00029173 00000017 1904.44 652.82 407.46 597.00 1952.90 933.60 2106.63 953.63 1967.72 1037.96 1965.14 1118.84 2095.26 1131.14
00029174 00000018 1898.25 644.26 410.38 605.48 1947.60 935.44 2100.03 955.80 1961.24 1039.21 1959.66 1116.88 2093.60 1128.52
00029175 00000019 1892.81 653.49 408.24 599.80 1942.66 933.09 2091.33 953.61 1956.01 1039.69 1956.04 1117.72 2087.64 1129.40
00029176 00000020 1899.97 654.44 393.10 610.97 1943.78 931.18 2083.94 951.02 1946.12 1040.57 1957.25 1121.44 2085.47 1135.79
00029177 00000021 1890.43 653.06 399.40 595.86 1943.96 934.98 2088.50 956.31 1952.67 1037.23 1947.85 1123.81 2068.09 1136.91
00029178 00000022 1901.66 657.45 387.88 599.32 1941.24 938.15 2082.04 961.93 1945.88 1046.93 1947.50 1121.55 2069.30 1139.48
00029179 00000023 1900.13 656.68 389.48 601.64 1938.14 944.94 2081.86 966.85 1941.30 1050.11 1945.95 1127.63 2067.64 1143.86
00029180 00000024 1897.20 668.64 388.76 600.34 1935.15 951.21 2078.46 969.25 1941.67 1058.81 1951.00 1138.58 2071.70 1151.54
00029181 00000025 1895.67 675.49 386.09 599.74 1932.02 951.28 2073.42 967.40 1938.07 1062.72 1954.91 1142.33 2076.55 1153.31
00029182 00000026 1893.07 674.37 392.66 604.42 1929.81 954.02 2072.27 973.57 1934.76 1066.95 1952.63 1141.34 2078.28 1154.50
00029183 00000027 1891.70 677.34 389.36 601.67 1929.21 953.62 2070.56 972.28 1934.36 1065.83 1950.41 1141.01 2077.56 1153.76
00029184 00000028 1889.81 676.88 391.66 601.26 1928.59 952.90 2068.46 972.04 1932.78 1066.26 1949.69 1138.46 2076.51 1151.64
00029185 00000029 1887.92 675.74 392.37 601.23 1926.77 951.80 2067.89 972.48 1930.41 1065.42 1946.06 1135.20 2074.78 1149.60
00029186 00000030 1886.97 674.59 390.38 597.41 1925.43 949.86 2067.91 971.48 1929.01 1062.35 1943.43 1132.99 2072.49 1148.40
00029187 00000031 1885.42 670.56 393.74 604.99 1923.53 946.87 2068.43 966.63 1924.87 1058.16 1937.33 1135.46 2067.01 1149.80
00029188 00000032 1882.81 660.19 397.50 608.61 1921.65 943.41 2066.77 963.47 1923.00 1054.63 1931.25 1133.36 2053.38 1148.37
00029189 00000033 1878.62 668.33 396.86 597.91 1919.38 941.88 2063.41 962.16 1920.22 1051.45 1926.76 1130.36 2048.18 1145.50
00029190 00000034 1880.38 668.06 388.77 605.61 1919.05 944.53 2060.25 962.30 1918.41 1051.39 1927.05 1137.49 2045.58 1150.59
00029191 00000035 1878.00 679.33 383.36 602.03 1914.73 947.68 2055.98 961.37 1914.07 1052.95 1924.55 1147.00 2043.27 1156.84
00029192 00000036 1873.82 673.99 382.01 602.20 1909.17 950.54 2051.32 962.71 1908.01 1054.67 1919.93 1147.78 2036.24 1155.83
00029193 00000037 1867.43 669.39 387.83 608.17 1903.43 950.77 2047.42 960.41 1903.98 1053.60 1916.64 1146.93 2036.81 1153.05
00029194 00000038 1861.90 675.33 388.36 602.31 1898.64 947.20 2042.95 955.65 1901.31 1049.96 1911.94 1144.35 2035.41 1149.68
00029195 00000039 1856.12 671.35 388.05 596.70 1895.38 940.92 2037.48 949.86 1896.81 1038.26 1903.79 1139.90 2021.45 1145.76
00029196 00000040 1850.10 673.56 392.13 591.21 1894.65 936.97 2031.08 944.81 1893.32 1028.54 1895.43 1136.06 2004.06 1141.33
00029197 00000041 1843.04 667.83 396.12 589.89 1892.88 927.64 2026.38 939.25 1886.79 1018.17 1883.42 1126.36 1988.21 1134.79
00029198 00000042 1833.56 666.76 400.94 587.45 1889.61 921.75 2021.37 935.53 1880.42 1011.26 1873.57 1120.19 1974.94 1130.31
00029199 00000043 1824.62 662.34 403.58 587.32 1881.39 917.48 2014.06 930.25 1869.81 1007.78 1862.75 1120.44 1962.73 1129.48
00029200 00000044 1818.61 664.86 400.70 581.56 1872.45 919.82 2006.82 931.76 1860.23 1010.83 1855.55 1123.72 1953.43 1132.00
00029201 00000045 1820.81 672.90 385.49 573.68 1862.06 924.34 1989.93 933.48 1854.35 1014.57 1851.60 1126.52 1949.64 1131.84
00029202 00000046 1808.70 657.55 391.52 597.84 1856.39 938.35 1991.12 946.85 1847.41 1026.23 1846.18 1136.76 1943.36 1141.58
00029203 00000047 1809.82 667.68 381.19 593.15 1845.89 944.38 1976.90 947.89 1838.44 1028.23 1842.60 1140.86 1941.52 1141.86
00029204 00000048 1804.55 676.70 378.85 600.09 1839.59 951.48 1972.19 957.83 1833.99 1039.55 1839.90 1151.91 1940.99 1155.19
00029205 00000049 1784.84 667.55 389.74 612.58 1831.79 957.28 1968.44 964.11 1827.76 1048.27 1835.11 1158.86 1943.64 1163.04
00029206 00000050 1776.31 679.07 393.05 608.69 1824.10 962.95 1961.26 969.80 1820.06 1051.72 1833.45 1159.48 1946.54 1162.43
00029207 00000051 1769.76 690.68 394.55 599.24 1818.16 968.24 1957.21 976.06 1815.49 1054.35 1825.76 1159.56 1941.51 1163.63
00029208 00000052 1767.07 690.84 397.45 601.46 1814.47 969.30 1954.54 977.97 1812.85 1054.40 1823.67 1158.40 1941.00 1162.84
00029209 00000053 1762.66 696.51 393.52 594.91 1811.33 970.36 1951.24 979.47 1812.08 1055.52 1819.86 1158.59 1939.21 1163.37
00029210 00000054 1760.82 696.34 394.53 594.41 1809.99 971.72 1949.95 980.57 1810.55 1056.56 1818.17 1157.52 1937.65 1162.15
00029211 00000055 1755.92 703.20 395.93 588.84 1804.47 974.82 1946.87 983.58 1808.58 1060.21 1816.69 1158.47 1938.78 1162.83
00029212 00000056 1754.91 707.47 394.11 584.99 1804.36 978.27 1944.99 985.09 1808.91 1062.33 1816.89 1158.80 1940.02 1161.38
00029213 00000057 1755.14 705.65 393.68 586.62 1804.53 978.01 1944.41 986.03 1809.09 1062.94 1817.07 1158.58 1939.68 1161.95
00029214 00000058 1755.33 710.50 394.60 581.82 1805.26 977.46 1945.04 986.43 1808.29 1062.32 1817.10 1157.54 1941.08 1161.69
00029215 00000059 1755.50 713.22 395.39 579.62 1805.00 978.50 1944.80 987.31 1808.02 1062.78 1817.56 1157.04 1942.54 1160.96
00029216 00000060 1755.65 714.30 396.60 578.44 1805.53 978.70 1945.26 987.86 1808.83 1062.58 1818.49 1155.03 1944.73 1159.11
00029217 00000061 1755.97 718.06 398.86 572.56 1805.74 978.25 1946.81 986.68 1810.27 1061.75 1819.73 1155.74 1946.58 1159.48
00029218 00000062 1756.48 715.00 401.65 576.21 1805.61 978.85 1948.01 986.79 1812.13 1062.27 1821.15 1155.46 1948.35 1158.90
00029219 00000063 1757.34 719.16 399.13 571.26 1806.64 978.18 1948.46 987.09 1813.53 1062.64 1822.45 1155.85 1948.82 1160.16
00029220 00000064 1759.06 710.66 397.91 582.00 1810.71 977.07 1950.99 986.67 1814.74 1062.45 1824.94 1156.04 1950.09 1160.54
00029221 00000065 1760.69 706.18 399.74 587.36 1812.07 976.06 1954.97 984.73 1817.49 1062.37 1825.14 1157.48 1951.61 1161.42
00029222 00000066 1764.83 699.46 399.99 594.90 1815.10 974.39 1956.65 985.51 1816.97 1061.46 1827.03 1158.17 1949.65 1163.89
00029223 00000067 1767.99 701.33 393.19 595.57 1819.90 968.27 1957.30 981.77 1815.32 1058.89 1823.51 1159.83 1940.83 1168.19
00029224 00000068 1771.31 705.36 390.92 587.53 1823.26 967.38 1963.06 976.90 1821.79 1054.39 1820.88 1164.18 1932.90 1170.93
00029225 00000069 1775.13 699.44 385.47 586.29 1826.67 962.92 1964.33 971.83 1827.08 1050.97 1821.14 1160.34 1928.18 1167.02
00029226 00000070 1780.24 692.81 384.21 590.30 1829.15 959.34 1966.21 969.08 1829.68 1048.92 1823.72 1157.75 1929.98 1165.15
00029227 00000071 1780.38 680.68 389.04 604.67 1827.78 956.62 1968.53 967.17 1829.75 1050.94 1828.19 1159.75 1937.18 1167.15
00029228 00000072 1779.96 685.82 390.59 603.61 1828.29 957.03 1969.90 965.54 1831.50 1051.75 1833.45 1161.65 1945.91 1167.43
00029229 00000073 1780.61 676.28 394.42 612.05 1827.60 958.65 1973.36 965.01 1834.90 1051.28 1838.09 1161.05 1955.60 1164.65
00029230 00000074 1781.36 684.05 396.71 605.52 1828.64 957.69 1973.86 964.71 1834.16 1051.08 1840.54 1158.15 1960.13 1162.43
00029231 00000075 1782.14 689.29 396.20 598.98 1830.19 955.99 1976.73 964.42 1836.40 1050.12 1841.28 1155.74 1963.67 1161.06
00029232 00000076 1782.52 680.10 400.14 607.02 1831.88 956.29 1979.96 965.63 1838.93 1049.04 1842.88 1153.66 1965.99 1159.79
00029233 00000077 1783.26 678.38 400.18 605.26 1832.93 951.68 1980.73 964.55 1840.87 1049.06 1842.37 1149.41 1966.15 1158.30
00029234 00000078 1784.34 685.30 400.29 597.57 1832.77 951.72 1983.44 962.47 1842.88 1048.25 1841.97 1150.76 1967.91 1158.37
00029235 00000079 1799.12 681.89 391.58 606.94 1837.01 954.62 1980.64 957.95 1838.38 1046.62 1845.51 1151.96 1974.52 1154.40
00029236 00000080 1787.98 670.71 401.35 612.93 1837.06 948.70 1985.42 960.31 1845.38 1044.68 1848.12 1152.92 1967.08 1161.05
00029237 00000081 1801.92 684.80 388.83 586.45 1838.24 953.88 1982.42 961.92 1841.56 1045.61 1846.51 1145.85 1966.09 1151.57
00029238 00000082 1804.25 679.72 392.89 593.12 1840.06 956.01 1983.37 964.19 1843.74 1047.72 1848.12 1146.13 1965.59 1151.76
00029239 00000083 1804.58 683.04 391.65 599.84 1841.75 959.10 1984.55 965.74 1845.73 1049.22 1849.75 1152.98 1967.05 1157.69
00029240 00000084 1806.74 690.51 390.80 600.56 1842.87 966.64 1987.87 971.72 1849.52 1049.86 1853.41 1159.51 1971.80 1163.21
00029241 00000085 1803.95 682.86 396.81 609.32 1846.98 972.65 2001.11 977.13 1861.67 1054.57 1854.73 1166.13 1970.49 1168.55
00029242 00000086 1811.84 680.63 393.39 605.52 1856.69 961.10 2009.02 971.56 1866.05 1053.12 1858.74 1159.87 1973.32 1166.39
00029243 00000087 1816.49 676.64 397.44 612.21 1860.54 953.78 2013.73 966.09 1867.92 1051.04 1865.08 1154.21 1986.22 1161.74
00029244 00000088 1813.24 672.64 401.33 613.81 1859.90 954.42 2019.34 963.08 1875.00 1049.35 1864.58 1151.12 1996.75 1156.16
00029245 00000089 1816.44 678.44 401.15 605.83 1862.46 953.67 2021.79 960.91 1880.74 1046.74 1867.81 1142.88 2007.67 1147.28
00029246 00000090 1818.66 679.47 401.26 604.99 1865.90 950.75 2024.89 959.47 1886.43 1047.35 1871.64 1137.67 2014.83 1143.53
00029247 00000091 1822.53 685.38 399.83 596.10 1870.68 950.03 2028.10 958.65 1891.79 1046.03 1877.02 1135.08 2018.20 1141.09
00029248 00000092 1826.04 685.36 398.21 594.52 1873.17 950.32 2030.86 958.46 1895.48 1047.90 1879.06 1132.90 2024.71 1138.80
00029249 00000093 1831.02 683.40 400.20 596.16 1877.33 951.54 2033.45 957.37 1899.14 1047.92 1885.04 1130.34 2033.18 1134.62
00029250 00000094 1831.79 696.55 396.35 575.74 1874.45 955.42 2033.54 960.84 1898.42 1047.70 1883.77 1126.15 2034.26 1130.18
00029251 00000095 1829.00 693.42 399.99 572.12 1871.41 954.40 2030.55 958.79 1895.64 1042.57 1879.70 1121.13 2029.64 1124.42
00029252 00000096 1823.43 685.26 400.61 577.35 1867.01 952.30 2021.51 954.12 1887.70 1036.34 1876.49 1115.42 2023.96 1116.06
00029253 00000097 1819.63 668.79 397.08 583.31 1863.09 940.38 2011.68 945.87 1875.82 1029.01 1873.57 1108.51 2015.75 1111.16
00029254 00000098 1814.73 653.68 402.82 588.03 1860.52 926.43 2008.22 934.75 1868.53 1016.10 1867.63 1099.13 2005.66 1104.09
00029255 00000099 1812.69 638.06 402.68 594.78 1856.41 917.38 2003.24 923.65 1862.49 1003.68 1865.63 1092.84 2003.83 1095.61
00029256 00000100 1811.61 633.75 402.07 599.96 1853.79 916.44 1996.07 918.70 1852.89 999.13 1867.48 1091.39 2003.67 1090.41
00029257 00000101 1807.43 631.93 401.86 594.33 1850.56 916.97 1997.49 918.64 1853.25 1004.27 1861.95 1093.62 2002.16 1092.12
00029258 00000102 1809.10 672.76 385.01 559.40 1847.14 930.87 1993.67 929.38 1855.20 1020.75 1865.98 1105.73 2004.02 1101.27
00029259 00000103 1800.41 660.96 383.83 594.09 1839.44 948.61 1979.96 944.58 1850.45 1044.46 1871.12 1124.35 2004.97 1115.85
00029260 00000104 1796.32 667.15 388.97 612.74 1836.49 959.67 1972.43 956.92 1846.10 1061.05 1864.60 1137.76 2003.22 1134.92
00029261 00000105 1779.83 675.16 393.39 625.43 1825.61 991.55 1965.89 991.52 1834.52 1089.00 1863.12 1165.98 1991.97 1158.85
00029262 00000106 1777.42 693.66 394.53 627.66 1822.27 1013.87 1960.61 1011.44 1830.44 1112.48 1861.98 1190.08 1990.16 1180.16
00029263 00000107 1780.78 711.72 387.84 630.70 1830.69 1021.83 1958.05 1015.43 1829.71 1120.56 1862.79 1201.79 1988.50 1194.91
00029264 00000108 1780.77 710.86 385.88 628.09 1830.38 1019.73 1958.52 1014.56 1830.31 1119.30 1861.74 1200.77 1985.98 1194.83
00029265 00000109 1775.50 684.54 397.83 637.78 1824.24 1010.49 1960.09 1009.09 1830.53 1110.09 1862.72 1189.84 1984.38 1181.03
00029266 00000110 1776.16 683.25 397.80 630.16 1824.54 999.65 1962.49 999.41 1833.84 1094.60 1863.77 1176.48 1985.96 1169.18
00029267 00000111 1777.79 681.87 394.03 624.19 1829.63 990.50 1970.04 987.91 1841.08 1083.60 1865.76 1169.18 1989.00 1161.82
00029268 00000112 1781.38 684.98 394.71 619.41 1831.54 988.34 1972.40 986.46 1843.45 1082.01 1867.87 1167.66 1991.76 1160.88
00029269 00000113 1785.26 692.32 395.19 616.89 1831.73 993.49 1971.37 992.86 1842.63 1088.14 1867.53 1170.93 1993.45 1164.45
00029270 00000114 1786.62 690.56 398.54 625.95 1832.97 1000.16 1969.33 1002.19 1841.03 1098.19 1869.31 1178.16 1993.91 1172.70
00029271 00000115 1797.43 714.23 382.28 609.14 1840.84 1002.05 1969.27 1002.76 1845.30 1104.58 1872.05 1184.54 1993.29 1184.36
00029272 00000116 1798.02 715.25 383.19 608.14 1841.27 1000.61 1969.82 1002.92 1847.02 1104.59 1871.62 1183.88 1993.46 1185.00
00029273 00000117 1790.26 693.40 396.73 622.32 1833.86 998.02 1971.84 1001.72 1845.11 1099.13 1870.54 1178.29 1995.80 1174.51
00029274 00000118 1788.49 683.94 399.26 628.01 1834.15 992.98 1974.12 995.12 1845.87 1091.38 1871.30 1175.06 1996.36 1170.60
00029275 00000119 1790.38 688.85 399.44 619.60 1836.38 988.57 1976.68 989.86 1850.63 1087.65 1873.44 1172.74 1997.90 1168.46
00029276 00000120 1789.67 673.50 405.85 635.20 1836.89 986.39 1979.93 985.72 1851.86 1085.14 1873.99 1172.42 2000.64 1166.65
00029277 00000121 1793.53 689.41 400.22 620.68 1840.21 986.69 1980.22 990.09 1852.59 1086.55 1876.07 1172.04 2000.47 1169.49
00029278 00000122 1796.49 689.47 395.65 620.83 1841.89 987.31 1982.39 987.62 1858.17 1087.63 1877.58 1174.29 2003.02 1169.85
00029279 00000123 1798.76 693.27 394.11 616.23 1843.37 986.23 1985.01 987.21 1858.39 1086.56 1876.56 1174.09 2003.15 1170.56
00029280 00000124 1800.29 690.64 397.14 618.46 1845.13 983.48 1986.78 984.53 1860.96 1086.53 1879.29 1173.45 2004.56 1169.89
00029281 00000125 1802.96 693.59 396.36 612.09 1844.60 981.15 1987.72 981.86 1861.28 1084.93 1881.08 1172.71 2007.42 1168.96
00029282 00000126 1802.55 688.49 398.53 616.00 1845.53 980.01 1989.06 980.00 1860.96 1083.27 1882.26 1171.99 2009.66 1167.93
00029283 00000127 1805.83 698.91 391.93 607.60 1847.89 981.56 1988.93 979.92 1862.77 1083.52 1884.02 1171.39 2011.07 1166.38
00029284 00000128 1807.75 691.62 391.53 618.25 1848.70 981.46 1990.38 977.29 1861.30 1083.46 1885.69 1171.87 2015.50 1164.61
00029285 00000129 1808.89 687.80 392.51 620.72 1850.46 977.75 1993.04 975.59 1864.16 1081.37 1888.92 1171.57 2016.59 1166.04
00029286 00000130 1810.85 696.87 393.48 606.70 1853.99 974.12 1996.13 975.59 1868.56 1079.60 1891.10 1166.30 2016.50 1164.36
00029287 00000131 1816.27 695.07 397.27 603.29 1854.52 974.78 2005.68 972.97 1874.64 1079.13 1890.00 1165.05 2022.59 1160.33
00029288 00000132 1818.91 695.11 393.19 600.08 1857.85 972.90 2009.94 969.62 1879.13 1074.57 1889.65 1163.84 2022.14 1158.61
00029289 00000133 1823.75 685.41 394.54 604.77 1863.41 965.24 2013.36 967.57 1882.65 1069.39 1892.23 1160.40 2015.94 1159.65
00029290 00000134 1825.88 681.35 402.64 602.79 1866.97 962.65 2016.96 965.78 1882.80 1061.65 1888.02 1149.65 2012.60 1150.17
00029291 00000135 1827.05 681.28 408.20 596.35 1868.32 961.85 2021.21 963.36 1887.31 1057.15 1889.57 1144.47 2014.38 1144.04
00029292 00000136 1833.07 676.20 406.87 601.08 1875.95 958.55 2024.37 958.53 1891.58 1055.14 1897.80 1145.85 2020.13 1144.97
00029293 00000137 1837.03 672.06 403.17 607.65 1879.72 957.09 2028.69 955.85 1895.63 1055.38 1901.93 1145.70 2028.24 1143.98
00029294 00000138 1840.95 680.13 400.54 597.74 1884.04 955.78 2032.25 955.76 1899.76 1053.35 1904.11 1144.71 2030.34 1143.98
00029295 00000139 1842.67 691.35 402.98 585.40 1886.53 962.63 2032.55 962.94 1900.81 1050.68 1907.39 1143.32 2026.52 1142.62
00029296 00000140 1845.09 685.53 404.19 584.38 1889.86 954.30 2035.86 958.21 1904.34 1050.46 1908.78 1139.35 2024.80 1141.43
00029297 00000141 1847.80 669.27 406.59 599.34 1895.66 948.00 2039.10 953.73 1908.51 1046.91 1910.32 1132.17 2027.44 1135.40
00029298 00000142 1852.85 661.94 402.17 607.87 1901.51 945.53 2042.41 949.01 1912.35 1045.18 1916.61 1134.25 2034.29 1136.09
00029299 00000143 1857.18 652.38 404.35 618.74 1904.22 941.05 2046.93 944.28 1915.20 1043.10 1921.10 1132.57 2043.60 1134.80
00029300 00000144 1863.85 644.38 399.53 624.08 1909.67 931.11 2049.23 939.25 1915.40 1040.58 1926.25 1125.02 2050.90 1131.04
00029301 00000145 1867.96 649.38 396.40 610.41 1913.92 925.72 2054.15 934.89 1922.43 1034.17 1927.48 1118.14 2052.13 1125.57
00029302 00000146 1872.18 654.77 393.49 596.73 1917.37 919.57 2058.03 931.21 1929.30 1029.84 1928.41 1113.18 2049.82 1122.59
00029303 00000147 1875.27 649.73 393.48 599.17 1921.50 914.50 2060.01 927.42 1931.91 1025.03 1930.66 1108.25 2046.45 1118.71
00029304 00000148 1878.42 649.51 392.22 592.99 1924.79 908.82 2064.21 922.35 1934.92 1019.50 1933.01 1101.78 2049.38 1113.02
00029305 00000149 1879.70 650.21 391.02 586.25 1926.15 906.14 2064.93 917.75 1936.26 1013.47 1934.95 1096.90 2052.49 1107.04
00029306 00000150 1881.64 644.22 385.08 586.22 1927.55 904.17 2063.77 914.26 1936.33 1008.67 1935.33 1092.01 2053.07 1101.12
00029307 00000151 1882.68 637.42 383.87 587.47 1927.34 898.37 2063.77 909.04 1935.35 1004.00 1935.42 1089.75 2050.88 1099.32
00029308 00000152 1881.91 640.71 384.12 581.13 1928.81 889.34 2062.72 906.43 1934.47 1000.56 1934.21 1083.45 2044.19 1097.46
00029309 00000153 1883.31 632.93 388.70 579.45 1924.75 886.82 2061.87 903.42 1926.64 990.82 1928.82 1081.49 2041.71 1093.19
00029310 00000154 1885.35 628.97 389.67 581.85 1927.83 883.26 2059.81 901.60 1926.00 985.22 1926.31 1077.96 2030.31 1090.66
00029311 00000155 1885.66 630.69 391.02 574.64 1928.37 879.38 2058.63 901.06 1922.87 980.04 1921.88 1072.73 2023.04 1087.64
00029312 00000156 1888.33 621.87 386.24 584.59 1929.20 877.92 2060.87 897.39 1923.32 976.29 1924.08 1073.24 2027.71 1086.58
00029313 00000157 1888.81 617.70 385.97 594.79 1928.92 878.02 2060.88 892.58 1921.93 971.66 1926.32 1075.08 2033.27 1084.77
00029314 00000158 1886.73 614.99 388.60 600.79 1929.28 876.75 2059.62 889.66 1921.80 969.45 1927.57 1072.96 2035.90 1081.55
