Video ID: 	RCu_MiPAqbM
H: 	1080
W: 	1920
FPS: 	25.0

FRAME INDEX X0 Y0 W H [Landmarks (5 Points)]

00003929 00000000 980.03 116.87 518.17 737.54 1068.74 414.34 1319.35 398.64 1173.88 556.95 1104.82 688.49 1304.62 676.40
00003930 00000001 977.30 113.69 519.17 746.46 1066.15 415.84 1313.31 396.84 1167.17 554.21 1102.65 689.91 1301.87 674.97
00003931 00000002 974.87 116.87 518.85 746.40 1063.02 417.32 1308.34 398.32 1162.66 555.87 1100.31 690.63 1297.71 675.63
00003932 00000003 971.49 113.09 518.57 754.00 1058.38 422.29 1302.53 401.43 1154.75 558.04 1097.72 693.52 1294.25 676.73
00003933 00000004 967.64 113.49 520.67 760.26 1055.44 424.78 1297.67 403.68 1149.84 559.01 1094.92 694.37 1290.51 677.34
00003934 00000005 964.63 114.52 522.13 761.36 1051.78 424.36 1293.43 401.78 1146.78 559.50 1092.21 695.49 1289.18 677.08
00003935 00000006 961.44 115.02 523.95 764.71 1048.47 424.04 1289.70 400.91 1141.54 558.69 1088.24 695.98 1284.52 677.18
00003936 00000007 957.67 114.71 526.45 768.85 1043.75 425.76 1286.03 401.00 1136.65 558.46 1083.83 697.90 1281.40 677.73
00003937 00000008 954.17 115.13 527.95 768.40 1039.54 427.62 1282.00 401.13 1132.89 558.96 1080.65 699.77 1277.59 678.17
00003938 00000009 952.68 112.68 529.40 773.55 1040.45 428.30 1273.98 402.61 1127.82 559.47 1082.39 695.59 1273.83 673.88
00003939 00000010 951.00 121.15 528.77 765.99 1037.53 431.20 1270.51 404.58 1126.48 564.20 1080.65 698.16 1273.38 675.75
00003940 00000011 950.46 121.65 529.91 767.22 1038.79 437.05 1267.87 408.24 1128.29 571.33 1084.95 704.10 1274.20 679.85
00003941 00000012 946.36 118.81 534.85 775.46 1037.67 445.74 1268.16 410.45 1131.78 577.56 1089.93 713.49 1278.77 683.86
00003942 00000013 944.78 119.23 537.70 773.67 1037.83 450.55 1269.61 408.38 1137.14 575.26 1097.99 718.49 1285.63 683.19
00003943 00000014 944.03 113.67 538.49 767.13 1037.39 448.23 1272.04 401.96 1141.70 565.87 1101.06 713.60 1289.40 675.11
00003944 00000015 945.77 114.55 536.27 757.25 1036.84 444.61 1274.25 396.49 1142.43 558.43 1102.24 711.32 1291.13 671.40
00003945 00000016 950.01 110.91 534.19 756.33 1036.97 440.60 1275.10 392.74 1139.52 551.34 1099.34 708.53 1287.94 669.03
00003946 00000017 951.41 109.73 533.45 757.48 1037.70 436.52 1274.22 388.87 1135.92 544.06 1097.33 702.63 1284.23 663.20
00003947 00000018 949.77 111.85 533.03 748.32 1037.37 431.28 1269.05 388.93 1131.68 540.56 1095.31 695.43 1274.70 660.37
00003948 00000019 949.29 108.34 527.82 747.49 1036.57 425.82 1263.99 387.69 1125.81 537.38 1089.64 681.58 1272.69 649.29
00003949 DELETE   947.52 106.36 520.09 732.43 1027.89 423.55 1256.04 384.90 1117.05 536.18 1079.90 675.39 1264.10 642.61
00003950 00000021 943.92 106.22 521.79 738.61 1022.31 421.38 1249.80 382.98 1107.28 533.75 1069.22 672.86 1258.45 640.29
00003951 00000022 938.34 107.73 525.05 743.01 1018.29 421.25 1241.20 383.37 1099.08 531.24 1061.51 674.88 1245.01 643.35
00003952 00000023 934.72 111.16 524.48 745.91 1014.77 420.29 1236.82 383.22 1094.66 531.36 1056.72 677.16 1240.76 646.36
00003953 00000024 930.89 110.69 525.93 751.78 1009.84 421.39 1233.56 383.85 1090.43 535.18 1054.12 684.19 1238.76 652.99
00003954 00000025 924.31 109.00 532.92 763.57 1000.84 423.85 1231.08 386.00 1081.60 539.10 1044.35 690.91 1235.46 659.64
00003955 00000026 921.41 112.13 526.60 761.03 995.08 429.83 1223.85 390.29 1073.95 541.39 1039.48 696.42 1228.88 663.73
00003956 00000027 916.82 110.59 528.77 760.02 991.49 427.97 1221.22 391.31 1070.80 544.12 1035.03 695.12 1225.39 664.86
00003957 00000028 915.13 113.36 528.69 757.96 991.78 428.62 1221.20 392.41 1073.94 545.40 1036.74 695.55 1223.33 665.93
00003958 00000029 914.88 111.76 530.87 761.76 993.37 430.88 1224.22 396.14 1075.41 548.39 1038.59 698.01 1223.11 669.72
00003959 00000030 913.50 115.33 532.26 759.52 991.26 431.79 1222.76 398.99 1072.12 554.29 1036.28 701.76 1219.37 675.26
00003960 00000031 910.17 122.68 534.32 750.93 991.73 430.80 1223.24 403.12 1078.70 556.45 1041.11 701.09 1213.28 679.43
00003961 00000032 912.56 119.10 532.93 757.81 994.18 433.44 1219.46 404.62 1071.12 558.64 1038.86 700.17 1211.51 677.40
00003962 00000033 914.65 119.64 531.92 759.87 996.91 434.71 1225.93 406.06 1078.29 561.95 1042.69 701.46 1221.70 678.60
00003963 00000034 918.11 123.15 533.19 755.01 999.07 437.96 1229.84 406.77 1084.20 564.58 1047.54 704.59 1227.50 679.45
00003964 00000035 920.55 125.00 534.84 753.80 1002.05 438.88 1232.41 405.48 1087.19 566.21 1055.46 707.83 1232.48 680.84
00003965 00000036 918.44 127.46 539.74 757.18 1004.81 437.12 1239.05 408.11 1094.81 566.01 1058.50 709.60 1236.78 685.55
00003966 00000037 919.60 130.55 537.12 753.49 1003.16 437.34 1237.36 408.99 1092.70 567.50 1057.55 710.69 1234.98 687.32
00003967 00000038 919.41 131.92 538.20 753.40 1003.68 438.18 1236.99 410.70 1091.86 567.99 1057.04 711.93 1231.92 689.48
00003968 00000039 921.55 125.89 535.28 755.97 1003.45 442.40 1232.55 410.46 1086.05 571.88 1058.33 715.52 1230.16 689.51
00003969 00000040 921.90 129.78 537.29 760.05 1007.48 445.28 1235.97 411.09 1093.62 573.62 1067.00 721.69 1235.34 693.72
00003970 00000041 922.75 127.01 540.33 774.04 1012.40 447.57 1237.15 412.04 1099.59 579.15 1074.44 725.41 1242.20 696.24
00003971 00000042 920.03 126.25 546.14 778.57 1014.99 447.24 1246.36 410.96 1110.44 576.62 1081.44 729.40 1252.42 698.74
00003972 00000043 924.26 126.86 543.25 779.54 1014.93 450.95 1239.95 411.09 1103.56 581.18 1081.44 730.10 1250.87 696.95
00003973 00000044 921.45 127.99 542.22 776.37 1011.67 452.35 1237.79 410.80 1101.68 579.61 1076.36 725.25 1255.87 690.55
00003974 00000045 920.98 128.46 542.69 779.94 1006.49 452.46 1234.68 406.50 1096.66 575.31 1070.62 720.96 1264.75 682.41
00003975 00000046 921.08 125.52 543.74 778.81 1004.50 453.23 1236.24 404.31 1096.50 572.22 1066.78 716.27 1268.90 675.16
00003976 00000047 924.11 123.23 542.74 778.69 1005.52 451.09 1239.41 401.90 1098.32 568.76 1066.42 712.25 1273.83 670.94
00003977 00000048 930.60 121.38 539.79 774.60 1012.72 446.51 1246.62 399.10 1106.32 564.50 1071.06 707.40 1278.92 667.36
00003978 00000049 931.37 116.29 539.78 768.02 1015.45 441.85 1250.85 394.61 1111.55 556.09 1072.62 697.64 1281.22 657.54
00003979 00000050 926.47 113.75 537.53 753.66 1013.00 433.77 1245.89 390.54 1110.31 549.43 1067.82 686.19 1273.47 649.25
00003980 00000051 921.14 115.80 536.31 746.78 1008.60 427.92 1241.05 387.89 1102.39 540.86 1056.45 680.23 1259.01 646.50
00003981 00000052 921.97 115.91 536.04 747.23 1009.43 425.22 1239.71 385.89 1100.44 536.65 1055.25 678.01 1254.57 644.95
00003982 00000053 923.34 115.96 535.65 743.86 1010.18 428.12 1242.92 386.13 1105.18 538.66 1062.84 685.35 1256.56 650.28
00003983 00000054 924.05 112.97 538.25 754.53 1010.54 430.84 1242.91 388.37 1102.70 540.83 1063.93 691.32 1255.32 656.17
00003984 00000055 922.22 116.44 535.91 748.97 1004.60 433.29 1237.82 389.76 1095.81 543.68 1057.06 694.61 1249.67 658.77
00003985 00000056 921.32 115.48 533.18 751.79 1000.87 433.47 1234.44 390.18 1089.68 544.89 1050.76 696.31 1244.21 660.92
00003986 00000057 920.55 115.27 533.80 752.67 1002.93 432.95 1235.77 391.42 1092.93 546.46 1055.07 697.86 1243.75 663.93
00003987 00000058 922.11 116.93 538.42 752.85 1008.54 432.05 1242.11 391.49 1101.86 547.41 1063.42 696.64 1251.13 663.36
00003988 00000059 923.22 112.47 537.32 761.17 1010.79 432.30 1242.91 391.96 1103.21 546.73 1064.53 696.93 1251.71 663.72
00003989 00000060 924.78 116.75 533.86 758.17 1005.67 432.20 1237.51 391.71 1092.90 547.25 1056.50 698.60 1243.57 665.34
00003990 00000061 920.10 116.66 530.48 753.00 998.22 432.77 1229.69 393.87 1084.15 549.28 1044.96 697.33 1236.16 665.38
00003991 00000062 919.89 116.94 529.50 752.30 997.31 430.89 1228.05 394.06 1082.08 547.83 1041.68 693.40 1233.05 663.13
00003992 00000063 922.54 117.66 529.86 752.77 1002.18 431.43 1233.59 396.20 1087.78 549.78 1044.71 691.28 1237.41 662.56
00003993 00000064 921.31 117.25 531.62 756.39 1002.30 434.16 1236.09 396.00 1091.91 551.36 1049.14 695.61 1241.53 664.47
00003994 00000065 918.26 117.32 533.07 751.91 997.99 434.40 1230.13 397.77 1084.37 553.95 1045.92 697.20 1233.37 667.31
00003995 00000066 915.30 116.52 530.76 749.73 995.40 434.57 1225.78 402.11 1078.38 556.76 1041.90 695.58 1226.21 669.15
00003996 00000067 914.71 120.66 529.37 746.75 995.92 434.97 1224.14 404.30 1078.07 558.30 1041.32 695.24 1223.16 670.37
00003997 00000068 913.64 121.76 529.51 746.62 996.92 437.13 1226.16 406.28 1082.59 561.83 1044.89 697.39 1224.93 672.56
00003998 00000069 912.54 124.89 531.44 747.08 995.41 437.27 1224.82 406.56 1080.29 563.93 1044.14 699.57 1224.99 674.79
00003999 00000070 911.78 121.96 532.90 752.19 993.42 437.68 1220.26 405.67 1073.49 562.25 1041.95 700.69 1220.91 674.56
00004000 00000071 911.89 120.55 532.69 753.77 992.99 437.70 1220.64 406.21 1071.96 561.67 1040.18 700.74 1221.35 675.07
00004001 00000072 913.75 123.27 533.21 748.70 994.37 437.70 1225.58 406.66 1077.03 563.82 1042.19 700.42 1228.23 675.08
00004002 00000073 916.53 125.03 531.96 744.83 996.50 438.49 1229.98 408.07 1081.77 566.07 1043.88 700.67 1231.72 676.09
00004003 00000074 919.31 129.12 532.37 746.65 996.97 441.10 1231.09 409.62 1081.73 568.74 1044.86 704.84 1233.51 679.24
00004004 00000075 919.45 131.74 535.89 753.70 998.76 440.58 1233.70 412.07 1088.09 568.14 1049.73 707.80 1235.12 684.06
00004005 00000076 920.81 131.05 537.71 760.71 1000.14 438.80 1234.78 410.05 1087.76 567.79 1051.70 708.02 1236.50 684.01
00004006 00000077 920.56 134.73 541.82 761.82 1004.43 437.63 1236.90 406.64 1090.71 563.00 1059.99 712.43 1235.38 686.61
00004007 00000078 922.83 134.09 540.77 754.29 1004.13 439.28 1238.64 407.51 1092.30 565.29 1059.33 711.12 1242.15 684.53
00004008 00000079 922.88 128.68 544.27 767.19 1001.54 437.46 1238.17 405.53 1088.42 562.09 1051.54 707.85 1246.82 680.62
00004009 00000080 921.33 125.97 544.13 767.35 1001.29 436.22 1235.68 405.05 1086.27 559.11 1050.32 706.13 1237.43 680.08
00004010 00000081 919.12 126.13 545.79 773.99 998.91 435.68 1232.56 403.68 1081.31 558.49 1049.40 709.92 1234.64 683.22
00004011 00000082 917.89 125.22 546.29 775.17 996.97 437.51 1231.73 404.68 1079.90 559.97 1048.22 713.23 1232.66 685.91
00004012 00000083 919.49 128.46 545.21 770.24 997.64 436.13 1233.07 404.72 1080.93 563.12 1051.16 715.25 1232.66 689.29
00004013 00000084 921.59 128.87 543.89 762.82 1001.81 436.96 1236.87 406.28 1087.53 565.99 1056.96 716.01 1234.47 690.78
00004014 00000085 922.29 131.21 542.92 755.98 1004.09 438.74 1239.71 407.85 1092.91 567.86 1059.69 715.64 1237.32 690.23
00004015 00000086 928.99 125.31 534.10 752.93 1007.76 442.76 1237.82 407.56 1091.90 566.74 1064.49 716.57 1235.77 687.71
00004016 00000087 932.60 120.94 531.81 752.48 1013.52 443.58 1244.83 407.16 1101.92 566.99 1070.58 715.64 1243.88 685.77
00004017 00000088 935.45 121.21 531.48 755.98 1019.07 441.28 1253.38 407.29 1111.49 569.34 1075.48 714.34 1253.16 686.43
00004018 00000089 935.36 121.81 533.44 765.68 1025.60 439.98 1258.17 407.97 1119.02 568.06 1081.78 716.51 1256.94 690.32
00004019 00000090 932.51 124.00 537.93 770.56 1027.33 441.71 1261.03 409.80 1124.56 573.05 1085.12 720.45 1262.04 694.23
00004020 00000091 930.60 124.17 540.99 766.84 1027.42 442.08 1264.46 408.95 1128.80 574.35 1087.35 720.32 1266.82 692.90
00004021 00000092 928.61 127.99 542.58 761.66 1026.74 442.15 1266.95 409.11 1131.83 578.49 1088.97 721.75 1269.79 694.24
00004022 00000093 927.80 125.84 544.12 767.91 1028.28 445.95 1269.76 411.24 1135.71 582.53 1091.60 726.43 1273.39 697.47
00004023 00000094 929.94 126.25 542.89 776.13 1030.96 449.51 1273.72 416.31 1139.09 588.09 1089.85 730.99 1275.80 703.31
00004024 00000095 930.99 129.44 541.96 773.56 1035.74 451.94 1279.68 421.32 1145.35 591.14 1093.68 731.57 1278.31 706.05
00004025 00000096 930.58 122.68 544.75 783.61 1033.12 453.73 1282.87 419.25 1147.31 586.48 1090.64 740.89 1281.77 713.45
00004026 00000097 936.42 127.00 538.37 778.57 1036.00 452.27 1275.51 424.84 1138.79 594.71 1089.18 730.99 1272.35 708.41
00004027 00000098 939.18 130.97 534.86 768.79 1031.71 451.02 1269.48 426.77 1129.51 597.12 1082.89 729.05 1264.71 709.16
00004028 00000099 941.89 129.83 531.50 770.54 1032.19 448.93 1266.75 428.12 1124.12 595.46 1079.05 725.87 1261.22 708.87
00004029 00000100 944.53 132.45 529.67 769.14 1035.38 449.16 1271.65 429.70 1128.43 595.33 1079.51 725.14 1263.50 709.33
00004030 00000101 944.25 130.62 529.73 770.40 1042.03 447.73 1281.75 428.66 1141.16 595.63 1086.69 724.64 1272.65 709.15
00004031 00000102 946.29 125.06 533.75 776.42 1048.36 443.42 1290.39 422.64 1151.97 589.63 1095.20 723.21 1285.31 705.76
00004032 00000103 946.83 121.12 534.23 778.32 1051.90 443.02 1292.63 421.28 1156.84 587.96 1099.56 721.90 1288.51 703.55
00004033 00000104 945.00 122.82 534.92 779.70 1052.36 443.22 1292.33 422.97 1157.16 589.09 1098.92 722.36 1286.20 705.32
00004034 00000105 943.63 128.22 534.70 773.88 1051.22 443.70 1292.10 424.00 1156.83 589.71 1098.32 723.13 1285.07 706.61
00004035 00000106 943.57 126.66 534.41 774.58 1051.92 442.63 1291.97 423.28 1157.55 589.84 1099.11 722.64 1284.73 706.39
00004036 00000107 944.04 124.37 533.39 776.86 1053.87 442.77 1295.03 422.67 1162.40 591.88 1101.39 724.14 1288.15 707.26
00004037 00000108 946.92 123.49 531.56 778.69 1056.88 443.51 1297.51 422.31 1167.30 590.78 1105.11 726.40 1290.56 708.66
00004038 00000109 950.32 124.52 528.98 776.84 1059.33 444.44 1299.33 424.44 1169.11 592.94 1107.88 726.97 1291.54 710.20
00004039 00000110 952.04 125.29 528.24 781.49 1059.00 446.75 1298.33 427.46 1167.78 598.61 1105.73 730.20 1291.50 713.95
00004040 00000111 955.62 130.14 525.70 783.36 1057.67 449.96 1295.97 431.05 1165.75 603.07 1105.61 734.95 1287.82 719.07
00004041 00000112 962.66 129.59 520.75 787.05 1060.64 451.86 1296.66 435.76 1163.22 603.92 1104.83 737.38 1284.69 724.14
00004042 00000113 964.54 137.57 519.41 764.46 1058.74 449.59 1303.45 435.22 1153.93 601.81 1097.95 736.11 1281.47 724.47
00004043 00000114 968.82 137.96 518.26 758.82 1059.80 446.20 1305.19 436.83 1151.33 599.24 1092.76 729.01 1279.78 721.59
00004044 00000115 972.95 141.20 514.57 759.33 1060.12 448.14 1305.02 441.42 1154.67 606.68 1093.32 721.82 1286.07 717.05
00004045 00000116 976.54 143.40 512.18 749.49 1063.91 449.01 1308.63 442.25 1159.86 607.44 1097.61 719.70 1288.58 715.07
00004046 00000117 977.79 139.26 515.98 746.02 1070.85 445.21 1318.36 436.18 1167.48 599.92 1101.07 719.79 1295.45 713.03
00004047 00000118 980.26 137.18 518.49 743.42 1075.99 445.69 1324.66 432.52 1179.05 601.00 1111.39 721.28 1304.46 710.88
00004048 00000119 979.75 140.04 519.74 742.30 1075.06 449.36 1321.74 436.83 1181.77 609.53 1117.59 720.30 1309.32 710.08
00004049 00000120 981.37 136.57 523.72 748.63 1078.31 445.37 1327.27 430.51 1182.94 600.70 1118.35 723.58 1310.88 711.81
00004050 00000121 979.58 132.43 521.25 751.71 1077.05 445.35 1323.11 430.74 1179.70 601.80 1115.98 723.79 1304.44 712.23
00004051 00000122 980.19 135.29 515.80 749.21 1073.64 446.16 1317.47 431.59 1171.78 599.10 1112.27 724.76 1298.21 713.28
00004052 00000123 977.91 133.23 517.34 752.14 1071.98 445.84 1315.09 430.47 1170.16 598.41 1111.36 724.78 1295.74 712.68
00004053 00000124 975.09 125.95 518.68 755.28 1071.58 443.42 1315.28 428.59 1171.19 595.10 1111.03 722.92 1294.21 711.11
00004054 00000125 974.52 125.28 517.89 754.42 1070.76 442.17 1315.01 426.25 1170.90 593.60 1111.50 722.77 1294.01 710.05
00004055 00000126 973.83 123.65 516.22 758.14 1068.61 441.55 1310.50 425.62 1166.04 590.46 1108.85 722.92 1289.20 710.09
00004056 00000127 971.73 123.53 515.26 766.56 1065.92 442.60 1302.55 430.97 1156.78 594.79 1107.27 718.84 1283.07 709.82
00004057 00000128 970.10 125.28 515.83 763.69 1063.46 441.18 1300.64 428.79 1154.87 593.55 1106.78 719.42 1281.43 709.72
00004058 00000129 970.15 115.78 518.20 772.43 1065.22 435.87 1306.15 418.62 1162.45 585.86 1107.90 723.10 1285.68 709.37
00004059 00000130 968.58 121.30 519.84 766.58 1063.42 436.05 1303.62 419.22 1159.18 586.61 1110.68 717.39 1288.75 703.80
00004060 00000131 966.28 115.08 522.19 773.45 1061.31 434.02 1303.23 416.26 1158.23 584.70 1106.91 713.99 1291.36 699.44
00004061 00000132 967.72 108.63 521.36 775.59 1066.70 427.84 1298.16 411.20 1163.34 574.87 1107.64 700.94 1291.44 686.97
00004062 00000133 962.32 116.69 522.49 759.83 1058.00 427.84 1303.85 412.72 1159.67 580.02 1098.55 698.47 1299.16 685.64
CROP_BBOX: 686 0 1822 1079
