Video ID: 	XQB-bOiMD6E
H: 	2160
W: 	3840
FPS: 	29.97002997002997

FRAME INDEX X0 Y0 W H [Landmarks (5 Points)]

00014554 00000000 1462.84 337.52 973.49 1287.35 1668.32 847.51 2127.70 785.58 1891.63 1033.88 1787.26 1341.19 2127.26 1290.70
00014555 00000001 1460.80 336.17 978.59 1324.74 1668.98 856.39 2129.01 788.11 1899.32 1039.85 1794.55 1365.58 2125.76 1306.09
00014556 00000002 1457.59 339.30 974.61 1304.77 1654.39 857.78 2117.83 793.44 1876.24 1051.90 1771.90 1360.30 2122.86 1307.20
00014557 00000003 1458.05 348.57 969.87 1284.41 1651.78 866.96 2115.12 804.05 1872.55 1067.85 1767.66 1372.01 2120.00 1319.83
00014558 00000004 1455.12 361.40 970.61 1281.42 1647.47 876.43 2110.00 812.87 1869.65 1076.53 1766.15 1379.78 2116.85 1327.32
00014559 00000005 1452.13 360.49 971.10 1303.21 1641.22 879.92 2106.30 815.57 1866.06 1081.71 1761.82 1392.03 2113.21 1338.92
00014560 00000006 1448.20 363.16 974.48 1304.12 1636.06 884.07 2102.30 818.93 1860.08 1086.11 1755.37 1397.04 2110.04 1343.23
00014561 00000007 1440.31 361.89 975.27 1304.96 1628.06 888.96 2094.89 825.98 1852.96 1088.34 1748.26 1404.52 2100.81 1352.48
00014562 00000008 1420.56 362.74 977.02 1362.66 1616.96 907.32 2074.30 836.53 1832.65 1094.45 1737.96 1414.66 2071.23 1353.82
00014563 00000009 1402.94 357.05 987.26 1373.82 1596.10 911.45 2056.73 851.44 1816.61 1107.01 1712.14 1427.06 2043.19 1379.74
00014564 00000010 1387.25 389.30 955.00 1360.72 1573.15 916.37 2025.98 853.22 1783.48 1112.35 1691.89 1446.45 2011.51 1393.66
00014565 00000011 1377.36 401.32 958.66 1356.31 1547.81 933.29 2004.71 863.07 1750.76 1141.73 1672.89 1460.09 2009.38 1400.30
00014566 00000012 1367.93 406.21 968.00 1365.57 1523.00 946.92 1981.06 873.02 1713.29 1160.19 1645.37 1474.90 1983.90 1413.07
00014567 DELETE   1348.09 414.84 977.21 1365.66 1499.55 964.95 1962.17 891.97 1689.28 1179.84 1617.94 1483.53 1969.43 1423.78
00014568 00000014 1344.70 408.46 981.55 1411.80 1488.97 980.22 1936.89 914.06 1673.22 1206.22 1600.54 1490.34 1946.04 1434.08
00014569 00000015 1331.48 408.77 987.26 1418.12 1472.89 989.25 1911.14 930.82 1642.90 1221.94 1579.83 1495.24 1916.71 1446.51
00014570 00000016 1322.64 405.47 972.84 1397.78 1456.19 993.08 1897.52 934.30 1633.88 1233.78 1566.48 1506.76 1893.66 1459.13
00014571 00000017 1321.63 416.90 969.58 1378.59 1459.80 994.90 1892.98 936.48 1631.74 1236.73 1573.99 1524.53 1866.98 1478.09
00014572 00000018 1318.30 416.72 972.35 1386.91 1462.13 998.10 1890.77 944.99 1631.13 1243.88 1575.02 1530.76 1861.80 1488.82
00014573 00000019 1318.76 422.62 978.83 1381.27 1465.39 1000.92 1897.62 946.73 1635.25 1247.96 1578.73 1532.77 1866.75 1490.39
00014574 00000020 1316.52 420.50 982.91 1387.41 1468.40 1005.05 1903.69 948.62 1640.40 1247.26 1582.68 1534.11 1877.21 1489.88
00014575 00000021 1318.83 420.37 985.10 1389.32 1470.33 1005.28 1913.45 945.97 1649.20 1245.93 1583.62 1533.92 1891.41 1486.80
00014576 00000022 1327.40 419.38 975.68 1381.57 1470.44 1000.86 1921.23 938.45 1657.49 1240.05 1584.15 1530.12 1897.85 1480.74
00014577 00000023 1331.94 411.47 974.78 1381.25 1474.88 994.33 1927.69 933.55 1666.57 1234.65 1590.16 1525.41 1903.48 1477.12
00014578 00000024 1327.52 427.70 974.09 1355.78 1473.22 982.67 1935.95 932.03 1666.42 1233.99 1588.78 1509.13 1932.44 1467.23
00014579 00000025 1328.07 425.29 974.80 1364.23 1475.74 980.66 1937.79 930.86 1670.42 1236.18 1593.98 1507.83 1938.40 1466.41
00014580 00000026 1326.29 423.48 978.04 1369.09 1478.21 981.20 1940.18 930.90 1675.27 1235.63 1596.77 1505.24 1943.89 1463.16
00014581 00000027 1327.26 426.41 975.29 1368.32 1476.32 981.08 1940.52 931.16 1674.10 1239.44 1595.03 1503.83 1947.64 1462.11
00014582 00000028 1327.27 427.44 974.69 1363.75 1476.89 981.99 1941.73 931.17 1676.13 1239.65 1596.76 1502.12 1951.33 1459.35
00014583 00000029 1328.83 432.73 973.44 1352.61 1477.69 981.10 1942.31 930.35 1678.18 1238.65 1598.76 1499.42 1950.83 1456.80
00014584 00000030 1328.55 433.05 973.20 1351.58 1477.45 979.05 1943.29 927.61 1679.39 1234.32 1598.55 1495.88 1951.57 1452.75
00014585 00000031 1324.60 428.31 975.52 1353.04 1477.33 976.03 1945.05 927.02 1679.19 1231.60 1594.89 1491.88 1950.47 1450.46
00014586 00000032 1325.03 434.36 972.54 1344.32 1475.02 973.37 1943.27 923.57 1678.22 1228.46 1593.07 1488.16 1949.85 1446.26
00014587 00000033 1323.75 435.02 972.21 1344.26 1474.42 969.55 1943.68 920.80 1676.93 1224.94 1591.11 1484.71 1948.76 1443.59
00014588 00000034 1321.39 432.65 973.94 1344.45 1473.34 966.27 1943.61 916.54 1676.25 1221.79 1592.36 1482.55 1948.56 1440.76
00014589 00000035 1320.65 419.70 979.62 1362.34 1475.23 963.07 1945.78 915.17 1675.24 1216.80 1591.20 1480.60 1946.41 1440.30
00014590 00000036 1322.29 419.21 976.84 1358.76 1475.68 960.34 1945.85 909.15 1676.42 1211.84 1593.05 1476.09 1949.61 1433.36
00014591 00000037 1324.73 411.29 975.75 1360.43 1480.69 959.10 1947.96 903.76 1682.60 1203.24 1600.54 1471.87 1954.93 1426.18
00014592 00000038 1330.69 407.35 974.42 1359.94 1487.55 954.73 1949.39 894.32 1686.76 1193.27 1608.00 1466.77 1958.88 1416.61
00014593 00000039 1340.82 408.84 964.98 1348.09 1497.05 950.28 1954.57 888.14 1693.52 1181.28 1613.07 1457.64 1961.92 1405.66
00014594 00000040 1350.25 402.12 959.91 1341.70 1505.88 944.36 1959.14 880.14 1702.10 1171.67 1625.11 1452.45 1967.53 1398.97
00014595 00000041 1356.21 401.99 958.87 1348.91 1518.86 932.32 1968.89 873.42 1710.35 1158.11 1634.80 1446.33 1972.05 1396.87
00014596 00000042 1361.40 397.87 955.65 1345.27 1531.15 923.02 1982.18 871.01 1725.08 1147.78 1637.31 1432.79 1978.42 1388.15
00014597 00000043 1373.68 397.51 945.70 1305.71 1542.24 918.71 1991.58 868.47 1736.09 1135.61 1651.55 1424.04 1985.40 1379.68
00014598 00000044 1379.32 388.83 942.11 1321.35 1553.28 911.29 2006.05 865.43 1749.47 1123.32 1651.79 1413.11 1997.14 1372.12
00014599 00000045 1385.31 373.46 939.54 1318.08 1566.36 906.41 2020.15 861.80 1768.01 1106.54 1663.86 1404.76 2004.44 1364.99
00014600 00000046 1393.99 361.21 941.01 1312.91 1584.08 894.97 2037.22 857.21 1785.41 1091.05 1678.43 1393.33 2018.01 1358.76
00014601 00000047 1403.34 367.43 940.07 1303.06 1598.94 878.80 2057.43 850.52 1801.88 1077.82 1688.21 1382.09 2029.39 1354.97
00014602 00000048 1416.19 369.47 972.06 1297.34 1613.97 870.92 2091.84 831.17 1839.92 1079.18 1707.70 1383.24 2065.09 1351.13
00014603 00000049 1430.45 363.67 971.39 1299.93 1638.45 865.08 2107.23 826.84 1858.68 1068.05 1728.96 1372.90 2085.85 1341.40
00014604 00000050 1449.31 359.33 969.29 1304.17 1660.32 855.30 2131.49 813.26 1884.95 1056.97 1750.13 1362.97 2113.95 1327.81
00014605 00000051 1458.38 348.73 975.90 1317.27 1702.19 849.66 2174.12 815.77 1947.60 1044.02 1802.34 1357.84 2150.56 1325.36
00014606 00000052 1481.72 345.30 970.06 1287.27 1723.14 844.60 2194.42 798.84 1985.28 1028.55 1855.45 1356.89 2189.77 1312.25
00014607 00000053 1499.92 327.97 964.54 1301.79 1751.96 838.65 2223.26 791.22 2021.34 1028.11 1881.46 1352.77 2216.11 1306.82
00014608 00000054 1502.97 324.53 968.72 1312.02 1773.48 842.51 2234.89 798.31 2037.97 1025.23 1876.96 1331.60 2229.84 1294.41
00014609 00000055 1508.11 320.27 966.66 1315.51 1787.71 841.14 2248.45 801.81 2058.06 1022.01 1891.95 1329.26 2242.51 1296.98
00014610 00000056 1515.40 321.62 963.09 1303.85 1796.44 840.39 2254.10 800.66 2069.00 1025.30 1904.79 1328.69 2249.79 1296.46
00014611 00000057 1517.32 318.40 961.65 1305.61 1800.15 840.52 2259.43 804.60 2074.50 1028.56 1904.38 1329.83 2251.87 1300.59
00014612 00000058 1518.20 323.17 959.71 1302.58 1798.98 842.53 2257.08 805.84 2071.57 1028.68 1901.86 1330.96 2248.03 1301.20
00014613 00000059 1512.45 317.60 964.74 1320.17 1798.25 840.88 2250.31 806.19 2066.73 1025.31 1895.89 1330.76 2240.63 1301.81
00014614 00000060 1510.67 320.30 959.70 1318.32 1796.93 847.26 2245.38 812.07 2060.00 1025.64 1884.91 1329.69 2233.30 1301.16
00014615 00000061 1505.43 323.70 971.09 1300.37 1781.80 852.08 2238.76 823.89 2052.05 1035.84 1885.62 1329.73 2236.91 1306.13
00014616 00000062 1496.53 324.13 975.08 1303.49 1765.94 850.61 2224.60 824.51 2031.38 1035.35 1868.55 1330.78 2221.96 1308.61
00014617 00000063 1489.38 325.61 971.08 1314.85 1748.34 845.35 2213.08 816.85 2011.17 1029.61 1853.92 1344.38 2205.06 1320.52
00014618 00000064 1478.50 323.93 967.27 1367.80 1731.55 839.54 2200.69 799.91 1997.41 1017.65 1842.57 1367.03 2184.01 1329.85
00014619 00000065 1463.00 322.50 976.53 1362.15 1714.60 840.82 2185.71 809.94 1972.58 1028.17 1815.63 1362.58 2165.81 1332.15
00014620 00000066 1459.58 317.86 974.03 1313.41 1690.97 836.60 2163.75 803.94 1927.92 1029.14 1780.46 1346.83 2143.48 1318.68
00014621 00000067 1454.53 300.93 972.88 1338.70 1663.95 835.89 2144.67 797.09 1897.06 1033.78 1752.04 1354.27 2124.21 1321.07
00014622 00000068 1434.14 301.51 985.96 1377.78 1643.66 835.16 2109.76 789.34 1859.79 1026.58 1735.90 1358.35 2086.89 1320.83
00014623 00000069 1417.94 289.61 993.62 1424.55 1631.86 834.97 2092.76 790.72 1838.13 1020.47 1716.70 1361.09 2060.19 1325.79
00014624 00000070 1418.02 292.82 992.73 1431.40 1625.16 840.01 2080.50 801.37 1817.14 1020.61 1717.19 1365.72 2037.59 1335.14
00014625 00000071 1408.67 284.99 992.80 1419.36 1604.17 846.41 2053.88 799.23 1788.03 1018.73 1698.93 1365.70 2008.82 1328.50
00014626 DELETE   1406.86 281.56 976.29 1389.17 1580.80 872.90 2027.58 813.01 1761.58 1034.68 1655.93 1366.83 1992.68 1317.70
00014627 00000073 1399.47 287.57 975.78 1387.21 1569.39 886.62 2006.71 821.56 1738.55 1044.73 1645.07 1374.67 1973.77 1321.39
00014628 00000074 1392.79 295.15 972.61 1381.63 1558.48 889.51 1989.04 830.37 1726.32 1058.28 1638.25 1382.60 1948.01 1335.06
00014629 00000075 1389.64 305.83 974.59 1382.07 1546.16 891.75 1980.60 835.34 1720.64 1076.66 1639.55 1396.91 1939.32 1352.61
00014630 00000076 1384.38 306.24 976.27 1400.25 1537.08 896.65 1975.96 842.92 1713.75 1084.24 1631.91 1410.80 1925.24 1369.84
00014631 00000077 1366.95 321.23 988.06 1406.93 1530.10 899.12 1980.19 841.93 1703.99 1104.43 1624.23 1431.53 1925.97 1387.50
00014632 00000078 1365.19 324.12 987.86 1419.29 1523.68 909.92 1977.10 854.41 1694.53 1123.98 1620.11 1442.73 1925.02 1399.84
00014633 00000079 1363.98 339.64 979.78 1396.89 1513.70 922.11 1968.19 867.23 1687.56 1144.43 1612.90 1454.45 1915.28 1412.29
00014634 00000080 1370.01 332.68 977.42 1424.01 1505.68 933.67 1949.94 885.56 1683.94 1162.64 1604.92 1465.81 1892.73 1429.88
00014635 00000081 1360.13 343.66 984.92 1422.17 1497.46 943.69 1942.60 891.19 1677.72 1173.14 1601.59 1478.92 1889.32 1438.96
00014636 00000082 1354.66 342.25 989.53 1420.12 1486.53 950.82 1940.57 898.07 1671.79 1189.84 1595.65 1490.36 1891.27 1449.77
00014637 00000083 1343.40 343.48 1000.13 1437.74 1481.71 959.75 1940.34 910.46 1668.13 1204.89 1592.74 1509.43 1890.77 1471.31
00014638 00000084 1335.30 359.25 998.22 1427.14 1476.06 972.82 1940.58 923.63 1670.56 1225.13 1590.23 1523.19 1891.16 1484.63
00014639 00000085 1328.58 381.95 1001.35 1417.98 1467.25 983.87 1943.66 934.71 1671.79 1249.37 1584.29 1540.29 1897.62 1501.29
00014640 00000086 1319.81 393.55 1002.01 1404.27 1468.54 996.32 1940.32 946.29 1670.81 1266.18 1588.40 1545.60 1902.10 1505.87
00014641 00000087 1315.38 404.53 1003.10 1398.63 1465.97 1005.65 1942.35 952.96 1670.48 1276.55 1589.46 1557.10 1905.02 1515.12
00014642 00000088 1309.74 415.48 1009.18 1397.43 1467.34 1008.66 1943.99 956.21 1671.85 1279.40 1591.15 1561.58 1906.76 1519.89
00014643 00000089 1311.66 414.93 1006.52 1404.39 1471.24 1009.80 1946.11 955.16 1678.57 1277.05 1597.39 1565.91 1911.98 1522.30
00014644 00000090 1325.56 401.97 994.18 1402.99 1478.82 1005.40 1953.40 952.11 1690.38 1270.30 1601.88 1557.22 1918.88 1514.50
00014645 00000091 1342.55 390.27 984.87 1407.13 1493.34 1002.12 1961.66 946.25 1708.19 1259.48 1616.04 1548.38 1926.40 1504.10
00014646 00000092 1362.67 381.27 980.76 1408.85 1515.91 991.82 1979.49 939.39 1727.47 1246.23 1632.11 1535.88 1942.69 1495.12
00014647 00000093 1366.43 384.53 990.95 1408.94 1542.75 976.83 2000.97 927.15 1752.34 1223.62 1652.33 1517.41 1955.70 1479.76
00014648 00000094 1386.92 389.94 1003.13 1388.69 1556.00 954.07 2028.26 898.41 1773.97 1192.86 1685.91 1513.59 1976.55 1469.26
00014649 00000095 1385.51 381.52 1007.78 1395.11 1584.90 936.29 2046.69 890.21 1804.20 1166.29 1696.66 1478.42 1997.47 1443.28
00014650 00000096 1391.41 367.79 1007.77 1401.35 1595.32 919.99 2059.98 875.69 1818.88 1153.37 1709.13 1464.06 2019.55 1430.56
00014651 00000097 1390.48 374.03 1015.94 1395.53 1603.51 917.97 2075.53 872.26 1821.51 1140.02 1721.49 1454.63 2035.99 1416.19
00014652 00000098 1395.25 357.07 1012.27 1410.86 1604.92 917.78 2083.07 869.68 1840.54 1151.02 1716.96 1462.09 2048.76 1424.82
00014653 00000099 1396.50 358.33 1018.15 1416.72 1608.92 920.14 2090.46 872.06 1849.72 1156.81 1719.67 1463.10 2061.94 1425.45
00014654 00000100 1394.74 355.03 1018.59 1431.51 1612.85 920.42 2090.65 872.91 1852.38 1156.09 1722.05 1463.02 2064.25 1425.82
00014655 00000101 1391.95 374.53 1008.19 1399.67 1604.29 926.37 2083.08 878.34 1838.60 1153.40 1717.10 1453.76 2065.69 1412.42
00014656 00000102 1392.90 379.24 1002.25 1388.07 1604.82 920.22 2078.42 870.60 1839.24 1144.12 1722.33 1449.71 2058.61 1406.66
00014657 00000103 1391.83 365.12 995.43 1391.72 1609.29 902.58 2077.60 856.63 1840.59 1127.90 1721.78 1434.49 2046.59 1395.08
00014658 00000104 1399.31 339.84 985.40 1405.20 1613.09 881.08 2092.48 849.65 1852.70 1115.03 1710.19 1425.46 2048.72 1402.41
00014659 00000105 1398.55 334.99 979.00 1395.41 1607.75 874.62 2092.17 844.04 1851.81 1111.02 1705.49 1418.91 2051.22 1395.85
00014660 00000106 1394.27 333.54 983.21 1403.71 1605.23 870.23 2087.39 839.78 1847.88 1108.25 1702.56 1416.38 2048.70 1393.31
00014661 00000107 1393.53 334.28 978.91 1403.69 1604.76 871.20 2083.93 839.80 1846.67 1107.50 1701.03 1413.31 2047.63 1389.58
00014662 00000108 1393.54 337.21 975.11 1392.69 1603.42 869.19 2083.98 837.43 1843.59 1102.38 1697.74 1408.64 2046.96 1384.45
00014663 00000109 1395.09 348.86 968.04 1357.49 1606.93 866.42 2084.96 833.72 1843.65 1094.41 1699.74 1398.18 2049.11 1372.94
00014664 00000110 1393.35 339.62 966.81 1349.89 1605.55 857.55 2082.28 823.65 1844.49 1081.68 1700.34 1384.54 2049.06 1357.70
00014665 00000111 1389.88 339.46 968.27 1334.31 1605.24 848.57 2081.50 817.76 1842.77 1070.47 1698.24 1372.29 2044.95 1347.38
00014666 00000112 1385.32 341.41 964.52 1310.15 1599.55 847.83 2075.61 813.96 1837.89 1066.52 1693.64 1364.79 2047.04 1336.56
00014667 00000113 1387.32 340.64 941.97 1323.86 1598.20 849.15 2068.28 815.45 1830.45 1059.23 1697.41 1372.03 2041.63 1339.72
00014668 00000114 1385.56 339.17 963.52 1335.32 1601.81 851.76 2078.60 820.57 1841.43 1077.49 1692.50 1371.20 2043.97 1346.26
00014669 00000115 1386.20 336.53 965.01 1346.11 1604.57 859.49 2082.95 825.68 1845.36 1086.10 1693.88 1378.21 2051.51 1351.20
00014670 00000116 1391.17 333.32 964.22 1366.28 1611.50 863.74 2089.83 833.50 1854.23 1103.72 1699.66 1388.61 2054.65 1365.35
00014671 00000117 1389.76 339.19 971.22 1377.05 1614.81 873.43 2099.84 841.40 1865.68 1113.39 1707.94 1405.98 2070.54 1380.98
00014672 00000118 1386.74 345.54 978.39 1413.57 1624.66 887.12 2098.91 855.65 1875.96 1126.62 1720.77 1419.29 2080.01 1394.44
00014673 00000119 1393.68 353.95 985.94 1423.37 1630.87 905.73 2100.95 867.19 1884.83 1151.71 1741.20 1446.82 2083.69 1416.24
00014674 00000120 1391.93 378.77 993.92 1410.77 1635.07 927.68 2107.16 883.32 1890.96 1168.39 1748.22 1461.87 2096.57 1423.83
00014675 00000121 1400.39 400.89 994.09 1396.43 1650.75 965.26 2112.19 919.74 1905.21 1192.39 1757.78 1477.84 2114.15 1440.56
00014676 00000122 1408.66 415.38 988.51 1395.04 1655.27 987.26 2114.69 938.94 1911.14 1206.52 1762.72 1494.44 2121.97 1454.95
00014677 00000123 1409.62 418.58 992.85 1396.98 1659.85 996.74 2123.25 945.06 1922.21 1210.48 1768.36 1499.93 2138.20 1457.67
00014678 00000124 1411.23 414.28 996.37 1410.04 1666.07 995.95 2128.64 942.76 1930.54 1209.38 1769.68 1491.81 2152.82 1448.96
00014679 00000125 1414.78 413.65 995.19 1400.03 1669.89 993.28 2135.71 939.47 1935.40 1208.08 1770.00 1480.31 2164.34 1436.84
00014680 00000126 1417.85 412.54 991.47 1390.33 1676.66 989.87 2143.69 938.15 1943.37 1205.18 1771.69 1470.76 2173.45 1429.50
00014681 00000127 1421.37 410.19 989.93 1389.11 1678.11 988.54 2150.23 937.26 1945.81 1206.45 1772.56 1471.33 2177.31 1430.73
00014682 00000128 1423.72 411.55 991.74 1386.90 1679.20 989.67 2156.10 939.43 1948.51 1209.75 1773.68 1471.63 2183.02 1431.68
00014683 00000129 1426.81 415.39 990.02 1382.64 1682.22 987.62 2159.61 937.21 1953.64 1211.53 1777.61 1471.48 2188.93 1431.11
00014684 00000130 1426.88 413.83 995.24 1394.35 1688.20 987.48 2162.22 935.23 1961.35 1211.41 1787.75 1474.19 2195.51 1432.00
00014685 00000131 1431.29 414.25 1002.19 1397.44 1694.61 989.48 2167.53 934.42 1969.80 1211.83 1797.30 1475.50 2203.97 1431.00
00014686 00000132 1431.06 418.68 1003.51 1395.90 1698.33 989.81 2167.86 932.99 1973.70 1209.02 1801.29 1474.30 2206.87 1428.56
00014687 00000133 1432.48 420.11 1003.32 1397.67 1699.15 988.33 2169.52 932.36 1973.96 1209.45 1799.44 1473.22 2206.91 1428.22
00014688 00000134 1434.01 419.60 1004.14 1401.93 1699.14 987.61 2170.31 933.86 1972.86 1210.93 1796.39 1472.79 2205.85 1429.51
00014689 00000135 1436.87 421.12 1001.77 1394.83 1699.23 987.35 2171.62 934.17 1973.14 1211.18 1796.69 1471.91 2204.77 1429.29
00014690 00000136 1439.70 422.43 1000.57 1391.33 1702.34 985.95 2172.74 933.27 1975.75 1211.72 1799.75 1469.82 2204.54 1427.61
00014691 00000137 1441.68 427.90 1001.60 1385.28 1701.76 986.50 2174.74 933.55 1975.47 1212.31 1799.87 1470.81 2205.90 1428.62
00014692 00000138 1440.67 424.11 1002.63 1391.67 1701.17 987.80 2174.40 935.81 1974.17 1213.74 1798.71 1472.53 2205.12 1431.04
00014693 00000139 1439.23 427.32 1004.26 1390.68 1701.29 987.12 2174.03 936.73 1973.46 1212.56 1798.09 1473.26 2204.41 1432.83
00014694 00000140 1440.30 426.99 1002.37 1389.31 1700.21 988.54 2173.11 937.51 1971.60 1213.65 1796.78 1473.47 2204.07 1432.64
00014695 00000141 1438.71 423.85 1002.06 1392.66 1696.92 988.53 2171.10 936.06 1969.44 1213.01 1795.63 1476.05 2202.26 1433.96
00014696 00000142 1434.41 424.58 1004.37 1395.45 1694.70 986.20 2168.48 934.32 1966.78 1213.61 1793.84 1475.28 2199.09 1433.59
00014697 00000143 1433.26 421.95 1005.53 1399.91 1691.29 983.86 2166.85 932.54 1963.30 1212.48 1790.80 1476.40 2195.90 1435.14
00014698 00000144 1431.93 421.09 1006.97 1401.74 1690.34 983.05 2166.57 932.19 1961.83 1211.85 1790.03 1476.65 2195.28 1435.44
00014699 00000145 1431.24 421.57 1005.58 1399.67 1687.76 984.04 2164.22 931.46 1959.90 1212.68 1788.79 1477.25 2194.65 1434.84
00014700 00000146 1430.48 420.60 1005.99 1400.09 1686.85 983.51 2164.04 930.95 1959.58 1213.20 1788.63 1478.77 2192.88 1436.27
00014701 00000147 1428.70 417.38 1006.87 1401.19 1684.99 983.44 2162.87 932.63 1956.93 1213.64 1788.80 1479.83 2189.57 1438.32
00014702 00000148 1425.94 413.27 1008.75 1409.92 1683.68 983.63 2161.98 932.30 1956.45 1212.71 1787.42 1481.07 2188.52 1439.32
00014703 00000149 1424.27 417.32 1006.10 1401.39 1679.95 981.02 2160.46 930.18 1952.55 1212.28 1782.55 1480.91 2183.00 1439.68
00014704 00000150 1423.98 409.25 1004.79 1408.20 1679.70 980.95 2158.47 929.42 1953.15 1206.42 1783.21 1481.76 2177.11 1439.29
00014705 00000151 1429.10 404.95 998.15 1394.59 1682.54 981.01 2157.41 931.18 1953.11 1202.47 1786.44 1480.23 2169.53 1439.22
00014706 00000152 1426.88 397.57 1000.37 1389.73 1681.32 987.03 2135.22 931.12 1941.10 1193.50 1792.64 1477.78 2157.03 1432.14
00014707 00000153 1427.01 356.20 1001.10 1457.06 1681.80 972.82 2123.37 915.22 1934.50 1171.57 1797.65 1479.80 2132.91 1433.57
00014708 00000154 1426.58 362.07 1003.30 1424.44 1680.32 952.72 2136.02 901.04 1934.00 1153.38 1785.93 1457.29 2137.42 1415.63
00014709 00000155 1429.28 376.96 990.40 1377.24 1665.91 923.52 2132.77 879.48 1912.15 1129.35 1763.44 1429.53 2130.60 1390.11
00014710 00000156 1432.99 361.31 979.55 1384.05 1661.33 904.72 2130.93 865.30 1902.65 1117.74 1756.95 1417.81 2121.11 1381.71
