Video ID: 	ur4Dep-7kRw
H: 	2160
W: 	3840
FPS: 	25.0

FRAME INDEX X0 Y0 W H [Landmarks (5 Points)]

00002195 00000000 1675.57 169.58 790.93 1220.25 1854.23 675.89 2230.72 689.66 2019.16 898.81 1878.79 1082.75 2194.53 1093.56
00002196 00000001 1673.71 174.50 789.43 1206.16 1854.11 675.59 2234.85 687.34 2025.65 899.76 1881.92 1081.25 2201.24 1090.37
00002197 00000002 1671.93 175.07 785.96 1212.46 1852.41 674.12 2230.16 684.93 2023.09 894.69 1880.96 1082.42 2197.63 1091.02
00002198 00000003 1664.88 166.77 786.59 1228.17 1852.83 669.75 2226.58 680.26 2025.34 890.36 1882.55 1082.12 2191.81 1090.91
00002199 00000004 1659.99 174.83 780.27 1224.90 1856.18 675.54 2218.70 675.34 2023.04 887.85 1888.95 1089.35 2195.13 1089.17
00002200 00000005 1651.43 174.91 780.87 1232.91 1851.61 667.55 2215.92 669.45 2019.19 878.13 1882.03 1087.49 2189.95 1089.06
00002201 00000006 1642.58 166.90 782.30 1237.32 1843.57 661.61 2206.05 668.86 2008.81 868.09 1867.88 1079.17 2176.04 1084.88
00002202 00000007 1627.44 170.90 789.67 1219.20 1832.75 657.94 2192.43 667.74 1997.56 857.93 1855.90 1068.35 2158.28 1076.40
00002203 00000008 1616.79 170.17 792.51 1217.17 1820.06 658.18 2180.55 664.34 1986.84 853.93 1841.79 1065.28 2147.99 1070.36
00002204 00000009 1607.98 168.94 793.55 1215.33 1809.81 656.46 2174.17 664.12 1978.52 854.23 1830.88 1063.75 2141.66 1069.94
00002205 00000010 1602.36 168.24 792.63 1208.28 1802.22 658.17 2168.88 665.77 1972.69 856.00 1823.33 1062.96 2136.91 1069.28
00002206 00000011 1599.71 169.71 790.47 1207.73 1799.89 657.54 2163.36 665.89 1969.94 855.41 1818.91 1061.09 2133.23 1068.04
00002207 00000012 1597.39 173.88 790.19 1205.53 1798.95 657.77 2165.46 666.99 1971.98 857.58 1817.92 1064.05 2132.81 1072.01
00002208 00000013 1593.71 179.07 792.88 1207.75 1796.21 662.42 2166.77 671.28 1973.34 862.37 1817.01 1069.70 2135.57 1077.23
00002209 00000014 1596.38 176.84 786.01 1220.33 1801.95 668.84 2166.85 677.86 1979.54 869.34 1821.06 1075.31 2136.67 1083.00
00002210 00000015 1598.13 176.43 786.97 1229.43 1807.20 674.22 2175.47 686.07 1988.94 880.47 1827.27 1083.82 2144.06 1093.73
00002211 00000016 1598.80 167.46 788.33 1240.74 1815.25 676.50 2184.55 688.70 2005.44 889.25 1837.02 1087.71 2156.53 1097.08
00002212 00000017 1600.11 172.99 790.30 1238.41 1821.16 677.10 2192.69 690.60 2014.64 891.11 1842.10 1088.79 2164.20 1099.09
00002213 00000018 1601.65 168.17 787.51 1250.94 1826.75 677.76 2198.33 691.68 2024.35 894.58 1848.24 1093.76 2171.81 1104.04
00002214 00000019 1604.29 171.06 787.35 1247.86 1835.49 680.52 2202.75 692.82 2035.67 892.82 1860.78 1097.26 2176.51 1106.57
00002215 00000020 1612.01 173.19 783.77 1249.78 1852.05 684.35 2214.25 692.56 2053.43 894.68 1875.95 1100.84 2191.60 1106.46
00002216 DELETE   1621.62 167.36 778.62 1262.14 1872.83 685.47 2230.79 690.76 2081.95 896.37 1898.37 1105.61 2210.14 1108.72
00002217 00000022 1630.11 172.61 781.34 1247.56 1885.72 683.45 2248.40 688.52 2103.53 894.65 1914.55 1104.73 2226.75 1108.12
00002218 00000023 1630.59 173.80 781.09 1247.85 1887.50 684.12 2247.45 688.49 2103.93 892.64 1914.69 1103.36 2227.51 1106.26
00002219 00000024 1623.94 166.58 778.34 1262.62 1874.42 692.57 2232.56 698.30 2084.38 897.10 1898.17 1104.80 2213.13 1108.45
00002220 DELETE   1610.21 165.10 783.56 1258.96 1850.67 691.33 2213.23 697.11 2057.19 892.93 1876.17 1101.54 2193.97 1104.89
00002221 DELETE   1591.00 166.35 792.82 1264.56 1825.77 683.88 2193.07 696.73 2024.72 893.51 1846.91 1097.46 2166.53 1106.31
00002222 DELETE   1583.12 172.08 790.97 1261.08 1809.09 681.33 2177.94 696.96 1998.24 897.21 1826.76 1097.42 2146.42 1109.07
00002223 00000028 1580.92 201.42 789.70 1224.23 1794.44 684.64 2159.24 695.27 1978.12 903.46 1821.86 1091.35 2115.07 1097.37
00002224 00000029 1575.83 199.51 791.03 1225.91 1781.84 687.37 2143.43 698.83 1961.63 907.95 1810.98 1092.64 2102.87 1099.42
00002225 00000030 1565.49 177.60 790.05 1226.17 1764.60 688.98 2137.38 701.44 1943.94 919.44 1793.63 1104.67 2106.86 1115.69
00002226 00000031 1564.31 180.75 791.76 1216.46 1761.55 689.98 2132.95 704.41 1939.02 921.28 1791.38 1106.51 2095.78 1119.50
00002227 00000032 1563.25 182.00 789.99 1218.36 1757.19 694.47 2123.07 706.27 1930.79 924.55 1792.40 1110.83 2088.79 1121.29
00002228 00000033 1560.47 187.21 788.68 1211.67 1750.29 691.42 2112.51 699.90 1919.88 923.90 1792.90 1109.77 2083.43 1117.19
00002229 00000034 1556.16 181.90 789.75 1206.92 1742.92 691.60 2108.54 703.71 1911.73 924.81 1781.40 1105.57 2071.04 1116.41
00002230 00000035 1554.84 180.58 789.15 1210.36 1737.30 692.56 2104.48 704.77 1903.20 925.66 1771.02 1104.14 2066.33 1114.51
00002231 00000036 1556.78 181.53 786.09 1210.72 1736.25 691.40 2103.75 703.67 1899.82 925.65 1766.70 1102.98 2064.33 1113.34
00002232 00000037 1556.00 178.04 785.47 1212.45 1736.39 692.35 2102.63 707.75 1897.43 924.01 1764.79 1099.43 2060.94 1112.44
00002233 00000038 1559.75 177.79 783.77 1218.43 1735.76 693.47 2101.63 708.67 1893.45 922.27 1761.54 1102.45 2060.11 1115.02
00002234 00000039 1561.35 175.97 781.97 1215.21 1736.05 691.49 2099.26 703.30 1892.15 919.62 1767.15 1103.83 2057.27 1114.13
00002235 00000040 1562.67 178.50 780.13 1216.99 1733.61 691.30 2094.43 703.77 1884.35 916.23 1760.42 1101.60 2052.45 1112.58
00002236 00000041 1561.25 181.15 782.60 1225.70 1733.49 693.68 2089.98 705.24 1879.84 916.00 1757.19 1095.46 2055.87 1105.03
00002237 00000042 1560.41 181.47 777.69 1228.25 1728.55 692.19 2090.07 708.75 1871.25 917.53 1737.10 1087.17 2053.86 1100.16
00002238 00000043 1558.74 182.33 773.67 1219.13 1723.58 690.66 2091.50 710.36 1867.45 918.88 1730.13 1083.11 2055.79 1098.05
00002239 00000044 1555.59 181.35 781.03 1208.40 1718.18 692.58 2085.70 713.25 1862.96 918.96 1727.05 1081.28 2050.25 1096.95
00002240 00000045 1553.07 175.59 774.89 1206.76 1715.46 689.86 2086.85 713.97 1862.06 917.69 1721.92 1077.13 2047.77 1095.62
00002241 00000046 1553.60 171.26 772.57 1210.59 1712.25 688.35 2077.66 712.78 1853.34 916.41 1717.55 1076.68 2037.53 1095.82
00002242 00000047 1549.32 170.37 774.22 1218.35 1706.73 686.74 2074.95 710.95 1847.33 913.16 1711.14 1077.39 2034.19 1096.53
00002243 00000048 1547.88 167.91 774.85 1237.83 1708.67 684.95 2067.72 707.06 1842.92 907.75 1710.96 1076.98 2026.03 1094.99
00002244 00000049 1548.11 162.47 774.20 1241.56 1706.38 683.65 2065.45 706.51 1838.59 907.06 1708.34 1076.77 2021.41 1095.25
00002245 00000050 1550.84 159.90 771.29 1233.15 1707.60 680.57 2064.23 706.57 1837.44 905.05 1709.87 1072.92 2019.29 1093.70
00002246 00000051 1550.60 162.42 773.47 1220.01 1703.23 678.31 2062.67 706.33 1830.94 901.25 1707.52 1068.79 2016.06 1091.09
00002247 00000052 1542.31 153.85 782.05 1228.23 1706.20 679.23 2061.82 708.52 1831.13 902.26 1709.18 1066.76 2007.67 1090.66
00002248 00000053 1552.01 165.82 772.30 1212.32 1707.74 680.41 2059.73 705.95 1829.21 895.46 1711.96 1066.31 2001.37 1087.64
00002249 00000054 1544.10 167.11 778.81 1197.48 1701.06 676.82 2056.45 706.27 1824.35 898.11 1702.20 1064.58 1998.09 1089.82
00002250 00000055 1554.94 164.25 766.07 1195.67 1698.71 675.46 2046.86 701.38 1815.18 897.33 1705.45 1066.28 1991.37 1087.19
00002251 00000056 1558.20 159.38 766.70 1199.82 1700.61 674.97 2053.78 702.15 1818.11 898.54 1703.31 1070.53 1993.65 1092.67
00002252 00000057 1563.54 159.10 764.01 1202.91 1705.00 676.04 2054.11 704.27 1818.35 896.47 1704.88 1067.98 1997.33 1090.56
00002253 00000058 1564.72 153.11 764.56 1212.76 1710.06 675.76 2059.30 706.35 1823.79 896.60 1706.66 1067.27 1999.83 1092.06
00002254 00000059 1565.49 150.61 765.67 1215.78 1712.14 675.16 2061.10 704.33 1827.83 898.33 1708.12 1068.79 2003.04 1092.27
00002255 00000060 1566.45 150.43 765.91 1216.49 1713.92 674.45 2062.65 704.39 1829.89 896.28 1711.46 1068.18 2005.89 1092.34
00002256 00000061 1566.90 156.93 767.15 1205.91 1712.93 673.90 2063.10 703.43 1828.38 897.42 1710.43 1066.65 2007.82 1090.31
00002257 00000062 1567.03 155.18 770.54 1214.37 1716.43 671.73 2064.89 702.72 1831.04 896.23 1712.19 1065.98 2012.83 1090.54
00002258 00000063 1565.58 155.22 775.11 1222.82 1720.22 669.52 2069.86 699.51 1835.04 889.69 1713.40 1064.21 2018.80 1087.83
00002259 00000064 1567.38 151.12 775.44 1245.41 1724.17 668.55 2068.91 694.22 1837.22 884.94 1718.75 1068.69 2021.94 1088.59
00002260 00000065 1569.62 148.87 774.81 1246.14 1728.54 667.17 2071.13 692.49 1841.73 884.72 1723.43 1064.69 2025.83 1084.31
00002261 00000066 1568.68 148.45 774.71 1241.90 1728.01 665.60 2074.09 690.48 1844.09 883.43 1722.61 1065.52 2026.80 1084.72
00002262 00000067 1568.65 150.58 774.76 1235.28 1723.05 665.51 2070.25 687.63 1840.13 879.20 1721.55 1069.00 2021.90 1086.13
00002263 00000068 1567.76 148.27 772.15 1233.02 1722.81 663.87 2069.71 687.39 1840.60 879.09 1720.24 1065.71 2019.68 1084.17
00002264 00000069 1566.86 143.41 771.67 1234.55 1718.81 659.85 2065.04 682.93 1835.23 876.22 1715.56 1061.99 2015.30 1080.17
00002265 00000070 1567.13 140.17 767.96 1233.86 1714.05 657.03 2055.87 677.29 1825.80 872.96 1714.34 1059.13 2006.57 1075.60
00002266 00000071 1565.77 131.78 765.96 1248.76 1709.31 656.91 2048.09 674.40 1818.05 868.07 1711.22 1063.64 1999.98 1077.87
00002267 00000072 1561.87 129.92 767.21 1259.52 1707.14 653.03 2040.81 669.27 1814.34 863.44 1708.49 1065.56 1988.61 1079.68
00002268 00000073 1557.26 125.14 764.52 1266.33 1701.96 652.27 2027.35 668.34 1806.18 862.44 1703.05 1066.06 1970.37 1081.05
00002269 DELETE   1540.16 109.38 767.57 1281.39 1677.34 650.46 2006.27 667.65 1779.83 858.14 1688.93 1065.24 1942.65 1081.89
00002270 DELETE   1532.01 112.55 755.41 1267.12 1631.44 654.87 1976.29 678.05 1711.38 841.16 1630.47 1048.85 1888.68 1072.70
00002271 00000076 1516.89 101.34 750.81 1259.65 1620.11 647.50 1932.49 673.97 1693.42 827.53 1622.38 1023.61 1876.49 1046.07
00002272 00000077 1514.35 101.87 741.24 1232.19 1610.09 645.13 1920.94 675.69 1686.19 823.95 1614.00 1015.77 1863.15 1041.20
00002273 00000078 1511.19 99.01 739.66 1231.84 1604.36 645.85 1917.21 674.61 1684.48 825.03 1610.24 1014.12 1864.27 1037.53
00002274 00000079 1508.57 104.68 743.17 1222.89 1605.18 649.09 1919.22 676.64 1690.82 828.16 1610.79 1012.81 1866.60 1035.53
00002275 00000080 1502.16 108.03 761.86 1224.71 1598.99 652.72 1949.42 671.42 1694.36 841.59 1595.52 1034.24 1864.51 1053.75
00002276 00000081 1500.67 122.98 752.53 1200.12 1607.43 663.63 1923.68 674.03 1682.58 859.98 1610.18 1037.87 1891.05 1046.07
00002277 00000082 1501.90 123.39 750.71 1201.68 1607.22 664.80 1922.37 675.36 1679.28 863.42 1609.56 1039.42 1890.93 1047.69
00002278 00000083 1503.67 115.16 760.92 1219.07 1600.34 657.74 1951.64 674.07 1698.43 849.22 1597.65 1034.80 1872.50 1052.19
00002279 00000084 1501.40 120.28 765.93 1226.62 1605.51 660.67 1954.85 677.31 1705.84 853.64 1603.53 1039.19 1877.48 1057.32
00002280 00000085 1505.75 120.65 764.55 1239.87 1615.21 666.70 1963.62 681.29 1718.49 857.95 1616.49 1047.76 1886.23 1064.44
00002281 00000086 1509.46 125.07 770.68 1250.74 1637.21 675.43 1985.44 689.73 1751.62 867.09 1645.42 1053.11 1916.78 1069.10
00002282 00000087 1509.56 132.20 758.41 1219.85 1644.39 677.85 1976.91 684.79 1755.95 891.16 1665.09 1061.66 1951.53 1066.01
00002283 00000088 1510.15 134.60 760.12 1214.58 1647.14 677.19 1985.04 683.58 1764.71 891.16 1665.03 1059.39 1958.71 1063.58
00002284 00000089 1510.71 131.66 760.78 1217.70 1650.65 676.69 1987.16 681.78 1769.73 893.53 1673.93 1062.53 1962.29 1065.69
00002285 00000090 1513.08 133.62 760.11 1211.20 1651.18 677.51 1988.42 683.72 1771.22 897.24 1676.93 1064.94 1961.16 1069.31
00002286 00000091 1513.25 130.80 762.15 1218.09 1654.35 676.93 1993.68 682.22 1777.01 896.54 1682.40 1067.73 1965.86 1071.35
00002287 00000092 1522.53 127.53 775.90 1249.55 1673.67 672.03 2019.85 683.76 1815.99 875.74 1691.54 1070.37 1960.97 1081.79
00002288 DELETE   1531.16 145.42 784.50 1234.91 1699.60 680.97 2053.57 698.87 1846.18 882.85 1714.66 1069.67 1997.07 1085.04
00002289 DELETE   1538.00 158.42 786.81 1235.21 1722.35 689.85 2079.74 714.00 1876.01 902.55 1733.55 1073.08 2040.74 1092.03
00002290 DELETE   1549.82 165.36 786.24 1254.82 1739.36 699.65 2105.69 717.83 1902.18 911.54 1752.85 1089.94 2071.70 1104.00
00002291 00000096 1552.44 159.21 792.11 1268.02 1748.98 705.95 2121.43 721.42 1923.82 922.08 1772.64 1102.20 2093.85 1113.46
00002292 00000097 1555.66 163.77 791.54 1245.71 1751.23 709.38 2131.12 722.51 1934.03 928.05 1778.08 1101.84 2104.86 1111.13
00002293 00000098 1558.38 168.84 790.28 1224.79 1754.08 710.54 2132.55 721.92 1935.31 930.47 1784.32 1097.38 2106.41 1105.56
00002294 00000099 1562.48 166.17 788.29 1225.22 1758.85 712.58 2141.26 722.79 1946.12 933.34 1790.08 1110.66 2108.06 1118.40
00002295 00000100 1565.17 167.18 788.60 1230.98 1761.50 711.47 2146.35 719.93 1951.97 934.33 1793.84 1115.23 2114.22 1121.62
00002296 00000101 1566.02 160.43 792.51 1252.78 1765.57 709.21 2147.36 718.88 1954.04 935.43 1796.35 1119.91 2114.35 1127.51
00002297 00000102 1564.64 160.67 792.69 1261.19 1766.77 707.87 2145.28 718.18 1952.93 933.20 1793.56 1114.81 2115.77 1122.56
00002298 00000103 1565.70 163.17 792.11 1262.04 1766.79 709.10 2143.93 718.74 1951.40 932.95 1794.59 1116.64 2115.31 1124.13
00002299 00000104 1567.21 163.40 790.44 1263.16 1770.09 708.01 2141.96 719.63 1951.98 934.22 1799.37 1118.82 2112.33 1128.00
00002300 00000105 1569.63 160.59 790.14 1257.37 1772.93 709.56 2147.44 720.44 1958.47 934.25 1807.32 1121.13 2117.98 1129.38
00002301 00000106 1572.08 163.98 790.31 1260.43 1783.20 714.87 2153.56 723.15 1972.30 938.11 1820.58 1126.96 2126.71 1133.05
00002302 00000107 1578.90 162.70 787.88 1263.89 1798.38 718.23 2165.79 720.94 1995.41 939.45 1838.58 1129.65 2146.13 1130.53
00002303 00000108 1584.13 165.59 789.08 1261.47 1806.25 726.11 2174.84 724.12 2006.81 942.67 1847.29 1133.42 2157.60 1129.92
00002304 00000109 1589.19 170.11 788.04 1250.29 1813.46 724.19 2178.69 726.59 2010.05 942.44 1849.69 1128.01 2158.60 1128.01
00002305 00000110 1594.85 170.49 782.73 1234.47 1814.38 724.26 2181.39 724.39 2010.84 940.35 1850.31 1122.99 2161.25 1121.25
00002306 00000111 1593.32 168.88 788.11 1248.13 1812.38 717.80 2179.74 721.36 2004.85 931.22 1845.53 1119.57 2158.74 1120.20
00002307 DELETE   1584.62 169.74 783.73 1243.63 1793.64 699.28 2163.89 708.24 1981.30 909.66 1825.76 1103.63 2139.94 1109.25
00002308 DELETE   1569.64 174.05 787.15 1226.62 1769.30 679.93 2134.90 691.18 1945.86 889.48 1791.77 1080.58 2108.79 1088.64
00002309 DELETE   1564.80 166.04 784.71 1223.09 1755.11 658.19 2111.44 675.33 1912.44 868.45 1763.32 1064.44 2078.85 1077.25
00002310 00000115 1553.07 160.29 789.24 1219.16 1734.90 650.89 2095.75 671.29 1883.56 858.84 1737.69 1056.40 2049.33 1072.39
00002311 00000116 1548.84 158.51 785.99 1215.25 1724.81 649.29 2083.02 676.50 1867.65 861.93 1720.16 1049.99 2029.66 1072.48
00002312 00000117 1544.55 154.74 781.80 1214.51 1714.84 652.61 2075.28 683.92 1853.49 863.57 1706.74 1048.13 2015.20 1074.62
00002313 00000118 1538.64 153.56 783.09 1213.45 1705.45 658.33 2067.43 688.09 1843.90 874.91 1698.84 1050.21 2008.26 1075.04
00002314 00000119 1536.54 155.93 783.96 1215.77 1702.92 663.12 2061.98 693.78 1836.83 876.99 1696.40 1053.04 1999.68 1078.70
00002315 00000120 1534.85 151.18 784.63 1225.67 1696.63 665.26 2060.93 694.85 1833.18 883.58 1691.77 1060.01 1999.38 1084.50
00002316 00000121 1534.72 150.21 783.28 1229.76 1694.27 666.00 2054.35 693.26 1831.20 888.18 1696.05 1069.66 1987.44 1093.05
00002317 00000122 1537.20 147.43 777.13 1234.68 1694.12 669.04 2053.76 699.32 1829.15 896.92 1696.96 1072.29 1985.15 1098.00
00002318 00000123 1535.08 150.68 779.18 1238.94 1690.35 672.84 2048.83 698.91 1823.92 899.38 1696.67 1077.66 1984.65 1099.96
00002319 00000124 1531.54 150.66 780.81 1246.51 1688.27 671.63 2045.77 695.19 1824.34 895.87 1695.79 1077.92 1981.36 1098.50
00002320 00000125 1527.75 145.67 780.13 1234.90 1676.47 672.90 2044.19 696.11 1820.91 898.12 1684.56 1077.69 1981.46 1097.50
00002321 00000126 1524.52 143.43 781.72 1244.40 1675.67 668.11 2040.19 690.22 1818.39 895.39 1682.16 1077.82 1975.93 1097.19
00002322 00000127 1524.38 138.03 783.65 1257.52 1681.22 667.46 2039.51 687.71 1818.97 890.06 1688.46 1073.42 1977.99 1091.41
00002323 00000128 1520.60 140.80 788.80 1255.46 1684.95 667.12 2047.43 687.29 1828.05 885.56 1688.43 1067.18 1988.68 1084.85
00002324 00000129 1517.69 144.09 794.56 1242.65 1695.51 656.91 2059.40 676.61 1847.74 878.27 1701.41 1057.09 2009.03 1073.91
00002325 DELETE   1519.72 139.81 797.16 1248.86 1707.28 652.98 2077.74 668.35 1873.68 871.41 1723.10 1054.72 2041.61 1066.58
00002326 DELETE   1527.49 149.94 797.02 1235.20 1717.42 647.66 2095.24 655.80 1894.31 860.81 1737.94 1054.35 2065.23 1059.57
00002327 DELETE   1537.33 152.51 795.49 1229.20 1737.76 647.93 2106.62 642.96 1928.30 860.26 1772.60 1054.41 2100.12 1048.38
00002328 00000133 1541.24 154.49 795.23 1211.63 1748.84 646.69 2114.40 643.08 1949.00 857.73 1792.19 1053.55 2111.19 1048.61
CROP_BBOX: 801 0 2769 1786
