Video ID: 	P68J9QHyDV0
H: 	1080
W: 	1920
FPS: 	29.97002997002997

FRAME INDEX X0 Y0 W H [Landmarks (5 Points)]

00000506 00000000 462.12 191.40 532.31 745.90 693.07 519.80 928.10 499.82 868.43 647.71 726.15 780.86 910.89 764.18
00000507 00000001 462.04 192.60 532.76 749.23 691.83 522.07 926.57 500.54 867.09 650.59 727.09 783.70 911.84 765.46
00000508 00000002 462.25 202.96 534.34 742.65 695.68 528.02 926.48 505.03 870.06 658.81 730.37 787.45 908.49 768.88
00000509 00000003 460.60 211.14 536.76 737.76 695.08 532.93 927.25 507.42 872.32 662.81 731.99 791.09 910.18 770.43
00000510 00000004 460.18 210.62 535.77 739.37 698.67 533.73 926.48 511.20 875.14 662.04 735.14 790.65 910.29 772.45
00000511 DELETE   453.39 185.68 546.69 768.04 698.46 521.49 930.67 502.65 887.11 653.98 736.21 788.94 916.27 772.68
00000512 00000006 452.87 173.11 545.28 775.41 693.93 509.46 925.00 494.14 882.08 637.23 732.68 780.00 917.47 765.56
00000513 00000007 444.92 165.27 557.23 783.26 693.70 489.97 925.52 476.95 878.61 622.21 735.86 768.89 916.53 756.21
00000514 00000008 449.96 166.43 543.60 758.45 689.23 486.09 921.95 469.02 870.38 613.31 732.36 758.33 910.84 744.47
00000515 00000009 448.90 162.38 541.93 760.08 686.59 482.01 920.44 466.16 868.17 606.25 727.50 750.54 910.39 737.40
00000516 00000010 445.91 163.82 542.16 760.13 685.14 483.33 919.11 468.82 866.37 607.76 725.27 752.19 907.55 740.17
00000517 00000011 444.49 165.91 540.11 758.74 683.07 485.85 916.51 469.99 864.49 610.56 727.61 757.18 905.63 743.87
00000518 00000012 440.25 168.64 542.54 768.56 680.65 487.57 913.08 470.88 862.37 615.00 727.35 763.90 903.27 750.06
00000519 00000013 441.99 171.34 541.59 765.71 678.81 486.27 912.98 470.70 860.02 615.81 725.59 764.74 901.69 752.10
00000520 00000014 442.10 171.51 539.87 755.39 677.39 487.40 911.79 469.84 860.04 614.46 725.76 762.75 902.12 748.27
00000521 00000015 444.30 173.34 532.91 748.05 683.48 486.97 909.77 471.27 865.02 611.04 725.50 758.65 905.88 745.11
00000522 00000016 444.60 167.93 539.53 746.79 675.69 481.94 911.67 466.66 858.27 604.90 721.66 751.60 903.12 738.61
00000523 00000017 443.28 164.81 542.03 746.75 673.85 479.04 912.40 462.71 858.23 601.43 721.34 747.89 904.31 734.01
00000524 00000018 443.96 162.74 541.37 745.70 672.99 476.40 910.88 459.66 857.10 599.41 721.79 745.08 904.43 730.81
00000525 00000019 445.47 162.17 540.07 742.22 672.00 476.20 911.58 457.97 856.70 598.96 722.45 744.38 905.36 728.90
00000526 00000020 446.72 162.31 538.56 742.04 670.44 475.96 910.58 457.32 854.42 599.06 720.65 744.05 904.35 728.25
00000527 00000021 445.33 162.34 538.44 745.96 668.17 477.44 911.31 461.44 852.71 601.19 716.20 747.33 902.69 733.73
00000528 00000022 442.18 164.66 539.29 748.23 666.85 480.75 909.71 465.86 850.92 606.33 712.83 750.64 899.58 737.81
00000529 00000023 441.89 165.93 537.98 747.66 666.95 482.19 908.52 466.14 850.66 610.27 711.33 751.64 898.22 737.94
00000530 00000024 442.37 165.04 538.28 749.02 666.02 480.52 908.94 464.94 850.12 607.83 711.13 751.05 898.94 737.74
00000531 00000025 444.10 164.58 538.21 745.94 666.09 479.89 909.16 462.92 850.38 605.11 713.62 748.13 902.04 733.52
00000532 00000026 446.43 160.08 538.90 744.68 665.53 476.22 908.42 456.26 849.04 598.22 715.55 740.28 904.22 723.07
00000533 00000027 447.25 158.62 533.87 742.32 665.27 474.59 904.24 453.60 846.68 593.86 716.46 735.68 903.09 717.57
00000534 00000028 444.62 157.79 533.20 744.96 663.17 473.48 902.19 452.14 845.82 591.86 713.47 733.90 902.49 715.27
00000535 00000029 441.79 157.19 534.76 748.12 661.30 472.36 901.25 452.77 843.96 594.10 710.07 733.98 900.44 716.70
00000536 00000030 440.21 156.66 533.86 753.56 657.24 475.80 902.42 455.87 842.87 598.49 708.55 740.99 901.27 723.56
00000537 00000031 435.85 158.66 533.86 752.59 656.14 479.71 901.07 461.71 843.82 600.66 709.49 744.55 900.18 728.44
00000538 00000032 432.11 161.87 534.66 754.90 651.57 484.00 894.90 463.61 838.44 604.73 707.52 750.38 895.05 732.57
00000539 00000033 432.02 163.46 533.51 761.44 650.02 483.90 892.00 464.94 833.34 608.13 704.04 756.04 888.26 739.75
00000540 00000034 433.24 160.79 530.89 765.05 647.59 479.69 888.48 464.61 827.03 605.36 699.69 755.74 881.13 742.64
00000541 00000035 430.71 155.74 531.38 767.65 639.74 474.14 885.44 460.52 818.24 600.40 691.90 752.04 875.82 739.80
00000542 00000036 426.53 152.74 538.19 772.14 635.68 468.06 883.49 460.50 810.43 599.18 681.22 748.01 870.23 740.61
00000543 00000037 420.48 150.66 541.77 774.51 629.75 466.93 877.80 460.91 803.63 596.75 674.85 747.43 864.37 741.07
00000544 00000038 415.88 148.07 544.63 794.31 624.35 465.79 869.95 460.29 796.20 594.34 665.36 748.51 859.57 742.68
00000545 00000039 408.28 156.79 543.00 775.67 621.64 471.45 859.03 463.61 796.40 603.34 656.51 753.89 853.16 746.17
00000546 00000040 408.55 163.40 542.57 773.92 617.83 474.90 858.75 469.78 793.14 606.69 649.85 756.29 852.37 750.84
00000547 00000041 411.45 164.37 541.90 771.92 615.43 479.37 856.31 471.84 788.28 606.77 647.74 757.11 852.10 749.73
00000548 00000042 410.31 165.34 541.34 766.18 611.92 477.79 853.30 470.32 783.83 608.72 644.05 757.14 848.00 749.84
00000549 00000043 412.72 154.73 543.54 779.21 607.20 475.55 858.18 464.61 776.42 606.99 646.16 753.27 848.51 742.83
00000550 00000044 417.17 156.40 539.22 766.82 604.92 477.84 854.65 464.15 770.77 605.83 647.54 751.54 846.42 738.52
00000551 00000045 414.42 154.44 540.05 763.11 601.48 475.17 852.72 461.01 767.98 605.54 644.67 749.02 844.09 735.42
00000552 00000046 414.45 155.73 538.36 753.98 597.92 474.32 851.03 459.43 764.40 605.69 642.30 746.98 842.50 732.72
00000553 00000047 410.67 156.64 540.14 753.96 595.80 474.15 847.59 458.82 763.06 604.29 641.28 746.39 840.79 731.78
00000554 00000048 409.13 156.58 541.59 756.93 595.14 475.05 846.52 456.46 765.06 603.49 647.90 749.88 843.66 732.47
00000555 00000049 410.27 155.46 541.78 763.17 595.42 475.15 846.74 454.71 765.50 603.79 649.85 750.99 846.47 732.03
00000556 00000050 406.66 159.00 542.07 752.09 596.66 474.07 843.53 456.89 766.56 604.21 647.36 752.61 840.96 737.11
00000557 00000051 408.90 156.90 542.19 764.89 595.61 475.68 846.50 456.88 765.85 604.34 651.73 756.27 842.86 738.79
00000558 00000052 404.90 162.85 542.34 753.88 596.42 474.49 842.78 459.60 766.13 604.88 646.13 756.72 834.97 743.43
00000559 00000053 403.72 162.27 542.50 754.10 597.88 473.87 842.34 460.44 767.13 604.25 643.38 754.59 834.87 742.46
00000560 00000054 406.89 157.81 541.44 757.41 595.83 475.64 847.91 457.61 767.53 605.79 646.52 752.36 842.42 735.59
00000561 00000055 407.73 157.83 540.68 755.83 598.28 476.23 849.47 458.05 770.72 605.45 649.31 751.92 844.13 735.06
00000562 00000056 408.98 159.36 539.58 755.66 601.70 476.00 849.83 459.36 772.90 604.06 651.82 750.84 844.92 735.30
00000563 00000057 406.90 159.05 542.78 756.77 603.51 477.67 850.82 459.45 776.27 604.51 655.06 751.66 847.20 734.99
00000564 00000058 409.41 163.95 539.25 751.68 604.77 481.38 851.63 460.98 778.71 609.10 657.67 754.62 849.43 736.36
00000565 00000059 408.10 165.12 540.00 754.52 604.13 482.59 851.16 462.20 778.99 611.90 657.97 757.72 849.43 739.50
00000566 00000060 404.60 165.16 542.66 753.69 602.37 482.60 850.39 462.20 778.53 613.08 656.96 758.35 849.00 740.01
00000567 00000061 403.56 166.10 543.35 756.69 601.74 481.45 849.84 462.23 777.95 612.29 656.13 758.97 848.46 741.52
00000568 00000062 401.17 162.97 544.66 760.71 599.50 481.30 848.53 461.66 775.87 611.47 654.02 758.76 847.73 740.81
00000569 00000063 399.78 162.14 543.42 760.84 596.99 481.68 846.57 461.27 774.72 611.32 652.72 759.19 847.44 740.46
00000570 00000064 395.43 162.09 546.65 763.38 595.48 481.65 844.93 461.54 773.90 612.09 650.86 759.97 845.59 741.49
00000571 00000065 397.24 164.42 545.33 762.16 594.22 483.08 844.88 462.10 772.40 613.21 649.96 761.96 845.91 742.73
00000572 00000066 394.17 166.39 547.10 765.21 593.24 484.16 844.10 462.89 771.97 614.42 648.69 763.66 846.34 744.21
00000573 00000067 391.09 164.25 549.81 766.87 591.69 485.50 843.66 463.75 771.67 615.92 648.45 765.04 846.24 745.25
00000574 00000068 390.36 164.95 550.42 767.60 591.70 485.68 842.87 463.62 771.59 616.85 648.70 766.20 844.90 746.24
00000575 00000069 398.27 171.02 544.66 754.09 598.49 494.96 837.95 467.01 770.45 616.75 649.59 763.80 839.28 740.11
00000576 00000070 398.90 171.15 543.75 755.26 597.99 495.84 837.11 468.00 769.48 616.88 648.84 764.19 838.96 740.51
00000577 00000071 398.25 170.97 544.01 755.45 598.19 495.78 837.20 468.00 769.83 617.12 649.15 764.31 839.00 740.73
00000578 00000072 397.51 170.73 544.50 755.88 598.74 495.40 836.55 467.02 770.64 616.03 650.71 764.46 839.22 740.43
00000579 00000073 396.64 168.87 544.93 758.26 599.32 495.20 836.78 466.29 771.82 614.98 652.06 764.49 840.68 740.01
00000580 00000074 396.96 168.94 544.03 758.37 599.77 495.07 836.89 466.37 772.11 614.93 652.32 764.61 840.49 740.37
00000581 00000075 397.61 168.63 544.01 758.01 599.78 495.82 837.04 467.69 771.28 615.35 651.98 764.52 840.37 740.77
00000582 00000076 397.52 170.79 544.00 754.94 599.39 496.28 837.03 467.98 771.04 616.42 652.12 764.83 839.96 740.93
00000583 00000077 398.58 172.34 543.48 752.52 599.74 497.41 836.84 468.55 771.13 617.59 652.58 765.44 839.54 741.20
00000584 00000078 398.51 172.84 543.24 753.58 601.70 497.49 837.82 468.71 772.90 618.97 653.37 766.00 840.35 741.83
00000585 00000079 390.45 170.06 550.77 771.50 594.65 489.54 841.67 467.91 773.51 620.02 651.79 769.61 846.02 750.09
00000586 00000080 397.42 175.25 541.01 760.41 596.03 495.00 837.68 474.86 771.60 621.84 646.71 769.77 844.71 751.37
00000587 00000081 396.59 177.41 545.32 768.42 596.70 496.79 840.25 477.59 772.56 622.49 646.07 772.38 846.63 754.70
00000588 00000082 397.71 180.48 544.73 776.36 598.66 497.80 839.86 480.15 773.28 625.65 643.80 774.37 847.99 757.86
00000589 00000083 396.68 182.60 544.70 780.84 598.83 499.56 840.63 483.83 772.40 627.93 638.01 774.91 847.46 760.07
00000590 00000084 396.08 183.86 545.98 783.00 597.55 501.38 842.05 485.52 771.29 631.05 635.43 778.36 846.21 763.51
00000591 00000085 392.35 183.83 546.72 783.44 594.74 504.62 843.05 487.79 770.69 633.62 633.15 782.94 844.39 767.06
00000592 00000086 391.48 186.68 549.19 773.51 595.07 508.93 845.42 492.69 771.79 638.54 633.16 786.39 841.71 771.03
00000593 00000087 393.02 182.97 548.46 764.03 597.73 511.93 849.21 494.87 774.75 639.94 640.12 783.90 842.64 767.90
00000594 DELETE   395.86 178.88 553.65 772.73 609.46 506.21 859.09 492.92 787.08 637.46 659.22 783.61 848.98 770.90
00000595 DELETE   401.51 175.23 554.87 765.82 620.00 504.88 867.49 487.01 801.63 636.37 664.42 776.81 860.64 760.46
00000596 DELETE   407.73 170.37 551.91 771.48 627.18 504.86 873.71 483.96 813.47 631.39 676.16 775.34 873.52 756.45
00000597 00000091 408.56 171.13 548.67 767.34 629.98 504.61 872.35 479.02 820.12 629.32 681.08 774.14 876.34 751.81
00000598 00000092 404.41 171.36 551.86 762.39 626.92 500.50 870.35 475.77 817.36 626.73 680.94 770.62 875.95 748.71
00000599 DELETE   397.20 165.03 555.86 763.05 618.18 491.84 869.43 469.23 806.03 626.69 679.06 767.87 868.59 747.70
00000600 DELETE   391.87 165.11 558.27 771.51 611.54 489.44 864.00 468.71 799.29 625.70 669.28 769.36 863.71 750.75
00000601 00000095 391.05 165.06 554.81 779.45 611.40 486.02 858.98 468.08 795.83 623.19 666.14 768.07 858.60 751.86
00000602 00000096 390.10 166.16 553.58 772.44 611.24 489.48 852.06 467.68 797.95 623.03 666.69 769.34 856.51 750.10
00000603 00000097 393.44 168.86 553.85 776.43 615.57 488.29 854.68 467.02 801.43 620.89 671.91 770.26 859.78 751.22
00000604 00000098 394.22 166.36 554.79 783.19 617.05 488.49 855.23 467.65 801.60 620.48 672.34 771.51 858.94 752.99
00000605 00000099 391.48 167.02 556.54 782.52 614.63 486.77 853.56 468.33 798.64 619.98 668.57 768.77 856.13 752.33
00000606 00000100 394.11 169.28 554.56 780.11 613.88 482.90 853.91 468.08 795.47 617.93 664.75 767.15 852.71 753.77
00000607 00000101 396.74 172.17 550.07 776.78 613.61 480.75 853.18 467.48 794.66 616.33 659.87 767.13 850.26 755.16
00000608 00000102 397.81 170.80 550.90 777.51 615.76 480.81 854.80 469.07 795.72 614.98 661.80 766.07 851.70 755.35
00000609 00000103 398.84 171.40 551.09 775.58 615.89 480.30 855.86 468.46 796.40 614.12 663.36 765.66 853.24 754.84
00000610 00000104 398.72 169.61 551.26 774.96 616.40 480.88 855.34 468.83 796.83 614.38 663.97 765.35 852.83 754.34
00000611 00000105 399.32 168.52 551.03 771.95 615.19 480.35 856.41 468.70 795.53 614.91 660.28 764.44 850.98 753.79
00000612 00000106 400.70 168.71 549.40 769.82 615.57 478.54 855.97 467.48 794.55 614.78 660.37 762.87 850.13 752.67
00000613 00000107 402.15 164.59 548.16 768.19 614.86 478.19 856.21 467.22 792.68 614.52 657.23 760.52 849.08 750.48
00000614 00000108 405.78 160.27 548.34 781.34 613.79 475.46 862.08 464.35 788.63 613.20 657.67 760.06 852.15 749.59
00000615 00000109 404.71 166.35 547.74 758.88 615.78 478.74 858.29 467.68 793.10 615.24 659.24 758.88 849.79 748.90
00000616 00000110 410.22 162.23 547.75 768.25 616.63 476.23 867.29 465.60 790.54 614.58 659.13 757.87 853.89 747.93
00000617 00000111 411.12 160.97 547.90 767.59 617.93 477.87 869.72 467.13 792.24 616.23 658.81 756.76 856.23 746.74
00000618 00000112 413.41 164.56 545.77 762.37 619.07 479.43 871.00 466.76 794.73 615.54 661.34 755.67 859.89 744.01
00000619 00000113 408.78 170.44 549.27 754.19 624.52 483.71 868.16 471.24 805.08 617.41 664.00 757.04 862.47 745.97
00000620 00000114 413.20 164.08 547.98 775.44 625.30 481.73 876.41 468.54 802.73 621.36 667.98 759.83 865.88 747.85
00000621 00000115 409.18 168.80 551.63 764.41 625.38 488.13 872.06 473.03 807.18 625.13 666.14 762.37 866.96 748.86
00000622 00000116 409.56 171.08 553.73 762.25 624.63 491.45 874.14 476.71 805.98 627.88 665.26 763.77 866.70 750.48
00000623 00000117 413.41 169.20 555.83 762.75 622.57 490.20 880.77 477.88 799.97 630.39 665.92 766.61 865.65 755.16
00000624 00000118 413.34 168.03 553.35 757.01 623.25 490.84 880.31 478.64 801.13 631.53 666.16 764.18 865.60 752.78
00000625 00000119 416.12 169.19 552.98 759.04 624.78 492.99 881.68 481.03 801.37 633.30 665.91 764.21 866.15 753.02
00000626 00000120 417.20 171.76 555.08 752.48 630.03 498.25 885.98 484.68 809.00 633.58 673.65 764.80 872.36 752.12
00000627 00000121 424.18 179.52 545.64 749.50 641.07 511.34 887.35 489.99 825.07 635.16 690.71 776.66 884.37 757.78
00000628 DELETE   430.03 188.79 548.32 751.15 655.45 520.92 891.99 493.83 836.32 638.78 710.50 782.35 893.73 758.95
00000629 00000123 431.38 198.47 545.39 743.78 657.86 533.68 890.09 497.61 842.99 645.43 719.15 789.40 898.05 759.09
00000630 00000124 426.27 202.10 547.41 746.98 650.18 537.68 888.12 503.33 836.05 654.10 711.92 796.24 892.77 767.46
00000631 DELETE   419.45 202.71 549.77 756.73 638.64 540.13 881.70 503.22 828.73 662.47 703.53 804.52 889.53 773.05
00000632 DELETE   413.59 200.97 552.85 760.46 627.56 539.34 878.23 503.71 818.22 665.26 693.72 808.61 883.36 777.89
00000633 00000127 411.20 198.99 554.89 763.79 623.28 536.98 877.02 504.69 812.26 666.44 685.68 807.90 878.86 779.81
00000634 00000128 410.19 198.76 553.95 766.33 622.15 533.26 872.81 504.28 806.03 664.04 679.40 805.43 871.50 780.23
00000635 00000129 406.27 199.38 553.48 765.00 617.36 530.32 868.21 505.57 797.87 662.97 669.13 799.88 864.16 778.02
00000636 00000130 409.87 201.24 548.97 767.65 616.21 528.37 867.48 508.55 792.16 664.15 658.52 797.23 857.76 779.89
00000637 00000131 410.37 200.07 550.85 779.78 615.71 526.53 869.51 511.70 791.12 664.97 651.64 798.66 858.74 785.24
00000638 00000132 410.83 201.93 555.84 781.13 618.66 526.58 873.27 510.73 796.03 664.27 659.85 804.60 862.79 790.27
00000639 00000133 411.29 201.50 557.35 781.68 623.53 531.18 877.10 511.35 805.75 664.42 671.14 809.29 869.55 791.66
00000640 00000134 412.67 197.09 556.83 789.70 624.17 532.60 876.75 508.30 808.37 664.21 675.92 810.52 875.92 789.01
00000641 00000135 411.84 199.58 554.46 786.29 622.59 532.16 873.51 506.26 806.74 663.46 675.39 809.53 874.68 786.80
00000642 00000136 410.50 200.72 554.06 782.98 620.35 531.70 869.72 505.55 802.65 663.54 672.68 808.09 870.22 785.40
00000643 00000137 409.95 201.87 552.74 778.67 616.40 530.13 865.25 502.84 797.07 661.75 671.39 807.12 866.57 783.59
00000644 00000138 408.47 201.50 552.47 777.47 614.66 529.08 862.03 502.25 794.38 660.11 669.68 805.04 863.92 781.59
00000645 00000139 410.88 200.14 550.56 775.88 616.17 526.37 863.97 500.65 795.23 658.89 666.81 802.52 862.81 780.21
00000646 00000140 414.16 199.27 548.50 776.69 619.20 523.36 867.93 501.22 797.21 655.01 665.45 798.95 864.95 779.49
00000647 00000141 415.33 197.61 547.59 775.89 622.60 521.86 870.29 499.48 802.54 652.96 668.30 798.47 866.20 778.87
00000648 00000142 417.84 200.74 545.58 773.20 624.88 522.41 872.20 500.10 804.62 654.23 669.56 798.41 867.14 778.99
00000649 00000143 418.94 198.88 545.50 776.65 625.63 522.59 873.26 500.53 805.27 654.09 670.64 799.53 868.24 780.33
00000650 00000144 419.37 198.72 545.89 779.24 625.21 523.47 873.01 501.74 804.19 654.74 670.53 800.75 868.43 781.77
00000651 00000145 418.69 199.23 546.58 781.92 624.85 523.05 872.08 501.82 803.49 655.10 668.88 800.83 867.30 782.29
00000652 00000146 418.51 198.15 547.80 785.52 624.84 522.87 872.67 501.77 803.85 655.51 668.07 801.43 867.69 782.99
00000653 00000147 419.38 200.27 547.83 782.27 625.51 522.97 873.05 502.28 802.88 657.02 668.53 800.97 867.00 782.88
00000654 00000148 417.34 197.59 549.34 774.39 623.03 523.11 872.06 501.20 800.79 659.34 666.35 797.73 867.01 778.60
00000655 00000149 418.42 197.80 548.11 763.09 622.82 523.06 870.96 500.31 798.41 659.53 669.96 795.04 865.15 775.22
00000656 00000150 417.01 195.61 547.47 762.97 622.54 522.71 867.61 499.70 796.13 656.94 667.51 789.93 863.05 769.95
00000657 00000151 410.74 197.29 549.46 758.77 617.87 521.25 863.91 499.42 792.60 653.02 665.08 789.85 858.82 770.68
00000658 00000152 407.42 193.76 547.39 763.58 613.82 519.04 858.53 496.31 789.98 647.92 667.18 792.06 854.53 772.14
00000659 00000153 400.74 193.67 550.44 771.28 609.68 518.56 853.48 497.62 785.98 647.96 666.94 796.85 847.48 778.08
00000660 00000154 396.40 190.98 551.71 779.39 608.89 516.63 850.34 497.40 783.85 646.72 666.42 798.18 842.75 780.88
00000661 00000155 397.92 190.90 546.62 775.81 604.92 514.07 847.73 495.14 780.15 644.32 663.10 796.70 839.47 779.56
00000662 00000156 394.77 190.76 547.86 770.44 599.71 515.09 846.56 494.35 777.22 642.99 661.10 796.32 840.06 777.34
00000663 00000157 397.53 199.06 544.11 755.81 607.65 520.03 842.93 493.47 777.29 637.13 661.78 788.75 834.78 767.08
00000664 00000158 392.09 194.01 548.52 758.61 603.84 518.65 840.99 490.85 775.93 635.72 660.09 789.51 834.35 766.67
00000665 00000159 388.29 187.07 550.80 762.85 601.11 516.29 843.28 491.13 774.01 635.11 652.28 785.99 834.07 765.22
00000666 00000160 387.96 184.23 548.22 761.80 600.03 515.53 838.92 490.22 771.51 633.90 650.64 783.26 832.70 762.13
00000667 00000161 385.93 181.99 549.29 762.04 598.82 513.40 838.63 488.80 771.30 630.42 649.48 779.85 833.94 759.37
00000668 00000162 387.12 183.24 546.27 759.74 597.57 510.77 837.60 486.47 770.69 628.41 648.15 777.88 834.64 757.70
00000669 00000163 388.56 180.80 545.76 759.15 596.73 508.95 837.86 484.11 769.84 627.89 647.25 774.46 837.03 753.72
00000670 00000164 385.99 180.62 547.81 760.20 592.68 511.54 833.04 482.63 767.18 628.87 648.35 776.29 837.10 752.05
00000671 00000165 385.37 179.61 547.15 758.54 588.75 513.13 830.78 483.12 763.66 630.35 645.07 777.08 835.03 751.95
00000672 00000166 383.78 182.66 547.35 754.74 586.48 516.82 828.60 485.52 762.73 630.80 644.06 778.23 833.53 752.11
00000673 00000167 386.18 181.23 544.55 752.73 586.71 517.28 827.80 486.04 761.90 629.05 643.79 777.79 832.78 751.74
00000674 00000168 383.09 179.65 547.01 752.49 583.95 516.81 827.45 485.17 761.04 629.61 642.30 777.99 833.27 751.56
00000675 00000169 379.91 178.72 549.01 753.96 580.84 516.49 826.92 484.44 760.25 630.41 639.06 778.00 833.76 751.08
00000676 00000170 377.76 174.83 550.93 760.98 580.68 516.47 826.25 484.93 759.87 629.21 637.66 777.49 832.81 750.99
