Video ID: 	G5I_5ubsLTE
H: 	1080
W: 	1920
FPS: 	25.0

FRAME INDEX X0 Y0 W H [Landmarks (5 Points)]

00001719 00000000 532.79 235.61 395.42 565.88 626.93 474.59 805.20 422.72 743.68 567.44 712.46 675.42 861.91 630.35
00001720 00000001 537.62 236.34 391.39 570.47 629.11 476.37 807.93 422.71 744.01 569.49 712.74 675.09 870.04 627.91
00001721 DELETE   536.23 233.54 392.77 573.85 627.79 484.41 809.22 428.81 746.75 580.08 714.65 681.64 874.53 632.83
00001722 00000003 526.34 238.51 403.74 561.32 630.54 491.19 816.31 434.41 751.12 589.12 718.59 678.37 868.72 631.10
00001723 00000004 538.76 241.41 393.01 568.02 631.54 485.74 813.12 434.97 749.25 584.86 718.62 688.21 868.58 643.82
00001724 00000005 542.01 238.53 393.14 568.64 634.41 476.72 814.76 429.63 751.26 575.94 717.70 680.37 868.97 638.96
00001725 00000006 550.10 242.05 391.25 563.28 644.74 464.17 822.92 423.80 758.38 567.56 719.85 674.27 862.07 638.80
00001726 DELETE   542.92 221.20 404.57 563.81 650.25 459.62 832.49 413.96 770.97 561.14 728.92 657.61 874.30 618.06
00001727 DELETE   553.48 212.63 394.70 568.76 659.26 448.19 840.56 406.29 778.84 550.35 729.41 650.50 877.09 614.53
00001728 00000009 571.04 218.21 380.53 556.61 670.33 432.33 851.53 391.84 788.62 527.77 734.73 649.02 875.06 613.59
00001729 00000010 572.11 216.78 380.91 558.32 673.15 433.12 855.90 392.37 792.18 530.12 736.81 648.83 880.69 612.74
00001730 00000011 574.97 214.92 379.61 557.87 675.23 434.57 857.61 393.17 795.31 532.43 742.35 651.99 881.15 615.25
00001731 00000012 580.28 211.79 380.04 566.07 680.86 443.81 861.90 398.97 802.30 541.64 745.50 654.35 890.44 614.59
00001732 00000013 583.84 214.35 381.28 562.53 686.33 450.08 865.13 405.79 807.52 546.02 747.78 654.16 894.64 615.57
00001733 00000014 588.09 214.57 384.77 559.62 692.04 452.41 871.97 408.13 814.82 550.74 753.79 655.82 900.38 617.65
00001734 00000015 594.11 212.64 385.42 558.55 697.41 455.29 879.45 409.37 822.22 551.64 760.42 656.57 909.56 616.83
00001735 00000016 597.90 214.51 386.97 560.28 704.21 456.68 887.23 412.40 828.73 550.26 765.39 658.82 915.25 619.99
00001736 00000017 604.30 212.71 384.37 556.90 710.03 456.82 898.26 415.39 836.12 553.19 769.06 659.26 922.56 623.53
00001737 00000018 607.58 216.65 382.00 557.00 719.51 458.70 903.06 419.97 845.08 556.01 775.94 660.65 923.00 627.58
00001738 00000019 604.45 220.83 390.40 560.67 724.29 456.76 911.47 426.04 849.83 558.00 788.82 655.17 935.53 629.79
00001739 00000020 620.43 223.33 378.96 558.71 739.51 457.93 912.25 433.92 859.89 557.80 791.97 660.65 925.74 641.49
00001740 00000021 624.22 219.79 377.78 564.61 743.33 463.92 917.78 439.34 866.87 560.72 795.30 664.58 930.53 645.45
00001741 00000022 628.56 221.01 379.65 559.62 747.86 461.63 923.61 437.39 870.92 559.82 799.28 663.10 934.58 643.42
00001742 00000023 631.63 219.37 381.99 563.93 750.24 458.15 927.62 432.34 874.96 560.42 805.28 665.17 940.66 642.91
00001743 00000024 634.19 219.45 382.79 560.55 752.68 456.29 929.28 428.58 876.83 558.79 808.21 661.80 945.28 637.47
00001744 00000025 635.77 216.32 385.01 563.22 754.07 454.59 929.72 426.66 877.84 559.02 808.77 659.59 947.11 634.87
00001745 00000026 636.69 215.99 386.26 564.50 755.55 455.25 930.40 426.15 879.70 560.47 808.91 658.14 949.50 632.49
00001746 00000027 638.71 217.42 384.95 563.12 756.89 455.70 931.77 425.88 881.45 560.05 810.34 657.92 951.88 631.53
00001747 00000028 641.60 221.15 381.94 559.72 758.60 457.49 933.46 427.54 882.48 561.84 811.01 657.97 953.87 631.64
00001748 00000029 643.16 221.06 381.52 566.55 759.58 460.97 934.69 433.02 883.23 563.72 809.37 658.46 956.58 633.59
00001749 00000030 643.58 221.68 383.03 570.48 760.34 463.44 936.01 436.14 884.39 565.94 808.16 659.42 958.21 635.05
00001750 00000031 645.13 223.64 382.84 568.90 762.15 465.04 940.16 438.94 886.94 568.14 809.47 661.00 960.65 637.63
00001751 00000032 648.11 223.16 380.71 570.01 763.15 468.13 942.66 442.05 888.57 573.37 810.24 661.70 965.17 638.36
00001752 00000033 649.69 225.01 379.85 569.51 766.03 469.67 945.40 445.02 892.09 573.40 810.93 662.43 966.34 640.42
00001753 00000034 651.66 221.66 378.76 572.40 767.15 470.01 947.99 447.20 893.53 574.24 811.86 664.62 966.76 644.07
00001754 00000035 652.27 222.27 379.69 574.72 768.34 470.71 949.44 448.85 894.16 575.05 811.74 664.80 968.19 645.12
00001755 00000036 651.51 221.40 381.05 577.31 767.38 469.64 950.26 449.25 893.46 575.65 809.22 665.55 966.78 647.17
00001756 00000037 650.51 222.89 382.36 576.05 766.70 469.53 949.36 449.24 892.60 576.46 807.74 664.98 965.76 646.81
00001757 00000038 649.20 224.18 382.93 576.24 765.56 469.09 948.21 449.88 890.56 575.94 805.77 665.24 963.76 647.95
00001758 00000039 646.61 224.34 385.28 576.60 763.81 469.75 946.54 451.11 888.11 576.41 803.60 664.62 962.31 647.66
00001759 00000040 645.78 225.89 384.34 573.18 763.20 468.62 945.80 449.82 886.96 576.24 801.89 663.34 960.28 646.45
00001760 00000041 645.36 225.60 385.04 576.43 762.99 469.05 945.82 449.73 887.71 576.29 800.33 662.44 962.14 645.23
00001761 00000042 645.03 225.10 384.76 577.15 763.22 469.77 945.89 451.53 887.81 577.38 798.83 661.54 962.09 645.30
00001762 00000043 643.40 225.30 385.20 579.18 761.10 469.90 944.17 452.37 885.30 578.45 795.20 660.99 960.51 645.50
00001763 00000044 642.79 225.90 384.87 576.15 760.17 469.77 942.30 452.66 883.02 579.46 794.74 660.70 957.81 645.61
00001764 00000045 641.72 223.94 385.59 579.75 759.52 470.09 942.02 453.85 882.44 579.49 793.74 661.24 957.47 646.68
00001765 00000046 641.23 223.32 385.98 581.26 760.27 470.97 941.71 454.62 883.01 578.84 794.09 661.55 957.30 646.90
00001766 00000047 641.13 223.05 385.67 579.91 759.91 470.97 941.54 454.56 882.55 580.03 793.17 660.50 956.80 645.91
00001767 00000048 640.61 221.84 385.85 583.91 759.44 472.16 940.25 455.37 881.28 581.24 793.07 661.59 956.15 646.52
00001768 00000049 640.81 220.60 384.64 585.25 758.89 472.67 939.94 455.12 881.03 582.24 792.74 662.16 956.29 646.37
00001769 00000050 640.24 217.87 385.24 587.74 757.55 473.93 940.63 456.95 881.04 582.75 792.06 663.29 957.48 647.74
00001770 00000051 639.98 218.81 384.40 584.34 755.51 474.42 938.98 455.08 879.67 584.58 792.52 664.45 957.12 647.08
00001771 00000052 638.92 217.80 385.01 589.88 755.03 474.65 937.69 455.06 879.07 584.78 792.15 664.99 956.81 647.22
00001772 00000053 638.30 218.33 385.26 590.04 755.23 474.09 937.20 454.60 878.97 584.46 792.14 665.07 955.69 647.42
00001773 00000054 638.93 218.92 384.47 582.86 753.96 472.63 937.48 453.48 877.71 584.15 792.20 665.93 953.42 648.64
00001774 00000055 638.60 218.54 384.59 583.59 753.25 471.88 936.46 453.49 876.47 583.34 794.75 669.32 950.29 652.40
00001775 00000056 638.62 218.78 384.46 584.23 751.86 470.68 934.68 454.58 873.29 581.84 797.10 674.79 944.61 659.67
00001776 00000057 638.19 217.96 382.91 585.84 750.31 469.19 935.33 455.00 872.05 583.10 797.99 678.67 942.45 664.91
00001777 00000058 638.12 217.33 382.32 578.38 747.71 468.16 936.39 454.05 870.41 582.67 796.86 678.42 943.23 664.57
00001778 00000059 637.13 217.71 382.58 580.51 747.73 467.29 934.35 454.59 868.87 584.03 797.29 681.51 938.83 669.04
00001779 00000060 635.52 218.66 382.13 583.14 744.54 468.50 931.67 455.33 863.80 586.25 793.94 681.50 937.69 668.48
00001780 00000061 633.93 220.16 381.47 583.81 742.78 468.72 927.47 454.90 860.18 589.10 793.20 680.90 935.87 667.42
00001781 00000062 633.13 226.44 378.35 575.26 739.33 468.23 924.97 453.51 854.47 588.33 787.69 678.01 934.60 664.13
00001782 00000063 632.60 229.76 376.52 571.19 738.52 466.68 921.96 452.87 850.66 587.80 784.52 676.75 929.27 664.13
00001783 00000064 631.36 226.74 378.19 581.11 736.14 468.83 920.06 453.79 849.51 587.80 782.19 678.94 929.61 665.20
00001784 00000065 630.99 231.35 375.42 565.82 735.03 467.70 919.15 454.43 847.39 588.73 778.48 675.28 926.49 663.20
00001785 00000066 629.25 232.44 377.02 564.51 732.61 469.70 917.49 457.14 845.50 588.19 774.09 673.78 926.93 662.39
00001786 00000067 629.18 230.66 377.18 567.83 731.99 470.35 914.99 457.80 843.46 589.62 773.21 673.36 926.08 661.92
00001787 00000068 627.63 230.76 377.11 566.14 732.21 468.29 912.26 455.91 842.53 588.59 776.42 675.86 921.71 664.50
00001788 00000069 627.01 225.98 377.03 572.00 731.57 469.54 910.48 459.22 840.23 589.27 772.96 679.40 913.74 669.81
00001789 00000070 622.86 225.09 380.89 568.86 727.80 477.72 911.35 468.14 834.47 590.62 763.78 670.89 908.88 664.34
00001790 00000071 621.31 226.23 384.37 570.17 714.80 476.24 898.81 471.64 809.56 591.90 747.88 667.84 896.85 664.90
00001791 00000072 613.72 224.11 389.82 574.16 699.11 470.80 882.06 471.53 782.73 588.38 729.35 664.74 878.40 665.79
00001792 DELETE   613.71 217.26 382.54 572.34 684.93 460.25 867.89 460.51 760.50 583.72 713.85 672.39 856.43 672.72
00001793 00000074 608.88 216.31 385.03 573.60 679.09 453.59 864.05 455.94 752.08 580.92 706.78 671.31 848.12 673.49
00001794 00000075 606.64 225.24 386.43 571.05 681.70 454.85 862.63 453.44 744.94 575.19 705.87 664.46 851.68 662.33
00001795 DELETE   606.72 226.83 385.02 573.21 681.02 450.01 861.23 451.78 739.74 572.23 701.90 659.93 851.56 660.19
00001796 00000077 606.26 227.89 384.40 567.98 678.86 450.65 859.54 453.01 735.82 570.27 697.36 660.08 844.98 661.45
00001797 DELETE   607.15 224.89 386.15 567.83 674.36 438.32 860.12 452.95 731.16 570.87 689.71 664.67 832.99 677.25
00001798 00000079 604.84 230.08 382.72 563.21 673.80 450.88 850.71 455.57 725.19 569.44 687.41 657.30 832.94 661.16
00001799 00000080 603.40 228.05 381.14 561.04 669.40 451.79 844.57 456.43 719.81 570.29 683.73 656.61 828.96 660.55
00001800 00000081 600.88 234.89 381.77 554.87 663.43 453.00 836.97 455.34 716.30 573.18 682.73 656.25 830.32 658.05
00001801 00000082 600.98 232.17 378.24 558.34 657.20 455.75 825.87 454.97 705.82 571.80 679.36 657.05 826.49 656.21
00001802 00000083 596.79 229.46 376.30 563.75 651.79 455.58 817.35 455.39 696.93 570.28 672.15 656.41 818.76 656.05
00001803 00000084 590.25 230.00 377.20 566.83 643.80 457.76 809.22 454.97 688.54 568.31 665.66 656.58 816.10 653.71
00001804 00000085 579.90 227.12 384.99 570.82 635.42 464.30 800.91 457.10 684.42 569.62 663.36 662.11 811.16 655.35
00001805 00000086 573.74 230.33 388.54 568.36 630.16 468.08 799.45 460.06 681.75 575.94 657.54 667.05 811.06 659.23
00001806 00000087 569.84 240.40 391.04 563.63 628.62 468.29 799.70 459.09 681.33 578.42 659.24 668.52 813.37 659.65
00001807 00000088 565.54 244.70 392.59 562.13 626.41 469.41 797.15 461.51 679.03 580.12 658.58 670.96 810.99 662.94
00001808 00000089 562.18 243.62 392.63 571.87 622.02 469.59 793.22 461.36 673.31 583.67 658.81 677.76 804.80 669.72
00001809 00000090 559.60 240.77 394.12 579.83 618.11 469.87 790.14 461.67 669.46 586.73 654.61 678.16 803.91 669.49
00001810 00000091 555.93 237.09 396.55 586.32 613.76 472.26 787.59 462.42 667.62 589.38 652.40 680.62 805.40 670.27
00001811 00000092 556.46 230.86 396.01 596.17 611.47 471.64 787.68 461.55 667.38 592.07 645.59 682.50 798.40 674.18
00001812 00000093 551.07 232.54 398.65 596.24 609.87 472.84 783.68 464.42 664.28 597.07 642.88 684.37 797.12 677.17
00001813 00000094 546.12 235.02 400.18 593.91 605.33 475.62 780.22 468.89 661.03 602.58 637.11 687.24 793.17 681.34
00001814 00000095 540.28 243.59 401.46 591.40 603.46 478.87 779.55 474.07 660.53 608.98 632.60 688.39 793.05 683.90
00001815 00000096 536.14 248.20 404.03 584.90 598.90 483.11 778.09 478.02 659.91 613.91 628.13 688.69 792.05 683.83
00001816 00000097 533.31 249.47 406.53 587.46 597.04 486.23 778.22 478.89 660.71 616.70 627.91 693.57 792.96 686.85
00001817 00000098 531.29 249.15 407.35 584.92 595.03 490.38 777.28 479.28 661.63 619.01 629.89 700.24 793.66 690.52
00001818 00000099 529.23 253.30 407.79 580.30 591.72 493.76 772.61 483.40 659.87 627.13 628.95 703.92 788.67 694.92
00001819 00000100 526.56 249.63 408.05 588.09 587.27 498.39 769.78 488.41 655.49 632.84 626.76 710.36 784.79 701.87
00001820 00000101 524.64 253.62 407.93 610.63 587.08 503.00 772.51 494.82 647.88 631.85 622.94 718.04 782.76 710.70
00001821 00000102 522.40 254.68 411.18 622.21 587.05 508.02 772.99 499.59 643.84 634.86 622.26 725.02 779.58 717.27
00001822 00000103 518.10 263.88 416.15 621.64 584.76 509.80 774.50 500.65 650.78 645.31 623.41 736.98 781.80 728.81
00001823 00000104 518.49 269.92 416.88 613.06 581.50 514.01 773.73 507.25 647.55 652.14 619.98 742.40 780.77 736.45
00001824 00000105 516.92 278.89 415.52 586.65 578.33 515.30 771.31 516.28 647.75 661.25 615.36 737.84 779.31 738.64
00001825 00000106 516.34 284.15 419.37 587.21 580.16 521.12 775.89 523.44 649.84 668.96 617.01 743.69 779.15 745.33
00001826 00000107 518.37 280.35 418.15 601.58 583.16 526.95 777.65 524.21 650.09 671.20 623.93 755.08 780.38 752.12
00001827 00000108 521.60 282.66 417.76 611.16 586.46 529.84 771.83 528.40 643.27 666.09 627.46 749.13 780.54 749.18
00001828 00000109 526.55 282.05 417.68 607.52 591.24 528.54 775.35 529.73 649.62 665.36 632.43 747.07 783.53 749.16
00001829 00000110 531.44 285.73 417.50 601.41 598.31 520.71 784.11 526.92 656.11 661.80 636.51 745.61 786.49 751.54
00001830 00000111 540.10 288.51 414.01 601.40 609.18 520.66 797.57 529.49 667.47 664.80 643.48 741.69 800.68 749.28
00001831 00000112 551.90 285.51 409.62 594.88 617.74 527.03 806.27 535.22 679.31 666.33 653.14 740.81 809.29 747.41
00001832 DELETE   564.90 288.23 401.14 583.90 628.74 525.19 815.55 532.88 692.60 666.39 667.45 739.36 818.25 745.54
00001833 00000114 573.84 283.35 399.60 582.96 642.41 524.78 826.30 529.42 710.75 658.48 675.99 732.83 835.02 734.55
CROP_BBOX: 299 0 1325 1040
