Video ID: 	BHc7rkg03NA
H: 	1080
W: 	1920
FPS: 	25.0

FRAME INDEX X0 Y0 W H [Landmarks (5 Points)]

00000657 00000000 770.42 275.38 439.30 597.56 852.08 535.05 1053.07 544.95 936.85 694.70 890.56 748.03 1044.54 755.26
00000658 DELETE   773.29 272.93 437.61 596.99 851.68 531.23 1051.89 541.26 935.95 690.85 891.77 744.03 1046.49 751.24
00000659 DELETE   775.73 269.51 435.42 593.60 851.26 527.98 1051.77 538.96 934.38 686.24 890.28 739.61 1045.96 747.57
00000660 00000003 777.93 266.88 435.97 587.42 851.16 521.99 1053.80 532.61 935.10 681.94 891.85 735.63 1049.92 743.01
00000661 00000004 781.20 252.80 433.84 594.53 852.95 515.30 1053.96 526.22 935.00 674.55 893.46 732.49 1048.82 739.59
00000662 00000005 782.93 248.96 432.97 600.67 854.06 510.20 1052.88 523.41 933.44 671.01 894.33 731.50 1045.97 740.43
00000663 00000006 782.71 252.37 433.90 594.91 856.61 507.03 1053.05 521.58 935.17 668.47 897.72 728.37 1045.67 738.49
00000664 00000007 781.23 256.86 436.04 591.33 856.63 504.69 1053.60 519.97 935.93 665.49 895.89 726.52 1043.09 737.49
00000665 00000008 780.76 249.39 436.26 599.76 856.03 502.89 1051.89 519.23 934.01 665.02 894.73 729.50 1039.33 741.55
00000666 00000009 781.36 234.09 436.27 611.18 855.48 500.45 1049.76 517.55 930.76 663.41 893.71 731.63 1034.63 744.24
00000667 00000010 781.46 224.79 435.24 616.06 854.42 498.11 1047.32 514.55 929.20 660.62 892.72 732.06 1031.70 743.99
00000668 DELETE   773.98 234.11 439.31 613.28 847.73 500.06 1047.93 513.13 928.71 666.67 893.00 726.35 1030.81 736.37
00000669 00000012 773.12 232.92 441.89 614.92 846.15 498.09 1045.51 512.85 925.26 664.78 890.63 723.09 1032.05 734.45
00000670 00000013 773.09 228.23 443.56 617.23 844.24 495.67 1042.98 511.38 921.25 662.17 889.01 720.06 1031.28 732.08
00000671 DELETE   771.32 227.99 444.43 620.45 841.93 494.98 1040.75 510.69 917.66 661.86 886.30 720.66 1030.94 732.53
00000672 00000015 769.25 230.14 445.37 617.72 837.77 494.92 1037.00 513.41 912.08 663.60 881.73 719.78 1027.62 733.84
00000673 00000016 767.08 228.95 444.55 615.99 833.88 495.84 1032.76 515.15 906.15 663.98 878.37 722.23 1020.72 736.84
00000674 00000017 768.83 225.25 433.03 620.34 827.75 491.92 1022.04 516.98 899.74 668.03 871.50 721.37 1011.15 741.83
00000675 00000018 766.45 229.42 433.37 621.26 826.78 491.93 1017.36 518.69 894.98 670.41 868.70 721.77 1005.74 743.74
00000676 00000019 762.50 230.51 433.46 618.45 823.62 489.14 1013.66 517.13 889.49 668.08 865.61 718.66 1002.37 741.63
00000677 00000020 761.21 228.04 432.10 616.21 820.86 486.19 1013.03 514.05 887.82 665.42 862.99 715.39 1001.37 738.29
00000678 00000021 757.69 224.97 432.68 614.62 818.07 483.51 1010.22 511.27 884.98 661.15 861.00 711.35 999.09 733.93
00000679 00000022 756.03 222.55 433.01 616.84 816.12 481.40 1008.60 507.55 883.04 657.41 859.25 710.06 997.82 731.32
00000680 00000023 754.44 216.76 431.25 620.83 814.41 480.81 1007.19 505.65 883.25 655.57 857.33 709.67 996.71 729.89
00000681 00000024 754.31 216.19 431.23 622.05 813.64 480.58 1006.71 504.96 882.72 655.34 856.05 709.83 996.14 729.77
00000682 00000025 752.45 217.28 433.16 621.41 813.38 481.07 1006.86 503.97 882.37 655.51 856.97 710.30 996.30 729.02
00000683 00000026 747.58 214.69 435.66 623.66 809.12 481.12 1003.05 502.80 878.26 655.60 853.77 710.16 994.53 727.90
00000684 00000027 741.67 215.43 440.34 623.69 804.63 482.97 999.10 502.18 874.02 656.35 851.33 710.94 992.88 726.52
00000685 00000028 739.26 220.46 442.45 620.70 802.04 483.49 995.91 501.00 871.18 656.30 850.88 711.92 991.27 726.11
00000686 00000029 736.55 214.64 443.61 629.91 798.63 484.35 992.03 500.49 866.09 656.47 849.28 714.22 989.94 727.28
00000687 00000030 733.97 216.67 446.28 630.22 797.39 483.55 988.54 499.67 862.92 654.10 850.01 713.81 989.48 726.83
00000688 00000031 735.47 211.77 442.99 634.59 798.45 483.50 985.26 497.85 861.56 651.15 849.91 712.82 988.01 724.33
00000689 00000032 735.52 211.39 442.47 635.87 797.75 481.82 983.64 495.65 860.06 649.23 850.59 711.21 988.71 722.29
00000690 00000033 733.93 207.68 443.64 637.91 795.72 479.02 983.08 492.24 859.16 646.29 849.71 709.07 988.36 719.64
00000691 00000034 731.31 208.94 444.83 635.54 793.66 477.06 981.62 489.60 857.90 644.42 846.31 706.82 985.93 716.86
00000692 00000035 728.68 208.32 447.29 637.43 791.82 474.94 979.44 487.41 856.06 642.90 842.54 705.40 984.75 715.40
00000693 00000036 725.75 212.83 449.64 631.96 789.87 473.99 977.64 484.73 855.17 640.89 840.73 704.95 982.75 713.60
00000694 00000037 724.34 212.20 449.90 628.63 787.83 473.93 977.55 484.05 855.60 641.45 838.86 705.36 982.17 713.47
00000695 00000038 723.51 214.27 449.27 622.42 785.54 471.49 975.15 479.76 854.25 640.57 838.57 705.37 980.29 711.98
00000696 00000039 720.16 210.14 450.72 628.07 782.91 471.28 973.17 477.27 852.21 637.99 837.67 704.88 980.19 709.50
00000697 00000040 715.23 214.43 453.85 625.99 778.61 472.87 970.12 477.78 849.24 638.56 836.52 704.97 981.14 708.48
00000698 00000041 710.24 214.86 456.66 625.36 775.16 475.26 966.84 479.06 846.81 639.47 835.02 704.43 980.76 706.79
00000699 00000042 704.08 205.13 459.07 634.88 770.16 477.73 963.44 478.68 843.95 639.67 832.80 706.83 978.35 706.29
00000700 00000043 698.47 209.11 461.27 630.52 766.39 479.15 958.03 479.25 840.62 640.45 831.62 706.81 975.27 705.41
00000701 00000044 699.08 220.43 453.23 619.64 764.65 482.43 944.72 484.92 833.05 634.52 833.14 711.05 971.53 709.78
00000702 00000045 695.00 224.30 454.97 616.34 762.26 481.40 943.11 482.95 832.20 633.47 831.66 710.38 969.12 708.61
00000703 00000046 691.84 224.37 456.95 611.09 759.53 480.54 943.34 481.74 832.15 633.36 829.67 709.23 967.81 707.32
00000704 00000047 692.47 216.66 456.01 614.68 759.61 480.39 943.43 483.52 832.08 632.86 827.54 709.05 966.14 708.56
00000705 00000048 695.33 213.57 457.77 624.91 759.50 471.32 945.99 476.42 829.75 638.58 824.22 703.63 959.60 707.51
00000706 00000049 692.98 213.39 457.28 619.85 760.79 479.03 947.80 483.34 833.88 634.14 827.71 710.08 966.75 710.70
00000707 00000050 693.74 213.54 457.50 625.89 762.02 479.35 949.56 484.32 835.45 635.48 828.25 710.80 968.13 711.97
00000708 00000051 693.86 213.14 456.02 621.04 762.54 479.98 950.27 483.63 837.18 634.50 828.10 710.57 968.37 710.67
00000709 00000052 698.22 212.05 454.87 623.14 760.16 472.45 951.16 476.30 834.51 639.59 824.61 706.31 959.85 709.58
00000710 00000053 694.28 209.40 459.32 625.99 760.45 470.83 950.12 474.65 832.08 637.74 825.69 706.08 958.83 709.26
00000711 00000054 693.39 203.13 458.51 632.32 759.83 469.79 947.90 470.98 830.90 633.45 827.06 705.92 960.47 706.81
00000712 00000055 689.86 194.11 461.34 641.27 757.03 468.03 943.95 468.63 826.13 631.42 825.51 703.84 961.09 703.65
00000713 00000056 689.26 195.07 459.92 641.40 756.24 466.03 940.70 465.37 824.13 628.15 824.01 700.64 959.97 699.49
00000714 00000057 688.99 194.54 457.78 640.69 755.76 463.99 939.26 462.99 824.23 625.75 823.50 699.07 958.76 697.65
00000715 00000058 690.99 190.83 455.42 642.20 756.29 465.76 939.45 463.57 825.61 625.53 824.78 699.58 959.51 697.07
00000716 00000059 691.63 190.08 456.17 641.94 756.54 468.33 938.46 465.35 825.79 627.24 825.19 701.73 959.41 698.43
00000717 00000060 690.95 193.89 455.71 636.39 756.13 466.91 939.83 464.59 827.04 626.89 825.98 702.06 958.52 699.53
00000718 00000061 691.11 189.16 455.28 639.62 754.90 465.85 937.46 463.74 825.09 627.26 825.84 701.51 957.30 698.93
00000719 00000062 688.67 186.52 456.70 641.27 753.64 465.14 935.15 461.44 823.78 625.91 826.32 699.73 956.59 695.72
00000720 00000063 689.17 185.24 454.17 644.15 753.61 465.08 933.86 461.43 823.32 625.33 826.82 700.33 956.15 696.28
00000721 00000064 685.50 195.39 449.79 634.56 750.43 473.00 933.97 465.21 828.41 620.58 826.67 705.75 964.79 696.36
00000722 00000065 683.51 203.63 452.74 624.19 751.79 473.58 934.63 465.30 830.81 621.87 830.83 703.89 967.76 694.01
00000723 00000066 683.99 208.29 452.41 618.30 752.50 474.65 934.78 465.49 832.17 622.67 833.23 701.99 971.16 691.28
00000724 00000067 684.77 208.10 450.70 619.81 752.91 475.13 934.30 465.81 832.00 622.43 833.09 701.83 971.34 690.92
00000725 00000068 685.22 207.96 451.44 622.21 753.98 477.03 934.97 468.11 832.40 623.40 833.58 703.31 971.81 692.71
00000726 00000069 688.44 211.87 448.74 616.95 756.93 481.03 935.14 469.81 834.80 623.43 836.53 705.67 973.14 693.26
00000727 00000070 695.82 209.86 442.35 617.64 764.06 485.03 937.69 474.61 837.28 623.67 839.49 706.33 974.46 694.57
00000728 00000071 708.22 200.53 439.32 633.95 768.13 478.82 943.51 472.88 837.76 632.24 838.64 706.92 969.46 701.54
00000729 00000072 713.24 208.05 436.49 626.86 772.97 479.45 947.75 474.91 842.86 633.00 842.65 705.67 972.99 701.55
00000730 00000073 709.62 217.79 445.42 611.70 777.35 483.98 958.32 478.18 850.62 628.36 848.89 701.53 983.90 695.00
00000731 00000074 720.68 221.83 437.40 608.57 785.52 485.80 958.19 480.86 853.21 623.90 855.39 699.63 986.13 693.90
00000732 00000075 724.23 218.30 439.47 613.52 787.79 483.81 959.30 479.91 853.19 625.16 857.67 699.65 988.30 694.90
00000733 00000076 727.02 219.72 435.53 610.05 788.95 487.97 957.93 481.98 854.69 626.96 864.40 701.43 992.14 694.86
00000734 00000077 726.55 218.86 436.52 610.97 789.09 493.64 954.40 484.63 853.62 631.12 869.87 705.54 995.26 696.33
00000735 00000078 724.78 219.57 438.83 612.05 789.39 502.16 953.43 492.19 854.10 638.50 873.71 712.46 998.15 701.87
00000736 00000079 735.31 242.33 434.41 595.65 801.57 513.28 958.67 498.66 861.78 646.59 885.45 721.53 1007.51 707.39
00000737 00000080 735.34 252.25 436.29 593.90 804.90 519.36 958.36 505.56 864.57 657.80 896.97 726.05 1014.11 712.80
00000738 00000081 734.19 254.77 444.73 593.07 809.37 522.70 959.32 506.39 870.00 668.59 913.36 734.11 1024.55 718.61
00000739 00000082 738.46 255.30 443.26 600.65 812.81 520.59 957.24 506.80 872.14 673.62 923.44 734.98 1032.09 720.90
00000740 00000083 742.37 252.00 440.65 603.52 813.70 516.61 956.29 502.54 869.48 667.34 921.24 734.29 1028.10 719.98
00000741 00000084 743.84 248.18 440.60 608.02 814.45 514.94 953.73 500.11 868.04 662.87 921.36 733.61 1025.55 718.83
00000742 00000085 745.94 247.79 440.21 607.74 815.86 512.31 952.97 500.60 866.15 663.17 921.92 732.21 1024.18 719.85
00000743 00000086 745.40 251.41 441.91 596.07 815.69 511.88 953.96 502.83 865.66 665.49 921.19 733.17 1022.54 722.84
00000744 00000087 747.87 253.37 435.06 596.59 814.76 514.16 948.09 507.56 859.64 668.71 918.89 736.14 1013.96 728.02
00000745 00000088 745.09 255.68 436.16 591.18 814.99 516.93 943.48 513.76 858.22 672.81 920.57 737.91 1010.91 732.54
00000746 00000089 745.05 256.03 434.61 595.85 815.19 518.26 939.16 516.92 855.01 674.97 920.31 738.59 1006.93 734.72
00000747 00000090 744.73 256.96 433.67 599.04 813.70 519.55 938.16 516.71 854.60 675.41 919.78 739.11 1008.08 734.06
00000748 00000091 746.15 258.30 430.07 597.77 812.47 519.04 937.60 515.05 853.12 674.55 918.99 738.96 1008.41 732.98
00000749 00000092 744.68 255.63 432.61 602.54 809.94 518.47 936.99 512.41 851.21 672.64 917.44 737.83 1009.13 730.12
00000750 00000093 743.55 257.94 429.57 603.95 808.52 519.85 935.84 511.78 850.15 671.95 914.38 739.15 1007.38 730.06
00000751 00000094 743.05 257.25 430.69 607.33 808.72 521.49 936.60 513.56 849.40 672.55 913.79 740.15 1007.92 731.10
00000752 00000095 744.10 256.21 431.55 608.06 808.48 522.72 938.74 513.89 850.19 674.86 914.20 741.28 1010.66 731.56
00000753 00000096 746.07 254.38 427.98 605.71 809.81 521.12 942.65 513.52 853.54 673.37 912.83 738.92 1011.33 730.32
00000754 00000097 748.32 249.65 427.30 605.91 810.32 519.97 945.72 511.00 857.04 671.95 912.85 737.87 1012.22 728.16
00000755 00000098 744.74 249.38 432.53 605.60 809.26 521.17 944.41 511.44 856.39 671.57 911.93 738.83 1009.15 728.51
00000756 00000099 738.62 253.23 439.81 604.53 807.23 521.99 940.57 511.81 853.13 672.62 912.07 738.62 1007.39 728.07
00000757 00000100 736.90 251.17 437.82 609.52 805.29 521.90 938.04 512.22 850.99 672.30 910.38 736.97 1006.84 726.73
00000758 00000101 735.86 243.80 435.63 615.81 804.70 523.32 937.51 511.83 852.08 670.12 908.34 733.65 1006.96 721.78
00000759 00000102 733.75 245.08 434.57 614.54 800.99 523.28 932.97 511.63 848.04 669.00 906.55 730.44 1005.94 718.44
00000760 00000103 729.22 246.38 437.21 613.28 797.99 523.40 932.53 511.48 846.76 669.84 901.17 731.43 1001.92 719.39
00000761 00000104 726.74 243.29 434.57 615.54 796.45 525.56 932.52 512.64 847.26 670.69 897.71 730.47 999.48 717.58
00000762 00000105 724.14 240.54 434.79 621.12 794.50 526.45 931.16 512.56 845.72 672.08 896.20 732.47 998.60 718.84
00000763 00000106 721.16 245.15 435.10 618.97 792.33 526.24 930.89 512.82 844.30 672.32 892.97 732.06 996.73 718.82
00000764 00000107 720.03 248.26 435.45 616.05 790.94 526.73 930.32 513.12 843.22 672.53 891.93 732.14 996.10 718.73
00000765 00000108 717.17 244.15 435.99 618.69 789.83 528.28 930.66 511.28 844.83 671.43 889.38 732.52 995.83 716.42
00000766 00000109 715.96 236.20 435.81 622.87 788.31 525.78 930.68 507.11 844.46 667.01 885.65 730.36 994.64 712.86
00000767 00000110 713.60 235.45 437.19 621.59 786.38 522.74 930.35 503.47 843.96 662.78 883.22 729.18 993.83 711.16
00000768 00000111 711.31 236.78 436.64 620.89 784.36 523.81 927.09 501.30 842.69 660.05 883.61 729.97 992.61 709.02
00000769 00000112 707.07 240.13 438.34 620.00 780.99 525.45 922.69 499.58 839.84 659.17 883.78 732.90 990.82 709.06
00000770 00000113 695.69 245.25 440.62 612.32 772.34 526.58 917.76 500.39 837.48 659.64 879.10 739.23 991.56 714.03
00000771 00000114 687.43 240.75 447.00 619.79 765.69 530.01 915.70 503.51 835.92 666.39 873.62 744.53 989.50 719.41
00000772 00000115 683.36 246.30 445.76 613.47 758.60 530.02 910.61 506.62 830.08 673.65 867.45 744.90 984.34 723.03
00000773 00000116 680.44 249.04 443.03 611.01 754.12 530.30 905.38 509.15 824.72 676.47 863.98 745.75 978.32 725.89
00000774 00000117 676.89 246.58 441.90 615.05 749.81 526.28 902.29 506.83 818.99 674.50 856.14 742.39 974.34 723.65
00000775 00000118 673.25 238.85 441.36 618.99 747.13 524.56 898.95 500.90 815.40 668.60 850.37 741.23 967.37 719.46
00000776 00000119 669.29 230.01 437.89 622.99 743.80 521.93 888.91 497.27 805.98 654.17 840.92 731.10 954.58 708.64
00000777 00000120 663.14 224.48 438.22 625.59 734.67 517.05 879.84 489.88 795.94 643.83 830.60 720.81 949.45 696.03
00000778 00000121 647.62 212.04 447.90 634.99 726.68 507.50 869.91 482.03 787.97 635.90 824.24 710.94 942.40 686.40
00000779 00000122 641.08 206.96 445.89 637.41 717.91 502.73 865.77 473.20 783.03 633.62 818.16 710.38 939.01 682.17
00000780 00000123 630.23 215.64 447.88 627.05 707.77 507.00 855.15 468.96 776.59 631.43 816.70 718.18 933.78 682.37
00000781 00000124 625.86 224.09 448.20 620.48 704.79 517.13 854.37 476.99 779.43 637.77 816.68 725.03 932.76 688.00
00000782 00000125 623.12 233.79 449.07 622.09 705.16 535.00 856.53 493.96 780.00 656.17 817.50 740.61 933.56 703.18
00000783 00000126 629.30 246.74 449.78 619.57 715.26 538.32 866.02 509.63 782.66 674.11 820.27 744.54 934.44 718.34
00000784 00000127 629.98 250.73 457.10 617.32 717.48 541.08 868.24 515.84 783.04 681.73 823.40 746.32 935.39 723.18
00000785 00000128 637.08 258.32 453.33 607.03 719.88 543.27 878.93 517.28 787.63 682.65 819.66 749.62 936.56 726.62
00000786 00000129 651.00 264.46 446.31 601.35 726.02 546.30 887.25 523.50 793.10 684.09 820.81 754.79 938.15 734.57
00000787 DELETE   660.45 253.55 441.78 617.71 734.23 553.73 897.08 532.42 803.88 690.61 824.72 761.14 946.30 741.85
00000788 00000131 667.72 247.81 440.86 636.86 741.41 555.34 903.84 536.20 812.24 696.49 830.57 768.12 952.89 750.33
00000789 00000132 674.60 256.61 441.79 627.93 745.22 552.08 911.25 531.61 816.74 694.86 835.87 767.42 962.53 748.67
00000790 00000133 676.66 256.10 445.24 628.62 746.18 547.03 917.34 528.97 820.26 695.95 836.66 764.99 969.84 748.05
00000791 00000134 679.06 246.41 445.92 636.05 748.99 544.17 922.03 527.88 825.33 691.29 835.97 763.32 970.82 747.73
00000792 00000135 683.00 242.85 445.58 636.85 751.91 540.79 925.15 525.34 829.51 687.19 838.22 760.86 973.44 745.69
00000793 00000136 683.83 245.85 447.27 632.02 754.34 539.64 927.74 522.00 833.59 682.22 840.05 759.02 975.58 742.20
00000794 00000137 684.02 247.86 452.41 630.67 755.68 536.68 932.18 516.99 837.50 679.37 842.14 759.35 979.26 740.86
00000795 00000138 686.79 239.77 451.14 639.15 758.97 534.69 936.04 515.64 840.91 675.49 841.75 758.21 980.31 739.95
00000796 00000139 686.52 246.45 454.67 631.32 763.42 531.35 941.23 510.51 847.50 670.83 845.50 754.55 984.43 735.04
00000797 00000140 689.26 235.19 457.84 640.96 767.44 526.56 943.56 508.20 848.49 667.94 851.62 751.31 987.76 733.32
00000798 00000141 693.27 217.19 458.16 654.73 769.10 517.07 947.87 503.62 842.60 673.82 848.85 737.03 985.57 724.19
00000799 00000142 700.28 220.77 453.29 646.63 772.30 513.55 953.51 498.48 848.40 665.07 848.23 730.12 991.18 715.95
00000800 00000143 700.53 229.76 452.16 633.20 776.93 514.70 953.84 497.21 855.52 652.69 855.43 733.10 994.69 715.22
00000801 00000144 702.58 227.99 459.65 621.84 772.14 503.25 959.84 489.54 853.31 652.10 849.03 720.09 994.25 707.52
00000802 00000145 703.77 217.90 460.80 629.56 775.11 494.61 962.38 484.49 854.28 643.97 850.25 713.48 994.92 703.86
00000803 00000146 709.66 202.85 459.34 644.24 776.88 485.48 960.90 471.03 852.76 634.86 853.98 708.14 1000.63 695.03
00000804 00000147 712.64 194.21 456.49 649.76 777.35 480.27 960.31 462.50 852.56 629.06 854.60 704.44 1001.79 688.46
00000805 00000148 725.61 180.19 440.92 663.04 783.99 478.65 956.18 468.24 848.42 627.83 857.00 702.49 995.51 692.31
00000806 00000149 721.77 179.14 454.51 656.10 782.34 472.33 959.70 461.10 845.38 621.37 853.00 697.59 994.75 686.49
00000807 00000150 737.77 173.36 432.71 659.65 790.43 474.26 956.31 466.05 850.40 619.57 864.36 702.76 989.81 694.41
00000808 00000151 741.24 179.24 431.41 651.02 793.64 474.69 957.70 467.43 853.12 620.58 868.75 707.48 985.82 700.17
00000809 00000152 734.41 182.71 453.27 646.33 794.11 471.73 961.34 461.48 850.66 616.45 869.17 705.88 986.60 696.00
00000810 00000153 737.59 178.80 453.04 653.87 796.57 473.09 963.65 461.53 850.08 615.22 869.04 703.41 991.42 692.41
00000811 00000154 739.49 184.90 453.34 650.86 798.89 476.06 966.44 462.34 852.71 618.52 874.00 704.88 998.54 691.96
00000812 00000155 741.90 179.82 452.11 655.19 801.96 478.95 968.20 464.90 855.20 622.28 876.02 706.71 999.87 693.49
00000813 00000156 742.89 187.49 451.77 644.66 800.99 483.64 969.92 469.73 856.22 625.11 873.55 707.87 999.76 694.74
00000814 00000157 740.69 197.28 445.97 639.89 797.14 482.79 968.66 473.08 857.87 633.39 875.13 708.68 1006.93 699.52
00000815 00000158 741.46 202.96 446.17 637.89 797.62 485.94 969.08 478.63 856.91 640.65 876.79 711.88 1010.50 704.51
00000816 00000159 742.63 210.63 448.10 638.53 800.73 495.16 966.30 486.94 856.77 646.60 880.96 715.48 1012.35 707.11
00000817 00000160 744.00 212.48 444.90 637.93 800.88 499.14 964.74 490.71 856.55 650.90 880.25 720.87 1008.38 712.47
00000818 00000161 743.40 212.88 445.01 640.87 801.10 499.43 965.50 492.86 855.68 653.34 878.28 721.54 1008.00 714.72
00000819 00000162 741.65 213.53 445.83 642.42 801.43 499.07 964.31 493.28 855.58 652.07 879.69 721.11 1007.47 714.75
00000820 00000163 740.64 213.56 443.44 640.53 799.84 497.84 962.28 491.87 854.42 649.02 877.31 718.04 1005.24 711.52
00000821 00000164 738.83 213.50 442.42 636.91 798.26 494.23 962.09 490.36 852.94 644.89 874.22 716.12 999.90 711.68
00000822 00000165 737.40 209.52 440.34 637.12 796.50 491.46 959.96 487.78 851.86 641.18 872.77 714.25 996.88 709.98
00000823 00000166 735.43 209.17 440.32 635.45 794.67 489.20 958.32 485.97 849.89 637.08 870.58 711.22 994.01 707.24
00000824 00000167 731.57 209.53 439.50 634.74 790.10 485.59 955.49 483.35 846.55 636.32 867.06 709.35 991.95 706.13
00000825 00000168 727.42 213.70 441.90 626.58 784.12 485.16 952.19 479.22 842.19 634.22 863.78 710.71 988.19 704.46
00000826 00000169 718.81 207.73 440.26 635.80 780.89 483.90 942.21 475.89 835.19 634.57 856.62 714.94 972.32 706.15
