Video ID: 	uOsiIVKw03I
H: 	1080
W: 	1920
FPS: 	59.94006309148265

FRAME INDEX X0 Y0 W H [Landmarks (5 Points)]

00001360 00000000 866.63 224.08 372.58 502.69 1039.58 392.51 1201.37 395.45 1180.05 492.23 1049.49 578.77 1183.09 583.05
00001361 00000001 866.61 224.94 373.30 499.06 1042.91 388.18 1204.95 394.58 1183.26 490.44 1058.18 578.69 1186.05 584.94
00001362 00000002 869.22 225.89 372.96 496.12 1048.91 384.74 1210.55 397.01 1185.82 491.52 1062.23 578.06 1185.83 588.90
00001363 00000003 869.82 226.54 376.24 495.35 1052.25 383.78 1214.70 399.54 1187.23 492.15 1063.62 578.32 1186.42 591.95
00001364 00000004 873.97 226.14 373.08 494.46 1055.78 383.59 1217.93 402.05 1188.84 490.70 1066.20 578.72 1188.15 594.68
00001365 00000005 877.77 215.77 370.31 501.36 1062.25 383.04 1226.29 407.98 1191.35 488.49 1066.90 578.10 1189.18 599.37
00001366 00000006 881.92 216.63 372.29 501.40 1066.66 381.88 1231.81 409.96 1195.03 489.86 1067.58 577.42 1191.61 601.56
00001367 00000007 873.07 208.44 383.95 511.95 1072.29 380.46 1229.62 405.97 1195.92 495.40 1069.37 571.98 1187.56 593.67
00001368 00000008 874.11 212.98 387.27 509.05 1079.65 384.18 1232.39 411.18 1201.16 500.85 1072.77 572.96 1186.58 595.45
00001369 DELETE   877.09 211.15 385.02 509.08 1087.05 385.20 1235.61 417.33 1206.53 502.01 1075.69 571.90 1186.03 598.47
00001370 00000010 878.41 212.92 386.71 507.78 1090.69 386.36 1237.74 419.73 1209.18 503.91 1076.78 571.58 1186.21 599.26
00001371 00000011 879.13 214.27 391.20 511.59 1093.02 386.37 1240.65 421.63 1211.15 507.06 1075.00 572.08 1187.05 601.65
00001372 00000012 879.25 213.94 394.04 513.67 1094.13 387.38 1240.71 420.36 1212.80 509.88 1074.90 573.55 1186.42 601.54
00001373 00000013 879.57 213.14 394.10 516.74 1093.71 388.77 1240.37 421.91 1213.23 510.79 1073.88 574.89 1186.27 603.17
00001374 00000014 880.20 215.33 394.11 512.56 1092.12 390.35 1241.21 421.85 1213.00 510.22 1073.87 574.07 1188.69 601.01
00001375 00000015 880.05 216.71 395.56 511.18 1091.33 390.40 1240.97 418.56 1212.73 511.47 1073.82 572.68 1190.55 597.08
00001376 00000016 880.55 218.71 397.27 505.87 1089.79 390.98 1241.49 416.31 1209.61 510.92 1073.32 570.25 1191.84 592.15
00001377 00000017 879.78 218.24 397.73 504.60 1087.83 390.40 1240.67 412.20 1210.05 509.57 1074.11 569.59 1194.56 588.53
00001378 00000018 878.94 217.66 398.09 504.51 1087.11 389.15 1241.51 409.62 1212.21 509.29 1073.97 568.50 1197.00 586.38
00001379 00000019 881.83 212.77 393.64 508.11 1086.43 387.96 1242.24 407.14 1213.80 503.97 1075.35 566.42 1201.08 583.48
00001380 00000020 885.80 211.20 389.48 508.44 1088.16 384.69 1243.06 403.02 1216.45 500.74 1078.20 564.47 1204.35 581.11
00001381 00000021 890.39 211.19 384.83 506.92 1090.02 381.42 1244.53 401.21 1219.08 497.17 1080.47 562.09 1206.25 580.13
00001382 00000022 891.98 212.09 383.84 505.17 1091.97 381.02 1245.85 399.97 1222.06 498.14 1083.11 561.63 1208.89 579.05
00001383 00000023 893.71 210.68 381.99 506.02 1092.47 380.99 1246.32 400.33 1222.54 495.00 1086.17 561.88 1210.54 579.40
00001384 00000024 894.58 209.01 382.61 507.89 1092.67 382.00 1246.49 400.28 1222.23 494.78 1086.22 562.47 1210.92 579.22
00001385 00000025 895.14 209.73 382.36 507.69 1092.46 383.37 1246.48 401.09 1221.40 494.75 1086.96 563.17 1211.93 579.44
00001386 00000026 894.72 212.04 383.08 505.82 1092.80 384.41 1246.72 402.82 1221.67 495.87 1087.29 563.99 1211.60 580.71
00001387 00000027 892.71 212.85 386.33 505.83 1091.78 385.71 1246.51 402.42 1219.34 498.86 1087.01 566.11 1210.67 581.17
00001388 00000028 892.43 212.43 386.24 505.49 1089.57 385.61 1245.04 400.57 1216.57 499.65 1085.63 567.21 1209.02 580.80
00001389 00000029 889.70 212.52 387.80 505.08 1086.84 385.07 1242.77 398.20 1215.30 498.57 1085.42 567.73 1208.69 579.59
00001390 00000030 887.92 208.89 384.87 507.29 1082.19 381.67 1239.80 396.01 1212.16 495.37 1082.39 566.67 1207.80 579.43
00001391 00000031 888.51 206.07 381.29 507.31 1078.03 379.16 1237.83 391.39 1207.35 493.29 1078.76 565.12 1205.71 576.20
00001392 00000032 888.73 200.75 377.69 510.13 1072.02 375.31 1234.85 386.78 1202.99 488.74 1074.28 563.65 1203.72 574.13
00001393 00000033 899.17 196.10 366.17 511.69 1072.69 376.42 1239.61 391.19 1204.38 483.26 1066.59 560.73 1210.17 576.32
00001394 00000034 891.20 202.23 368.68 501.99 1063.02 377.69 1228.87 382.85 1199.26 483.09 1062.61 561.09 1204.16 568.91
00001395 00000035 879.26 198.51 373.21 503.25 1053.65 377.80 1219.39 376.75 1196.66 479.18 1059.34 561.54 1199.16 563.77
00001396 00000036 866.61 194.44 380.88 505.54 1043.59 376.61 1208.53 367.10 1192.41 475.83 1054.37 561.77 1193.26 556.63
00001397 00000037 860.66 183.31 383.00 513.68 1031.04 376.51 1200.99 356.44 1183.54 472.57 1054.24 563.17 1195.61 548.49
00001398 DELETE   856.74 186.73 383.73 506.98 1018.18 373.17 1190.88 350.33 1168.68 466.92 1053.46 564.21 1191.19 546.23
00001399 DELETE   848.03 188.96 386.55 500.69 1009.63 375.86 1181.60 346.70 1160.00 466.80 1055.61 567.35 1186.49 543.23
00001400 00000040 844.86 182.06 380.58 510.33 1005.50 376.57 1176.34 344.02 1158.58 466.63 1057.70 573.51 1182.68 546.11
00001401 00000041 845.66 177.95 376.84 517.81 1002.00 378.56 1174.00 342.82 1156.41 467.83 1058.65 578.54 1181.80 548.33
00001402 00000042 847.47 183.74 375.88 513.94 1002.99 379.12 1174.61 345.25 1155.93 469.94 1061.73 581.57 1181.53 552.55
00001403 00000043 848.92 181.90 375.75 519.93 1008.82 377.10 1178.98 348.01 1158.64 471.30 1068.65 584.21 1182.18 558.30
00001404 DELETE   853.01 183.66 373.14 524.19 1015.04 378.12 1182.96 354.24 1161.17 474.96 1071.19 587.42 1183.07 566.32
00001405 DELETE   858.91 185.29 366.86 523.36 1025.75 380.91 1187.83 360.77 1173.11 476.58 1077.20 586.91 1186.75 569.54
00001406 00000046 864.74 187.61 367.38 523.82 1034.27 386.30 1195.42 365.83 1184.71 480.75 1079.21 589.11 1192.63 572.04
00001407 DELETE   869.33 190.54 367.82 521.57 1041.09 386.37 1205.92 371.91 1193.96 482.34 1084.84 590.22 1199.90 577.79
00001408 00000048 874.16 205.72 370.74 506.75 1048.80 383.54 1213.10 375.69 1198.46 484.27 1092.51 591.18 1202.31 584.00
00001409 00000049 881.58 200.17 365.90 511.44 1057.89 381.62 1222.92 379.35 1202.30 485.57 1094.24 590.13 1206.34 588.04
00001410 DELETE   886.49 199.33 366.14 513.25 1066.67 381.47 1233.12 383.50 1207.78 486.88 1095.25 590.14 1210.96 592.07
00001411 00000051 891.44 202.84 365.65 512.73 1077.08 381.21 1242.65 387.64 1218.47 491.12 1099.66 587.93 1215.96 594.05
00001412 00000052 895.51 205.24 364.65 515.00 1085.44 378.33 1247.37 392.04 1224.56 493.70 1098.16 585.19 1215.65 597.85
00001413 00000053 881.11 193.71 373.63 528.44 1088.99 378.89 1234.45 393.65 1226.42 493.95 1101.48 578.76 1205.97 591.29
00001414 00000054 883.55 190.69 371.18 532.94 1094.42 376.94 1233.72 399.14 1230.57 491.18 1101.56 575.65 1202.27 594.38
00001415 00000055 884.68 192.79 372.60 529.95 1100.52 376.67 1234.30 402.67 1233.34 490.80 1103.40 573.43 1200.85 595.24
00001416 00000056 884.34 196.60 375.61 526.52 1103.19 378.91 1236.06 407.93 1234.21 492.20 1102.68 570.82 1200.68 595.28
00001417 00000057 885.99 202.26 379.11 521.48 1107.42 378.43 1237.35 408.96 1238.13 492.63 1104.20 568.70 1200.64 594.44
00001418 00000058 888.77 202.27 380.73 522.16 1110.91 379.88 1240.81 412.76 1238.25 493.28 1103.28 567.36 1200.20 595.11
00001419 00000059 889.51 206.49 382.34 519.65 1112.32 380.18 1242.28 411.58 1240.13 495.37 1103.16 566.72 1201.62 593.58
00001420 00000060 890.67 204.38 382.61 523.89 1114.41 381.86 1243.92 413.04 1240.58 497.75 1102.27 567.64 1201.19 594.50
00001421 00000061 891.99 210.73 382.66 518.98 1114.96 383.82 1242.43 413.25 1240.44 500.94 1101.78 568.77 1200.13 594.54
00001422 00000062 893.40 214.22 382.09 517.65 1114.66 385.46 1242.21 413.89 1242.73 501.79 1101.35 570.54 1200.61 595.65
00001423 00000063 893.59 214.37 383.30 515.13 1117.15 387.80 1243.99 412.91 1246.27 503.76 1102.22 569.25 1202.02 592.10
00001424 00000064 896.81 216.31 382.43 512.84 1118.71 389.71 1246.16 413.21 1247.67 503.87 1102.88 569.14 1204.51 590.86
00001425 00000065 899.65 210.63 379.12 515.05 1119.82 389.89 1250.19 414.83 1248.42 501.51 1103.38 566.80 1207.74 589.72
00001426 00000066 903.75 221.02 378.26 505.92 1123.62 387.54 1252.86 412.01 1251.26 502.15 1106.41 564.79 1212.11 587.20
00001427 00000067 907.74 219.33 375.19 508.24 1127.76 384.16 1256.43 413.25 1253.27 499.80 1108.63 563.05 1214.84 588.96
00001428 DELETE   910.40 218.10 374.00 511.20 1131.09 383.78 1259.82 416.00 1256.63 497.23 1109.49 561.06 1218.22 589.63
00001429 00000069 917.43 218.47 372.20 507.83 1135.53 382.86 1267.38 417.18 1260.55 493.18 1114.11 560.33 1225.29 590.95
00001430 DELETE   923.00 214.47 371.03 508.59 1139.63 381.01 1273.50 417.73 1264.87 488.53 1117.65 557.98 1230.86 591.14
00001431 00000071 931.73 217.91 369.79 502.14 1144.17 379.45 1279.10 415.03 1267.65 489.03 1117.79 555.93 1234.82 589.04
00001432 00000072 934.60 210.86 369.00 506.83 1151.93 362.21 1288.36 401.69 1279.59 496.71 1119.32 558.42 1238.75 593.52
00001433 00000073 937.02 208.59 369.22 509.12 1151.43 365.20 1289.85 402.24 1280.75 495.48 1122.50 558.63 1242.59 591.51
00001434 00000074 935.95 211.97 373.00 507.95 1154.79 367.20 1291.18 403.49 1283.36 497.85 1126.51 559.57 1243.89 591.81
00001435 00000075 937.07 213.39 371.57 508.03 1157.13 369.04 1292.85 404.02 1288.37 498.77 1130.67 559.45 1248.30 590.74
00001436 00000076 937.77 215.88 370.11 506.16 1160.03 371.73 1292.22 406.98 1292.10 498.51 1134.65 559.01 1249.49 590.57
00001437 00000077 939.00 218.39 369.37 502.34 1161.33 375.46 1295.35 409.96 1293.59 499.11 1138.54 559.87 1253.81 590.41
00001438 00000078 940.44 216.38 369.29 503.52 1163.45 377.06 1296.87 409.96 1295.56 500.31 1141.33 559.95 1255.68 589.05
00001439 00000079 941.85 220.03 369.44 499.14 1163.82 378.85 1298.19 411.47 1294.23 500.11 1144.30 559.28 1259.01 587.83
00001440 DELETE   942.80 218.17 369.85 501.01 1164.36 381.31 1298.72 413.35 1294.04 500.84 1146.25 560.34 1260.77 588.17
00001441 00000081 943.68 218.07 369.57 500.87 1165.57 382.11 1298.82 414.73 1294.94 501.34 1146.75 560.01 1260.56 588.28
00001442 00000082 944.08 218.90 369.09 499.97 1165.25 382.59 1298.51 414.70 1295.04 501.37 1146.74 560.21 1260.59 588.11
00001443 00000083 944.40 220.78 368.43 500.66 1166.59 382.64 1298.26 415.19 1296.38 502.53 1146.30 560.82 1259.77 589.39
00001444 00000084 945.47 220.98 368.03 505.88 1168.02 380.67 1297.42 415.88 1298.69 505.26 1142.81 562.32 1254.52 593.69
00001445 00000085 946.21 220.46 367.42 511.53 1171.12 377.95 1295.70 416.52 1299.30 503.95 1142.64 562.25 1249.81 596.70
00001446 00000086 945.61 221.73 368.04 512.33 1171.12 375.50 1295.29 417.37 1300.05 500.28 1146.09 565.23 1250.94 602.06
00001447 00000087 942.74 223.17 370.90 508.63 1170.89 375.95 1297.76 418.74 1300.41 498.77 1149.67 565.76 1255.40 602.78
00001448 00000088 944.05 217.91 370.13 510.81 1171.15 380.82 1298.08 422.39 1301.40 497.75 1153.88 566.80 1258.29 602.34
00001449 00000089 940.53 221.20 378.69 511.16 1169.17 385.01 1301.22 422.42 1301.02 501.94 1156.25 571.97 1264.24 604.14
00001450 00000090 939.58 222.80 381.37 511.52 1169.31 386.63 1302.31 422.88 1301.61 503.19 1158.75 574.05 1267.73 605.10
00001451 00000091 938.85 223.21 383.70 512.09 1168.86 388.83 1302.71 422.04 1301.22 504.81 1160.52 576.68 1269.73 605.26
00001452 00000092 939.38 219.22 385.27 514.84 1169.47 390.03 1304.13 424.82 1298.89 505.28 1160.85 577.76 1268.83 607.35
00001453 00000093 939.76 223.19 386.38 509.78 1166.10 392.15 1305.12 427.81 1291.53 508.58 1154.26 579.12 1265.04 609.29
00001454 00000094 938.94 218.24 385.56 514.31 1164.61 390.94 1303.79 432.52 1288.00 510.91 1146.79 578.86 1256.95 614.01
00001455 00000095 937.84 217.65 388.60 516.89 1163.16 388.72 1304.90 431.83 1283.80 512.69 1141.07 578.88 1253.71 615.30
00001456 00000096 936.80 218.50 389.51 516.89 1159.91 386.57 1302.35 432.38 1279.71 512.07 1136.44 578.31 1250.38 616.90
00001457 00000097 936.52 223.65 390.05 512.60 1156.60 385.04 1302.08 429.00 1276.67 512.27 1133.46 578.13 1250.36 615.34
00001458 00000098 936.76 218.05 390.45 518.15 1152.27 385.79 1300.39 428.89 1274.09 512.47 1131.02 579.78 1250.08 616.33
00001459 00000099 937.17 216.92 389.93 519.67 1149.11 387.88 1298.66 427.72 1270.92 511.84 1129.29 579.86 1250.49 613.86
00001460 00000100 937.00 218.86 390.47 520.33 1147.67 386.95 1297.43 426.02 1270.03 512.70 1125.46 579.37 1248.99 613.12
00001461 00000101 937.22 217.31 389.47 523.42 1146.49 386.44 1296.99 423.21 1270.93 511.85 1126.40 579.40 1251.15 611.49
00001462 00000102 937.51 219.45 391.50 523.57 1146.52 387.28 1296.59 419.79 1273.14 513.81 1127.53 580.54 1253.35 609.49
00001463 00000103 939.05 218.04 390.97 525.06 1148.22 389.56 1298.07 417.69 1278.02 516.44 1130.76 581.90 1256.49 607.32
00001464 00000104 940.29 220.76 389.43 520.39 1154.34 390.36 1301.40 418.61 1285.62 516.82 1137.01 579.69 1260.42 605.15
00001465 00000105 943.60 219.09 386.21 520.87 1160.08 393.11 1304.67 420.26 1292.10 519.70 1142.67 580.95 1262.60 605.52
00001466 00000106 947.23 219.69 387.25 522.26 1166.66 396.63 1305.73 418.45 1297.46 525.67 1146.62 583.30 1262.72 604.00
00001467 00000107 951.93 218.43 381.51 524.39 1172.23 398.94 1305.32 421.00 1303.57 524.81 1152.15 583.00 1263.77 603.98
00001468 00000108 958.83 227.14 378.38 518.64 1177.55 400.46 1308.37 423.00 1308.19 526.90 1155.35 584.17 1266.23 605.60
00001469 00000109 962.16 234.01 379.51 514.97 1180.35 401.11 1312.63 424.57 1311.28 529.24 1159.07 587.24 1270.18 609.43
00001470 00000110 972.53 244.91 373.38 503.16 1192.11 394.95 1327.13 417.86 1321.15 532.85 1157.32 591.64 1275.76 616.33
00001471 00000111 975.99 250.49 378.12 500.18 1197.75 394.58 1331.38 421.00 1322.77 535.65 1162.15 592.67 1277.02 620.18
00001472 00000112 980.83 248.50 374.54 501.17 1200.59 396.89 1333.51 421.33 1323.84 538.00 1164.48 592.89 1278.63 618.75
00001473 00000113 980.76 248.86 376.32 501.56 1203.78 396.87 1333.52 422.01 1327.79 537.73 1168.67 593.68 1278.81 620.12
00001474 00000114 982.96 245.81 379.29 504.49 1205.77 397.16 1337.35 421.96 1330.76 537.88 1173.19 593.77 1283.50 619.98
00001475 00000115 986.69 241.29 379.40 509.25 1208.43 398.52 1342.08 422.01 1334.01 538.42 1175.24 593.27 1287.80 618.53
00001476 00000116 988.81 238.27 380.71 513.97 1209.38 397.54 1344.70 422.96 1337.19 536.24 1176.54 593.33 1291.18 619.87
00001477 00000117 985.08 244.33 387.75 510.63 1200.24 403.82 1344.69 425.52 1330.31 537.13 1171.57 597.39 1296.13 618.42
00001478 00000118 993.78 237.48 378.17 513.46 1212.53 397.67 1349.16 427.51 1339.92 533.27 1178.93 592.43 1295.30 622.24
00001479 00000119 995.52 233.10 377.49 518.42 1214.14 398.62 1350.60 429.13 1341.32 533.37 1180.35 593.03 1296.63 623.37
00001480 00000120 996.79 233.19 376.62 516.94 1216.65 398.37 1352.71 431.66 1342.07 532.94 1181.00 592.62 1296.82 624.91
CROP_BBOX: 705 0 1513 870
