Video ID: 	3rrmvyO506I
H: 	1080
W: 	1920
FPS: 	23.97600876836892

FRAME INDEX X0 Y0 W H [Landmarks (5 Points)]

00005005 00000000 699.94 114.48 380.29 558.00 828.46 388.48 993.58 346.98 950.25 466.97 888.81 565.56 1021.03 530.94
00005006 DELETE   699.08 113.50 380.18 558.58 827.64 381.44 990.34 341.12 949.62 461.90 888.14 561.36 1018.19 528.42
00005007 00000002 696.68 109.03 380.23 572.83 823.53 376.30 985.89 339.26 945.02 455.27 875.16 556.45 1011.11 526.83
00005008 00000003 692.40 102.41 381.88 598.97 816.13 367.98 981.98 333.91 940.19 444.88 863.88 552.11 1016.71 524.50
00005009 00000004 691.09 111.25 389.27 601.95 820.44 354.72 985.97 329.82 939.05 437.63 858.80 541.07 1015.30 518.35
00005010 00000005 689.17 97.95 383.25 604.43 813.57 357.48 985.02 336.03 934.88 448.69 846.44 541.15 1011.88 524.01
00005011 00000006 684.74 97.76 388.39 589.05 811.63 354.12 985.71 338.41 930.92 448.54 844.35 534.88 1005.77 522.30
00005012 DELETE   680.70 97.87 390.97 578.14 807.29 354.59 985.10 341.94 922.95 449.88 836.04 532.69 997.38 522.27
00005013 00000008 672.45 102.42 388.87 577.28 805.07 361.10 982.93 350.36 922.54 461.03 823.36 537.69 988.55 529.94
00005014 00000009 664.67 104.42 385.62 579.38 795.45 368.56 973.02 356.06 912.82 467.19 815.64 546.93 977.55 537.24
00005015 DELETE   656.78 108.98 382.94 580.18 787.90 374.65 963.76 361.25 904.36 471.43 810.23 556.31 966.05 545.19
00005016 DELETE   646.43 109.67 384.62 586.24 778.02 380.86 952.75 364.75 893.13 475.89 801.48 562.51 954.25 548.78
00005017 00000012 633.05 111.11 391.94 586.95 770.20 383.53 946.09 368.65 885.61 479.37 794.72 564.78 946.24 552.03
00005018 DELETE   624.92 114.17 390.02 581.31 765.27 384.00 938.60 372.27 880.20 482.90 789.99 562.70 939.35 552.25
00005019 00000014 617.93 117.93 389.03 573.13 756.32 383.47 929.28 368.52 872.62 481.11 785.40 560.16 933.20 547.70
00005020 DELETE   611.81 117.64 390.22 572.49 749.47 383.54 921.89 366.32 865.61 479.31 779.64 559.11 926.98 545.38
00005021 00000016 608.09 117.64 390.52 571.97 739.95 381.66 916.41 365.18 854.78 477.98 772.51 558.24 923.08 545.18
00005022 00000017 597.47 121.04 387.69 575.33 730.50 389.09 906.03 370.16 846.66 490.65 758.50 572.21 908.40 556.19
00005023 00000018 674.03 141.68 464.61 724.01 859.16 442.86 1061.65 460.85 988.89 582.57 851.67 675.56 1030.92 690.03
00005024 00000019 675.64 143.61 463.17 712.22 860.55 443.83 1063.52 460.33 991.58 582.67 854.58 673.85 1031.61 687.27
00005025 00000020 677.53 142.27 463.53 700.13 861.86 444.33 1066.20 457.31 993.63 582.56 861.52 673.97 1033.07 684.30
00005026 00000021 680.36 141.16 462.32 693.50 862.60 442.32 1066.34 452.46 994.55 579.28 866.52 672.93 1035.06 680.85
00005027 00000022 680.97 139.52 463.54 693.49 864.20 440.55 1067.13 449.07 996.40 576.59 869.08 669.35 1037.99 675.69
00005028 00000023 681.73 138.66 464.57 695.05 866.19 437.85 1068.81 446.91 998.33 575.17 869.55 666.47 1040.27 673.17
00005029 00000024 682.60 139.42 465.60 697.80 868.31 437.82 1072.28 449.36 1000.16 575.28 867.76 664.20 1043.07 672.91
00005030 00000025 692.48 141.38 458.65 701.80 869.72 440.13 1076.36 454.83 993.37 568.58 858.82 658.58 1037.23 671.38
00005031 00000026 694.08 142.24 456.62 721.01 873.66 440.14 1079.67 458.07 1000.06 571.64 853.20 661.53 1041.40 677.29
00005032 00000027 694.99 143.89 457.75 724.35 878.50 439.67 1083.15 460.34 1006.03 574.59 853.83 662.73 1042.21 680.86
00005033 00000028 695.61 145.05 458.34 713.05 878.82 440.01 1083.78 459.98 1007.18 574.45 858.97 662.67 1042.52 680.18
00005034 00000029 698.71 144.72 458.57 697.30 880.45 441.40 1085.93 458.04 1009.03 573.68 873.79 667.64 1042.55 682.24
00005035 00000030 701.04 145.20 456.45 685.94 883.86 443.30 1088.34 456.75 1011.51 574.55 883.92 671.95 1041.62 684.20
00005036 00000031 702.22 145.53 455.13 680.78 884.51 442.91 1089.36 455.79 1013.05 573.59 885.61 671.42 1043.15 683.20
00005037 00000032 700.58 145.55 457.52 681.00 883.38 442.49 1090.25 455.87 1013.00 572.28 882.72 667.33 1046.37 679.25
00005038 00000033 700.23 144.73 455.34 685.08 882.51 446.41 1085.86 459.62 1010.64 571.36 880.77 665.68 1046.25 677.21
00005039 00000034 700.11 144.53 454.15 687.38 880.07 445.64 1086.67 458.82 1009.65 569.51 877.47 664.76 1047.75 676.03
00005040 00000035 699.85 142.80 455.43 689.09 880.03 440.20 1087.05 454.39 1010.11 566.14 878.14 663.30 1047.96 675.48
00005041 00000036 697.07 141.80 456.75 688.97 877.33 433.21 1083.20 449.09 1006.59 562.70 874.88 658.85 1044.58 672.38
00005042 00000037 692.86 138.25 461.36 694.82 874.30 425.49 1080.95 443.86 1001.65 559.51 869.34 654.04 1042.47 669.54
00005043 00000038 684.96 133.67 464.43 699.16 870.35 422.30 1069.56 434.78 998.88 559.42 869.62 655.78 1040.56 665.41
00005044 00000039 682.34 129.95 464.73 702.25 863.75 416.18 1066.69 431.06 991.93 552.87 859.97 649.76 1038.84 661.55
00005045 00000040 679.93 127.43 463.73 705.18 859.03 414.22 1061.88 429.88 985.76 554.34 850.71 646.98 1033.06 659.59
00005046 00000041 677.99 127.07 464.26 706.95 853.93 414.62 1058.63 431.02 980.36 555.82 843.67 646.28 1029.67 659.62
00005047 00000042 677.33 130.17 465.06 706.36 851.85 416.69 1056.92 434.41 976.12 558.48 839.66 647.37 1026.05 661.85
00005048 00000043 677.50 132.45 465.40 708.13 849.60 418.48 1056.64 437.01 973.15 561.40 836.16 649.04 1025.00 664.32
00005049 00000044 677.33 132.14 466.32 710.75 850.06 419.33 1056.50 438.78 971.98 562.87 835.78 649.58 1024.35 665.54
00005050 00000045 679.09 133.33 467.03 710.75 852.78 420.14 1058.71 439.12 973.88 564.24 838.72 650.69 1026.89 666.20
00005051 00000046 681.51 134.00 466.84 710.52 856.75 419.74 1060.86 437.55 977.60 563.37 843.21 649.77 1029.94 664.25
00005052 00000047 682.84 133.67 467.38 707.34 859.07 419.52 1062.91 435.96 979.88 562.46 847.68 649.75 1032.13 663.03
00005053 00000048 685.12 131.23 466.66 705.47 859.91 418.32 1064.54 434.59 981.04 560.51 848.90 647.72 1034.50 660.75
00005054 00000049 686.04 131.06 464.82 700.10 860.49 422.37 1061.75 437.41 979.58 558.51 851.41 645.34 1034.55 656.72
00005055 00000050 690.65 132.61 462.32 696.28 861.44 425.19 1061.65 441.67 977.61 557.67 850.72 642.73 1033.82 655.30
00005056 00000051 694.56 127.44 461.43 700.63 862.76 417.44 1066.73 445.62 973.65 551.72 840.70 634.89 1025.79 657.79
00005057 00000052 696.88 123.75 461.73 706.36 865.93 416.09 1069.60 446.68 975.57 554.01 844.28 639.01 1021.55 664.30
00005058 00000053 698.93 126.03 462.19 704.39 869.55 416.46 1073.97 444.71 979.76 554.95 854.90 650.22 1016.14 674.49
00005059 00000054 702.01 124.74 463.11 715.98 878.66 409.66 1079.92 436.07 991.13 553.35 871.80 660.22 1017.35 683.39
00005060 00000055 707.90 123.40 458.65 715.61 883.89 409.24 1084.18 432.05 1000.47 551.53 883.72 663.68 1028.32 683.83
00005061 00000056 713.00 123.13 454.79 709.71 887.80 409.49 1088.18 427.78 1008.74 549.69 897.21 666.68 1038.19 682.68
00005062 00000057 716.96 125.50 452.65 701.90 889.21 411.45 1090.01 423.64 1013.95 550.31 904.04 666.76 1048.47 677.42
00005063 00000058 719.95 125.31 452.61 689.31 887.76 411.93 1093.86 422.26 1015.52 551.21 904.42 661.47 1058.17 669.95
00005064 00000059 718.67 124.89 454.39 681.76 886.30 419.05 1091.06 429.11 1011.09 549.78 898.98 651.89 1059.10 660.03
00005065 00000060 718.45 123.88 457.54 682.76 880.21 412.84 1091.24 425.41 1007.49 544.06 892.45 646.34 1063.70 656.04
00005066 00000061 719.62 122.26 457.06 682.04 878.78 404.20 1090.93 420.63 1003.48 539.91 887.50 641.78 1058.92 654.88
00005067 00000062 719.50 120.90 457.79 678.78 877.78 399.65 1092.15 419.90 1000.78 535.93 884.37 638.88 1052.77 655.32
00005068 00000063 717.52 119.93 458.27 680.29 876.58 398.03 1090.07 419.42 998.55 535.91 879.57 635.76 1049.55 653.30
00005069 00000064 715.33 118.80 460.12 688.79 875.36 397.65 1088.92 419.35 997.74 535.96 875.53 636.60 1047.80 654.49
00005070 00000065 712.39 120.56 461.88 700.49 875.00 397.87 1087.40 419.49 996.42 536.01 872.19 640.97 1044.53 658.92
00005071 00000066 710.12 121.93 462.19 704.11 870.92 399.18 1084.39 418.96 993.21 536.69 867.12 640.47 1046.88 656.80
00005072 00000067 708.51 123.86 461.73 702.15 868.06 399.67 1081.46 418.37 990.30 536.47 863.90 640.29 1045.09 655.85
00005073 00000068 707.09 123.46 461.61 696.50 865.74 399.42 1079.73 418.46 987.40 535.76 862.48 638.43 1042.57 654.22
00005074 00000069 706.78 125.82 459.91 689.14 864.28 399.59 1077.85 419.05 984.89 534.92 861.47 636.94 1039.50 653.17
00005075 00000070 706.21 125.15 459.19 690.22 863.05 398.92 1075.35 418.44 982.91 534.05 860.87 636.71 1036.20 653.06
00005076 00000071 704.52 123.96 460.17 697.32 862.95 398.72 1072.98 417.49 982.77 534.13 861.23 639.11 1032.21 655.12
00005077 00000072 703.63 125.28 459.49 707.80 864.13 399.28 1071.49 416.84 984.32 533.30 863.32 643.38 1031.51 658.73
00005078 00000073 701.37 125.29 460.16 720.24 860.59 402.29 1069.43 416.37 982.75 537.70 861.93 650.06 1033.29 662.70
00005079 00000074 700.42 127.67 460.26 718.07 853.75 410.50 1065.25 418.09 977.83 543.13 860.20 655.49 1035.89 662.76
00005080 00000075 699.92 125.63 462.37 705.31 847.29 416.47 1063.67 419.15 971.18 550.30 859.89 656.12 1035.60 659.43
00005081 00000076 696.54 127.64 462.94 689.99 836.53 423.51 1052.17 417.49 960.95 552.69 864.11 661.80 1038.04 655.48
00005082 00000077 699.07 126.20 463.56 687.47 831.44 420.80 1051.23 411.67 954.45 546.50 862.14 658.42 1042.08 649.28
00005083 00000078 704.50 113.29 462.72 702.85 833.56 409.62 1057.25 404.48 957.22 539.05 858.01 648.50 1040.02 644.68
00005084 00000079 707.13 114.00 463.25 704.20 838.17 406.53 1057.36 400.73 962.09 533.31 863.39 644.46 1045.69 640.06
00005085 00000080 709.82 113.68 462.40 699.55 841.34 405.70 1061.33 399.93 966.35 532.95 866.73 641.01 1051.67 636.29
00005086 00000081 711.21 116.27 461.92 691.52 844.56 406.79 1063.39 401.13 970.10 532.72 870.83 640.53 1053.01 635.94
00005087 00000082 713.03 120.86 460.57 681.31 845.05 409.05 1065.11 402.11 971.84 533.94 875.51 643.05 1054.96 637.42
00005088 00000083 712.44 121.13 461.35 679.99 846.13 410.40 1064.80 402.04 973.47 534.14 881.18 645.32 1055.08 638.56
00005089 00000084 713.61 122.99 459.70 673.49 849.17 412.28 1063.67 402.39 975.67 534.40 887.53 645.64 1054.35 637.86
00005090 00000085 716.22 126.61 457.73 668.31 851.41 414.62 1063.40 402.27 978.04 534.88 892.70 646.80 1056.11 637.06
00005091 00000086 717.72 129.12 456.64 664.85 853.22 417.23 1063.06 402.61 980.41 536.02 897.25 648.96 1058.12 637.48
00005092 00000087 720.15 131.59 455.51 660.87 854.56 418.03 1063.94 401.68 982.60 535.85 902.55 650.94 1060.83 637.94
00005093 00000088 721.79 130.63 455.34 662.09 856.36 419.50 1064.11 399.99 985.86 535.01 908.66 652.36 1065.84 636.56
00005094 00000089 723.65 129.86 452.97 662.80 856.78 420.04 1063.27 399.41 985.82 534.31 910.30 654.26 1064.25 637.77
00005095 00000090 723.20 128.41 453.69 664.96 855.59 419.43 1063.01 398.62 984.45 534.09 908.68 655.84 1062.56 639.20
00005096 00000091 723.76 125.62 454.30 673.25 855.16 419.98 1063.33 399.55 984.14 537.13 907.64 659.71 1061.63 643.37
00005097 00000092 723.93 125.13 455.51 686.80 856.26 421.66 1063.58 403.65 983.61 542.22 904.69 663.71 1059.33 649.43
00005098 00000093 724.69 127.50 457.83 698.75 858.41 422.69 1066.74 408.08 985.50 545.08 902.41 668.47 1059.20 657.28
00005099 00000094 722.19 130.20 463.34 705.55 859.19 422.28 1072.40 408.77 991.18 545.58 897.09 666.75 1069.37 656.14
00005100 00000095 721.19 131.28 464.63 701.56 859.67 420.84 1072.60 407.80 990.80 541.68 892.68 656.15 1078.48 645.26
00005101 00000096 719.25 131.70 464.85 696.82 857.93 418.36 1070.72 406.01 989.56 538.90 889.67 650.83 1077.45 640.52
00005102 00000097 718.89 130.93 464.99 694.58 856.75 417.99 1071.12 406.41 988.00 537.59 887.56 649.28 1076.02 639.59
00005103 00000098 719.12 130.85 463.48 690.06 855.42 419.35 1070.37 407.56 985.88 539.35 886.19 649.07 1072.87 639.29
00005104 00000099 719.27 130.32 462.78 684.25 855.16 420.93 1070.84 409.34 985.60 540.52 886.61 649.00 1071.95 639.36
00005105 00000100 719.45 130.98 462.74 680.62 855.97 421.60 1071.77 410.09 986.18 541.50 887.15 648.87 1071.84 639.35
00005106 00000101 719.94 133.08 462.11 677.24 856.76 421.51 1072.49 410.43 987.07 541.34 887.71 647.90 1072.81 638.73
00005107 00000102 719.94 133.63 462.10 678.46 857.09 421.07 1072.92 411.02 987.12 541.45 886.71 647.50 1072.71 639.14
00005108 00000103 718.71 132.11 461.39 691.42 856.91 421.39 1071.41 412.93 985.71 543.95 881.26 648.51 1070.72 641.41
00005109 00000104 718.40 131.84 460.36 702.72 856.44 422.45 1071.29 417.08 983.59 548.04 875.02 652.27 1066.58 647.89
00005110 00000105 718.75 132.47 460.37 698.78 854.94 424.61 1074.64 421.20 981.13 553.49 869.56 653.72 1063.88 650.98
00005111 00000106 720.29 133.45 458.38 689.41 856.65 425.03 1079.60 425.74 981.91 555.92 866.69 654.91 1059.23 655.74
00005112 00000107 719.58 135.59 461.28 688.57 861.72 424.55 1086.46 430.98 987.03 558.27 865.99 656.31 1057.92 661.90
00005113 00000108 723.50 136.85 457.74 690.30 870.16 430.94 1089.83 443.04 993.03 563.52 867.80 658.44 1056.10 668.95
00005114 00000109 723.80 137.29 459.43 693.28 879.30 430.64 1095.76 450.14 999.03 566.80 870.13 658.81 1053.25 675.62
00005115 00000110 725.70 138.71 460.37 688.51 883.02 423.36 1103.09 449.12 1003.50 566.33 870.99 661.60 1050.07 683.86
00005116 00000111 724.62 135.97 459.13 688.69 881.99 418.03 1102.26 447.53 1001.60 566.26 868.55 659.93 1047.26 685.11
00005117 00000112 720.42 133.61 458.85 688.44 879.20 413.37 1099.06 444.20 997.59 562.68 865.97 657.81 1041.76 683.96
00005118 00000113 717.79 133.24 458.80 687.65 875.81 411.93 1097.00 441.12 994.16 559.44 864.46 657.12 1039.71 681.90
00005119 00000114 714.70 129.55 460.26 695.48 876.01 411.28 1094.90 440.52 994.35 558.58 863.92 655.36 1039.33 680.12
00005120 00000115 710.67 127.74 460.90 706.24 876.30 414.97 1085.87 444.11 991.05 556.97 860.44 651.31 1032.72 676.22
00005121 00000116 709.21 129.18 462.04 704.07 874.90 412.36 1083.29 442.62 988.66 555.02 857.82 648.25 1030.79 674.29
00005122 00000117 708.32 130.00 464.95 697.24 877.22 407.80 1086.42 442.09 990.16 552.73 856.71 643.67 1030.12 673.00
00005123 00000118 708.62 130.59 467.80 692.78 879.66 404.01 1088.15 441.76 991.99 550.88 855.87 636.78 1032.18 668.83
00005124 00000119 708.05 137.16 470.77 690.98 885.06 403.15 1089.97 444.70 995.87 551.72 855.89 636.75 1030.35 672.24
00005125 00000120 707.79 139.62 474.47 694.21 891.24 403.52 1094.29 449.59 1002.49 553.56 856.81 635.91 1032.92 675.27
00005126 00000121 707.89 143.99 479.41 683.12 898.98 403.22 1099.27 449.62 1011.12 554.31 864.38 633.78 1038.28 673.21
00005127 00000122 706.97 143.29 477.24 674.08 901.07 401.04 1099.43 441.07 1015.97 547.37 877.91 634.07 1044.11 667.92
00005128 00000123 704.18 139.01 473.89 670.94 901.89 399.46 1096.26 436.19 1014.72 542.29 888.93 635.27 1041.61 665.73
00005129 00000124 701.72 135.64 467.63 677.54 896.98 401.69 1086.06 433.71 1008.10 542.97 891.18 643.32 1032.24 669.98
00005130 00000125 697.87 136.61 463.10 686.32 890.07 405.03 1078.93 433.58 1001.45 544.61 886.75 650.98 1022.89 675.59
00005131 00000126 696.55 141.38 458.36 688.14 883.82 408.77 1075.16 436.62 996.38 548.54 880.91 656.10 1015.82 680.84
00005132 00000127 692.25 144.23 460.24 689.72 878.99 410.46 1073.82 440.47 991.55 551.17 871.65 657.68 1010.84 684.27
00005133 00000128 688.85 144.99 462.28 693.15 875.81 410.92 1073.43 443.34 989.06 553.27 861.01 654.35 1012.45 682.54
00005134 00000129 685.77 144.16 464.51 700.13 873.53 409.19 1073.12 444.61 989.78 555.39 849.36 649.43 1016.35 679.81
00005135 00000130 684.69 145.35 465.13 697.93 870.33 409.39 1072.68 444.53 988.28 555.99 844.84 645.78 1019.95 675.78
00005136 00000131 684.49 144.12 465.27 696.68 868.12 409.90 1072.94 443.50 987.69 556.03 844.34 644.07 1023.13 672.64
00005137 00000132 679.95 145.88 467.37 692.54 867.32 417.68 1067.14 439.64 992.53 559.66 854.90 651.63 1031.32 669.85
00005138 00000133 680.10 144.95 466.31 691.73 866.48 418.16 1066.99 438.63 993.07 558.92 856.11 651.03 1033.18 667.99
00005139 00000134 680.79 144.86 465.40 687.75 865.90 418.75 1067.10 437.64 993.14 558.76 858.70 651.57 1034.02 667.14
00005140 00000135 681.76 145.03 464.13 684.34 865.55 419.74 1067.04 437.80 993.05 559.16 859.31 651.26 1033.92 666.22
00005141 00000136 681.99 146.48 463.28 680.37 865.01 421.14 1067.10 438.57 992.52 559.74 860.30 651.38 1034.01 665.81
00005142 00000137 682.36 145.93 463.13 681.54 863.53 422.31 1066.94 439.66 991.45 561.64 858.54 652.03 1034.09 666.38
00005143 00000138 682.07 146.38 463.83 685.12 863.59 423.46 1066.65 441.63 990.82 564.18 858.07 654.94 1032.27 669.90
00005144 00000139 679.54 146.41 465.58 694.77 863.64 423.52 1066.20 443.69 990.59 566.48 854.48 656.63 1031.20 673.21
00005145 00000140 678.13 146.67 466.46 697.21 863.05 423.61 1065.29 445.53 989.71 567.57 850.78 656.34 1028.97 674.52
00005146 00000141 677.94 145.87 466.29 695.03 861.97 423.57 1064.65 445.58 988.78 567.70 849.69 656.64 1027.12 675.05
00005147 00000142 677.31 147.04 466.23 688.42 860.21 424.99 1062.38 445.85 987.08 568.09 852.12 658.92 1024.14 676.43
00005148 00000143 677.77 147.51 465.53 684.90 858.69 426.09 1060.80 446.03 985.01 568.98 854.31 661.43 1022.41 678.06
00005149 00000144 679.35 147.71 465.21 681.71 858.81 427.29 1059.76 446.37 984.36 570.11 861.39 668.05 1018.90 683.82
00005150 00000145 680.83 149.30 463.51 677.17 859.93 427.92 1057.22 445.53 983.30 569.08 870.19 672.19 1016.36 686.65
00005151 00000146 680.45 149.51 463.21 676.07 859.74 426.94 1056.39 443.94 982.82 567.08 871.41 671.66 1016.93 685.64
00005152 00000147 678.91 147.78 464.01 678.71 858.67 423.86 1056.11 442.62 981.95 565.17 865.50 665.90 1017.63 681.11
00005153 00000148 676.23 146.36 463.59 685.42 853.84 420.93 1054.73 440.91 977.58 564.17 853.42 660.74 1017.71 676.99
00005154 00000149 673.67 142.59 461.87 701.20 850.43 419.28 1051.89 439.52 976.11 562.32 843.72 659.89 1017.19 676.62
00005155 00000150 674.32 138.63 458.72 713.24 848.24 420.15 1050.19 438.69 974.71 563.07 840.16 660.95 1018.33 676.19
00005156 00000151 674.71 135.58 459.49 712.31 848.77 421.07 1052.21 434.58 978.87 562.19 844.66 659.21 1026.14 670.09
00005157 00000152 680.06 135.79 457.58 697.13 849.87 422.20 1055.32 428.22 982.02 560.23 856.42 658.00 1034.81 662.20
00005158 00000153 685.47 135.46 457.03 683.73 850.98 422.60 1060.08 423.48 984.68 557.63 865.73 656.58 1042.86 656.34
00005159 00000154 690.98 135.78 456.66 674.63 853.84 418.45 1063.62 420.64 985.65 550.29 871.50 653.00 1044.23 653.72
00005160 00000155 697.23 134.90 454.96 671.01 859.48 412.79 1067.19 417.76 988.69 542.37 874.10 647.32 1044.83 650.35
00005161 00000156 701.58 131.55 456.69 678.78 864.95 407.54 1069.88 416.96 990.94 536.89 876.03 646.30 1042.64 652.93
00005162 00000157 702.85 130.71 455.83 692.03 869.58 402.36 1071.71 426.74 987.89 533.10 861.41 637.98 1030.63 658.67
00005163 00000158 703.19 130.65 456.62 691.94 870.04 400.84 1073.93 427.08 988.03 533.70 861.94 638.62 1029.91 660.92
00005164 00000159 704.77 129.07 455.57 684.99 869.00 398.27 1078.09 422.58 990.79 534.80 866.54 638.99 1034.27 659.45
00005165 00000160 702.36 130.15 454.12 682.23 866.72 405.13 1072.95 413.18 995.73 537.92 882.48 653.78 1043.92 659.26
00005166 00000161 705.83 131.52 453.58 685.86 870.61 401.62 1078.24 420.78 992.82 536.11 874.15 642.66 1037.50 659.10
00005167 00000162 706.05 133.83 452.13 684.27 870.63 405.50 1078.85 421.90 994.05 540.69 875.50 645.38 1039.55 659.61
00005168 00000163 706.50 134.00 453.64 681.97 869.56 406.83 1081.38 423.36 995.79 544.58 874.43 646.84 1043.50 661.01
00005169 00000164 706.83 131.51 454.39 683.57 869.82 407.92 1081.84 425.28 994.47 546.65 873.09 646.99 1040.73 661.91
00005170 00000165 704.77 130.87 456.92 682.49 868.51 407.32 1080.72 426.12 989.67 546.57 869.38 645.42 1034.35 661.79
00005171 00000166 701.87 132.92 460.05 677.27 868.76 406.47 1075.83 427.15 983.46 545.23 867.18 642.46 1023.92 660.68
00005172 00000167 701.21 133.05 461.29 675.91 866.38 404.59 1073.29 426.28 980.06 540.93 865.18 640.37 1020.76 659.32
