Video ID: 	RRwq6ybGW18
H: 	1080
W: 	1920
FPS: 	25.0

FRAME INDEX X0 Y0 W H [Landmarks (5 Points)]

00005006 00000000 536.35 166.08 513.04 748.92 615.80 501.20 839.47 479.58 691.57 606.14 644.63 749.14 825.61 731.82
00005007 00000001 526.08 169.09 520.78 753.40 606.44 504.49 837.82 489.51 683.96 621.80 634.66 759.54 819.22 748.09
00005008 00000002 518.94 171.11 523.20 759.21 602.24 505.56 833.47 492.05 680.04 628.72 631.08 764.88 814.16 754.43
00005009 00000003 515.31 172.95 526.14 753.04 601.16 504.92 830.75 491.62 676.72 628.89 632.28 764.56 810.26 754.18
00005010 00000004 522.07 169.75 521.56 751.88 604.64 499.21 834.66 487.54 679.70 623.45 633.89 758.63 815.22 749.58
00005011 00000005 536.52 173.28 515.64 740.23 608.44 492.97 839.82 472.74 685.45 609.29 642.19 748.83 821.13 732.38
00005012 00000006 539.45 166.93 512.27 739.99 618.79 490.08 842.01 470.55 694.21 600.86 648.33 742.02 827.93 726.26
00005013 00000007 548.63 163.73 510.53 736.22 624.04 486.70 852.39 463.75 700.74 596.01 652.24 739.91 837.44 722.28
00005014 00000008 555.13 163.78 518.18 734.88 631.18 486.15 859.45 462.83 708.86 598.03 664.18 739.60 848.46 721.61
00005015 00000009 564.22 167.29 520.80 737.06 643.39 485.80 870.29 464.55 723.39 601.37 678.97 742.29 858.78 725.99
00005016 00000010 575.70 164.20 515.10 744.02 654.05 486.32 881.46 467.28 732.78 608.89 689.18 745.31 864.02 730.80
00005017 00000011 590.04 166.99 513.84 747.18 663.89 489.39 891.70 470.62 740.05 616.58 700.90 750.87 876.33 736.09
00005018 00000012 604.28 171.91 515.73 744.29 676.52 492.87 906.51 474.25 754.60 617.06 714.89 752.45 890.92 737.33
00005019 00000013 615.65 163.78 511.80 755.79 690.73 493.59 916.94 478.14 766.35 616.60 721.36 753.13 902.19 741.17
00005020 00000014 625.61 162.44 519.53 749.72 705.15 491.10 930.22 475.74 779.34 612.08 738.25 748.90 915.24 737.52
00005021 00000015 634.87 166.04 516.38 733.10 718.02 484.56 943.25 464.77 797.38 602.16 753.39 739.80 926.49 724.74
00005022 00000016 653.99 163.77 511.12 730.00 733.08 476.47 956.08 459.84 810.14 598.62 767.92 731.47 939.07 718.87
00005023 00000017 674.25 162.14 512.64 725.43 748.72 473.64 974.29 456.39 824.21 592.03 784.84 727.35 953.89 714.02
00005024 DELETE   690.18 155.15 509.96 742.29 766.29 484.43 992.69 460.84 844.28 594.87 797.11 738.65 977.46 720.12
00005025 DELETE   696.29 162.89 518.61 735.05 779.30 482.40 1005.88 464.77 859.25 604.18 815.57 738.93 991.39 725.61
00005026 00000020 721.35 156.07 512.29 753.65 798.29 483.51 1025.88 468.86 877.16 612.91 833.56 745.59 1009.10 734.45
00005027 DELETE   746.37 158.38 511.17 760.57 817.80 489.01 1050.46 474.60 897.67 618.92 853.14 752.27 1032.53 741.04
00005028 00000022 759.73 156.09 514.82 763.24 838.48 494.16 1066.82 480.36 917.44 618.26 867.52 755.24 1046.61 745.17
00005029 DELETE   767.85 162.26 524.53 743.84 856.87 487.24 1085.78 473.95 938.83 616.52 891.72 747.72 1068.74 737.69
00005030 00000024 793.49 157.69 516.91 744.87 876.72 476.72 1106.98 464.09 958.63 606.11 910.78 738.28 1086.39 729.06
00005031 00000025 812.54 154.40 519.17 739.08 893.66 474.02 1123.43 458.39 973.58 594.25 927.85 728.73 1102.58 716.71
00005032 00000026 830.80 148.16 514.64 747.38 911.05 478.55 1139.11 458.75 990.75 591.26 941.28 733.42 1122.57 717.87
00005033 00000027 839.19 151.61 521.39 742.72 918.86 476.32 1150.98 454.50 1000.68 589.35 952.13 732.06 1137.62 714.87
00005034 00000028 844.59 148.91 526.66 744.28 932.19 470.73 1163.91 458.97 1013.04 598.80 965.01 730.01 1144.70 721.72
00005035 00000029 859.72 153.59 518.90 753.02 941.97 475.80 1171.87 461.71 1024.54 607.34 978.63 741.34 1155.60 730.95
00005036 00000030 872.48 156.64 518.70 757.97 949.65 478.81 1183.28 466.72 1031.38 615.59 985.17 748.01 1163.60 739.29
00005037 00000031 881.74 162.04 518.00 757.10 955.80 486.30 1191.59 473.43 1038.22 620.02 992.54 753.39 1172.31 743.61
00005038 00000032 888.56 162.95 520.68 755.97 962.45 488.52 1200.87 473.97 1045.77 618.86 998.81 754.93 1179.96 743.74
00005039 00000033 892.83 159.43 521.14 760.52 967.90 486.87 1205.25 470.94 1051.48 613.92 1002.30 751.35 1184.43 738.83
00005040 00000034 897.98 157.49 519.39 758.66 973.75 486.21 1208.87 464.85 1057.65 604.66 1009.05 746.65 1191.18 729.44
00005041 00000035 898.86 152.48 524.52 765.27 977.70 486.09 1211.14 465.27 1057.50 601.93 1009.17 749.33 1197.35 733.40
00005042 00000036 902.86 156.35 526.67 760.11 982.08 485.02 1214.08 466.34 1060.40 603.49 1013.52 748.47 1199.04 734.13
00005043 00000037 908.93 160.21 528.65 757.08 986.72 486.76 1218.06 470.86 1062.96 612.72 1020.82 753.49 1203.13 741.62
00005044 00000038 910.28 164.44 533.11 759.22 990.14 491.22 1222.57 478.10 1066.86 617.74 1024.02 759.08 1205.07 749.53
00005045 00000039 913.12 164.80 534.11 763.66 990.52 493.52 1225.85 482.11 1069.53 628.44 1025.73 764.69 1210.51 756.15
00005046 00000040 911.74 169.51 531.47 755.23 992.46 500.71 1230.99 487.58 1071.97 635.42 1027.57 768.59 1211.37 758.58
00005047 00000041 916.48 168.60 528.73 755.46 995.89 499.92 1233.56 487.45 1073.71 634.17 1029.64 767.93 1213.05 758.52
00005048 00000042 915.29 165.76 530.89 753.84 994.97 497.40 1232.80 483.72 1073.39 628.69 1028.38 764.78 1211.97 754.40
00005049 00000043 916.86 163.61 532.74 758.82 995.48 491.29 1228.29 479.49 1073.60 621.67 1029.71 759.44 1210.49 750.95
00005050 00000044 911.75 163.09 530.08 745.81 991.06 489.28 1224.13 473.89 1069.74 617.67 1027.13 755.81 1203.29 744.56
00005051 00000045 911.46 159.60 530.20 757.22 989.54 489.11 1220.83 475.89 1064.81 615.16 1021.33 754.31 1201.17 744.85
00005052 00000046 905.36 159.64 531.44 761.34 985.32 499.88 1217.67 483.82 1060.95 617.22 1014.67 757.91 1198.99 746.01
00005053 00000047 899.89 159.98 528.66 767.58 980.28 504.11 1213.53 488.96 1055.53 623.82 1008.47 763.40 1193.88 752.27
00005054 00000048 896.09 158.19 525.23 770.10 976.58 498.77 1212.30 489.88 1053.44 629.61 1003.45 763.24 1189.06 757.36
00005055 00000049 898.92 160.26 513.34 762.95 970.94 499.09 1206.63 481.75 1053.31 625.15 1004.41 762.13 1188.86 748.39
00005056 00000050 893.79 159.25 513.14 759.35 961.08 489.62 1197.03 478.20 1039.32 621.53 993.54 756.05 1173.13 747.74
00005057 00000051 883.51 154.54 512.88 758.08 953.16 477.58 1187.96 470.44 1030.93 615.76 984.61 745.28 1161.59 740.97
00005058 00000052 869.39 152.40 513.18 750.54 944.23 471.83 1176.20 462.91 1022.46 604.70 975.10 735.54 1152.18 729.96
00005059 00000053 852.85 145.50 517.49 747.76 931.22 471.72 1161.53 462.88 1007.28 599.55 959.16 729.73 1136.93 724.35
00005060 00000054 841.56 147.10 517.66 757.29 916.61 478.00 1147.17 463.83 992.29 597.38 942.88 737.05 1128.29 726.67
00005061 00000055 823.77 155.61 519.28 749.42 902.27 477.22 1135.54 461.89 980.76 601.84 932.14 742.40 1112.27 730.95
00005062 00000056 820.40 150.03 509.70 762.66 886.73 475.71 1121.30 468.97 961.82 611.61 914.62 743.10 1089.77 739.25
00005063 00000057 797.99 154.74 512.55 754.88 870.11 479.48 1101.47 473.69 945.32 618.02 899.03 745.22 1073.29 742.46
00005064 00000058 779.46 153.82 518.21 752.79 857.59 480.50 1087.67 476.37 931.82 614.87 882.73 744.24 1057.43 742.72
00005065 00000059 763.10 159.10 518.59 748.60 843.54 481.97 1073.88 470.29 919.57 608.76 870.60 744.08 1051.70 735.86
00005066 00000060 760.54 146.38 508.89 764.40 832.45 483.91 1062.07 473.24 906.09 603.57 851.97 742.80 1037.09 735.37
00005067 00000061 751.58 147.49 506.09 756.37 818.47 470.69 1050.01 464.73 892.76 601.30 844.87 733.69 1018.79 730.47
00005068 00000062 733.21 154.04 507.15 747.14 804.33 470.69 1034.75 464.72 879.62 603.70 831.07 734.21 1004.94 731.29
00005069 00000063 713.74 152.48 513.09 747.21 789.27 476.29 1020.66 469.81 865.84 604.30 813.51 736.12 991.00 732.74
00005070 00000064 699.93 158.28 515.65 743.14 779.47 478.96 1008.15 470.51 853.50 605.21 803.74 737.65 981.11 732.38
00005071 00000065 686.82 163.65 513.42 740.88 766.06 481.09 997.08 468.81 842.26 604.89 791.28 740.80 972.47 731.93
00005072 00000066 683.79 163.43 506.81 742.94 761.03 479.04 992.13 478.57 832.27 610.03 783.18 741.17 956.34 741.45
00005073 00000067 682.87 159.11 500.16 751.66 748.08 479.67 978.48 474.11 820.37 611.54 772.79 743.45 946.12 740.33
00005074 00000068 674.11 161.94 499.80 746.60 740.12 477.77 968.71 475.80 809.33 613.31 763.41 741.40 934.42 741.68
00005075 00000069 665.51 163.36 498.71 745.80 732.34 479.76 958.80 476.61 801.22 616.51 756.22 744.32 926.90 743.56
00005076 00000070 657.12 166.75 500.40 740.75 725.03 483.96 951.17 478.47 795.54 617.68 748.74 746.86 920.95 744.15
00005077 00000071 650.98 169.55 502.07 736.60 719.37 487.02 945.67 480.70 789.43 615.70 742.12 748.86 914.89 745.50
00005078 00000072 644.47 164.48 505.06 740.83 716.45 485.06 943.42 480.09 785.54 614.67 738.29 747.61 911.84 745.21
00005079 00000073 642.29 160.90 505.31 743.87 715.78 484.45 941.03 479.21 783.77 613.72 738.00 746.06 910.47 743.48
00005080 00000074 641.72 161.04 507.17 742.81 716.27 483.39 941.53 478.44 785.44 611.53 738.41 743.23 911.72 740.79
00005081 00000075 645.73 160.68 507.35 742.69 720.05 482.09 946.34 477.38 790.38 613.32 743.84 743.01 917.82 740.68
00005082 00000076 653.46 162.07 502.72 741.67 724.30 481.26 949.78 475.78 794.93 615.03 750.32 742.81 923.43 739.88
00005083 00000077 661.05 162.70 499.59 741.22 730.61 478.24 956.89 473.81 801.82 614.01 756.44 740.55 928.04 738.54
00005084 00000078 673.90 159.18 494.52 745.70 737.98 477.31 965.18 472.16 809.02 612.03 764.93 740.09 936.71 737.49
00005085 00000079 684.38 158.73 498.25 748.48 749.10 479.10 978.75 471.47 824.24 610.63 777.44 741.48 950.31 736.29
00005086 00000080 688.78 156.83 501.99 753.21 761.98 485.21 987.64 479.14 835.38 609.13 783.73 743.28 962.07 739.42
00005087 00000081 694.85 154.01 505.88 756.23 769.82 484.01 994.96 476.42 842.20 608.30 792.86 743.13 971.09 738.15
00005088 00000082 704.44 156.58 510.44 740.55 781.92 481.58 1006.12 471.88 856.48 609.04 810.29 738.71 984.29 732.17
00005089 00000083 718.67 152.81 508.36 746.17 794.24 479.40 1020.42 470.30 871.15 609.00 824.12 737.47 996.30 731.67
00005090 00000084 738.11 155.54 503.84 746.67 806.82 475.94 1034.75 466.80 883.54 609.34 838.42 738.32 1010.81 732.39
00005091 00000085 755.49 149.13 506.67 755.52 826.58 480.19 1055.83 464.70 907.43 602.99 859.86 738.05 1034.71 726.04
00005092 00000086 760.54 157.43 510.94 742.08 844.02 485.03 1071.76 472.20 922.81 609.71 876.32 741.37 1050.23 730.61
00005093 00000087 771.72 154.37 517.18 744.61 856.45 481.79 1083.48 467.36 936.44 607.49 890.58 740.95 1065.17 730.32
00005094 00000088 791.62 151.71 511.42 752.25 869.87 479.92 1099.52 466.48 952.38 610.76 905.80 743.73 1079.71 734.11
00005095 00000089 810.93 150.55 515.04 756.02 886.91 479.12 1117.49 465.39 968.11 610.17 924.49 742.40 1098.76 731.85
00005096 00000090 824.43 141.68 514.39 770.20 906.73 488.18 1132.87 472.29 985.62 608.70 935.39 745.20 1114.83 732.90
00005097 00000091 835.22 150.22 518.69 761.35 915.18 489.28 1142.68 471.53 994.35 610.21 946.92 747.57 1127.14 734.16
00005098 00000092 839.78 157.37 524.06 746.51 928.22 483.01 1158.79 467.91 1012.68 613.68 966.45 746.70 1141.54 735.38
00005099 00000093 859.90 151.59 516.29 753.77 940.94 481.25 1170.50 465.55 1024.80 613.46 980.06 746.23 1153.98 734.47
00005100 00000094 878.14 152.18 517.99 758.53 954.44 479.02 1183.83 464.73 1035.39 613.25 993.70 746.01 1167.39 735.20
00005101 00000095 886.83 150.98 519.48 762.61 962.76 483.06 1198.44 465.87 1048.16 611.96 1001.53 748.92 1180.54 735.35
00005102 00000096 888.70 145.85 520.41 771.94 972.94 488.47 1203.39 473.93 1053.77 613.21 1004.06 750.95 1185.67 739.81
00005103 00000097 894.93 144.00 518.28 775.26 977.70 488.59 1207.03 475.16 1056.89 613.64 1007.53 751.16 1187.54 741.07
00005104 00000098 900.55 142.30 519.84 778.66 979.36 490.80 1211.81 474.70 1060.01 613.56 1009.73 754.47 1192.79 742.52
00005105 00000099 902.72 150.42 525.87 769.66 984.54 489.36 1216.50 474.24 1063.49 613.84 1016.55 754.92 1197.73 743.88
00005106 00000100 904.57 153.42 526.42 765.37 986.80 496.28 1219.10 479.16 1066.95 615.79 1018.72 757.45 1199.92 744.99
00005107 00000101 904.63 154.05 529.84 765.23 988.03 498.94 1221.91 480.89 1068.43 616.86 1020.65 758.79 1203.47 745.58
00005108 00000102 906.34 154.25 528.52 764.19 988.82 491.18 1220.59 478.09 1065.84 615.90 1020.26 755.52 1200.78 746.27
00005109 00000103 906.21 152.35 525.47 767.67 985.92 489.99 1217.60 477.19 1062.93 614.17 1015.68 755.24 1196.99 746.22
00005110 00000104 902.60 148.09 521.56 774.36 981.72 490.18 1212.58 477.74 1058.58 614.82 1009.28 755.42 1191.04 746.49
00005111 00000105 901.72 149.00 515.39 770.70 976.24 488.79 1210.77 472.42 1058.47 614.75 1010.13 753.89 1188.31 740.94
00005112 00000106 898.15 146.05 513.08 774.16 968.08 484.97 1203.84 473.22 1048.75 617.61 999.99 752.45 1179.10 743.68
CROP_BBOX: 328 0 1636 1080
