Video ID: 	CGvdAfVNL_E
H: 	1080
W: 	1920
FPS: 	25.0

FRAME INDEX X0 Y0 W H [Landmarks (5 Points)]

00000160 00000000 810.92 190.05 494.99 692.66 871.62 461.96 1081.20 457.26 924.37 600.15 898.92 729.42 1060.44 726.95
00000161 00000001 812.23 188.26 498.77 705.70 877.84 463.74 1091.22 455.59 934.17 600.15 908.50 732.71 1074.86 726.85
00000162 DELETE   803.88 187.57 499.83 700.75 870.75 461.59 1078.56 455.02 924.46 599.88 899.48 729.57 1060.57 725.59
00000163 00000003 795.03 183.99 502.59 705.09 861.09 464.30 1065.27 458.69 908.28 599.34 884.84 729.67 1045.37 726.72
00000164 00000004 793.85 186.61 503.23 700.77 861.09 462.44 1065.28 456.83 909.32 599.33 886.46 728.46 1046.16 725.55
00000165 00000005 796.99 188.33 501.70 698.88 864.69 462.25 1069.82 454.70 915.78 597.03 892.36 726.98 1053.52 722.22
00000166 00000006 795.30 189.82 502.06 699.43 861.98 464.00 1065.63 455.73 910.48 599.00 889.02 728.25 1051.48 722.96
00000167 00000007 788.75 191.86 506.25 699.01 858.01 462.33 1062.96 455.49 906.72 597.25 881.62 726.01 1044.63 722.16
00000168 00000008 790.22 188.96 505.74 699.08 860.87 460.42 1064.67 453.54 909.78 594.30 886.78 722.94 1049.31 718.83
00000169 00000009 791.34 186.06 506.01 701.49 862.64 456.63 1067.26 448.22 912.79 590.02 890.06 719.62 1053.89 714.18
00000170 00000010 788.74 184.97 504.69 701.60 861.32 454.01 1066.48 446.38 911.31 587.11 886.94 717.49 1053.07 712.65
00000171 00000011 786.69 185.09 503.90 702.40 860.93 453.07 1064.87 446.54 909.11 585.13 884.23 715.06 1050.27 711.16
00000172 00000012 784.80 185.63 504.44 703.42 859.34 452.53 1064.18 445.87 907.87 585.32 883.24 715.20 1051.88 711.12
00000173 00000013 779.76 189.13 507.06 700.42 855.47 451.65 1060.65 445.60 903.22 585.09 878.71 714.19 1048.45 710.55
00000174 00000014 777.04 186.00 506.16 707.32 851.22 452.43 1055.74 445.56 895.97 584.05 873.01 715.26 1044.95 710.77
00000175 00000015 775.22 184.78 507.57 707.19 849.62 451.89 1054.38 447.38 895.15 586.24 870.13 714.70 1041.95 712.14
00000176 00000016 773.68 184.92 509.01 703.12 848.86 454.40 1055.57 449.03 897.86 588.34 870.13 715.42 1041.19 712.33
00000177 00000017 773.77 188.45 507.50 695.85 848.22 456.09 1055.58 449.93 899.66 590.56 870.55 716.70 1040.34 713.00
00000178 00000018 773.05 186.24 509.16 696.38 845.46 455.70 1053.04 449.68 896.24 591.09 868.16 718.36 1036.45 714.72
00000179 00000019 771.96 187.30 508.32 688.24 843.30 455.66 1052.55 448.82 897.06 590.51 867.94 717.61 1034.96 713.22
00000180 00000020 770.39 186.27 508.78 694.01 843.47 455.87 1052.93 448.69 897.13 590.90 867.78 718.36 1036.03 713.73
00000181 00000021 769.85 184.69 508.74 694.58 843.29 456.46 1052.97 448.36 898.06 590.98 869.12 718.49 1038.18 713.10
00000182 00000022 768.68 183.01 508.99 695.03 841.92 455.55 1051.72 447.15 896.67 590.18 868.37 718.30 1038.82 712.50
00000183 00000023 767.56 183.20 508.06 693.54 840.52 454.23 1050.35 445.32 895.67 587.53 867.23 716.47 1038.57 710.16
00000184 00000024 766.78 186.64 508.51 688.99 839.35 453.83 1050.36 445.79 894.75 587.20 864.91 715.68 1035.54 710.15
00000185 00000025 766.48 185.88 508.49 690.45 838.84 455.22 1049.63 445.82 894.41 588.50 865.77 716.98 1037.33 710.27
00000186 DELETE   766.70 186.25 507.82 691.53 839.49 455.91 1049.29 447.25 894.67 590.85 867.37 716.11 1040.52 709.90
00000187 00000027 765.48 182.49 508.86 693.66 839.00 454.71 1048.58 445.93 894.73 589.34 866.81 714.13 1040.16 707.70
00000188 00000028 765.38 182.41 510.03 695.15 839.06 454.22 1048.49 445.29 893.79 588.03 866.61 713.51 1041.28 706.94
00000189 00000029 765.56 181.63 510.88 699.09 839.37 454.78 1048.91 445.25 893.32 587.64 866.81 713.69 1043.12 706.65
00000190 00000030 764.97 179.70 512.09 705.26 839.48 455.44 1048.62 445.31 892.52 588.18 867.67 715.79 1043.40 708.29
00000191 00000031 764.82 181.01 513.09 707.55 839.87 457.30 1048.44 445.24 892.66 588.23 869.58 720.18 1042.11 711.20
00000192 00000032 765.48 183.70 514.81 709.99 839.34 458.18 1048.27 444.66 891.44 588.20 870.32 723.58 1042.19 713.40
00000193 00000033 765.78 185.54 517.22 710.54 838.96 459.69 1048.97 445.86 890.50 589.42 869.57 726.97 1039.70 716.74
00000194 00000034 766.85 183.81 516.76 714.48 838.69 459.15 1049.96 445.28 890.16 590.27 869.01 730.51 1037.96 720.37
00000195 00000035 767.13 184.11 517.28 715.14 839.31 461.17 1050.70 445.83 891.13 590.06 869.84 732.38 1038.22 721.09
00000196 00000036 767.00 184.39 517.69 716.90 839.00 461.94 1051.05 445.71 891.58 591.08 870.43 735.50 1037.26 723.58
00000197 00000037 766.79 182.97 519.15 719.54 838.57 462.20 1051.12 445.27 891.54 591.23 871.00 737.29 1037.85 724.73
00000198 00000038 767.43 184.96 519.18 720.49 839.54 462.51 1051.10 445.70 891.40 591.29 871.82 737.64 1038.92 725.15
00000199 00000039 767.22 186.33 519.38 721.74 838.64 463.29 1051.46 445.22 891.07 591.39 871.69 740.07 1039.70 726.47
00000200 00000040 768.20 186.06 518.68 721.17 839.90 462.55 1051.63 445.17 891.34 591.19 872.31 738.39 1039.43 725.42
00000201 00000041 769.22 186.89 519.06 722.00 840.47 463.12 1052.18 444.82 891.57 589.77 873.24 739.27 1040.80 725.49
00000202 00000042 770.04 183.74 519.72 727.80 841.30 462.29 1052.17 443.42 891.22 589.17 876.02 741.30 1043.97 726.96
00000203 00000043 770.19 184.38 519.10 727.57 841.53 461.73 1051.23 441.67 891.39 588.98 878.72 743.01 1046.93 727.48
00000204 00000044 770.87 186.26 520.65 727.14 842.11 461.79 1052.29 441.53 891.47 588.29 878.95 743.62 1047.78 727.95
00000205 00000045 772.25 182.35 516.79 725.62 844.21 459.16 1056.61 444.27 895.63 590.27 873.43 737.96 1041.81 727.16
00000206 00000046 776.01 185.55 514.82 712.62 847.65 457.35 1059.69 445.84 899.30 592.53 874.09 731.22 1042.98 723.41
00000207 00000047 777.70 186.09 515.35 714.10 849.20 456.61 1061.55 445.91 899.25 591.78 874.57 730.50 1046.19 723.28
00000208 00000048 776.89 187.43 516.52 711.84 849.33 458.03 1060.99 446.60 900.46 591.31 876.04 730.34 1046.36 722.50
00000209 00000049 776.99 187.86 516.83 714.98 849.21 459.13 1060.86 446.28 900.48 591.82 877.10 733.27 1047.19 724.19
00000210 00000050 777.70 188.69 518.62 715.03 849.73 461.05 1060.49 446.42 899.58 590.34 879.23 737.99 1044.98 727.47
00000211 00000051 777.47 188.42 519.03 717.82 848.95 461.92 1060.26 446.10 899.84 590.53 879.71 740.75 1044.80 729.21
00000212 00000052 776.37 189.56 520.71 717.63 848.53 462.33 1059.96 445.96 899.41 590.41 879.66 741.88 1044.52 729.90
00000213 00000053 775.73 187.83 519.24 719.96 847.61 462.51 1059.66 445.70 899.34 590.63 879.32 742.21 1044.87 729.88
00000214 00000054 776.19 186.14 519.57 720.86 847.39 460.79 1058.88 445.37 897.95 591.25 878.17 741.32 1043.70 730.16
00000215 00000055 775.69 185.25 519.50 720.40 847.35 459.93 1059.37 445.75 897.59 591.24 876.65 739.44 1043.22 729.33
00000216 00000056 775.31 184.90 519.35 718.85 846.45 460.78 1057.38 447.25 896.42 592.65 875.07 737.47 1041.92 727.92
00000217 00000057 775.14 182.25 517.61 720.31 845.07 462.95 1056.43 448.18 895.64 593.10 873.43 737.96 1040.93 727.45
00000218 00000058 774.34 181.77 516.26 716.69 843.95 462.82 1057.09 448.65 896.46 593.82 871.96 737.41 1040.15 727.43
00000219 00000059 774.01 181.48 516.53 714.02 843.38 462.72 1057.27 448.50 896.95 594.81 871.74 737.10 1039.27 727.13
00000220 00000060 774.30 185.26 515.64 709.26 843.86 463.20 1057.51 448.90 898.15 595.91 873.32 737.98 1038.79 727.94
00000221 00000061 774.33 186.31 516.29 709.28 843.67 463.53 1057.81 449.77 898.29 597.22 872.76 738.40 1039.17 728.83
00000222 00000062 774.34 185.59 516.10 711.03 843.70 464.72 1058.32 449.75 899.07 596.99 873.35 739.48 1040.29 728.96
00000223 00000063 774.56 183.64 515.65 715.18 845.01 465.07 1059.04 449.57 900.01 596.26 874.71 742.13 1039.77 731.18
00000224 00000064 776.00 186.15 514.37 713.44 846.12 465.08 1060.48 448.84 902.05 596.62 876.78 744.23 1040.33 732.71
00000225 00000065 777.46 187.64 514.38 712.25 847.90 465.50 1061.16 448.91 903.47 597.00 878.89 744.89 1040.76 733.08
00000226 00000066 777.54 188.77 514.57 712.43 847.74 466.03 1060.58 449.13 903.32 598.13 879.86 747.30 1041.96 735.13
00000227 00000067 778.08 189.42 514.90 709.97 849.70 465.53 1062.62 449.31 905.53 597.56 881.82 745.83 1041.57 734.33
00000228 00000068 778.96 188.64 514.32 711.58 850.91 465.90 1063.92 449.06 906.83 597.79 883.55 746.43 1043.09 734.39
00000229 00000069 779.68 190.15 515.56 709.16 852.30 466.58 1064.65 449.80 908.30 598.22 886.03 746.67 1044.24 734.65
00000230 00000070 781.16 189.55 516.00 710.50 853.78 466.64 1065.26 449.87 908.98 598.07 887.38 747.18 1045.01 735.13
00000231 00000071 782.58 189.77 515.95 710.89 855.13 466.25 1066.43 450.23 909.92 599.05 888.24 747.30 1045.79 735.86
00000232 00000072 784.89 189.67 514.32 709.45 855.60 465.52 1067.17 450.07 909.65 599.07 888.26 746.71 1046.82 735.73
00000233 00000073 785.83 188.35 513.12 711.88 856.22 465.41 1067.50 450.09 909.97 598.77 888.42 746.45 1046.80 735.62
00000234 00000074 785.85 188.79 512.40 708.49 855.44 465.08 1066.76 449.21 910.31 598.76 888.86 745.24 1046.13 733.97
00000235 00000075 788.28 185.20 510.61 709.69 856.80 463.98 1068.39 448.64 911.76 597.57 889.23 743.26 1047.09 732.42
00000236 00000076 789.36 181.57 511.18 714.79 856.61 462.67 1069.95 448.10 911.64 598.89 889.41 744.34 1050.82 734.09
00000237 00000077 789.15 178.27 510.91 716.37 856.17 462.83 1070.24 448.54 912.46 599.64 889.18 743.80 1051.02 733.83
00000238 00000078 789.93 179.11 508.77 716.36 857.22 463.93 1067.81 449.67 911.32 599.02 889.73 741.45 1051.38 731.44
00000239 00000079 789.70 178.71 509.58 717.91 857.02 463.50 1068.10 448.65 910.67 598.12 889.54 742.03 1052.55 731.51
00000240 00000080 787.96 180.88 513.00 720.74 857.22 462.23 1068.43 447.23 909.57 596.67 889.78 743.99 1052.03 733.16
00000241 00000081 789.24 180.13 514.31 728.81 860.57 463.21 1068.03 446.70 910.15 593.42 895.82 746.42 1054.47 734.05
00000242 00000082 789.28 176.99 513.55 729.91 861.25 461.96 1068.44 445.62 910.73 591.35 896.03 743.73 1057.17 731.47
00000243 00000083 790.32 180.99 511.11 720.76 861.68 461.57 1068.47 445.04 911.29 589.24 895.86 739.88 1056.97 727.50
00000244 DELETE   791.09 181.77 509.59 712.77 861.76 461.12 1066.32 448.21 909.49 588.86 893.08 734.27 1053.77 724.70
00000245 00000085 794.93 177.33 510.47 712.54 864.83 463.27 1069.75 451.62 912.72 587.93 895.43 730.52 1056.09 721.93
00000246 00000086 794.47 178.58 510.95 718.55 865.61 462.27 1075.01 448.31 915.16 584.79 895.03 735.25 1059.63 724.80
00000247 00000087 794.85 175.31 516.03 730.04 867.71 458.64 1078.40 441.09 917.67 581.93 901.82 740.82 1065.35 727.29
00000248 00000088 798.97 170.44 510.75 726.03 869.79 455.24 1080.66 440.79 919.80 579.01 899.68 734.53 1058.33 724.02
00000249 00000089 802.29 169.40 505.59 716.54 870.28 452.46 1079.43 439.44 920.21 575.53 898.42 728.24 1051.88 719.30
00000250 00000090 805.16 170.51 503.38 712.70 870.95 451.87 1079.39 438.82 920.55 575.42 899.12 726.55 1051.61 717.58
00000251 00000091 807.08 173.81 502.75 704.82 872.27 451.43 1080.64 438.69 921.96 575.26 901.65 724.92 1053.64 716.09
00000252 00000092 808.34 172.72 501.61 706.45 873.61 449.74 1081.81 437.53 922.42 574.20 903.07 723.28 1056.70 714.78
00000253 00000093 807.91 172.77 503.50 712.46 875.16 450.03 1083.47 436.64 924.49 575.01 907.00 726.52 1061.20 716.87
00000254 00000094 809.33 174.97 505.24 722.43 876.00 449.73 1083.16 436.36 922.82 576.50 908.40 730.83 1066.26 720.86
00000255 00000095 808.80 175.38 504.65 721.77 875.16 449.74 1083.29 436.36 922.84 578.42 907.85 731.90 1066.90 721.92
00000256 00000096 810.12 176.45 502.84 715.84 875.26 452.03 1084.08 437.58 923.57 577.73 907.80 730.00 1067.66 719.25
00000257 00000097 810.71 176.50 501.32 708.09 874.32 451.83 1083.68 439.04 923.33 577.39 904.86 726.98 1063.08 717.85
00000258 00000098 811.27 177.15 498.43 702.50 873.68 453.93 1081.99 440.90 922.91 578.21 903.62 726.90 1060.72 717.70
00000259 00000099 810.70 174.82 498.85 705.01 873.33 456.26 1081.37 443.65 922.57 580.96 902.21 727.81 1058.91 719.12
00000260 00000100 809.52 178.97 499.04 699.70 872.23 457.14 1080.64 445.63 921.56 582.85 901.30 728.15 1059.06 720.19
00000261 00000101 809.24 180.79 497.81 693.59 871.15 458.16 1081.00 446.19 922.08 582.87 900.24 726.30 1059.24 717.93
00000262 00000102 808.84 177.80 496.31 693.53 870.79 453.28 1082.81 444.88 924.01 582.93 899.06 723.19 1059.50 717.73
00000263 00000103 807.53 178.05 497.55 691.93 869.92 452.46 1082.23 444.89 923.75 583.77 897.77 722.64 1057.90 717.93
00000264 00000104 805.70 181.59 497.58 686.03 867.86 455.22 1079.12 445.97 922.70 587.04 898.67 724.17 1057.62 717.87
00000265 00000105 804.48 181.87 498.84 686.48 866.23 455.83 1078.26 445.51 922.90 588.13 898.28 725.10 1057.54 718.05
00000266 00000106 803.26 181.77 500.41 687.83 866.39 456.79 1077.51 445.86 922.81 587.71 898.35 725.05 1057.48 717.52
00000267 00000107 802.18 181.96 499.69 688.27 865.26 455.13 1077.70 444.99 922.38 588.15 897.66 724.95 1058.13 717.98
00000268 00000108 800.14 179.27 500.51 689.53 865.29 454.90 1077.90 444.32 922.91 586.64 897.79 724.21 1058.16 716.88
00000269 00000109 799.32 177.82 500.29 690.19 865.20 457.66 1077.96 446.60 923.21 586.68 896.98 724.53 1058.18 716.82
00000270 00000110 799.39 183.16 499.92 690.77 865.95 458.81 1078.06 447.72 923.91 588.71 898.06 727.01 1060.34 719.13
00000271 00000111 798.07 187.76 499.23 688.91 865.47 460.10 1077.92 449.34 925.12 592.24 897.78 728.67 1059.42 721.10
00000272 00000112 796.32 187.28 499.48 688.27 865.76 459.29 1077.79 448.68 925.40 589.82 897.49 726.44 1058.27 719.08
00000273 00000113 794.79 182.64 500.68 691.01 865.45 457.44 1076.05 446.04 923.13 586.27 897.12 724.61 1057.27 716.57
00000274 00000114 793.92 181.77 499.40 686.87 862.93 457.06 1074.76 444.65 921.67 584.62 895.23 723.83 1055.43 715.01
00000275 00000115 791.63 181.76 501.27 688.13 861.84 456.32 1071.72 444.37 918.97 584.53 893.72 723.58 1052.24 715.19
00000276 00000116 790.20 181.82 501.71 690.92 860.65 457.28 1069.93 445.06 916.99 586.87 892.75 725.16 1050.95 716.64
00000277 00000117 790.24 183.34 503.70 693.91 861.81 457.36 1070.75 445.38 917.33 586.70 893.26 726.55 1051.60 718.20
00000278 00000118 791.85 183.48 503.34 690.90 862.74 456.98 1072.61 444.95 919.35 586.41 895.31 724.80 1054.27 716.35
00000279 00000119 791.99 184.56 502.41 691.02 863.07 457.41 1071.52 445.08 918.44 585.37 894.76 724.98 1052.88 716.31
00000280 00000120 792.12 183.78 502.88 690.60 861.82 457.50 1069.82 445.59 915.49 585.30 892.13 724.41 1050.07 716.17
00000281 00000121 788.96 183.91 505.14 690.58 860.33 459.41 1063.64 448.19 911.17 585.96 889.40 724.47 1045.26 716.75
00000282 00000122 791.28 184.35 505.03 689.34 863.08 463.91 1062.65 456.90 907.14 586.88 888.29 721.96 1044.40 717.49
00000283 DELETE   790.02 185.52 505.63 686.68 861.45 459.56 1064.20 452.71 907.77 587.66 887.73 721.36 1045.32 717.14
00000284 00000124 790.18 181.15 504.32 692.92 859.36 459.72 1063.67 448.41 909.08 584.82 887.53 723.89 1045.31 716.17
00000285 00000125 790.82 180.67 502.36 691.94 859.17 458.33 1064.78 447.33 909.39 584.79 887.61 723.42 1045.29 715.93
00000286 00000126 789.73 179.23 501.97 693.73 857.74 457.06 1065.41 447.52 908.32 584.44 883.72 722.94 1044.68 716.79
00000287 00000127 790.38 181.24 499.23 690.77 857.07 455.84 1062.93 448.59 904.67 583.50 879.31 722.70 1037.05 718.58
00000288 00000128 788.72 183.28 501.18 689.64 855.02 455.52 1061.41 450.60 902.17 585.09 875.19 722.42 1032.47 720.30
00000289 DELETE   788.13 187.13 505.32 688.88 855.14 456.30 1060.08 453.19 899.43 585.32 873.11 722.96 1028.80 722.30
00000290 00000130 788.82 185.00 503.52 690.83 855.08 455.47 1061.04 453.68 900.62 586.61 872.50 723.55 1026.59 724.12
00000291 00000131 790.18 184.62 503.07 693.81 858.05 456.04 1064.23 453.44 904.90 586.69 876.23 724.76 1029.25 724.70
00000292 00000132 792.03 182.46 504.62 700.50 860.34 458.03 1064.30 451.87 907.10 585.68 881.55 727.02 1033.50 723.93
00000293 00000133 791.79 181.83 503.76 701.20 859.76 456.76 1064.81 450.96 906.36 585.41 880.12 726.58 1033.80 723.81
00000294 00000134 790.90 182.09 505.67 696.51 859.13 457.78 1064.58 450.83 906.07 584.73 879.86 726.74 1033.58 722.94
00000295 00000135 790.43 184.40 504.12 694.73 857.96 460.04 1064.18 451.18 906.55 586.60 881.87 727.87 1038.89 722.33
00000296 00000136 790.77 185.71 505.72 694.06 858.33 460.93 1064.20 451.51 905.64 586.08 882.94 727.75 1041.62 721.61
00000297 00000137 789.82 184.33 507.84 704.32 859.20 459.98 1064.30 450.41 904.86 585.04 884.63 728.63 1046.07 722.11
00000298 00000138 788.10 182.95 509.15 708.75 860.43 456.48 1065.87 448.84 906.48 583.49 884.75 726.30 1046.70 721.39
00000299 00000139 788.33 180.63 509.03 707.80 861.97 450.67 1067.52 445.06 908.42 581.40 886.26 723.52 1047.42 720.27
00000300 00000140 791.60 178.53 507.93 710.93 863.76 447.52 1069.66 443.20 909.10 579.29 888.00 722.10 1049.55 719.83
00000301 00000141 796.74 176.11 504.05 712.33 867.47 446.70 1074.16 441.71 913.47 577.38 892.67 721.87 1053.54 718.91
00000302 00000142 800.30 177.70 503.26 712.37 871.17 445.50 1079.05 440.38 918.10 576.51 897.17 722.20 1058.59 719.02
00000303 00000143 799.82 175.29 505.82 719.21 871.45 444.93 1080.16 439.59 918.41 578.89 899.72 723.89 1065.69 720.27
00000304 00000144 800.52 180.34 505.33 709.42 870.28 447.67 1079.26 441.69 916.98 578.97 897.83 723.06 1063.76 718.99
00000305 00000145 799.51 179.31 504.01 707.06 869.09 447.01 1077.55 441.96 915.88 578.84 895.13 720.45 1059.85 717.33
00000306 00000146 798.96 181.79 503.90 698.47 866.85 450.46 1075.40 445.45 914.22 581.25 892.78 719.38 1057.25 716.33
00000307 00000147 795.27 181.09 502.37 695.70 863.77 451.06 1073.46 447.74 913.96 586.34 887.59 717.28 1055.14 715.89
00000308 00000148 791.66 184.23 504.67 690.03 862.15 452.95 1071.20 449.68 913.40 588.60 887.08 717.64 1053.94 716.26
00000309 00000149 788.47 185.06 507.72 692.89 860.30 455.25 1070.50 450.46 912.54 592.06 885.58 721.44 1053.60 718.85
00000310 00000150 787.39 185.79 509.82 701.54 859.62 455.80 1069.57 450.73 910.25 593.86 884.76 725.44 1052.98 722.63
00000311 00000151 785.57 186.30 511.11 701.83 856.72 457.92 1068.38 453.17 908.05 596.79 880.62 728.29 1050.01 725.84
00000312 00000152 784.96 187.94 511.60 700.82 854.81 459.71 1066.49 453.97 906.79 597.28 878.65 731.67 1044.05 728.58
00000313 00000153 783.42 187.98 512.06 701.06 852.18 461.73 1063.56 454.99 905.11 599.58 877.15 736.12 1040.50 732.22
00000314 00000154 783.23 190.40 512.96 702.56 851.47 463.61 1062.57 455.81 902.57 599.74 875.95 739.58 1037.91 734.89
00000315 00000155 782.53 189.54 512.71 705.09 850.83 464.53 1061.95 456.71 900.53 601.70 875.72 741.90 1037.53 737.16
00000316 00000156 782.85 190.34 511.60 704.73 851.14 465.52 1062.37 456.74 902.46 603.47 876.35 742.63 1036.52 737.31
00000317 00000157 784.03 189.32 508.68 705.56 852.34 467.40 1063.42 457.81 903.97 603.24 876.55 743.45 1035.48 737.61
00000318 00000158 783.98 188.51 508.33 706.16 852.35 467.16 1064.28 457.56 905.09 603.80 876.80 743.64 1036.17 737.87
00000319 00000159 785.17 183.42 508.91 712.92 852.75 465.43 1065.01 456.11 904.95 601.66 876.56 744.43 1034.07 738.96
00000320 00000160 785.88 180.31 509.08 716.76 854.74 465.01 1066.15 456.43 906.78 602.72 878.04 744.30 1035.12 739.46
00000321 00000161 787.55 179.38 508.51 718.19 855.19 465.66 1067.32 456.94 907.89 603.67 879.16 746.56 1035.06 741.59
00000322 00000162 792.01 182.15 506.10 717.18 858.74 467.33 1068.87 457.49 909.79 601.28 883.48 747.32 1037.63 741.22
00000323 00000163 798.12 183.19 501.91 715.10 863.17 467.86 1071.64 457.56 912.76 600.15 888.16 746.66 1041.07 740.11
00000324 00000164 800.91 174.44 500.37 721.72 866.59 462.65 1077.12 453.33 918.27 595.57 893.50 742.09 1048.95 736.19
00000325 00000165 803.44 173.01 500.10 724.37 870.12 458.33 1080.99 451.42 922.16 593.69 897.06 736.55 1054.73 732.65
00000326 00000166 806.11 175.66 499.00 721.18 872.02 457.14 1083.74 452.52 924.04 595.25 897.58 734.76 1056.98 732.76
00000327 00000167 805.51 178.81 499.95 719.55 872.19 458.64 1082.29 453.00 923.51 596.40 898.55 736.10 1056.20 733.27
