Video ID: 	QGt3GFRXWVQ
H: 	1080
W: 	1920
FPS: 	25.0

FRAME INDEX X0 Y0 W H [Landmarks (5 Points)]

00029319 00000000 652.59 213.27 416.29 539.81 851.65 406.73 1004.28 432.92 939.76 544.09 826.32 609.48 935.29 632.45
00029320 00000001 652.59 216.49 416.13 534.76 849.52 407.25 1003.71 432.67 938.15 544.45 823.80 608.42 935.09 630.76
00029321 00000002 651.28 213.59 416.84 541.03 848.63 405.70 1002.27 433.81 935.29 542.12 819.08 605.69 931.11 630.43
00029322 DELETE   649.63 212.07 417.80 539.65 845.02 403.56 1001.94 433.76 932.88 535.62 815.61 600.45 932.53 626.93
00029323 00000004 647.87 212.17 415.97 538.35 842.82 396.46 1001.45 430.83 933.07 528.11 814.95 595.10 934.86 624.92
00029324 DELETE   647.29 211.43 414.48 538.97 840.96 394.02 998.96 428.79 930.97 527.56 815.60 595.53 932.50 625.56
00029325 00000006 653.47 218.49 402.59 531.81 830.86 389.88 993.04 429.04 929.06 521.90 813.28 595.44 935.63 627.81
00029326 00000007 652.57 220.38 403.70 530.40 830.04 388.91 992.85 429.69 928.46 520.17 810.27 591.98 937.46 625.82
00029327 00000008 651.68 219.42 403.60 529.16 830.76 387.07 992.05 429.13 928.11 519.25 808.47 586.67 937.64 621.61
00029328 00000009 651.53 209.97 402.94 540.75 833.33 385.44 993.54 428.86 931.53 517.06 808.04 585.27 938.52 621.75
00029329 00000010 649.71 206.11 404.46 548.52 834.79 383.21 991.92 428.64 932.44 515.41 806.06 583.08 936.98 621.49
00029330 00000011 642.44 196.53 413.34 556.51 841.19 387.46 996.61 424.66 934.58 524.16 806.24 586.56 932.32 618.99
00029331 00000012 643.12 202.72 412.65 548.38 840.83 391.66 995.58 423.50 933.87 524.69 807.41 588.69 933.34 616.80
00029332 DELETE   642.25 200.01 413.88 550.26 839.83 393.27 995.51 422.59 933.80 523.17 808.13 589.59 934.36 615.67
00029333 00000014 642.42 201.89 412.30 547.19 839.17 390.58 995.50 421.97 934.42 521.56 807.94 589.12 933.42 616.86
00029334 00000015 647.60 208.37 400.51 539.45 832.43 384.57 989.49 426.84 932.87 513.22 805.83 583.43 936.76 618.86
00029335 00000016 640.46 198.06 410.57 550.27 836.45 386.26 993.95 421.69 933.43 518.91 807.07 587.92 932.35 618.92
00029336 00000017 639.39 195.70 410.85 553.79 837.37 384.57 993.36 420.84 933.99 518.23 807.32 587.99 931.53 619.66
00029337 00000018 638.89 191.84 409.99 556.62 836.05 383.53 991.80 418.80 934.23 516.64 807.84 587.69 931.86 618.64
00029338 00000019 638.30 191.57 409.32 552.49 835.02 382.88 990.75 416.52 933.90 515.95 809.34 586.79 931.10 616.36
00029339 00000020 639.12 192.34 400.66 542.50 830.36 383.51 988.14 417.78 933.71 506.55 814.62 582.89 933.55 611.52
00029340 00000021 637.99 191.73 400.05 536.04 827.83 381.08 988.79 413.65 933.84 502.80 816.55 581.18 935.78 608.23
00029341 00000022 634.80 188.87 402.19 538.58 826.32 379.99 988.14 412.53 933.06 501.12 815.23 580.17 935.40 607.11
00029342 00000023 634.12 183.72 400.92 538.83 824.19 379.13 986.70 410.09 931.91 499.87 816.03 578.69 936.49 604.18
00029343 00000024 633.51 184.23 399.89 533.77 823.04 378.71 987.01 408.77 932.09 498.57 816.00 577.08 937.29 601.73
00029344 00000025 631.81 183.33 401.22 535.27 823.87 378.26 986.24 407.99 932.10 497.15 816.61 576.28 936.44 600.54
00029345 00000026 632.47 183.06 399.16 534.36 823.55 377.43 986.06 406.92 931.89 496.44 817.40 575.65 936.61 599.65
00029346 00000027 633.01 179.89 398.54 535.23 822.75 376.30 985.18 405.07 930.68 495.34 817.97 574.65 936.88 597.97
00029347 00000028 630.97 175.12 398.58 540.46 822.69 374.97 983.87 404.44 930.48 494.97 818.70 573.99 936.70 597.79
00029348 00000029 630.51 171.50 398.82 545.11 821.92 374.07 982.95 403.90 929.34 495.09 817.63 573.69 936.55 597.80
00029349 00000030 630.79 172.42 397.26 542.97 821.21 372.55 983.05 401.63 929.15 494.53 817.35 573.65 936.26 597.09
00029350 00000031 630.15 177.08 397.08 536.49 819.70 372.20 982.65 399.40 928.36 493.28 816.34 573.50 936.00 595.30
00029351 00000032 628.38 177.46 399.29 536.60 818.32 371.64 981.47 398.62 926.42 492.65 814.55 572.64 935.03 594.24
00029352 00000033 627.48 179.55 399.73 533.41 817.61 371.32 981.56 398.14 925.64 492.06 814.07 572.20 934.50 593.54
00029353 00000034 627.53 179.21 399.17 533.28 816.67 370.91 980.52 397.47 924.14 490.68 813.84 571.46 934.03 592.49
00029354 00000035 628.22 178.30 398.18 532.99 816.30 369.56 979.57 394.24 922.97 488.18 817.93 573.09 933.83 592.08
00029355 00000036 628.38 177.00 398.33 536.07 818.30 369.38 978.43 394.22 923.03 486.93 820.00 572.82 932.40 591.74
00029356 DELETE   630.82 175.12 397.60 537.12 820.75 377.75 976.12 396.48 923.87 487.73 823.23 575.83 933.72 590.59
00029357 00000038 628.77 171.34 397.57 541.73 819.40 376.37 977.59 398.54 925.13 487.37 819.02 574.08 935.17 591.71
00029358 00000039 628.23 166.85 396.85 544.84 818.71 367.79 978.67 393.86 925.67 484.07 818.37 569.20 936.46 589.78
00029359 00000040 627.98 160.52 396.88 550.42 818.57 361.89 976.39 387.06 923.91 482.31 818.72 568.81 932.50 588.56
00029360 00000041 627.41 157.57 397.22 553.50 816.56 359.92 976.76 385.01 924.17 480.23 818.44 569.82 932.74 589.34
00029361 00000042 625.65 152.26 397.37 558.53 814.94 357.85 974.36 381.00 923.22 477.62 818.91 567.94 932.92 585.84
00029362 00000043 621.82 147.34 398.25 564.20 813.09 355.34 968.64 377.77 919.53 474.63 815.97 565.82 926.87 583.26
00029363 00000044 618.48 146.89 399.91 569.04 810.11 354.57 966.47 379.39 916.64 473.91 807.70 564.40 922.76 583.99
00029364 00000045 615.54 148.54 396.86 563.12 805.97 355.23 965.56 378.89 915.73 472.65 802.22 560.82 924.76 580.00
00029365 00000046 611.51 156.86 392.67 547.80 801.11 361.77 960.56 380.72 913.07 469.91 800.89 559.13 925.21 574.63
00029366 DELETE   609.16 157.84 390.54 546.55 797.87 363.05 954.78 376.43 911.59 468.88 801.97 559.12 924.64 570.39
00029367 DELETE   608.51 157.92 386.90 541.44 794.80 359.71 952.75 374.50 907.87 465.37 800.77 556.61 921.17 568.55
00029368 00000049 604.72 148.45 386.49 549.95 793.07 352.43 947.18 367.04 904.44 463.44 800.33 553.62 914.13 565.20
00029369 00000050 596.17 132.82 393.89 562.57 781.73 348.17 945.28 362.78 897.36 466.61 795.60 552.57 916.86 565.26
00029370 00000051 604.87 149.77 380.88 546.36 781.85 353.39 942.53 362.29 900.55 462.87 794.83 561.28 920.13 568.70
00029371 DELETE   601.01 146.32 382.48 551.43 779.54 352.28 939.80 362.49 898.62 461.94 793.29 560.58 919.55 568.87
00029372 00000053 595.47 147.79 387.27 550.56 775.71 349.69 937.93 358.98 899.35 459.93 790.56 559.68 920.31 567.13
00029373 00000054 592.28 152.64 387.59 544.90 771.92 348.24 935.00 356.35 896.05 460.68 786.93 558.93 917.20 565.60
00029374 00000055 590.05 148.60 386.52 549.65 768.80 349.14 933.27 356.34 895.29 464.21 785.49 561.62 916.43 567.69
00029375 00000056 590.82 152.76 381.97 544.42 767.24 349.47 932.11 356.31 893.69 464.33 785.91 563.68 915.03 569.42
00029376 00000057 588.58 152.24 383.26 545.89 765.90 349.52 929.83 356.85 891.26 466.64 784.71 564.28 912.65 570.36
00029377 00000058 585.25 149.28 385.80 553.22 765.40 352.66 927.58 360.04 891.95 468.03 783.32 566.06 911.22 572.10
00029378 00000059 581.90 154.83 389.05 553.81 765.43 353.58 925.39 362.95 891.07 470.11 779.12 566.29 906.14 573.99
00029379 00000060 581.65 155.86 390.32 557.72 764.48 353.03 922.49 362.37 888.56 469.42 775.53 564.89 904.05 572.56
00029380 00000061 581.46 154.50 391.01 559.60 764.42 353.17 923.25 363.41 889.28 470.15 773.52 563.35 904.95 571.83
00029381 00000062 579.36 155.59 393.40 559.69 764.37 353.10 924.59 364.74 889.66 470.76 770.73 562.48 904.65 572.09
00029382 00000063 576.94 153.72 394.81 563.17 764.20 355.26 924.09 368.15 889.19 471.41 768.37 561.54 903.94 572.18
00029383 00000064 575.15 152.95 395.44 564.29 763.26 357.17 924.49 370.46 888.20 471.81 766.96 561.99 902.77 572.95
00029384 00000065 574.98 156.15 395.64 561.46 763.45 356.57 923.30 370.83 887.24 471.01 766.79 561.39 901.63 573.15
00029385 00000066 574.29 151.01 395.88 565.11 761.29 355.16 921.47 366.34 887.64 469.19 767.33 561.08 902.13 570.34
00029386 00000067 573.10 154.16 397.11 561.22 760.05 350.99 920.09 360.61 887.29 466.84 766.95 558.70 901.91 566.57
00029387 00000068 573.20 149.49 398.01 566.90 759.96 347.50 919.33 355.63 887.21 466.04 768.68 558.04 903.24 564.42
00029388 00000069 573.90 148.51 396.90 568.13 758.96 346.27 918.79 354.09 886.54 463.64 768.65 558.35 903.08 564.41
00029389 00000070 572.36 148.08 399.53 569.71 756.92 344.37 917.39 351.97 884.62 462.28 767.67 557.95 902.70 563.61
00029390 00000071 571.49 146.43 400.16 571.72 755.65 342.95 916.93 350.51 883.53 461.34 767.91 558.07 902.61 563.36
00029391 00000072 571.35 143.19 397.67 573.23 753.86 343.98 915.39 351.40 882.02 459.30 767.63 557.87 901.01 562.95
00029392 00000073 569.80 143.27 397.77 571.39 751.40 343.30 914.68 350.38 880.06 458.35 768.18 558.92 899.46 563.48
00029393 00000074 569.22 146.10 397.33 566.58 749.78 342.49 914.53 349.63 878.15 457.58 767.70 559.04 898.44 563.55
00029394 00000075 568.78 143.07 397.73 569.69 748.96 341.89 914.44 350.35 877.29 456.40 766.66 558.46 897.57 564.05
00029395 00000076 569.11 144.26 397.22 566.89 749.21 341.55 914.35 350.05 877.25 455.57 766.35 557.37 897.33 563.01
00029396 00000077 569.44 146.59 397.05 564.11 750.14 341.37 914.23 350.26 877.48 455.01 767.50 556.94 897.17 562.74
00029397 00000078 569.66 144.98 395.93 560.77 751.37 343.04 915.15 350.98 879.15 455.92 769.74 557.62 897.92 562.69
00029398 00000079 572.18 142.06 393.18 560.22 752.11 343.83 916.61 352.06 879.35 457.47 771.08 557.93 898.16 563.44
00029399 00000080 571.18 143.99 394.18 557.01 753.67 344.35 918.35 353.87 880.64 460.52 771.20 558.26 898.44 565.09
00029400 00000081 571.77 148.69 394.06 552.00 753.95 345.84 919.34 354.11 881.33 463.07 771.86 560.43 898.59 566.41
00029401 00000082 570.95 143.97 395.32 560.26 754.16 346.92 918.99 355.50 881.80 463.34 771.58 561.53 898.44 567.63
00029402 00000083 570.74 144.60 395.52 559.41 754.01 345.33 918.26 354.76 881.14 462.88 770.57 560.33 896.94 567.14
00029403 00000084 571.65 143.18 393.88 556.84 752.47 343.27 918.43 353.50 879.15 460.64 771.08 558.71 896.98 565.96
00029404 00000085 572.05 140.24 392.19 556.57 750.93 342.45 918.87 352.02 878.20 459.28 771.62 558.75 896.66 565.37
00029405 00000086 572.45 140.09 391.52 554.66 750.81 342.13 919.02 351.55 877.56 457.93 773.90 558.49 897.25 564.76
00029406 00000087 573.50 143.30 390.12 551.10 752.95 342.53 917.62 350.77 876.80 459.42 778.75 560.21 894.92 565.47
00029407 00000088 574.69 146.08 385.54 551.00 756.28 346.75 918.36 354.79 879.96 462.28 784.94 566.40 895.48 571.76
00029408 00000089 577.12 150.26 385.05 549.49 758.26 353.33 919.87 362.78 881.63 465.80 783.54 567.67 897.06 574.41
00029409 00000090 581.01 151.08 384.47 550.12 758.25 358.99 921.48 366.05 883.55 467.09 782.32 566.86 903.77 571.72
00029410 00000091 582.67 155.38 386.53 545.88 758.60 360.16 922.78 368.31 882.12 468.48 780.48 565.85 904.43 571.60
00029411 00000092 586.86 148.33 384.65 551.74 759.44 361.39 925.58 368.12 882.96 473.32 782.64 570.31 906.73 575.02
00029412 00000093 586.62 145.86 387.03 564.33 763.14 366.28 925.40 372.14 885.61 480.97 785.21 579.24 903.77 583.40
00029413 00000094 586.06 150.34 385.35 561.58 765.64 368.89 924.65 373.53 887.85 484.63 787.06 582.68 901.98 586.43
00029414 00000095 586.31 152.80 385.85 558.81 765.38 370.84 926.06 374.52 887.56 486.36 786.75 583.00 903.76 585.81
00029415 00000096 586.35 151.67 386.59 562.85 764.00 371.35 928.35 376.19 889.55 486.57 783.79 583.81 906.29 587.38
00029416 00000097 582.61 150.36 391.36 572.20 763.00 370.69 925.75 376.32 889.40 485.03 777.41 581.51 904.20 585.91
00029417 00000098 577.29 152.69 397.37 574.68 762.82 369.55 925.37 378.70 888.08 485.95 770.40 578.83 900.09 586.41
00029418 00000099 575.04 144.24 398.18 581.46 759.72 369.60 925.65 378.99 886.39 486.48 765.13 576.98 900.48 584.70
00029419 00000100 575.31 145.87 394.00 573.43 758.45 375.24 922.63 382.72 883.95 484.64 762.92 572.31 899.28 578.60
00029420 00000101 575.25 140.19 394.04 569.11 755.96 368.70 922.67 377.55 881.20 479.42 764.10 565.55 901.19 572.58
00029421 00000102 575.03 136.25 392.86 572.17 756.63 360.41 922.80 369.62 883.99 473.19 769.68 564.88 902.62 571.98
00029422 00000103 574.63 140.24 390.55 560.33 757.06 355.10 921.21 362.34 882.81 468.39 777.16 563.36 902.08 568.44
00029423 00000104 575.85 140.99 387.77 553.38 756.71 352.83 920.53 357.97 883.12 464.65 779.86 560.86 904.34 564.24
00029424 00000105 574.61 141.29 388.31 550.39 755.66 348.41 920.05 352.49 883.01 462.22 780.56 558.77 904.28 561.24
00029425 00000106 573.01 139.82 390.68 553.81 757.26 346.73 918.92 349.46 885.91 461.05 782.71 557.60 905.74 558.97
00029426 00000107 573.26 139.60 387.92 551.83 757.28 354.15 918.40 353.28 887.68 458.87 784.18 557.17 906.74 555.69
00029427 00000108 574.00 142.76 386.87 549.54 758.10 350.91 916.00 352.87 883.83 454.02 785.01 557.85 900.95 558.38
00029428 00000109 570.81 139.27 392.46 562.73 757.59 343.24 915.32 350.18 882.05 454.68 784.84 561.74 896.45 565.94
00029429 00000110 568.85 145.89 398.36 567.72 756.01 342.23 912.14 350.39 878.30 457.95 780.24 564.89 892.12 570.05
00029430 00000111 569.17 149.90 401.74 570.54 756.19 345.33 916.39 358.38 879.26 464.34 770.27 567.63 892.00 577.38
00029431 00000112 571.56 154.25 399.99 574.61 759.31 351.35 918.93 366.55 883.41 467.27 766.13 570.57 894.22 582.86
00029432 00000113 573.17 152.38 399.21 580.38 762.39 360.10 923.89 375.19 888.20 473.67 765.96 572.26 899.26 584.62
00029433 00000114 576.33 145.91 398.49 589.36 766.06 364.50 928.29 377.16 894.30 480.11 767.98 575.17 906.06 585.83
00029434 00000115 579.99 148.03 393.99 584.17 767.70 367.39 930.56 376.08 898.37 483.66 772.02 577.45 911.38 584.95
00029435 00000116 581.92 151.26 390.86 573.47 768.75 368.24 931.90 376.02 899.29 483.46 775.86 576.18 913.71 582.86
00029436 00000117 581.86 148.66 390.24 574.58 769.10 366.55 929.99 374.24 898.57 481.72 775.53 572.57 913.98 579.15
00029437 00000118 579.10 146.31 390.92 572.74 767.25 364.07 928.59 372.44 897.74 478.08 778.00 570.75 913.64 577.43
00029438 00000119 578.94 143.58 389.15 567.14 766.95 359.99 929.83 367.28 898.46 472.84 783.13 566.97 916.05 572.46
00029439 00000120 578.91 149.71 388.10 552.11 767.33 356.37 930.59 362.39 899.27 468.78 786.01 564.40 915.51 568.86
00029440 00000121 579.59 148.94 387.66 549.66 767.38 353.33 929.56 358.02 899.27 464.17 787.62 563.15 915.59 566.52
00029441 00000122 579.10 149.99 389.50 547.73 766.98 349.71 926.90 352.00 897.88 460.58 789.97 562.01 915.55 563.14
00029442 00000123 578.74 143.96 387.98 550.55 764.81 345.07 925.04 347.07 895.72 454.14 790.86 559.41 914.10 560.10
00029443 DELETE   577.71 143.22 386.39 546.03 757.88 343.93 917.70 346.77 884.29 449.73 783.67 551.59 905.30 552.43
00029444 DELETE   574.14 147.39 391.46 539.43 745.97 341.04 911.99 349.07 868.02 444.95 767.78 544.65 895.15 549.22
00029445 DELETE   570.28 141.35 394.16 544.81 734.79 335.35 902.19 345.90 852.93 440.57 756.93 541.50 882.95 548.30
00029446 00000127 568.44 143.41 394.66 543.23 730.38 330.74 897.55 342.15 848.38 439.85 753.52 541.35 877.09 548.91
00029447 00000128 569.14 142.65 395.44 544.27 730.06 330.39 898.96 341.70 849.11 439.90 754.69 542.12 879.29 549.41
00029448 00000129 571.42 145.15 395.74 544.10 731.48 330.85 900.41 342.40 851.19 439.48 754.40 541.95 880.66 549.70
00029449 00000130 573.68 146.04 394.94 544.48 734.59 331.37 903.16 342.64 854.80 441.63 758.42 543.19 886.31 550.78
00029450 00000131 573.72 146.60 396.11 544.59 738.17 330.61 903.78 344.43 857.08 438.82 759.94 541.03 887.18 550.68
00029451 00000132 575.15 147.90 396.14 544.73 738.86 330.30 904.34 345.55 857.70 437.97 757.79 539.95 887.93 550.92
00029452 00000133 575.21 149.84 395.92 542.84 738.40 329.66 905.10 345.22 857.13 438.58 756.71 540.14 886.64 551.43
00029453 00000134 574.89 149.31 395.92 542.81 737.62 330.14 905.10 344.96 856.90 439.27 755.86 540.88 886.03 551.69
00029454 00000135 574.82 153.05 396.53 539.05 736.62 330.34 904.60 346.21 854.66 440.72 753.65 540.34 884.58 552.03
00029455 00000136 573.83 152.86 397.51 540.84 735.45 330.88 904.29 346.86 853.14 442.28 752.64 541.82 884.01 553.53
00029456 00000137 573.04 154.68 398.24 540.42 734.93 331.34 904.76 347.78 852.88 444.41 751.67 542.41 883.66 554.56
00029457 00000138 572.24 155.41 399.78 540.64 734.31 331.68 904.60 348.41 851.67 445.27 750.68 543.40 882.40 555.79
00029458 00000139 570.79 156.39 401.13 540.88 733.74 331.56 904.22 348.85 850.71 445.97 750.06 543.81 881.69 556.53
00029459 00000140 570.81 156.21 401.44 541.04 734.11 331.74 904.32 349.32 850.56 446.35 750.06 543.68 881.70 556.58
00029460 00000141 570.94 157.12 402.65 543.75 736.03 331.22 903.19 348.64 850.28 446.18 752.41 546.19 878.63 558.79
00029461 00000142 571.34 154.56 402.94 547.21 736.87 332.90 902.89 349.30 851.33 447.69 755.30 549.18 878.18 560.97
00029462 00000143 572.47 154.15 400.86 546.19 736.98 333.24 903.02 348.52 851.76 447.34 759.05 550.49 879.58 560.96
00029463 00000144 573.32 151.09 400.12 546.82 739.47 334.80 902.95 351.61 852.05 446.29 757.97 546.21 880.51 558.06
00029464 00000145 575.94 151.79 398.47 542.56 745.20 342.51 905.68 356.36 857.00 447.31 759.60 546.61 884.04 556.49
00029465 00000146 576.94 150.67 397.92 544.00 746.05 342.29 907.22 357.26 857.62 448.28 759.49 546.73 884.85 557.59
00029466 00000147 575.96 151.38 396.75 543.78 741.53 339.13 905.45 354.27 854.83 449.24 758.16 549.32 880.27 560.31
00029467 00000148 577.50 155.41 396.07 540.05 738.45 338.78 906.69 353.45 854.54 452.34 758.10 552.62 882.06 563.36
00029468 00000149 578.93 156.20 395.68 538.62 739.51 340.28 908.59 355.34 855.47 456.31 759.58 554.76 882.25 565.99
00029469 00000150 578.91 160.05 393.20 536.36 745.53 346.87 909.40 366.51 854.39 459.97 760.38 558.53 874.58 573.86
00029470 00000151 580.43 168.34 395.11 539.19 754.94 353.99 917.57 378.16 860.85 468.90 762.98 566.55 877.18 585.71
00029471 00000152 579.78 168.38 396.26 543.47 755.49 358.26 918.75 383.46 860.40 474.82 762.42 569.54 877.86 589.56
00029472 00000153 577.67 165.61 401.94 551.73 752.12 362.87 915.67 385.45 858.80 478.46 761.01 572.98 880.60 590.94
00029473 00000154 578.09 165.94 403.59 552.15 751.82 361.57 917.70 383.63 860.00 481.33 761.34 573.87 882.36 591.25
00029474 00000155 579.99 169.72 402.74 546.81 753.07 360.09 919.96 382.64 861.60 480.20 762.55 572.77 884.01 590.53
00029475 00000156 582.91 171.00 399.44 544.78 753.38 358.97 922.94 381.42 863.38 480.83 761.08 572.06 887.02 589.95
00029476 00000157 581.18 166.75 401.59 552.00 755.05 357.88 924.07 380.25 867.77 480.58 759.49 571.22 889.40 589.20
00029477 00000158 580.42 164.19 401.26 557.11 755.95 357.46 922.53 380.50 869.74 478.41 757.03 569.97 888.10 588.92
00029478 00000159 579.74 166.23 401.54 557.12 757.19 357.25 923.19 380.97 873.02 479.07 754.36 567.45 890.38 587.14
00029479 00000160 581.44 167.42 398.41 555.42 758.02 357.32 923.74 381.98 875.28 478.02 752.40 564.55 892.08 585.21
00029480 00000161 581.48 165.99 399.61 558.42 759.70 356.73 924.17 382.37 876.96 477.84 751.50 563.01 893.18 584.67
00029481 00000162 582.66 165.79 398.38 553.06 758.57 354.87 925.26 379.91 875.94 475.27 752.15 560.10 895.38 581.05
00029482 00000163 584.13 162.45 397.01 549.84 759.75 351.24 925.10 375.63 875.09 469.20 757.50 558.36 894.32 578.38
00029483 00000164 585.49 163.63 395.64 544.96 758.78 349.39 924.62 371.34 875.25 467.22 760.49 558.18 894.32 576.17
00029484 00000165 586.47 164.22 394.83 546.53 760.96 353.00 924.86 374.79 877.29 468.86 762.60 559.03 897.20 577.06
00029485 00000166 589.83 166.97 392.06 544.10 768.05 358.07 926.81 379.99 881.71 468.27 765.06 557.08 898.60 575.91
00029486 00000167 589.77 165.83 393.62 545.55 770.63 357.21 927.47 379.13 882.97 467.54 766.88 556.29 899.39 575.00
00029487 00000168 590.70 162.62 393.05 546.90 770.32 356.19 929.96 383.18 882.59 466.21 764.64 554.20 899.23 577.18
00029488 00000169 595.42 161.20 393.41 545.34 773.90 352.01 933.56 377.97 884.26 466.44 768.17 552.55 902.26 574.54
00029489 00000170 598.35 161.44 393.33 543.99 775.92 351.65 937.18 378.75 887.69 465.47 768.53 549.17 907.82 572.25
