Video ID: 	C6U8-736aGM
H: 	1080
W: 	1920
FPS: 	29.97002997002997

FRAME INDEX X0 Y0 W H [Landmarks (5 Points)]

00010279 00000000 327.80 167.00 536.55 771.42 411.35 448.87 614.18 432.60 464.18 571.67 445.35 705.28 620.26 693.11
00010280 DELETE   327.21 166.57 535.77 769.04 408.64 447.98 610.63 431.10 460.28 569.92 442.47 703.88 615.94 691.38
00010281 00000002 327.28 162.88 537.81 768.31 409.74 444.66 610.80 426.91 459.94 564.46 442.67 700.54 612.44 687.75
00010282 00000003 331.77 161.73 533.36 748.23 411.41 445.69 612.33 421.11 463.43 559.45 448.41 698.91 608.38 681.20
00010283 00000004 333.40 151.44 541.05 748.79 410.22 440.43 620.32 422.93 464.19 557.23 443.34 692.99 609.23 680.10
00010284 00000005 340.92 143.96 539.10 753.29 418.91 442.49 623.53 427.17 469.99 559.35 450.48 692.35 610.38 681.45
00010285 00000006 351.86 146.26 532.94 756.81 425.69 452.15 626.85 435.53 472.57 570.22 457.38 701.88 615.30 690.01
00010286 00000007 353.20 164.41 530.79 768.43 428.76 462.52 626.61 441.58 473.22 579.53 465.39 719.58 617.77 704.24
00010287 00000008 353.34 163.98 537.72 788.11 432.64 471.05 627.96 449.63 476.32 590.99 469.87 736.15 624.97 720.03
00010288 00000009 350.96 170.24 533.30 783.62 423.41 471.06 623.72 453.68 463.65 592.76 454.72 730.63 622.33 717.22
00010289 00000010 350.13 168.09 526.88 769.03 418.55 469.35 618.94 453.02 457.16 588.39 448.60 719.57 619.12 707.41
00010290 DELETE   348.99 164.56 525.76 762.11 416.92 466.04 617.23 449.53 453.98 580.34 442.50 709.51 614.20 697.91
00010291 DELETE   348.14 161.21 525.04 761.21 417.83 457.02 617.51 441.16 455.48 572.57 440.47 700.07 613.10 689.05
00010292 DELETE   349.36 159.25 526.76 767.04 423.37 452.09 618.73 437.01 458.81 566.43 447.03 698.74 614.07 688.29
00010293 00000014 351.60 161.73 528.62 764.95 426.27 447.81 622.01 434.33 461.10 562.75 449.17 697.53 615.19 688.19
00010294 00000015 353.07 161.08 529.01 771.97 427.34 446.25 624.54 435.94 461.08 564.58 447.58 697.95 617.03 691.16
00010295 00000016 354.80 161.56 526.60 776.19 426.31 450.16 623.98 440.84 459.10 572.28 446.59 701.70 620.47 695.52
00010296 00000017 355.32 166.83 526.36 774.90 425.97 454.26 625.21 445.22 460.62 579.70 446.55 708.47 621.48 702.37
00010297 00000018 353.77 167.27 528.14 777.86 424.86 462.04 625.23 451.95 460.61 588.34 446.35 716.54 621.28 709.40
00010298 00000019 352.59 175.12 529.32 774.69 423.07 467.40 622.93 456.60 460.24 593.88 447.69 723.95 620.43 715.92
00010299 00000020 351.28 172.99 531.01 781.97 421.75 468.52 621.96 458.00 459.36 597.37 446.76 727.04 621.11 719.14
00010300 00000021 352.36 173.19 529.69 781.57 422.15 465.98 622.43 455.96 458.85 595.23 446.37 725.04 621.68 717.52
00010301 00000022 353.54 172.09 528.78 783.24 422.95 464.16 623.36 453.67 459.51 592.79 447.70 723.01 624.82 715.05
00010302 00000023 354.60 168.77 529.03 789.49 423.42 462.06 623.62 450.71 459.08 590.41 450.00 722.55 628.11 713.70
00010303 00000024 356.43 167.57 528.01 794.06 425.22 461.72 623.37 450.41 458.78 591.43 453.43 725.47 629.84 716.50
00010304 00000025 358.90 177.94 523.51 787.49 429.78 466.11 619.82 454.98 466.60 592.57 461.93 727.97 629.85 720.14
00010305 00000026 352.24 169.96 530.75 795.02 419.93 469.15 617.37 458.67 453.65 602.11 451.80 736.01 628.02 727.31
00010306 00000027 346.99 177.82 529.41 789.12 413.55 473.37 611.15 465.41 447.38 608.82 443.99 737.84 623.42 731.10
00010307 00000028 338.50 181.20 530.73 780.62 406.73 477.59 604.35 469.12 442.79 612.88 438.30 738.42 613.17 731.45
00010308 00000029 332.99 186.11 530.75 773.96 398.13 482.37 596.07 475.51 431.98 619.73 428.87 738.59 604.75 733.09
00010309 00000030 326.96 188.39 532.95 771.89 391.60 485.78 589.95 477.61 425.94 624.29 426.43 741.61 602.89 734.93
00010310 00000031 323.84 188.91 532.33 767.93 387.17 486.04 584.64 475.80 421.20 623.09 423.76 741.85 599.22 733.50
00010311 00000032 323.00 186.67 530.91 768.23 385.77 484.13 582.99 472.73 419.81 620.21 423.04 740.58 597.46 731.26
00010312 00000033 323.55 184.70 532.69 775.49 387.70 484.51 582.11 471.12 419.46 616.96 426.21 742.18 599.89 731.13
00010313 00000034 324.94 185.66 534.57 780.93 390.72 486.05 582.78 470.21 422.87 618.12 432.63 746.21 604.42 732.85
00010314 00000035 325.96 188.85 534.86 780.19 391.97 490.32 582.26 472.95 425.99 624.84 439.59 752.77 605.74 737.86
00010315 DELETE   323.65 193.91 538.73 778.92 388.27 502.02 580.10 479.66 425.88 635.39 442.07 768.02 602.59 749.20
00010316 DELETE   318.48 205.67 535.94 776.73 379.48 522.99 564.79 492.12 414.17 652.07 438.10 781.92 594.80 758.57
00010317 DELETE   312.62 215.24 529.53 755.51 371.68 529.45 564.63 503.20 410.56 670.21 438.88 794.45 590.46 771.34
00010318 00000039 302.31 216.61 525.81 759.88 359.39 535.03 552.54 507.81 398.85 675.25 425.99 800.41 578.21 777.11
00010319 00000040 285.82 224.76 539.79 756.26 352.34 534.84 533.21 512.05 388.76 683.83 419.94 796.27 564.09 775.38
00010320 00000041 275.75 225.04 540.84 760.26 342.88 534.97 528.03 509.33 383.41 684.24 414.34 796.57 567.72 772.57
00010321 00000042 274.22 223.21 538.66 757.75 339.13 534.18 527.07 507.45 382.35 682.28 409.97 793.17 568.39 768.01
00010322 00000043 273.33 223.27 540.42 755.36 338.13 533.42 528.51 507.44 383.22 682.65 407.28 789.40 570.86 764.85
00010323 00000044 273.44 227.88 539.51 749.05 337.71 534.25 529.57 508.69 384.41 684.05 407.41 789.18 572.01 765.01
00010324 DELETE   272.77 232.31 539.62 748.40 340.17 547.91 533.02 522.47 389.10 688.27 409.56 794.45 573.73 770.07
00010325 00000046 271.50 230.35 541.74 754.94 340.71 557.91 532.95 528.47 388.88 693.47 411.32 801.95 575.81 774.10
00010326 00000047 270.30 233.81 529.26 751.94 334.63 555.68 530.15 522.00 393.19 689.28 404.13 804.33 566.13 775.98
00010327 00000048 262.78 234.18 533.45 755.92 329.05 551.13 525.18 520.58 386.13 690.54 398.83 804.89 563.21 779.04
00010328 00000049 266.51 223.74 535.95 764.47 326.42 544.88 519.31 517.60 376.78 691.44 392.53 802.09 563.94 777.72
00010329 00000050 264.46 231.99 531.78 757.24 329.50 544.51 523.97 515.08 382.91 683.52 397.65 803.04 559.56 778.50
00010330 00000051 270.32 226.54 539.70 762.46 331.98 540.34 523.24 519.83 371.23 693.37 400.66 801.40 565.41 781.00
00010331 00000052 275.60 216.55 534.43 774.41 333.08 535.68 524.00 511.17 378.73 688.76 398.98 799.87 568.39 777.66
00010332 00000053 279.43 210.29 538.93 784.12 349.46 536.59 529.59 513.26 387.49 686.14 415.97 804.49 573.02 783.06
00010333 00000054 291.07 223.80 533.59 773.03 354.44 534.23 529.91 518.29 380.66 688.21 417.84 797.42 570.88 780.71
00010334 00000055 297.11 220.06 533.19 774.53 359.60 529.87 534.72 516.50 381.81 684.22 418.38 792.26 572.99 777.65
00010335 00000056 303.69 215.99 523.25 772.82 359.27 525.81 546.59 511.71 385.67 679.04 422.74 793.41 580.83 779.65
00010336 00000057 308.53 215.43 519.62 765.45 362.79 523.13 549.79 510.69 387.22 674.47 422.70 788.47 579.10 776.09
00010337 00000058 310.54 213.08 519.67 763.63 365.80 516.17 553.11 508.63 388.72 670.00 421.26 782.78 576.93 774.78
00010338 00000059 313.25 207.90 519.28 764.21 368.82 509.11 556.00 505.09 389.95 665.92 421.16 778.15 577.76 772.84
00010339 00000060 316.43 202.66 522.04 769.53 372.32 505.15 561.00 500.54 394.45 661.19 423.66 776.71 582.50 771.03
00010340 00000061 320.11 204.77 520.71 768.75 376.26 501.89 563.90 497.42 397.80 659.18 427.37 774.97 587.57 769.34
00010341 00000062 328.75 216.18 515.28 762.77 384.83 510.88 562.14 497.92 405.57 649.49 422.55 769.97 582.99 761.39
00010342 00000063 329.64 213.29 518.47 766.09 387.91 506.56 568.37 495.17 409.69 647.80 423.32 766.70 585.38 759.48
00010343 00000064 328.19 197.01 529.71 767.22 384.03 489.53 580.44 489.40 411.27 649.03 429.94 761.92 599.41 760.54
00010344 00000065 331.73 196.78 528.05 762.91 388.64 485.45 585.58 486.88 416.93 644.95 431.91 757.59 601.62 757.78
00010345 00000066 331.72 193.69 529.63 772.63 391.69 487.34 588.30 484.32 420.92 638.38 427.57 754.42 600.14 751.90
00010346 00000067 335.10 191.62 528.14 770.92 394.40 486.23 592.55 481.84 424.71 633.35 427.59 752.12 599.53 748.83
00010347 00000068 338.05 189.12 526.11 772.09 397.65 483.13 596.21 479.24 428.52 629.37 429.10 748.08 601.06 745.34
00010348 00000069 341.85 186.03 524.04 778.16 401.96 480.36 599.52 477.67 432.03 626.56 429.47 744.96 604.23 743.08
00010349 00000070 345.63 181.85 524.25 783.11 405.31 478.21 602.65 475.28 434.69 622.67 431.16 742.96 607.58 740.82
00010350 00000071 355.59 172.91 523.66 780.70 411.79 472.08 607.15 470.29 441.90 620.48 439.91 740.73 617.25 738.99
00010351 00000072 360.92 166.82 527.03 791.33 419.48 471.37 611.99 469.42 446.97 615.18 445.43 736.04 624.50 733.79
00010352 00000073 363.82 166.36 527.35 786.88 425.18 468.37 615.40 464.22 451.27 608.38 454.75 732.18 628.24 728.17
00010353 DELETE   367.16 176.49 524.51 785.55 428.57 470.26 626.10 461.10 458.00 601.37 458.83 732.44 635.41 724.27
00010354 DELETE   367.34 177.89 529.38 771.76 437.93 475.41 631.83 465.64 471.49 600.19 463.15 730.27 630.62 723.34
00010355 00000076 366.94 176.36 529.05 771.89 439.46 471.37 636.94 463.52 476.61 597.82 461.98 726.93 627.66 722.06
00010356 00000077 365.98 179.63 531.63 768.49 439.41 471.92 638.69 464.83 478.09 600.58 462.31 729.10 627.12 724.95
00010357 00000078 363.86 177.68 536.08 777.92 438.84 477.52 640.10 469.81 478.56 606.06 463.89 738.13 628.68 733.30
00010358 00000079 368.58 176.21 527.39 775.98 437.14 475.59 632.38 472.26 472.96 611.54 459.25 732.50 628.24 730.31
00010359 00000080 365.20 177.61 529.71 773.86 434.17 475.49 630.40 470.36 472.01 612.97 459.91 732.88 632.08 728.76
00010360 00000081 363.14 188.97 524.05 772.82 438.50 475.66 629.15 464.19 481.93 606.92 469.66 732.33 638.21 724.00
00010361 00000082 360.14 186.54 522.87 776.03 437.89 466.99 629.31 459.06 484.13 598.98 467.86 723.55 641.35 717.86
00010362 00000083 358.65 173.81 521.64 784.81 435.07 458.53 630.16 451.96 481.45 589.60 463.58 714.22 645.07 708.96
00010363 00000084 357.99 165.71 525.91 791.60 429.35 455.30 632.24 445.60 468.61 586.99 452.88 713.84 642.88 705.85
00010364 00000085 356.42 159.94 526.41 795.26 433.73 445.54 634.46 441.63 480.88 575.36 458.32 702.19 643.07 699.47
00010365 00000086 355.23 156.61 527.89 799.41 432.31 442.86 634.46 439.64 479.06 573.56 455.73 699.53 640.96 697.37
00010366 00000087 355.91 165.40 523.79 784.95 430.11 449.71 630.63 442.51 469.76 583.24 449.20 706.71 637.36 701.35
00010367 00000088 356.65 166.63 525.40 787.20 428.77 457.40 631.19 447.06 470.39 590.57 450.08 713.15 641.03 704.74
00010368 00000089 358.27 166.20 527.55 789.49 432.93 461.81 632.22 450.99 482.13 594.10 462.54 717.92 646.04 709.23
00010369 00000090 358.88 175.41 530.12 784.61 436.10 467.78 634.17 455.68 488.22 599.93 466.70 722.24 648.71 712.48
00010370 00000091 362.98 177.70 529.31 782.05 438.44 468.76 636.78 455.60 491.34 603.24 469.36 722.64 653.39 711.66
00010371 00000092 367.18 177.07 527.21 777.54 441.47 466.59 639.46 454.43 492.93 602.19 472.01 721.39 653.93 711.26
00010372 00000093 371.62 176.92 525.97 773.81 445.41 462.86 643.37 450.53 495.60 598.08 474.81 718.34 657.78 707.91
00010373 00000094 378.83 170.83 519.77 768.29 444.81 457.74 642.22 452.73 485.29 594.09 470.27 711.34 651.73 707.51
00010374 00000095 375.72 166.84 534.47 764.35 452.82 454.49 658.46 450.82 497.96 595.70 478.79 711.49 662.10 708.53
00010375 00000096 380.44 167.54 526.61 778.00 454.17 460.23 651.82 450.43 496.02 593.37 476.36 714.09 652.73 707.72
00010376 00000097 380.18 167.94 526.63 778.51 456.10 459.41 652.76 451.03 497.04 593.03 476.93 714.24 647.19 709.41
00010377 00000098 381.03 169.22 525.09 773.00 454.31 461.66 652.13 452.08 496.30 594.21 475.26 715.02 644.99 709.28
00010378 00000099 380.64 173.45 522.28 763.89 451.44 464.36 649.19 453.86 493.85 596.04 473.47 716.42 641.67 709.91
00010379 00000100 377.88 167.66 530.02 760.92 452.82 457.25 656.71 450.91 496.09 596.44 480.17 718.65 648.06 714.99
00010380 00000101 376.13 177.11 528.79 779.63 450.95 459.01 643.57 448.60 495.36 591.76 484.15 720.40 652.55 711.91
00010381 00000102 375.75 171.11 529.41 785.59 449.54 455.91 642.65 446.03 492.44 589.90 482.01 713.08 660.18 704.03
00010382 00000103 373.46 164.30 531.17 790.89 447.35 452.86 644.14 443.35 491.46 584.46 478.52 709.73 659.76 701.10
00010383 00000104 375.49 157.91 528.38 794.62 451.57 453.39 645.92 444.20 485.40 585.60 475.19 711.11 652.61 704.60
00010384 00000105 375.57 151.52 527.97 800.00 452.27 452.75 646.33 443.22 486.60 584.30 476.35 713.55 647.12 707.38
00010385 00000106 377.87 150.57 524.84 794.06 451.16 457.50 645.00 444.51 486.60 586.62 475.57 714.20 642.72 705.80
00010386 00000107 376.56 149.99 529.86 770.04 448.49 451.49 652.34 445.06 488.25 587.70 474.58 709.13 647.66 704.81
00010387 00000108 377.82 151.49 527.54 767.96 448.46 451.97 652.33 446.37 488.58 590.35 474.52 709.83 646.92 706.20
00010388 00000109 383.56 155.52 512.43 765.92 444.70 455.83 642.16 450.90 484.45 588.87 468.42 705.94 637.17 702.48
00010389 00000110 378.43 156.55 527.24 763.34 448.75 453.76 651.60 449.92 488.04 594.71 475.25 710.80 646.63 708.66
00010390 00000111 382.71 159.78 511.01 764.02 444.10 456.94 639.98 454.13 482.54 593.55 467.32 706.09 637.31 704.25
00010391 00000112 381.06 159.11 513.00 768.00 443.32 456.59 638.31 454.23 480.27 593.66 466.03 706.65 636.45 705.25
00010392 00000113 379.66 159.40 513.66 766.40 442.55 457.10 637.38 454.21 479.53 593.79 465.64 706.14 636.24 704.20
00010393 00000114 379.01 160.27 513.56 765.17 441.92 457.43 636.79 454.20 479.41 594.47 465.92 706.20 636.39 703.92
00010394 00000115 377.95 162.51 514.23 765.59 441.82 458.64 636.54 454.52 480.03 595.40 466.23 707.58 636.94 704.49
00010395 00000116 378.72 163.26 514.21 765.35 442.11 459.50 636.57 456.13 479.38 597.34 466.09 707.89 637.64 705.40
00010396 00000117 379.03 165.08 515.73 769.03 442.22 460.73 636.92 456.98 479.11 598.45 466.01 710.60 637.98 707.72
00010397 00000118 379.03 166.50 516.34 766.65 442.28 461.19 637.16 457.28 479.56 598.46 466.34 710.59 638.39 707.69
00010398 00000119 379.07 166.87 515.28 765.59 442.09 461.84 637.12 457.41 479.79 598.84 466.78 711.12 638.29 707.78
00010399 00000120 378.93 167.05 515.23 766.33 442.14 461.89 637.02 457.47 479.71 598.87 466.58 711.07 638.46 707.74
00010400 00000121 379.06 166.58 516.16 765.53 442.61 461.32 637.52 456.48 480.14 598.69 467.45 710.49 639.13 706.65
00010401 00000122 379.09 165.28 515.23 764.66 442.58 461.53 636.74 457.17 479.80 598.45 467.33 709.78 638.01 706.36
00010402 00000123 379.18 165.20 516.13 766.64 442.99 461.73 636.79 457.00 479.78 598.62 467.84 709.98 638.86 706.11
00010403 00000124 379.18 165.31 515.76 766.27 442.99 461.55 636.46 457.10 479.63 598.62 467.67 710.04 637.80 706.47
00010404 00000125 379.94 165.83 515.37 763.38 443.43 461.54 637.08 457.20 480.07 597.77 467.82 708.50 638.52 704.95
00010405 00000126 381.02 165.04 514.31 761.38 443.81 461.49 636.78 457.05 480.21 596.78 468.26 707.71 637.56 704.18
00010406 00000127 381.23 164.28 514.80 762.45 443.48 461.12 637.22 456.33 480.04 596.91 468.74 707.99 637.82 704.23
00010407 00000128 380.43 163.99 514.66 763.11 443.18 461.30 636.44 455.55 480.10 596.74 469.29 708.28 637.89 703.65
00010408 00000129 380.58 163.77 513.23 760.03 442.62 461.41 635.53 454.83 479.15 596.20 469.32 708.16 636.87 702.97
00010409 00000130 380.29 163.03 513.37 760.05 442.69 461.45 635.09 455.38 478.66 595.61 468.57 707.94 635.27 703.27
00010410 00000131 380.12 162.55 512.31 757.23 442.56 461.43 635.10 455.09 479.08 594.48 468.53 707.59 633.71 702.81
00010411 00000132 379.57 162.66 512.15 756.48 442.48 461.28 634.67 455.04 478.63 593.39 467.90 707.00 632.99 702.30
00010412 00000133 379.58 161.57 512.17 758.28 442.10 460.33 634.55 453.18 478.09 592.23 467.52 706.69 633.27 701.20
00010413 00000134 380.01 160.92 512.14 757.15 442.64 459.84 634.30 452.07 478.40 590.39 468.12 705.84 632.43 699.89
00010414 00000135 380.08 161.18 511.61 754.84 442.52 459.15 635.11 450.94 479.48 590.01 468.62 705.32 633.66 699.01
00010415 00000136 380.27 160.35 512.50 755.95 442.71 459.15 635.06 450.11 478.95 588.95 469.23 704.86 635.13 697.68
00010416 00000137 381.28 159.48 512.31 756.75 442.81 458.38 635.20 449.17 478.27 588.21 469.62 704.28 635.90 696.82
00010417 00000138 380.66 157.57 512.81 759.26 442.50 457.70 635.68 448.35 478.76 587.95 469.37 704.47 636.18 696.97
00010418 00000139 380.99 157.22 512.98 759.84 442.77 457.70 635.77 448.10 478.72 587.41 469.43 704.89 635.10 697.27
00010419 00000140 380.56 157.34 512.79 759.42 442.95 457.86 635.66 448.19 479.10 587.21 469.34 704.99 633.81 697.42
00010420 00000141 379.96 156.06 513.33 758.65 443.10 458.30 635.39 447.82 478.71 585.68 469.75 705.61 631.61 697.58
00010421 00000142 377.56 154.62 515.29 768.55 443.43 458.63 633.62 449.84 476.31 586.76 468.68 707.94 629.39 701.27
00010422 00000143 369.78 162.60 526.84 774.39 444.18 472.29 635.62 455.35 482.32 593.01 474.78 720.97 631.44 709.12
00010423 00000144 365.06 164.78 528.57 777.71 438.31 474.88 631.89 458.53 477.32 596.89 467.86 728.56 625.94 716.89
00010424 00000145 359.40 172.09 523.89 770.61 426.42 473.12 625.24 458.97 465.76 597.58 454.39 726.23 619.59 715.92
00010425 DELETE   344.90 174.21 532.30 773.99 416.91 472.04 616.72 460.31 456.22 599.46 445.84 726.76 613.17 718.29
00010426 00000147 337.10 175.37 536.61 786.70 412.73 472.99 610.79 459.84 451.65 601.75 443.91 733.15 614.00 722.75
00010427 00000148 332.89 182.60 536.33 784.49 407.49 473.11 607.31 459.83 447.59 601.45 438.00 733.76 617.91 722.83
00010428 00000149 332.02 182.60 535.73 781.63 405.97 474.28 605.86 459.01 447.99 602.07 441.83 735.07 622.10 722.26
00010429 00000150 335.41 175.76 536.63 790.13 408.65 472.72 608.74 457.26 448.59 600.35 439.59 729.15 621.03 716.64
CROP_BBOX: 56 0 1320 1080
