Video ID: 	nNhYqLbsAGk
H: 	2160
W: 	3840
FPS: 	23.976023976023978

FRAME INDEX X0 Y0 W H [Landmarks (5 Points)]

00003162 00000000 1467.12 553.97 931.88 1149.70 1572.39 983.32 1938.19 985.34 1670.23 1266.86 1664.43 1415.62 1955.52 1416.95
00003163 00000001 1466.38 558.88 930.54 1144.47 1571.46 982.69 1936.67 984.69 1669.35 1265.84 1664.22 1414.03 1953.62 1415.23
00003164 00000002 1465.97 545.86 927.03 1158.98 1571.85 990.48 1936.38 993.19 1674.46 1278.00 1666.26 1420.08 1961.19 1421.82
00003165 DELETE   1465.04 538.69 920.98 1166.63 1570.08 1003.14 1923.92 1004.54 1669.04 1283.67 1668.42 1423.29 1958.66 1423.48
00003166 DELETE   1465.03 540.12 919.33 1163.58 1568.95 999.28 1922.01 1004.20 1665.21 1275.16 1660.51 1417.62 1949.72 1420.84
00003167 DELETE   1462.70 556.99 918.27 1154.93 1554.67 967.24 1928.22 985.80 1648.96 1263.81 1651.89 1410.36 1931.87 1422.01
00003168 00000006 1450.19 548.66 928.14 1157.15 1544.41 938.94 1920.97 964.48 1634.15 1252.10 1645.57 1398.06 1923.76 1415.55
00003169 00000007 1447.28 543.02 935.17 1163.01 1538.28 928.75 1916.18 956.39 1624.98 1252.05 1646.29 1395.02 1921.54 1413.72
00003170 00000008 1446.87 549.28 937.56 1161.38 1537.71 926.11 1917.18 954.24 1623.56 1253.79 1648.71 1395.85 1925.93 1414.45
00003171 00000009 1453.32 532.56 937.59 1192.04 1542.86 923.56 1918.71 948.29 1623.71 1254.55 1658.43 1407.44 1930.71 1422.40
00003172 00000010 1456.74 532.32 935.69 1195.33 1546.59 925.47 1921.16 948.21 1625.78 1253.21 1661.13 1411.59 1930.73 1425.11
00003173 00000011 1456.71 528.08 935.40 1196.39 1547.17 924.81 1920.91 946.28 1625.49 1248.21 1659.78 1408.45 1930.12 1420.68
00003174 00000012 1455.27 528.12 936.51 1195.40 1546.84 924.45 1922.43 945.77 1625.97 1246.11 1658.36 1406.90 1930.08 1419.04
00003175 00000013 1452.71 529.65 936.71 1195.10 1542.48 923.80 1919.77 947.26 1622.24 1251.94 1657.10 1409.13 1930.28 1422.81
00003176 00000014 1457.14 530.82 924.82 1191.14 1544.57 925.58 1915.51 953.06 1618.88 1254.27 1652.54 1408.72 1925.01 1425.75
00003177 00000015 1463.26 551.28 919.58 1171.48 1547.75 954.16 1913.92 974.00 1624.64 1253.29 1649.86 1412.12 1922.19 1423.69
00003178 DELETE   1464.36 550.33 921.20 1177.24 1549.01 950.85 1916.68 971.62 1626.87 1252.90 1651.98 1413.53 1924.83 1425.66
00003179 00000017 1460.21 544.57 925.11 1175.65 1548.70 940.16 1917.35 957.44 1628.09 1247.98 1657.13 1408.84 1929.54 1418.16
00003180 00000018 1457.03 543.22 929.27 1165.19 1545.98 932.86 1917.99 951.66 1627.69 1246.68 1656.19 1396.08 1936.51 1406.00
00003181 00000019 1455.37 542.16 930.65 1158.82 1545.42 931.53 1918.52 952.91 1629.25 1245.27 1653.15 1387.73 1935.29 1400.16
00003182 00000020 1452.89 540.71 932.34 1163.43 1542.58 929.64 1918.16 952.26 1627.66 1247.57 1651.98 1390.53 1933.00 1404.10
00003183 00000021 1450.55 537.41 932.31 1171.73 1540.64 927.62 1917.64 952.99 1624.65 1251.01 1650.71 1395.88 1927.27 1412.01
00003184 00000022 1445.96 534.07 937.99 1182.98 1538.66 923.55 1916.53 951.86 1620.57 1255.75 1651.69 1407.69 1917.31 1426.40
00003185 00000023 1446.00 530.89 938.03 1194.32 1536.34 924.36 1914.00 950.62 1613.54 1260.51 1652.99 1419.48 1913.93 1436.41
00003186 00000024 1446.43 528.30 937.87 1200.99 1534.65 922.69 1910.84 948.90 1610.39 1262.16 1653.83 1420.17 1915.94 1436.51
00003187 00000025 1456.91 543.07 940.91 1184.98 1542.71 943.86 1904.56 952.98 1614.59 1259.34 1646.93 1421.70 1921.85 1427.89
00003188 00000026 1455.35 534.59 941.12 1200.53 1543.54 943.94 1902.82 951.04 1615.30 1258.60 1650.30 1423.05 1927.49 1427.75
00003189 00000027 1453.81 529.41 941.32 1199.53 1541.85 941.50 1900.87 947.59 1612.45 1253.59 1647.62 1416.05 1929.22 1419.75
00003190 00000028 1452.94 529.12 938.74 1184.70 1541.63 940.35 1901.02 948.18 1613.41 1248.89 1644.25 1404.85 1927.77 1409.74
00003191 00000029 1440.78 522.78 934.27 1188.12 1529.98 923.08 1902.70 947.35 1611.96 1247.67 1647.00 1394.84 1922.07 1408.93
00003192 00000030 1440.21 523.71 934.24 1180.01 1530.84 925.60 1903.84 948.97 1613.13 1241.06 1640.59 1389.95 1914.93 1404.68
00003193 00000031 1440.50 531.68 934.80 1182.31 1529.66 924.37 1902.53 945.70 1609.84 1239.04 1641.11 1397.45 1913.26 1410.10
00003194 00000032 1437.82 540.18 935.43 1174.77 1526.79 920.27 1901.61 942.27 1605.75 1234.78 1637.59 1397.78 1908.39 1410.78
00003195 00000033 1451.36 549.50 933.04 1157.04 1538.15 937.11 1903.02 939.45 1609.25 1223.02 1628.06 1397.50 1908.03 1397.67
00003196 00000034 1451.24 543.71 933.49 1172.41 1539.74 935.24 1903.59 936.38 1608.98 1220.29 1629.31 1399.44 1909.04 1399.00
00003197 00000035 1453.81 543.57 933.50 1181.23 1542.71 936.11 1904.47 937.38 1609.78 1223.12 1632.00 1403.09 1913.28 1402.73
00003198 00000036 1452.43 541.95 933.71 1198.01 1539.77 942.75 1898.97 947.48 1606.71 1244.80 1637.04 1414.88 1919.10 1417.12
00003199 00000037 1452.51 535.78 932.65 1212.79 1536.22 949.39 1893.85 955.90 1599.41 1260.23 1638.42 1424.70 1926.23 1428.59
00003200 00000038 1446.40 549.93 935.42 1201.54 1532.51 956.71 1889.98 962.83 1595.98 1266.05 1636.45 1429.41 1923.44 1432.82
00003201 00000039 1443.21 550.82 940.23 1201.50 1528.68 954.91 1887.52 961.80 1589.19 1266.74 1634.10 1430.57 1923.25 1434.44
00003202 00000040 1442.41 542.11 945.33 1205.31 1528.24 947.59 1886.99 952.37 1587.57 1257.93 1633.05 1423.18 1923.80 1425.25
00003203 00000041 1444.74 544.71 946.81 1196.25 1530.94 944.47 1888.98 948.47 1589.91 1251.19 1637.79 1416.47 1924.81 1417.65
00003204 00000042 1446.11 543.08 946.56 1196.99 1532.98 945.45 1889.80 948.37 1594.85 1253.70 1642.70 1416.29 1929.93 1416.54
00003205 00000043 1443.96 542.28 947.03 1202.24 1530.83 953.19 1888.18 955.43 1593.30 1263.82 1644.19 1424.19 1934.92 1423.78
00003206 00000044 1441.41 547.22 943.64 1208.11 1528.53 962.26 1886.69 963.22 1593.55 1271.25 1641.88 1435.12 1932.69 1434.04
00003207 00000045 1440.92 550.31 945.34 1211.35 1528.21 966.24 1887.44 965.57 1594.44 1272.86 1643.28 1439.87 1932.92 1437.63
00003208 00000046 1441.86 553.52 947.42 1206.53 1528.80 961.65 1889.05 964.76 1591.05 1271.85 1640.29 1437.92 1929.15 1438.51
00003209 00000047 1445.76 544.70 942.84 1212.95 1531.95 958.52 1888.83 961.37 1593.50 1267.43 1640.49 1434.55 1927.37 1435.25
00003210 00000048 1447.14 557.75 930.69 1202.99 1541.95 977.45 1887.74 985.31 1602.86 1268.11 1647.48 1433.33 1924.79 1437.85
00003211 00000049 1447.31 553.41 928.54 1211.18 1540.95 993.82 1890.16 993.83 1608.40 1269.51 1646.21 1442.58 1925.50 1440.78
00003212 DELETE   1451.78 552.76 922.74 1206.93 1545.78 986.22 1890.23 989.60 1611.05 1268.90 1643.71 1437.00 1923.25 1438.71
00003213 00000051 1451.42 552.36 929.24 1192.47 1542.08 971.17 1893.45 976.76 1609.79 1265.94 1641.57 1429.07 1924.46 1432.47
00003214 00000052 1454.02 546.25 930.10 1183.81 1539.63 963.15 1896.40 966.32 1611.74 1264.03 1640.42 1424.17 1926.62 1425.27
00003215 00000053 1446.00 534.66 928.53 1199.67 1529.41 945.67 1904.44 960.13 1609.71 1268.17 1647.08 1425.27 1927.35 1431.34
00003216 00000054 1447.36 538.58 926.49 1189.23 1530.23 947.91 1906.07 960.80 1612.20 1268.88 1648.72 1424.50 1928.65 1429.57
00003217 00000055 1446.99 539.64 926.53 1185.56 1529.73 950.25 1906.91 961.75 1615.24 1269.30 1649.53 1423.55 1931.16 1427.57
00003218 00000056 1444.24 540.03 925.99 1184.92 1528.90 954.87 1905.63 963.94 1617.13 1271.55 1650.04 1425.95 1930.65 1428.20
00003219 00000057 1443.03 539.42 927.19 1184.95 1528.73 956.80 1905.43 965.18 1616.98 1272.75 1650.61 1426.99 1931.95 1428.59
00003220 00000058 1442.92 540.57 928.17 1182.99 1528.28 956.82 1906.43 964.68 1618.13 1272.62 1650.23 1426.64 1932.05 1427.97
00003221 00000059 1444.22 542.05 926.92 1180.67 1528.94 957.18 1906.65 964.68 1618.71 1272.10 1650.94 1426.98 1932.30 1428.09
00003222 00000060 1444.31 543.71 927.62 1178.31 1527.99 958.69 1906.19 964.95 1618.02 1271.32 1650.05 1426.25 1933.12 1426.36
00003223 00000061 1442.84 542.68 928.91 1178.85 1527.04 960.61 1905.95 965.24 1617.83 1270.68 1648.89 1425.94 1934.30 1424.79
00003224 00000062 1448.42 546.75 927.33 1162.13 1538.20 981.85 1895.25 979.19 1622.39 1270.53 1642.46 1421.55 1934.97 1417.44
00003225 00000063 1445.28 554.37 927.04 1154.90 1539.62 1001.74 1898.01 994.53 1629.16 1272.56 1642.05 1425.27 1934.96 1417.19
00003226 00000064 1443.96 555.09 925.96 1157.10 1539.46 1001.24 1900.57 996.02 1631.87 1276.87 1643.44 1425.89 1936.99 1419.46
00003227 00000065 1447.58 548.55 926.79 1167.94 1540.91 987.83 1899.15 988.13 1627.82 1277.88 1643.72 1424.28 1936.85 1422.46
00003228 00000066 1446.03 557.20 930.51 1158.36 1537.44 983.31 1898.08 982.04 1625.81 1277.39 1643.78 1424.42 1934.96 1421.35
00003229 00000067 1444.80 555.82 932.84 1163.77 1535.53 981.33 1897.71 982.49 1623.57 1281.96 1642.87 1427.16 1932.73 1426.19
00003230 00000068 1444.71 563.17 935.96 1163.21 1534.17 980.89 1897.89 983.39 1620.99 1285.46 1644.44 1430.76 1932.61 1430.73
00003231 00000069 1442.81 560.53 943.90 1180.24 1535.13 981.89 1900.40 984.08 1621.61 1291.67 1650.04 1438.24 1937.56 1438.15
00003232 00000070 1443.98 567.03 941.81 1183.31 1535.52 983.77 1901.07 986.14 1621.80 1296.76 1652.31 1444.36 1938.45 1444.48
00003233 00000071 1446.62 566.50 939.40 1187.34 1535.68 983.11 1901.07 986.25 1622.22 1297.37 1650.88 1446.91 1935.33 1448.06
00003234 00000072 1445.85 566.73 939.10 1191.43 1535.00 982.75 1901.59 987.16 1621.97 1298.84 1649.79 1451.37 1932.74 1453.74
00003235 00000073 1444.70 571.51 939.89 1191.93 1534.03 984.88 1901.38 988.25 1621.76 1299.62 1650.06 1458.46 1929.58 1459.93
00003236 00000074 1446.01 569.68 937.44 1201.52 1535.80 986.37 1901.75 988.36 1623.01 1299.28 1652.32 1464.49 1928.01 1465.04
00003237 00000075 1449.26 563.44 932.65 1212.19 1540.46 988.57 1900.78 994.44 1622.49 1300.95 1654.38 1464.27 1929.60 1468.11
00003238 00000076 1452.52 578.90 927.42 1195.21 1551.19 1010.91 1904.68 1012.67 1632.21 1301.15 1658.41 1468.02 1929.89 1468.03
00003239 00000077 1453.57 569.83 930.70 1206.80 1552.06 1009.62 1907.36 1012.04 1633.26 1302.40 1659.93 1467.44 1936.13 1468.30
00003240 00000078 1454.70 573.67 928.97 1201.68 1550.62 1003.30 1906.94 1003.83 1633.44 1300.88 1659.56 1464.71 1939.57 1463.96
00003241 00000079 1447.80 575.54 936.33 1190.68 1542.05 996.40 1905.62 995.73 1630.44 1302.61 1658.44 1460.73 1942.06 1458.61
00003242 00000080 1445.42 573.67 938.85 1175.37 1537.70 990.54 1903.38 992.08 1626.66 1300.56 1654.98 1449.28 1939.46 1448.59
00003243 00000081 1442.31 577.42 941.71 1158.97 1535.55 989.12 1900.64 991.29 1625.09 1298.42 1653.13 1441.96 1938.54 1441.58
00003244 00000082 1437.46 576.90 944.28 1153.55 1530.67 990.17 1897.96 991.77 1622.67 1299.10 1650.41 1439.43 1938.39 1438.67
00003245 00000083 1436.08 582.59 941.41 1140.64 1528.82 993.80 1894.34 992.73 1621.83 1298.32 1649.21 1435.62 1940.53 1432.32
00003246 00000084 1432.78 587.72 941.57 1136.58 1527.79 994.93 1889.27 994.28 1616.52 1296.56 1646.92 1431.95 1937.52 1428.65
00003247 00000085 1433.44 589.25 939.08 1133.28 1528.89 994.91 1887.54 993.80 1615.11 1293.44 1645.35 1426.76 1937.01 1422.77
00003248 00000086 1430.39 588.98 939.69 1134.33 1526.13 994.32 1886.82 995.41 1611.31 1295.11 1641.73 1425.60 1938.39 1423.02
00003249 00000087 1425.79 591.11 939.95 1133.11 1523.39 994.38 1885.96 997.38 1610.03 1297.99 1639.69 1425.50 1938.96 1424.08
00003250 00000088 1425.04 593.28 937.85 1132.49 1523.14 994.74 1885.14 998.05 1609.87 1298.62 1639.80 1426.00 1939.10 1424.57
00003251 00000089 1424.53 592.66 938.54 1132.15 1522.04 994.50 1885.90 997.50 1610.76 1299.54 1640.36 1426.13 1940.51 1424.48
00003252 00000090 1422.79 593.16 939.88 1132.02 1520.82 993.82 1884.83 997.24 1610.11 1300.88 1641.38 1426.39 1941.05 1425.07
00003253 00000091 1421.09 592.09 941.72 1134.00 1520.56 993.57 1884.49 997.44 1609.45 1301.16 1640.71 1427.41 1939.54 1426.74
00003254 00000092 1422.22 591.20 941.13 1135.65 1521.03 993.32 1884.10 997.37 1608.95 1301.61 1641.31 1428.82 1939.23 1428.44
00003255 00000093 1423.22 593.87 941.21 1134.81 1521.82 995.29 1884.26 998.75 1610.02 1305.09 1644.08 1432.34 1940.49 1431.38
00003256 00000094 1422.66 592.61 941.68 1135.61 1521.44 994.92 1883.52 998.23 1609.27 1304.31 1643.72 1431.76 1939.61 1430.67
00003257 00000095 1422.44 586.69 942.40 1140.44 1520.20 993.80 1881.78 996.37 1607.93 1302.96 1642.14 1431.48 1937.85 1430.01
00003258 00000096 1421.80 590.40 942.52 1140.41 1520.46 996.25 1882.06 999.34 1608.30 1308.15 1644.56 1435.21 1940.14 1433.92
00003259 00000097 1420.86 592.21 943.08 1138.38 1519.56 997.05 1881.70 999.25 1607.64 1308.14 1644.50 1435.76 1940.05 1433.63
00003260 00000098 1423.15 594.42 940.78 1135.53 1520.44 995.09 1881.83 998.52 1607.36 1306.33 1643.60 1433.79 1938.75 1432.64
00003261 00000099 1422.87 595.14 940.77 1136.91 1520.28 997.31 1881.49 1000.17 1607.04 1308.57 1644.38 1437.67 1938.13 1436.09
00003262 00000100 1421.84 591.33 942.09 1144.65 1519.95 1000.93 1883.06 1003.09 1608.51 1313.65 1643.75 1443.27 1938.55 1441.41
00003263 00000101 1420.75 594.38 943.87 1142.79 1518.96 1003.35 1882.49 1004.17 1608.95 1315.86 1645.02 1446.64 1937.92 1443.51
00003264 00000102 1419.97 594.58 944.08 1143.07 1518.79 1001.81 1882.51 1003.89 1609.15 1316.14 1644.82 1446.30 1937.23 1444.20
00003265 00000103 1417.06 593.39 947.80 1145.66 1517.08 1003.11 1884.55 1005.40 1609.93 1321.53 1645.22 1448.99 1940.20 1447.16
00003266 00000104 1416.06 595.32 950.62 1143.55 1517.29 1004.88 1886.17 1005.30 1612.48 1321.90 1646.94 1450.66 1939.79 1447.60
00003267 00000105 1420.60 598.20 948.89 1140.94 1519.19 1004.39 1886.82 1007.41 1610.83 1323.35 1646.55 1452.77 1936.97 1451.97
00003268 00000106 1424.98 601.53 944.85 1139.46 1521.47 1003.71 1889.33 1008.97 1611.84 1327.05 1646.71 1456.92 1934.52 1458.30
00003269 00000107 1425.27 598.96 945.49 1142.70 1523.27 1005.07 1893.62 1010.66 1616.93 1330.14 1648.09 1458.77 1937.14 1460.75
00003270 00000108 1423.77 603.70 948.12 1137.86 1522.20 1004.67 1895.23 1011.83 1617.23 1332.17 1646.58 1460.01 1935.85 1463.20
00003271 00000109 1425.05 604.42 947.26 1136.86 1522.05 1004.49 1895.68 1012.53 1617.14 1333.51 1646.27 1460.80 1936.05 1464.74
00003272 00000110 1424.83 605.43 946.04 1136.13 1522.79 1005.71 1897.17 1012.91 1618.96 1333.97 1647.24 1462.89 1936.56 1466.16
00003273 00000111 1424.45 605.85 946.85 1135.72 1521.42 1005.78 1896.84 1013.36 1617.29 1334.01 1645.70 1464.30 1934.43 1467.85
00003274 00000112 1423.93 605.05 946.57 1135.32 1522.19 1004.44 1895.81 1012.85 1617.38 1332.87 1646.51 1461.53 1933.91 1465.86
00003275 00000113 1424.27 608.46 946.38 1131.80 1521.22 1005.47 1894.71 1012.36 1616.72 1332.34 1646.65 1463.25 1933.03 1466.20
00003276 00000114 1427.05 609.38 942.57 1132.49 1521.71 1006.72 1894.36 1013.54 1615.56 1334.68 1645.60 1466.62 1931.94 1469.46
00003277 00000115 1427.36 605.03 939.85 1139.62 1525.33 996.29 1914.55 1003.46 1635.68 1318.12 1650.41 1465.62 1923.92 1471.91
00003278 00000116 1428.33 600.53 939.94 1145.98 1528.03 998.99 1918.75 1005.99 1638.22 1317.26 1650.45 1467.91 1924.20 1474.07
00003279 00000117 1427.38 601.05 942.29 1146.09 1528.35 1000.89 1918.62 1006.23 1639.06 1317.30 1650.79 1468.69 1924.18 1473.51
00003280 00000118 1426.92 601.96 943.97 1147.48 1529.35 1002.44 1918.19 1006.47 1639.51 1317.48 1652.10 1469.23 1923.39 1472.94
00003281 00000119 1426.30 600.76 946.12 1151.83 1531.15 1001.26 1917.37 1005.61 1640.08 1317.46 1654.18 1468.50 1924.69 1472.15
00003282 00000120 1433.24 604.99 945.07 1150.66 1530.76 1010.86 1899.70 1018.31 1619.24 1331.93 1651.18 1468.40 1936.71 1471.79
00003283 00000121 1431.40 600.30 949.53 1162.90 1533.80 1012.92 1899.72 1018.66 1620.95 1332.02 1658.61 1472.38 1939.81 1474.75
00003284 00000122 1432.61 597.99 955.48 1168.80 1535.86 1014.21 1902.51 1015.97 1626.49 1330.28 1664.59 1477.50 1941.37 1476.96
00003285 00000123 1433.82 593.55 958.71 1172.95 1541.24 1013.71 1907.08 1015.02 1635.60 1328.58 1670.58 1475.13 1944.57 1474.54
00003286 00000124 1435.73 595.87 959.06 1169.71 1544.14 1015.57 1914.37 1014.33 1643.56 1329.88 1675.13 1477.58 1951.59 1475.08
00003287 DELETE   1501.81 497.64 549.33 702.82 1594.22 792.87 1819.80 760.47 1685.33 949.15 1670.81 1059.81 1849.10 1033.79
CROP_BBOX: 917 0 2832 2050
