Video ID: 	zZbzlKhaRok
H: 	1080
W: 	1920
FPS: 	25.0

FRAME INDEX X0 Y0 W H [Landmarks (5 Points)]

00002250 00000000 889.22 141.34 412.75 579.68 943.79 369.81 1131.11 379.87 987.49 467.65 944.23 573.93 1097.94 582.64
00002251 00000001 886.85 147.03 414.94 573.74 941.52 374.70 1132.27 380.34 992.36 474.79 945.10 582.44 1105.80 589.04
00002252 00000002 886.26 149.68 415.32 575.96 939.23 380.60 1132.91 383.77 992.59 480.74 944.58 588.79 1108.35 593.43
00002253 00000003 882.26 153.37 415.27 582.64 934.74 387.41 1129.55 386.46 990.76 483.86 944.14 596.16 1109.82 597.05
00002254 00000004 876.16 157.55 411.63 584.80 934.87 397.96 1122.62 393.64 985.01 489.39 943.46 594.55 1117.08 590.89
00002255 00000005 871.02 169.58 411.61 577.39 935.90 403.16 1120.57 402.08 989.89 495.68 947.27 595.26 1118.26 593.62
00002256 DELETE   863.42 178.39 412.02 571.00 932.80 407.56 1118.70 408.70 991.02 501.03 944.27 596.60 1116.73 596.65
00002257 00000007 856.77 181.02 407.85 568.83 928.40 410.33 1115.23 414.31 989.17 504.57 935.97 597.31 1108.25 599.88
00002258 DELETE   845.79 186.46 415.46 563.77 920.41 411.48 1107.41 416.42 984.44 512.18 924.74 603.27 1091.78 606.67
00002259 00000009 837.29 188.03 411.45 565.26 909.79 413.47 1097.56 419.49 974.39 517.11 916.55 606.49 1082.32 610.43
00002260 00000010 835.07 186.79 408.93 571.75 908.06 418.16 1090.44 421.24 970.39 519.87 918.81 612.43 1076.13 613.60
00002261 00000011 832.49 192.19 409.01 565.89 906.30 424.60 1090.29 427.59 975.49 525.81 917.15 613.75 1077.18 615.09
00002262 00000012 830.15 196.17 409.27 563.33 906.12 429.29 1092.58 431.53 982.24 532.49 916.95 615.89 1081.12 616.57
00002263 00000013 828.03 200.22 409.81 562.05 904.01 433.00 1093.38 435.84 985.90 538.74 915.59 617.97 1083.74 619.25
00002264 00000014 829.27 204.15 409.12 559.52 904.70 436.61 1092.92 438.80 987.01 543.96 918.27 620.71 1085.68 621.41
00002265 00000015 827.17 206.70 412.21 566.28 903.62 442.53 1094.94 441.33 989.09 548.72 920.78 631.14 1088.51 628.86
00002266 00000016 828.50 214.98 413.19 557.20 903.07 447.51 1099.80 446.89 989.40 555.14 919.67 636.41 1089.98 634.75
00002267 00000017 829.05 214.39 413.93 556.63 905.13 452.81 1104.00 452.12 994.00 557.14 920.36 639.13 1092.19 637.92
00002268 00000018 829.43 214.09 416.89 560.71 911.20 452.95 1109.70 454.13 1001.96 559.51 925.38 639.47 1097.39 639.55
00002269 00000019 832.10 216.15 417.13 561.40 914.85 453.37 1112.98 454.34 1007.54 563.85 930.16 640.92 1102.09 640.55
00002270 00000020 832.37 218.60 419.73 563.96 915.67 454.20 1119.94 454.99 1012.11 565.80 931.47 644.34 1106.74 643.61
00002271 00000021 832.76 220.07 419.44 564.55 918.66 456.33 1124.13 456.37 1017.39 567.70 934.80 647.98 1108.64 647.14
00002272 00000022 830.18 219.54 422.18 574.04 918.64 456.03 1124.17 454.73 1019.39 568.49 935.45 651.87 1110.42 649.72
00002273 00000023 827.45 215.52 422.68 582.97 920.59 457.81 1122.91 455.50 1020.22 567.06 937.93 655.14 1108.72 652.31
00002274 00000024 825.42 216.07 423.55 582.31 918.17 458.96 1122.24 455.16 1019.64 568.04 935.58 656.96 1107.69 653.03
00002275 00000025 819.27 221.24 423.43 578.07 916.62 464.44 1119.61 461.02 1005.74 564.23 934.49 655.30 1107.83 653.27
00002276 00000026 814.40 223.39 425.60 574.87 913.25 468.26 1115.62 464.14 1002.85 566.66 931.87 655.71 1105.25 653.02
00002277 00000027 811.69 223.62 423.85 573.68 911.84 474.86 1111.59 469.70 1002.81 569.78 930.96 656.72 1104.02 653.18
00002278 00000028 810.00 228.72 422.16 568.63 910.72 475.47 1110.42 470.60 1001.86 572.39 928.80 656.66 1101.58 653.63
00002279 00000029 805.93 226.16 418.65 571.97 901.95 471.15 1098.55 468.37 994.49 573.28 920.38 657.52 1095.74 654.85
00002280 00000030 804.69 226.98 416.68 570.88 901.19 470.88 1098.73 467.90 995.67 573.86 919.88 658.48 1095.75 655.95
00002281 00000031 803.33 223.50 417.00 575.24 900.91 470.56 1099.28 467.56 996.66 574.10 920.93 659.93 1097.51 657.18
00002282 00000032 803.84 222.81 415.40 577.04 901.29 470.47 1098.90 467.00 996.56 573.42 920.82 658.90 1099.10 655.87
00002283 00000033 804.82 225.70 417.33 575.72 901.82 470.59 1099.67 466.03 997.37 572.96 921.90 657.60 1102.47 653.49
00002284 00000034 804.92 227.08 426.11 575.54 907.92 473.94 1116.12 462.00 1008.19 567.59 930.79 659.69 1114.52 650.53
00002285 00000035 806.95 219.62 426.94 581.70 911.43 472.36 1118.26 462.01 1011.19 566.43 933.06 656.06 1116.91 648.27
00002286 00000036 809.60 225.72 427.11 576.28 913.74 471.15 1122.17 460.49 1012.59 565.20 934.64 657.11 1118.98 648.95
00002287 00000037 810.35 224.68 426.11 581.73 915.65 468.73 1122.85 460.50 1015.40 565.85 937.38 661.17 1115.59 655.30
00002288 00000038 809.87 222.71 428.48 584.70 919.59 470.85 1121.30 464.41 1017.92 568.25 943.02 660.98 1112.69 656.67
00002289 00000039 809.47 229.36 429.17 571.64 920.62 475.39 1124.36 468.99 1019.76 571.51 938.46 657.16 1112.93 652.89
00002290 00000040 813.66 229.84 427.64 566.37 916.78 465.59 1122.75 462.34 1021.82 572.73 932.76 655.60 1108.21 651.59
00002291 00000041 810.34 235.71 428.58 559.04 921.20 476.14 1124.55 468.52 1021.07 571.91 940.94 656.63 1112.93 651.30
00002292 00000042 809.97 231.76 430.56 569.94 921.24 474.97 1124.73 467.25 1021.20 572.85 941.91 658.11 1114.79 652.72
00002293 00000043 810.29 231.22 431.40 574.02 921.91 474.91 1125.56 466.36 1023.26 572.65 942.30 658.94 1117.09 652.82
00002294 00000044 812.48 233.39 426.97 568.56 923.08 474.61 1127.43 466.89 1025.17 573.14 941.61 657.39 1117.29 652.09
00002295 00000045 820.02 227.99 423.23 565.14 921.88 466.65 1127.15 461.81 1030.39 576.97 937.91 654.20 1115.04 649.41
00002296 00000046 820.76 229.67 422.60 559.69 921.64 465.87 1128.25 461.17 1029.58 576.54 937.44 653.81 1114.29 649.33
00002297 00000047 812.31 227.09 426.77 567.08 921.76 470.85 1126.21 461.62 1023.40 569.32 945.33 656.20 1117.31 649.51
00002298 00000048 812.41 224.11 424.35 571.32 918.03 467.37 1116.56 458.71 1014.44 564.48 950.96 664.04 1104.60 658.20
00002299 00000049 815.74 216.37 423.14 578.20 915.05 461.16 1117.36 454.55 1015.62 561.69 942.72 664.88 1092.09 659.52
00002300 00000050 813.24 214.02 421.21 580.59 912.71 458.68 1112.75 453.31 1010.39 556.11 937.40 661.75 1086.67 657.40
00002301 00000051 815.18 212.61 419.09 583.69 908.28 459.55 1107.64 456.00 1001.18 560.89 927.20 661.85 1081.42 658.68
00002302 00000052 815.78 214.04 416.43 592.40 904.50 462.46 1109.52 463.36 998.88 570.51 916.09 667.16 1084.59 667.44
00002303 00000053 816.87 230.77 418.56 569.54 897.91 462.36 1104.08 466.80 989.44 577.45 907.62 665.29 1085.15 669.54
00002304 00000054 821.03 245.94 418.40 550.37 899.88 462.50 1104.71 467.07 988.98 577.09 905.83 659.79 1092.13 664.01
00002305 00000055 825.10 226.16 418.12 565.68 903.24 461.65 1108.52 460.86 997.23 571.96 915.05 652.96 1096.74 650.39
00002306 00000056 827.22 216.84 417.75 565.33 909.47 453.98 1110.76 455.61 1002.95 564.22 922.56 644.49 1097.54 644.35
00002307 00000057 827.87 218.86 419.75 560.53 910.63 447.14 1114.56 449.76 1004.29 556.39 925.11 639.61 1099.17 640.35
00002308 00000058 827.66 211.19 421.24 569.56 913.53 443.05 1113.27 445.86 1006.36 550.05 927.00 633.83 1101.09 634.42
00002309 00000059 828.36 208.02 421.66 568.63 914.54 441.16 1112.70 443.17 1007.07 548.77 929.52 631.70 1101.93 631.67
00002310 00000060 828.64 208.43 422.14 566.63 914.79 440.99 1112.73 443.10 1007.30 548.98 929.34 630.48 1102.06 630.49
00002311 00000061 828.89 208.01 421.81 566.62 914.58 441.04 1113.07 443.71 1007.10 548.93 928.17 629.83 1101.90 630.26
00002312 00000062 829.36 209.48 419.69 563.36 912.84 441.70 1111.48 443.76 1004.94 549.13 926.90 629.87 1101.04 629.92
00002313 00000063 827.74 209.35 420.36 561.76 910.41 442.01 1110.15 442.40 1003.55 549.50 926.00 629.75 1099.70 628.66
00002314 00000064 825.83 211.15 420.43 559.57 907.46 436.82 1108.20 438.65 1000.96 549.29 924.64 627.83 1097.87 628.02
00002315 00000065 826.71 207.99 420.59 562.75 905.93 435.63 1106.88 436.95 999.05 549.44 923.95 628.32 1097.22 628.15
00002316 00000066 827.50 204.48 420.71 565.21 906.95 440.25 1106.08 440.00 999.59 550.78 925.52 628.77 1098.36 627.21
00002317 00000067 829.41 206.21 420.46 562.99 908.06 443.80 1107.18 441.42 1000.63 549.73 926.57 629.15 1101.56 625.55
00002318 00000068 831.02 206.57 420.86 560.16 909.12 443.64 1107.48 441.46 1000.57 548.07 926.75 627.66 1101.32 624.20
00002319 00000069 830.12 209.57 422.20 556.68 907.86 433.32 1108.59 434.98 1000.24 547.20 924.63 623.07 1099.76 623.15
00002320 00000070 831.92 210.20 420.15 555.75 908.87 432.48 1107.44 434.49 1000.23 549.06 925.34 622.89 1097.77 623.11
00002321 00000071 831.87 209.19 423.52 556.72 910.03 434.20 1111.49 437.22 1002.13 547.97 925.13 623.03 1100.16 624.09
00002322 00000072 833.64 208.19 423.24 559.62 912.24 439.60 1112.32 440.20 1003.98 550.28 928.06 625.39 1104.00 624.40
00002323 00000073 836.67 206.86 421.78 559.53 915.12 439.64 1116.12 439.84 1007.53 549.41 931.32 626.77 1106.37 625.62
00002324 00000074 840.20 209.12 420.63 557.82 915.91 440.36 1118.33 438.36 1008.98 549.97 934.58 628.96 1113.38 625.96
00002325 00000075 842.36 208.99 420.43 559.26 918.17 440.26 1121.11 438.91 1011.34 550.81 937.29 629.17 1117.96 626.78
00002326 00000076 844.41 209.70 419.84 560.83 920.16 442.01 1123.52 441.28 1012.72 550.92 938.75 631.79 1119.68 629.98
00002327 00000077 845.28 212.09 421.48 568.64 920.30 445.77 1126.31 441.43 1012.83 550.87 939.48 636.62 1122.87 631.75
00002328 00000078 845.90 213.67 423.21 572.00 922.74 449.44 1129.07 444.21 1015.61 552.67 941.51 640.84 1124.93 635.36
00002329 00000079 847.69 218.07 420.78 571.06 924.62 450.25 1129.46 446.70 1015.15 552.19 942.48 644.27 1120.20 640.10
00002330 00000080 848.56 223.14 419.55 565.18 924.52 449.33 1129.37 448.08 1014.51 552.21 940.54 644.08 1114.73 641.92
00002331 00000081 848.60 221.83 418.67 562.51 923.98 449.00 1128.77 448.24 1014.91 552.46 939.70 642.37 1114.96 640.60
00002332 00000082 849.18 219.50 418.29 563.54 923.95 448.75 1129.67 446.37 1017.03 551.93 940.65 641.88 1116.16 638.96
00002333 00000083 849.37 211.39 420.02 568.92 925.19 444.90 1130.55 445.02 1017.27 548.74 940.45 637.02 1116.02 636.28
00002334 00000084 849.19 208.76 419.95 568.66 927.14 442.26 1131.51 443.86 1019.55 547.04 941.59 633.05 1117.81 633.52
00002335 00000085 849.45 205.83 419.70 567.87 927.13 440.26 1131.74 441.09 1021.02 547.07 943.08 633.21 1117.60 633.14
00002336 00000086 848.80 206.04 418.57 565.01 926.76 439.43 1131.15 441.04 1021.14 547.38 943.27 631.50 1118.14 632.05
00002337 00000087 847.84 204.87 418.48 565.60 926.35 438.65 1130.69 440.25 1020.56 547.35 942.29 631.50 1116.16 632.07
00002338 00000088 847.05 204.99 417.39 564.69 926.33 438.51 1129.84 440.18 1020.63 547.94 942.37 631.50 1115.85 632.12
00002339 00000089 844.33 203.33 418.34 566.11 925.62 439.19 1129.60 440.39 1021.42 547.17 941.81 631.03 1116.02 631.23
00002340 00000090 841.26 205.87 418.40 564.47 923.59 438.28 1130.33 438.67 1022.20 547.57 941.53 631.57 1116.46 631.17
00002341 00000091 838.22 202.38 420.25 567.62 923.51 437.92 1129.14 437.59 1022.14 547.53 940.38 630.72 1115.06 629.96
00002342 00000092 837.22 200.38 422.11 569.87 925.46 434.83 1129.07 436.03 1023.47 544.73 940.72 627.19 1115.95 627.69
00002343 00000093 836.80 199.09 421.24 569.31 927.57 432.09 1129.16 434.89 1024.28 541.67 940.58 623.83 1114.34 625.92
00002344 00000094 833.36 194.77 423.40 570.84 928.45 430.54 1128.32 432.86 1025.13 539.05 939.50 620.59 1114.83 622.27
00002345 00000095 831.47 190.12 426.59 575.19 929.73 427.98 1130.98 431.40 1027.46 536.35 939.25 618.01 1116.21 620.60
00002346 00000096 831.21 188.62 425.39 572.92 929.66 423.71 1130.06 427.84 1026.34 532.72 937.39 614.22 1116.48 617.50
00002347 00000097 833.26 191.99 422.89 567.28 932.46 418.75 1129.17 426.34 1024.24 527.56 937.57 610.44 1113.90 616.72
00002348 00000098 834.62 190.07 422.84 567.66 934.35 413.04 1129.12 421.20 1023.22 521.36 938.03 607.30 1112.62 614.03
00002349 00000099 833.09 183.48 418.90 573.80 934.44 403.64 1136.54 419.67 1016.75 511.82 937.19 602.07 1116.85 614.82
00002350 00000100 836.82 180.74 419.03 575.63 938.41 396.79 1141.05 416.27 1019.38 503.41 936.42 597.20 1119.41 612.71
00002351 00000101 838.04 175.84 421.04 579.91 943.56 391.11 1145.88 414.24 1024.93 497.80 939.27 593.93 1120.89 612.40
00002352 00000102 840.31 166.73 424.82 581.21 944.77 390.52 1148.54 412.04 1024.77 501.19 936.63 591.48 1114.00 609.57
00002353 00000103 840.46 162.21 424.60 584.45 944.65 385.95 1149.13 408.21 1025.44 497.46 938.33 588.84 1115.45 607.52
00002354 00000104 838.07 163.02 421.92 587.26 945.11 380.80 1147.85 404.96 1026.93 483.23 937.99 585.25 1122.11 604.46
00002355 00000105 836.79 158.62 423.39 593.19 945.94 378.19 1149.60 404.35 1028.27 480.44 937.28 584.68 1121.05 605.33
00002356 00000106 835.83 157.49 425.14 593.77 944.88 374.57 1149.89 402.17 1027.25 476.99 935.74 583.01 1119.83 604.77
00002357 00000107 834.93 154.55 424.11 595.20 943.83 372.54 1146.74 400.81 1025.83 474.09 933.99 581.06 1117.24 603.12
00002358 00000108 832.67 151.86 422.96 593.63 942.29 371.51 1142.64 399.60 1025.48 471.80 936.58 576.52 1114.85 598.49
00002359 00000109 830.62 143.32 428.43 582.36 939.92 371.42 1143.95 394.45 1020.05 478.23 932.92 568.46 1109.51 587.74
00002360 00000110 830.40 138.96 428.47 580.41 938.91 369.04 1144.78 393.07 1019.07 476.51 929.51 561.42 1110.85 581.50
00002361 00000111 834.40 137.71 425.04 578.28 939.96 368.41 1145.46 392.63 1019.07 476.61 929.84 559.35 1111.32 579.79
00002362 00000112 836.90 144.14 424.76 573.53 945.39 375.56 1152.32 399.79 1025.74 483.20 933.94 563.81 1115.62 584.59
00002363 DELETE   841.41 156.76 426.56 576.13 954.32 388.84 1163.68 413.62 1038.93 496.41 941.23 577.96 1126.01 598.84
00002364 DELETE   840.52 171.65 432.21 587.89 960.65 394.29 1165.32 424.93 1048.26 502.69 954.77 593.25 1135.54 618.15
00002365 DELETE   848.49 186.36 432.22 583.39 966.62 409.62 1173.13 437.62 1052.32 525.75 960.52 606.99 1143.26 630.58
00002366 00000116 856.60 198.14 420.79 567.25 969.40 413.10 1175.52 436.73 1057.32 529.62 965.34 609.53 1146.60 630.24
00002367 00000117 860.03 190.06 424.39 568.03 974.40 410.85 1178.72 432.35 1063.16 525.37 972.96 602.80 1153.43 621.73
00002368 00000118 862.50 176.47 425.97 567.72 977.09 402.81 1181.10 425.77 1066.85 514.14 978.80 595.51 1156.68 615.34
00002369 00000119 870.50 169.67 422.17 567.46 981.64 395.85 1186.02 420.20 1068.41 505.74 979.14 588.17 1158.79 609.12
00002370 00000120 876.81 175.96 425.07 563.83 988.84 390.91 1186.57 412.39 1079.71 505.05 978.52 586.08 1160.34 604.74
00002371 00000121 878.79 168.52 418.35 562.42 987.87 393.90 1189.63 411.65 1075.72 499.49 986.56 581.33 1167.22 596.93
00002372 00000122 880.10 166.97 418.27 562.27 989.56 393.56 1190.53 410.96 1077.09 500.13 989.46 581.72 1168.52 596.89
00002373 00000123 882.74 172.73 427.51 561.26 993.80 390.14 1191.11 409.67 1085.12 502.28 984.65 583.42 1166.16 599.98
00002374 00000124 882.18 176.99 426.69 558.79 993.73 390.79 1191.83 410.99 1085.56 503.96 983.44 584.35 1166.41 601.67
00002375 00000125 881.82 177.67 427.01 558.09 990.95 390.27 1190.92 411.47 1082.51 504.44 980.80 584.49 1164.89 602.62
00002376 00000126 881.20 178.53 425.82 556.04 989.58 389.09 1188.69 410.72 1079.94 503.93 979.01 584.15 1161.83 602.73
00002377 00000127 880.36 175.87 426.57 555.80 987.36 387.22 1187.11 408.96 1076.71 502.43 977.21 582.07 1160.46 600.70
00002378 00000128 879.84 176.05 426.61 554.85 987.16 386.45 1185.46 408.62 1075.58 502.71 976.94 580.67 1159.10 599.71
00002379 00000129 881.71 173.25 425.80 555.98 987.53 384.67 1184.89 406.87 1075.01 501.89 977.99 580.06 1158.71 599.14
00002380 00000130 884.10 172.45 427.17 555.17 989.12 383.28 1186.92 406.03 1075.53 501.06 978.52 578.58 1159.36 598.12
00002381 00000131 885.48 170.71 429.35 562.02 992.25 383.12 1189.09 405.97 1078.56 501.71 981.37 579.82 1161.15 599.41
00002382 00000132 886.56 166.32 433.59 573.73 996.87 384.70 1192.03 407.55 1081.42 500.92 985.94 582.93 1162.32 602.52
00002383 00000133 887.44 165.65 433.80 574.47 997.15 384.03 1193.11 407.10 1081.49 500.16 985.78 583.32 1162.87 603.04
00002384 00000134 886.81 167.49 434.25 573.14 995.04 381.79 1191.21 404.69 1078.97 498.44 984.77 583.19 1161.42 602.74
00002385 00000135 886.62 167.29 434.12 572.92 993.10 380.63 1190.36 403.39 1076.26 497.03 983.83 582.92 1159.68 602.41
00002386 00000136 885.64 166.17 434.16 571.89 991.69 378.16 1189.80 402.09 1073.55 492.57 981.92 580.27 1157.60 600.82
00002387 00000137 886.11 164.45 434.02 570.07 993.59 375.93 1190.15 400.63 1074.47 489.04 982.80 575.18 1156.73 596.44
00002388 00000138 884.72 163.50 435.10 577.26 994.81 376.20 1190.13 401.83 1075.56 487.56 985.77 579.66 1151.90 601.73
00002389 00000139 883.62 160.89 436.15 580.43 996.33 376.09 1190.79 400.52 1076.73 486.32 988.11 581.86 1147.45 603.15
00002390 00000140 884.26 159.34 435.28 582.66 997.32 375.44 1188.71 399.33 1074.45 483.84 989.04 582.08 1142.22 602.86
00002391 00000141 882.50 149.42 429.07 588.73 990.40 371.29 1186.15 396.76 1068.34 479.07 985.22 577.02 1139.68 599.51
00002392 00000142 880.41 150.28 429.86 585.96 989.95 374.25 1187.09 399.40 1069.27 480.46 985.82 580.40 1139.20 602.13
00002393 DELETE   887.14 157.01 419.01 592.73 995.32 388.98 1190.93 407.85 1072.01 496.23 991.68 594.87 1156.56 610.80
00002394 00000144 886.48 165.71 418.90 583.64 993.26 404.72 1194.54 422.14 1075.02 513.62 993.11 603.42 1166.51 618.76
00002395 00000145 891.14 185.31 423.14 580.10 1001.54 410.51 1209.46 433.63 1089.59 519.78 995.89 607.58 1179.02 626.26
00002396 00000146 893.41 195.45 432.17 567.28 1004.57 410.82 1208.54 430.67 1101.49 525.47 997.00 610.51 1179.95 626.90
00002397 00000147 896.97 198.84 429.40 561.46 1007.59 409.42 1209.46 431.56 1103.13 527.23 997.71 608.21 1181.18 626.84
00002398 00000148 895.16 204.73 431.43 563.36 1007.13 407.16 1206.84 431.62 1099.23 526.57 998.75 609.46 1175.43 629.68
00002399 00000149 895.56 203.36 431.02 564.39 1005.60 404.93 1205.41 430.73 1095.26 525.09 994.93 606.43 1174.00 627.86
00002400 00000150 896.08 200.93 433.32 558.93 1005.46 403.46 1204.95 427.88 1094.51 522.18 995.94 601.06 1175.50 621.32
00002401 00000151 899.12 194.49 430.32 559.70 1006.90 401.78 1203.00 426.01 1092.29 518.35 995.66 597.82 1172.56 618.20
00002402 00000152 898.88 190.88 430.90 560.19 1007.67 400.42 1200.08 425.06 1089.12 516.06 995.04 594.50 1168.37 615.23
00002403 00000153 897.96 184.08 429.83 566.74 1006.01 400.59 1196.82 424.14 1085.56 514.20 993.72 595.35 1165.69 615.25
00002404 00000154 895.29 183.66 428.62 569.55 1002.77 398.38 1193.26 421.85 1081.64 510.97 991.92 597.38 1161.93 617.08
00002405 00000155 892.01 182.43 428.13 574.99 999.35 395.53 1190.28 419.98 1077.42 508.88 987.86 598.42 1157.18 618.92
00002406 00000156 886.33 175.79 433.28 582.15 994.37 390.23 1189.40 416.53 1072.38 506.98 981.30 595.67 1153.28 617.84
00002407 00000157 882.66 177.72 433.36 580.97 989.16 385.94 1188.03 412.90 1069.13 504.59 975.48 594.22 1151.92 616.99
00002408 00000158 883.33 173.59 429.15 575.07 986.33 383.75 1184.76 410.74 1066.52 501.41 971.95 588.07 1151.68 611.11
00002409 00000159 882.01 164.90 428.09 573.15 982.65 382.11 1182.37 407.09 1062.99 496.71 970.87 582.07 1151.66 603.61
00002410 00000160 880.95 167.50 429.08 569.00 979.74 376.73 1180.13 401.37 1059.89 491.62 970.87 578.52 1149.09 599.69
00002411 00000161 883.97 163.05 422.74 558.16 981.04 371.47 1176.98 397.91 1056.70 485.52 971.41 568.87 1143.63 591.56
00002412 00000162 884.81 157.84 421.97 559.03 983.23 367.23 1178.35 396.12 1058.62 482.86 971.51 558.59 1143.52 581.26
00002413 00000163 883.28 151.38 425.33 561.33 984.80 365.87 1181.48 394.42 1061.55 478.51 972.30 555.73 1144.64 578.24
00002414 00000164 881.80 148.14 415.27 562.24 979.40 371.15 1175.12 398.15 1046.47 474.33 965.23 557.76 1142.82 580.38
00002415 00000165 884.13 150.37 422.40 560.68 987.27 364.00 1179.74 393.66 1060.50 470.91 972.13 553.31 1139.83 577.45
00002416 00000166 875.68 142.20 421.86 571.76 975.98 362.18 1177.22 395.84 1042.15 468.16 959.97 554.34 1140.03 581.64
