Video ID: 	yr9TOY1zMpA
H: 	2160
W: 	3840
FPS: 	25.0

FRAME INDEX X0 Y0 W H [Landmarks (5 Points)]

00006290 00000000 704.15 481.38 435.96 589.55 926.74 726.17 1088.40 729.02 1056.62 837.12 935.51 939.23 1057.67 941.76
00006291 00000001 705.76 481.83 440.03 593.22 932.46 728.02 1095.17 733.41 1061.39 839.64 939.97 942.16 1062.66 946.48
00006292 00000002 708.32 485.86 439.75 591.29 938.00 729.79 1099.26 736.31 1066.78 842.04 946.97 944.73 1067.68 949.96
00006293 00000003 713.05 496.58 438.53 584.61 947.19 731.10 1105.81 744.43 1070.60 845.89 947.57 946.08 1060.66 954.55
00006294 00000004 720.29 500.76 435.37 581.12 956.80 736.77 1110.37 745.24 1076.18 854.83 938.06 940.67 1058.20 948.00
00006295 00000005 720.51 497.96 436.87 600.69 959.42 737.41 1109.76 747.30 1081.23 856.39 928.62 939.71 1057.66 950.20
00006296 00000006 718.70 493.49 438.14 607.62 959.25 733.97 1110.18 742.89 1083.33 851.10 927.71 937.11 1059.51 947.26
00006297 00000007 717.65 490.86 435.69 601.28 954.10 727.81 1107.64 733.57 1080.94 844.02 922.17 927.33 1062.57 935.61
00006298 00000008 714.03 484.85 436.79 599.37 952.27 721.28 1106.85 727.58 1080.13 834.67 920.30 920.57 1063.89 928.95
00006299 00000009 711.76 470.56 433.76 604.33 947.15 711.95 1106.40 725.19 1073.72 825.50 923.07 911.81 1067.09 923.85
00006300 00000010 710.23 464.20 427.93 605.62 947.08 704.90 1101.20 719.17 1073.23 817.78 922.89 906.35 1062.52 919.12
00006301 00000011 707.82 460.63 424.79 610.46 946.06 700.17 1095.50 717.78 1072.31 811.17 920.98 902.73 1056.51 918.43
00006302 DELETE   702.93 458.59 421.57 610.73 943.03 699.66 1089.00 714.73 1069.73 812.34 913.46 902.34 1048.34 916.30
00006303 DELETE   697.50 458.02 417.85 611.48 928.67 696.62 1079.16 712.29 1058.90 807.39 902.83 900.74 1044.05 915.10
00006304 DELETE   688.03 453.15 419.99 607.48 912.52 690.28 1071.27 696.92 1047.49 801.36 892.78 895.08 1042.84 901.89
00006305 00000015 679.34 442.71 426.42 611.23 898.18 682.59 1067.14 688.98 1034.44 794.03 891.47 891.08 1042.59 895.95
00006306 00000016 670.55 444.20 430.15 599.75 885.79 675.50 1059.66 684.50 1023.66 784.88 892.07 888.83 1040.23 892.39
00006307 00000017 665.56 442.41 427.50 594.28 872.43 672.41 1049.36 677.44 1011.73 782.37 886.88 886.23 1028.73 886.98
00006308 00000018 659.18 436.58 425.43 594.98 860.45 672.75 1036.69 669.55 1003.40 782.21 879.57 886.99 1018.70 882.04
00006309 00000019 654.71 435.27 425.45 595.29 852.39 670.33 1029.14 666.66 994.53 779.52 877.12 887.15 1013.42 881.33
00006310 00000020 651.73 430.53 424.35 599.06 849.51 667.60 1026.28 666.32 991.26 773.44 875.28 884.59 1011.09 880.33
00006311 00000021 650.24 429.00 423.69 596.60 848.80 668.01 1024.39 663.83 990.31 769.54 877.12 880.19 1010.63 873.81
00006312 00000022 650.78 426.73 423.42 599.18 851.25 667.81 1026.02 664.68 993.45 767.44 880.15 878.73 1014.09 873.22
00006313 00000023 653.55 427.95 423.85 598.66 852.96 668.44 1028.45 663.83 993.28 770.44 880.22 879.39 1014.29 872.93
00006314 00000024 658.11 430.57 426.08 607.29 861.70 670.32 1034.68 664.45 999.87 774.06 886.03 882.79 1019.40 875.36
00006315 00000025 661.65 438.31 428.58 615.39 864.99 674.51 1040.10 671.05 1007.82 782.69 873.60 889.32 1023.68 885.47
00006316 00000026 662.01 439.61 433.68 617.69 866.59 676.98 1045.00 677.56 1010.62 785.45 867.28 890.46 1027.06 890.57
00006317 00000027 662.03 442.13 435.75 612.51 866.20 679.16 1045.99 676.96 1010.24 788.59 866.61 891.74 1028.10 889.79
00006318 00000028 661.91 440.50 436.44 608.50 865.99 677.76 1047.58 675.89 1009.14 785.36 871.59 889.96 1029.82 887.45
00006319 DELETE   665.43 440.13 432.31 604.37 874.43 676.94 1050.51 676.05 1014.04 781.76 887.14 887.62 1035.37 884.29
00006320 00000030 667.30 438.51 430.69 603.55 878.58 680.28 1053.83 677.85 1016.18 778.37 897.98 888.04 1038.65 883.10
00006321 00000031 668.37 438.82 429.49 604.95 879.16 677.68 1053.54 673.30 1017.55 781.12 903.75 891.42 1039.08 884.28
00006322 00000032 667.34 439.28 430.85 607.21 875.01 674.76 1053.72 676.52 1014.79 782.40 898.30 890.86 1037.32 888.12
00006323 00000033 661.75 443.58 436.43 608.29 869.44 675.06 1051.06 678.45 1011.10 783.40 886.60 894.29 1030.39 893.50
00006324 00000034 658.69 442.54 438.60 617.80 864.88 676.23 1045.10 678.47 1005.65 787.04 872.40 894.95 1021.89 894.91
00006325 00000035 658.13 441.25 438.17 622.50 862.35 676.88 1041.96 675.45 1005.46 788.83 864.63 892.97 1019.95 891.66
00006326 00000036 657.30 438.32 435.50 623.32 860.53 675.02 1038.45 674.90 1002.23 786.70 864.15 891.01 1016.59 890.39
00006327 00000037 656.72 437.38 433.23 614.36 858.73 673.86 1036.97 672.37 999.57 785.71 868.90 891.94 1014.69 889.28
00006328 00000038 657.20 437.36 432.13 609.16 858.87 673.83 1037.01 670.73 999.76 785.66 877.59 892.72 1016.99 887.79
00006329 00000039 656.42 437.71 432.43 604.11 858.33 673.24 1036.71 671.43 999.30 783.25 880.48 890.51 1018.19 886.08
00006330 00000040 658.94 438.05 429.11 596.87 857.06 673.82 1036.12 669.36 995.75 784.79 879.58 888.76 1018.66 882.18
00006331 00000041 659.63 437.05 427.30 595.59 856.32 673.72 1034.64 669.48 994.08 783.22 877.55 886.05 1016.83 879.87
00006332 00000042 660.37 437.22 426.03 592.20 855.43 672.84 1034.26 668.78 993.11 783.35 876.50 884.57 1017.42 878.54
00006333 00000043 660.12 438.38 425.67 587.70 855.18 673.98 1033.26 669.96 991.85 784.98 872.37 883.01 1014.02 877.55
00006334 00000044 655.64 440.54 428.61 587.69 853.80 674.86 1032.23 670.66 991.31 786.67 871.11 885.43 1011.23 879.60
00006335 00000045 653.28 442.07 428.08 586.88 850.74 674.40 1029.65 671.03 989.03 786.98 868.76 888.08 1006.61 882.65
00006336 00000046 652.22 441.89 426.70 588.26 850.89 674.75 1028.43 671.49 987.82 786.78 868.96 889.01 1004.32 883.66
00006337 00000047 650.14 445.77 428.47 588.26 853.14 676.70 1027.25 673.65 988.82 784.95 867.64 889.35 1000.79 884.64
00006338 00000048 646.32 442.25 421.48 601.95 854.63 679.12 1025.24 677.49 995.43 782.83 864.36 890.36 1003.08 889.78
00006339 00000049 645.41 437.90 422.99 610.61 854.26 674.34 1026.80 674.50 997.12 783.19 862.60 888.25 1004.34 888.86
00006340 00000050 651.28 437.05 427.49 607.81 858.39 673.10 1027.64 668.87 997.64 782.93 867.23 886.45 998.93 882.26
00006341 00000051 645.18 437.72 424.14 613.51 855.23 664.43 1027.89 669.82 999.49 781.83 858.06 883.73 1002.97 888.01
00006342 00000052 652.75 438.38 425.75 603.98 857.87 668.87 1028.98 664.78 997.89 781.35 864.66 882.98 1001.02 878.88
00006343 00000053 653.82 439.99 424.90 596.99 856.24 666.83 1028.69 661.70 996.17 779.95 864.86 880.57 1004.33 875.22
00006344 00000054 653.32 435.33 424.09 597.45 853.56 664.96 1027.65 658.76 994.19 777.66 864.81 879.47 1005.11 873.06
00006345 00000055 651.85 433.72 423.42 597.07 849.77 663.41 1025.13 656.96 990.09 775.99 863.43 879.13 1003.93 872.10
00006346 00000056 650.30 431.62 421.66 597.14 848.82 660.08 1023.36 652.95 988.96 772.80 863.30 876.68 1002.97 868.98
00006347 00000057 648.83 430.14 421.44 600.56 847.71 658.06 1023.27 648.78 989.82 770.80 862.11 875.61 1003.61 866.49
00006348 00000058 636.55 426.48 424.26 614.09 842.76 652.31 1017.71 651.82 988.34 765.98 853.41 873.62 1000.37 872.77
00006349 00000059 633.19 424.69 423.75 620.37 841.17 650.81 1014.17 651.40 986.32 765.30 851.14 875.09 996.65 875.18
00006350 00000060 632.01 425.17 423.06 620.99 839.35 650.59 1012.37 649.23 986.12 765.41 849.04 875.52 995.40 874.40
00006351 00000061 630.76 425.31 424.03 620.37 836.55 648.99 1010.95 647.01 984.26 763.48 848.18 875.10 995.34 873.42
00006352 00000062 630.75 424.99 424.56 618.62 834.77 648.20 1010.61 645.35 983.11 763.19 846.79 874.33 995.17 871.87
00006353 00000063 630.11 426.91 425.10 614.77 833.95 647.89 1010.17 645.18 982.59 762.91 846.70 874.44 994.47 872.09
00006354 00000064 630.57 425.48 426.22 609.55 833.69 649.00 1009.79 646.39 980.94 764.86 850.67 874.11 994.52 871.57
00006355 00000065 636.24 430.06 423.44 594.61 838.14 658.28 1011.86 651.33 982.48 768.40 856.22 874.61 994.30 866.98
00006356 00000066 638.82 434.80 420.81 587.98 846.20 667.14 1013.49 664.02 984.31 769.01 863.67 877.01 994.87 872.18
00006357 00000067 640.92 432.50 420.41 592.00 847.28 665.62 1015.64 663.26 984.51 769.72 865.20 876.93 994.85 872.69
00006358 00000068 643.72 426.86 420.40 600.74 849.67 664.03 1018.44 658.46 986.57 769.43 867.95 876.84 996.94 870.37
00006359 00000069 646.29 427.93 418.77 601.92 851.82 662.04 1020.78 657.06 990.48 768.16 869.88 876.57 1000.45 870.64
00006360 00000070 648.26 423.09 419.15 602.66 852.87 658.07 1023.19 654.31 993.37 762.45 870.66 869.87 1005.40 865.07
00006361 00000071 648.26 415.57 419.82 605.84 852.62 651.67 1024.46 650.87 995.81 753.95 872.35 864.72 1008.38 861.99
00006362 00000072 641.86 403.51 424.69 618.99 848.56 640.49 1023.39 640.76 997.22 749.42 874.18 863.37 1016.66 863.38
00006363 00000073 646.73 410.87 421.64 606.96 856.16 649.36 1025.80 649.78 1001.08 750.55 879.66 862.88 1012.05 861.22
00006364 00000074 649.43 419.06 419.84 605.89 858.52 653.92 1026.05 654.23 1001.50 759.05 880.14 868.78 1010.11 867.06
00006365 00000075 653.20 419.59 419.76 612.46 858.09 659.20 1026.76 658.21 998.09 767.84 877.79 875.65 1006.28 872.97
00006366 00000076 655.00 424.40 419.07 609.80 859.39 658.97 1026.38 663.22 1001.32 771.49 872.90 879.49 1005.94 880.73
00006367 00000077 658.07 415.04 421.24 621.01 861.39 654.00 1032.19 659.81 1004.03 767.65 869.61 874.76 1008.22 877.90
00006368 00000078 661.51 410.80 421.44 627.74 862.51 649.24 1036.55 655.94 1002.69 760.30 870.81 870.04 1010.52 873.75
00006369 DELETE   663.35 421.14 422.82 624.17 868.03 651.29 1037.58 659.21 1006.95 751.75 864.02 862.46 1012.26 868.95
00006370 DELETE   665.66 422.86 424.20 623.63 868.54 653.19 1041.11 661.60 1008.52 750.59 862.47 860.64 1016.45 868.32
00006371 00000081 664.91 418.28 427.42 621.45 869.41 651.05 1045.02 658.53 1010.91 754.76 862.64 858.23 1020.12 865.09
00006372 00000082 665.23 423.40 427.22 611.32 869.96 653.79 1046.12 660.86 1010.93 763.41 864.12 858.77 1019.72 864.98
00006373 00000083 665.44 425.42 429.30 607.79 868.72 656.16 1045.99 661.51 1008.99 769.31 864.37 862.03 1019.65 866.66
00006374 00000084 664.80 426.64 428.44 607.52 866.85 657.17 1044.78 663.00 1006.54 769.82 864.90 863.51 1017.51 868.22
00006375 00000085 663.46 427.75 427.27 605.77 865.61 659.03 1042.87 660.77 1006.44 769.18 868.98 867.34 1017.81 868.28
00006376 00000086 663.96 427.55 425.97 606.39 867.86 658.42 1044.46 661.26 1008.90 767.85 877.05 868.15 1020.85 869.00
00006377 00000087 662.79 426.04 428.04 607.57 870.35 656.90 1046.91 663.87 1009.78 767.08 885.12 869.78 1020.92 872.52
00006378 00000088 661.56 429.89 428.52 605.37 872.89 656.99 1046.85 667.00 1010.43 767.96 888.98 871.69 1018.57 876.16
00006379 00000089 660.87 429.85 431.90 607.76 868.99 659.64 1047.06 669.97 1006.57 770.78 884.34 873.87 1017.20 878.79
00006380 00000090 662.65 434.50 431.02 606.16 866.98 661.14 1045.47 672.72 1003.00 774.78 874.60 873.48 1013.43 880.33
00006381 00000091 662.89 439.93 432.17 606.29 867.72 662.42 1045.41 675.19 1003.33 777.12 869.09 872.90 1012.73 881.38
00006382 00000092 663.25 440.02 435.38 609.74 869.57 662.73 1048.88 676.05 1005.50 780.61 867.49 874.81 1014.18 884.13
00006383 00000093 663.99 441.52 435.47 610.48 871.19 663.27 1048.76 678.55 1005.59 782.97 865.82 875.87 1012.78 886.83
00006384 00000094 662.87 443.71 439.93 610.51 870.70 665.57 1050.61 681.01 1005.88 787.30 864.82 880.99 1014.58 891.88
00006385 00000095 662.25 447.66 439.91 606.24 869.70 666.99 1049.32 682.03 1004.85 788.81 862.95 881.88 1014.89 892.47
00006386 00000096 662.62 446.73 439.63 604.85 869.16 668.94 1049.14 681.31 1004.54 790.16 864.22 883.82 1015.92 892.38
00006387 00000097 662.45 447.73 440.87 601.71 870.52 669.56 1051.55 682.77 1005.71 787.87 867.87 883.71 1018.34 892.37
00006388 00000098 663.96 449.16 440.18 596.40 871.49 670.33 1052.51 682.56 1005.89 788.34 868.53 881.66 1020.37 889.61
00006389 00000099 664.94 448.40 439.34 595.15 872.80 670.03 1053.08 682.38 1006.82 788.14 869.89 880.15 1022.45 888.15
00006390 00000100 665.13 448.50 439.36 594.10 873.71 669.65 1054.06 682.69 1007.46 788.02 871.46 879.87 1023.65 888.14
00006391 00000101 664.21 447.71 439.95 598.47 873.63 668.80 1053.93 682.93 1007.69 787.64 871.86 880.50 1023.30 889.53
00006392 00000102 663.23 448.54 439.69 600.05 875.25 666.69 1053.80 683.04 1008.94 787.90 871.65 881.06 1020.98 891.66
00006393 00000103 662.28 447.49 438.71 604.22 874.49 666.49 1051.15 682.40 1008.36 786.72 872.69 880.51 1016.91 890.82
00006394 00000104 661.50 446.83 437.91 603.32 874.07 666.15 1049.39 681.11 1006.98 787.43 872.43 880.00 1013.95 889.63
00006395 00000105 660.71 446.93 437.53 603.95 874.21 666.19 1048.11 680.69 1007.67 786.80 871.79 880.68 1013.28 889.99
00006396 00000106 661.31 446.83 436.39 603.75 876.03 665.63 1048.24 681.84 1008.49 786.66 872.84 880.97 1013.71 891.43
00006397 00000107 661.58 449.17 436.88 602.33 876.97 666.06 1049.61 683.67 1009.58 787.50 874.03 883.20 1015.46 894.42
00006398 00000108 662.52 447.17 436.69 604.79 877.71 667.24 1050.93 683.12 1009.93 790.04 875.84 887.13 1018.80 896.81
00006399 00000109 662.56 448.69 436.72 603.42 878.04 666.93 1050.93 683.33 1009.98 790.83 875.90 888.74 1018.63 898.66
00006400 00000110 664.00 448.87 435.42 601.50 880.24 666.86 1052.31 682.12 1012.69 791.57 878.50 890.05 1022.18 898.97
00006401 00000111 665.03 449.16 435.24 599.71 880.94 666.29 1053.49 682.93 1013.00 791.35 880.63 889.84 1023.33 899.43
00006402 00000112 663.31 448.92 435.67 600.50 880.85 665.05 1052.22 683.54 1014.65 790.22 879.24 888.61 1022.07 899.87
00006403 00000113 663.13 448.80 435.45 599.63 881.14 664.90 1051.49 683.33 1014.98 790.12 878.86 887.33 1019.38 898.73
00006404 00000114 662.92 447.61 433.26 599.84 880.84 664.23 1048.96 683.79 1014.30 788.22 878.26 885.31 1015.30 897.74
00006405 00000115 663.96 446.90 430.90 597.83 880.40 664.98 1048.07 682.54 1012.65 789.23 878.39 884.30 1015.11 895.26
00006406 00000116 665.57 446.08 430.39 596.69 881.10 664.89 1049.75 682.19 1012.73 788.51 878.37 881.83 1017.00 892.72
00006407 00000117 666.46 445.89 430.26 593.20 882.19 665.49 1051.02 681.53 1013.03 789.63 879.88 880.87 1018.77 890.76
00006408 00000118 667.77 445.36 429.97 590.91 883.78 664.71 1052.46 678.27 1015.16 789.21 884.44 880.61 1022.28 888.21
00006409 00000119 669.31 445.18 429.67 592.26 884.86 664.74 1054.35 677.13 1016.70 789.52 887.10 881.23 1025.98 887.77
00006410 00000120 668.91 447.13 431.00 595.03 893.13 671.36 1056.59 686.54 1020.12 787.59 888.55 881.27 1025.55 890.26
00006411 00000121 672.27 446.85 428.82 596.38 891.84 671.71 1057.65 684.50 1020.54 789.63 890.64 883.47 1029.74 890.46
00006412 00000122 674.03 444.49 426.42 599.59 889.66 666.60 1056.65 679.89 1020.93 789.39 890.20 883.84 1028.84 891.11
00006413 00000123 675.66 444.10 425.87 599.37 890.66 664.91 1057.50 678.53 1021.13 789.64 891.84 883.62 1030.16 890.97
00006414 00000124 675.85 443.36 426.87 599.08 891.13 663.84 1058.40 678.42 1021.51 789.10 891.00 881.93 1030.51 890.21
00006415 00000125 675.68 443.92 427.23 598.54 891.17 663.74 1058.82 678.37 1021.95 789.35 890.61 882.28 1030.80 890.60
00006416 00000126 674.87 443.17 427.34 600.05 890.86 663.23 1059.27 678.83 1023.95 787.89 890.00 881.64 1031.58 891.01
00006417 00000127 675.03 444.11 426.69 599.46 891.75 662.58 1059.32 679.02 1024.47 787.05 890.98 881.80 1032.75 891.58
00006418 00000128 675.68 443.20 426.58 598.90 892.44 663.11 1059.79 679.62 1025.57 786.54 892.97 880.91 1035.10 890.65
00006419 00000129 676.51 442.19 425.87 598.39 893.58 662.94 1059.73 677.54 1027.02 785.90 896.50 879.77 1036.98 887.95
00006420 00000130 677.52 440.93 422.90 599.58 894.82 662.25 1059.17 675.75 1028.82 785.65 899.75 878.97 1035.83 886.21
00006421 00000131 677.05 439.69 422.50 606.11 896.59 661.54 1060.25 675.35 1030.61 783.39 905.71 881.20 1035.32 888.03
00006422 00000132 676.45 442.76 425.62 604.39 897.95 663.40 1061.18 674.33 1031.85 785.14 906.72 886.51 1036.93 891.13
00006423 00000133 676.85 444.58 425.62 602.65 897.90 663.57 1061.67 677.06 1030.96 785.07 901.32 885.79 1035.33 892.72
00006424 00000134 678.48 444.33 423.60 602.95 896.57 665.71 1060.51 675.95 1029.87 787.44 894.84 883.57 1033.83 889.23
00006425 00000135 676.96 444.17 425.26 601.31 895.15 665.58 1060.92 677.11 1029.42 785.72 890.65 881.25 1035.62 888.26
00006426 00000136 675.19 440.82 427.76 603.74 894.53 664.62 1062.33 677.24 1030.37 783.51 890.27 878.65 1036.95 886.68
00006427 00000137 675.07 441.69 427.14 604.28 893.56 665.25 1060.48 676.91 1029.07 781.55 885.65 875.07 1036.35 883.04
00006428 00000138 672.34 437.73 427.80 606.65 892.38 662.57 1058.67 672.71 1029.72 778.48 883.28 872.14 1032.58 879.42
00006429 00000139 670.62 435.11 424.62 601.22 886.66 661.70 1054.49 666.97 1026.57 776.34 877.57 869.69 1029.19 874.02
00006430 00000140 666.76 430.16 422.78 602.11 881.76 661.67 1048.89 663.38 1022.05 775.23 873.38 867.53 1025.45 869.52
00006431 00000141 665.60 426.29 420.44 599.75 878.74 660.58 1045.05 660.36 1019.93 772.24 867.89 864.20 1022.50 865.48
00006432 00000142 665.05 430.27 417.26 591.54 882.09 668.49 1042.73 666.92 1021.63 769.64 875.11 863.65 1025.16 863.30
00006433 00000143 663.12 424.36 417.28 592.05 880.34 673.84 1043.06 663.20 1021.30 766.88 884.44 865.68 1028.34 858.23
00006434 00000144 662.38 421.15 414.38 596.03 879.34 670.60 1041.46 658.54 1024.60 762.73 890.80 864.65 1029.08 855.97
00006435 00000145 662.91 415.37 412.95 604.59 876.39 668.38 1040.96 653.87 1026.07 759.97 893.70 867.22 1032.90 856.54
00006436 00000146 663.51 417.91 411.54 604.25 873.24 670.04 1038.97 650.21 1027.21 760.17 893.76 869.63 1035.26 855.20
00006437 00000147 659.44 418.32 414.29 600.58 869.84 670.12 1035.70 647.57 1027.60 757.17 895.11 868.83 1035.60 852.52
00006438 00000148 653.34 417.95 419.10 598.24 862.25 670.86 1031.52 647.15 1019.36 759.49 887.19 868.41 1031.14 850.72
00006439 00000149 647.63 423.33 418.92 595.62 853.37 671.80 1022.12 650.89 1006.28 763.25 873.91 868.76 1018.22 852.79
00006440 00000150 638.24 424.73 419.69 604.08 842.70 668.80 1012.91 653.00 998.67 767.68 860.29 870.98 1010.82 859.35
00006441 00000151 630.98 426.02 423.86 608.93 830.92 673.33 1003.31 651.11 988.40 772.10 846.20 874.85 1000.93 859.14
00006442 00000152 627.70 427.62 426.35 610.12 826.45 675.53 1001.00 652.82 982.72 776.16 840.98 878.96 997.62 863.15
00006443 00000153 627.71 427.99 425.94 611.54 826.33 678.24 1001.64 654.72 983.40 778.39 838.71 881.23 997.25 865.22
00006444 00000154 629.32 432.08 425.48 610.52 826.42 680.48 1002.54 658.09 982.57 782.27 838.90 885.74 997.60 870.37
00006445 00000155 630.50 434.36 423.63 615.94 829.37 683.12 1003.43 663.62 984.61 787.43 839.07 889.73 996.87 876.73
00006446 00000156 632.68 438.14 421.16 617.76 832.22 686.83 1004.42 669.94 987.34 790.96 841.25 894.13 996.14 883.34
00006447 00000157 634.77 444.73 421.54 612.43 832.54 690.21 1006.10 672.48 987.56 796.55 841.13 897.77 997.19 886.02
00006448 00000158 635.69 444.55 420.20 614.63 833.14 691.57 1006.79 674.83 988.26 798.23 841.24 899.16 997.27 888.21
00006449 00000159 637.53 445.18 419.37 613.58 834.24 692.93 1007.93 675.23 988.73 799.48 842.07 899.01 998.93 887.09
00006450 00000160 638.68 446.62 419.17 611.51 834.33 693.33 1008.59 675.70 987.43 800.83 844.36 898.78 1000.93 886.49
00006451 00000161 639.69 445.81 419.30 610.93 835.46 693.99 1009.94 676.97 987.70 801.30 844.52 897.25 1002.03 885.36
00006452 00000162 641.06 447.56 419.86 610.28 836.88 695.57 1011.58 678.83 988.38 803.23 845.24 897.68 1002.72 885.96
00006453 00000163 641.92 450.42 419.67 608.66 836.66 696.58 1011.64 680.86 986.97 805.52 844.96 899.66 1002.48 888.58
00006454 00000164 642.61 451.82 421.15 608.72 836.94 697.58 1012.39 682.03 987.22 807.49 842.70 899.26 1001.76 888.30
00006455 00000165 642.52 453.26 423.53 606.74 839.61 699.51 1015.15 686.01 988.02 809.06 843.38 900.26 1001.58 890.96
00006456 00000166 644.57 465.53 428.55 585.31 849.82 711.87 1016.36 689.35 990.14 806.56 848.85 901.20 1002.83 885.32
