Video ID: 	An_yPqjT45w
H: 	1080
W: 	1920
FPS: 	29.97002997002997

FRAME INDEX X0 Y0 W H [Landmarks (5 Points)]

00005962 00000000 973.46 240.64 342.77 492.91 997.74 461.03 1101.65 434.89 999.53 535.77 1047.87 619.81 1139.09 597.42
00005963 00000001 971.52 238.20 345.36 492.96 996.98 461.27 1101.51 433.79 999.57 537.46 1049.19 619.30 1141.66 595.69
00005964 00000002 967.03 239.57 347.74 492.90 995.08 462.00 1103.52 432.31 1000.50 537.31 1047.61 620.23 1143.60 594.58
00005965 DELETE   963.94 239.67 354.17 494.53 992.13 460.34 1105.33 427.28 1000.14 534.02 1043.12 620.90 1143.28 592.38
00005966 00000004 964.20 241.35 353.41 491.96 989.67 458.69 1104.97 422.58 1000.56 534.37 1042.35 621.17 1146.05 590.00
00005967 00000005 960.80 240.89 356.67 492.74 987.29 456.21 1105.44 420.29 1001.39 534.16 1040.39 620.56 1145.73 589.50
00005968 00000006 957.53 242.63 357.13 489.99 985.06 455.82 1105.13 419.66 1002.45 532.99 1037.01 619.68 1142.69 588.45
00005969 00000007 953.45 241.99 359.96 492.00 984.04 455.42 1105.06 421.94 1004.65 531.59 1033.43 617.59 1139.03 588.64
00005970 00000008 948.82 242.30 363.17 491.98 982.05 456.95 1105.21 423.99 1004.64 531.45 1030.36 617.68 1137.78 589.07
00005971 00000009 946.69 240.90 362.84 494.88 980.61 457.43 1104.15 425.34 1003.57 532.20 1029.00 618.19 1136.81 590.22
00005972 00000010 941.60 241.86 367.67 497.81 976.27 465.45 1108.91 429.16 1011.27 534.26 1023.93 622.60 1136.98 590.76
00005973 00000011 941.49 240.07 365.33 501.67 977.77 463.98 1106.56 427.42 1009.12 532.26 1026.91 623.33 1134.62 590.96
00005974 00000012 944.82 242.67 362.66 498.36 980.04 454.56 1101.62 423.66 998.93 529.12 1027.10 619.83 1132.69 592.67
00005975 00000013 946.32 240.45 360.91 500.46 980.99 453.25 1102.62 421.38 1000.23 526.48 1028.15 617.57 1135.81 589.77
00005976 00000014 950.95 235.30 358.80 501.81 983.09 450.41 1103.78 418.24 1000.07 522.96 1029.61 615.12 1137.32 587.36
00005977 00000015 955.83 234.80 354.36 499.33 986.62 445.66 1106.46 416.03 1003.02 520.70 1030.94 611.22 1139.11 586.23
00005978 00000016 960.74 229.57 350.60 499.74 990.10 443.52 1109.09 413.93 1005.42 518.14 1031.36 608.01 1140.08 583.60
00005979 00000017 965.05 224.61 347.52 502.16 994.90 440.05 1112.26 412.14 1010.79 515.46 1033.75 605.00 1140.48 582.79
00005980 00000018 969.83 223.36 348.25 499.75 1001.07 436.33 1119.65 413.14 1017.84 513.62 1037.21 600.35 1144.80 582.15
00005981 00000019 967.54 215.47 362.33 506.10 1000.27 438.61 1135.23 410.97 1029.27 510.56 1037.67 600.94 1151.54 578.92
00005982 00000020 973.49 209.82 360.91 513.72 1007.58 436.16 1141.23 411.18 1033.41 510.63 1043.36 599.50 1156.65 579.42
00005983 00000021 979.43 208.89 361.79 520.07 1018.52 433.54 1148.12 407.68 1039.19 507.13 1053.88 603.84 1163.77 582.20
00005984 00000022 984.64 206.65 361.05 532.71 1028.70 431.12 1154.44 403.77 1042.23 498.98 1062.54 608.09 1171.55 583.69
00005985 00000023 988.95 204.75 356.76 536.37 1032.49 429.40 1157.11 401.39 1041.86 491.61 1064.04 607.46 1172.27 582.18
00005986 00000024 990.94 204.62 361.99 536.10 1034.19 423.83 1158.71 400.53 1040.30 488.90 1061.26 603.10 1169.59 581.65
00005987 00000025 992.21 202.49 356.62 529.87 1033.03 425.41 1159.67 403.24 1040.91 489.38 1058.82 598.32 1170.49 578.28
00005988 00000026 993.48 199.72 358.46 530.15 1032.59 426.97 1160.41 404.61 1041.50 492.28 1059.10 597.69 1175.22 577.85
00005989 00000027 994.83 200.19 360.51 530.44 1033.79 427.11 1160.90 404.83 1041.91 493.81 1060.42 597.67 1178.79 577.58
00005990 00000028 993.77 199.75 363.10 533.21 1033.26 426.04 1161.33 403.69 1041.89 493.12 1060.21 596.93 1181.27 576.51
00005991 00000029 993.60 199.81 362.29 533.54 1032.77 426.91 1161.48 403.39 1041.83 494.46 1060.92 598.15 1183.71 576.66
00005992 00000030 993.47 199.93 361.12 534.58 1032.61 427.12 1161.59 403.76 1041.88 495.40 1061.66 597.70 1185.77 575.98
00005993 00000031 993.34 199.95 362.97 535.63 1032.85 428.00 1161.56 404.48 1041.79 496.84 1062.25 598.31 1186.78 576.27
00005994 00000032 993.27 201.19 364.46 535.05 1032.87 428.40 1161.16 405.00 1041.46 497.13 1061.44 598.11 1186.41 576.03
00005995 00000033 993.58 200.69 363.80 535.14 1032.27 428.22 1160.54 405.32 1040.80 497.90 1060.84 597.72 1186.48 576.05
00005996 00000034 993.16 200.82 363.27 533.81 1031.64 428.36 1160.39 406.44 1040.80 499.25 1060.44 597.30 1186.28 576.52
00005997 00000035 993.16 201.07 360.41 532.39 1031.45 429.03 1160.82 408.49 1041.17 500.13 1058.86 596.42 1185.10 576.90
00005998 00000036 993.74 202.20 358.36 529.84 1032.25 428.98 1161.71 409.65 1042.25 500.89 1058.83 595.68 1184.97 577.24
00005999 00000037 995.51 203.06 357.24 527.17 1032.72 429.48 1162.06 409.69 1042.52 501.35 1059.34 595.77 1185.65 577.12
00006000 00000038 997.46 201.28 359.39 528.90 1033.88 429.81 1162.90 408.58 1043.34 501.35 1060.37 596.79 1187.28 577.03
00006001 00000039 998.55 202.42 362.35 528.99 1036.58 430.11 1165.13 407.95 1045.64 501.17 1063.71 597.87 1189.85 577.09
00006002 00000040 1000.90 204.13 362.19 528.90 1041.44 430.34 1167.01 408.05 1049.67 503.38 1070.20 598.61 1193.82 577.14
00006003 00000041 1003.55 204.34 363.00 529.95 1044.97 432.87 1168.61 406.87 1054.59 504.44 1077.57 602.00 1198.00 577.22
00006004 00000042 1004.40 206.98 361.00 527.53 1045.82 434.91 1169.49 405.76 1058.38 505.39 1083.17 604.20 1203.06 576.54
00006005 00000043 1006.81 208.56 363.40 527.10 1047.23 436.44 1171.43 403.70 1061.28 504.53 1086.79 606.61 1205.32 576.06
00006006 00000044 1006.15 214.75 354.62 516.10 1044.00 431.87 1166.67 411.09 1063.85 509.08 1087.42 600.07 1199.14 581.44
00006007 00000045 1008.09 216.50 358.27 515.29 1045.99 433.45 1168.00 411.07 1065.41 509.70 1089.65 601.41 1200.93 581.39
00006008 00000046 1008.86 215.20 358.93 516.69 1047.54 432.33 1168.63 410.10 1066.49 508.52 1090.04 600.99 1200.46 581.15
00006009 00000047 1009.45 214.33 361.50 517.14 1049.96 430.42 1169.82 409.60 1066.77 507.02 1090.49 600.11 1199.61 581.48
00006010 00000048 1016.37 203.53 369.33 530.10 1056.46 434.71 1177.72 401.13 1066.31 500.19 1095.15 606.77 1206.19 576.51
00006011 00000049 1017.11 202.38 368.42 532.50 1057.70 432.30 1179.00 400.11 1066.81 498.96 1095.61 605.37 1206.46 576.14
00006012 00000050 1016.75 206.27 358.59 531.09 1057.32 426.83 1177.74 408.27 1072.20 506.01 1094.67 600.13 1204.37 584.27
00006013 00000051 1019.88 205.47 355.84 536.97 1060.21 427.20 1179.13 408.57 1074.96 506.75 1096.81 605.35 1203.21 589.89
00006014 00000052 1021.60 206.08 356.85 538.70 1063.31 428.39 1179.74 411.31 1076.78 506.98 1095.13 609.38 1195.58 595.91
00006015 00000053 1021.92 207.07 355.40 529.15 1061.35 431.43 1180.26 416.18 1074.99 511.69 1091.96 608.53 1193.34 596.87
00006016 DELETE   1028.98 212.78 353.78 518.16 1066.44 448.62 1194.73 427.44 1074.19 510.44 1090.61 612.08 1192.38 593.02
00006017 DELETE   1029.60 214.84 353.07 522.72 1066.94 455.00 1199.07 434.35 1077.89 515.44 1091.08 621.97 1192.57 603.52
00006018 00000056 1029.44 217.64 350.73 523.44 1068.77 455.77 1203.06 440.54 1083.21 520.32 1089.11 625.72 1189.86 612.10
00006019 00000057 1029.27 222.18 349.30 520.19 1069.95 456.54 1203.82 444.41 1084.26 522.42 1087.85 628.16 1186.57 617.22
00006020 00000058 1028.48 222.78 348.22 519.15 1069.72 454.30 1205.39 446.13 1085.88 525.57 1086.73 626.84 1187.21 619.02
00006021 00000059 1027.31 221.60 346.34 519.45 1070.26 452.91 1205.14 445.95 1086.72 526.34 1086.14 624.24 1187.35 617.44
00006022 00000060 1026.32 218.04 345.38 521.77 1069.59 452.09 1204.22 443.49 1086.12 524.31 1086.50 622.41 1189.94 614.07
00006023 00000061 1025.68 214.48 344.65 524.66 1068.78 451.77 1201.89 440.17 1082.37 523.33 1088.32 619.99 1195.33 608.69
00006024 DELETE   1020.45 213.94 350.65 522.48 1060.59 457.84 1198.34 437.12 1079.81 520.41 1090.64 620.56 1203.15 601.68
00006025 DELETE   1018.40 214.88 351.17 523.55 1058.12 457.04 1192.52 429.97 1076.06 515.68 1093.53 620.11 1205.60 595.40
00006026 00000064 1012.57 213.68 356.53 526.21 1056.32 450.11 1186.89 423.74 1073.37 513.04 1091.97 615.44 1204.48 590.78
00006027 DELETE   1010.65 210.92 357.90 529.19 1053.85 441.77 1182.09 413.58 1072.02 508.18 1092.69 614.07 1202.49 587.76
00006028 00000066 1009.49 208.90 361.02 533.47 1052.32 434.18 1175.85 405.26 1065.39 501.92 1088.81 612.77 1196.95 585.92
00006029 00000067 1006.59 206.72 361.46 537.91 1051.85 428.69 1174.91 402.76 1063.94 498.49 1086.65 612.53 1191.35 588.50
00006030 00000068 1004.75 206.37 362.80 537.28 1052.38 427.23 1178.74 404.60 1067.73 499.29 1084.88 613.96 1186.86 593.33
00006031 00000069 1004.05 204.84 365.56 538.03 1051.75 426.42 1178.77 405.62 1067.14 500.78 1082.42 614.01 1183.03 595.21
00006032 00000070 1002.91 201.34 365.51 540.37 1049.58 426.88 1179.11 406.62 1067.26 502.09 1079.30 614.07 1181.64 596.03
00006033 00000071 1001.76 203.26 359.58 536.97 1046.42 428.83 1177.30 407.77 1063.10 501.46 1074.36 614.03 1180.08 595.25
00006034 00000072 999.53 209.04 354.00 532.40 1042.41 434.51 1169.27 409.02 1064.79 494.35 1075.15 608.54 1174.51 585.78
00006035 00000073 998.72 206.30 355.77 533.69 1041.77 433.30 1171.01 405.95 1057.63 498.95 1073.62 612.72 1183.47 587.89
00006036 00000074 997.91 210.14 356.22 529.58 1043.06 433.42 1167.97 405.72 1055.85 497.91 1074.21 610.25 1183.40 584.72
00006037 00000075 995.75 211.06 357.52 529.26 1041.01 434.59 1165.63 402.76 1053.93 496.15 1074.75 611.48 1185.26 582.17
00006038 00000076 990.76 208.86 357.56 530.45 1034.62 437.03 1162.41 400.93 1049.43 494.44 1071.64 614.53 1183.68 582.01
00006039 00000077 985.56 203.22 361.89 528.46 1025.76 436.17 1158.72 402.10 1044.54 496.64 1063.87 609.40 1178.06 579.77
00006040 00000078 981.86 199.39 364.21 528.25 1013.48 434.83 1152.10 402.30 1035.39 499.39 1049.85 605.58 1169.08 578.69
00006041 00000079 977.67 197.93 363.36 530.75 1008.65 437.33 1148.49 401.43 1033.05 501.88 1048.84 608.43 1167.10 579.06
00006042 00000080 975.39 201.03 366.65 538.20 1010.45 438.36 1147.77 400.00 1032.81 505.53 1055.48 615.96 1174.22 583.08
00006043 00000081 974.76 204.12 366.61 544.98 1011.89 438.24 1148.39 397.94 1034.40 506.75 1060.09 624.98 1176.81 589.86
00006044 00000082 974.83 208.28 364.53 536.30 1012.12 440.27 1139.05 410.53 1035.61 511.84 1053.79 617.45 1164.91 593.57
00006045 00000083 973.66 208.92 362.72 531.67 1010.33 439.13 1136.65 411.91 1034.90 514.17 1050.43 613.15 1163.82 591.17
00006046 00000084 968.73 200.36 368.97 541.53 1001.93 435.84 1142.69 405.97 1030.57 514.54 1045.81 613.90 1165.59 588.67
00006047 00000085 969.88 211.48 368.12 527.10 1007.39 438.84 1134.32 412.50 1032.00 516.83 1048.48 610.56 1163.99 588.87
00006048 00000086 970.18 210.61 369.07 538.59 1007.76 440.62 1133.30 409.82 1031.93 515.93 1053.20 618.07 1165.52 592.74
00006049 00000087 976.87 215.86 362.57 549.76 1009.68 445.62 1133.05 412.24 1033.72 520.05 1057.72 626.89 1170.29 599.18
00006050 DELETE   970.56 222.21 366.10 556.65 1004.83 462.86 1139.10 423.08 1029.50 521.40 1061.76 640.71 1173.60 608.38
00006051 DELETE   971.65 226.53 367.19 553.39 1006.41 459.37 1138.70 422.55 1031.26 524.95 1063.20 641.56 1175.16 611.78
00006052 00000090 971.44 231.98 370.81 542.17 1004.24 458.82 1133.64 422.70 1027.97 531.88 1064.37 639.32 1171.54 610.42
00006053 00000091 969.07 226.87 378.06 539.96 1003.40 457.59 1143.36 423.03 1034.34 532.75 1058.01 636.84 1172.38 609.79
00006054 00000092 972.26 224.52 373.17 539.51 1006.83 455.37 1146.73 424.48 1036.03 531.96 1054.52 634.59 1170.40 610.66
00006055 00000093 973.91 223.96 371.70 541.09 1009.16 452.26 1149.34 420.09 1037.30 526.61 1057.19 634.61 1171.94 609.72
00006056 00000094 977.39 223.28 364.96 543.03 1015.63 451.26 1151.40 416.90 1040.41 515.94 1066.34 635.59 1169.01 608.97
00006057 00000095 982.12 220.94 361.01 542.47 1020.98 445.80 1152.64 412.63 1040.78 509.31 1069.31 631.45 1168.89 605.64
00006058 00000096 984.63 217.52 362.47 535.22 1023.88 441.61 1152.95 408.51 1041.70 504.80 1068.51 623.13 1166.73 597.81
00006059 00000097 984.05 208.30 360.03 535.77 1027.47 437.58 1155.90 404.56 1041.36 501.98 1063.99 618.12 1171.67 589.24
00006060 00000098 988.91 207.09 359.02 529.56 1029.84 437.72 1155.91 408.47 1039.92 501.22 1060.32 611.86 1168.72 586.35
00006061 00000099 993.19 203.64 354.44 527.04 1027.15 445.66 1158.89 416.47 1036.68 503.28 1053.51 609.24 1167.15 584.29
00006062 00000100 992.80 202.84 351.71 524.36 1022.65 447.03 1155.40 421.09 1030.30 505.03 1046.05 605.60 1161.11 583.95
00006063 00000101 990.72 200.69 356.54 527.59 1020.64 445.62 1152.22 422.01 1025.55 504.42 1040.70 603.30 1155.83 583.82
00006064 00000102 986.60 201.44 358.18 525.97 1015.07 441.10 1147.13 419.00 1022.40 502.57 1035.03 602.91 1150.36 585.18
00006065 00000103 984.97 200.31 355.99 527.78 1015.12 433.45 1143.38 420.86 1018.82 504.41 1032.91 598.35 1147.24 588.36
00006066 00000104 980.94 201.19 362.15 531.88 1012.99 428.07 1140.58 416.61 1016.00 503.20 1032.55 598.32 1146.91 588.71
00006067 00000105 977.23 202.29 358.46 539.59 1010.11 424.81 1135.11 410.60 1010.18 501.86 1034.09 601.92 1148.10 589.08
00006068 00000106 975.15 198.30 358.26 546.00 1009.24 423.87 1134.82 407.15 1012.00 500.10 1034.50 604.01 1146.37 588.99
00006069 00000107 973.26 197.03 353.72 541.61 1007.29 425.40 1134.40 404.77 1015.82 499.33 1035.76 604.19 1144.46 586.58
00006070 00000108 970.89 197.20 359.53 535.71 1005.62 427.39 1134.45 404.57 1017.25 500.86 1036.87 602.48 1145.83 583.40
00006071 00000109 970.72 197.65 364.21 531.32 1004.12 430.27 1134.49 406.00 1017.52 504.16 1037.35 601.93 1147.61 582.31
00006072 00000110 971.09 197.74 367.66 529.11 1005.61 430.13 1137.33 407.04 1021.94 504.27 1039.70 598.63 1152.12 579.87
00006073 00000111 971.37 198.33 372.53 527.91 1006.33 429.86 1139.67 406.98 1024.37 504.71 1040.80 597.66 1155.44 579.07
00006074 00000112 971.01 198.28 372.38 528.21 1008.25 430.97 1142.69 407.84 1028.27 504.76 1043.52 597.78 1159.48 578.56
00006075 00000113 976.39 200.78 365.30 527.59 1016.43 432.50 1148.07 408.65 1034.73 506.29 1052.10 600.14 1167.04 579.43
00006076 00000114 982.00 200.62 363.26 529.88 1026.31 433.31 1154.25 409.94 1045.29 507.35 1065.21 600.59 1179.07 579.08
00006077 00000115 987.17 206.00 369.37 531.15 1033.25 446.41 1158.05 413.60 1056.65 504.78 1076.71 604.67 1184.15 575.60
00006078 00000116 985.63 205.80 373.10 529.71 1033.90 448.50 1167.27 410.71 1071.12 506.93 1082.02 606.12 1199.03 573.20
00006079 00000117 987.16 201.55 383.05 530.52 1035.92 444.03 1175.82 404.86 1082.72 509.43 1085.04 605.36 1210.34 571.86
00006080 00000118 986.72 199.03 385.01 529.96 1036.57 444.92 1179.47 399.94 1087.99 506.75 1087.19 607.29 1216.43 569.21
00006081 00000119 985.00 195.92 387.76 530.51 1036.70 443.31 1180.96 398.08 1089.66 503.32 1087.01 604.69 1216.45 566.43
00006082 00000120 982.30 197.69 387.48 527.16 1035.07 442.32 1179.88 397.84 1089.00 502.92 1086.04 602.11 1216.02 564.31
00006083 00000121 980.54 197.23 385.91 534.02 1033.31 441.27 1174.44 399.72 1081.60 499.15 1084.23 602.58 1208.54 566.92
00006084 00000122 980.66 193.72 380.79 544.03 1037.11 431.26 1176.01 398.73 1075.03 500.59 1084.79 607.39 1201.99 577.48
00006085 00000123 977.12 191.05 380.82 551.56 1034.74 429.08 1172.11 399.44 1068.62 496.09 1079.20 609.32 1191.18 582.18
00006086 00000124 974.71 187.60 378.37 555.20 1028.81 425.97 1167.46 402.32 1057.89 495.36 1066.50 607.59 1178.09 585.89
00006087 00000125 974.13 184.39 375.43 554.51 1022.05 422.92 1161.82 403.75 1046.71 495.78 1055.29 601.82 1168.64 584.36
00006088 00000126 973.63 186.82 370.53 545.79 1017.97 422.41 1158.09 407.22 1043.52 495.08 1044.46 595.08 1160.63 581.84
00006089 00000127 973.66 185.40 367.11 544.14 1017.39 420.87 1157.94 406.09 1042.86 494.05 1042.19 592.88 1159.13 580.58
00006090 00000128 974.21 186.06 364.58 545.48 1018.65 419.46 1158.97 405.84 1041.85 491.80 1041.24 593.01 1158.77 581.36
00006091 00000129 975.86 184.20 360.10 552.43 1020.74 418.49 1161.88 405.15 1041.82 491.48 1045.23 596.19 1164.53 583.76
00006092 00000130 979.41 186.04 363.50 547.32 1022.32 420.15 1161.37 404.75 1041.65 493.17 1049.13 595.11 1171.97 581.18
00006093 00000131 982.39 186.61 366.17 540.35 1023.56 422.77 1163.40 402.63 1046.99 494.02 1054.51 595.55 1179.02 578.44
00006094 00000132 989.32 185.43 361.77 536.80 1025.33 427.95 1165.24 402.67 1049.66 496.77 1055.33 595.88 1185.66 574.70
00006095 DELETE   993.37 196.24 366.13 527.75 1030.75 444.69 1168.61 412.47 1055.34 496.06 1060.22 596.55 1183.13 568.45
00006096 00000134 993.34 190.51 365.90 534.12 1027.86 440.42 1164.92 406.61 1050.60 500.03 1062.78 599.23 1191.64 569.91
00006097 00000135 993.70 188.07 366.59 536.37 1029.32 434.52 1163.23 401.81 1048.94 497.63 1065.66 597.65 1193.48 569.34
00006098 00000136 988.66 184.83 373.10 541.84 1022.01 432.40 1156.52 397.55 1040.23 498.43 1063.61 599.87 1189.27 569.99
00006099 DELETE   973.68 193.86 381.26 539.20 1009.95 437.63 1142.38 392.27 1031.57 501.62 1061.65 607.97 1181.47 569.84
00006100 DELETE   963.69 213.57 377.02 524.72 1002.98 437.82 1119.38 395.18 1015.53 509.32 1056.05 615.05 1161.87 578.89
00006101 DELETE   946.75 206.31 384.51 534.95 986.89 441.29 1095.05 391.91 1001.29 503.60 1043.51 618.08 1137.61 574.24
00006102 00000140 940.39 209.69 371.77 531.10 974.17 449.79 1081.27 401.35 978.31 513.19 1024.16 622.26 1121.27 579.19
00006103 00000141 933.27 204.55 373.54 535.17 967.54 451.37 1078.89 403.96 972.18 518.62 1018.83 619.74 1121.93 577.47
00006104 00000142 930.75 203.85 373.27 534.48 968.69 447.18 1083.41 403.93 978.13 515.10 1017.30 615.53 1122.84 576.62
00006105 00000143 930.07 199.54 377.58 538.03 967.51 445.84 1088.38 398.54 986.23 511.45 1022.12 616.60 1132.44 574.47
00006106 00000144 924.58 200.68 381.86 532.65 967.32 446.81 1094.27 395.40 996.92 507.98 1025.84 616.03 1140.07 570.59
00006107 00000145 920.46 199.54 387.74 531.87 966.82 445.39 1095.66 390.68 1001.26 504.31 1028.60 614.80 1144.96 566.79
00006108 00000146 918.65 199.71 389.34 531.22 965.67 446.24 1097.37 389.88 1003.40 502.87 1027.42 615.55 1146.87 566.36
00006109 00000147 921.44 197.21 389.97 533.33 967.56 443.88 1100.67 389.33 1005.07 503.74 1025.64 613.81 1149.21 566.41
00006110 00000148 918.15 195.92 394.00 535.51 964.08 444.35 1096.68 390.09 1007.75 504.61 1022.86 608.83 1145.57 563.12
00006111 00000149 921.63 195.38 394.02 535.61 967.89 444.05 1099.98 389.41 1010.61 505.48 1026.61 609.41 1149.80 563.47
00006112 00000150 929.77 202.63 389.01 526.83 976.83 444.66 1102.92 394.06 1007.47 510.01 1039.24 608.18 1156.96 563.95
00006113 00000151 937.09 204.98 383.80 523.18 982.10 446.44 1108.91 393.42 1013.60 511.65 1043.87 610.08 1163.56 564.41
CROP_BBOX: 735 0 1590 902
