Video ID: 	zRwRmv6EkdY
H: 	1080
W: 	1920
FPS: 	25.0

FRAME INDEX X0 Y0 W H [Landmarks (5 Points)]

00024211 00000000 888.61 222.05 425.89 546.78 976.24 422.61 1169.85 418.20 1063.40 525.08 1004.79 639.25 1138.56 635.63
00024212 DELETE   887.93 220.89 427.48 549.89 980.06 421.00 1172.84 417.15 1071.21 523.47 1013.33 640.14 1143.68 636.72
00024213 00000002 887.83 213.59 428.39 560.32 985.82 416.73 1180.21 416.57 1080.93 522.57 1016.81 639.67 1147.76 639.05
00024214 DELETE   880.94 202.52 435.30 570.92 998.89 409.38 1197.33 419.31 1092.16 528.73 1019.45 634.85 1158.40 644.71
00024215 DELETE   885.12 197.65 433.49 578.10 1012.20 409.62 1212.92 422.63 1113.89 528.09 1031.61 636.56 1176.44 648.89
00024216 00000005 887.50 190.96 434.99 582.47 1020.92 409.34 1220.22 424.43 1124.37 527.29 1039.22 632.09 1184.51 645.91
00024217 00000006 886.36 189.09 433.71 577.98 1021.85 408.00 1222.76 419.07 1130.73 526.49 1043.98 632.86 1193.35 642.65
00024218 00000007 883.93 189.01 433.86 572.81 1021.74 406.47 1221.42 417.12 1131.67 522.73 1046.30 627.41 1195.48 636.66
00024219 00000008 880.95 193.20 432.53 562.84 1021.09 406.42 1218.15 413.89 1131.77 523.12 1051.65 624.83 1195.52 631.61
00024220 00000009 879.59 196.76 428.68 552.92 1021.43 407.98 1213.57 411.49 1132.71 525.37 1060.10 629.45 1192.55 633.11
00024221 00000010 876.69 194.43 429.24 552.37 1022.11 407.39 1210.79 408.38 1134.42 520.86 1065.28 624.97 1193.21 626.36
00024222 00000011 875.98 189.56 430.45 555.92 1020.82 403.92 1208.81 404.03 1133.80 515.57 1065.37 619.28 1193.73 620.10
00024223 00000012 872.14 187.64 434.81 557.27 1015.75 401.30 1206.13 398.79 1130.64 505.00 1061.73 615.26 1194.25 613.88
00024224 00000013 875.33 185.72 435.01 557.11 1012.01 401.03 1206.69 395.57 1127.32 497.05 1060.94 614.27 1196.29 610.43
00024225 00000014 883.03 183.69 431.23 556.39 1010.65 397.97 1206.67 391.10 1125.53 490.15 1063.02 612.41 1201.14 607.05
00024226 00000015 888.45 184.25 432.14 556.85 1011.91 396.63 1207.24 386.25 1126.64 486.79 1067.11 611.50 1206.70 602.77
00024227 00000016 894.66 184.10 433.24 562.71 1013.69 398.34 1208.05 385.31 1127.02 490.62 1070.20 616.09 1208.24 604.95
00024228 00000017 899.31 181.62 433.75 567.98 1019.40 400.96 1214.16 389.42 1131.21 498.78 1074.58 621.32 1210.92 610.84
00024229 00000018 903.33 185.08 434.33 566.89 1023.75 403.94 1222.66 394.66 1135.11 506.32 1078.48 626.31 1218.42 617.23
00024230 00000019 908.82 194.50 436.79 561.41 1029.80 408.17 1233.06 395.90 1145.06 510.77 1082.50 636.82 1216.68 623.03
00024231 00000020 910.91 202.08 438.06 558.65 1034.47 416.11 1231.95 401.09 1148.61 516.83 1091.76 642.69 1220.86 626.38
00024232 00000021 916.49 207.83 433.05 555.52 1037.45 423.40 1232.78 407.08 1151.46 524.94 1097.19 650.09 1226.17 632.55
00024233 00000022 920.00 210.98 431.99 554.71 1035.09 429.73 1230.79 410.34 1148.16 530.06 1096.67 655.43 1227.42 635.59
00024234 00000023 924.80 211.94 429.01 552.54 1035.62 431.44 1230.50 411.13 1147.64 531.61 1095.77 655.73 1228.79 635.08
00024235 00000024 927.01 211.21 427.32 555.47 1036.43 431.24 1231.04 410.44 1148.44 531.78 1096.02 654.71 1229.11 633.88
00024236 00000025 929.23 209.99 425.13 556.68 1038.57 431.18 1234.20 411.48 1151.10 531.34 1095.67 654.81 1230.46 634.98
00024237 00000026 929.05 213.92 426.01 554.20 1042.75 431.42 1238.67 414.94 1154.66 530.71 1096.21 654.54 1231.05 637.66
00024238 00000027 931.33 212.12 423.50 553.83 1044.75 431.61 1240.93 415.08 1157.87 532.02 1096.66 654.93 1233.53 637.98
00024239 00000028 929.70 209.31 424.82 555.35 1043.61 433.39 1240.68 415.97 1157.38 535.92 1095.78 657.39 1235.02 639.34
00024240 00000029 929.43 208.29 423.52 556.29 1042.18 434.04 1239.83 416.80 1156.21 535.78 1095.56 657.83 1236.68 639.58
00024241 00000030 926.10 211.19 425.06 556.42 1044.11 432.80 1241.80 414.49 1161.65 532.25 1099.12 655.37 1239.87 636.41
00024242 00000031 925.69 206.27 425.73 564.23 1047.85 428.25 1246.05 410.44 1167.47 527.51 1101.05 652.08 1241.36 634.06
00024243 00000032 923.99 204.68 426.96 567.42 1049.22 427.67 1245.38 409.48 1170.96 527.89 1102.62 650.76 1241.09 632.38
00024244 00000033 924.10 205.43 425.82 566.61 1049.50 428.91 1246.26 411.51 1171.50 529.85 1100.22 649.75 1242.71 632.21
00024245 00000034 925.51 208.10 424.37 568.53 1050.33 430.21 1246.02 413.63 1170.65 531.79 1100.07 652.72 1240.60 636.04
00024246 00000035 922.37 211.48 427.20 569.89 1048.28 432.20 1244.19 417.99 1167.58 534.87 1099.28 657.31 1238.03 642.31
00024247 00000036 922.31 212.13 425.10 566.53 1045.23 434.74 1242.76 420.02 1164.66 536.32 1098.20 660.14 1237.80 644.45
00024248 00000037 923.84 213.14 422.00 557.45 1044.08 437.94 1241.59 419.80 1163.11 537.57 1097.91 661.07 1240.67 642.44
00024249 00000038 923.73 211.36 422.73 554.23 1044.75 438.98 1240.16 418.53 1163.82 536.22 1101.23 659.44 1243.50 638.70
00024250 00000039 925.34 212.11 421.40 554.72 1045.66 438.81 1239.91 417.62 1164.47 536.32 1102.96 658.03 1243.72 636.75
00024251 00000040 925.07 212.08 422.44 555.20 1045.08 437.23 1239.14 416.79 1164.01 536.52 1104.99 658.89 1240.86 638.12
00024252 00000041 925.46 213.92 422.19 552.63 1045.90 436.07 1237.71 416.23 1163.07 535.67 1106.26 657.87 1238.38 637.67
00024253 00000042 923.04 212.27 424.82 553.30 1045.23 433.60 1237.09 415.01 1162.27 535.66 1106.61 655.89 1235.64 636.79
00024254 00000043 921.32 211.29 427.46 555.04 1044.44 433.75 1236.17 416.36 1161.21 536.01 1105.97 656.04 1233.54 638.20
00024255 00000044 921.92 214.34 426.62 550.77 1043.57 434.77 1235.47 416.99 1160.00 536.86 1104.90 657.50 1233.47 639.24
00024256 00000045 921.95 213.07 427.52 552.31 1043.06 435.82 1235.56 418.99 1159.26 537.70 1104.03 658.30 1234.22 640.69
00024257 00000046 923.06 212.96 426.28 549.28 1042.47 436.85 1235.52 419.06 1157.83 538.44 1101.83 659.51 1234.55 640.92
00024258 00000047 925.03 210.61 423.94 552.47 1042.34 434.40 1236.00 416.30 1157.96 536.59 1101.28 659.00 1234.83 639.93
00024259 00000048 925.12 206.36 424.85 555.14 1042.61 430.29 1238.30 411.89 1159.78 532.95 1100.49 656.65 1235.71 637.28
00024260 00000049 922.30 205.16 427.80 557.67 1039.50 425.71 1239.85 409.22 1156.80 526.81 1094.44 655.68 1233.17 637.92
00024261 00000050 918.65 197.71 431.17 572.05 1035.54 420.08 1235.92 404.91 1152.73 523.66 1091.92 652.14 1226.25 635.60
00024262 00000051 912.18 206.25 435.14 574.23 1028.15 417.09 1228.50 404.49 1142.30 518.35 1081.90 648.78 1216.14 635.21
00024263 00000052 911.94 211.57 432.17 576.65 1018.66 418.34 1218.62 406.29 1128.35 518.63 1065.80 650.43 1205.89 637.99
00024264 00000053 908.54 215.05 432.67 573.69 1013.82 419.02 1213.39 404.89 1121.74 515.91 1059.38 649.63 1202.73 636.02
00024265 00000054 908.96 213.04 431.62 573.40 1013.30 420.46 1211.33 404.06 1121.02 515.13 1058.91 647.96 1203.57 632.52
00024266 00000055 909.64 213.03 432.83 571.73 1015.47 420.87 1214.06 405.32 1123.72 515.63 1061.14 646.68 1206.11 631.65
00024267 00000056 911.88 210.54 432.09 571.06 1020.16 420.28 1219.79 405.39 1132.16 516.48 1069.03 646.79 1212.08 631.65
00024268 00000057 912.07 207.58 435.34 570.10 1025.74 419.33 1226.71 406.52 1139.16 516.58 1076.76 645.76 1217.32 631.66
00024269 00000058 913.88 208.15 435.27 566.24 1028.64 419.89 1230.49 406.83 1143.43 519.18 1082.82 648.55 1220.78 634.12
00024270 00000059 915.74 210.78 433.76 560.41 1033.62 421.47 1233.75 407.73 1149.28 523.86 1090.26 650.90 1224.55 635.45
00024271 00000060 919.92 208.96 430.00 558.84 1037.52 426.88 1234.53 411.41 1152.10 526.31 1095.50 654.27 1227.95 637.54
00024272 00000061 920.40 208.94 430.94 556.93 1038.77 430.62 1234.91 414.10 1153.80 533.69 1099.60 656.44 1231.31 638.81
00024273 00000062 922.30 212.91 428.48 554.26 1040.58 435.54 1235.55 418.83 1155.48 537.98 1100.97 658.76 1233.62 641.11
00024274 00000063 921.83 216.19 429.16 556.56 1042.57 441.71 1235.81 424.32 1157.57 543.23 1101.71 659.73 1236.07 641.77
00024275 00000064 922.73 219.88 428.66 557.42 1046.09 449.02 1238.05 431.61 1161.43 548.68 1106.92 667.22 1239.81 649.00
00024276 00000065 922.80 223.78 431.98 559.81 1048.76 454.20 1240.78 436.92 1165.78 553.49 1112.05 672.49 1244.84 654.01
00024277 00000066 927.08 228.97 428.99 556.70 1054.60 459.55 1245.88 441.33 1172.60 555.60 1119.02 678.24 1250.23 659.46
00024278 00000067 928.86 228.07 427.83 564.10 1054.31 463.04 1246.71 439.95 1174.87 556.14 1121.28 682.23 1253.90 660.00
00024279 00000068 926.65 233.06 429.02 560.83 1054.77 462.17 1245.63 439.34 1175.76 559.58 1123.17 682.92 1254.83 660.55
00024280 00000069 926.94 232.41 427.22 561.53 1054.64 463.43 1246.26 439.14 1177.20 559.63 1123.21 683.17 1257.20 659.72
00024281 00000070 927.03 233.41 427.75 559.44 1054.62 464.25 1245.80 439.27 1177.55 559.39 1123.99 682.69 1257.35 658.72
00024282 00000071 925.11 236.60 429.74 559.76 1053.33 464.77 1245.03 438.48 1176.90 560.99 1123.49 683.93 1257.55 659.03
00024283 00000072 924.63 236.35 429.44 561.21 1051.95 468.11 1243.22 440.17 1175.86 564.65 1123.22 687.20 1257.01 661.00
00024284 00000073 921.82 238.02 432.02 561.79 1049.68 470.24 1241.20 441.02 1174.26 566.61 1122.98 689.00 1257.70 661.64
00024285 00000074 920.00 239.48 432.33 561.51 1048.71 469.49 1239.12 440.07 1172.87 567.88 1123.20 689.75 1255.21 662.19
00024286 00000075 918.87 241.64 432.72 561.30 1047.21 468.23 1237.52 438.83 1171.30 568.03 1121.77 690.41 1253.42 662.96
00024287 00000076 917.79 241.77 433.95 564.29 1045.64 466.94 1236.90 437.69 1169.75 566.84 1120.40 691.74 1251.71 664.67
00024288 00000077 917.10 241.96 434.91 565.19 1044.09 465.85 1234.57 436.98 1166.93 565.37 1119.28 690.75 1250.18 663.88
00024289 00000078 918.24 241.75 433.54 565.15 1044.12 466.52 1234.13 437.63 1166.41 564.44 1118.39 691.02 1250.32 664.16
00024290 00000079 918.45 241.78 433.36 563.66 1044.09 466.66 1234.24 437.74 1166.18 567.35 1119.12 691.66 1250.37 664.76
00024291 00000080 920.37 241.48 430.98 561.83 1044.23 468.16 1234.68 438.89 1165.80 567.27 1119.05 692.64 1250.80 665.54
00024292 00000081 921.06 242.91 430.85 559.85 1043.98 469.58 1235.70 439.34 1165.22 568.77 1119.27 693.74 1251.58 665.76
00024293 00000082 920.82 243.48 431.10 560.34 1043.93 469.87 1235.33 439.39 1165.10 569.03 1119.03 693.56 1251.47 665.48
00024294 00000083 920.80 243.36 430.82 559.95 1044.15 471.07 1235.91 440.50 1165.43 569.31 1118.96 693.31 1252.04 665.33
00024295 00000084 920.01 240.60 434.58 563.41 1044.80 475.88 1238.32 447.28 1166.57 569.65 1116.26 694.44 1253.42 668.37
00024296 00000085 918.92 244.77 434.66 560.20 1046.25 481.29 1238.12 453.41 1167.68 572.63 1115.56 694.80 1251.79 669.47
00024297 00000086 916.11 249.49 436.26 559.41 1044.90 481.71 1237.63 454.21 1166.70 577.16 1113.98 696.02 1250.96 671.19
00024298 00000087 913.92 249.64 438.71 560.27 1042.13 479.21 1238.62 450.01 1165.37 577.71 1113.30 696.78 1252.84 670.15
00024299 00000088 914.04 250.10 437.55 561.09 1041.67 478.71 1236.79 450.48 1164.20 581.47 1112.63 697.15 1250.83 671.49
00024300 00000089 914.46 251.85 435.73 557.50 1041.46 480.69 1235.92 451.98 1164.42 584.78 1113.46 698.25 1250.88 672.13
00024301 00000090 914.33 256.11 435.54 553.50 1041.53 482.01 1235.52 453.42 1164.84 588.78 1114.13 699.98 1250.30 674.09
00024302 00000091 914.22 257.81 434.82 552.89 1040.63 483.66 1234.61 454.46 1163.97 591.34 1113.95 701.55 1249.79 675.21
00024303 00000092 914.01 260.43 434.92 552.02 1040.10 486.74 1233.25 458.35 1162.08 591.56 1112.53 702.51 1248.53 676.93
00024304 00000093 913.76 258.57 435.71 557.06 1038.72 490.90 1231.21 459.36 1160.95 597.71 1112.67 707.13 1248.55 679.00
00024305 00000094 917.25 259.09 431.82 558.64 1038.49 489.83 1230.18 456.56 1164.10 597.90 1109.34 713.33 1243.32 680.84
00024306 00000095 918.13 262.76 431.21 553.96 1037.32 490.63 1229.92 456.99 1162.71 600.28 1108.86 714.12 1243.43 681.37
00024307 00000096 918.43 261.73 431.90 554.87 1036.70 491.96 1229.42 458.19 1161.69 601.71 1109.25 715.67 1243.99 682.67
00024308 00000097 917.38 263.32 433.11 556.02 1037.51 494.37 1229.12 460.75 1161.97 601.96 1109.12 716.27 1243.84 683.48
00024309 00000098 917.21 261.75 436.30 563.79 1036.81 503.76 1230.07 469.32 1159.69 604.14 1107.38 720.43 1245.88 687.10
00024310 00000099 916.73 264.06 435.59 570.70 1036.99 505.56 1228.71 471.61 1159.61 605.04 1105.75 722.14 1243.61 689.61
00024311 00000100 916.72 267.82 435.59 564.16 1036.42 507.08 1227.45 473.23 1157.21 605.56 1103.81 721.35 1243.01 689.02
00024312 00000101 915.77 269.42 435.56 552.96 1036.43 507.76 1226.28 474.65 1155.01 603.79 1099.76 715.41 1242.35 683.99
00024313 00000102 914.59 272.00 436.14 548.36 1040.39 508.93 1226.56 478.03 1156.62 602.75 1099.69 710.67 1240.46 681.04
00024314 00000103 912.26 268.09 436.94 551.87 1041.57 508.65 1231.37 483.42 1156.94 605.18 1101.18 707.38 1241.24 685.39
00024315 00000104 919.27 259.94 434.05 564.02 1044.53 503.88 1234.83 475.94 1162.97 602.81 1106.20 715.28 1242.39 687.71
00024316 00000105 920.71 265.55 432.44 564.05 1045.29 504.14 1235.18 474.66 1164.49 602.61 1108.76 719.06 1241.19 690.47
00024317 00000106 920.05 265.54 433.30 560.14 1044.23 506.34 1235.04 475.76 1164.26 601.42 1106.69 718.06 1244.87 688.52
00024318 00000107 918.19 267.89 435.38 559.34 1040.83 505.96 1232.78 474.86 1160.71 601.96 1101.53 715.42 1244.38 685.64
00024319 00000108 914.30 268.77 440.78 564.07 1035.12 503.62 1231.31 477.00 1154.36 603.83 1098.30 716.68 1241.81 690.19
00024320 00000109 913.01 263.39 440.54 571.63 1033.66 502.70 1229.25 477.48 1152.15 602.91 1098.03 717.55 1237.69 692.01
00024321 00000110 911.47 264.82 441.14 567.44 1032.85 502.65 1228.93 479.06 1151.09 603.76 1097.16 718.79 1235.10 694.62
00024322 00000111 911.94 263.39 438.62 564.07 1034.53 499.88 1226.95 479.03 1150.77 605.10 1097.55 716.69 1228.64 695.32
00024323 00000112 907.31 263.02 438.56 559.87 1037.98 500.94 1227.61 483.81 1149.35 610.44 1097.98 710.75 1228.60 695.33
00024324 00000113 909.86 260.56 437.74 562.65 1040.22 499.57 1229.49 483.55 1150.86 610.76 1100.18 711.23 1229.54 696.59
00024325 00000114 916.58 261.33 437.97 565.53 1039.83 497.19 1232.43 477.74 1154.17 605.09 1099.83 715.91 1229.84 695.65
00024326 00000115 918.23 262.77 437.25 564.21 1041.98 495.49 1233.95 476.73 1155.99 602.02 1101.56 714.36 1231.31 694.50
00024327 00000116 918.93 260.46 436.69 569.01 1040.30 494.18 1235.13 475.57 1156.00 603.07 1100.27 716.22 1231.70 696.58
00024328 00000117 918.27 259.35 438.25 573.96 1037.48 490.44 1236.26 475.30 1153.32 601.37 1095.00 714.66 1228.53 697.88
00024329 00000118 913.97 255.81 441.43 575.17 1036.97 486.78 1231.88 477.31 1144.41 594.95 1086.31 703.84 1223.66 694.79
00024330 00000119 910.96 248.14 442.19 578.90 1029.87 482.04 1223.30 475.51 1133.33 586.42 1077.93 697.38 1214.96 690.64
00024331 00000120 908.41 250.41 440.66 575.69 1020.74 481.71 1212.15 472.05 1120.39 582.89 1068.58 695.18 1206.80 686.12
00024332 00000121 904.41 248.80 441.67 579.27 1014.40 479.63 1205.63 470.32 1111.63 580.36 1060.90 693.18 1202.21 684.50
00024333 00000122 902.26 247.43 441.89 583.81 1011.47 478.48 1202.62 470.29 1107.76 581.83 1057.01 695.42 1195.43 688.04
00024334 00000123 904.64 246.93 439.43 580.01 1013.53 483.39 1202.89 473.27 1110.77 584.03 1061.42 695.46 1198.59 686.47
00024335 DELETE   908.11 250.32 438.98 570.79 1019.83 485.74 1209.72 474.89 1121.36 585.95 1071.03 693.23 1211.07 683.10
00024336 00000125 911.45 249.13 440.80 568.56 1028.13 479.38 1221.86 466.95 1135.58 584.21 1082.32 691.31 1222.89 679.39
00024337 DELETE   916.92 244.37 439.22 571.34 1037.80 478.59 1234.17 464.51 1150.56 579.39 1091.61 690.57 1236.22 676.67
00024338 00000127 921.12 242.87 437.26 577.88 1046.02 477.86 1240.87 464.23 1160.54 581.82 1099.05 692.48 1241.22 679.07
00024339 00000128 924.37 243.85 434.14 571.89 1051.84 475.54 1247.37 461.77 1168.15 579.97 1104.74 691.49 1244.51 677.92
00024340 00000129 928.81 241.03 430.40 565.86 1055.45 474.29 1251.11 462.47 1170.70 578.74 1108.07 687.59 1248.40 675.51
00024341 00000130 930.14 241.04 430.50 560.88 1058.58 473.90 1250.65 462.80 1171.13 578.88 1110.61 687.27 1244.09 676.07
00024342 00000131 929.88 243.88 431.53 558.06 1062.05 473.51 1252.42 462.24 1174.65 579.52 1115.16 688.67 1243.43 677.63
00024343 00000132 935.12 246.44 435.50 557.33 1069.91 471.19 1260.53 463.83 1178.81 576.24 1117.46 683.27 1245.80 677.43
00024344 00000133 941.10 248.71 432.82 556.19 1071.38 473.74 1263.66 467.40 1179.05 581.93 1114.98 684.03 1246.04 679.57
00024345 00000134 939.05 249.33 437.12 560.45 1067.44 472.13 1263.43 468.61 1174.65 583.46 1109.46 684.63 1243.46 682.39
00024346 00000135 939.31 248.08 436.42 562.37 1060.23 473.31 1257.94 467.35 1165.43 582.33 1103.34 686.33 1238.36 682.07
00024347 00000136 936.85 247.89 435.95 565.99 1052.85 474.13 1252.89 467.51 1156.91 581.32 1095.65 687.61 1231.60 682.72
00024348 00000137 930.07 242.85 438.31 567.83 1048.79 474.09 1238.65 466.73 1150.24 580.01 1095.43 686.04 1228.80 677.93
00024349 00000138 930.09 240.77 440.01 569.53 1046.51 471.15 1237.51 463.83 1147.23 575.92 1092.59 684.07 1226.09 676.07
CROP_BBOX: 669 0 1584 965
