Video ID: 	Ik0HmxAPHww
H: 	1080
W: 	1920
FPS: 	29.97002997002997

FRAME INDEX X0 Y0 W H [Landmarks (5 Points)]

00002433 00000000 1053.60 160.44 394.63 561.12 1169.23 390.99 1335.84 430.19 1231.47 507.45 1146.53 560.24 1294.71 594.41
00002434 DELETE   1052.77 158.49 395.62 562.26 1174.80 391.36 1344.03 426.27 1245.83 503.67 1157.60 559.13 1309.61 589.23
00002435 DELETE   1059.66 157.73 390.98 567.73 1180.18 394.67 1351.93 427.72 1255.85 507.33 1164.29 566.14 1318.35 594.60
00002436 00000003 1056.63 160.15 389.16 573.10 1183.45 395.77 1356.93 431.58 1267.21 513.00 1168.90 578.93 1323.38 608.32
00002437 DELETE   1055.20 162.27 389.66 575.62 1178.58 410.41 1356.42 443.50 1263.07 529.02 1161.58 588.59 1321.51 615.54
00002438 DELETE   1054.20 168.87 394.30 579.59 1172.64 419.16 1355.83 459.89 1252.78 538.96 1153.79 597.43 1314.97 630.39
00002439 DELETE   1053.53 185.74 397.62 574.45 1172.03 431.98 1353.27 474.24 1247.54 555.32 1151.52 608.05 1307.74 643.51
00002440 00000007 1054.86 203.30 398.70 563.80 1174.98 445.51 1355.66 487.82 1250.18 569.42 1149.96 610.58 1312.97 646.92
00002441 00000008 1057.26 215.60 402.69 553.62 1181.36 450.73 1360.06 494.61 1253.05 576.23 1152.06 612.58 1315.19 650.77
00002442 00000009 1067.31 215.78 400.10 553.71 1192.34 450.24 1367.34 497.13 1261.24 580.10 1160.12 613.95 1317.35 655.01
00002443 00000010 1072.03 216.12 400.58 554.39 1201.55 449.41 1374.25 499.26 1270.02 579.75 1166.03 613.53 1320.81 657.09
00002444 00000011 1077.03 215.80 401.01 553.53 1207.80 445.48 1381.13 497.02 1276.33 577.80 1171.83 613.35 1325.78 658.49
00002445 00000012 1084.37 211.51 392.96 554.79 1211.30 443.03 1389.39 489.75 1282.95 577.46 1174.60 616.26 1329.03 656.32
00002446 00000013 1087.41 210.54 391.56 556.89 1214.35 443.96 1392.12 489.93 1286.18 577.75 1176.59 616.39 1331.13 656.01
00002447 00000014 1089.38 214.75 390.46 552.31 1214.84 444.83 1393.83 491.74 1286.47 578.21 1176.16 615.60 1332.59 656.02
00002448 00000015 1091.64 213.72 389.98 553.46 1216.22 447.04 1395.68 493.94 1287.44 577.75 1178.00 617.30 1334.17 657.66
00002449 00000016 1092.23 215.43 389.88 552.75 1216.99 446.98 1397.28 494.15 1288.38 578.25 1178.27 616.89 1336.20 657.52
00002450 00000017 1093.87 213.67 388.95 553.48 1219.23 443.77 1399.28 490.39 1291.55 575.89 1180.49 614.09 1339.45 654.38
00002451 00000018 1094.85 210.62 388.67 553.11 1221.42 440.60 1400.24 485.67 1294.54 571.37 1183.37 611.95 1339.85 650.81
00002452 00000019 1096.38 209.01 386.15 548.81 1223.10 436.54 1400.45 482.41 1296.42 565.37 1185.83 607.93 1341.73 646.96
00002453 00000020 1097.19 203.97 386.43 549.92 1225.68 430.79 1401.53 477.34 1297.74 561.38 1187.18 602.44 1343.29 642.13
00002454 00000021 1099.35 199.13 388.67 548.64 1228.98 426.59 1403.59 473.72 1299.92 555.46 1190.65 598.35 1345.08 638.50
00002455 00000022 1100.61 195.74 390.21 552.64 1233.80 421.74 1404.71 472.33 1302.94 550.60 1194.07 594.26 1344.51 637.41
00002456 00000023 1101.87 194.98 393.57 551.95 1237.76 421.32 1408.90 473.26 1306.92 547.38 1197.56 592.56 1347.25 636.65
00002457 00000024 1102.67 194.60 393.36 551.26 1240.19 420.42 1410.15 473.76 1309.00 547.19 1199.30 591.58 1347.82 636.82
00002458 00000025 1103.43 194.65 396.17 549.85 1241.06 419.22 1412.22 472.92 1309.20 546.51 1200.32 590.78 1349.90 636.20
00002459 00000026 1103.67 194.69 396.75 549.56 1241.98 418.33 1413.25 472.22 1310.14 546.00 1201.71 590.11 1351.26 635.66
00002460 00000027 1103.44 195.23 397.07 548.40 1242.31 418.47 1413.95 472.00 1310.49 545.73 1201.43 590.22 1351.32 635.49
00002461 00000028 1103.50 195.03 396.49 548.78 1241.64 418.10 1413.59 472.06 1309.94 546.11 1200.59 590.00 1351.17 635.61
00002462 00000029 1103.34 194.84 395.04 548.94 1240.67 418.77 1412.56 471.87 1309.92 546.59 1199.70 591.54 1349.94 636.50
00002463 00000030 1102.58 196.18 393.12 548.76 1238.74 420.13 1410.11 473.55 1307.22 549.06 1198.01 592.45 1347.75 637.76
00002464 00000031 1101.15 196.02 391.62 549.91 1235.92 422.42 1407.56 474.48 1304.21 552.00 1195.23 593.80 1344.71 638.07
00002465 00000032 1099.79 197.75 390.10 549.21 1232.45 424.50 1406.20 474.11 1302.34 554.84 1192.40 597.36 1344.36 639.60
00002466 00000033 1098.99 202.25 389.17 546.29 1230.78 427.60 1405.66 475.89 1301.33 558.88 1190.72 598.78 1345.50 640.04
00002467 00000034 1098.71 204.31 388.87 546.39 1228.35 430.11 1404.57 477.34 1299.00 561.48 1189.23 600.81 1345.34 641.18
00002468 00000035 1098.84 209.39 387.17 545.27 1228.20 433.63 1403.03 480.17 1298.42 565.08 1188.06 602.31 1344.78 642.27
00002469 00000036 1098.55 210.58 386.26 548.23 1227.31 436.77 1402.59 483.45 1298.14 568.90 1188.09 605.63 1343.73 645.83
00002470 00000037 1098.72 211.15 385.25 550.18 1224.30 440.19 1400.18 485.23 1295.89 572.89 1187.35 608.83 1343.14 647.71
00002471 00000038 1097.79 212.14 388.00 552.52 1222.04 442.22 1400.23 487.23 1293.97 574.38 1185.24 612.44 1342.75 651.34
00002472 00000039 1097.68 213.63 387.57 552.96 1220.78 444.72 1399.08 489.66 1292.31 575.55 1184.48 613.76 1341.90 652.61
00002473 00000040 1098.16 214.71 387.01 551.37 1222.13 446.30 1400.18 491.37 1293.90 575.94 1185.26 614.57 1342.03 653.47
00002474 00000041 1098.60 213.13 388.77 553.15 1223.76 446.71 1401.35 491.59 1295.59 576.30 1186.35 614.50 1342.98 653.36
00002475 00000042 1099.46 213.70 388.64 552.14 1224.76 446.71 1402.85 491.16 1296.94 576.86 1187.08 614.20 1344.50 652.88
00002476 00000043 1100.42 215.13 387.46 551.10 1226.05 446.89 1402.97 491.96 1297.70 576.95 1187.40 613.20 1344.53 652.48
00002477 00000044 1100.72 216.21 388.73 549.92 1227.26 446.91 1402.44 491.85 1298.16 576.70 1189.47 613.05 1344.41 652.23
00002478 00000045 1100.67 216.25 389.56 551.18 1228.33 447.76 1404.90 492.21 1300.68 577.59 1190.18 614.05 1346.06 653.05
00002479 00000046 1100.99 218.05 391.42 549.39 1229.82 448.35 1406.43 492.41 1301.89 577.80 1192.27 614.55 1347.23 653.20
00002480 00000047 1100.58 219.85 392.27 548.39 1230.78 449.10 1407.10 493.47 1303.02 578.72 1192.96 615.58 1347.11 654.51
00002481 00000048 1100.67 218.10 392.26 550.32 1230.83 449.08 1407.15 493.22 1303.40 578.25 1193.01 615.88 1346.92 654.58
00002482 00000049 1100.66 218.93 392.32 549.74 1230.73 448.81 1406.82 493.23 1303.10 578.63 1192.78 615.82 1346.56 654.75
00002483 00000050 1100.66 220.24 391.98 547.73 1231.55 448.79 1406.93 492.82 1303.93 578.59 1193.97 615.37 1347.58 654.04
00002484 00000051 1100.65 219.66 391.90 547.94 1231.65 448.18 1407.67 492.12 1304.71 578.11 1194.44 615.61 1347.74 654.22
00002485 00000052 1100.30 217.21 393.44 550.49 1231.86 447.18 1408.61 490.81 1305.34 576.80 1194.86 614.55 1349.20 652.90
00002486 00000053 1099.96 215.95 393.49 551.77 1232.25 445.83 1409.86 489.57 1306.55 575.77 1194.96 613.81 1350.77 652.30
00002487 00000054 1100.32 216.49 393.36 550.97 1233.57 445.87 1411.05 489.98 1307.82 576.22 1195.64 613.60 1351.16 652.41
00002488 00000055 1100.76 217.05 393.55 550.37 1233.22 446.14 1410.96 489.64 1307.42 576.20 1195.84 613.96 1351.80 652.30
00002489 00000056 1100.76 218.15 394.24 548.75 1233.22 446.58 1411.39 489.84 1307.13 576.21 1195.64 613.86 1352.15 652.01
00002490 00000057 1100.55 219.63 394.44 547.36 1234.08 446.08 1411.24 489.81 1307.27 577.24 1195.29 613.73 1350.88 652.36
00002491 00000058 1100.55 219.83 394.75 546.72 1234.33 445.89 1411.79 489.94 1307.61 577.41 1195.70 613.73 1350.89 652.57
00002492 00000059 1099.83 219.06 396.74 547.21 1234.95 446.90 1413.57 492.09 1308.37 577.34 1196.39 614.01 1351.02 653.56
00002493 00000060 1099.55 218.91 397.98 546.82 1235.18 448.45 1414.18 492.00 1309.25 577.25 1197.30 614.26 1353.10 652.48
00002494 00000061 1100.18 218.20 396.66 546.52 1234.52 446.73 1414.07 490.37 1308.68 576.89 1196.86 614.17 1352.50 652.44
00002495 00000062 1099.91 218.82 395.56 545.23 1234.11 445.46 1413.89 490.13 1308.39 576.20 1197.13 614.11 1351.70 653.10
00002496 00000063 1100.65 216.04 394.50 547.72 1233.40 443.79 1412.25 488.47 1307.07 574.31 1197.56 615.07 1348.89 653.87
00002497 00000064 1100.76 213.48 393.66 549.01 1233.25 442.41 1411.45 486.89 1306.77 573.15 1198.17 614.61 1348.08 653.16
00002498 00000065 1101.55 212.68 391.61 548.72 1233.74 440.91 1410.69 486.55 1306.79 571.42 1197.36 612.98 1347.30 652.47
00002499 00000066 1101.83 208.84 391.61 551.46 1234.98 439.49 1411.40 485.33 1308.20 570.87 1198.09 611.92 1347.78 651.62
00002500 00000067 1101.75 209.75 391.83 550.90 1235.72 439.36 1412.48 485.51 1309.16 571.16 1198.22 611.51 1348.36 651.55
00002501 00000068 1101.41 210.34 392.45 550.16 1236.10 439.29 1413.17 485.57 1309.39 570.86 1198.16 611.74 1348.14 651.83
00002502 00000069 1101.45 208.50 392.40 551.37 1236.03 438.46 1413.39 484.96 1309.69 570.50 1197.80 610.86 1348.74 651.14
00002503 00000070 1101.32 209.25 391.59 550.29 1236.08 438.00 1413.48 485.12 1309.72 569.98 1197.82 610.22 1348.96 650.94
00002504 00000071 1101.23 208.55 390.60 550.74 1235.77 437.79 1413.06 484.78 1310.02 569.50 1197.41 610.27 1348.79 650.90
00002505 00000072 1101.29 209.83 389.77 549.51 1235.25 437.71 1412.01 485.14 1308.94 568.39 1196.47 609.74 1347.60 650.59
00002506 00000073 1101.38 208.54 389.81 548.54 1233.46 436.84 1409.88 483.01 1307.02 566.97 1195.97 609.89 1347.02 649.56
00002507 00000074 1101.04 206.58 389.80 549.07 1231.83 436.45 1408.21 481.73 1305.02 565.59 1195.58 610.52 1345.77 649.30
00002508 00000075 1100.50 203.74 389.50 552.26 1231.28 435.39 1407.03 480.56 1304.76 563.68 1195.24 610.40 1345.18 649.11
00002509 00000076 1099.48 204.93 389.52 550.80 1230.48 435.15 1405.81 480.72 1303.85 563.30 1193.97 610.36 1343.57 649.27
00002510 00000077 1099.03 205.58 389.56 550.13 1229.94 435.04 1405.77 481.55 1303.42 563.65 1193.04 609.91 1343.43 649.54
00002511 00000078 1098.84 205.47 390.13 550.12 1229.17 435.95 1405.46 482.51 1302.27 563.05 1193.25 610.80 1342.75 650.28
00002512 00000079 1098.10 205.65 390.19 550.75 1227.94 436.66 1405.28 482.59 1301.52 564.46 1192.01 611.84 1342.83 650.77
00002513 00000080 1097.65 205.85 390.07 551.07 1227.26 437.27 1404.47 483.07 1300.61 565.18 1191.33 612.15 1342.07 650.97
00002514 00000081 1098.00 205.14 389.88 552.14 1226.84 437.10 1403.65 483.36 1299.49 564.87 1190.60 611.96 1341.40 651.19
00002515 00000082 1097.94 204.99 390.05 553.18 1227.43 437.13 1404.05 484.22 1300.10 565.41 1190.12 611.89 1340.88 651.89
00002516 00000083 1098.27 204.96 389.48 552.74 1227.95 437.59 1403.20 484.52 1300.35 564.96 1190.85 611.91 1340.57 651.81
00002517 00000084 1098.59 205.54 390.17 553.36 1228.48 438.24 1404.41 484.46 1301.55 566.30 1191.80 612.86 1341.60 652.31
00002518 00000085 1099.09 208.14 391.54 551.65 1228.90 439.50 1405.28 484.82 1301.56 568.77 1192.29 614.31 1341.41 653.21
00002519 00000086 1099.85 207.94 393.14 552.24 1229.94 441.66 1406.55 485.79 1302.60 570.59 1194.00 616.24 1342.04 654.24
00002520 00000087 1100.26 212.79 392.63 548.51 1230.10 442.21 1407.24 485.62 1303.07 572.25 1194.55 615.72 1344.04 653.33
00002521 00000088 1100.63 213.21 394.22 547.77 1232.02 441.84 1409.52 486.00 1304.89 572.92 1195.25 615.39 1344.80 653.71
00002522 00000089 1100.62 213.13 395.38 548.47 1234.72 442.51 1411.73 487.47 1307.25 573.76 1196.88 615.07 1346.08 654.17
00002523 00000090 1101.41 214.34 393.87 547.12 1236.86 442.79 1412.60 488.66 1308.84 574.19 1198.07 614.68 1346.58 654.55
00002524 00000091 1102.50 213.69 396.39 547.37 1239.73 441.80 1414.47 489.85 1310.21 573.96 1200.96 613.40 1347.86 654.99
00002525 00000092 1103.72 214.97 396.49 545.51 1240.88 440.58 1415.31 489.27 1310.19 575.01 1201.80 613.71 1347.14 655.97
00002526 00000093 1104.08 215.16 397.41 545.36 1242.07 441.48 1416.72 490.80 1311.41 575.66 1203.12 613.71 1348.59 656.41
00002527 00000094 1104.02 214.87 398.60 546.45 1243.29 441.52 1418.10 491.66 1312.48 576.68 1203.72 613.17 1349.14 656.57
00002528 00000095 1104.55 215.86 399.06 544.78 1244.28 442.06 1418.06 492.36 1312.24 576.98 1204.81 612.85 1348.63 656.35
00002529 00000096 1104.67 215.75 400.14 545.87 1244.41 442.29 1418.09 492.91 1311.99 577.64 1205.09 612.87 1348.90 656.62
00002530 00000097 1104.74 215.24 399.99 546.08 1244.17 442.10 1418.04 492.87 1311.83 576.97 1205.08 612.81 1348.91 656.64
00002531 00000098 1104.82 214.04 399.77 547.26 1244.15 442.10 1418.39 493.16 1312.21 576.74 1204.54 612.88 1348.86 656.94
00002532 00000099 1104.46 214.63 399.37 547.00 1243.91 442.09 1418.48 493.10 1312.23 576.89 1204.24 613.16 1348.90 657.22
00002533 00000100 1104.02 214.87 399.97 546.49 1243.70 442.02 1418.57 492.40 1312.40 577.17 1203.97 613.51 1348.80 657.08
00002534 00000101 1104.31 215.72 399.59 544.92 1242.98 442.31 1417.65 492.23 1311.68 576.66 1204.05 613.66 1348.84 656.78
00002535 00000102 1104.17 216.44 399.27 543.93 1242.16 442.93 1416.66 492.09 1310.89 576.51 1203.75 614.33 1348.31 656.83
00002536 00000103 1104.35 214.62 399.24 546.92 1242.17 443.12 1415.89 492.77 1310.68 576.55 1203.04 614.23 1347.50 657.14
00002537 00000104 1103.98 217.32 399.49 543.97 1242.14 443.94 1415.42 493.79 1310.12 577.14 1203.43 615.56 1346.39 658.55
00002538 00000105 1103.96 218.58 399.71 544.16 1242.17 445.52 1414.82 494.85 1309.80 578.46 1204.31 616.82 1345.78 659.43
00002539 00000106 1103.46 220.24 400.22 543.49 1242.26 445.75 1414.17 496.00 1309.24 579.24 1203.78 616.29 1345.04 659.60
00002540 00000107 1103.27 219.87 401.11 544.97 1242.24 446.59 1413.96 496.95 1308.72 580.04 1203.41 616.87 1344.29 660.26
00002541 00000108 1103.16 221.22 400.96 543.84 1243.08 447.13 1414.47 498.18 1309.28 580.59 1203.42 616.55 1344.34 660.49
00002542 00000109 1103.50 220.64 400.58 544.71 1242.62 446.76 1414.15 497.91 1308.89 580.82 1203.33 616.83 1343.77 660.86
00002543 00000110 1103.44 219.73 400.67 544.74 1242.56 446.86 1414.48 498.01 1309.27 580.29 1203.13 617.15 1343.89 661.11
00002544 00000111 1103.12 220.38 400.90 544.28 1242.58 446.99 1414.60 498.39 1309.29 580.30 1203.21 617.27 1343.85 661.41
00002545 00000112 1103.42 220.59 400.68 543.84 1242.60 446.73 1414.38 498.12 1309.03 580.63 1203.08 617.34 1343.32 661.50
00002546 00000113 1103.68 221.06 399.95 543.65 1243.06 447.08 1414.24 498.62 1309.47 580.93 1203.51 617.32 1343.25 661.63
00002547 00000114 1103.55 220.12 400.65 544.68 1243.14 447.02 1414.37 498.00 1309.56 580.76 1203.90 617.40 1343.55 661.31
CROP_BBOX: 846 0 1751 899
