Video ID: 	1Vtx8oG_eWc
H: 	1080
W: 	1920
FPS: 	29.97002997002997

FRAME INDEX X0 Y0 W H [Landmarks (5 Points)]

00000635 00000000 834.64 214.58 474.79 699.97 990.83 531.05 1182.41 508.90 1112.51 614.04 1033.78 745.77 1191.95 728.05
00000636 DELETE   834.63 214.69 474.67 699.87 990.86 531.08 1182.41 508.91 1112.60 614.03 1033.78 745.77 1191.91 728.03
00000637 00000002 838.89 223.53 467.09 699.52 995.75 538.19 1183.50 515.99 1117.59 617.00 1041.83 752.82 1194.65 735.11
00000638 DELETE   837.46 222.06 466.39 707.03 994.57 533.99 1183.82 513.10 1117.78 612.45 1035.63 750.72 1194.12 734.10
00000639 DELETE   831.99 217.85 472.08 706.23 990.83 523.94 1180.09 503.42 1113.04 602.85 1032.25 745.15 1188.94 728.82
00000640 00000005 826.94 214.25 476.87 698.57 978.92 521.42 1173.80 497.05 1101.92 601.29 1022.72 743.54 1186.86 723.74
00000641 00000006 826.94 214.22 476.89 698.59 978.92 521.42 1173.80 497.05 1101.91 601.29 1022.72 743.53 1186.86 723.73
00000642 00000007 821.32 209.73 481.22 699.64 972.95 515.82 1168.68 491.81 1097.08 601.57 1017.23 742.04 1183.44 722.26
00000643 00000008 818.09 211.26 485.01 694.92 968.98 516.06 1161.27 489.95 1090.43 596.70 1015.93 738.93 1179.45 717.07
00000644 00000009 813.44 211.46 487.61 691.31 965.71 513.24 1154.73 486.98 1084.55 592.62 1015.23 735.14 1172.90 713.17
00000645 00000010 807.85 222.61 490.11 669.40 952.49 512.74 1150.50 485.52 1078.63 595.29 1013.23 733.74 1171.83 711.06
00000646 00000011 807.92 222.75 490.02 669.11 952.50 512.75 1150.47 485.51 1078.60 595.28 1013.26 733.67 1171.80 710.97
00000647 00000012 805.08 217.89 492.06 665.77 943.30 507.96 1144.87 478.27 1069.07 593.42 1005.54 728.27 1169.36 703.67
00000648 00000013 802.65 215.66 493.60 665.85 939.88 504.78 1141.84 476.18 1062.50 591.04 1001.15 724.88 1165.44 701.05
00000649 00000014 801.51 215.33 494.41 669.17 939.01 504.76 1140.75 477.31 1060.40 591.77 999.00 725.47 1163.70 702.63
00000650 00000015 802.40 218.67 492.09 672.09 941.73 510.30 1143.14 484.06 1065.13 596.05 998.58 729.98 1163.68 708.29
00000651 00000016 802.44 218.70 492.05 672.00 941.72 510.31 1143.14 484.05 1065.13 596.06 998.60 729.98 1163.69 708.28
00000652 00000017 805.36 228.22 485.59 672.57 947.62 519.61 1146.48 495.89 1071.20 607.53 1002.62 740.58 1163.06 721.08
00000653 00000018 809.51 238.10 481.66 671.54 953.56 529.79 1153.54 507.10 1079.13 624.37 1006.57 751.41 1168.06 732.86
00000654 00000019 810.26 239.45 485.76 678.05 953.99 533.46 1157.19 510.67 1080.63 630.30 1005.39 755.93 1171.05 737.16
00000655 00000020 811.12 239.49 485.42 674.74 954.33 533.92 1159.28 511.37 1081.29 631.85 1005.52 755.78 1171.75 737.11
00000656 00000021 811.77 239.13 484.68 674.83 954.52 533.86 1159.29 511.30 1081.30 631.47 1005.85 755.86 1171.73 737.16
00000657 00000022 809.62 236.53 487.15 678.37 955.10 534.48 1161.63 512.82 1083.18 633.18 1004.19 755.47 1172.89 737.35
00000658 00000023 810.33 238.20 488.18 677.33 956.10 534.99 1162.56 512.55 1084.54 634.66 1006.12 756.61 1173.96 737.82
00000659 00000024 810.64 239.51 487.48 678.26 958.24 536.51 1163.56 514.09 1087.14 637.20 1008.26 758.13 1174.68 739.32
00000660 00000025 812.07 240.62 487.47 676.07 959.86 537.44 1165.24 515.75 1088.05 638.99 1009.32 758.89 1175.38 740.61
00000661 00000026 812.26 240.27 487.15 676.61 959.69 537.43 1165.25 515.87 1087.85 639.03 1008.90 758.87 1175.40 740.69
00000662 00000027 813.50 240.46 486.26 676.58 961.29 538.08 1167.12 517.10 1089.18 640.05 1010.14 760.02 1176.06 742.24
00000663 00000028 814.28 239.98 485.67 677.58 961.47 538.97 1167.66 518.54 1088.98 640.46 1008.68 759.80 1176.13 742.46
00000664 00000029 814.37 239.60 486.58 678.53 961.17 539.47 1168.46 519.16 1088.87 641.24 1007.38 759.61 1177.03 742.23
00000665 00000030 814.72 239.08 486.04 680.36 961.92 540.28 1168.73 520.32 1089.38 641.89 1007.08 759.76 1177.33 742.69
00000666 00000031 814.83 238.84 485.80 681.09 961.75 540.27 1168.94 520.30 1089.37 641.90 1006.58 759.85 1177.51 742.75
00000667 00000032 814.60 239.00 485.97 680.10 961.95 540.70 1169.57 520.80 1089.90 643.12 1005.13 758.90 1178.31 741.90
00000668 00000033 815.03 240.24 485.24 677.77 962.06 541.76 1169.32 521.48 1089.81 644.11 1004.30 758.54 1177.88 741.29
00000669 00000034 815.38 239.96 485.54 679.26 962.19 541.81 1169.26 521.64 1089.89 643.64 1004.51 758.84 1178.20 741.61
00000670 00000035 815.77 239.94 485.52 678.94 962.51 541.89 1169.37 521.19 1090.16 643.74 1005.52 758.91 1178.64 741.25
00000671 00000036 815.71 240.30 485.45 678.46 962.61 542.11 1169.29 521.11 1090.37 643.90 1005.87 759.03 1178.72 741.16
00000672 00000037 816.21 239.71 486.18 679.96 963.69 541.91 1169.19 520.22 1091.31 643.96 1008.47 759.65 1179.46 741.13
00000673 00000038 816.24 240.55 486.35 682.30 964.48 541.76 1169.06 519.53 1092.72 643.86 1011.91 762.40 1180.18 743.48
00000674 00000039 816.37 242.20 486.43 682.16 965.22 541.24 1168.52 519.62 1092.54 643.23 1013.66 763.54 1178.80 745.35
00000675 00000040 816.31 241.63 485.19 683.70 965.45 541.07 1168.16 519.71 1092.88 642.64 1013.73 763.67 1178.44 745.69
00000676 00000041 816.08 241.73 485.94 683.74 965.41 541.08 1168.16 519.91 1092.85 642.61 1013.91 763.65 1178.55 745.80
00000677 00000042 815.48 241.79 486.52 684.96 964.91 541.20 1167.41 519.78 1092.57 641.85 1014.21 763.93 1178.68 745.91
00000678 00000043 814.55 241.90 486.99 685.13 964.87 541.23 1166.89 519.92 1092.45 641.32 1014.21 763.50 1178.18 745.58
00000679 00000044 814.30 242.33 486.21 685.56 964.38 541.43 1165.70 519.86 1091.89 641.32 1013.89 763.28 1177.97 745.14
00000680 00000045 813.27 242.78 486.55 685.60 963.60 541.87 1165.27 520.74 1091.03 640.78 1012.80 763.43 1177.46 745.66
00000681 00000046 812.98 242.73 486.58 685.71 963.91 541.95 1164.98 520.81 1091.23 640.88 1013.52 763.30 1177.59 745.47
00000682 00000047 812.56 242.79 487.52 687.52 963.06 542.45 1164.89 521.34 1090.50 640.35 1012.60 764.32 1177.35 746.48
00000683 00000048 811.77 242.49 487.48 688.80 962.52 542.57 1164.07 521.38 1089.87 640.56 1012.66 764.85 1176.95 746.96
00000684 00000049 810.35 242.75 488.38 689.41 962.51 542.34 1163.11 520.92 1089.71 640.08 1013.38 765.01 1176.08 747.01
00000685 00000050 809.10 243.61 489.84 689.26 961.94 541.71 1162.30 519.68 1089.02 638.42 1013.92 764.88 1175.36 746.50
00000686 00000051 809.17 243.51 489.71 689.70 962.03 541.70 1162.26 519.69 1089.02 638.34 1013.99 764.90 1175.26 746.52
00000687 00000052 809.37 244.04 487.64 685.56 962.14 541.01 1159.38 518.02 1088.18 636.19 1016.31 762.52 1174.05 743.44
00000688 00000053 810.22 241.54 487.34 684.30 962.19 539.09 1158.64 515.88 1087.71 633.45 1017.38 759.97 1173.59 740.66
00000689 00000054 811.56 238.39 484.39 684.17 962.00 535.27 1159.16 512.46 1087.73 628.97 1017.62 757.93 1172.97 738.94
00000690 00000055 813.29 236.58 481.17 684.47 963.16 532.23 1159.78 509.10 1088.99 627.11 1020.05 757.30 1173.05 738.11
00000691 00000056 813.46 236.47 481.80 684.65 963.13 532.32 1159.73 509.13 1088.80 627.14 1020.15 757.36 1172.81 738.09
00000692 00000057 814.44 235.85 478.45 688.07 964.64 531.07 1159.35 508.45 1090.70 625.86 1021.54 758.43 1172.11 739.73
00000693 00000058 815.40 233.81 479.61 691.24 965.92 531.42 1162.56 510.27 1092.49 627.74 1021.29 760.67 1172.49 743.15
00000694 00000059 817.02 233.02 483.04 695.64 965.74 533.89 1169.25 513.90 1094.49 632.51 1016.24 764.76 1176.13 748.07
00000695 00000060 829.12 220.40 474.14 706.97 977.23 529.41 1178.91 512.15 1100.65 623.30 1013.33 757.58 1181.16 743.61
00000696 00000061 829.19 220.43 474.03 706.97 977.22 529.41 1178.92 512.15 1100.66 623.29 1013.34 757.58 1181.18 743.61
00000697 DELETE   829.82 212.69 475.81 708.69 980.39 524.67 1179.84 507.67 1101.56 613.69 1014.57 748.67 1183.23 734.98
00000698 DELETE   828.53 209.75 480.33 697.30 981.09 516.18 1178.21 496.70 1101.11 601.02 1017.63 737.06 1185.37 721.82
00000699 00000064 828.39 206.60 483.94 697.21 981.38 514.21 1180.45 493.49 1102.33 599.42 1021.54 734.93 1189.33 718.46
00000700 00000065 828.34 208.06 486.09 695.60 982.23 516.01 1180.32 495.00 1103.32 601.00 1023.98 736.31 1190.17 719.44
00000701 00000066 828.36 208.09 486.04 695.63 982.22 516.00 1180.32 494.98 1103.31 600.99 1023.96 736.32 1190.19 719.45
00000702 00000067 830.26 212.11 485.75 693.11 984.29 518.31 1181.56 497.48 1105.37 605.33 1028.21 740.35 1190.89 723.76
00000703 00000068 833.87 217.55 481.47 688.07 988.72 522.10 1185.14 502.54 1109.75 611.81 1033.54 742.18 1192.63 726.74
00000704 00000069 838.20 220.31 478.39 688.99 992.62 524.73 1185.66 505.86 1111.61 614.92 1039.50 744.77 1193.27 729.93
00000705 00000070 839.08 221.14 475.20 690.96 994.88 525.83 1185.92 506.82 1114.14 615.20 1042.17 745.42 1194.08 730.48
00000706 00000071 839.31 221.18 475.09 690.62 994.91 525.76 1185.84 506.92 1114.06 615.41 1042.50 745.42 1193.85 730.64
00000707 00000072 839.91 221.46 473.06 693.35 994.63 525.88 1186.31 507.16 1114.44 616.38 1042.24 748.03 1193.47 733.21
00000708 00000073 840.93 222.44 472.36 697.49 992.24 525.74 1188.02 507.11 1113.65 619.51 1038.88 752.63 1193.65 737.86
00000709 00000074 840.42 223.27 473.71 696.92 991.61 526.28 1189.40 508.34 1113.40 620.59 1035.47 751.69 1193.31 737.72
00000710 00000075 842.07 223.77 475.00 697.88 991.61 527.65 1190.78 509.06 1113.26 621.76 1035.60 753.05 1195.75 738.47
00000711 00000076 842.26 224.48 474.25 697.19 991.60 527.61 1190.86 508.96 1113.39 621.78 1035.70 753.15 1195.82 738.54
00000712 00000077 843.30 225.36 477.08 694.68 990.68 529.16 1192.56 509.71 1113.24 623.61 1035.35 754.39 1198.61 739.05
00000713 00000078 844.44 225.50 478.84 692.53 990.55 530.50 1193.76 511.16 1113.16 625.89 1034.91 754.71 1199.63 739.40
00000714 00000079 844.97 227.49 479.95 692.91 989.62 532.12 1194.74 511.93 1114.06 628.55 1034.56 757.39 1202.77 741.28
00000715 00000080 845.53 228.73 480.63 691.02 990.14 533.49 1196.24 513.00 1115.24 631.15 1035.44 758.58 1204.85 742.23
00000716 00000081 845.64 229.73 480.29 689.89 990.36 533.66 1196.26 513.17 1115.44 631.17 1035.63 758.50 1204.82 742.14
00000717 00000082 847.52 230.73 481.18 689.98 993.07 534.34 1197.71 513.82 1118.11 632.08 1039.44 759.28 1206.93 742.96
00000718 00000083 848.29 231.59 480.87 691.01 994.23 534.31 1197.96 514.35 1119.15 632.51 1040.39 759.35 1207.28 743.42
00000719 00000084 848.91 231.93 480.20 693.60 995.52 534.34 1197.91 514.78 1120.60 632.26 1041.52 759.60 1208.29 744.01
00000720 00000085 849.84 233.61 481.47 692.10 996.10 535.16 1198.38 516.71 1119.75 633.18 1041.52 759.68 1207.18 745.05
00000721 00000086 849.81 233.57 481.49 692.15 996.15 535.16 1198.41 516.74 1119.79 633.19 1041.55 759.65 1207.21 745.05
00000722 00000087 851.41 239.28 481.24 693.69 997.40 537.67 1199.85 520.78 1120.46 639.59 1042.81 764.82 1207.14 751.53
00000723 00000088 850.80 242.02 484.23 695.99 995.58 541.99 1204.08 524.28 1120.77 646.90 1038.56 769.99 1210.35 755.76
00000724 00000089 851.76 247.11 487.04 697.57 998.90 545.52 1204.85 528.51 1122.11 651.60 1039.46 773.17 1210.75 759.52
00000725 00000090 852.53 251.24 489.95 700.24 1001.23 548.90 1207.10 532.86 1122.99 654.76 1041.19 778.25 1210.94 765.25
00000726 00000091 852.47 251.11 489.98 700.38 1001.17 548.92 1207.04 532.87 1122.96 654.71 1041.19 778.28 1210.93 765.26
00000727 00000092 853.51 252.89 490.93 701.31 1001.81 551.54 1207.56 536.34 1122.56 659.81 1042.44 782.96 1209.31 770.65
00000728 00000093 853.09 257.92 490.57 696.90 1002.07 554.07 1207.86 538.14 1123.63 663.89 1043.40 784.37 1210.59 771.37
00000729 00000094 852.88 258.42 490.13 698.79 1002.99 555.36 1207.84 538.33 1125.31 663.96 1046.57 786.22 1211.69 772.27
00000730 00000095 853.23 258.55 490.09 699.91 1003.62 554.27 1207.79 536.92 1125.76 663.15 1048.55 786.76 1212.17 772.58
00000731 00000096 853.38 258.52 489.79 699.77 1003.57 554.31 1207.75 536.91 1125.77 663.22 1048.48 786.71 1212.19 772.48
00000732 00000097 854.12 254.67 488.74 701.08 1003.98 551.04 1207.23 533.73 1125.84 658.33 1050.37 785.56 1211.19 771.70
00000733 00000098 854.00 249.54 488.02 702.60 1003.69 546.64 1205.50 528.86 1124.98 652.40 1050.61 780.77 1210.67 766.61
00000734 00000099 852.95 247.90 487.58 702.86 1003.10 544.73 1203.92 527.37 1124.09 650.32 1049.42 778.70 1208.49 764.91
00000735 00000100 852.70 244.13 488.16 705.26 1001.46 543.23 1203.97 525.60 1123.14 648.23 1047.53 776.97 1209.19 762.92
00000736 00000101 852.79 246.37 488.68 702.34 1001.41 543.26 1203.94 525.42 1122.99 648.18 1047.69 776.77 1209.25 762.52
00000737 00000102 851.30 243.74 490.18 706.41 1001.16 539.63 1203.77 523.71 1123.28 642.86 1045.91 774.54 1209.20 761.76
00000738 00000103 851.67 239.25 486.38 700.24 1000.66 535.72 1203.23 520.87 1122.62 637.67 1045.76 766.89 1209.05 755.10
00000739 00000104 849.94 232.26 484.86 691.45 998.80 531.11 1201.84 514.13 1121.65 629.32 1044.65 758.39 1207.38 745.11
00000740 00000105 846.23 226.59 485.08 687.31 997.86 522.07 1201.13 504.63 1121.72 617.65 1040.35 746.82 1207.54 733.06
00000741 00000106 846.14 226.68 485.23 687.15 997.82 522.08 1201.16 504.62 1121.72 617.61 1040.38 746.84 1207.57 733.07
00000742 00000107 843.85 220.90 491.28 679.68 996.70 513.35 1197.83 495.65 1119.23 603.56 1041.85 735.18 1209.24 720.93
00000743 00000108 844.28 211.26 492.39 679.06 996.31 505.08 1196.59 488.21 1118.97 594.50 1042.00 723.58 1212.40 710.10
00000744 00000109 844.80 207.85 494.25 674.58 997.91 496.66 1196.88 482.09 1117.56 584.00 1044.77 718.11 1207.68 706.37
00000745 00000110 845.13 205.84 491.44 672.09 998.67 490.46 1195.49 478.12 1115.76 575.36 1044.45 712.01 1202.49 702.22
00000746 00000111 845.32 204.69 490.74 673.22 998.83 490.52 1195.57 478.08 1116.03 575.43 1044.44 712.00 1202.62 702.14
00000747 00000112 845.60 203.56 489.33 671.40 998.50 488.93 1195.51 477.92 1114.97 574.30 1042.23 709.88 1200.03 701.11
00000748 00000113 845.80 204.02 489.92 673.21 998.28 488.40 1195.79 477.99 1114.88 574.33 1041.31 710.74 1200.14 702.61
00000749 00000114 846.31 205.68 490.50 670.26 999.98 487.94 1196.76 478.63 1115.97 574.48 1043.38 709.86 1200.59 702.51
00000750 00000115 846.98 204.42 490.50 671.72 1000.56 486.84 1196.65 477.40 1117.11 574.42 1044.30 709.21 1201.27 701.83
00000751 00000116 847.34 204.31 490.28 671.27 1000.70 486.88 1196.70 477.46 1116.87 574.44 1044.37 709.03 1201.11 701.68
00000752 00000117 849.33 205.12 488.33 667.95 1001.37 485.96 1197.79 476.63 1118.37 574.13 1046.37 708.22 1203.78 700.87
00000753 00000118 856.33 197.87 482.50 683.28 1000.57 484.82 1200.97 466.97 1122.99 575.19 1049.73 713.15 1210.72 698.39
00000754 00000119 857.44 197.35 482.70 681.44 1001.52 484.46 1201.84 466.29 1123.69 574.16 1050.48 712.23 1211.56 697.30
00000755 00000120 859.33 198.10 482.71 678.76 1003.02 484.04 1204.17 466.25 1125.84 575.11 1052.22 712.33 1212.67 697.80
00000756 00000121 859.32 197.39 483.06 679.43 1002.92 484.01 1204.04 466.18 1125.72 574.81 1052.06 712.17 1212.69 697.61
00000757 00000122 859.33 194.40 482.75 687.18 1003.67 481.48 1204.75 464.80 1127.72 571.81 1053.02 712.47 1214.58 698.80
00000758 00000123 854.25 199.42 488.97 678.36 1007.33 480.27 1203.55 468.31 1128.47 561.80 1052.89 706.47 1212.30 696.50
00000759 00000124 852.94 196.05 489.92 682.69 1007.29 478.61 1203.29 465.90 1129.68 559.62 1052.94 705.07 1214.37 694.31
00000760 00000125 853.80 195.30 487.96 680.72 1006.46 477.40 1203.90 465.60 1128.76 559.93 1050.12 703.33 1213.80 693.23
00000761 00000126 853.68 195.20 488.33 681.65 1006.44 477.34 1204.02 465.54 1128.69 559.96 1049.71 703.36 1213.93 693.23
00000762 00000127 859.33 187.49 484.44 696.77 1003.38 475.28 1206.47 459.70 1127.91 565.44 1050.66 708.54 1217.85 695.86
00000763 00000128 860.20 187.80 482.61 691.76 1002.85 475.50 1206.12 459.29 1127.31 565.28 1050.53 707.22 1217.37 694.07
00000764 00000129 860.82 187.62 481.29 687.86 1002.95 475.67 1205.40 459.05 1126.81 565.24 1050.89 705.24 1217.19 691.79
00000765 00000130 861.76 188.46 478.66 678.52 1002.25 476.53 1205.12 459.29 1126.21 566.52 1050.76 703.78 1216.08 689.95
00000766 00000131 861.90 188.82 479.48 678.58 1002.13 476.38 1205.30 459.09 1125.88 566.37 1050.47 703.70 1216.27 689.80
00000767 00000132 861.74 189.54 480.36 675.36 1002.07 479.19 1204.56 460.94 1124.67 568.79 1051.52 704.87 1214.46 690.15
00000768 00000133 860.43 191.94 482.63 675.25 1002.59 483.02 1205.35 464.64 1126.54 574.99 1052.64 708.27 1215.23 693.37
00000769 00000134 858.74 197.84 487.69 683.16 1002.27 489.97 1207.70 472.64 1125.56 586.56 1051.04 718.37 1215.15 704.01
00000770 00000135 851.88 212.66 490.22 674.70 1001.63 501.47 1202.37 488.01 1121.04 599.04 1046.63 723.42 1212.31 712.45
00000771 00000136 851.92 212.69 490.17 674.53 1001.62 501.46 1202.37 487.99 1121.04 599.04 1046.65 723.40 1212.31 712.43
00000772 00000137 851.62 215.67 485.85 683.72 1000.96 511.24 1202.18 496.15 1123.07 614.40 1043.88 736.61 1208.40 724.73
00000773 00000138 850.58 220.30 484.41 681.79 1000.03 515.89 1201.08 500.93 1121.73 618.44 1041.11 739.32 1206.27 727.67
00000774 00000139 849.56 219.93 486.17 677.99 999.53 516.21 1201.03 500.73 1121.04 619.56 1043.35 740.24 1205.60 728.17
00000775 00000140 849.89 219.38 484.48 674.33 1000.65 515.89 1200.49 499.98 1121.86 618.49 1046.44 739.40 1203.79 727.09
00000776 00000141 849.73 219.60 484.57 674.09 1000.71 516.01 1200.44 500.15 1121.95 618.23 1046.51 739.32 1203.70 727.07
00000777 00000142 849.11 216.38 483.08 679.99 1000.98 512.87 1198.32 497.58 1121.79 614.65 1046.86 737.38 1203.27 725.50
00000778 00000143 846.44 214.28 482.60 683.07 1000.28 508.96 1195.65 495.40 1119.61 607.89 1045.01 733.48 1199.36 723.09
00000779 00000144 844.34 214.32 482.87 690.08 999.09 507.16 1195.33 494.84 1118.96 604.97 1039.33 732.67 1200.04 723.16
00000780 00000145 842.70 213.51 482.20 695.46 998.26 505.53 1194.16 494.16 1118.33 603.11 1035.79 731.37 1199.58 722.48
00000781 00000146 842.85 214.20 481.95 694.86 998.29 505.46 1194.17 494.10 1118.29 603.05 1035.83 731.31 1199.72 722.41
00000782 00000147 842.31 209.92 484.76 691.44 994.70 507.62 1193.33 493.11 1115.73 604.11 1036.23 731.37 1202.23 719.76
00000783 00000148 840.20 211.43 486.59 693.56 991.65 509.39 1192.25 494.44 1114.05 606.13 1033.04 734.80 1201.32 722.71
00000784 00000149 841.88 214.82 483.57 698.16 991.90 513.04 1193.85 498.52 1114.94 613.84 1030.51 739.89 1201.93 728.23
00000785 00000150 843.75 219.94 482.28 698.55 989.70 524.36 1195.77 507.05 1113.95 624.74 1028.47 750.35 1201.52 736.50
00000786 00000151 843.65 220.17 482.47 698.37 989.77 524.30 1195.91 507.07 1114.00 624.77 1028.46 750.30 1201.51 736.53
00000787 00000152 845.24 232.12 485.11 694.40 987.13 534.16 1194.33 518.03 1108.53 636.48 1027.90 759.61 1199.18 746.41
00000788 00000153 845.93 246.43 485.83 695.60 988.95 543.34 1193.23 527.77 1108.97 648.73 1032.33 773.90 1196.86 761.01
00000789 00000154 848.66 254.61 485.68 698.96 991.96 550.88 1194.12 534.66 1110.97 659.05 1037.55 784.22 1197.21 770.78
00000790 00000155 849.49 260.47 484.19 693.56 996.62 554.53 1196.85 538.82 1115.86 662.45 1043.49 785.98 1199.51 772.96
00000791 00000156 849.49 260.45 484.17 693.60 996.62 554.53 1196.85 538.83 1115.85 662.46 1043.47 785.97 1199.49 772.96
00000792 00000157 851.88 259.70 483.82 694.75 999.24 553.53 1200.24 538.16 1119.43 662.91 1044.92 785.40 1202.68 772.86
00000793 00000158 851.07 257.40 489.09 699.31 997.98 554.04 1203.01 538.94 1118.51 665.31 1038.08 783.13 1206.71 770.50
00000794 00000159 851.16 259.01 488.98 694.14 997.46 554.65 1203.55 539.61 1118.63 665.80 1036.71 781.74 1207.51 769.15
00000795 00000160 851.12 260.85 489.98 692.38 998.07 556.02 1203.25 541.11 1118.61 667.38 1038.00 783.39 1206.29 770.89
00000796 00000161 850.86 260.63 489.52 692.73 997.92 556.16 1202.75 541.20 1118.47 667.64 1037.65 783.09 1206.14 770.53
00000797 00000162 851.00 262.83 489.07 694.04 998.20 557.81 1201.71 541.68 1119.59 668.85 1042.58 788.14 1206.37 774.64
00000798 00000163 850.21 263.41 487.50 696.80 999.61 557.67 1201.31 542.14 1120.68 668.38 1043.93 788.69 1205.05 775.76
00000799 00000164 849.49 263.68 484.62 700.98 999.88 557.23 1200.08 542.61 1120.95 666.96 1043.13 789.16 1203.91 776.93
