Video ID: 	4z3mu63yxII
H: 	1080
W: 	1920
FPS: 	25.0

FRAME INDEX X0 Y0 W H [Landmarks (5 Points)]

00022190 00000000 555.57 112.62 447.51 677.92 619.97 368.39 813.79 365.83 655.43 469.67 627.63 618.03 787.72 615.30
00022191 00000001 570.07 106.93 449.42 676.86 642.82 378.56 836.21 380.88 679.33 466.83 649.24 609.55 805.00 611.98
00022192 DELETE   590.47 113.20 445.73 661.84 673.70 374.22 861.50 379.54 714.11 466.38 671.94 604.07 830.70 609.03
00022193 DELETE   601.65 105.73 445.65 664.40 684.49 366.15 883.08 378.27 732.22 460.89 681.99 598.20 839.94 609.47
00022194 00000004 616.14 92.98 440.45 668.19 687.41 360.49 890.08 371.73 741.02 466.58 690.38 603.63 839.91 614.72
00022195 00000005 616.59 92.89 445.48 663.69 701.16 360.33 904.46 376.06 754.48 465.87 697.51 596.37 854.10 609.31
00022196 00000006 618.42 93.92 448.58 661.58 703.35 359.77 909.26 376.48 757.84 465.46 699.90 594.55 859.46 608.33
00022197 00000007 621.43 102.19 449.59 670.71 709.17 363.96 915.70 378.49 768.57 470.24 704.20 599.88 876.41 611.77
00022198 00000008 626.25 105.29 448.63 666.52 718.67 372.44 924.69 388.07 783.61 482.47 715.18 604.55 885.09 616.75
00022199 00000009 627.84 109.80 449.18 667.99 724.92 383.12 931.10 399.98 797.67 497.93 728.05 614.67 896.64 627.35
00022200 00000010 631.25 113.76 447.90 673.50 731.71 395.79 938.30 412.19 810.99 517.03 739.87 627.76 910.33 639.73
00022201 00000011 627.58 118.01 451.76 685.47 737.52 411.47 948.92 421.02 829.32 536.85 756.51 649.39 924.87 655.83
00022202 00000012 626.19 121.23 449.12 696.54 742.68 427.06 953.39 434.63 842.55 551.98 765.71 665.04 930.48 669.79
00022203 00000013 616.98 122.88 451.42 700.31 739.84 438.44 950.80 439.79 848.72 560.76 767.67 670.55 934.42 670.01
00022204 00000014 606.91 120.35 453.07 706.64 733.60 441.71 944.32 438.82 850.53 558.48 764.12 672.65 932.90 669.05
00022205 00000015 600.51 121.40 450.46 717.75 726.83 444.15 935.53 439.64 845.59 558.97 759.30 679.24 928.79 674.50
00022206 00000016 596.18 131.92 449.80 719.89 718.80 452.73 924.88 442.14 836.64 566.45 756.81 686.28 928.27 677.08
00022207 00000017 584.23 136.27 452.52 729.09 708.84 464.28 912.06 447.79 828.90 578.45 750.57 694.55 923.93 680.80
00022208 00000018 573.56 140.19 456.87 735.18 697.97 472.49 903.38 454.26 819.50 591.81 741.07 702.45 918.56 687.26
00022209 00000019 567.06 137.25 457.73 737.16 690.24 479.47 895.77 458.99 809.96 596.29 733.52 704.05 913.25 686.68
00022210 00000020 562.65 139.87 459.08 735.73 687.25 479.75 893.40 460.12 806.01 598.97 730.32 707.59 908.04 690.88
00022211 00000021 561.73 141.11 456.78 732.90 683.64 482.03 889.46 462.25 801.31 602.37 728.92 711.21 902.52 694.33
00022212 00000022 561.73 141.39 455.05 730.15 680.37 484.53 886.46 463.61 797.56 604.26 728.07 714.49 897.79 696.59
00022213 00000023 561.97 143.62 454.84 727.77 679.26 487.47 884.16 466.29 794.88 605.67 728.11 717.41 893.51 699.23
00022214 00000024 560.19 146.75 455.91 725.28 678.84 489.44 883.03 466.84 794.44 607.39 728.50 719.23 892.03 699.91
00022215 00000025 559.51 148.52 456.72 726.52 679.01 491.62 882.00 468.95 794.69 610.88 729.22 722.50 890.59 703.02
00022216 00000026 557.69 149.97 458.31 726.79 677.88 493.34 880.83 470.65 792.94 612.54 728.62 724.59 888.84 704.95
00022217 00000027 557.06 150.55 458.07 727.58 677.05 493.81 880.35 471.02 791.51 612.93 727.34 725.05 887.98 705.40
00022218 00000028 556.84 148.77 458.32 732.12 677.22 493.23 879.68 470.92 791.02 612.97 727.52 725.25 887.90 705.90
00022219 00000029 548.94 156.79 464.03 718.21 673.21 495.35 880.17 471.76 793.88 611.13 730.16 732.23 888.57 711.27
00022220 00000030 549.18 157.28 464.42 719.56 674.25 495.07 880.93 472.02 794.80 610.83 730.56 732.47 888.59 711.94
00022221 00000031 557.69 148.95 456.68 732.95 677.80 494.78 879.47 472.74 791.62 613.23 728.77 727.31 886.93 708.25
00022222 00000032 549.08 157.58 463.86 718.17 673.49 496.65 879.01 474.24 792.59 612.31 730.70 733.92 886.47 713.85
00022223 00000033 549.47 158.09 462.44 717.85 673.87 496.43 878.17 473.88 792.44 612.73 731.30 735.26 884.52 715.06
00022224 00000034 548.46 155.77 464.81 725.60 674.95 495.00 880.12 472.83 794.36 612.41 729.20 733.79 886.58 713.84
00022225 00000035 557.72 147.47 456.88 736.46 678.18 493.47 879.45 472.32 791.88 615.59 727.54 726.12 888.32 707.70
00022226 00000036 558.53 148.35 456.03 732.85 677.74 493.23 880.03 471.99 791.13 614.97 726.14 724.42 888.06 705.95
00022227 00000037 549.45 154.98 464.88 722.85 675.13 493.69 881.33 472.02 794.89 611.94 730.21 731.25 889.27 711.44
00022228 00000038 549.74 156.63 464.59 723.68 675.48 494.22 880.81 472.64 794.27 611.95 731.10 734.47 887.58 714.66
00022229 00000039 548.03 154.55 466.31 726.84 673.06 494.89 879.52 472.31 792.48 612.24 730.01 735.83 887.11 715.41
00022230 00000040 545.35 159.55 465.57 720.31 670.32 498.84 873.81 474.44 789.34 613.22 729.01 734.75 884.76 713.03
00022231 00000041 554.29 149.35 456.88 732.97 672.69 500.45 870.55 473.55 784.52 612.42 726.25 728.16 884.22 704.69
00022232 00000042 542.04 157.28 468.10 719.41 665.82 500.90 869.28 475.35 784.36 612.67 725.56 732.15 883.52 709.48
00022233 00000043 540.41 157.02 469.15 718.60 663.55 500.78 867.65 475.18 782.15 613.71 723.54 731.54 882.72 708.87
00022234 00000044 539.14 154.78 470.00 722.65 662.84 500.23 865.95 474.48 780.89 614.20 723.25 732.03 881.84 709.17
00022235 00000045 539.32 156.01 469.78 720.68 662.57 500.05 866.18 474.76 780.80 614.45 721.76 731.59 881.26 709.21
00022236 00000046 538.93 155.87 470.07 720.03 661.78 498.35 866.42 472.93 780.49 612.97 720.06 730.12 881.56 707.72
00022237 00000047 537.45 154.22 471.83 725.07 661.94 494.12 866.71 468.22 781.15 606.12 719.14 726.80 881.50 704.18
00022238 00000048 538.44 156.23 469.13 720.21 656.29 486.61 863.55 460.30 774.97 603.90 718.52 729.71 875.43 706.74
00022239 00000049 536.29 154.36 469.23 719.20 650.46 482.94 857.30 455.82 766.47 600.02 714.90 726.60 872.18 703.11
00022240 00000050 535.57 156.98 467.71 717.43 649.64 484.45 854.49 456.81 765.01 601.55 715.04 727.35 871.09 703.49
00022241 00000051 532.41 160.81 471.65 716.83 648.62 490.86 853.32 463.35 765.13 606.39 712.83 729.49 872.25 705.98
00022242 00000052 531.30 160.66 470.99 721.57 646.34 494.62 850.92 468.41 761.71 609.91 708.63 730.64 872.36 708.00
00022243 00000053 530.95 161.17 469.57 720.87 643.89 494.30 848.73 468.37 758.61 610.36 705.86 730.09 870.60 707.93
00022244 00000054 531.35 164.10 465.37 715.48 643.65 493.26 843.98 468.41 755.27 608.69 705.04 728.42 863.81 707.34
00022245 00000055 530.33 165.32 463.87 715.60 639.44 495.05 840.40 470.26 750.41 611.13 699.59 730.15 859.31 709.48
00022246 00000056 529.65 165.14 461.85 715.22 639.07 496.72 838.51 472.56 749.09 613.82 700.07 733.07 855.56 713.09
00022247 00000057 532.51 160.34 461.89 720.91 641.87 498.32 841.69 474.81 750.40 614.97 705.83 734.98 855.75 714.89
00022248 00000058 532.40 161.75 460.55 722.78 641.94 498.94 841.08 475.79 750.33 614.65 705.26 737.06 853.82 717.25
00022249 00000059 528.09 164.43 460.49 720.18 637.87 499.61 835.24 474.51 748.17 617.01 699.30 737.90 852.36 717.38
00022250 00000060 527.51 161.06 462.34 724.49 637.82 499.45 835.28 474.54 748.36 616.18 698.80 738.54 851.00 718.22
00022251 00000061 532.56 157.97 462.69 726.99 641.88 499.03 841.08 475.00 749.89 613.69 706.03 738.34 853.34 717.73
00022252 00000062 533.02 156.15 462.77 726.24 641.69 500.25 841.12 476.31 749.44 615.18 705.39 736.20 855.44 715.44
00022253 00000063 532.53 158.63 463.72 722.46 641.06 501.46 840.53 477.38 748.74 617.85 704.98 735.41 856.18 714.50
00022254 00000064 531.92 159.80 464.76 720.61 640.69 502.50 840.77 478.72 748.39 619.66 703.64 735.00 856.08 714.32
00022255 00000065 532.71 160.72 463.38 718.88 640.90 503.68 840.73 479.92 748.51 621.00 704.16 736.94 854.92 716.26
00022256 00000066 533.75 159.80 462.42 720.38 641.39 503.70 841.62 480.85 749.44 621.85 702.94 734.28 857.85 714.08
00022257 00000067 534.42 159.80 461.28 720.69 642.80 503.22 842.76 480.61 751.22 621.93 703.60 732.78 860.12 712.67
00022258 00000068 535.67 159.39 462.05 723.40 644.48 503.72 844.81 481.24 752.41 622.94 703.89 732.00 862.89 711.79
00022259 00000069 535.64 161.43 462.53 722.31 644.97 503.54 846.82 481.05 754.80 622.45 703.49 731.26 865.07 711.17
00022260 00000070 535.72 161.92 462.38 719.83 645.87 502.85 847.36 481.60 754.34 621.57 703.10 730.93 862.61 711.94
00022261 00000071 535.54 160.98 461.99 726.48 646.51 502.09 848.43 481.32 755.02 620.70 704.09 736.04 861.26 717.49
00022262 00000072 535.43 161.83 461.92 723.85 644.51 502.59 847.05 480.67 753.29 621.95 703.17 735.92 861.55 716.34
00022263 00000073 535.90 161.80 461.66 721.20 644.00 502.54 846.12 480.48 751.76 621.26 703.23 735.88 859.50 716.24
00022264 00000074 531.67 166.64 461.17 721.37 640.21 500.82 840.73 477.53 750.98 621.38 700.65 740.33 857.89 720.54
00022265 00000075 531.03 165.63 460.93 724.88 640.11 500.57 840.79 478.57 750.06 621.90 700.09 743.60 854.36 724.98
00022266 00000076 527.93 163.36 462.18 726.71 636.77 498.39 841.07 476.18 749.51 621.64 694.62 740.21 856.96 721.75
00022267 00000077 531.68 157.20 462.91 722.87 639.08 497.71 844.97 475.90 749.28 622.80 696.53 730.73 860.63 711.48
00022268 00000078 530.85 160.61 462.58 722.47 638.74 497.58 844.51 475.59 748.63 619.46 694.75 730.94 860.17 711.62
00022269 00000079 529.45 158.06 464.61 727.78 636.54 499.34 842.75 476.11 746.03 619.33 692.74 730.81 861.33 710.34
00022270 00000080 525.36 164.96 461.98 721.66 634.03 499.29 838.40 475.59 746.26 618.76 687.68 731.14 860.57 710.83
00022271 00000081 526.28 167.15 463.09 717.16 634.99 500.79 838.25 476.75 746.59 618.25 687.83 727.59 861.45 706.85
00022272 00000082 526.45 167.73 464.86 707.91 634.19 501.75 836.73 477.33 744.22 617.53 686.39 721.47 862.13 700.28
00022273 00000083 529.90 162.74 467.32 709.81 634.70 502.80 840.07 479.43 741.95 619.28 688.03 718.21 863.41 697.19
00022274 00000084 530.73 160.87 465.65 714.14 635.18 501.36 840.95 480.37 740.90 620.30 687.21 721.71 859.07 703.00
00022275 00000085 531.86 160.95 463.68 713.46 634.88 501.32 839.87 481.32 739.39 622.56 688.39 727.15 853.30 709.56
00022276 00000086 528.69 165.61 460.58 710.34 632.07 500.05 834.84 479.92 737.76 620.62 685.16 732.27 847.75 714.99
00022277 00000087 531.80 162.86 463.55 707.34 633.56 503.74 837.11 482.91 737.11 623.67 689.73 731.54 846.94 713.53
00022278 00000088 530.32 162.61 464.89 709.54 632.74 502.97 836.31 481.83 736.80 623.01 688.04 728.47 849.06 710.00
00022279 00000089 530.25 162.87 464.47 708.50 632.14 502.56 835.69 481.92 735.72 622.71 685.91 726.48 848.53 708.40
00022280 00000090 523.75 165.15 466.64 721.28 630.13 499.81 831.85 478.11 737.26 618.92 682.94 732.13 847.99 713.67
00022281 00000091 522.53 166.69 467.92 717.29 631.74 509.46 835.72 486.02 744.27 619.78 687.29 737.51 851.06 717.49
00022282 00000092 525.53 168.88 464.11 714.24 640.93 510.99 844.93 487.00 757.21 614.74 695.37 736.34 859.98 715.51
00022283 DELETE   526.25 166.55 470.51 718.03 654.80 509.79 855.07 484.15 772.99 613.72 716.01 733.09 872.71 710.40
00022284 DELETE   526.98 176.65 473.30 711.38 664.99 511.60 864.22 480.83 794.27 611.87 734.69 740.29 887.80 713.69
00022285 00000095 527.28 175.30 473.24 713.68 671.02 512.15 871.55 478.61 806.06 615.30 742.63 744.44 893.32 715.73
00022286 00000096 530.43 176.11 467.98 709.99 673.55 512.97 873.17 477.64 809.50 615.48 743.20 741.42 897.00 710.95
00022287 00000097 527.97 178.65 468.31 707.91 672.78 514.02 871.32 478.22 808.83 614.58 740.11 737.35 896.82 706.17
00022288 00000098 526.46 178.93 467.19 708.15 668.78 513.40 867.36 476.78 804.11 615.25 738.09 738.06 894.91 706.24
00022289 00000099 527.19 178.65 465.23 715.90 665.57 513.15 863.95 477.95 799.37 617.43 737.19 744.69 892.45 714.28
00022290 00000100 523.05 176.59 466.18 717.36 661.73 514.03 860.34 479.97 795.03 618.70 729.80 741.55 889.34 712.22
00022291 00000101 521.80 177.93 463.19 714.08 658.81 514.74 857.83 481.18 790.95 619.07 722.43 736.05 887.88 706.92
00022292 00000102 520.21 176.62 463.30 713.14 656.63 515.81 854.94 483.50 787.33 621.25 719.90 736.62 883.06 708.59
00022293 00000103 524.69 170.11 460.39 717.05 653.90 517.05 853.93 485.50 778.67 629.89 714.96 738.71 876.75 710.98
00022294 00000104 523.63 175.52 462.51 718.70 649.47 517.36 851.34 491.03 771.48 631.10 709.27 741.10 873.82 718.26
00022295 00000105 523.65 175.10 461.71 721.86 646.08 517.02 848.54 495.29 764.04 635.71 702.24 744.15 865.03 725.24
00022296 00000106 525.01 170.56 463.12 723.17 644.37 516.31 848.24 497.96 758.63 635.67 697.60 744.32 859.15 728.30
00022297 00000107 530.37 169.82 459.94 715.96 643.30 514.97 851.53 498.62 754.43 637.01 695.46 744.94 857.64 730.33
00022298 00000108 530.75 168.15 459.69 713.68 643.74 514.18 852.68 497.11 755.49 636.30 696.42 744.05 858.28 728.61
00022299 00000109 530.38 167.13 460.98 715.68 645.42 512.15 853.70 496.10 756.12 635.55 696.44 741.67 858.38 727.13
00022300 00000110 529.86 166.94 463.20 723.22 648.02 511.12 855.69 494.69 759.96 633.51 698.91 740.48 863.21 725.87
00022301 00000111 531.68 163.20 461.13 732.36 652.86 511.22 857.18 492.45 767.22 629.89 706.04 742.41 868.78 725.81
00022302 00000112 535.86 161.13 457.97 728.25 660.21 508.13 865.17 489.91 775.42 626.95 712.80 739.67 871.81 723.03
00022303 00000113 533.28 170.24 466.00 713.41 666.80 509.70 869.82 486.78 790.77 622.72 724.03 736.64 881.87 716.15
00022304 00000114 536.89 173.92 465.73 708.20 669.73 508.66 875.38 484.64 795.67 624.12 727.70 736.34 887.73 715.01
00022305 00000115 537.21 167.35 466.23 713.43 669.18 509.92 875.26 486.23 794.79 627.39 728.03 738.30 886.59 717.27
00022306 00000116 538.57 165.09 463.59 721.73 669.46 512.03 874.60 488.26 795.15 632.85 726.37 741.82 885.82 720.78
00022307 00000117 537.88 167.31 462.78 725.37 670.72 512.01 874.23 489.73 795.38 635.23 726.52 744.19 884.55 724.26
00022308 00000118 536.99 166.38 462.69 734.70 671.15 512.49 872.86 491.36 794.73 636.11 726.52 747.35 883.33 728.54
00022309 00000119 537.09 165.63 461.64 734.86 670.19 512.14 872.00 491.66 793.12 636.74 725.66 747.57 881.76 729.30
00022310 00000120 535.81 167.74 462.09 731.56 669.48 511.23 871.29 490.48 792.82 636.17 725.18 747.02 880.91 728.69
00022311 00000121 534.57 170.07 461.68 728.57 667.43 509.52 869.28 489.42 790.25 635.14 722.82 745.66 879.33 727.89
00022312 00000122 531.95 167.68 461.95 728.20 663.98 508.89 867.88 489.05 787.91 633.69 717.88 743.49 876.61 726.00
00022313 00000123 528.09 168.17 465.24 725.86 660.64 509.87 865.04 489.56 784.89 632.18 714.16 741.48 874.29 723.79
00022314 00000124 529.88 167.61 463.33 719.22 656.93 509.17 861.76 488.66 775.53 630.98 711.21 737.48 872.53 718.86
00022315 00000125 529.23 167.92 460.99 713.62 652.79 513.76 859.56 492.14 772.06 632.20 706.17 736.04 871.73 716.50
00022316 00000126 527.59 170.12 460.72 710.02 650.77 522.61 854.95 496.57 769.92 634.23 703.79 735.54 870.40 712.10
00022317 00000127 524.69 175.53 459.36 706.79 647.35 521.53 853.30 495.33 771.05 636.23 700.76 737.60 870.89 714.68
00022318 00000128 525.37 175.93 456.15 709.43 646.97 515.09 849.45 490.36 767.49 635.48 700.03 736.23 867.94 714.80
00022319 00000129 522.64 178.44 458.31 708.55 643.85 512.63 845.92 488.28 762.56 635.17 696.07 734.71 866.47 713.61
00022320 00000130 523.55 178.38 458.78 712.48 643.38 511.68 844.12 487.96 760.46 636.15 696.54 737.29 864.69 716.75
00022321 00000131 525.03 177.30 459.82 721.32 643.04 509.45 843.91 487.55 758.23 637.12 700.15 744.95 861.83 725.99
00022322 00000132 525.71 176.04 459.68 725.36 643.52 508.22 843.94 487.76 757.62 637.13 700.10 747.43 859.27 729.82
00022323 00000133 525.95 174.77 460.46 725.17 643.42 507.17 844.73 487.44 757.17 637.25 699.34 746.85 859.09 729.88
00022324 00000134 525.84 175.31 460.82 718.44 643.93 507.19 845.51 486.82 758.10 637.14 699.75 744.27 859.63 726.72
00022325 00000135 525.69 173.46 460.67 717.14 644.66 505.29 847.70 484.89 760.30 634.00 701.00 742.26 861.42 724.42
00022326 00000136 525.62 173.48 459.49 720.21 645.77 503.07 847.84 483.19 761.67 631.11 702.80 744.16 859.85 726.90
00022327 00000137 525.17 171.56 459.30 719.74 644.22 502.82 847.42 482.48 760.98 630.32 701.12 743.98 859.12 726.47
00022328 00000138 523.81 172.52 457.13 719.64 640.43 502.23 843.24 480.56 756.91 629.27 698.89 744.34 856.60 725.81
00022329 00000139 522.98 172.74 456.90 723.42 638.82 504.43 839.53 482.12 753.86 631.26 697.84 747.97 851.93 729.16
00022330 00000140 520.97 174.22 459.10 721.38 636.66 506.25 837.76 484.70 751.78 635.68 692.63 745.34 852.12 727.21
00022331 00000141 515.50 176.10 461.73 718.08 631.84 508.12 836.55 484.02 751.27 634.10 688.19 742.89 853.42 722.50
00022332 00000142 511.57 175.29 464.85 719.83 630.27 507.76 833.98 482.51 750.11 631.84 687.79 742.51 852.81 721.23
00022333 00000143 510.18 173.26 465.90 726.96 626.49 508.15 832.79 482.72 746.85 633.15 686.34 748.51 850.87 727.21
00022334 00000144 508.72 176.84 468.88 723.00 624.08 509.84 830.74 483.75 744.12 635.04 686.29 749.68 849.03 727.81
00022335 00000145 509.22 175.88 466.59 722.19 623.13 509.38 829.54 483.82 742.69 635.00 684.53 749.34 846.56 728.01
00022336 00000146 508.67 176.03 465.43 720.00 623.27 509.32 828.68 483.89 742.82 633.90 685.34 749.98 843.57 728.80
00022337 00000147 508.12 176.57 464.25 720.07 622.37 508.98 828.43 483.89 742.24 633.80 683.85 750.91 841.99 730.14
00022338 00000148 507.83 175.00 462.82 721.88 621.52 508.61 826.74 483.94 741.66 634.21 682.30 750.15 840.75 729.81
00022339 00000149 507.60 172.55 461.55 722.86 620.79 507.10 825.66 482.66 739.18 631.72 679.74 748.77 838.67 728.65
00022340 00000150 506.52 174.93 460.88 710.73 619.18 502.15 823.91 478.91 735.72 624.46 676.41 742.11 833.92 723.23
00022341 00000151 507.57 170.75 458.92 709.18 614.86 496.49 817.63 473.81 729.38 614.62 670.42 730.60 830.27 711.66
00022342 DELETE   506.97 180.88 461.56 706.31 609.29 501.25 810.03 475.14 715.40 606.79 659.67 728.31 829.12 706.31
00022343 DELETE   492.07 191.54 481.80 696.71 586.53 511.07 785.41 484.08 673.55 624.25 638.47 729.42 809.30 706.06
00022344 DELETE   489.28 186.55 470.94 707.94 565.84 517.56 764.31 494.90 637.96 639.71 611.91 732.57 790.26 711.66
00022345 00000155 484.17 178.84 470.69 726.25 554.17 521.20 758.80 500.80 623.31 647.50 596.66 742.40 782.74 722.87
00022346 00000156 485.43 181.30 467.70 724.65 553.09 519.57 755.07 505.31 617.58 650.18 593.33 744.64 774.08 730.51
00022347 00000157 484.89 182.57 463.72 726.64 552.98 516.98 754.13 508.43 614.98 650.34 592.23 748.34 764.44 739.41
00022348 00000158 491.42 169.56 449.70 735.21 563.60 513.24 748.80 505.61 627.13 646.75 602.66 745.10 755.79 737.53
00022349 00000159 494.39 167.70 446.36 737.74 567.85 515.76 750.17 509.56 631.54 649.60 606.73 750.80 751.70 744.76
00022350 00000160 496.90 171.49 444.18 736.36 569.69 517.96 754.59 512.81 636.78 654.55 607.31 755.11 753.79 750.27
00022351 00000161 503.05 169.73 437.97 740.95 574.30 521.80 758.42 514.75 642.92 657.37 613.28 761.20 756.49 755.05
00022352 00000162 507.14 166.65 437.26 744.19 577.99 520.82 763.53 515.23 648.06 658.54 617.39 762.01 759.72 757.05
00022353 00000163 510.64 168.97 434.42 740.75 582.65 522.09 767.37 515.92 652.06 654.71 620.25 760.88 763.89 755.40
00022354 00000164 505.25 180.27 448.62 732.98 571.89 520.37 767.34 518.23 634.18 657.43 609.30 763.94 759.09 761.82
00022355 00000165 513.85 159.59 433.58 746.49 588.06 515.31 776.65 513.34 657.60 652.15 623.46 756.13 768.85 754.06
00022356 00000166 513.81 177.18 442.30 738.08 580.14 517.82 775.44 517.69 642.92 658.13 618.13 765.17 762.51 764.89
00022357 00000167 519.35 176.12 447.15 732.15 591.24 520.32 790.42 517.99 663.02 657.33 629.92 759.08 782.32 756.63
00022358 00000168 521.73 187.52 459.98 715.08 613.50 521.90 822.76 512.93 707.66 646.54 654.66 751.71 822.25 743.14
00022359 DELETE   527.58 189.35 465.69 711.64 629.25 521.99 839.38 505.10 736.46 641.03 679.56 750.86 847.25 736.38
00022360 DELETE   529.94 181.76 465.48 715.54 647.84 516.79 857.79 495.53 766.84 634.77 702.91 750.10 867.14 731.78
