Video ID: 	-8SVt-PsgGU
H: 	1080
W: 	1920
FPS: 	29.97002997002997

FRAME INDEX X0 Y0 W H [Landmarks (5 Points)]

00009476 00000000 1003.26 104.20 474.68 725.30 1104.48 361.98 1304.34 391.71 1155.43 508.84 1090.36 624.49 1241.53 651.52
00009477 00000001 1000.46 113.50 483.19 718.87 1104.06 360.44 1304.38 389.61 1155.54 504.97 1091.46 624.78 1238.91 651.39
00009478 00000002 996.77 115.70 482.51 717.09 1104.77 356.21 1303.13 387.79 1150.21 493.75 1088.20 621.62 1236.25 651.11
00009479 00000003 994.12 116.15 490.52 715.02 1101.43 353.52 1302.52 385.06 1146.31 491.09 1085.25 618.54 1234.70 648.00
00009480 00000004 993.95 111.96 491.49 719.86 1101.45 353.77 1302.06 386.07 1145.06 489.39 1083.74 618.04 1232.84 648.26
00009481 00000005 994.58 109.83 492.58 725.44 1103.85 355.28 1303.41 388.40 1148.01 488.47 1085.29 620.28 1232.81 651.40
00009482 00000006 995.77 111.42 496.38 727.70 1105.16 356.58 1301.97 388.38 1145.68 489.70 1086.28 621.25 1231.33 651.38
00009483 00000007 996.77 113.99 493.59 724.53 1106.23 355.62 1302.60 389.22 1146.79 491.71 1086.93 623.64 1230.64 655.20
00009484 00000008 997.12 117.75 497.08 724.04 1106.70 355.48 1304.28 388.80 1147.66 491.00 1087.43 624.58 1231.29 656.02
00009485 00000009 1001.33 119.80 489.89 719.64 1108.74 356.16 1304.91 388.68 1152.63 495.74 1091.83 625.89 1233.51 656.58
00009486 00000010 1007.18 109.00 473.98 730.55 1112.80 357.45 1311.97 390.30 1162.45 506.51 1097.73 627.66 1236.30 657.52
00009487 00000011 1011.61 111.73 469.62 723.87 1114.41 362.16 1315.45 396.08 1166.20 511.29 1097.10 626.76 1242.00 657.52
00009488 00000012 1013.65 114.83 471.97 725.84 1115.12 367.89 1319.66 399.20 1170.28 516.70 1097.86 631.14 1255.69 659.58
00009489 DELETE   1016.33 115.64 469.57 730.49 1118.11 375.38 1320.04 409.53 1170.04 528.72 1095.50 630.52 1271.28 660.83
00009490 00000014 1010.30 127.82 480.15 727.85 1116.52 373.13 1320.77 414.52 1170.73 538.53 1095.67 632.77 1276.72 668.83
00009491 00000015 1012.30 134.80 474.93 714.77 1115.06 387.60 1322.64 423.95 1172.36 546.91 1097.14 638.51 1274.90 670.51
00009492 00000016 1013.07 137.36 473.09 712.03 1114.88 392.09 1322.59 428.54 1174.52 556.76 1098.95 643.01 1274.94 675.18
00009493 00000017 1012.11 129.29 479.05 722.01 1114.67 392.66 1323.32 428.91 1174.36 562.12 1100.09 645.77 1276.67 677.80
00009494 00000018 1011.23 133.46 481.85 716.33 1114.07 394.45 1323.37 430.55 1175.31 563.07 1100.45 644.91 1278.88 676.68
00009495 00000019 1012.03 131.02 475.66 719.16 1114.22 395.14 1322.53 431.10 1174.94 562.87 1099.33 645.37 1278.64 677.06
00009496 00000020 1011.49 132.15 476.96 717.70 1113.92 394.94 1323.02 430.27 1175.02 562.63 1100.26 645.99 1279.43 677.07
00009497 00000021 1010.70 129.76 482.36 719.60 1113.17 394.20 1322.74 430.19 1173.23 561.29 1099.34 644.62 1280.50 676.19
00009498 00000022 1010.38 128.79 482.79 721.24 1111.75 394.00 1320.38 429.74 1170.20 558.38 1097.44 643.94 1279.09 675.23
00009499 00000023 1010.55 128.61 477.81 721.12 1111.86 394.11 1319.76 430.28 1170.08 557.89 1096.03 643.76 1276.74 675.57
00009500 00000024 1009.89 124.23 481.27 724.25 1110.99 393.52 1319.09 429.22 1167.96 555.16 1094.84 643.33 1274.95 674.73
00009501 00000025 1010.63 121.46 479.39 726.34 1110.32 392.44 1316.88 426.13 1167.27 552.52 1095.37 642.39 1275.33 672.17
00009502 00000026 1009.47 125.55 482.63 720.75 1110.23 391.52 1316.65 425.95 1166.88 551.76 1095.23 640.47 1275.25 670.75
00009503 00000027 1009.56 124.33 482.26 721.25 1109.35 391.03 1315.58 425.27 1165.71 550.29 1094.71 639.55 1275.68 669.68
00009504 00000028 1007.98 121.92 482.81 724.11 1109.16 390.80 1315.64 425.29 1165.76 549.82 1093.56 638.98 1274.96 669.35
00009505 00000029 1007.97 122.82 488.94 723.75 1108.70 389.05 1315.91 423.75 1164.67 547.95 1093.33 638.67 1274.97 669.16
00009506 00000030 1007.93 123.18 488.96 724.22 1107.56 388.41 1314.06 422.79 1162.24 546.67 1092.94 638.13 1275.72 668.21
00009507 00000031 1007.85 123.85 487.51 724.55 1107.54 389.12 1313.60 423.49 1162.46 547.27 1092.56 638.41 1275.46 668.50
00009508 00000032 1006.72 118.02 487.29 730.39 1107.49 389.16 1313.89 423.62 1162.56 547.05 1091.74 639.20 1274.41 669.50
00009509 00000033 1007.14 121.10 488.95 726.26 1106.75 388.90 1313.63 423.19 1162.15 547.43 1091.68 639.16 1273.81 669.33
00009510 00000034 1007.61 121.92 488.54 725.73 1108.04 388.67 1314.45 423.68 1161.94 546.06 1092.25 638.63 1274.21 669.31
00009511 00000035 1007.82 122.79 487.60 725.33 1108.96 388.54 1314.92 423.34 1162.85 546.69 1092.86 638.96 1274.59 669.47
00009512 00000036 1008.04 121.20 484.65 725.69 1109.06 388.12 1315.20 422.90 1163.92 546.79 1092.76 637.83 1274.52 668.43
00009513 00000037 1009.69 118.77 484.99 728.86 1109.69 386.91 1316.10 421.45 1163.81 545.45 1093.46 638.31 1274.20 668.69
00009514 00000038 1009.23 122.01 482.58 726.17 1111.18 387.92 1317.22 422.18 1166.47 545.99 1094.45 638.21 1274.52 668.44
00009515 00000039 1009.33 122.79 486.09 725.46 1110.53 386.71 1316.88 421.12 1164.73 545.37 1094.57 638.04 1275.01 668.33
00009516 00000040 1009.80 119.44 484.43 728.63 1111.18 386.28 1316.95 421.26 1164.46 544.37 1093.90 637.41 1276.11 668.10
00009517 00000041 1009.15 117.11 484.13 729.58 1111.40 387.31 1317.55 421.76 1165.17 544.58 1094.48 637.68 1275.91 668.00
00009518 00000042 1008.62 120.69 488.70 726.68 1111.41 386.69 1317.94 421.94 1165.30 544.40 1094.37 637.29 1276.28 668.17
00009519 00000043 1008.73 120.98 486.31 725.99 1111.47 386.45 1317.59 422.02 1165.06 544.09 1093.76 636.31 1276.09 667.46
00009520 00000044 1008.63 120.18 486.22 727.81 1111.12 386.57 1317.69 421.52 1165.41 543.98 1093.08 637.25 1275.52 667.97
00009521 00000045 1008.60 120.50 485.16 727.60 1110.92 387.45 1317.10 422.31 1164.56 544.28 1093.32 637.63 1274.95 668.29
00009522 00000046 1008.63 117.06 488.58 731.16 1110.04 386.88 1316.38 421.72 1163.78 544.69 1092.84 638.30 1275.02 668.92
00009523 00000047 1008.78 119.05 484.37 729.25 1109.60 387.00 1315.37 421.82 1163.09 544.36 1092.31 637.49 1274.68 668.11
00009524 00000048 1009.04 116.78 480.65 730.39 1109.00 386.61 1314.81 421.65 1163.50 544.87 1091.91 636.95 1274.69 667.78
00009525 00000049 1009.10 116.51 482.06 731.71 1109.70 386.42 1314.79 422.61 1163.01 545.18 1091.54 636.57 1273.78 668.36
00009526 00000050 1008.82 114.90 483.20 733.61 1109.53 385.54 1315.02 422.36 1162.77 544.08 1090.58 636.18 1272.38 668.56
00009527 00000051 1008.49 115.82 481.93 731.67 1109.19 385.60 1314.59 422.14 1162.93 543.76 1090.54 635.54 1273.26 667.64
00009528 00000052 1008.39 115.84 479.72 731.26 1109.36 386.24 1315.09 422.15 1164.12 543.78 1090.66 635.26 1273.85 666.89
00009529 00000053 1008.49 114.40 481.82 732.88 1109.35 385.50 1314.80 421.65 1163.41 543.48 1091.04 635.13 1273.83 666.90
00009530 00000054 1008.44 116.21 482.90 731.17 1108.92 385.16 1315.13 421.26 1163.16 543.20 1090.56 635.46 1273.28 667.22
00009531 00000055 1008.09 114.65 484.14 732.21 1109.13 385.26 1315.12 420.91 1163.93 542.89 1091.00 635.38 1274.08 666.68
00009532 00000056 1008.67 115.48 482.83 730.85 1109.79 384.88 1316.44 420.63 1164.93 542.51 1090.90 636.15 1272.41 667.71
00009533 00000057 1009.21 113.24 479.05 733.54 1109.53 385.43 1316.05 421.31 1165.10 543.17 1090.88 636.59 1272.54 668.23
00009534 00000058 1008.55 115.78 481.93 730.28 1109.70 385.02 1316.80 420.61 1165.66 543.48 1091.46 636.35 1272.32 667.80
00009535 00000059 1010.03 113.73 476.04 732.01 1110.11 385.36 1316.62 420.99 1165.74 542.89 1091.06 636.52 1272.15 668.08
00009536 00000060 1009.09 117.05 476.67 728.20 1111.23 385.60 1316.91 421.68 1166.66 542.58 1091.53 636.25 1270.42 668.25
00009537 00000061 1009.83 117.56 476.31 726.26 1110.80 385.84 1316.40 421.72 1166.44 542.57 1091.80 635.99 1270.57 667.82
00009538 00000062 1009.66 117.04 474.46 728.33 1111.41 386.13 1316.80 422.10 1166.75 542.64 1091.62 636.25 1269.82 668.17
00009539 00000063 1008.88 115.81 481.47 729.79 1110.67 384.93 1317.43 420.54 1166.20 542.64 1092.05 637.72 1270.03 669.31
00009540 00000064 1009.43 116.13 475.47 729.71 1110.82 385.83 1317.25 421.76 1167.58 542.97 1091.38 637.16 1270.04 669.09
00009541 00000065 1009.83 114.76 475.83 730.69 1110.55 385.53 1317.29 420.97 1167.10 541.94 1091.55 637.92 1269.88 669.45
00009542 00000066 1009.64 113.28 476.72 732.17 1110.17 385.31 1317.05 420.77 1166.91 541.51 1091.13 637.79 1269.57 669.36
00009543 00000067 1009.49 114.80 476.75 730.26 1110.23 385.29 1317.03 420.43 1166.93 541.51 1091.41 637.38 1269.63 668.66
00009544 00000068 1008.51 116.80 478.21 728.10 1109.81 384.77 1317.47 420.47 1167.04 541.26 1091.01 637.19 1269.15 668.90
00009545 00000069 1009.15 113.81 476.54 731.86 1110.12 384.80 1316.48 420.91 1166.11 541.06 1090.36 636.99 1268.59 669.11
00009546 00000070 1008.88 113.31 478.08 733.03 1108.96 384.39 1315.87 419.50 1165.47 541.14 1090.21 637.96 1268.32 669.24
00009547 00000071 1008.30 113.22 478.78 731.14 1108.14 383.37 1313.99 418.94 1163.81 540.59 1089.18 636.00 1268.45 667.60
00009548 00000072 1005.25 115.70 482.28 726.93 1104.16 386.76 1311.77 417.94 1163.26 538.07 1090.05 636.73 1270.43 664.66
00009549 00000073 1007.33 101.44 479.83 730.74 1107.69 384.74 1312.66 420.20 1162.77 530.75 1085.72 629.03 1268.09 660.52
00009550 00000074 1002.18 96.38 484.23 727.15 1107.09 380.80 1312.21 417.74 1163.40 525.10 1083.72 621.56 1263.69 654.33
00009551 00000075 1004.97 95.59 479.88 723.49 1109.21 377.24 1312.55 414.50 1164.16 518.73 1084.35 616.98 1262.60 649.90
00009552 00000076 1005.01 97.69 477.27 720.09 1109.54 372.63 1314.89 408.59 1166.57 515.73 1086.07 614.78 1262.74 646.68
00009553 00000077 1008.56 96.42 474.74 723.10 1112.84 372.79 1314.75 410.87 1165.75 516.29 1086.77 613.02 1262.73 646.75
00009554 00000078 1008.40 97.95 473.73 723.53 1113.84 371.96 1317.99 410.92 1167.37 519.36 1086.50 615.14 1264.10 649.75
00009555 00000079 1009.11 99.78 472.49 725.52 1115.17 373.63 1317.44 413.18 1167.99 524.89 1087.03 617.24 1265.76 652.44
00009556 00000080 1009.92 107.68 469.45 719.38 1113.42 380.21 1316.18 417.65 1168.85 530.87 1087.47 624.34 1263.09 657.96
00009557 00000081 1009.51 114.23 464.89 717.77 1110.94 382.46 1316.59 420.63 1167.96 539.14 1087.31 628.67 1264.51 662.65
00009558 00000082 1010.07 115.47 470.40 718.44 1109.83 384.41 1313.69 421.27 1163.62 538.53 1087.56 631.74 1262.90 664.68
00009559 00000083 1010.54 113.80 463.54 720.83 1109.35 383.91 1313.21 420.37 1163.68 537.06 1087.22 631.18 1263.08 663.62
00009560 00000084 1010.45 111.12 461.41 724.15 1109.71 382.57 1313.85 417.71 1165.15 534.56 1086.86 630.36 1262.83 661.88
00009561 00000085 1009.08 107.94 463.28 724.29 1109.70 381.82 1313.34 415.86 1165.51 530.65 1086.99 628.06 1263.31 658.63
00009562 00000086 1009.40 102.29 463.03 727.47 1110.11 380.14 1313.03 414.80 1164.01 528.71 1086.43 626.24 1262.61 657.34
00009563 00000087 1008.53 106.99 462.84 725.11 1107.67 382.74 1311.26 415.38 1163.19 532.99 1087.53 628.82 1263.66 658.08
00009564 00000088 1006.52 118.73 462.19 724.27 1104.99 388.57 1307.98 421.26 1159.22 540.24 1086.65 637.24 1260.96 666.36
00009565 00000089 1005.02 130.52 458.48 719.24 1102.52 397.80 1305.14 428.91 1157.28 547.91 1088.90 646.00 1260.98 673.57
00009566 00000090 1001.80 135.30 464.82 723.05 1098.35 407.02 1302.62 437.70 1155.05 559.84 1088.66 656.40 1258.10 683.75
00009567 00000091 998.39 139.94 462.53 717.64 1095.85 412.02 1299.85 443.24 1152.53 564.55 1085.38 657.00 1257.41 684.57
00009568 00000092 996.74 136.69 461.70 716.09 1093.95 411.13 1298.29 440.42 1152.50 562.02 1083.13 654.13 1255.80 680.03
00009569 00000093 995.88 131.64 461.85 718.58 1093.01 405.02 1300.16 431.43 1154.84 551.56 1082.14 651.40 1254.47 674.93
00009570 00000094 998.84 122.85 457.80 718.83 1097.90 397.13 1301.12 425.81 1155.21 543.47 1083.80 643.30 1252.17 668.71
00009571 00000095 1000.80 116.25 458.26 722.14 1098.44 391.78 1302.24 421.44 1152.11 539.16 1083.04 641.31 1251.08 667.63
00009572 00000096 1000.59 111.50 462.89 726.20 1098.32 389.80 1302.70 418.47 1152.75 538.92 1083.91 640.10 1254.74 665.67
00009573 00000097 1001.88 112.47 460.02 726.65 1098.85 392.40 1302.03 420.86 1152.71 539.33 1083.84 641.01 1256.66 666.26
00009574 00000098 1003.50 122.65 457.59 722.66 1099.57 396.91 1300.65 424.04 1151.76 542.26 1086.54 645.06 1258.01 669.15
00009575 00000099 1002.22 125.43 462.16 718.94 1096.73 397.70 1300.25 424.79 1151.71 544.62 1085.51 645.78 1259.70 669.87
00009576 00000100 1001.70 122.06 456.96 716.89 1095.98 397.60 1300.15 424.28 1151.15 542.90 1083.03 642.36 1259.37 665.94
00009577 00000101 1001.04 115.33 459.20 715.36 1095.49 392.99 1300.20 420.94 1151.45 540.95 1082.11 639.44 1256.84 664.10
00009578 00000102 999.44 110.93 463.30 718.76 1094.80 388.81 1300.45 416.78 1151.99 538.30 1082.26 634.65 1259.84 659.28
00009579 00000103 1004.06 108.65 458.24 725.86 1097.41 382.73 1301.01 421.86 1152.10 534.97 1083.68 629.49 1255.33 663.70
00009580 00000104 1003.84 108.74 459.10 723.40 1096.45 383.94 1299.14 421.83 1150.23 532.65 1083.51 628.88 1254.68 662.01
00009581 00000105 1003.09 105.76 459.08 726.08 1094.24 385.58 1294.29 421.52 1146.81 533.83 1082.19 629.62 1251.47 661.13
00009582 00000106 1001.00 105.65 452.53 726.37 1092.33 387.97 1290.16 422.99 1143.77 535.67 1080.83 630.64 1249.23 661.05
00009583 00000107 999.32 107.65 455.69 725.10 1086.43 387.98 1284.16 423.17 1135.03 536.60 1076.18 631.64 1244.91 661.90
00009584 00000108 997.11 105.75 453.40 727.32 1082.39 387.53 1279.36 423.53 1129.03 536.54 1071.01 632.47 1237.77 663.41
00009585 00000109 995.29 98.69 453.97 737.54 1078.49 386.95 1273.29 422.70 1122.47 537.13 1067.99 634.33 1233.44 664.85
00009586 00000110 992.38 99.76 464.20 734.08 1077.69 384.76 1268.68 424.19 1113.92 536.02 1064.48 631.12 1228.29 664.12
00009587 00000111 990.05 95.04 464.01 739.61 1073.61 383.01 1265.44 421.80 1108.94 534.40 1060.95 629.69 1227.66 662.14
00009588 00000112 987.05 90.18 461.99 745.71 1068.01 383.68 1260.58 420.58 1102.24 532.27 1055.70 630.03 1224.85 660.82
00009589 00000113 986.57 88.45 465.41 747.40 1068.14 383.52 1257.82 421.41 1098.77 529.84 1053.84 627.93 1222.33 659.41
00009590 00000114 985.05 88.41 461.43 748.76 1066.18 382.90 1257.44 419.73 1099.08 528.22 1051.73 627.67 1221.27 658.56
00009591 00000115 982.93 86.94 472.26 749.56 1062.71 383.23 1255.28 420.06 1094.92 528.54 1050.11 628.57 1218.91 659.53
00009592 00000116 977.20 90.31 484.19 742.91 1065.45 385.45 1263.55 415.19 1105.23 528.70 1053.01 634.47 1227.68 659.10
00009593 00000117 977.03 92.64 482.59 741.02 1066.11 385.53 1263.82 416.41 1106.39 530.03 1054.04 634.59 1227.93 660.07
00009594 00000118 975.80 93.26 482.71 742.83 1065.20 385.76 1263.35 415.82 1105.98 530.63 1053.66 636.41 1227.69 661.20
00009595 00000119 975.51 90.25 480.11 750.45 1065.56 387.14 1262.41 416.39 1103.97 529.25 1052.62 637.26 1227.69 661.27
00009596 00000120 976.11 90.18 480.70 754.24 1065.71 385.49 1260.66 414.83 1100.94 528.07 1052.05 638.20 1224.68 662.31
00009597 00000121 974.22 88.41 478.90 751.09 1065.12 385.95 1261.08 414.17 1103.08 526.38 1053.51 638.06 1223.32 661.22
00009598 00000122 974.17 92.72 474.70 740.26 1065.03 385.54 1261.71 416.14 1103.09 526.73 1051.64 633.43 1221.02 658.51
00009599 00000123 972.89 93.92 476.61 738.70 1063.82 385.93 1258.89 419.30 1099.63 530.87 1051.00 632.24 1219.27 659.48
00009600 00000124 974.85 99.34 478.91 731.63 1063.22 387.19 1255.93 422.55 1096.86 533.24 1051.36 633.39 1215.50 662.60
00009601 00000125 976.54 97.65 477.01 740.86 1065.08 390.02 1255.58 425.80 1095.04 533.01 1050.58 638.15 1213.77 667.48
00009602 00000126 976.59 97.83 473.32 746.40 1065.54 390.64 1256.73 423.36 1096.68 533.27 1052.33 644.04 1213.40 670.93
00009603 00000127 977.28 92.37 474.29 749.26 1067.13 387.11 1255.37 420.84 1093.73 528.48 1051.30 640.63 1210.97 668.42
00009604 00000128 975.76 91.93 478.34 744.81 1064.43 383.21 1254.26 416.53 1090.70 522.17 1049.00 638.01 1208.04 665.58
00009605 00000129 977.12 90.82 475.87 741.23 1062.69 381.36 1253.49 413.11 1089.47 519.59 1047.74 638.35 1204.50 664.89
00009606 00000130 978.09 88.78 477.01 742.36 1061.75 380.59 1253.11 413.27 1085.20 518.10 1046.73 639.38 1201.43 666.72
00009607 00000131 980.16 90.91 470.81 741.51 1062.36 383.92 1253.47 416.91 1086.49 523.07 1048.00 642.97 1199.64 670.73
00009608 00000132 980.22 93.49 470.15 746.10 1063.79 385.69 1253.70 418.36 1087.20 526.95 1049.30 647.17 1199.59 674.62
00009609 00000133 980.05 92.67 462.36 750.76 1064.64 386.52 1253.72 417.63 1089.05 526.73 1048.32 649.87 1199.89 675.99
00009610 00000134 979.93 91.94 469.67 754.36 1065.60 386.48 1253.80 417.88 1087.83 524.89 1048.97 646.88 1205.88 672.94
00009611 00000135 976.42 93.14 475.11 753.51 1063.74 381.77 1251.30 413.81 1084.67 521.44 1048.07 641.62 1207.77 667.71
00009612 00000136 977.13 88.88 475.18 755.06 1065.13 380.28 1251.75 412.06 1084.64 517.08 1049.19 639.63 1207.91 665.62
00009613 00000137 976.76 88.81 476.83 752.46 1065.48 380.60 1251.86 412.24 1085.36 516.78 1050.25 638.33 1208.07 664.34
00009614 00000138 976.55 90.49 477.07 749.15 1064.69 382.50 1252.27 414.98 1087.67 520.83 1050.31 639.91 1207.77 666.64
00009615 00000139 978.89 92.67 467.02 748.15 1065.83 387.15 1255.56 418.67 1091.82 525.31 1050.19 645.73 1207.63 671.78
00009616 00000140 978.15 94.97 465.98 744.20 1062.87 389.96 1253.46 420.98 1089.12 528.43 1047.87 648.43 1205.11 674.04
00009617 00000141 977.10 94.30 464.43 745.11 1061.37 390.40 1252.16 421.83 1086.45 529.61 1045.77 648.83 1203.15 674.80
00009618 00000142 976.47 95.38 463.33 738.69 1060.52 388.75 1250.93 421.26 1085.37 528.19 1043.87 645.31 1201.09 672.18
00009619 00000143 980.33 96.76 461.86 735.20 1054.26 375.42 1243.43 410.33 1082.20 520.27 1039.49 634.80 1187.15 666.90
00009620 00000144 982.77 93.06 458.82 741.92 1058.19 369.05 1244.32 404.54 1081.49 511.48 1042.35 629.61 1190.46 662.55
CROP_BBOX: 695 0 1775 1012
