Video ID: 	DAc1qkuDOUE
H: 	1080
W: 	1920
FPS: 	25.0

FRAME INDEX X0 Y0 W H [Landmarks (5 Points)]

00002797 00000000 851.15 178.96 375.47 562.34 867.50 436.70 969.15 427.22 852.07 521.32 896.15 621.91 976.70 612.34
00002798 00000001 852.73 174.13 376.32 586.44 870.73 436.87 974.25 429.27 854.10 525.19 902.89 631.26 984.25 623.08
00002799 DELETE   852.66 181.17 388.34 593.72 885.63 435.76 1006.06 427.50 877.85 528.83 914.42 636.43 1014.42 627.92
00002800 DELETE   859.66 187.13 400.59 595.23 906.32 445.32 1031.54 427.07 920.87 538.68 956.04 645.34 1056.45 627.10
00002801 DELETE   865.98 190.99 414.16 592.59 914.90 458.79 1054.08 433.60 949.27 552.40 970.88 654.08 1084.59 630.91
00002802 00000005 870.43 191.54 412.25 591.55 918.04 471.85 1063.27 451.02 958.28 564.54 971.05 664.33 1087.85 645.36
00002803 DELETE   870.45 204.46 406.25 577.42 911.18 478.83 1047.89 465.03 939.56 578.39 957.56 670.48 1066.01 657.50
00002804 DELETE   862.34 207.56 396.18 575.51 903.50 475.86 1033.28 470.25 918.95 579.74 947.20 673.42 1045.61 667.17
00002805 00000008 859.21 222.06 394.50 567.34 903.95 485.70 1029.82 484.45 915.21 586.48 945.98 673.11 1041.45 671.20
00002806 DELETE   863.90 210.55 404.24 589.73 905.07 484.07 1042.42 471.10 930.32 586.46 955.49 684.35 1063.90 671.76
00002807 00000010 862.88 212.57 405.97 590.76 915.59 489.78 1055.56 470.63 955.45 583.53 967.99 687.29 1077.77 669.91
00002808 DELETE   860.02 216.21 402.71 586.44 909.79 490.82 1050.82 470.84 948.48 586.41 960.34 688.51 1072.05 670.44
00002809 DELETE   841.99 221.65 411.33 584.84 889.53 490.12 1028.04 474.29 918.85 593.00 944.15 689.25 1044.59 674.35
00002810 DELETE   836.70 227.37 399.96 580.45 871.73 495.48 1003.94 490.37 892.76 595.77 917.63 686.47 1024.07 680.18
00002811 00000014 831.80 220.62 402.70 590.90 868.11 500.12 994.24 493.57 885.28 600.57 917.94 688.88 1020.01 680.66
00002812 00000015 829.28 229.95 406.40 576.21 878.77 502.39 1002.06 490.44 894.80 590.58 926.27 679.14 1025.58 668.17
00002813 00000016 828.31 227.10 404.37 579.01 886.18 504.84 1010.73 487.87 913.91 588.94 938.99 678.86 1037.14 664.17
00002814 00000017 827.24 228.95 405.86 576.25 886.42 505.04 1012.86 486.77 917.17 589.35 940.40 678.67 1040.47 663.01
00002815 00000018 827.58 224.06 403.64 582.84 885.09 503.92 1007.97 486.34 910.26 586.93 936.13 678.05 1033.59 662.68
00002816 00000019 828.50 227.08 402.90 577.34 883.21 501.96 1004.77 486.67 903.59 585.32 930.86 676.20 1027.04 662.70
00002817 00000020 830.76 224.25 402.33 574.61 885.02 501.29 1006.46 486.93 908.19 583.28 932.95 674.97 1025.52 662.22
00002818 00000021 837.07 219.13 400.90 575.29 889.69 498.05 1014.75 485.03 917.99 584.83 941.21 675.23 1033.12 663.96
00002819 00000022 840.93 216.25 405.43 574.90 893.22 494.89 1022.64 479.94 923.40 581.29 946.79 673.79 1043.32 661.07
00002820 00000023 846.45 210.96 400.80 579.87 897.49 488.41 1032.05 475.42 931.18 582.53 953.04 670.54 1057.12 659.22
00002821 00000024 853.19 202.14 392.01 583.55 902.97 487.62 1034.80 463.79 941.70 576.59 959.00 676.59 1065.52 655.30
00002822 DELETE   857.43 199.02 397.15 585.64 907.05 482.01 1039.63 452.14 946.81 564.48 962.62 668.33 1072.31 642.02
00002823 DELETE   862.65 194.74 401.11 587.81 913.54 469.11 1043.68 440.15 947.77 552.21 968.34 657.28 1076.65 631.23
00002824 00000027 866.49 193.70 414.15 579.36 915.61 460.26 1052.99 431.30 954.13 543.81 973.20 647.67 1082.15 621.71
00002825 00000028 868.65 181.32 414.39 577.48 916.07 453.71 1064.44 423.50 960.64 534.33 973.18 638.49 1089.99 611.41
00002826 00000029 872.64 173.50 414.64 573.12 920.05 442.20 1071.56 413.34 968.03 519.64 978.50 628.68 1092.30 602.63
00002827 00000030 873.51 166.55 414.85 569.43 923.60 437.21 1076.62 406.79 973.22 510.81 979.39 622.12 1095.26 595.29
00002828 00000031 873.34 159.80 417.56 569.34 925.54 427.87 1079.21 396.42 974.22 500.61 978.33 615.50 1095.35 588.52
00002829 00000032 876.71 155.19 416.12 568.34 926.08 419.65 1078.53 382.11 976.34 489.40 977.92 613.29 1095.88 581.47
00002830 00000033 876.19 163.51 410.39 559.46 927.98 415.46 1079.25 385.23 974.63 492.74 978.43 600.09 1091.73 574.02
00002831 00000034 879.44 144.82 416.27 574.98 927.90 407.24 1080.91 369.57 975.78 481.36 981.50 603.50 1097.05 571.79
00002832 00000035 881.14 144.92 413.27 570.95 930.02 402.15 1082.96 367.07 976.51 471.80 978.77 596.89 1094.45 567.17
00002833 00000036 882.34 144.70 413.89 568.92 931.76 397.19 1085.52 363.05 978.29 466.28 979.50 591.13 1095.26 562.17
00002834 00000037 885.96 143.88 412.45 567.12 935.18 392.45 1086.29 358.46 977.18 458.08 981.03 585.43 1095.31 556.29
00002835 00000038 888.10 141.59 405.35 572.47 944.33 389.57 1090.96 361.93 984.33 454.81 979.91 575.77 1091.13 551.58
00002836 00000039 888.16 139.94 409.21 568.92 938.70 387.77 1091.38 353.29 978.21 445.96 981.34 580.59 1095.65 550.93
00002837 00000040 887.44 139.54 409.15 569.30 938.24 386.28 1091.90 350.50 977.21 441.42 980.90 579.50 1096.44 548.65
00002838 00000041 887.68 141.31 410.01 569.70 937.74 385.95 1091.33 349.91 975.64 442.42 980.17 579.69 1097.71 548.62
00002839 00000042 887.99 144.16 407.79 574.45 942.37 383.63 1094.34 351.78 982.61 445.56 975.85 576.28 1094.10 548.69
00002840 00000043 889.63 136.25 407.92 578.98 941.54 380.86 1095.78 349.69 981.85 445.29 975.50 574.95 1094.96 548.07
00002841 00000044 889.63 131.27 411.39 576.18 938.93 380.40 1093.78 345.01 977.81 439.83 982.03 575.28 1101.07 545.00
00002842 00000045 889.86 129.61 407.36 578.89 940.73 378.69 1095.50 341.06 981.33 433.96 987.37 574.49 1103.97 542.17
00002843 00000046 890.37 132.55 402.92 575.72 941.95 378.59 1097.46 339.32 985.42 431.72 990.80 573.84 1105.03 540.02
00002844 00000047 890.52 131.78 404.17 575.94 942.05 377.26 1096.64 339.52 984.65 432.01 990.63 572.23 1104.58 539.56
00002845 00000048 890.34 128.93 402.23 578.93 942.88 379.88 1094.94 343.70 982.01 433.18 988.75 572.31 1102.63 540.80
00002846 00000049 889.29 132.96 404.01 572.29 942.20 385.42 1094.54 349.61 983.79 437.30 986.93 573.18 1102.76 542.14
00002847 00000050 887.56 136.24 401.94 571.26 943.68 389.88 1094.98 356.98 988.41 446.33 981.13 572.06 1099.11 543.46
00002848 00000051 888.02 139.51 404.40 559.85 941.81 392.69 1094.98 359.92 988.24 449.94 980.69 573.40 1099.02 544.89
00002849 00000052 887.63 140.12 405.16 554.02 941.25 394.02 1093.75 361.88 987.72 452.03 980.16 573.07 1096.72 545.03
00002850 00000053 888.05 141.98 404.32 549.12 941.19 393.56 1093.71 362.06 987.51 452.92 980.39 572.60 1097.06 544.92
00002851 00000054 887.51 142.66 405.01 547.65 940.18 393.64 1092.79 361.75 986.49 453.55 979.94 572.73 1096.18 544.66
00002852 00000055 886.55 142.95 405.29 550.58 940.20 395.07 1091.60 363.91 986.03 455.14 979.96 574.14 1095.61 546.66
00002853 00000056 884.35 142.35 406.14 555.33 939.31 396.66 1091.49 366.57 985.95 456.88 978.98 575.51 1094.33 549.08
00002854 00000057 883.24 140.22 406.99 561.78 940.14 397.98 1089.70 369.56 985.78 458.22 979.36 575.52 1092.36 550.57
00002855 00000058 883.46 141.50 407.21 562.34 940.19 398.11 1089.89 370.47 985.52 460.10 979.34 576.56 1092.18 552.33
00002856 00000059 883.04 142.44 407.17 563.63 939.90 398.45 1088.93 370.41 984.81 460.37 979.68 577.72 1091.59 553.16
00002857 00000060 882.70 143.64 406.53 563.42 940.13 399.06 1088.96 370.48 985.40 460.20 979.82 577.92 1091.91 552.96
00002858 00000061 882.76 142.70 406.73 565.24 939.99 399.05 1089.14 370.68 985.17 460.56 979.74 577.67 1093.16 552.84
00002859 00000062 883.41 146.83 406.01 563.89 940.38 402.93 1091.06 375.53 986.27 462.01 978.89 578.36 1095.49 554.16
00002860 00000063 879.42 144.13 416.99 564.03 934.56 409.82 1088.65 372.63 982.56 459.05 978.68 585.37 1102.48 553.73
00002861 00000064 879.69 141.41 417.65 566.91 932.37 410.87 1088.79 374.64 981.12 465.10 976.20 586.52 1104.89 555.62
00002862 00000065 880.58 140.58 417.95 567.81 932.67 411.57 1087.39 374.29 980.10 466.42 976.21 586.37 1103.21 554.83
00002863 00000066 882.40 142.26 416.52 567.97 932.49 411.25 1086.68 373.34 978.69 468.73 974.40 588.10 1101.08 556.10
00002864 00000067 882.44 139.36 415.29 574.04 933.01 410.53 1087.14 373.86 979.65 470.93 975.73 591.51 1100.70 560.66
00002865 00000068 882.75 141.05 413.02 576.36 934.20 410.63 1086.53 374.57 979.66 472.86 977.71 594.77 1100.19 564.37
00002866 00000069 882.08 140.01 412.23 576.16 934.88 410.38 1085.29 375.37 981.21 473.31 980.16 594.97 1099.75 565.51
00002867 00000070 882.15 144.40 410.79 569.77 934.34 411.40 1086.52 376.67 981.99 474.31 980.08 595.87 1099.52 566.68
00002868 00000071 882.31 145.66 410.06 570.10 934.61 410.73 1085.92 376.41 981.57 475.01 980.34 597.13 1098.94 568.27
00002869 00000072 883.18 150.18 407.63 570.04 935.26 413.66 1084.15 378.39 980.35 476.18 979.16 600.41 1097.95 570.71
00002870 00000073 881.40 144.99 411.09 581.45 934.95 417.85 1084.04 386.38 983.31 483.67 980.92 606.81 1097.49 580.27
00002871 00000074 881.33 153.98 411.85 576.92 936.12 432.48 1085.13 396.74 987.28 493.27 981.53 618.77 1097.73 588.80
00002872 00000075 876.87 164.06 416.25 574.51 933.73 441.51 1080.49 414.65 981.40 507.32 986.90 619.27 1098.82 595.18
00002873 00000076 877.78 163.50 414.15 575.56 933.99 442.17 1080.44 415.98 980.68 507.99 985.89 620.81 1097.58 597.34
00002874 00000077 877.60 160.12 413.93 574.95 935.03 439.24 1084.75 410.83 982.55 499.79 982.48 617.49 1096.40 592.59
00002875 00000078 882.19 150.59 411.94 573.36 935.46 427.66 1086.56 395.36 986.99 489.64 979.18 614.86 1093.90 587.64
00002876 00000079 882.58 149.43 412.21 573.15 934.01 420.88 1085.22 389.07 982.55 484.84 977.92 609.56 1094.02 582.57
00002877 00000080 882.86 146.58 407.75 575.63 936.03 418.37 1082.88 387.23 981.30 479.62 978.74 606.12 1092.25 579.70
00002878 00000081 882.74 145.52 408.21 575.73 936.17 417.30 1081.03 386.19 979.75 478.35 978.42 604.17 1091.39 577.79
00002879 00000082 884.00 140.72 408.64 574.37 935.32 415.41 1081.75 385.16 979.50 477.70 976.91 600.28 1089.97 574.61
00002880 00000083 885.39 142.62 408.86 563.61 935.81 411.78 1085.51 384.29 982.12 475.07 976.04 590.77 1093.95 567.32
00002881 00000084 885.44 144.62 409.68 556.22 933.97 407.99 1086.34 380.77 981.76 473.51 973.51 586.94 1093.61 563.68
00002882 00000085 881.13 141.63 410.96 555.86 930.04 410.02 1082.16 378.59 979.80 473.03 973.01 585.73 1094.87 558.76
00002883 00000086 878.05 144.66 411.67 564.15 927.33 412.55 1077.49 375.90 973.38 471.30 972.61 593.37 1092.57 562.18
00002884 00000087 875.16 148.88 407.08 577.99 925.57 415.86 1070.22 378.08 967.12 474.26 971.43 605.85 1087.85 573.76
00002885 00000088 873.48 159.01 408.42 581.96 927.06 423.09 1072.28 385.63 968.43 482.55 970.84 616.82 1086.90 585.36
00002886 00000089 872.35 175.65 409.61 572.97 927.58 436.30 1070.15 406.03 965.52 499.62 979.90 620.64 1083.87 593.67
00002887 00000090 873.18 176.68 407.13 578.57 925.17 445.72 1065.81 416.43 962.14 512.19 977.55 627.35 1083.80 601.09
00002888 00000091 868.11 180.54 408.67 573.31 921.54 447.54 1065.22 418.46 961.24 514.98 971.23 628.83 1081.82 602.85
00002889 00000092 865.78 176.70 410.07 574.54 920.28 447.71 1061.92 416.97 959.58 513.25 969.50 627.44 1078.24 600.02
00002890 00000093 865.93 174.25 409.09 570.85 919.91 445.31 1061.44 415.47 956.77 510.45 966.34 623.67 1073.93 597.38
00002891 00000094 863.27 166.48 411.24 572.08 919.23 439.60 1065.03 411.90 958.33 509.00 963.98 620.73 1075.60 596.40
00002892 00000095 863.95 168.04 413.76 564.27 919.43 437.04 1066.57 409.60 961.24 506.43 963.24 617.67 1075.62 593.87
00002893 00000096 865.56 172.01 412.66 558.66 920.13 436.41 1069.01 408.37 962.77 504.72 964.32 616.51 1078.03 592.33
00002894 00000097 866.05 171.09 411.84 557.46 920.73 435.80 1069.50 407.35 963.07 503.85 963.76 614.64 1079.44 590.22
00002895 00000098 866.13 166.64 411.73 556.04 918.98 430.88 1068.95 403.31 959.21 501.25 959.92 610.87 1080.90 587.36
00002896 00000099 868.89 162.74 410.90 555.94 915.50 421.39 1066.06 390.86 961.82 488.49 956.99 607.35 1079.03 581.17
00002897 00000100 871.70 158.61 410.30 557.24 916.93 416.63 1066.26 385.54 960.72 482.44 957.35 602.36 1079.80 575.77
00002898 00000101 875.02 152.56 409.64 559.27 920.43 412.31 1068.68 380.11 961.69 477.29 959.46 597.51 1080.92 570.09
00002899 00000102 878.00 148.51 412.50 561.37 924.28 409.94 1073.83 376.73 964.96 471.22 962.84 594.52 1083.07 566.25
00002900 00000103 881.12 146.47 411.80 564.90 927.27 407.32 1075.87 375.16 966.08 469.93 965.13 592.48 1084.68 564.96
00002901 00000104 884.77 144.03 408.74 569.28 932.81 406.51 1078.62 377.53 970.72 470.06 969.70 593.22 1084.46 568.30
00002902 00000105 889.00 147.38 407.83 565.87 936.18 405.89 1082.45 379.21 973.19 471.59 971.52 594.44 1082.61 571.50
00002903 00000106 892.30 149.84 407.67 566.17 939.31 403.36 1085.33 380.07 973.84 470.98 971.12 593.74 1081.76 573.63
00002904 00000107 894.50 142.64 408.07 574.91 941.36 401.22 1087.75 378.93 974.80 469.44 972.01 593.18 1082.87 574.20
00002905 00000108 896.53 145.02 406.26 573.20 942.75 402.15 1090.38 379.68 975.15 468.88 972.81 593.86 1084.96 574.77
00002906 00000109 898.68 146.88 406.08 571.82 943.37 401.71 1090.84 380.21 974.80 471.33 972.93 594.41 1084.74 576.30
00002907 00000110 898.93 146.78 406.14 574.51 944.15 404.06 1091.10 381.91 974.86 472.60 973.69 596.76 1085.21 578.18
00002908 00000111 898.37 146.64 406.94 577.20 943.09 405.32 1090.57 382.56 974.32 474.16 974.01 598.81 1086.35 579.62
00002909 00000112 896.57 147.97 407.64 577.48 943.03 406.11 1090.43 384.30 975.46 474.82 973.96 599.91 1086.56 581.40
00002910 00000113 895.68 151.73 404.49 571.44 942.31 406.93 1089.06 384.62 976.70 475.91 974.08 600.48 1085.86 581.39
00002911 00000114 895.42 148.50 404.10 573.98 942.10 406.55 1087.70 385.41 976.25 476.49 973.06 599.71 1084.16 581.56
00002912 00000115 893.99 148.19 406.68 573.96 940.99 407.56 1086.51 385.31 976.48 478.34 973.97 600.72 1085.23 581.61
00002913 00000116 893.46 151.10 405.94 568.79 940.56 407.67 1088.07 386.25 977.94 479.68 974.08 600.23 1087.10 581.65
00002914 00000117 893.70 153.52 405.09 563.23 939.89 406.65 1088.63 386.16 977.27 479.94 971.72 598.52 1084.53 580.68
00002915 00000118 892.65 150.08 405.97 567.44 939.36 406.71 1087.69 387.00 975.39 479.33 970.68 600.10 1081.02 582.91
00002916 00000119 885.96 148.64 405.61 575.33 938.19 403.10 1084.27 384.26 970.97 473.07 968.44 601.53 1072.42 584.91
00002917 00000120 886.20 146.68 402.01 574.76 933.04 396.76 1075.42 381.88 953.89 468.80 952.97 597.40 1055.52 584.06
00002918 00000121 892.52 144.50 389.40 575.02 930.19 396.67 1068.98 385.80 941.30 470.90 944.29 598.94 1041.63 589.35
00002919 DELETE   882.86 161.55 402.82 577.54 928.55 410.55 1074.48 403.88 946.32 492.42 946.54 612.63 1044.87 606.85
00002920 DELETE   883.62 184.76 409.26 573.42 937.38 429.55 1083.54 420.81 966.00 511.63 961.64 631.41 1061.34 623.44
00002921 00000124 895.80 184.51 403.32 585.82 947.21 432.47 1101.67 425.89 983.34 519.05 974.82 636.87 1080.68 630.75
00002922 00000125 900.03 178.57 404.29 594.34 950.85 425.99 1106.70 420.93 983.51 514.46 975.77 634.52 1082.96 630.07
00002923 00000126 903.07 185.52 400.89 585.12 951.75 423.74 1108.13 418.49 982.01 510.74 973.77 631.12 1082.92 626.51
00002924 00000127 908.30 176.29 399.00 580.03 955.20 421.39 1110.96 417.92 985.26 509.56 975.32 621.52 1090.91 618.47
00002925 00000128 912.53 166.83 402.34 577.41 956.91 417.20 1114.39 413.72 991.07 506.40 978.03 614.96 1099.87 611.68
00002926 00000129 917.03 154.30 401.98 588.15 962.83 415.53 1119.51 407.81 997.89 496.27 980.46 611.32 1098.52 605.20
00002927 00000130 921.26 143.54 399.19 590.08 963.30 406.85 1120.90 397.98 992.70 486.03 975.95 604.12 1090.22 597.71
00002928 00000131 922.32 144.38 399.86 573.07 967.97 392.73 1120.24 387.74 988.77 472.98 970.95 587.87 1082.41 585.33
00002929 00000132 925.63 133.58 395.52 571.14 977.93 380.05 1120.85 381.65 986.49 453.37 970.41 578.26 1074.96 581.40
00002930 00000133 933.31 130.84 388.91 557.35 968.56 375.88 1119.23 375.58 990.03 448.67 964.62 569.93 1070.72 569.94
CROP_BBOX: 634 0 1721 982
