Video ID: 	mXphvXvnkzw
H: 	1080
W: 	1920
FPS: 	25.0

FRAME INDEX X0 Y0 W H [Landmarks (5 Points)]

00000803 00000000 884.11 124.39 367.71 545.43 928.64 324.02 1077.74 351.48 934.76 438.45 922.29 517.03 1054.45 539.83
00000804 DELETE   879.58 112.50 363.53 557.26 932.52 314.35 1089.88 349.22 935.44 428.95 918.52 514.50 1055.96 542.90
00000805 DELETE   878.78 114.85 364.05 553.45 931.38 313.20 1088.05 348.36 934.97 430.14 918.18 512.99 1055.92 541.67
00000806 00000003 877.95 117.32 367.04 552.79 928.25 313.20 1087.36 348.80 935.68 435.80 917.46 514.75 1057.56 543.84
00000807 00000004 874.38 122.87 366.35 549.46 923.69 318.55 1082.94 351.44 930.16 439.88 916.32 520.09 1059.62 546.49
00000808 00000005 871.16 123.68 367.87 552.30 921.95 318.79 1079.44 357.79 925.33 447.39 915.55 517.79 1061.97 548.61
00000809 00000006 865.31 125.27 367.61 552.80 916.89 320.83 1074.83 356.63 921.54 450.46 914.66 519.55 1062.77 547.57
00000810 00000007 862.66 124.30 369.44 551.72 914.06 321.15 1068.98 353.74 917.33 446.24 913.98 517.75 1060.23 543.11
00000811 00000008 862.16 121.36 368.60 552.45 914.36 320.20 1067.81 350.53 919.12 439.86 913.56 513.55 1059.86 537.20
00000812 00000009 862.14 121.25 365.63 548.68 914.45 318.15 1067.92 347.40 919.94 436.18 911.74 510.80 1055.93 533.84
00000813 00000010 864.11 120.31 364.20 549.52 916.36 318.81 1069.60 345.87 922.01 435.26 913.29 513.75 1054.86 535.27
00000814 00000011 865.08 122.92 365.30 548.26 916.54 320.93 1070.88 347.47 923.44 438.02 914.35 516.48 1056.13 537.67
00000815 00000012 866.95 123.24 365.51 549.38 918.47 321.29 1071.27 350.16 923.75 440.87 916.44 515.77 1057.26 538.69
00000816 00000013 867.29 126.66 366.47 547.46 920.03 319.57 1074.86 351.72 926.45 444.10 917.84 515.80 1058.84 541.40
00000817 00000014 867.15 127.80 368.10 545.18 918.93 320.89 1074.23 352.36 925.82 445.38 917.10 516.01 1059.17 541.12
00000818 00000015 867.87 128.33 367.77 545.06 920.50 320.03 1076.72 352.34 927.29 446.91 918.14 516.77 1062.71 542.51
00000819 00000016 868.31 129.87 368.88 545.15 921.42 320.05 1079.94 353.93 929.10 447.95 918.76 517.83 1064.84 544.81
00000820 00000017 868.69 130.51 366.45 545.18 922.77 319.90 1081.82 355.99 931.18 449.91 919.60 518.11 1065.37 546.78
00000821 00000018 869.18 131.82 367.87 544.83 923.73 319.35 1084.82 357.03 933.15 451.98 920.64 518.46 1068.49 548.46
00000822 00000019 869.78 130.23 365.04 546.99 924.54 322.91 1084.67 358.22 935.03 452.80 921.91 520.84 1068.26 548.94
00000823 00000020 869.78 130.48 366.27 546.08 924.45 323.90 1083.42 360.38 935.15 455.06 922.34 520.40 1068.94 549.24
00000824 00000021 869.56 131.66 367.27 545.34 924.90 326.94 1083.65 363.76 936.09 456.15 922.28 520.25 1069.36 549.28
00000825 00000022 869.32 136.76 364.63 541.99 924.07 329.22 1082.95 365.22 935.23 457.73 922.06 522.82 1068.97 551.09
00000826 00000023 867.89 137.78 364.84 541.81 921.22 331.31 1080.41 365.01 934.35 459.06 921.36 525.33 1066.08 551.84
00000827 00000024 864.79 134.78 365.30 545.71 917.95 333.57 1076.98 364.40 931.66 459.88 919.42 527.71 1064.04 551.92
00000828 00000025 863.22 139.09 363.79 541.18 914.79 336.09 1072.40 365.35 928.40 460.38 918.19 530.18 1060.52 552.86
00000829 00000026 860.93 142.29 360.92 539.09 911.22 337.86 1066.72 365.87 922.95 460.63 915.45 531.87 1054.62 553.37
00000830 DELETE   859.60 142.59 358.96 537.74 907.67 341.24 1058.52 368.14 915.90 459.30 912.64 531.77 1049.15 552.05
00000831 00000028 857.73 147.00 356.94 532.05 904.98 343.21 1051.12 369.05 911.13 457.97 910.91 531.36 1043.73 550.37
00000832 00000029 854.42 150.18 353.48 528.18 901.38 342.54 1045.67 370.42 905.99 458.30 906.43 527.61 1038.19 548.29
00000833 00000030 854.00 147.93 347.98 526.54 900.13 341.84 1042.13 371.11 901.39 454.67 904.34 526.67 1031.97 548.22
00000834 00000031 854.01 143.80 346.20 528.39 899.22 340.75 1039.25 369.43 899.15 451.98 903.51 525.23 1030.10 546.05
00000835 00000032 850.86 145.08 347.96 527.07 896.90 339.07 1038.15 367.60 898.15 450.11 899.85 521.94 1027.81 542.70
00000836 00000033 850.30 143.87 348.66 527.40 895.95 338.22 1036.66 366.67 897.29 450.32 899.81 521.39 1026.90 542.15
00000837 00000034 849.69 146.26 347.89 524.60 894.02 338.38 1034.00 365.41 895.83 449.02 899.46 522.13 1023.68 541.82
00000838 00000035 848.15 144.55 347.94 526.22 890.86 340.98 1029.26 366.39 891.22 449.95 898.82 523.60 1021.05 541.78
00000839 00000036 845.50 149.06 349.14 521.80 886.98 338.01 1025.61 364.85 887.20 451.06 895.93 523.50 1017.94 542.67
00000840 00000037 845.29 151.44 344.20 520.13 885.81 339.82 1022.28 365.10 885.72 449.71 896.71 524.56 1015.85 542.32
00000841 00000038 842.23 151.20 348.71 519.98 884.22 340.37 1020.88 366.23 883.05 450.31 894.78 524.98 1014.83 543.26
00000842 00000039 840.06 151.68 350.68 519.37 882.76 340.53 1018.88 365.88 881.73 451.08 893.64 524.73 1014.44 542.55
00000843 00000040 840.45 150.32 349.14 519.91 882.46 339.92 1019.26 364.95 880.85 449.79 893.72 524.58 1014.81 542.08
00000844 00000041 840.12 151.50 348.67 518.62 882.60 339.99 1018.71 363.84 881.33 449.17 893.97 524.23 1014.37 540.70
00000845 00000042 841.89 153.32 347.64 515.68 883.79 335.70 1019.95 360.79 882.50 448.04 894.96 521.85 1014.79 539.31
00000846 00000043 841.53 153.05 348.45 514.65 884.46 334.41 1021.56 357.70 885.10 446.31 896.11 521.12 1016.50 537.01
00000847 00000044 848.59 148.14 344.23 519.23 883.43 335.85 1018.95 357.55 881.36 451.54 902.15 519.77 1025.55 535.10
00000848 00000045 842.15 146.11 350.29 521.08 886.99 329.46 1023.49 355.12 885.96 445.71 897.22 515.49 1022.98 533.36
00000849 00000046 842.07 144.10 351.97 521.41 886.18 330.33 1023.49 352.78 888.27 441.80 895.39 515.26 1021.06 530.92
00000850 00000047 849.09 140.49 342.86 524.09 885.56 334.09 1021.93 355.08 882.43 446.72 901.72 516.62 1027.20 531.42
00000851 00000048 848.07 135.18 344.65 526.63 884.18 334.30 1025.60 351.38 886.81 442.71 899.63 517.87 1027.56 530.53
00000852 00000049 849.38 133.72 343.39 527.79 886.27 333.17 1027.91 350.74 887.34 440.05 899.40 516.81 1027.23 529.88
00000853 00000050 847.96 137.22 346.84 523.37 885.84 331.04 1027.73 349.43 888.05 439.38 899.56 514.82 1028.42 528.45
00000854 00000051 847.18 135.00 347.76 525.78 883.89 331.16 1027.20 348.42 887.71 439.35 898.50 516.09 1027.83 528.93
00000855 00000052 846.29 131.55 349.38 530.08 884.04 331.78 1028.49 348.66 888.34 439.45 897.99 516.51 1027.97 528.94
00000856 00000053 845.84 132.45 349.79 529.48 884.08 332.40 1028.68 349.41 888.36 439.16 897.58 516.12 1027.87 528.57
00000857 00000054 845.58 131.08 349.80 531.68 882.01 331.49 1028.16 348.53 886.37 440.08 896.63 517.72 1027.47 530.19
00000858 00000055 844.12 135.92 346.98 528.69 882.17 332.86 1026.96 352.51 887.91 444.91 897.00 516.42 1028.97 530.70
00000859 00000056 842.03 135.87 349.27 531.89 880.43 333.78 1023.99 353.79 885.91 447.95 897.09 517.66 1027.65 531.86
00000860 00000057 839.31 139.61 350.10 529.41 877.92 332.25 1020.57 352.62 883.42 449.35 896.76 519.31 1025.01 533.80
00000861 00000058 838.73 135.52 351.24 533.33 876.20 333.84 1019.61 352.26 881.22 448.33 895.89 520.11 1023.91 533.11
00000862 00000059 839.21 134.77 351.09 534.71 877.56 334.98 1019.13 353.06 880.98 449.52 897.32 520.54 1024.80 533.02
00000863 00000060 839.75 137.17 351.08 532.70 877.99 334.85 1018.71 353.65 879.89 449.91 898.05 519.79 1025.58 532.58
00000864 00000061 836.40 149.59 359.28 512.82 873.17 342.29 1014.46 351.41 884.46 448.66 891.13 522.32 1020.38 529.54
00000865 00000062 836.02 151.41 359.02 513.07 873.87 345.18 1016.73 354.04 886.49 449.25 890.05 524.43 1020.84 531.62
00000866 00000063 835.81 154.00 359.27 513.98 875.08 348.18 1017.61 356.36 889.52 450.29 892.06 526.56 1021.75 533.47
00000867 00000064 838.35 153.25 357.44 514.33 878.33 349.47 1022.27 357.68 894.35 451.79 894.28 527.47 1025.24 534.34
00000868 00000065 843.85 156.12 351.57 512.87 882.65 353.15 1025.06 356.75 899.68 451.43 899.11 532.53 1028.54 535.72
00000869 00000066 844.78 149.34 352.38 528.42 893.36 339.72 1037.37 362.62 896.79 449.44 903.02 527.58 1031.13 543.93
00000870 00000067 848.99 149.83 351.01 527.28 896.08 339.96 1040.98 361.93 901.58 449.38 906.23 530.20 1034.41 545.94
00000871 00000068 852.01 151.91 352.10 524.51 899.56 340.23 1045.76 361.12 908.04 449.41 909.48 529.23 1039.94 544.25
00000872 00000069 854.94 151.82 356.50 523.62 901.84 340.49 1050.11 358.34 911.69 447.20 913.36 531.44 1044.48 544.27
00000873 00000070 857.65 145.60 360.17 530.73 904.54 337.53 1054.88 356.30 913.50 449.07 916.62 531.39 1051.05 545.14
00000874 00000071 864.34 144.11 359.39 530.95 911.34 334.99 1063.89 355.49 920.62 451.87 922.57 531.04 1059.47 546.24
00000875 00000072 871.60 145.11 356.84 530.11 918.01 336.41 1073.68 355.29 928.69 451.13 927.87 533.14 1065.04 547.15
00000876 00000073 877.52 146.99 357.21 527.67 922.75 337.29 1077.29 355.90 933.80 450.17 933.88 533.04 1068.23 546.49
00000877 00000074 882.33 156.79 357.21 515.41 924.66 348.92 1070.20 355.72 942.29 448.42 936.26 530.40 1070.25 536.94
00000878 00000075 880.85 149.50 354.96 524.90 927.17 339.22 1080.95 357.03 939.68 449.72 938.00 533.04 1072.36 545.72
00000879 00000076 883.85 150.81 355.40 522.50 930.06 339.22 1083.31 355.98 943.10 447.30 940.16 533.91 1072.52 545.67
00000880 00000077 888.73 157.46 352.32 511.24 927.75 348.66 1072.51 353.57 946.16 446.23 939.46 531.42 1071.86 537.00
00000881 00000078 891.89 158.12 351.62 509.21 929.90 349.84 1073.99 355.26 948.22 446.02 940.29 528.75 1074.42 534.82
00000882 00000079 892.50 156.78 352.63 510.41 931.41 349.66 1076.93 355.09 952.07 445.67 941.90 527.60 1076.75 533.53
00000883 00000080 895.53 156.12 351.47 508.42 933.29 351.57 1077.07 355.60 952.73 444.76 946.16 527.90 1079.57 532.46
00000884 00000081 900.76 158.10 349.20 503.00 936.18 351.39 1076.24 354.42 951.77 444.38 949.93 527.45 1080.90 531.09
00000885 00000082 902.52 161.57 350.29 497.29 937.93 352.54 1077.77 354.46 954.12 443.94 952.05 526.85 1083.09 529.49
00000886 00000083 905.32 154.57 347.45 503.81 948.67 344.71 1091.41 353.81 961.27 441.31 961.76 528.05 1089.07 532.47
00000887 00000084 908.55 151.38 345.35 506.25 950.80 343.88 1092.58 352.34 962.15 440.99 964.42 528.67 1091.28 532.60
00000888 00000085 911.36 154.20 344.53 504.17 953.60 343.94 1094.06 352.07 963.92 441.67 967.20 529.92 1093.12 533.61
00000889 00000086 914.16 156.51 343.48 508.16 959.12 341.04 1094.14 356.92 962.84 443.34 970.38 524.84 1088.66 535.67
00000890 00000087 915.33 158.55 344.09 508.49 960.68 341.62 1097.88 358.27 964.69 446.29 971.54 526.46 1092.65 537.83
00000891 00000088 916.86 159.15 343.64 508.87 961.78 340.96 1100.54 359.41 966.13 447.76 971.85 528.03 1093.53 540.83
00000892 00000089 920.01 160.15 340.22 509.53 964.15 342.65 1104.22 361.77 968.93 449.48 973.12 530.21 1096.19 543.64
00000893 00000090 922.06 162.18 341.50 509.43 966.66 345.01 1106.31 362.86 972.27 449.23 977.01 532.27 1097.49 544.92
00000894 00000091 924.67 160.64 342.81 511.18 968.61 346.22 1109.15 364.43 975.51 450.22 978.75 532.65 1100.81 545.50
00000895 00000092 925.58 159.89 344.14 513.37 970.57 347.12 1111.11 365.25 977.74 452.03 981.19 532.88 1103.91 545.68
00000896 00000093 926.32 166.32 342.99 507.28 971.99 346.31 1112.40 365.17 978.86 451.69 981.22 531.89 1105.38 545.05
00000897 00000094 926.37 167.70 345.03 506.72 971.45 346.48 1113.59 364.48 980.27 452.99 981.50 533.12 1107.24 545.68
00000898 00000095 928.29 170.10 344.59 503.97 973.12 347.46 1115.52 363.96 982.21 451.46 983.28 533.53 1109.56 544.87
00000899 00000096 929.10 169.56 347.99 504.53 974.50 348.54 1118.40 362.25 985.29 450.14 984.97 535.41 1111.90 544.78
00000900 00000097 930.43 169.38 350.35 505.30 976.54 348.50 1121.65 362.96 988.45 451.51 985.65 535.27 1114.08 545.36
00000901 00000098 929.87 163.57 353.52 512.67 977.34 348.49 1124.54 364.09 989.65 452.99 986.49 535.47 1117.09 546.54
00000902 00000099 932.21 164.55 351.46 513.66 979.51 348.12 1128.28 364.23 992.46 455.28 987.58 537.01 1118.19 548.59
00000903 00000100 933.67 162.58 352.44 516.44 979.89 349.13 1133.13 364.12 996.47 456.89 987.81 539.89 1122.29 550.75
00000904 00000101 934.92 161.98 355.00 517.57 981.51 348.63 1137.77 363.92 999.22 457.87 988.70 540.13 1125.48 551.36
00000905 00000102 936.40 161.74 356.85 516.77 982.74 347.90 1141.11 362.75 1001.31 456.74 990.39 539.72 1129.37 550.60
00000906 00000103 937.39 157.74 355.39 519.26 986.95 347.01 1144.87 362.86 1006.19 456.55 993.40 537.30 1133.85 549.15
00000907 00000104 938.67 159.05 355.53 517.03 989.58 347.64 1147.07 363.86 1008.95 456.27 996.00 536.08 1137.07 548.09
00000908 00000105 940.99 158.01 355.61 519.20 992.41 346.98 1149.28 365.02 1010.03 456.27 998.11 535.09 1139.23 548.40
00000909 00000106 942.56 157.64 355.73 519.87 995.00 345.93 1151.29 365.48 1011.34 455.95 999.49 533.57 1141.04 548.04
00000910 00000107 944.29 159.29 354.19 518.50 997.05 346.91 1153.93 365.84 1014.44 456.54 1001.29 534.24 1143.91 548.16
00000911 00000108 945.79 157.32 355.80 521.10 998.10 346.86 1154.83 365.77 1016.28 457.10 1003.66 534.22 1146.03 548.04
00000912 00000109 945.90 158.61 355.19 519.90 998.60 347.37 1155.26 366.76 1017.09 457.89 1003.93 534.06 1146.48 548.24
00000913 00000110 945.48 158.07 355.08 520.19 998.68 346.49 1155.09 366.22 1016.62 457.75 1004.05 533.40 1146.75 547.82
00000914 00000111 945.67 153.53 358.39 519.87 998.59 340.93 1155.71 362.34 1014.38 452.47 1001.93 528.97 1146.44 544.85
00000915 DELETE   944.29 144.32 364.29 515.54 996.82 332.05 1149.49 352.05 1008.38 438.49 993.93 515.62 1139.17 530.59
00000916 DELETE   944.73 137.69 363.74 510.18 993.13 325.39 1145.59 333.53 1005.89 417.83 993.66 509.75 1135.77 515.54
00000917 00000114 946.55 130.32 366.43 512.61 992.18 318.74 1145.97 325.35 1004.81 409.86 994.97 506.53 1137.64 511.12
00000918 00000115 946.52 131.07 364.92 516.03 995.00 320.52 1147.04 327.72 1007.69 412.24 997.96 507.39 1139.59 512.30
00000919 00000116 946.15 134.34 366.08 520.42 995.70 324.58 1147.95 333.73 1008.01 422.04 998.35 513.81 1139.67 520.26
00000920 00000117 944.06 143.25 360.42 524.21 993.93 330.67 1146.06 345.89 1004.81 436.44 999.47 521.45 1141.05 532.54
00000921 00000118 942.21 143.25 359.91 535.88 993.40 335.70 1144.92 353.48 1000.33 443.77 998.62 527.32 1138.30 540.45
00000922 00000119 939.56 147.30 355.07 537.20 991.39 338.72 1142.48 355.25 996.52 444.31 996.00 531.20 1134.46 543.28
00000923 00000120 937.59 149.10 352.95 535.14 988.66 338.45 1135.47 354.12 991.84 440.03 992.11 529.88 1126.66 540.97
00000924 00000121 935.56 150.33 351.34 529.82 983.74 337.88 1129.70 351.99 987.84 437.21 987.23 528.68 1120.78 538.71
00000925 00000122 935.22 151.07 349.98 525.20 983.27 336.45 1126.87 352.01 986.99 436.42 985.85 526.63 1118.27 537.78
00000926 00000123 933.45 152.33 351.67 521.58 981.21 336.98 1125.96 353.48 986.01 439.78 983.53 526.78 1118.06 538.73
00000927 00000124 931.83 151.10 352.56 522.26 980.02 338.31 1126.18 354.93 986.62 441.63 982.72 526.76 1118.78 538.80
00000928 00000125 931.49 153.21 350.51 524.32 980.66 341.58 1126.75 356.73 988.24 441.15 984.29 530.43 1115.88 541.18
00000929 00000126 930.08 151.08 351.10 533.88 980.41 347.04 1130.23 362.80 989.49 442.39 984.40 535.04 1114.88 546.22
00000930 00000127 931.36 151.24 350.70 537.39 977.96 353.08 1133.40 366.97 991.90 443.99 982.38 541.68 1111.04 552.08
00000931 00000128 932.30 152.09 353.43 537.71 976.91 354.87 1137.40 368.78 1001.78 448.12 978.94 549.81 1106.71 560.91
00000932 00000129 930.36 148.05 358.25 543.48 976.90 353.24 1139.88 367.83 1005.49 452.14 978.79 551.56 1109.15 563.28
00000933 DELETE   930.49 151.81 358.57 545.15 977.96 355.81 1142.37 368.02 1009.68 454.56 981.81 555.17 1112.47 565.24
00000934 00000131 936.14 149.01 361.16 543.41 986.21 361.95 1145.34 370.38 1019.87 458.39 992.06 559.32 1119.25 566.79
00000935 00000132 938.66 151.48 359.55 542.88 987.83 362.99 1149.41 372.62 1023.46 464.45 993.85 562.52 1125.95 570.35
00000936 00000133 934.43 160.62 358.50 541.78 989.30 367.41 1149.67 377.18 1026.87 468.03 992.48 563.81 1128.88 572.57
00000937 00000134 934.99 162.53 356.92 549.68 989.41 371.11 1150.59 380.37 1027.62 472.30 995.16 573.08 1129.82 581.64
00000938 00000135 936.17 164.86 355.99 551.68 990.10 372.33 1154.96 383.91 1028.84 474.52 996.18 572.39 1137.84 582.41
00000939 00000136 935.08 163.15 358.12 559.19 989.49 372.62 1157.30 384.49 1030.39 476.61 997.63 573.69 1142.78 583.79
00000940 00000137 933.76 163.19 358.53 558.66 989.22 372.77 1157.73 384.86 1031.32 477.55 996.81 574.24 1141.81 584.54
00000941 00000138 933.60 160.29 356.57 558.81 990.37 373.26 1157.49 386.00 1032.80 475.61 995.35 573.80 1138.04 584.67
00000942 00000139 931.60 157.24 358.55 559.34 990.49 371.54 1156.94 384.44 1033.76 472.13 992.47 570.89 1134.30 582.00
00000943 00000140 931.23 148.32 364.03 566.36 988.29 366.82 1156.54 379.17 1028.41 472.83 991.61 563.97 1133.29 575.44
00000944 00000141 929.39 145.91 366.29 564.47 987.72 365.89 1159.70 378.61 1029.72 472.64 990.07 561.78 1135.79 573.25
00000945 00000142 928.74 140.98 367.87 566.05 989.32 367.65 1162.95 379.64 1034.75 471.95 991.34 561.12 1137.69 572.03
00000946 00000143 929.48 142.07 373.82 566.15 995.27 368.82 1173.68 383.07 1044.57 472.77 993.39 560.84 1143.96 573.74
00000947 00000144 931.64 143.00 376.65 566.63 999.25 371.09 1180.83 386.12 1050.93 474.95 995.77 562.92 1148.78 576.44
00000948 00000145 930.68 144.88 376.16 567.68 1004.63 373.46 1183.69 388.88 1064.15 474.78 1000.80 566.43 1153.77 579.71
00000949 00000146 931.04 145.04 378.67 567.46 1007.83 370.97 1188.81 387.71 1070.34 476.99 1004.17 566.59 1158.29 580.94
00000950 00000147 933.09 145.66 380.61 568.98 1010.37 370.63 1194.46 387.59 1074.86 476.82 1006.99 566.96 1163.92 581.57
00000951 00000148 933.68 147.50 382.45 569.04 1012.41 369.63 1197.70 386.72 1079.45 477.68 1010.13 567.67 1167.95 582.39
00000952 00000149 933.27 146.84 384.01 571.49 1013.47 368.07 1199.51 385.77 1082.56 477.51 1011.04 568.50 1169.49 583.68
00000953 00000150 933.48 145.36 384.27 573.14 1014.52 367.45 1199.74 385.72 1083.38 478.24 1012.89 569.69 1167.44 585.45
00000954 00000151 934.19 143.33 384.40 569.98 1014.39 366.97 1200.48 385.78 1082.49 478.55 1011.93 568.11 1167.53 584.27
00000955 00000152 934.64 142.36 384.59 568.12 1015.10 366.49 1200.84 385.95 1082.63 478.08 1011.25 565.60 1168.13 582.35
00000956 00000153 935.28 143.04 384.60 570.25 1015.53 366.28 1202.25 386.22 1082.64 479.97 1011.96 568.02 1168.38 585.08
00000957 00000154 936.72 143.72 384.45 577.25 1016.69 367.45 1202.33 386.48 1083.69 482.30 1014.95 575.45 1164.33 592.01
00000958 00000155 937.71 144.51 382.69 579.28 1017.79 369.31 1201.00 385.86 1084.44 482.10 1018.70 580.83 1160.36 595.59
00000959 00000156 938.43 143.02 381.51 580.44 1017.28 369.86 1200.84 384.85 1084.61 482.01 1019.72 582.39 1159.95 595.84
00000960 00000157 938.75 141.42 384.11 581.81 1017.73 369.54 1202.42 385.43 1084.06 481.43 1019.11 582.10 1160.19 596.32
00000961 00000158 939.04 141.65 384.46 581.47 1018.70 365.47 1205.61 384.05 1084.28 480.25 1016.83 577.05 1164.28 593.32
00000962 00000159 938.59 141.25 385.37 580.51 1017.67 364.24 1205.37 382.24 1083.42 479.92 1017.13 576.28 1165.53 591.88
00000963 00000160 938.77 141.59 384.15 579.77 1017.35 364.51 1205.16 382.07 1083.11 480.39 1017.32 576.26 1166.48 591.48
00000964 00000161 938.97 141.05 383.76 580.45 1017.17 365.93 1204.00 383.87 1082.24 481.30 1016.29 576.50 1167.01 592.03
00000965 00000162 938.03 142.68 384.45 578.60 1015.87 367.93 1202.98 385.87 1080.90 482.15 1014.45 576.23 1166.66 591.85
00000966 00000163 938.67 143.72 382.52 577.24 1015.57 368.65 1202.03 386.30 1080.00 482.44 1014.77 576.67 1165.92 592.08
00000967 00000164 938.40 144.08 383.34 575.92 1015.51 368.36 1201.81 386.13 1079.73 481.97 1014.40 575.69 1165.34 591.27
00000968 00000165 939.14 144.49 382.89 575.40 1015.74 368.52 1201.73 386.42 1079.65 481.51 1014.84 574.95 1165.82 590.65
00000969 00000166 939.13 145.44 382.10 574.36 1015.75 368.78 1200.62 386.70 1079.59 481.29 1014.62 574.86 1164.53 590.65
