Video ID: 	QsPvvdW9zZg
H: 	1080
W: 	1920
FPS: 	23.976023976023978

FRAME INDEX X0 Y0 W H [Landmarks (5 Points)]

00028066 00000000 839.89 117.18 489.03 695.56 928.71 409.02 1111.84 354.08 1008.60 497.79 1003.80 645.00 1154.43 597.33
00028067 DELETE   856.37 104.55 483.85 711.46 941.64 405.03 1129.75 346.32 1020.92 491.43 1013.47 636.25 1179.40 584.42
00028068 00000002 873.33 101.95 479.17 710.72 959.99 397.81 1147.21 345.05 1041.30 491.28 1027.13 632.21 1196.67 585.23
00028069 00000003 883.76 92.55 474.00 710.78 961.16 395.26 1154.91 344.88 1042.21 495.59 1023.98 629.53 1190.09 586.13
00028070 00000004 890.55 88.47 467.11 711.51 963.51 392.19 1155.97 345.74 1037.62 493.48 1021.47 629.21 1185.11 589.21
00028071 00000005 898.21 90.30 466.04 713.85 972.01 387.67 1163.60 342.71 1044.80 487.35 1026.06 624.88 1191.14 586.24
00028072 00000006 898.63 89.19 469.91 722.67 977.11 384.01 1168.78 339.93 1050.95 483.34 1032.42 625.35 1199.44 587.04
00028073 00000007 898.81 86.70 467.92 726.67 975.17 382.37 1165.32 339.84 1044.99 480.83 1025.81 621.75 1195.66 584.62
00028074 00000008 897.79 85.97 464.76 716.45 970.73 381.50 1161.62 341.44 1038.94 482.69 1018.37 618.56 1186.75 583.89
00028075 00000009 900.63 78.65 461.87 717.74 971.42 382.53 1165.74 344.55 1042.71 485.90 1019.63 621.15 1186.28 588.64
00028076 00000010 903.05 80.95 463.19 718.18 970.84 385.98 1166.55 347.64 1043.22 494.60 1022.14 625.54 1189.22 592.72
00028077 00000011 889.22 96.81 469.86 714.35 970.35 389.47 1159.76 353.92 1040.13 490.40 1022.97 630.98 1183.00 599.73
00028078 00000012 885.69 97.67 468.03 712.78 966.92 387.51 1155.80 356.22 1032.26 490.36 1014.58 629.67 1172.57 602.30
00028079 00000013 886.21 92.39 468.01 720.89 965.66 390.46 1154.99 356.58 1031.80 494.72 1015.72 634.40 1174.24 604.87
00028080 00000014 890.17 85.79 464.15 730.45 967.39 395.81 1153.86 360.65 1033.49 499.24 1016.90 638.16 1175.62 607.65
00028081 00000015 892.38 87.86 460.55 736.53 966.84 397.10 1151.26 363.36 1027.60 500.85 1013.03 640.41 1171.06 611.16
00028082 00000016 891.52 91.48 459.71 731.28 963.35 396.12 1150.54 365.79 1022.32 503.95 1006.61 641.50 1166.17 615.50
00028083 00000017 889.67 89.69 465.54 732.68 966.90 400.31 1156.01 370.33 1030.27 507.42 1011.92 643.21 1171.41 617.45
00028084 00000018 891.25 92.05 468.70 735.15 969.80 402.94 1159.56 371.43 1036.82 511.71 1016.78 645.92 1179.97 618.58
00028085 00000019 895.18 92.52 469.13 741.81 971.57 403.94 1159.20 372.03 1034.54 511.46 1017.11 647.05 1182.00 619.04
00028086 00000020 899.31 90.57 467.32 736.57 971.74 402.19 1162.15 374.15 1035.39 511.53 1014.48 642.02 1180.77 617.41
00028087 00000021 903.16 89.17 470.26 731.35 976.38 398.69 1173.38 376.23 1043.99 512.14 1017.01 637.05 1185.56 616.95
00028088 00000022 909.84 80.50 461.49 733.71 977.70 400.63 1179.71 376.82 1051.43 516.62 1014.32 641.57 1184.75 621.51
00028089 00000023 911.17 79.80 460.66 736.14 979.77 398.16 1181.07 375.57 1052.31 515.10 1015.44 641.75 1184.40 622.74
00028090 00000024 915.27 79.33 458.36 746.34 983.72 397.10 1185.14 374.10 1055.28 515.05 1019.35 645.93 1189.30 626.69
00028091 00000025 908.98 84.57 470.83 730.00 981.45 398.05 1194.83 374.30 1057.35 513.86 1024.55 645.27 1199.35 624.45
00028092 00000026 913.83 82.06 468.21 727.97 986.67 396.63 1199.35 374.22 1062.81 512.44 1027.52 642.16 1201.14 622.52
00028093 00000027 918.31 86.48 459.75 731.60 992.92 395.17 1197.29 374.17 1072.21 515.73 1030.07 643.97 1195.18 626.96
00028094 00000028 916.77 86.02 466.63 727.47 990.40 397.68 1199.51 379.56 1062.73 513.67 1028.51 644.34 1193.30 628.89
00028095 00000029 918.67 86.82 468.44 730.16 994.37 397.37 1203.02 379.19 1066.87 512.35 1033.68 646.92 1195.84 631.57
00028096 00000030 919.97 87.90 469.93 733.14 995.62 397.23 1206.20 378.84 1070.54 514.82 1035.75 653.02 1196.82 637.49
00028097 00000031 912.59 95.46 479.36 734.80 998.91 396.48 1200.81 377.19 1069.61 516.01 1032.61 648.26 1199.32 632.13
00028098 00000032 913.64 94.14 478.72 734.10 997.06 398.26 1201.25 383.08 1067.39 520.98 1027.40 646.39 1199.46 633.79
00028099 00000033 921.86 90.74 468.02 725.02 994.33 402.64 1205.22 390.02 1065.75 523.18 1028.95 647.60 1197.35 636.36
00028100 00000034 921.79 90.73 466.70 721.70 993.93 400.88 1204.79 389.84 1065.15 522.29 1026.06 642.15 1197.21 632.34
00028101 00000035 919.98 90.46 468.38 721.56 992.79 398.88 1204.00 387.70 1063.92 519.62 1024.57 641.32 1193.88 631.67
00028102 00000036 921.61 85.84 466.85 727.84 993.51 397.86 1203.81 386.25 1063.13 517.48 1025.17 642.52 1193.03 632.67
00028103 00000037 921.25 87.93 467.65 725.53 994.06 397.70 1206.56 385.63 1067.10 518.83 1027.04 644.02 1195.20 633.71
00028104 00000038 921.24 89.29 467.61 724.72 993.89 397.84 1207.51 385.90 1068.47 520.20 1026.66 645.69 1193.88 635.62
00028105 00000039 921.35 90.62 468.22 729.01 994.74 399.92 1208.97 388.76 1068.68 521.88 1027.07 648.92 1195.02 639.39
00028106 00000040 921.84 91.10 466.56 731.16 995.95 401.33 1208.60 391.64 1068.77 523.41 1027.19 649.96 1194.25 641.56
00028107 00000041 912.74 94.04 476.20 734.86 996.17 401.48 1204.51 389.03 1068.23 522.77 1023.47 648.10 1196.87 637.83
00028108 00000042 912.42 96.96 476.13 732.11 995.41 402.59 1203.15 390.00 1066.39 523.65 1022.87 647.51 1197.80 637.10
00028109 00000043 912.97 97.46 476.11 726.98 995.09 402.52 1203.17 390.80 1066.39 523.13 1022.01 645.10 1197.06 635.38
00028110 00000044 920.61 91.39 465.99 725.95 992.93 403.96 1205.39 392.33 1064.21 523.72 1024.07 644.93 1197.10 634.59
00028111 00000045 922.24 88.88 464.89 725.59 993.36 400.72 1205.30 390.94 1063.19 521.35 1022.73 641.57 1195.25 632.97
00028112 00000046 921.12 89.16 466.34 722.84 992.60 399.53 1204.80 388.66 1063.00 519.72 1022.97 640.02 1195.98 630.47
00028113 00000047 921.41 89.51 466.94 722.89 993.30 399.14 1205.32 388.07 1063.58 519.75 1024.00 640.12 1196.73 630.48
00028114 00000048 921.27 91.25 468.46 725.63 994.26 400.13 1205.77 388.65 1064.17 520.92 1025.93 644.18 1195.45 634.36
00028115 00000049 920.91 90.30 468.90 731.53 994.27 404.02 1204.60 393.65 1063.30 522.45 1025.70 646.76 1195.93 637.52
00028116 00000050 914.83 94.99 478.19 733.05 999.49 404.10 1198.77 394.33 1061.94 521.52 1023.87 642.76 1196.52 634.38
00028117 00000051 914.92 99.69 477.95 727.42 1000.08 404.08 1201.01 393.72 1065.08 520.17 1025.07 641.15 1198.45 632.30
00028118 00000052 914.06 99.54 478.92 726.71 999.20 404.22 1201.33 392.04 1065.87 519.46 1025.23 641.74 1198.35 631.40
00028119 00000053 914.55 96.24 479.11 732.52 999.29 403.57 1201.61 392.89 1064.65 520.72 1024.32 643.36 1197.67 634.35
00028120 00000054 914.60 96.63 479.20 735.64 1000.61 402.93 1201.99 393.56 1066.17 523.71 1026.43 644.38 1199.23 636.50
00028121 00000055 914.25 96.69 479.24 736.67 1000.11 405.21 1201.91 393.89 1067.26 524.34 1027.63 646.04 1200.45 636.58
00028122 00000056 914.48 95.20 477.54 740.79 1000.59 402.63 1201.87 392.14 1066.11 522.52 1027.01 645.25 1200.83 636.44
00028123 00000057 913.33 96.25 476.35 741.76 999.18 401.89 1200.49 389.12 1064.41 521.01 1027.39 646.60 1201.79 635.80
00028124 00000058 913.17 96.83 475.80 741.97 998.68 399.98 1200.17 387.38 1063.68 520.48 1027.76 646.32 1202.84 635.54
00028125 00000059 913.37 94.67 475.50 744.85 998.66 400.00 1200.08 386.62 1063.24 520.40 1028.38 647.12 1203.74 635.67
00028126 00000060 912.59 95.56 474.33 747.41 997.46 402.43 1200.61 388.83 1062.53 523.01 1026.63 651.27 1203.92 639.50
00028127 00000061 911.71 96.38 475.28 749.24 996.38 404.41 1200.94 391.98 1061.34 525.83 1024.77 653.64 1203.83 642.82
00028128 00000062 911.73 95.13 474.86 749.08 995.50 404.64 1200.35 391.92 1060.61 525.74 1024.30 653.63 1203.27 642.55
00028129 00000063 910.73 94.53 475.18 748.16 994.31 403.53 1197.34 389.53 1059.03 525.23 1025.23 653.23 1202.40 640.99
00028130 00000064 911.63 94.44 474.28 749.37 993.65 402.73 1195.85 388.81 1056.95 525.07 1025.01 653.17 1201.59 641.07
00028131 00000065 911.84 92.68 474.76 751.32 993.92 402.68 1195.88 390.02 1055.94 526.19 1024.34 653.58 1200.87 642.51
00028132 00000066 911.58 91.28 476.09 751.41 993.60 402.47 1195.61 390.29 1055.17 526.51 1022.94 654.15 1197.77 643.70
00028133 00000067 911.80 89.17 474.98 742.05 991.54 401.88 1196.31 391.74 1055.17 525.59 1020.30 652.99 1189.07 644.56
00028134 00000068 921.51 82.31 458.47 753.17 991.99 401.46 1188.78 390.56 1057.26 530.85 1022.02 657.08 1180.09 648.76
00028135 00000069 917.08 84.83 464.26 745.15 990.21 399.90 1184.27 389.23 1053.78 523.39 1024.35 647.38 1177.86 638.68
00028136 00000070 912.97 85.12 467.88 754.59 988.87 403.21 1180.66 391.96 1050.05 524.49 1022.26 653.70 1173.94 644.46
00028137 00000071 910.52 87.21 467.47 752.33 986.54 406.70 1178.66 393.65 1048.61 528.16 1021.77 656.59 1174.36 646.12
00028138 00000072 908.97 89.15 466.13 741.90 983.42 407.23 1178.07 395.12 1048.38 529.60 1018.26 653.59 1172.31 644.03
00028139 00000073 907.67 87.60 465.05 736.43 981.22 405.14 1175.70 396.37 1045.50 528.64 1014.27 646.86 1168.52 640.33
00028140 00000074 907.47 89.27 463.73 734.66 978.52 404.85 1172.83 395.12 1042.26 528.20 1012.41 646.15 1166.27 639.00
00028141 00000075 907.15 88.38 463.66 739.09 977.36 405.20 1170.84 394.49 1040.50 528.16 1010.81 648.23 1164.75 640.57
00028142 00000076 904.92 90.34 461.82 734.48 974.49 406.42 1168.53 394.55 1038.61 528.92 1009.27 649.83 1162.72 641.03
00028143 00000077 902.77 92.47 460.49 729.29 973.17 406.71 1166.09 395.57 1036.54 529.87 1008.67 649.22 1160.40 640.77
00028144 00000078 902.93 90.44 460.21 728.89 972.93 407.14 1166.59 395.60 1037.07 529.75 1008.03 647.99 1160.59 639.37
00028145 00000079 903.98 90.72 463.47 727.92 974.91 406.88 1169.12 395.48 1039.45 529.95 1010.01 646.29 1162.95 637.67
00028146 00000080 907.46 88.75 461.96 729.36 976.88 406.23 1171.76 396.24 1041.83 531.03 1010.99 645.43 1165.92 637.71
00028147 00000081 909.26 84.85 465.33 740.25 982.16 404.40 1176.49 395.12 1045.23 528.75 1015.28 647.70 1168.45 640.40
00028148 00000082 912.26 85.43 466.99 742.52 987.84 402.99 1183.02 393.01 1051.01 525.88 1021.23 650.10 1172.24 641.73
00028149 00000083 920.36 88.32 458.61 744.84 994.03 403.89 1191.35 394.09 1059.99 533.16 1024.93 660.79 1179.07 653.57
00028150 00000084 917.38 91.73 471.29 732.13 994.66 403.25 1206.18 397.72 1064.70 531.26 1025.05 653.83 1187.26 649.10
00028151 00000085 909.13 99.94 484.87 727.96 1002.00 398.30 1212.93 387.73 1080.47 529.17 1032.94 646.79 1204.92 638.23
00028152 00000086 925.00 103.87 473.00 729.55 1017.70 395.33 1221.48 378.53 1094.49 520.52 1053.51 647.01 1220.31 633.27
00028153 00000087 922.30 102.94 476.64 734.84 1022.84 386.54 1224.14 368.91 1102.51 512.29 1062.26 646.44 1225.22 631.50
00028154 00000088 923.00 104.17 473.55 728.34 1021.63 381.85 1221.18 365.69 1099.08 505.66 1059.43 641.98 1218.92 628.33
00028155 00000089 923.72 98.79 472.31 725.94 1020.34 382.01 1220.54 365.68 1096.64 505.22 1058.32 640.87 1217.86 626.96
00028156 00000090 923.03 99.26 474.65 723.09 1024.08 382.02 1226.43 366.58 1105.93 505.42 1059.91 637.93 1220.64 624.94
00028157 00000091 928.56 91.08 469.06 728.83 1028.69 382.35 1232.54 365.57 1115.17 508.24 1070.41 639.45 1230.88 625.13
00028158 00000092 929.45 90.38 469.31 730.99 1030.61 384.22 1235.47 365.98 1119.40 507.32 1072.77 640.22 1234.98 624.75
00028159 00000093 932.57 94.88 466.07 726.13 1029.03 387.36 1232.82 372.17 1112.07 512.48 1066.17 639.72 1228.46 627.17
00028160 00000094 934.15 102.87 465.56 718.34 1029.03 388.62 1231.90 375.91 1109.43 514.98 1062.31 638.08 1225.95 627.89
00028161 00000095 936.06 102.18 465.27 721.79 1033.77 390.53 1236.00 378.30 1115.12 517.32 1066.29 638.82 1231.27 629.07
00028162 00000096 935.03 104.05 466.11 719.86 1034.09 396.04 1240.03 381.89 1122.20 522.23 1069.82 643.30 1237.40 631.70
00028163 00000097 931.87 103.36 470.37 722.63 1031.43 398.01 1237.25 385.13 1118.55 526.71 1066.28 646.39 1232.86 635.91
00028164 00000098 931.18 103.70 469.58 723.66 1027.19 398.55 1234.18 388.43 1113.39 531.38 1060.41 647.16 1227.73 639.20
00028165 00000099 931.86 108.84 469.04 722.23 1027.03 398.40 1232.96 385.53 1113.24 529.66 1062.86 649.49 1229.17 639.08
00028166 00000100 930.92 107.90 469.46 730.94 1029.28 397.60 1233.12 380.27 1114.46 523.40 1069.65 652.91 1230.90 638.46
00028167 00000101 928.72 106.39 471.68 735.31 1028.25 394.06 1230.46 377.47 1110.87 519.21 1069.72 654.54 1226.14 640.73
00028168 00000102 927.61 107.78 472.10 729.95 1025.26 393.30 1228.18 377.17 1107.32 519.47 1066.36 653.79 1221.09 640.52
00028169 00000103 926.49 106.84 472.35 727.61 1023.58 394.77 1227.67 377.44 1106.56 520.12 1065.43 654.54 1221.41 640.18
00028170 00000104 924.44 109.15 475.12 725.23 1020.02 397.56 1226.35 378.94 1103.76 522.23 1062.80 655.43 1222.04 639.91
00028171 00000105 919.40 105.81 478.17 726.78 1016.07 396.66 1224.13 379.59 1101.63 524.18 1057.88 653.43 1220.59 639.14
00028172 00000106 916.18 102.18 480.00 729.66 1015.72 395.95 1223.97 379.07 1102.15 523.44 1058.30 652.69 1220.69 638.42
00028173 00000107 914.13 101.08 481.19 735.60 1014.36 395.79 1223.58 378.09 1101.78 524.69 1058.50 654.98 1221.94 639.82
00028174 00000108 912.71 103.48 481.68 737.14 1012.10 396.85 1221.43 378.32 1099.22 526.76 1056.72 657.76 1222.27 641.80
00028175 00000109 911.76 103.71 483.11 740.20 1012.05 396.65 1220.71 378.16 1098.65 526.69 1057.32 659.29 1221.71 643.33
00028176 00000110 916.56 96.89 473.06 746.08 1011.60 396.39 1219.42 379.67 1106.23 524.56 1058.19 657.69 1220.65 643.46
00028177 00000111 913.05 105.85 480.83 735.77 1013.41 403.30 1220.71 386.09 1097.93 528.54 1056.61 661.87 1217.74 647.27
00028178 00000112 916.49 98.08 472.39 740.79 1009.95 399.83 1213.77 384.98 1098.71 526.32 1052.42 657.55 1212.43 644.93
00028179 00000113 913.92 99.71 474.84 739.42 1007.18 399.26 1207.77 382.76 1092.72 522.64 1051.25 657.23 1207.87 643.02
00028180 00000114 912.82 99.63 475.25 743.34 1003.92 400.23 1203.59 383.28 1088.30 524.70 1050.01 660.06 1204.02 645.64
00028181 00000115 914.93 93.75 473.31 747.06 1002.53 399.39 1202.68 384.30 1083.99 527.53 1047.58 660.43 1200.46 647.66
00028182 00000116 915.84 93.88 471.03 748.03 1001.97 399.56 1200.46 385.06 1080.64 523.52 1044.19 659.07 1196.34 646.78
00028183 00000117 910.72 96.24 480.28 747.39 1000.98 401.36 1204.69 386.52 1070.12 521.43 1033.33 661.95 1192.72 649.62
00028184 00000118 915.90 101.52 479.30 746.15 1002.47 398.65 1203.11 384.87 1065.43 518.61 1032.13 659.56 1193.64 648.33
00028185 00000119 922.24 92.70 479.76 748.02 1002.48 396.26 1206.26 381.69 1065.34 515.26 1029.12 659.32 1191.61 647.70
00028186 00000120 947.73 92.71 460.84 739.39 1020.86 392.22 1216.08 386.18 1075.40 513.84 1037.78 646.23 1192.46 642.74
00028187 00000121 972.06 100.11 452.28 738.11 1040.72 393.32 1237.07 399.77 1093.75 520.06 1051.53 648.27 1203.02 656.32
00028188 00000122 985.64 107.81 451.52 741.94 1047.54 403.26 1247.58 410.65 1103.21 530.12 1057.18 655.30 1214.32 663.71
00028189 00000123 991.15 112.75 467.62 742.57 1068.36 409.63 1273.20 424.50 1112.65 533.18 1064.57 661.26 1231.09 674.63
00028190 00000124 1005.38 103.91 463.08 754.01 1078.16 409.08 1277.20 426.02 1118.53 532.55 1072.96 661.44 1232.53 677.17
00028191 00000125 1024.46 101.65 454.10 752.50 1087.61 402.91 1284.51 421.22 1127.31 529.35 1084.35 659.03 1237.17 676.75
00028192 00000126 1040.56 102.73 452.77 753.12 1100.04 400.40 1296.03 418.90 1141.08 530.19 1097.91 659.61 1249.65 677.95
00028193 00000127 1054.26 112.59 461.84 736.98 1126.68 403.93 1328.10 427.05 1156.91 532.55 1118.08 661.68 1272.81 681.48
00028194 00000128 1063.89 115.61 472.06 753.78 1136.61 407.06 1340.51 434.84 1171.12 545.43 1124.30 665.46 1284.87 690.16
00028195 00000129 1076.48 116.38 468.49 752.29 1149.98 405.77 1353.15 437.54 1186.34 549.07 1134.56 665.28 1297.72 693.26
00028196 00000130 1089.37 97.51 454.47 760.26 1149.13 407.63 1350.57 437.21 1184.91 540.78 1138.93 664.86 1296.55 691.38
00028197 00000131 1085.24 100.96 465.13 757.26 1144.21 399.84 1343.75 425.64 1171.40 537.64 1130.60 660.35 1291.28 683.51
00028198 00000132 1091.22 91.85 456.65 768.32 1143.55 405.14 1339.32 431.51 1163.62 531.71 1134.65 663.68 1293.23 687.28
00028199 00000133 1097.59 87.77 453.53 775.03 1145.97 406.84 1340.74 433.57 1162.50 536.31 1138.40 666.05 1299.06 690.06
00028200 00000134 1104.81 101.77 455.73 751.22 1155.67 409.65 1348.06 429.21 1170.71 541.13 1152.35 665.70 1314.01 681.43
00028201 00000135 1110.54 105.75 453.46 740.67 1160.51 408.76 1350.06 430.23 1172.09 539.61 1156.36 660.73 1317.36 677.71
00028202 00000136 1114.94 90.64 450.60 756.02 1159.25 407.29 1346.20 433.67 1173.03 536.37 1157.15 659.65 1309.76 683.70
00028203 00000137 1118.37 104.19 468.58 740.53 1176.44 407.68 1368.57 433.15 1188.45 533.99 1169.44 655.48 1335.17 675.53
00028204 00000138 1128.02 103.26 465.25 749.60 1180.15 408.24 1371.93 436.96 1200.64 548.29 1177.73 658.47 1337.27 683.13
00028205 00000139 1130.96 105.67 465.79 744.26 1184.35 405.41 1373.43 438.64 1199.94 547.14 1178.71 655.39 1335.97 683.89
00028206 00000140 1134.60 102.65 466.88 744.64 1189.50 402.50 1375.38 439.86 1200.10 546.75 1180.08 652.98 1329.53 685.39
00028207 00000141 1144.81 109.75 462.34 752.36 1202.07 404.86 1399.43 444.28 1212.43 536.70 1188.24 658.31 1353.82 691.54
00028208 00000142 1152.04 116.58 462.78 742.27 1207.18 409.06 1402.15 449.27 1218.12 534.87 1195.28 659.32 1351.87 693.66
00028209 00000143 1153.66 105.14 462.54 752.89 1206.16 410.07 1403.39 446.69 1217.29 531.26 1192.58 662.33 1347.86 694.04
00028210 00000144 1152.81 104.90 463.36 752.08 1207.08 402.80 1404.32 441.15 1218.24 525.96 1190.00 658.76 1345.80 692.09
00028211 00000145 1147.72 113.80 469.82 740.65 1206.33 404.11 1399.98 432.30 1218.12 531.78 1189.14 658.96 1343.21 683.91
00028212 00000146 1147.94 97.40 465.11 760.77 1207.86 401.96 1407.35 436.31 1221.44 524.74 1191.19 654.00 1357.48 683.59
00028213 00000147 1136.99 111.39 471.86 759.18 1204.52 399.45 1395.53 429.55 1212.07 535.96 1187.81 655.41 1357.60 680.43
00028214 00000148 1131.19 105.11 463.45 755.03 1186.56 403.37 1375.28 425.75 1203.72 532.52 1179.29 658.69 1327.70 679.54
00028215 00000149 1121.63 93.95 455.79 747.88 1168.89 396.45 1360.42 421.83 1190.33 521.23 1160.76 649.33 1315.31 672.82
00028216 00000150 1115.02 97.30 456.03 741.16 1163.17 399.17 1357.19 420.27 1191.56 521.33 1157.85 650.64 1313.03 670.82
00028217 00000151 1106.75 93.10 457.24 747.57 1156.32 401.83 1350.51 419.91 1185.21 524.86 1153.26 653.86 1309.76 671.60
00028218 00000152 1102.05 90.04 453.04 757.73 1149.65 403.55 1342.42 421.02 1172.72 524.13 1145.34 658.42 1298.79 675.54
00028219 00000153 1090.42 98.67 460.90 748.21 1143.16 404.76 1336.54 420.44 1165.93 522.74 1140.14 660.10 1293.25 675.22
00028220 00000154 1084.16 100.79 460.75 746.68 1139.57 408.80 1335.97 418.86 1169.21 525.55 1141.09 664.46 1298.17 674.32
00028221 00000155 1079.60 103.71 461.83 743.24 1135.81 409.83 1334.25 416.68 1167.42 524.39 1138.83 664.48 1298.05 671.50
00028222 00000156 1072.34 107.80 460.81 736.45 1127.29 401.94 1324.01 408.44 1152.20 529.24 1127.15 661.11 1284.27 668.11
00028223 00000157 1066.57 98.99 458.20 739.64 1124.71 400.99 1318.10 409.49 1146.64 519.95 1124.46 656.07 1281.38 663.78
00028224 00000158 1065.61 96.92 462.46 749.11 1126.24 400.91 1321.02 404.81 1152.56 519.71 1129.85 658.00 1288.70 662.00
00028225 00000159 1066.08 101.95 466.97 746.22 1131.33 391.37 1328.58 399.50 1161.43 523.75 1133.84 652.03 1293.74 660.29
00028226 00000160 1067.02 100.60 468.09 747.14 1133.07 389.92 1331.59 398.71 1164.35 522.31 1135.30 651.18 1296.24 660.06
00028227 00000161 1067.39 91.36 462.95 750.20 1128.97 398.58 1325.96 402.83 1159.70 516.08 1133.27 656.24 1290.90 660.67
00028228 00000162 1068.80 91.36 460.70 746.60 1130.08 398.65 1325.33 401.38 1159.53 514.41 1134.69 655.92 1289.44 659.16
00028229 00000163 1069.11 88.54 462.51 749.95 1131.43 398.11 1329.99 399.85 1165.01 516.86 1138.09 656.45 1297.20 658.78
00028230 00000164 1070.09 91.40 462.00 748.25 1131.21 398.57 1327.77 399.52 1163.46 516.60 1138.30 657.34 1295.73 659.09
