Video ID: 	WNdYI8ajWk8
H: 	1080
W: 	1920
FPS: 	23.97442727757059

FRAME INDEX X0 Y0 W H [Landmarks (5 Points)]

00002246 00000000 853.57 98.32 525.70 734.24 947.99 371.18 1166.75 410.20 990.53 502.07 928.45 625.66 1109.58 660.50
00002247 00000001 862.89 90.37 522.56 738.12 962.88 353.61 1182.73 402.89 1000.42 487.53 932.79 611.28 1111.52 653.75
00002248 00000002 876.84 89.53 520.69 733.72 979.89 352.79 1197.79 398.66 1022.77 486.31 952.69 611.67 1126.21 651.29
00002249 00000003 875.78 91.10 539.22 731.75 994.43 354.88 1226.40 405.66 1047.95 487.55 963.58 608.55 1150.38 651.33
00002250 00000004 888.15 97.30 541.25 725.81 1011.46 356.22 1246.64 411.66 1073.39 494.79 980.13 609.43 1171.84 656.10
00002251 00000005 898.57 96.67 538.49 732.27 1019.82 368.39 1247.85 413.31 1085.29 491.19 999.16 623.97 1184.11 664.33
00002252 00000006 906.42 93.53 533.13 737.52 1023.33 368.84 1254.26 407.27 1086.73 502.23 1002.40 630.09 1184.62 664.14
00002253 00000007 905.39 95.78 530.78 737.55 1020.68 372.63 1251.17 409.32 1084.87 507.50 999.61 635.05 1180.14 667.98
00002254 00000008 895.06 102.31 535.89 735.05 1012.07 371.57 1240.03 420.31 1073.18 510.90 987.42 630.93 1165.64 672.86
00002255 DELETE   885.22 104.08 513.31 723.79 986.74 366.91 1205.68 409.86 1037.04 502.25 961.17 626.83 1125.40 665.04
00002256 DELETE   861.26 84.23 529.28 733.58 966.65 340.56 1185.73 391.99 1003.80 479.93 933.34 608.14 1100.61 653.36
00002257 DELETE   844.17 72.61 538.28 729.55 949.93 333.36 1164.95 380.71 981.35 457.04 913.60 592.24 1082.60 634.61
00002258 00000012 844.88 71.11 532.00 717.81 941.91 319.85 1161.46 369.26 977.68 448.86 906.29 582.37 1080.86 626.24
00002259 00000013 849.45 63.31 524.60 720.00 939.85 312.36 1161.19 360.61 977.56 448.83 906.02 579.05 1078.42 622.39
00002260 00000014 848.53 64.91 523.33 726.10 936.92 314.74 1160.57 361.76 975.15 460.37 904.67 586.81 1078.19 629.10
00002261 00000015 847.76 69.05 526.13 737.93 934.73 323.82 1155.24 369.86 971.11 479.45 907.64 602.46 1076.25 643.70
00002262 00000016 848.33 83.80 522.18 738.82 934.76 335.21 1150.91 383.79 966.49 495.20 910.67 617.34 1075.53 662.03
00002263 00000017 841.11 97.14 523.63 745.48 927.34 357.00 1143.46 402.74 957.07 519.37 907.34 641.26 1076.21 682.75
00002264 00000018 826.75 108.88 529.33 752.11 911.98 373.55 1134.51 422.16 944.94 541.37 890.50 658.34 1066.41 701.73
00002265 00000019 818.69 125.36 524.00 740.13 902.12 383.02 1125.30 430.92 935.59 553.45 881.58 664.37 1059.39 706.59
00002266 00000020 812.52 127.38 526.81 737.52 887.22 381.44 1114.10 434.90 920.19 556.79 868.86 660.21 1046.03 706.33
00002267 00000021 806.46 123.11 524.58 732.27 882.07 377.15 1105.89 428.88 913.58 547.54 861.56 652.55 1037.89 697.44
00002268 00000022 803.24 104.94 514.32 745.12 870.68 365.49 1097.83 418.45 903.71 542.40 852.85 649.45 1031.16 695.54
00002269 00000023 797.56 103.56 512.45 740.53 867.75 360.38 1096.92 413.44 905.33 535.74 848.19 645.04 1026.30 691.46
00002270 00000024 792.81 100.91 512.53 740.79 865.00 357.60 1094.66 410.48 905.11 533.32 844.83 642.32 1021.86 688.72
00002271 00000025 789.62 99.15 514.16 744.43 863.78 359.30 1095.97 410.33 906.98 535.44 845.28 645.19 1025.50 689.87
00002272 00000026 786.33 97.97 514.07 749.83 860.78 364.99 1094.95 412.46 908.16 542.43 845.66 651.04 1027.43 692.78
00002273 00000027 775.39 102.63 517.50 751.38 856.94 373.10 1089.54 419.29 904.55 557.38 845.17 658.33 1025.82 698.64
00002274 00000028 764.75 117.35 522.10 749.93 846.49 384.77 1075.85 430.41 889.29 567.55 839.84 670.50 1012.83 710.11
00002275 00000029 748.09 122.11 528.64 742.77 828.85 387.00 1056.97 428.47 870.58 564.14 820.74 673.88 989.15 711.02
00002276 00000030 733.47 120.04 523.68 748.28 804.03 382.19 1028.27 429.12 835.89 556.46 786.91 669.10 950.64 710.99
00002277 DELETE   721.54 104.56 521.14 745.39 793.74 364.54 1007.05 415.70 815.47 532.31 770.17 649.53 932.06 695.10
00002278 00000032 718.90 94.75 518.92 744.41 791.57 356.91 1002.34 401.52 814.12 520.16 770.85 640.90 934.44 681.65
00002279 00000033 725.85 84.31 516.90 757.75 789.40 350.75 1013.36 398.55 818.34 520.21 772.53 643.10 943.80 684.82
00002280 00000034 737.90 93.78 517.89 747.39 806.02 355.68 1033.00 401.32 838.43 523.88 788.43 642.63 963.12 683.17
00002281 00000035 748.09 99.35 516.81 744.07 820.74 360.86 1054.36 406.00 862.11 530.42 807.59 643.69 985.60 683.51
00002282 00000036 744.11 109.38 531.90 745.05 841.19 365.33 1075.48 416.71 888.57 533.38 821.57 646.42 1002.09 690.53
00002283 00000037 747.85 116.38 536.37 727.18 845.99 367.18 1082.98 419.32 895.89 539.67 827.87 652.85 1004.27 697.18
00002284 00000038 755.11 114.25 525.15 726.23 848.35 377.37 1081.71 420.52 897.65 548.59 834.26 664.31 1005.17 701.85
00002285 00000039 751.92 126.26 533.85 713.24 842.75 378.56 1080.59 432.47 890.77 556.97 826.56 666.76 996.72 712.00
00002286 00000040 756.88 130.00 523.38 719.14 841.95 387.26 1077.59 435.86 889.90 565.79 831.10 675.25 1003.44 716.73
00002287 00000041 758.21 134.27 522.30 721.98 841.37 391.03 1076.25 442.72 886.11 571.02 830.59 680.51 1000.85 724.32
00002288 00000042 756.99 137.08 521.13 720.68 837.95 393.51 1072.80 447.27 881.42 574.29 826.87 678.38 1001.86 723.74
00002289 00000043 759.00 139.70 518.57 720.56 838.00 395.95 1072.42 452.08 880.33 577.55 826.67 676.30 1005.80 723.46
00002290 00000044 758.95 142.28 520.32 713.65 838.73 397.35 1073.53 451.20 883.06 578.70 829.80 677.40 1009.80 722.57
00002291 00000045 764.23 137.36 520.35 717.74 845.29 401.69 1077.72 449.18 892.29 576.26 839.06 681.57 1014.45 721.91
00002292 00000046 764.23 135.17 526.92 715.33 854.50 406.76 1091.82 451.57 911.05 578.12 848.05 679.06 1031.62 717.33
00002293 00000047 772.20 139.87 527.07 715.08 867.63 418.21 1111.82 461.46 935.66 588.00 861.22 684.06 1057.19 721.02
00002294 00000048 776.00 145.92 529.44 705.51 879.49 424.30 1123.02 464.95 956.32 596.20 874.88 684.77 1068.16 719.55
00002295 00000049 774.70 147.55 530.09 704.14 885.64 426.97 1133.37 467.53 969.07 598.49 880.90 685.42 1080.34 719.82
00002296 00000050 775.42 146.29 530.82 705.87 890.15 431.13 1137.78 467.79 977.09 601.17 888.77 690.82 1085.22 721.93
00002297 00000051 771.82 144.16 535.63 719.55 891.51 433.38 1143.08 469.57 982.25 601.46 893.40 698.55 1089.09 729.04
00002298 00000052 776.37 148.11 529.53 719.38 887.27 434.11 1135.83 464.43 980.24 611.61 891.84 707.56 1087.08 733.40
00002299 00000053 757.20 149.62 540.73 705.23 883.57 440.50 1131.55 472.76 977.65 609.60 886.56 701.23 1079.64 728.51
00002300 00000054 751.87 149.70 537.05 705.31 877.30 442.34 1132.11 477.19 972.42 608.22 876.44 696.72 1077.38 726.34
00002301 00000055 747.86 149.92 531.54 716.40 866.80 440.51 1116.08 476.44 963.30 615.27 863.25 707.16 1060.34 737.33
00002302 00000056 730.46 149.06 540.75 711.30 857.95 440.90 1112.75 477.37 957.06 618.59 852.59 707.20 1052.29 738.03
00002303 00000057 714.39 141.72 547.55 723.57 847.69 442.02 1103.23 476.43 949.86 615.48 847.37 705.56 1047.37 734.15
00002304 00000058 707.76 142.07 547.36 730.06 839.36 447.56 1098.81 478.80 944.64 620.68 843.61 716.78 1040.94 742.90
00002305 00000059 701.68 153.59 547.02 727.64 833.51 459.69 1093.42 488.86 937.87 632.37 837.12 724.44 1038.20 748.85
00002306 00000060 714.42 165.55 535.60 710.59 833.45 469.22 1085.79 495.65 928.57 656.26 837.57 738.00 1027.52 760.72
00002307 00000061 713.15 187.32 534.08 679.95 832.18 475.99 1086.23 508.28 925.88 671.98 826.98 735.98 1019.03 763.80
00002308 00000062 708.83 189.13 540.08 668.06 828.03 477.24 1085.04 514.48 921.30 676.53 819.45 737.20 1008.72 769.12
00002309 00000063 698.27 194.27 546.85 656.53 820.70 485.33 1082.81 518.08 919.52 682.41 816.80 740.90 1007.24 768.57
00002310 00000064 691.37 193.94 552.36 649.20 813.42 490.45 1080.46 520.62 914.37 685.84 807.62 742.63 1003.60 768.00
00002311 00000065 685.81 202.82 549.63 644.44 807.25 496.73 1072.33 522.20 910.72 690.32 806.18 748.33 1001.32 769.47
00002312 00000066 682.32 206.19 548.29 642.85 802.60 500.73 1066.90 521.26 910.00 691.30 808.87 758.55 998.07 775.52
00002313 00000067 679.21 211.89 546.05 640.86 799.02 503.46 1061.91 522.28 908.09 691.37 809.65 764.25 994.62 779.93
00002314 00000068 674.89 211.01 543.41 646.18 793.64 504.13 1055.74 520.37 904.03 693.25 808.13 769.66 990.29 783.14
00002315 00000069 659.56 200.57 557.69 646.42 776.55 498.09 1054.05 513.32 895.33 686.31 804.31 769.58 988.77 781.12
00002316 00000070 656.93 199.73 559.15 644.10 770.28 496.98 1048.42 512.34 886.71 684.26 798.92 770.20 982.38 781.56
00002317 00000071 654.67 200.79 558.68 641.58 762.79 496.85 1042.55 512.65 877.40 680.89 790.56 770.88 974.60 782.46
00002318 00000072 653.16 203.23 556.09 637.89 759.34 495.96 1038.23 510.96 873.58 680.84 787.55 768.08 969.90 779.24
00002319 00000073 653.83 196.85 558.38 641.91 757.28 493.95 1036.49 509.53 870.03 680.99 787.03 768.03 969.71 779.43
00002320 00000074 653.74 192.82 562.80 642.79 758.32 491.16 1038.30 508.20 870.22 678.05 786.50 765.64 970.23 778.15
00002321 00000075 655.05 190.95 564.22 639.74 759.41 488.79 1040.47 505.35 872.19 675.28 787.50 764.67 971.07 776.70
00002322 00000076 657.96 187.99 561.99 646.52 763.19 488.77 1043.12 506.38 875.35 673.77 790.16 764.48 974.61 777.29
00002323 00000077 660.36 193.10 559.78 645.50 765.56 491.00 1045.24 508.18 878.93 678.42 793.76 766.81 977.65 779.37
00002324 00000078 661.79 195.77 561.65 637.63 772.12 494.24 1051.29 509.45 888.60 683.59 800.97 767.37 984.54 778.27
00002325 00000079 671.26 202.50 552.73 652.69 793.69 501.44 1058.17 518.67 903.73 691.90 807.71 768.22 987.48 782.26
00002326 00000080 678.04 199.75 555.02 663.20 806.77 504.88 1072.37 519.40 920.01 693.23 823.03 773.43 1000.95 785.70
00002327 00000081 685.49 200.33 554.28 669.20 819.64 507.17 1084.12 520.23 933.90 692.53 835.55 773.14 1015.93 785.03
00002328 00000082 690.12 200.92 559.01 670.58 832.32 509.79 1097.77 517.79 950.78 691.10 851.06 772.29 1032.62 780.64
00002329 00000083 698.04 197.71 564.28 674.11 840.03 509.07 1111.11 517.72 961.28 691.24 859.71 775.47 1044.95 784.35
00002330 00000084 701.10 198.39 565.37 675.53 841.15 508.08 1112.27 518.17 960.61 692.90 858.05 770.63 1048.87 780.69
00002331 00000085 701.07 195.11 564.05 678.41 834.81 503.66 1102.99 517.91 946.44 691.21 847.12 762.13 1041.06 775.49
00002332 00000086 703.76 190.21 557.07 687.21 827.07 495.77 1088.94 516.98 930.05 686.87 839.50 758.81 1027.27 777.35
00002333 00000087 704.07 187.55 558.22 687.19 816.80 489.73 1077.33 516.49 909.14 685.16 826.00 757.11 1012.60 779.66
00002334 00000088 705.22 181.28 561.42 686.92 805.14 480.15 1067.94 514.86 889.43 684.86 812.23 757.35 996.52 786.28
00002335 00000089 707.33 177.10 552.78 681.17 799.70 474.53 1062.47 514.34 873.27 668.34 811.12 741.79 1001.20 774.14
00002336 00000090 708.27 167.22 554.36 696.08 793.12 469.91 1052.72 509.34 860.23 662.32 807.75 744.79 992.18 776.56
00002337 00000091 709.66 163.70 551.92 715.10 792.55 468.52 1046.43 508.42 855.59 659.18 805.15 746.50 988.30 779.14
00002338 00000092 715.14 163.41 551.73 715.23 798.01 467.83 1051.07 512.27 858.38 662.17 809.03 745.25 991.83 781.66
00002339 00000093 721.84 169.33 551.38 700.73 805.41 471.72 1062.33 517.94 868.44 667.99 813.67 745.10 999.78 782.93
00002340 00000094 722.38 176.46 564.82 684.95 806.68 467.24 1072.17 512.91 876.35 666.51 820.79 752.65 1000.26 788.60
00002341 00000095 728.32 174.96 574.23 680.86 813.57 470.76 1082.98 514.48 889.86 670.15 831.67 756.52 1011.06 790.62
00002342 00000096 734.47 174.97 573.29 683.12 823.92 474.54 1093.11 513.92 905.23 672.22 842.08 757.45 1023.90 788.28
00002343 00000097 743.07 176.04 572.67 687.66 835.29 478.32 1107.30 510.18 925.56 674.35 855.97 764.41 1038.36 789.18
00002344 00000098 746.21 176.90 572.90 691.85 844.78 478.84 1118.04 509.23 940.04 673.23 864.55 762.72 1051.54 786.62
00002345 00000099 758.65 179.10 563.73 699.21 865.87 482.09 1129.79 515.57 956.93 685.71 872.70 766.73 1056.01 795.08
00002346 00000100 760.85 184.56 567.04 692.70 881.72 486.39 1145.96 516.73 976.74 682.10 886.68 764.39 1069.50 790.33
00002347 00000101 762.66 179.47 568.21 697.57 889.64 488.23 1156.90 515.28 990.22 682.64 898.06 764.79 1081.66 788.16
00002348 00000102 764.59 176.44 567.96 707.31 896.60 489.87 1161.29 513.72 1000.89 678.95 908.70 763.33 1093.62 784.13
00002349 00000103 765.72 176.20 569.40 706.41 901.91 490.73 1169.74 512.14 1011.14 678.19 913.65 764.25 1101.80 783.25
00002350 00000104 765.73 175.20 571.04 707.65 905.86 491.62 1176.07 511.32 1018.64 676.74 916.63 764.89 1104.19 782.61
00002351 00000105 765.58 174.75 573.17 705.23 907.78 490.77 1182.61 512.02 1022.01 677.86 914.14 758.99 1112.55 777.98
00002352 00000106 765.30 173.81 573.52 701.28 905.06 490.90 1184.60 511.04 1022.51 680.47 910.63 755.41 1118.56 773.39
00002353 00000107 764.51 174.59 571.50 707.87 903.54 490.82 1180.87 511.81 1019.30 682.29 907.23 751.50 1121.51 770.42
00002354 00000108 764.10 173.22 573.62 711.80 900.28 490.89 1178.31 510.60 1016.01 682.82 906.87 752.13 1124.00 769.68
00002355 00000109 764.23 178.26 572.09 700.65 900.37 491.17 1173.67 511.92 1012.32 682.32 906.70 753.36 1112.83 771.60
00002356 00000110 766.47 177.28 569.30 705.14 899.54 488.04 1167.13 515.02 1003.83 679.21 903.19 758.67 1097.25 782.28
00002357 00000111 756.72 168.22 574.70 743.49 891.83 489.40 1166.74 504.55 1010.02 674.35 913.68 772.73 1119.49 784.79
00002358 00000112 761.11 152.70 572.34 769.47 899.75 483.93 1160.25 503.97 1009.47 663.43 921.23 764.55 1113.08 781.04
00002359 00000113 759.43 151.53 571.34 763.38 896.60 479.20 1159.43 503.99 1005.49 665.04 908.30 752.22 1114.81 772.46
00002360 00000114 764.00 153.12 561.94 777.46 896.89 480.98 1160.30 500.41 1007.32 661.53 907.63 749.57 1122.11 766.31
00002361 00000115 764.55 151.66 564.52 786.01 897.14 480.02 1158.17 500.97 1003.99 661.05 905.93 749.50 1119.85 767.49
00002362 00000116 764.81 149.52 564.17 793.69 896.19 478.58 1156.15 502.18 998.80 660.09 901.68 747.98 1115.91 768.33
00002363 00000117 765.62 150.55 561.33 791.70 891.29 475.27 1152.87 501.56 990.16 659.91 895.07 744.43 1111.63 766.99
00002364 00000118 766.31 148.92 561.04 789.40 885.39 471.19 1148.00 500.13 978.94 658.99 888.63 738.59 1108.60 763.02
00002365 00000119 767.12 150.14 559.66 787.15 880.14 467.83 1143.29 498.33 969.55 657.85 883.52 736.33 1105.06 761.94
00002366 00000120 767.66 143.65 558.60 797.64 877.07 462.28 1138.27 496.02 960.89 654.66 878.40 733.34 1098.32 762.04
00002367 00000121 768.89 143.33 556.58 796.28 879.32 460.96 1137.90 496.19 961.88 653.52 880.50 731.51 1093.38 761.87
00002368 00000122 770.73 135.62 564.17 801.08 888.38 461.22 1143.17 500.96 970.31 649.04 889.16 733.95 1099.60 766.89
00002369 00000123 774.30 135.92 561.38 798.76 893.53 460.75 1148.44 499.56 978.80 647.21 895.48 732.02 1106.47 763.92
00002370 00000124 775.28 135.38 561.22 798.19 895.90 461.09 1151.11 499.02 982.43 645.80 897.41 730.60 1109.66 761.64
00002371 00000125 775.22 135.53 561.24 798.23 896.14 461.45 1150.90 498.03 983.07 644.75 898.38 731.12 1109.81 761.12
00002372 00000126 774.64 136.60 560.78 797.46 895.15 460.57 1148.92 497.59 981.15 643.93 896.69 729.16 1108.82 759.58
00002373 00000127 773.52 133.81 559.91 800.26 892.73 460.83 1146.80 498.00 978.04 644.08 895.04 730.25 1107.01 760.81
00002374 00000128 770.76 143.43 555.03 788.89 884.41 459.03 1143.19 493.07 970.75 648.88 884.91 722.89 1103.19 751.84
00002375 00000129 766.57 147.44 549.73 782.01 876.41 457.59 1131.00 494.03 957.87 649.90 877.17 722.06 1089.96 753.38
00002376 00000130 760.66 150.43 549.38 777.91 863.56 457.14 1117.83 493.80 938.94 647.78 864.57 723.56 1077.69 755.20
00002377 00000131 753.54 144.70 548.88 777.31 851.52 454.24 1102.92 492.05 923.23 642.10 851.53 717.97 1066.40 750.39
00002378 00000132 749.20 143.73 550.30 776.19 844.92 452.96 1093.00 491.64 911.53 638.47 845.40 719.09 1053.70 752.46
00002379 00000133 746.18 145.60 559.86 766.07 851.57 450.67 1093.38 499.52 915.38 636.21 851.32 708.71 1054.86 749.29
00002380 00000134 755.64 142.97 548.00 767.33 854.03 452.12 1105.91 488.91 927.40 631.36 858.22 717.70 1064.65 749.51
00002381 00000135 764.93 136.89 553.20 774.07 876.56 445.58 1122.32 482.45 953.52 615.55 884.29 713.72 1082.27 744.93
00002382 00000136 766.66 119.65 558.84 779.99 885.27 442.14 1131.50 474.02 967.85 608.50 894.38 707.42 1092.27 734.44
00002383 00000137 765.43 108.35 561.16 785.79 884.55 439.08 1130.51 467.11 968.28 603.05 895.47 701.66 1094.99 724.95
CROP_BBOX: 428 0 1659 1080
