Video ID: 	jmnaXP-qmiM
H: 	1080
W: 	1920
FPS: 	25.0

FRAME INDEX X0 Y0 W H [Landmarks (5 Points)]

00026656 00000000 662.15 228.65 451.72 656.90 708.88 479.30 856.37 464.09 701.74 576.22 736.63 712.00 851.43 699.31
00026657 00000001 660.96 227.98 441.50 666.10 713.08 476.08 836.67 464.30 683.79 577.55 733.46 711.87 838.53 700.62
00026658 00000002 661.62 231.62 437.83 658.61 721.19 480.56 824.36 473.31 675.02 588.14 747.10 711.95 836.28 703.78
00026659 DELETE   664.20 237.85 442.76 656.26 720.06 491.96 826.17 482.57 679.07 602.66 751.59 721.90 843.35 710.90
00026660 DELETE   664.83 253.79 445.44 648.06 721.09 498.29 832.76 488.13 682.82 616.03 754.97 732.87 854.37 720.71
00026661 00000005 671.24 256.18 446.08 655.13 730.81 505.31 833.02 493.89 688.05 624.42 768.36 743.68 856.82 730.36
00026662 00000006 679.40 250.01 446.92 663.93 729.22 511.59 841.30 497.63 695.23 628.16 773.71 747.99 869.02 733.33
00026663 00000007 684.89 245.18 449.55 664.61 731.00 515.64 851.18 499.58 704.08 628.01 775.85 748.21 874.92 732.19
00026664 00000008 695.11 246.24 452.29 656.84 734.91 520.92 850.69 504.40 711.62 628.67 782.15 749.57 873.72 734.85
00026665 00000009 699.93 243.37 452.22 650.00 743.46 520.70 859.14 505.38 725.97 627.79 784.82 743.85 874.35 730.86
00026666 00000010 703.12 248.51 453.59 640.35 746.56 516.43 867.59 503.49 735.89 628.34 782.65 740.24 875.80 729.55
00026667 00000011 712.37 244.57 452.06 643.55 750.15 513.46 879.14 498.57 742.56 622.34 785.44 736.54 882.31 724.47
00026668 00000012 722.75 239.62 447.92 647.89 756.15 507.45 891.68 491.37 752.06 614.72 788.63 734.00 888.80 720.55
00026669 00000013 732.68 239.29 441.38 649.92 766.00 503.64 902.97 488.00 761.33 611.26 796.76 735.03 895.38 721.41
00026670 00000014 730.59 242.09 447.14 642.24 772.82 497.75 913.98 487.80 765.59 608.04 803.50 733.22 903.51 724.94
00026671 00000015 738.52 237.44 449.49 648.47 776.55 496.94 921.54 489.74 772.58 606.89 805.95 732.45 907.83 726.87
00026672 00000016 744.55 233.10 446.51 647.89 783.42 491.43 926.20 484.57 779.60 598.41 809.01 724.47 908.66 719.41
00026673 00000017 753.40 229.34 438.64 643.13 790.80 484.25 929.74 481.78 784.89 589.45 809.30 714.29 906.49 713.11
00026674 00000018 758.68 225.85 435.27 639.59 795.20 478.91 931.73 476.15 784.74 581.42 809.76 706.73 908.40 705.40
00026675 00000019 763.93 217.53 430.69 645.17 796.34 473.22 934.79 470.06 787.82 574.61 812.16 702.62 912.31 701.27
00026676 00000020 771.15 216.04 429.47 646.50 800.15 470.38 938.71 465.60 791.71 572.88 817.70 701.11 920.87 698.41
00026677 00000021 774.69 214.80 427.67 643.20 802.54 469.10 940.84 463.12 794.34 571.29 821.08 698.69 926.34 695.10
00026678 00000022 778.49 215.07 427.58 639.69 806.28 468.91 943.63 462.89 798.56 572.22 826.59 696.51 933.73 692.71
00026679 00000023 781.01 216.29 429.61 638.06 810.75 470.12 946.48 463.14 800.40 573.35 832.29 696.16 941.68 691.20
00026680 00000024 783.06 216.02 432.31 640.36 812.68 472.33 954.46 465.62 806.16 573.45 831.09 696.63 944.33 692.21
00026681 00000025 786.87 214.55 430.17 641.04 813.59 479.73 963.67 467.20 817.08 571.47 826.95 704.82 932.80 696.82
00026682 00000026 791.01 210.66 433.94 638.44 817.58 477.89 971.64 468.77 824.68 571.26 825.93 699.20 935.45 694.17
00026683 00000027 797.15 213.06 433.25 632.51 824.55 474.77 979.25 467.34 831.69 568.49 832.03 694.00 942.76 689.91
00026684 00000028 800.05 212.89 435.55 631.59 829.57 472.18 986.54 465.76 838.18 568.24 837.83 692.27 949.26 688.65
00026685 00000029 800.98 211.52 437.54 633.39 834.90 471.08 993.15 465.81 844.29 568.09 843.11 692.74 954.24 689.90
00026686 00000030 804.70 219.21 439.39 627.12 847.27 472.80 1009.18 470.66 853.83 572.68 862.50 697.77 974.76 696.88
00026687 00000031 814.52 213.62 441.82 634.37 854.58 470.32 1017.64 472.86 860.30 575.13 867.36 697.84 982.04 701.12
00026688 00000032 820.08 210.93 443.49 642.51 863.31 474.64 1026.09 477.35 870.28 575.30 872.59 700.72 986.70 704.55
00026689 DELETE   821.48 207.14 450.36 648.76 866.93 482.02 1030.19 479.20 876.87 575.90 878.92 704.92 992.08 704.34
00026690 00000034 825.18 212.33 449.77 647.04 875.14 478.13 1042.35 475.98 890.58 575.89 884.89 705.75 999.48 706.20
00026691 00000035 830.34 210.63 449.18 653.44 880.63 475.34 1049.21 473.74 894.21 571.28 887.74 704.51 1004.07 705.40
00026692 00000036 835.69 213.22 447.98 651.35 884.27 471.59 1055.76 472.48 898.99 571.33 890.50 701.62 1009.86 704.38
00026693 00000037 837.24 215.77 447.98 648.14 887.95 470.11 1061.51 470.44 909.03 571.65 896.16 702.46 1014.61 704.59
00026694 00000038 840.03 215.33 446.32 652.09 891.65 471.12 1063.17 472.01 912.22 574.06 898.87 703.57 1016.46 706.24
00026695 00000039 838.95 215.48 448.81 657.00 894.19 472.21 1065.52 472.80 916.93 577.19 902.44 706.08 1020.16 708.55
00026696 00000040 839.22 218.50 449.86 647.37 893.91 473.52 1066.24 474.13 919.31 579.18 904.52 705.37 1022.62 707.49
00026697 00000041 840.98 218.92 448.55 640.38 892.54 471.55 1067.93 473.01 918.98 577.18 902.15 701.45 1026.85 704.07
00026698 00000042 842.25 215.64 446.97 641.29 892.39 465.21 1069.66 468.16 917.11 570.05 899.61 695.67 1027.75 699.72
00026699 00000043 843.42 213.77 447.80 643.08 892.71 463.15 1069.80 465.22 918.13 568.22 901.40 695.13 1029.15 698.35
00026700 00000044 845.68 215.72 446.02 639.98 894.58 463.72 1070.79 467.77 919.73 571.67 902.33 694.91 1028.52 699.86
00026701 00000045 846.87 214.87 444.21 638.25 896.11 464.89 1069.50 469.67 920.02 573.27 905.50 693.70 1028.02 699.20
00026702 00000046 846.51 212.14 443.69 641.44 894.92 466.72 1066.53 471.33 917.19 575.59 905.26 694.20 1026.47 699.51
00026703 00000047 841.30 212.83 443.08 641.95 886.32 474.53 1051.10 475.14 903.67 576.25 896.42 696.19 1016.25 698.29
00026704 DELETE   833.97 209.24 443.14 644.56 877.04 477.65 1041.28 475.31 891.04 568.98 888.49 696.75 1007.18 696.68
00026705 00000049 832.09 207.75 443.49 645.50 875.02 475.11 1039.54 475.77 886.35 568.25 883.63 697.51 1001.66 699.95
00026706 00000050 834.90 206.30 440.55 649.22 876.51 473.17 1039.85 477.07 883.73 571.02 883.66 697.86 1002.33 702.94
00026707 00000051 835.04 203.42 440.46 652.92 875.74 475.67 1039.00 479.71 881.81 574.16 882.91 700.36 1000.65 705.55
00026708 00000052 833.96 204.29 441.08 653.92 874.77 478.17 1037.80 480.11 882.30 576.18 883.81 703.70 1000.03 707.26
00026709 00000053 832.91 204.83 443.11 654.72 874.21 480.22 1036.87 480.74 882.10 577.24 883.75 705.52 999.92 708.03
00026710 00000054 832.60 204.70 442.41 654.66 872.86 479.92 1034.59 479.40 880.23 576.49 882.99 706.65 997.12 708.29
00026711 00000055 831.72 204.81 440.51 653.64 870.99 473.66 1026.92 477.75 875.25 577.71 882.05 703.99 990.40 709.25
00026712 00000056 829.96 207.49 438.11 655.11 866.79 469.42 1019.42 476.41 865.96 576.97 878.72 703.20 984.36 710.39
00026713 00000057 819.20 210.24 440.80 653.69 861.54 470.35 1011.20 476.48 856.44 575.93 873.98 702.22 979.96 708.01
00026714 00000058 812.05 212.81 441.57 655.90 856.88 471.13 1006.65 475.44 851.69 576.36 871.37 704.09 979.39 708.00
00026715 00000059 808.92 218.28 439.10 655.35 854.79 470.04 1005.38 473.06 851.08 578.02 873.53 709.01 981.58 711.41
00026716 00000060 812.26 217.29 435.84 657.76 852.74 470.76 1004.64 474.01 852.57 581.96 870.55 709.77 981.01 711.23
00026717 00000061 809.23 219.08 437.42 660.20 848.62 472.30 999.70 473.67 846.97 584.22 869.12 712.67 981.51 712.41
00026718 00000062 805.79 214.52 441.23 668.03 846.82 473.95 994.03 473.05 842.18 583.61 869.31 711.38 981.62 709.69
00026719 00000063 804.01 214.94 439.02 666.37 843.87 473.27 988.79 472.52 838.78 582.47 865.81 708.99 976.40 707.87
00026720 00000064 803.41 218.15 437.76 663.37 841.46 473.30 985.95 472.37 837.18 582.92 864.33 708.26 975.09 707.07
00026721 00000065 801.30 216.30 438.75 663.52 838.94 471.64 983.39 472.51 832.85 581.83 859.63 706.16 971.42 706.47
00026722 00000066 799.50 215.19 439.68 662.18 836.95 471.56 980.09 472.09 830.16 581.08 857.81 704.16 969.84 704.22
00026723 00000067 797.70 213.40 440.38 662.43 834.88 471.43 980.41 473.18 829.89 581.71 855.83 701.77 971.56 702.82
00026724 00000068 796.28 213.02 442.03 658.62 834.60 469.99 981.86 473.07 831.60 580.89 854.75 697.98 972.90 699.92
00026725 00000069 791.16 214.27 443.89 648.12 836.12 466.91 989.16 470.21 832.58 578.05 858.94 697.97 978.43 699.60
00026726 00000070 790.32 213.72 444.22 645.88 835.65 465.85 990.13 469.50 833.64 577.69 857.20 697.00 977.14 699.09
00026727 00000071 793.66 206.84 442.81 653.09 832.89 467.35 984.04 470.22 832.92 576.40 851.01 694.09 970.23 696.03
00026728 00000072 788.58 215.64 442.81 636.60 832.86 466.74 989.17 470.26 833.04 579.11 854.28 693.92 977.18 695.96
00026729 00000073 789.16 215.52 443.33 636.10 833.62 466.12 990.03 470.19 833.17 577.68 854.52 691.83 978.11 694.36
00026730 00000074 796.04 215.04 442.92 657.83 836.01 471.12 984.52 472.56 832.42 580.06 856.38 696.53 981.26 696.70
00026731 00000075 795.74 221.50 446.18 680.09 834.16 480.36 980.77 473.67 826.89 590.75 866.79 717.27 992.58 711.04
00026732 00000076 788.13 239.80 454.59 668.27 826.02 491.03 976.00 481.24 822.45 607.48 866.77 728.44 995.37 718.89
00026733 00000077 780.20 256.42 458.02 649.20 820.03 506.57 959.53 493.68 814.33 630.19 875.05 739.37 990.50 726.72
00026734 00000078 766.06 273.10 449.83 634.48 808.02 522.22 938.27 509.32 803.10 637.17 871.47 749.03 973.33 737.34
00026735 00000079 760.58 270.24 446.80 643.19 807.87 526.22 922.56 510.70 788.05 641.80 864.26 758.11 953.41 744.15
00026736 00000080 755.37 261.56 456.97 645.57 803.31 528.57 917.67 518.49 784.17 654.31 853.07 764.15 936.33 754.53
00026737 00000081 756.88 260.08 458.35 639.22 804.74 524.27 919.12 515.22 786.12 652.66 853.76 760.62 934.57 751.84
00026738 00000082 764.99 253.78 451.05 639.15 815.11 519.33 924.09 510.54 794.94 643.18 859.05 751.72 936.56 743.69
00026739 00000083 779.89 245.02 452.45 645.63 831.61 513.15 933.69 501.03 806.88 633.67 872.58 742.39 948.19 731.40
00026740 DELETE   792.78 245.61 450.87 634.72 833.06 502.68 955.84 491.41 823.60 624.86 874.18 733.90 960.36 723.57
00026741 DELETE   799.26 230.68 456.83 637.58 848.29 495.42 982.37 483.24 840.09 604.53 890.27 721.33 983.82 710.78
00026742 00000086 816.15 233.29 455.60 643.53 861.15 492.47 993.35 476.68 850.24 597.48 905.43 715.60 1010.10 702.53
00026743 00000087 834.28 236.81 458.43 647.15 879.27 490.43 1000.77 469.03 862.24 600.75 936.11 721.15 1036.98 702.44
00026744 00000088 843.30 232.63 463.48 655.22 891.08 490.25 1009.75 465.89 868.69 599.61 950.13 717.03 1059.18 694.27
00026745 00000089 847.33 233.67 465.38 651.13 892.85 491.27 1013.39 465.91 874.64 601.39 956.33 716.54 1063.88 692.75
00026746 00000090 849.77 231.25 463.37 651.36 895.78 496.75 1015.86 467.82 880.78 603.53 960.83 720.25 1064.23 693.57
00026747 00000091 850.15 231.70 465.94 644.92 899.85 496.83 1016.95 471.30 884.58 602.61 960.10 716.39 1057.09 692.82
00026748 00000092 858.01 232.79 455.67 635.28 905.06 494.28 1022.22 474.55 891.70 603.23 955.51 716.07 1043.16 698.36
00026749 00000093 862.96 227.07 456.05 634.57 906.21 489.53 1039.99 470.91 901.60 600.79 952.51 718.76 1042.96 703.14
00026750 00000094 875.15 212.57 457.75 644.86 919.52 478.43 1051.84 470.56 910.84 596.70 958.61 709.20 1049.48 702.59
00026751 00000095 893.34 208.37 451.42 640.71 936.79 469.23 1062.19 466.77 920.39 592.84 971.81 699.14 1060.38 697.41
00026752 00000096 911.88 208.40 441.36 633.94 945.66 470.95 1073.78 457.61 934.90 582.99 980.88 699.14 1068.30 689.26
00026753 DELETE   917.40 188.93 453.03 650.47 953.04 464.67 1087.65 449.02 950.57 580.93 992.24 700.41 1084.73 687.83
00026754 00000098 928.45 178.18 451.54 659.56 965.38 459.56 1094.63 439.77 962.63 568.90 1006.17 689.60 1099.38 673.16
00026755 00000099 937.53 171.34 449.62 663.47 970.69 455.03 1109.06 437.28 975.62 566.68 1010.10 684.78 1109.13 669.83
00026756 00000100 944.17 171.16 444.51 657.60 974.90 456.51 1114.99 438.12 982.62 563.56 1012.40 682.80 1110.57 667.08
00026757 00000101 939.62 175.21 453.43 645.80 969.30 455.63 1128.27 436.59 975.42 559.14 1011.43 687.84 1118.46 671.48
00026758 00000102 941.73 175.36 454.49 644.12 972.16 452.12 1129.39 434.53 976.52 557.60 1014.16 685.36 1120.28 670.26
00026759 00000103 947.16 174.80 450.73 643.75 978.15 451.41 1132.99 435.15 980.52 556.17 1017.32 682.31 1123.20 668.62
00026760 00000104 951.86 173.23 448.25 645.11 982.91 447.97 1134.55 433.37 982.41 552.08 1020.27 678.88 1125.76 666.62
00026761 00000105 954.71 174.59 445.16 644.14 986.05 445.76 1135.17 430.86 985.14 550.50 1023.91 678.19 1128.04 665.63
00026762 00000106 954.37 178.67 445.03 645.57 993.46 444.29 1136.96 427.72 992.44 544.19 1033.75 674.78 1135.86 660.80
00026763 00000107 960.28 180.13 444.32 660.17 1001.56 446.04 1136.82 425.05 992.09 549.09 1039.12 679.07 1142.61 660.10
00026764 00000108 960.58 175.05 440.70 663.41 1000.45 448.71 1138.54 426.51 993.70 548.02 1039.77 678.28 1148.46 658.54
00026765 00000109 960.78 176.57 442.74 659.50 1001.88 446.80 1139.33 426.36 992.68 546.74 1036.18 672.90 1147.40 654.16
00026766 00000110 959.27 179.08 447.02 655.36 1001.58 442.00 1140.70 423.59 993.86 545.12 1035.90 668.75 1148.83 651.37
00026767 00000111 957.34 190.20 446.12 634.76 999.82 440.32 1144.67 424.29 992.59 544.73 1037.08 670.58 1146.42 657.38
00026768 00000112 960.22 177.72 446.03 647.52 999.95 435.35 1141.42 419.67 991.75 541.76 1033.40 662.28 1147.58 647.10
00026769 00000113 957.42 171.12 446.99 654.75 995.82 435.70 1139.50 418.76 990.17 537.77 1026.57 661.84 1140.52 645.91
00026770 00000114 955.52 170.59 444.91 654.37 991.30 435.20 1137.59 417.77 988.62 535.26 1020.80 664.48 1132.05 648.47
00026771 00000115 944.18 171.67 451.49 647.76 984.48 436.07 1136.13 414.92 988.58 529.12 1021.74 665.81 1132.45 648.35
00026772 00000116 944.25 174.29 449.89 653.57 986.17 435.83 1134.28 416.64 987.11 526.50 1020.43 666.48 1129.50 650.38
00026773 00000117 947.34 173.03 452.14 663.15 989.36 435.22 1140.83 418.35 991.98 532.02 1021.07 673.78 1130.02 660.06
00026774 00000118 947.99 173.77 454.31 661.41 993.04 438.48 1150.18 418.36 1003.40 528.29 1024.50 672.38 1137.93 656.54
00026775 00000119 949.18 175.24 461.57 661.02 1002.00 437.34 1159.31 419.29 1016.20 532.60 1035.80 672.75 1147.32 658.38
00026776 00000120 958.97 175.18 459.01 662.32 1013.71 443.72 1169.39 428.60 1027.10 540.83 1046.31 677.91 1154.25 665.95
00026777 00000121 969.73 180.11 455.21 657.31 1025.85 450.34 1186.90 436.54 1041.37 547.40 1055.61 683.09 1165.52 672.50
00026778 00000122 979.37 182.87 454.00 649.13 1031.70 450.74 1197.31 441.35 1050.47 555.54 1060.53 679.78 1179.29 672.46
00026779 00000123 988.16 195.37 450.91 636.66 1044.38 449.96 1211.70 449.94 1070.60 556.49 1068.42 672.29 1186.19 673.49
00026780 00000124 994.76 197.77 449.12 638.38 1049.81 449.23 1219.24 453.10 1074.27 560.34 1070.06 676.48 1192.52 680.64
00026781 00000125 997.85 195.18 447.36 638.77 1050.77 448.17 1222.91 453.78 1075.89 560.38 1068.94 675.41 1194.82 680.99
00026782 00000126 997.59 198.27 443.19 627.22 1048.01 446.05 1228.59 449.33 1069.12 555.86 1064.17 681.69 1186.55 684.22
00026783 00000127 998.46 193.39 444.13 626.94 1049.18 441.90 1231.77 449.32 1072.55 556.53 1064.52 675.38 1189.57 681.38
00026784 00000128 999.72 190.55 444.40 625.20 1051.18 439.35 1233.53 447.40 1077.19 553.29 1067.31 670.36 1192.11 676.84
CROP_BBOX: 381 0 1624 1080
