Video ID: 	OaJ0uFUqLkI
H: 	1080
W: 	1920
FPS: 	25.0

FRAME INDEX X0 Y0 W H [Landmarks (5 Points)]

00041315 00000000 710.45 177.43 414.36 583.36 863.44 395.45 1030.31 433.74 943.91 522.44 840.70 600.81 973.30 633.06
00041316 00000001 708.52 176.85 415.25 582.29 860.32 392.53 1029.59 433.56 941.51 521.43 836.38 597.06 971.92 631.32
00041317 00000002 708.32 173.27 416.61 589.05 860.35 391.09 1029.75 430.24 943.16 526.13 837.39 600.90 973.20 633.45
00041318 00000003 710.41 175.96 416.30 587.97 861.36 392.54 1030.73 431.79 943.40 530.25 839.82 604.72 973.86 637.48
00041319 00000004 717.20 183.15 415.99 583.80 865.49 394.97 1036.59 434.10 948.67 536.78 840.56 605.54 970.40 639.76
00041320 00000005 720.19 188.85 416.19 575.75 870.04 397.74 1043.51 434.27 956.99 537.66 846.12 608.32 977.99 640.59
00041321 00000006 723.00 194.44 417.22 566.45 875.90 398.39 1050.88 432.27 965.78 536.58 853.60 608.10 986.39 638.22
00041322 DELETE   726.43 190.04 420.44 567.68 882.98 398.27 1059.30 430.97 974.91 533.54 861.35 604.97 996.14 634.02
00041323 DELETE   731.81 184.55 416.92 569.67 894.29 399.20 1064.96 428.39 986.15 531.04 872.09 603.59 1005.76 629.71
00041324 00000009 737.02 181.93 411.05 572.37 902.42 389.71 1069.71 418.75 996.79 525.27 880.65 599.90 1016.55 625.66
00041325 00000010 738.06 176.38 410.71 577.06 904.86 383.40 1069.90 412.62 1000.39 520.40 880.48 597.19 1017.88 623.14
00041326 00000011 737.38 167.59 411.26 586.86 903.93 379.33 1068.51 410.88 1000.73 516.69 876.47 594.15 1014.90 621.75
00041327 00000012 732.79 167.45 413.46 588.22 898.13 377.64 1064.46 410.40 994.80 513.55 866.44 591.05 1008.03 619.89
00041328 00000013 728.95 171.10 417.71 586.56 892.19 377.54 1060.66 411.90 985.98 513.91 858.48 589.44 1002.13 619.66
00041329 00000014 724.89 169.29 421.38 585.86 885.80 376.82 1056.57 410.80 980.15 512.47 854.73 587.72 997.26 617.50
00041330 00000015 722.35 167.24 424.49 582.23 881.91 375.52 1055.72 411.28 976.05 509.48 854.33 584.33 995.76 615.13
00041331 00000016 721.89 170.22 423.52 579.06 878.44 375.66 1053.07 411.20 972.34 509.05 851.50 584.44 994.35 615.08
00041332 00000017 721.22 170.38 422.43 584.30 877.07 376.75 1050.74 412.97 969.46 512.14 848.19 587.00 991.28 618.39
00041333 00000018 720.90 174.39 422.40 585.13 876.47 376.98 1049.93 414.65 967.12 513.82 843.62 587.53 990.78 620.26
00041334 00000019 720.36 173.47 422.67 590.20 876.52 377.20 1049.36 416.09 966.05 513.94 840.83 588.57 989.68 622.37
00041335 00000020 720.47 173.63 422.45 589.77 874.37 377.64 1048.82 414.48 965.07 515.25 842.52 592.25 987.29 624.38
00041336 00000021 720.06 166.90 421.97 587.45 874.29 377.53 1045.26 410.69 965.23 513.12 852.78 591.11 983.07 619.98
00041337 00000022 718.25 165.96 422.14 581.03 869.65 377.18 1043.15 406.46 963.22 509.85 854.65 589.77 982.66 615.23
00041338 00000023 717.77 163.77 417.56 577.07 870.37 370.28 1042.47 402.86 962.89 501.22 858.23 585.05 987.96 612.11
00041339 00000024 716.31 162.35 416.21 578.57 868.75 366.20 1040.70 399.37 959.34 499.60 853.56 582.94 984.60 610.40
00041340 00000025 714.34 159.58 414.55 579.92 865.01 364.10 1038.13 396.96 955.52 498.83 849.18 582.06 981.77 609.15
00041341 00000026 712.04 158.63 413.93 580.14 861.53 362.73 1034.87 397.08 951.18 497.78 843.27 580.30 978.05 608.49
00041342 00000027 710.93 158.13 411.95 578.69 856.14 360.66 1032.20 396.50 944.02 495.11 836.53 579.10 974.09 608.43
00041343 00000028 707.79 159.76 410.53 575.15 852.41 359.15 1029.14 394.84 939.63 494.54 831.61 578.55 968.63 607.95
00041344 00000029 704.69 160.17 407.79 573.35 848.63 357.35 1024.89 393.19 935.62 495.06 826.18 579.06 962.64 608.80
00041345 00000030 701.90 159.62 406.57 572.74 843.43 356.81 1020.25 391.80 931.30 493.97 821.62 578.00 958.22 607.02
00041346 00000031 699.18 156.82 406.38 574.70 837.96 356.56 1016.85 392.66 926.54 492.41 815.77 575.23 957.76 605.07
00041347 00000032 697.23 157.61 405.37 571.90 834.43 356.45 1012.77 390.01 923.90 492.42 814.24 573.77 957.24 601.50
00041348 00000033 694.47 158.42 405.88 569.40 830.90 357.42 1009.17 388.69 920.63 492.31 812.51 571.99 956.14 597.68
00041349 00000034 693.64 160.65 402.68 568.12 828.16 366.71 1004.59 397.41 917.21 492.74 812.10 571.79 958.36 597.40
00041350 00000035 692.86 160.59 402.23 567.61 827.43 363.95 1004.03 393.56 916.64 493.98 811.66 572.10 956.49 596.73
00041351 00000036 691.45 160.40 406.51 567.91 826.84 361.29 1006.06 391.74 916.58 494.20 810.86 573.12 955.53 598.15
00041352 00000037 691.66 160.56 406.75 568.45 827.56 359.42 1006.67 389.56 917.57 494.19 810.58 573.09 955.41 597.87
00041353 00000038 691.59 160.81 407.59 568.98 828.60 359.04 1007.38 389.32 917.86 494.57 811.94 573.43 955.58 598.27
00041354 00000039 691.52 159.41 407.41 570.61 827.01 359.60 1008.05 389.75 917.61 494.92 811.69 574.32 956.22 599.02
00041355 00000040 692.03 160.98 407.40 568.55 827.28 360.03 1008.13 390.18 917.90 494.40 813.03 573.20 957.34 597.81
00041356 00000041 692.61 162.88 407.70 563.15 827.32 359.66 1009.26 389.08 918.18 493.61 814.29 570.74 958.72 594.54
00041357 00000042 693.25 163.59 407.26 560.32 828.14 360.08 1009.86 388.58 918.81 492.57 816.24 571.16 958.51 594.05
00041358 00000043 693.75 161.40 406.80 563.28 829.59 359.66 1011.28 389.55 920.69 492.06 817.28 570.77 960.16 594.78
00041359 00000044 694.31 162.27 407.61 564.64 831.25 360.70 1012.99 392.23 921.89 493.23 818.39 571.25 961.67 596.68
00041360 00000045 695.68 163.93 406.41 564.88 832.45 366.15 1013.10 395.58 923.60 495.20 820.82 575.99 962.24 599.80
00041361 00000046 694.13 165.90 409.08 570.67 833.18 370.07 1012.33 399.51 924.04 499.57 820.29 581.63 962.61 605.57
00041362 00000047 691.10 165.45 414.01 584.30 835.38 371.26 1013.01 401.76 925.62 504.45 819.68 587.92 962.77 612.69
00041363 00000048 690.98 162.77 413.74 590.85 836.32 373.98 1011.72 407.82 925.28 505.84 812.66 586.72 963.25 614.53
00041364 00000049 692.21 161.74 409.82 589.74 835.66 380.34 1007.65 415.11 922.68 506.36 811.86 583.93 963.52 612.60
00041365 00000050 691.43 162.90 408.96 585.64 833.57 376.13 1006.31 409.26 921.84 502.76 811.45 582.91 961.23 610.31
00041366 00000051 691.86 162.30 409.76 582.10 833.10 367.51 1008.20 401.66 920.34 499.68 811.42 581.24 956.22 609.40
00041367 00000052 691.78 164.03 410.33 576.86 827.91 362.46 1008.40 396.23 915.35 498.38 806.46 580.31 952.03 608.30
00041368 00000053 690.52 163.37 409.93 573.59 824.61 360.00 1006.56 394.70 911.13 495.99 803.70 578.29 948.43 606.95
00041369 00000054 690.47 161.37 410.71 570.76 822.06 357.80 1003.90 394.43 906.25 492.13 798.94 572.63 944.04 602.95
00041370 00000055 689.54 160.88 413.12 570.21 820.75 357.02 1001.64 394.23 903.12 490.64 796.29 569.92 941.01 600.79
00041371 00000056 689.99 160.19 413.31 571.20 820.85 356.47 1001.45 394.05 902.15 490.73 795.65 569.31 939.71 600.56
00041372 00000057 690.51 161.43 412.52 568.95 820.92 356.12 1001.93 394.33 902.69 489.74 796.34 567.79 941.46 599.44
00041373 00000058 691.17 160.58 410.18 570.03 819.80 359.05 1000.09 396.66 903.33 490.88 798.02 568.86 943.71 600.20
00041374 00000059 692.10 161.36 409.50 571.64 821.08 362.13 1000.62 399.61 904.84 492.45 799.69 571.44 945.97 602.71
00041375 00000060 691.46 162.80 410.47 572.31 820.95 364.21 1000.91 400.38 906.34 494.84 800.62 575.34 946.06 605.57
00041376 00000061 691.57 164.46 410.28 569.98 821.68 366.27 1001.21 403.37 906.81 497.13 803.72 574.97 949.00 605.79
00041377 00000062 692.04 165.18 411.04 566.64 821.97 366.30 1002.01 402.87 906.73 497.35 806.57 573.65 950.66 603.80
00041378 00000063 692.15 163.26 411.27 570.54 822.06 366.74 1000.99 400.42 907.48 499.34 809.34 578.91 946.39 606.78
00041379 00000064 692.43 161.77 411.22 574.00 822.03 366.36 1001.13 398.40 908.41 499.81 812.20 581.88 945.27 608.32
00041380 00000065 692.52 162.44 410.69 571.81 822.18 365.38 1001.98 398.53 908.76 499.31 811.15 579.24 947.40 606.55
00041381 00000066 691.66 163.13 411.36 572.20 822.66 366.51 1002.80 401.15 908.99 499.33 808.01 579.00 948.56 607.69
00041382 00000067 691.73 161.22 411.01 581.86 824.38 367.33 1002.24 401.55 910.39 500.95 810.15 584.19 946.96 612.72
00041383 00000068 692.07 163.60 410.76 579.30 824.52 371.16 1001.34 404.05 910.93 502.65 811.42 585.14 948.66 612.64
00041384 00000069 693.04 167.40 410.83 572.76 823.68 373.88 1003.75 407.99 910.07 503.72 809.92 582.88 953.02 611.27
00041385 00000070 693.21 165.57 411.41 577.70 825.87 374.64 1005.19 406.75 913.25 506.64 815.83 588.59 951.88 615.20
00041386 00000071 693.85 166.67 411.34 578.58 828.80 377.04 1007.22 407.73 916.20 509.81 819.02 593.18 952.02 618.71
00041387 00000072 693.45 166.40 413.34 584.54 832.28 376.30 1008.72 408.34 919.22 511.05 818.57 594.01 953.37 620.77
00041388 00000073 694.61 166.29 414.43 584.89 832.97 377.14 1010.79 409.60 920.70 509.38 817.09 591.82 958.20 618.83
00041389 00000074 694.73 167.36 415.93 582.25 833.59 377.22 1011.84 410.01 921.15 508.84 815.34 590.15 959.76 617.44
00041390 00000075 695.49 163.79 414.79 584.72 834.52 372.24 1011.43 405.50 921.49 505.28 815.26 586.87 959.28 614.42
00041391 00000076 694.70 163.54 416.24 587.15 835.72 369.40 1011.53 403.76 922.10 502.96 816.60 586.08 957.25 614.35
00041392 00000077 697.62 159.56 414.38 587.06 838.75 367.76 1012.89 401.41 925.31 501.59 823.50 586.95 955.65 614.61
00041393 00000078 701.08 159.93 412.74 578.14 839.23 366.27 1016.79 402.05 926.00 498.05 823.49 580.58 960.71 609.69
00041394 00000079 704.86 161.55 412.37 570.90 847.14 366.51 1025.69 403.61 935.38 494.83 828.07 574.35 972.50 604.82
00041395 DELETE   711.06 161.36 408.73 573.15 857.49 376.52 1030.29 409.69 949.44 498.54 841.90 577.26 984.26 604.56
00041396 00000081 714.30 166.52 408.23 569.41 869.18 377.81 1038.19 406.27 965.55 501.70 856.09 583.28 990.81 607.23
00041397 00000082 719.06 168.58 407.00 566.61 873.32 378.47 1045.76 401.02 978.09 503.02 868.83 589.82 1002.10 609.39
00041398 00000083 723.07 162.83 405.52 569.52 879.58 374.69 1051.63 397.68 988.09 501.30 877.00 588.59 1008.38 608.35
00041399 00000084 722.81 160.41 404.93 567.74 882.33 371.81 1052.70 395.27 991.54 499.18 880.95 586.14 1009.06 606.14
00041400 00000085 723.00 155.93 403.55 565.60 878.54 367.93 1050.73 391.99 986.21 495.23 878.31 582.79 1005.59 603.30
00041401 00000086 720.63 152.64 403.37 567.22 874.70 365.66 1046.14 389.06 980.88 492.01 873.99 581.46 1000.05 601.24
00041402 00000087 719.81 152.27 401.99 568.87 870.60 363.50 1043.95 388.03 974.66 489.67 869.14 579.91 996.50 600.45
00041403 00000088 718.90 151.79 401.61 572.69 867.16 363.01 1041.72 385.40 970.77 489.68 865.46 581.52 994.19 600.13
00041404 00000089 718.90 150.91 399.62 570.94 863.39 363.85 1039.32 385.38 967.18 489.07 864.73 581.15 994.02 598.76
00041405 00000090 716.95 152.66 400.78 570.95 863.05 361.32 1038.18 382.60 965.63 488.25 863.02 580.35 991.72 597.78
00041406 00000091 713.79 150.85 402.37 576.74 863.95 358.86 1035.60 380.83 963.96 489.68 862.12 583.51 983.16 601.68
00041407 00000092 712.46 151.55 400.74 575.83 862.04 357.69 1032.39 378.87 960.88 489.39 861.33 584.35 979.35 601.77
00041408 00000093 711.13 150.03 399.93 573.28 855.25 356.06 1029.34 376.87 953.72 487.31 856.58 581.74 977.85 598.54
00041409 00000094 709.17 151.99 398.16 570.76 850.23 355.53 1025.27 376.19 949.59 486.58 852.20 580.39 976.88 596.96
00041410 00000095 704.57 153.72 394.32 570.48 843.25 362.24 1015.56 380.65 943.53 483.40 843.53 576.91 976.61 591.77
00041411 00000096 698.93 151.54 395.75 574.52 837.53 360.26 1011.18 380.48 937.69 484.39 833.42 575.99 970.52 592.51
00041412 00000097 692.87 151.89 399.85 574.20 831.39 358.43 1008.52 378.15 932.48 484.47 826.05 574.60 966.42 590.61
00041413 00000098 691.11 154.93 398.50 567.11 824.00 355.70 1003.70 372.91 925.67 482.67 824.45 572.90 963.65 586.74
00041414 00000099 687.90 156.55 398.61 563.94 817.95 354.75 999.24 369.71 921.05 483.33 821.30 572.72 960.57 584.74
00041415 00000100 686.10 155.77 398.82 566.68 813.98 354.56 996.91 368.49 917.97 485.92 819.30 575.34 957.85 586.57
00041416 00000101 684.82 156.26 398.09 568.72 811.49 355.68 995.84 370.13 915.51 488.68 817.61 577.03 956.82 588.74
00041417 00000102 684.64 157.32 397.77 567.61 809.18 358.30 994.81 371.64 913.66 490.14 818.02 578.43 957.57 589.26
00041418 00000103 684.18 159.87 397.30 567.36 809.70 363.74 994.62 376.59 914.62 495.75 818.75 583.58 957.88 594.22
00041419 00000104 683.67 162.18 398.21 568.27 810.69 369.04 994.40 381.86 915.52 500.87 818.95 587.63 957.95 598.48
00041420 00000105 683.71 165.70 397.93 566.75 813.49 373.26 996.26 387.12 917.56 506.40 821.26 590.47 959.85 602.12
00041421 00000106 683.82 167.74 399.96 566.89 814.82 376.37 997.66 391.93 916.82 511.04 819.62 593.02 960.04 606.21
00041422 00000107 682.18 169.24 402.74 569.65 814.85 380.15 998.19 395.56 916.51 518.30 818.73 597.41 960.80 610.69
00041423 00000108 678.74 180.13 404.74 562.06 809.74 386.25 995.71 402.80 910.38 523.71 809.95 598.25 957.82 612.79
00041424 00000109 675.04 187.22 406.86 557.74 804.21 387.22 990.77 406.87 900.85 526.82 802.30 597.67 950.83 615.03
00041425 00000110 671.13 185.21 410.60 563.64 801.00 387.09 983.29 411.73 893.67 530.26 795.91 597.48 938.87 619.32
00041426 00000111 669.91 181.47 410.65 567.26 795.22 390.26 979.37 414.58 887.01 530.91 790.25 601.01 932.84 622.68
00041427 00000112 670.38 179.68 406.67 566.48 795.68 394.40 976.97 418.22 887.86 530.96 790.90 601.98 931.34 623.17
00041428 00000113 671.47 183.17 407.93 567.09 798.54 395.34 978.75 419.46 890.03 533.39 792.42 602.59 933.04 624.34
00041429 00000114 671.87 185.86 410.12 570.54 802.89 396.88 981.93 422.19 893.35 534.74 792.41 603.18 937.38 626.03
00041430 00000115 671.85 188.40 413.61 577.64 808.03 397.87 986.57 427.13 895.05 537.09 787.15 604.14 939.15 630.17
00041431 00000116 674.58 190.04 412.17 576.59 810.16 400.04 988.71 430.50 896.68 537.44 788.90 604.92 941.71 631.77
00041432 00000117 675.74 189.67 412.71 576.04 811.98 401.00 990.31 432.54 898.21 536.85 792.34 603.86 942.77 631.42
00041433 00000118 678.59 191.61 410.44 568.54 815.79 401.53 992.60 433.28 901.52 536.34 800.28 603.93 942.94 631.48
00041434 00000119 681.05 189.24 410.18 568.07 821.28 401.77 995.89 433.69 905.50 535.64 806.25 603.40 945.29 631.03
00041435 00000120 686.91 183.78 409.07 575.03 829.39 401.81 1003.04 437.62 911.21 533.77 809.48 602.86 950.61 633.41
00041436 00000121 691.02 184.01 414.24 577.85 836.35 400.23 1011.72 438.31 917.16 532.83 811.33 601.37 957.06 633.87
00041437 00000122 693.36 183.50 418.57 581.76 841.89 396.32 1017.23 437.35 921.69 530.79 811.44 598.95 959.72 633.98
00041438 00000123 699.21 174.31 420.81 592.18 852.24 393.96 1024.08 437.85 931.62 530.12 817.69 597.39 962.68 634.71
00041439 00000124 705.84 175.41 421.15 583.05 857.16 395.82 1029.26 434.64 938.27 530.73 830.99 596.48 973.98 629.19
00041440 00000125 713.08 182.53 422.78 571.85 861.77 395.97 1039.35 431.83 948.93 535.99 836.81 597.54 975.81 628.90
00041441 00000126 715.88 185.05 422.03 573.49 862.63 394.34 1043.18 430.26 951.58 535.08 836.82 600.66 979.14 632.18
00041442 00000127 714.83 183.87 421.56 581.04 862.88 394.12 1041.07 432.32 949.37 536.48 833.47 604.41 973.28 637.84
00041443 00000128 715.29 183.34 419.41 580.36 861.42 393.56 1039.19 433.86 945.63 537.19 831.22 603.11 969.37 638.22
00041444 00000129 713.88 181.37 420.90 578.58 860.67 394.46 1037.89 433.54 944.86 537.07 834.17 600.78 971.62 634.85
00041445 00000130 714.78 181.04 419.49 575.24 861.46 396.06 1038.96 434.46 947.02 535.78 835.03 597.81 974.59 631.29
00041446 00000131 711.93 176.59 418.66 580.57 866.99 396.77 1034.75 436.27 947.48 527.92 840.13 593.66 979.94 627.42
00041447 00000132 709.86 177.10 418.98 581.17 866.93 393.72 1034.25 433.03 947.22 528.68 841.49 596.18 978.35 629.21
00041448 00000133 706.18 174.59 421.35 595.97 862.53 391.77 1032.08 434.84 941.60 531.92 828.37 597.69 973.03 634.15
00041449 00000134 701.38 173.75 426.43 595.89 856.67 387.67 1029.16 433.45 933.76 530.93 816.68 591.67 970.12 630.52
00041450 00000135 698.73 170.50 424.58 597.73 852.72 385.63 1026.21 429.55 931.84 526.68 813.99 590.27 969.04 627.47
00041451 00000136 697.34 170.47 422.40 594.31 849.03 383.15 1023.88 426.35 929.39 520.49 813.08 588.86 967.99 625.23
00041452 00000137 697.75 166.19 419.22 591.30 845.75 379.16 1020.76 421.63 926.80 514.74 813.86 585.93 965.98 621.43
00041453 00000138 695.65 164.58 419.08 589.78 842.51 376.21 1016.70 417.65 924.03 513.00 813.62 584.38 962.20 618.89
00041454 00000139 695.86 163.93 416.33 585.02 838.37 376.03 1012.93 416.18 920.34 509.27 812.57 582.98 959.32 616.43
00041455 00000140 694.23 163.96 414.68 580.80 833.60 372.19 1008.74 411.41 915.73 506.02 808.69 581.34 954.35 614.09
00041456 00000141 691.76 164.90 414.47 578.43 826.87 367.96 1004.06 406.06 908.34 502.26 804.26 580.02 949.24 611.80
00041457 00000142 688.40 168.97 415.64 572.95 820.07 368.36 999.24 405.89 901.77 499.16 797.67 577.82 944.68 609.25
00041458 00000143 684.15 173.46 418.04 568.44 813.45 368.38 993.76 404.15 893.99 501.61 791.15 577.13 937.15 607.29
00041459 00000144 682.17 168.66 413.55 573.33 808.09 370.69 984.42 405.28 887.05 502.52 786.13 576.38 931.43 606.00
00041460 00000145 677.11 170.55 413.12 571.90 803.10 379.05 979.84 413.27 881.10 505.18 782.26 575.93 928.35 604.88
00041461 00000146 670.15 167.34 416.40 574.68 797.44 375.26 976.19 407.84 877.77 504.31 778.35 574.74 924.47 602.51
00041462 00000147 666.08 166.78 416.84 574.84 792.45 372.59 970.45 402.88 874.23 502.12 775.62 574.78 921.80 600.59
00041463 00000148 664.09 164.54 416.22 577.25 789.89 371.40 968.04 399.97 872.78 501.72 774.62 575.14 920.08 599.54
00041464 00000149 665.56 166.43 415.89 574.65 790.59 369.48 969.70 398.01 873.03 500.79 774.97 573.94 921.15 598.27
00041465 00000150 666.73 165.25 415.54 578.77 791.91 369.70 971.17 397.83 876.44 500.54 776.40 575.41 923.29 599.56
00041466 00000151 669.81 166.77 416.38 577.45 794.80 369.66 975.47 397.09 880.22 501.46 779.41 576.52 926.69 600.15
00041467 00000152 673.01 166.95 414.61 578.06 798.47 369.64 978.18 397.65 883.97 500.47 782.37 576.85 930.12 601.04
00041468 00000153 677.48 167.30 413.66 578.43 803.52 368.09 982.74 398.16 887.68 500.00 785.01 577.12 932.76 603.05
00041469 00000154 681.46 166.76 413.87 580.04 808.97 368.19 986.01 399.81 890.98 500.06 788.11 577.35 934.46 604.65
00041470 00000155 683.00 165.60 415.84 582.80 814.42 367.51 991.75 401.84 894.80 499.09 790.71 577.91 936.56 607.14
00041471 00000156 685.69 165.53 415.87 583.77 819.40 367.69 995.07 406.15 898.79 498.67 792.15 575.82 940.89 608.22
00041472 00000157 687.25 166.74 414.37 582.03 824.31 368.07 998.76 407.58 903.90 498.30 795.34 576.29 943.57 609.38
00041473 00000158 690.83 165.38 412.69 578.92 827.65 366.11 1003.26 405.61 909.03 496.98 802.25 576.23 948.78 609.07
00041474 00000159 693.31 164.66 412.36 576.69 832.07 360.31 1007.24 396.82 913.86 498.79 812.15 579.81 945.17 609.79
00041475 00000160 695.81 162.57 411.09 576.91 836.11 360.04 1007.64 395.97 917.10 497.93 817.78 579.55 943.86 608.98
00041476 00000161 697.31 162.04 412.11 575.92 838.56 359.29 1010.90 396.84 919.40 495.82 818.49 577.54 946.83 608.39
00041477 00000162 697.02 165.56 413.22 572.74 839.20 360.24 1013.15 399.19 919.53 495.57 816.50 576.42 949.28 608.41
00041478 00000163 697.02 163.58 416.55 580.55 841.09 360.86 1015.94 402.91 920.23 497.09 813.21 577.24 952.40 611.72
00041479 00000164 697.69 162.15 416.93 588.69 844.19 363.85 1019.72 408.96 924.58 498.31 809.44 578.75 956.24 615.91
00041480 00000165 698.56 163.58 419.77 587.13 850.19 363.76 1023.98 410.63 930.93 498.99 812.33 577.39 960.23 616.26
00041481 00000166 702.42 158.80 418.91 589.21 856.51 366.36 1027.86 412.92 939.30 498.91 820.22 577.18 966.05 615.72
00041482 DELETE   707.88 155.96 416.91 589.25 867.84 368.22 1035.81 409.02 956.38 499.79 836.40 578.73 976.58 612.53
00041483 00000168 713.37 159.44 411.82 578.89 875.42 369.49 1042.03 407.65 968.49 497.44 848.67 576.52 984.65 608.59
00041484 00000169 716.53 161.33 411.75 573.53 879.38 366.76 1047.41 403.46 975.79 494.75 857.58 576.69 991.89 607.62
