Video ID: 	wabwytmOLxg
H: 	1080
W: 	1920
FPS: 	23.976023976023978

FRAME INDEX X0 Y0 W H [Landmarks (5 Points)]

00000087 00000000 719.42 238.31 338.23 511.24 870.84 467.86 1010.01 463.77 983.18 541.04 887.93 631.31 998.61 630.09
00000088 00000001 715.50 231.43 339.25 508.23 866.88 461.25 1017.41 463.33 980.75 532.84 885.13 619.02 1004.75 621.41
00000089 00000002 710.28 213.62 343.42 513.20 860.50 446.56 1017.39 448.75 976.89 521.66 885.79 613.69 1002.82 615.94
00000090 00000003 710.42 206.25 340.14 515.91 859.06 442.00 1013.13 439.86 975.18 514.04 888.39 612.21 999.37 611.03
00000091 00000004 711.82 199.74 337.57 518.80 858.01 439.63 1011.43 436.90 972.29 510.88 888.49 610.46 998.06 608.87
00000092 00000005 709.13 198.36 340.22 526.79 856.24 436.29 1006.98 435.72 968.90 507.44 881.68 608.35 992.07 608.96
00000093 00000006 707.05 197.56 342.31 531.66 857.49 436.02 1010.53 437.15 972.23 511.73 875.38 605.65 992.65 607.95
00000094 00000007 706.15 200.89 343.28 528.22 857.68 438.37 1011.00 439.08 972.58 515.80 873.31 605.86 992.05 607.82
00000095 00000008 704.53 205.04 344.83 524.55 858.58 440.69 1013.65 443.03 975.69 518.16 872.08 606.97 992.86 610.14
00000096 00000009 704.24 210.11 344.93 521.30 860.60 443.67 1013.82 447.16 976.70 522.72 872.47 608.37 991.29 612.48
00000097 00000010 702.49 218.49 338.76 513.86 865.01 447.60 1003.10 449.23 972.18 528.37 873.71 611.50 987.65 615.97
00000098 00000011 705.33 223.82 336.68 510.87 868.00 453.63 1005.45 456.30 974.10 532.46 875.88 613.90 988.96 619.66
00000099 00000012 717.26 226.55 332.53 514.70 877.65 462.08 1013.59 465.47 983.25 545.73 882.14 618.17 997.06 623.17
00000100 00000013 722.62 230.49 331.30 514.49 884.27 465.35 1020.14 466.66 992.33 551.16 887.72 622.48 1004.15 626.14
00000101 00000014 726.58 238.58 331.76 507.08 881.43 467.07 1013.48 463.03 991.40 543.31 890.94 627.51 996.30 627.12
00000102 00000015 732.84 241.86 333.16 507.12 885.67 469.30 1023.60 462.68 1000.57 549.56 893.00 632.53 1004.68 630.56
00000103 00000016 739.77 246.10 332.59 504.81 889.66 470.64 1032.78 463.15 1007.01 553.09 903.81 640.10 1013.50 636.70
00000104 00000017 748.99 244.54 330.82 506.73 897.09 473.82 1041.71 465.86 1015.73 557.51 913.29 644.22 1021.96 641.27
00000105 DELETE   753.85 248.62 332.10 513.32 907.76 477.92 1049.24 472.49 1024.06 564.98 918.50 650.99 1025.49 650.30
00000106 00000019 758.32 254.96 335.87 522.05 922.09 477.55 1059.29 478.00 1036.54 576.23 926.00 661.70 1026.90 665.63
00000107 00000020 759.24 260.06 345.00 519.67 930.82 486.09 1070.25 483.21 1039.52 589.83 931.24 668.82 1033.00 667.23
00000108 00000021 765.60 266.01 346.86 516.17 937.87 493.67 1082.25 494.20 1047.56 596.47 934.47 671.07 1038.32 672.82
00000109 00000022 774.23 271.46 344.30 515.51 939.76 497.46 1088.35 497.41 1052.76 605.76 934.62 677.56 1039.54 679.43
00000110 00000023 775.51 275.03 346.76 516.47 942.35 499.71 1090.89 499.94 1056.33 610.36 935.49 678.57 1039.42 680.81
00000111 00000024 776.83 285.11 346.18 509.06 944.96 503.98 1092.81 504.75 1057.83 613.83 938.50 680.20 1041.65 682.62
00000112 00000025 779.33 289.12 344.36 506.36 946.26 506.96 1092.58 506.22 1058.47 616.50 941.12 682.92 1041.08 683.94
00000113 00000026 775.73 292.19 349.42 501.97 952.45 510.55 1084.15 510.41 1058.81 618.21 940.21 685.79 1040.94 688.93
00000114 00000027 777.79 300.58 346.73 490.99 950.84 515.72 1084.01 513.36 1060.13 618.66 943.10 689.76 1044.18 691.05
00000115 00000028 777.09 304.07 345.53 492.98 949.68 518.82 1084.60 516.26 1060.67 623.04 941.80 694.03 1045.79 695.44
00000116 00000029 775.10 306.31 346.02 495.74 949.74 523.45 1083.99 518.75 1060.27 628.68 941.50 698.23 1045.30 698.27
00000117 00000030 775.51 308.63 345.67 497.47 949.17 528.63 1082.74 523.40 1059.07 634.75 941.06 704.64 1043.30 704.17
00000118 00000031 776.67 314.58 344.97 500.94 950.94 534.01 1083.03 529.34 1060.37 642.90 942.38 712.75 1041.54 712.63
00000119 00000032 775.80 326.00 348.24 493.71 951.80 539.84 1083.86 536.99 1058.32 652.66 942.70 720.73 1038.50 721.67
00000120 00000033 773.14 331.29 349.76 492.78 952.26 545.61 1082.70 542.31 1057.50 657.62 943.77 725.23 1037.22 725.85
00000121 00000034 771.05 328.30 347.33 494.43 949.22 544.63 1080.96 541.69 1055.59 659.16 941.23 727.40 1034.02 727.90
00000122 00000035 768.42 325.38 347.92 497.27 945.20 537.08 1081.97 543.84 1052.89 660.49 933.36 715.97 1032.19 724.83
00000123 00000036 762.04 319.03 347.45 499.77 938.11 532.55 1076.62 539.40 1046.51 655.06 928.39 711.50 1029.70 720.14
00000124 00000037 762.05 324.47 345.91 499.54 921.96 531.85 1071.05 539.09 1030.05 648.08 914.69 719.00 1020.54 729.42
00000125 00000038 758.05 327.23 345.44 506.05 917.54 537.09 1063.40 543.36 1026.41 647.37 900.26 714.06 1013.78 724.65
00000126 00000039 755.77 332.23 341.32 500.86 915.21 544.68 1056.21 547.47 1021.77 645.77 892.76 709.62 1009.31 718.13
00000127 00000040 751.95 329.85 338.61 500.21 909.86 548.94 1050.78 548.28 1018.81 645.15 890.41 708.56 1007.91 714.42
00000128 00000041 747.55 330.15 336.17 489.55 901.08 554.71 1044.32 549.65 1012.33 642.83 886.06 706.12 1004.96 708.43
00000129 00000042 742.54 327.90 336.50 486.92 894.57 556.34 1037.75 550.93 1002.86 641.01 883.45 705.79 1000.56 706.63
00000130 00000043 733.01 326.76 336.94 489.95 887.35 556.21 1029.96 547.26 998.20 641.03 880.62 706.87 996.71 703.63
00000131 DELETE   722.69 315.31 340.12 500.00 886.99 553.43 1021.85 546.69 993.53 640.55 879.17 705.59 993.99 703.89
00000132 00000045 717.31 314.02 340.76 499.67 881.35 549.86 1016.41 546.03 984.85 637.99 875.45 703.64 988.88 703.66
00000133 00000046 712.35 309.60 341.43 502.01 877.91 547.76 1011.66 542.29 982.91 636.21 872.78 704.66 984.01 703.93
00000134 00000047 706.38 307.62 340.74 502.81 872.60 546.93 1007.92 541.44 979.89 635.79 867.98 705.88 980.44 705.44
00000135 00000048 704.46 311.01 340.65 495.53 870.26 545.51 1004.51 539.86 977.22 632.52 864.69 703.34 976.14 703.07
00000136 00000049 699.07 307.56 346.24 503.85 871.33 539.85 1010.21 542.08 979.03 639.33 860.24 694.14 978.69 699.46
00000137 00000050 695.96 304.86 346.43 511.39 871.43 539.90 1007.78 542.42 979.42 639.63 857.47 694.03 975.80 699.90
00000138 00000051 695.95 305.08 346.65 515.78 871.91 541.94 1006.44 543.34 979.80 641.66 855.11 696.01 972.52 701.31
00000139 00000052 695.52 307.71 346.72 512.81 871.76 542.63 1006.71 544.49 980.31 642.53 854.36 696.97 972.85 702.52
00000140 00000053 697.89 306.04 345.35 509.28 871.74 543.41 1007.85 544.81 979.03 641.97 860.30 697.92 974.55 702.96
00000141 00000054 700.29 306.83 344.06 504.27 870.78 543.78 1010.43 545.50 979.77 641.48 866.85 700.85 978.73 705.50
00000142 00000055 701.72 306.77 342.71 505.40 873.21 544.38 1010.36 545.97 981.23 640.75 872.02 702.87 978.11 707.46
00000143 00000056 703.58 308.30 340.26 510.02 876.60 544.32 1009.86 544.98 983.75 640.85 869.63 702.94 974.66 707.45
00000144 00000057 702.93 309.87 342.73 513.74 876.96 543.95 1010.86 544.77 985.11 642.02 863.56 703.03 973.17 707.90
00000145 00000058 707.26 311.36 338.48 504.03 874.54 539.55 1010.80 543.55 981.91 638.51 864.39 697.55 978.07 704.37
00000146 00000059 704.60 305.85 345.19 498.74 869.11 539.08 1006.43 534.76 973.93 628.86 869.85 700.16 981.02 700.04
00000147 00000060 705.99 299.18 342.87 496.46 867.88 533.96 1008.28 529.83 972.97 619.81 866.41 689.74 980.10 690.28
00000148 00000061 703.58 286.19 345.59 500.81 867.33 526.77 1009.16 522.18 971.77 616.20 870.77 686.40 976.83 685.82
00000149 00000062 706.36 278.35 345.54 499.65 858.27 523.77 1014.87 517.60 965.60 607.18 869.16 677.71 978.90 673.09
00000150 00000063 702.14 272.69 349.36 505.82 855.85 513.66 1013.49 508.47 962.49 605.88 863.55 675.33 974.58 671.90
00000151 00000064 699.95 272.07 353.90 510.16 854.57 507.49 1013.85 504.32 960.57 608.27 859.18 674.21 972.90 672.78
00000152 00000065 698.71 276.74 356.52 502.88 853.61 506.02 1015.47 501.16 960.64 608.67 859.04 675.60 973.45 672.66
00000153 00000066 700.43 278.58 353.42 500.07 853.81 506.35 1017.04 499.39 963.29 610.98 860.67 676.31 976.97 671.71
00000154 00000067 704.11 283.90 350.17 494.40 854.55 510.02 1018.50 501.71 964.35 612.22 863.50 677.38 979.48 671.72
00000155 00000068 705.96 288.27 346.71 494.58 855.56 519.56 1015.29 512.59 962.86 614.05 864.54 678.21 980.24 673.38
00000156 00000069 706.05 282.59 346.99 500.73 861.87 519.16 1009.29 511.50 966.61 613.89 869.09 682.39 979.17 679.23
00000157 00000070 709.91 283.89 344.74 499.65 854.35 516.16 1018.10 507.57 964.18 612.42 871.19 681.51 986.69 675.29
00000158 00000071 709.63 275.94 344.50 505.99 853.62 506.94 1017.15 496.05 966.91 608.25 873.51 679.82 989.47 672.08
00000159 00000072 711.56 269.83 342.81 508.59 853.60 498.67 1013.31 488.56 965.09 599.34 874.79 672.96 988.92 665.82
00000160 00000073 713.64 265.33 343.70 508.54 856.83 489.81 1010.44 481.91 963.15 590.91 877.92 667.21 983.62 661.90
00000161 00000074 717.38 260.12 342.72 505.78 860.52 481.22 1008.93 472.61 965.21 578.93 882.19 657.00 985.84 651.01
00000162 00000075 717.90 249.61 341.81 511.53 862.26 469.86 1009.66 461.22 968.26 566.38 887.51 650.40 988.67 644.07
00000163 00000076 713.66 236.50 344.30 518.83 863.73 465.24 1014.38 458.01 972.59 562.50 892.68 649.59 997.04 644.91
00000164 00000077 715.31 234.55 344.77 521.10 866.91 461.67 1016.58 454.80 975.72 560.62 894.95 649.97 996.65 645.38
00000165 00000078 719.59 240.19 338.44 522.20 869.64 456.90 1008.72 448.40 974.17 556.63 885.75 647.36 981.73 641.99
00000166 00000079 718.44 241.71 340.44 524.52 871.11 457.39 1010.53 451.51 975.20 559.35 878.25 646.63 979.21 643.80
00000167 00000080 719.37 243.58 343.07 514.48 870.60 460.16 1015.11 455.18 975.91 562.31 878.60 646.12 980.12 643.54
00000168 00000081 716.17 249.66 345.64 503.30 868.87 465.36 1018.25 463.22 974.23 569.49 876.99 646.83 981.77 645.59
00000169 00000082 717.95 253.86 346.00 500.47 870.39 468.12 1019.58 469.27 972.65 572.70 876.66 648.49 980.50 649.93
00000170 00000083 721.36 257.44 345.81 503.88 875.87 469.19 1022.63 471.80 976.07 577.21 877.00 652.76 976.60 656.11
00000171 00000084 724.20 260.44 347.06 506.67 879.48 468.28 1027.19 473.96 978.37 578.69 874.63 653.11 976.32 659.31
00000172 00000085 726.61 264.09 349.42 503.14 882.54 471.45 1031.65 478.51 982.50 579.95 874.19 649.55 981.98 657.49
00000173 00000086 728.87 268.22 350.26 498.55 885.92 473.70 1034.74 479.97 987.91 581.29 875.59 647.34 985.86 655.23
00000174 00000087 733.21 269.79 348.32 496.10 889.04 474.90 1034.87 482.09 989.92 581.46 881.28 646.94 988.07 655.66
00000175 00000088 737.56 269.58 346.79 493.13 890.79 475.19 1039.16 482.36 993.40 581.06 883.91 645.84 993.21 654.75
00000176 00000089 741.29 271.85 346.50 488.16 892.50 474.88 1043.13 481.11 996.72 581.97 887.60 646.59 997.27 654.89
00000177 00000090 744.14 269.23 345.92 491.32 892.95 473.21 1045.29 479.35 998.59 581.07 888.95 647.24 1001.26 655.70
00000178 00000091 747.38 267.54 345.42 493.05 896.99 470.72 1047.39 479.46 1001.20 579.43 892.92 645.30 1003.99 655.98
00000179 00000092 750.12 262.62 345.69 496.23 899.31 469.32 1050.27 477.94 1005.11 578.28 894.71 644.26 1008.01 655.21
00000180 00000093 752.51 259.32 344.24 497.99 899.90 467.35 1050.59 476.17 1006.34 576.70 896.24 643.99 1008.73 655.07
00000181 00000094 752.57 256.33 344.55 500.50 899.91 464.78 1051.05 475.30 1006.55 574.47 895.48 642.30 1009.35 654.84
00000182 00000095 751.70 252.51 344.64 504.19 899.83 464.03 1049.34 474.27 1007.49 571.05 894.84 640.83 1009.18 653.15
00000183 00000096 749.66 249.75 345.13 510.85 900.95 460.52 1046.11 471.27 1009.19 566.56 892.16 636.69 1007.57 649.53
00000184 00000097 747.35 241.08 345.30 519.07 900.38 457.09 1042.86 463.38 1011.71 562.38 889.70 631.94 1008.84 641.72
00000185 00000098 748.08 237.45 342.05 518.26 901.62 453.40 1041.88 459.53 1012.37 554.98 890.95 627.40 1008.87 637.22
00000186 00000099 745.41 233.66 339.58 517.03 901.56 452.01 1038.60 457.57 1014.48 546.98 895.62 624.03 1009.52 633.20
00000187 00000100 741.02 231.01 344.10 517.13 898.34 455.75 1036.97 456.10 1014.01 543.14 895.54 622.36 1011.20 627.30
00000188 00000101 738.42 230.61 341.35 518.06 898.85 459.90 1038.90 462.50 1012.97 535.38 896.74 618.27 1014.97 622.63
00000189 00000102 740.80 227.31 337.06 519.86 896.47 457.36 1039.79 460.09 1012.72 529.76 896.35 615.18 1019.23 619.49
00000190 00000103 737.52 220.11 341.33 524.15 894.32 454.86 1041.34 454.82 1015.06 523.28 897.59 613.52 1022.89 615.60
00000191 00000104 737.73 216.73 341.39 525.70 892.46 453.24 1040.62 449.05 1014.72 520.57 896.70 612.88 1023.73 611.71
00000192 00000105 736.12 212.32 341.43 528.69 891.29 452.51 1039.04 444.81 1015.51 518.60 898.02 612.51 1024.68 608.47
00000193 00000106 733.89 207.85 342.63 532.69 889.82 452.34 1037.11 442.73 1014.72 517.74 899.19 612.94 1025.68 607.11
00000194 00000107 731.98 208.12 343.16 532.08 889.13 453.47 1035.93 443.89 1014.57 517.55 900.19 613.10 1025.90 607.09
00000195 00000108 731.05 209.78 344.48 530.45 890.71 456.25 1035.56 444.52 1017.11 519.08 903.03 614.14 1026.63 606.48
00000196 00000109 732.53 214.16 344.22 521.30 893.10 459.12 1038.68 447.40 1019.33 520.19 908.55 614.69 1030.59 606.86
00000197 00000110 732.64 217.06 345.79 517.29 893.00 458.35 1039.67 446.38 1018.70 521.34 911.14 615.56 1031.74 607.22
00000198 00000111 732.87 218.50 348.12 516.99 894.16 458.23 1039.98 445.11 1020.32 521.15 913.32 616.95 1033.60 607.50
00000199 00000112 731.61 211.09 348.68 525.50 892.90 451.55 1039.74 437.74 1020.94 520.71 915.09 618.04 1035.01 607.78
00000200 00000113 731.75 210.97 346.99 526.64 891.99 450.69 1038.86 435.94 1021.27 521.09 915.08 618.85 1034.82 607.90
00000201 00000114 733.44 210.38 344.50 531.92 893.60 451.96 1037.06 435.60 1021.06 522.75 914.43 620.37 1033.96 608.04
00000202 00000115 732.96 215.35 343.72 533.52 894.66 453.72 1035.20 436.50 1022.62 526.14 913.02 623.32 1030.25 610.46
00000203 00000116 734.02 214.54 345.11 533.05 896.26 451.97 1034.11 439.28 1027.72 528.85 911.31 628.29 1025.51 621.61
00000204 00000117 735.13 216.15 344.23 532.69 897.70 452.82 1034.83 440.27 1029.15 530.43 910.84 628.37 1025.90 621.99
00000205 00000118 736.02 217.84 342.73 530.82 898.84 453.62 1035.55 441.40 1029.85 532.85 910.03 629.12 1025.58 623.35
00000206 00000119 735.76 218.10 342.89 530.64 897.98 454.00 1036.23 441.00 1029.70 534.31 910.48 630.33 1026.26 623.84
00000207 00000120 736.38 218.59 342.27 529.73 897.97 455.41 1034.88 441.82 1028.12 535.25 912.94 631.98 1025.68 624.81
00000208 00000121 737.73 219.54 340.73 526.18 897.23 455.45 1035.07 440.85 1025.76 535.86 917.26 633.93 1026.83 625.40
00000209 00000122 738.13 221.59 340.23 523.75 896.95 455.96 1035.47 440.59 1025.32 535.16 920.55 633.94 1029.73 624.33
00000210 00000123 739.54 222.05 340.22 520.51 896.84 455.75 1037.65 440.95 1024.67 534.71 924.08 633.89 1033.45 624.10
00000211 00000124 739.60 221.38 340.06 521.20 896.30 455.68 1037.41 441.53 1023.39 535.05 926.55 634.90 1034.61 625.34
00000212 00000125 738.66 220.87 339.67 519.78 895.02 454.77 1037.18 440.60 1021.52 535.10 928.00 636.16 1034.28 626.27
00000213 00000126 737.30 220.89 339.76 520.14 893.48 454.90 1035.75 439.12 1020.38 535.25 928.50 637.01 1033.70 625.54
00000214 00000127 734.09 222.07 341.35 519.81 893.64 460.30 1035.73 442.02 1018.24 539.41 928.61 635.95 1034.20 621.31
00000215 00000128 732.98 220.47 340.07 519.70 892.30 458.26 1033.77 441.08 1016.34 538.57 929.30 636.16 1031.63 622.39
00000216 00000129 733.02 214.62 336.59 528.42 889.72 451.15 1029.13 435.71 1011.16 530.88 926.30 634.54 1026.60 622.07
00000217 00000130 729.07 203.44 338.93 536.02 882.03 442.26 1026.98 427.36 1006.71 524.11 923.38 632.19 1024.57 620.12
00000218 00000131 726.86 195.60 339.09 534.94 875.95 435.86 1026.13 423.85 1002.92 515.70 919.37 624.83 1024.78 615.33
00000219 00000132 723.97 191.23 340.90 526.90 871.82 429.77 1022.78 417.58 1000.04 507.21 919.61 616.02 1023.35 606.80
00000220 00000133 719.98 184.43 339.34 527.75 868.75 423.59 1013.43 409.54 996.10 497.48 916.69 606.18 1016.76 595.96
00000221 00000134 719.48 179.94 337.90 530.65 865.83 417.27 1004.80 401.78 989.42 486.79 907.90 593.16 1010.34 582.42
00000222 00000135 717.49 179.58 339.16 528.84 865.84 413.11 1003.71 399.45 987.97 479.10 897.82 580.04 1008.67 571.26
00000223 00000136 714.73 179.74 337.40 523.61 866.30 423.42 1002.84 412.76 986.38 478.49 899.51 580.23 1006.64 574.22
00000224 00000137 717.69 178.45 338.71 520.29 870.48 424.89 1007.26 415.64 992.67 474.30 910.44 582.00 1016.22 576.54
00000225 00000138 720.68 176.56 342.65 515.48 876.48 418.55 1010.35 406.74 1002.62 469.22 921.48 579.55 1026.46 571.43
00000226 00000139 725.54 170.46 338.67 520.49 884.84 409.99 1014.82 396.26 1010.89 465.88 932.49 578.31 1030.83 568.24
00000227 00000140 728.84 166.81 335.76 527.01 890.15 404.47 1019.27 394.09 1017.27 466.07 934.52 578.25 1031.48 571.05
00000228 DELETE   733.00 171.57 336.56 525.11 894.63 405.55 1029.42 401.01 1021.68 472.33 927.59 577.37 1032.94 574.89
00000229 00000142 737.64 176.29 332.49 521.83 898.36 408.96 1035.72 409.08 1026.86 475.94 926.45 576.65 1035.85 577.96
00000230 00000143 745.58 174.69 328.09 524.37 910.47 409.26 1044.49 408.09 1036.45 483.42 931.27 579.45 1036.01 580.41
00000231 00000144 754.11 173.59 324.93 530.67 920.78 407.30 1057.53 410.41 1048.24 487.46 937.52 582.98 1045.92 587.34
00000232 00000145 756.80 173.53 326.25 535.49 925.91 407.21 1061.35 410.26 1054.51 492.18 941.63 585.86 1050.11 590.05
00000233 00000146 758.73 177.89 324.74 538.57 930.13 410.72 1060.11 414.51 1055.68 496.48 943.98 591.42 1046.61 596.28
00000234 00000147 760.01 185.69 322.89 537.31 935.34 411.95 1060.40 417.01 1058.04 502.18 942.34 594.87 1040.22 600.83
00000235 00000148 759.30 190.36 327.16 535.87 940.18 416.38 1064.13 419.94 1063.54 508.43 943.36 598.63 1040.09 603.39
00000236 00000149 762.75 194.99 324.88 537.71 945.07 432.06 1064.14 426.68 1069.48 523.75 945.17 609.52 1040.42 607.25
00000237 DELETE   758.78 199.57 317.45 522.88 949.01 438.80 1057.47 435.53 1074.38 527.90 957.24 606.61 1043.02 609.42
00000238 DELETE   761.78 222.95 330.98 509.12 952.83 455.44 1065.78 445.89 1069.38 547.52 959.78 630.13 1049.72 625.93
00000239 DELETE   772.84 218.88 327.62 533.61 958.47 467.83 1080.02 455.34 1082.33 562.83 967.61 652.63 1063.60 647.09
00000240 00000153 784.23 240.48 323.96 519.00 973.58 469.58 1090.09 466.11 1099.18 576.33 984.45 654.13 1069.75 655.39
00000241 DELETE   796.22 255.23 328.84 527.08 969.38 485.70 1097.95 484.15 1098.58 574.03 988.22 666.44 1074.35 667.22
00000242 DELETE   809.15 261.16 327.44 539.70 988.21 486.29 1109.72 482.38 1118.74 590.05 998.31 684.21 1086.79 682.94
00000243 00000156 819.13 261.22 322.11 546.87 998.69 496.17 1112.98 496.01 1126.04 598.31 1001.67 690.29 1082.00 692.75
00000244 00000157 819.31 266.15 327.38 546.44 1006.50 498.07 1120.09 508.07 1131.29 606.36 1001.46 690.77 1082.38 701.75
00000245 00000158 818.21 274.33 333.93 544.15 1013.33 504.98 1126.09 520.98 1131.93 617.86 999.18 691.72 1081.26 708.02
00000246 00000159 820.60 285.19 328.13 536.90 1017.71 511.40 1130.79 531.34 1129.61 629.28 996.49 697.50 1077.68 717.20
00000247 00000160 822.55 279.70 326.28 543.48 1019.80 518.42 1129.26 536.86 1127.56 634.40 994.04 700.26 1071.37 718.93
00000248 00000161 821.31 287.64 327.68 538.17 1022.52 521.68 1129.03 537.25 1129.57 639.40 995.46 704.31 1071.46 720.55
00000249 00000162 820.27 286.90 329.20 537.64 1022.02 525.74 1130.37 537.46 1131.99 638.78 1000.30 705.43 1077.25 718.46
00000250 00000163 824.35 285.95 326.07 534.87 1020.90 526.82 1131.83 535.22 1131.92 636.69 1004.36 707.52 1080.35 717.45
00000251 00000164 824.22 284.38 327.17 535.66 1017.49 527.99 1133.13 535.15 1131.45 634.59 1006.65 708.67 1085.29 717.53
00000252 00000165 823.65 282.76 327.82 536.69 1017.49 526.93 1130.59 534.51 1130.11 635.20 1005.00 710.56 1081.16 719.58
00000253 00000166 826.07 294.58 323.99 528.22 1020.80 529.56 1129.48 532.41 1130.61 644.26 1005.07 718.59 1077.35 723.64
00000254 00000167 821.08 315.88 332.22 512.45 1019.65 533.33 1128.77 535.39 1126.89 651.56 1006.57 726.33 1079.36 730.48
