Video ID: 	8FIT_OvbAIo
H: 	1080
W: 	1920
FPS: 	25.0

FRAME INDEX X0 Y0 W H [Landmarks (5 Points)]

00000501 00000000 919.53 186.39 373.59 507.83 963.93 402.31 1088.20 364.03 979.76 461.90 997.47 576.76 1102.09 545.75
00000502 00000001 918.84 184.90 373.53 508.87 963.26 403.25 1087.24 364.80 977.83 461.36 995.70 577.22 1100.83 546.10
00000503 00000002 919.48 186.48 371.47 505.76 962.30 402.44 1087.03 365.15 977.76 461.92 993.39 576.04 1101.07 545.82
00000504 00000003 918.64 186.39 370.81 506.94 961.79 401.56 1086.54 364.16 977.20 461.44 993.07 576.06 1100.32 545.68
00000505 00000004 918.99 188.03 368.64 511.18 962.89 398.32 1086.42 363.27 977.69 462.45 996.02 576.57 1100.85 547.52
00000506 00000005 918.54 187.62 371.22 512.29 963.46 396.48 1089.97 361.25 981.68 461.47 998.07 577.04 1104.39 547.79
00000507 00000006 919.04 185.86 371.56 514.53 964.46 396.56 1094.66 359.68 988.25 460.72 1000.18 576.86 1109.01 546.24
00000508 00000007 918.61 183.85 374.39 515.95 965.28 394.73 1102.74 357.80 996.31 459.18 1002.42 575.76 1116.75 544.97
00000509 00000008 918.33 179.53 378.62 520.38 968.06 394.36 1108.57 356.89 1002.32 457.60 1004.75 574.55 1121.48 543.46
00000510 00000009 920.12 176.20 378.70 523.52 971.19 389.50 1113.65 355.60 1011.17 459.78 1009.53 572.38 1130.32 544.06
00000511 00000010 922.70 176.36 377.51 522.10 974.35 388.06 1117.88 354.55 1015.20 458.55 1012.90 571.08 1135.70 543.11
00000512 00000011 921.77 177.46 376.06 517.95 972.72 388.91 1116.85 354.33 1013.39 456.13 1011.40 569.06 1133.43 540.20
00000513 00000012 924.15 173.99 377.33 519.04 969.66 387.05 1115.23 352.70 1009.03 453.25 1009.69 566.47 1124.28 537.42
00000514 00000013 917.48 177.00 380.09 505.75 967.32 382.97 1115.02 348.18 1008.93 452.79 1009.40 567.46 1130.23 539.52
00000515 00000014 915.89 177.38 381.06 505.55 966.18 384.48 1113.33 348.34 1008.10 452.25 1008.33 567.04 1128.87 538.03
00000516 00000015 915.27 177.15 380.50 507.16 965.29 384.99 1111.36 348.09 1007.68 452.67 1008.71 569.19 1127.40 539.65
00000517 00000016 913.13 176.50 381.60 508.88 960.91 388.19 1108.08 347.40 1004.53 452.65 1005.28 572.97 1124.61 540.64
00000518 00000017 911.20 175.66 377.76 508.54 959.17 391.90 1104.02 352.25 1001.62 455.06 1002.19 573.48 1118.27 542.24
00000519 DELETE   908.84 184.79 375.70 503.05 964.26 406.79 1100.29 365.26 995.52 450.38 999.53 572.80 1109.61 538.45
00000520 DELETE   906.47 188.37 374.87 497.87 963.47 412.02 1095.82 368.56 991.65 449.82 997.22 574.04 1105.70 538.21
00000521 00000020 905.19 185.83 373.67 497.71 958.93 407.63 1090.29 363.87 984.83 449.07 992.49 572.11 1102.36 536.20
00000522 00000021 902.18 178.29 373.61 507.56 938.97 398.09 1081.92 352.38 976.04 453.78 984.92 575.27 1100.99 540.43
00000523 00000022 900.19 176.00 373.27 510.29 936.04 398.23 1079.77 352.10 973.24 453.02 982.30 575.78 1096.77 540.86
00000524 00000023 893.55 180.45 377.07 505.10 944.35 396.68 1078.81 357.91 974.22 451.91 978.80 569.52 1093.08 538.81
00000525 00000024 893.72 181.21 377.06 501.43 942.78 395.41 1077.95 357.58 972.11 452.03 977.33 568.79 1091.35 538.82
00000526 00000025 892.97 181.80 377.32 503.75 942.41 396.31 1076.03 358.39 971.09 453.41 977.85 569.69 1091.83 539.58
00000527 00000026 891.65 182.53 375.23 504.30 939.50 398.06 1072.17 358.86 968.00 455.57 976.24 572.36 1090.00 540.90
00000528 00000027 890.26 186.91 375.07 501.42 938.64 399.11 1070.54 360.19 966.87 457.33 975.18 573.39 1087.68 542.14
00000529 00000028 891.44 187.35 374.12 503.06 938.98 399.22 1069.00 361.24 966.03 459.28 975.94 573.38 1088.32 542.81
00000530 00000029 891.46 185.18 373.53 505.42 937.99 397.67 1067.71 360.42 964.51 459.93 976.30 573.40 1088.09 543.43
00000531 00000030 890.88 182.14 375.43 509.13 937.32 396.18 1066.69 360.18 961.85 460.12 973.47 573.98 1082.91 545.41
00000532 00000031 891.81 181.28 375.67 511.30 935.92 397.10 1064.26 363.85 959.33 466.37 971.45 576.50 1079.77 550.18
00000533 00000032 898.20 189.39 370.31 506.19 937.83 402.49 1066.31 366.80 957.61 473.00 977.02 585.37 1081.55 556.58
00000534 00000033 894.86 190.42 374.95 516.96 938.30 405.57 1062.37 373.84 958.31 478.58 974.79 586.68 1080.49 561.34
00000535 00000034 900.80 187.47 369.82 519.61 928.76 410.30 1070.55 374.63 957.58 477.82 972.55 591.23 1081.14 565.39
00000536 DELETE   904.36 185.21 366.03 515.40 931.44 409.02 1070.79 374.54 956.81 474.75 973.13 586.81 1079.48 562.12
00000537 DELETE   905.84 178.36 362.87 518.81 929.42 405.91 1068.74 369.95 952.46 471.27 969.64 586.20 1074.18 560.76
00000538 00000037 907.28 176.40 362.38 520.40 929.94 399.50 1068.37 367.70 951.22 472.20 967.68 584.84 1070.37 563.02
00000539 00000038 906.40 176.78 363.53 520.92 929.31 397.97 1068.12 369.32 948.92 474.65 965.06 584.77 1068.60 565.52
00000540 00000039 906.81 177.36 364.26 523.65 930.31 398.54 1069.47 373.66 949.54 478.57 965.07 586.04 1069.17 569.65
00000541 00000040 910.74 180.06 362.47 523.64 933.61 397.39 1071.32 376.78 951.28 483.22 968.48 586.85 1073.30 573.70
00000542 00000041 911.10 181.56 362.87 525.83 933.89 399.86 1071.72 381.16 952.40 486.52 968.66 589.20 1073.28 577.37
00000543 00000042 912.42 184.41 363.03 525.49 935.80 399.52 1072.87 382.27 952.03 487.92 969.87 590.31 1074.99 579.44
00000544 00000043 913.65 183.30 362.69 528.75 937.90 399.56 1073.97 383.70 952.96 489.02 970.18 591.43 1076.04 581.65
00000545 00000044 912.42 180.18 362.65 534.00 936.66 399.81 1073.81 384.74 953.20 490.38 969.57 591.95 1076.41 582.75
00000546 00000045 913.04 183.03 361.29 531.48 938.21 399.79 1074.64 385.02 954.63 490.14 970.97 591.23 1078.16 582.12
00000547 00000046 913.09 184.89 362.09 529.76 939.01 400.33 1075.49 385.34 955.55 490.46 972.07 591.53 1079.36 582.17
00000548 00000047 912.42 183.64 363.07 532.06 938.48 400.51 1074.91 386.00 954.11 490.85 971.17 592.10 1078.64 583.11
00000549 00000048 912.97 184.46 362.86 530.72 939.19 400.85 1075.78 385.49 955.74 490.44 972.02 592.12 1080.01 582.47
00000550 00000049 914.24 185.30 360.92 527.88 939.53 400.89 1075.90 384.58 956.15 489.54 971.88 591.59 1080.56 581.27
00000551 00000050 915.16 186.08 361.03 526.25 939.94 402.19 1075.84 383.63 956.05 488.63 972.83 592.02 1082.02 579.91
00000552 00000051 915.30 186.59 360.86 524.45 939.78 402.51 1075.88 382.38 955.97 487.13 973.31 591.84 1083.31 578.44
00000553 00000052 914.27 187.57 363.42 522.82 940.67 401.01 1075.97 380.79 956.40 484.68 974.46 588.28 1084.15 574.69
00000554 00000053 914.87 187.76 362.03 519.87 940.60 400.29 1075.16 378.50 955.03 482.21 974.35 586.79 1084.13 572.00
00000555 00000054 915.04 188.31 361.66 517.73 941.74 398.96 1075.35 377.78 955.81 480.86 975.17 584.75 1084.53 570.42
00000556 00000055 914.94 186.30 363.08 518.34 942.10 398.02 1075.56 376.41 955.86 479.06 975.86 582.92 1084.99 568.21
00000557 00000056 914.61 185.75 362.12 517.16 942.50 397.61 1075.06 375.32 956.88 477.88 977.07 581.41 1085.18 566.19
00000558 00000057 915.37 184.86 361.81 516.83 942.79 396.99 1075.47 373.69 956.96 476.42 978.02 580.56 1087.64 564.43
00000559 00000058 915.83 183.37 361.72 517.64 944.07 396.49 1075.50 372.92 958.00 475.51 978.84 579.92 1087.69 563.57
00000560 00000059 916.99 181.31 360.58 518.77 945.27 396.32 1076.31 371.81 959.50 474.03 979.33 579.40 1088.48 562.31
00000561 00000060 918.38 183.27 361.70 516.96 947.47 395.46 1078.54 371.58 961.63 473.69 980.56 579.40 1090.77 562.70
00000562 00000061 920.74 190.84 357.74 509.47 961.12 396.30 1081.68 372.55 967.28 468.25 985.74 576.15 1091.13 556.21
00000563 00000062 921.50 190.28 358.21 510.29 961.78 396.97 1082.76 371.66 968.34 467.66 987.46 576.45 1094.55 555.21
00000564 00000063 922.42 191.84 358.97 508.87 962.94 398.11 1083.57 370.23 969.79 465.80 989.27 577.04 1095.31 553.79
00000565 00000064 922.72 192.79 359.49 508.06 963.30 398.49 1083.11 369.87 969.93 464.64 989.45 577.07 1094.05 553.27
00000566 00000065 923.51 192.19 359.29 507.99 964.43 399.20 1083.70 369.32 971.99 465.47 991.21 577.69 1095.34 552.96
00000567 00000066 924.08 190.17 361.01 509.46 965.01 398.15 1085.62 368.08 973.92 465.49 992.23 577.19 1096.16 552.44
00000568 00000067 924.41 190.41 360.66 508.23 966.37 397.56 1088.05 365.70 977.46 464.56 995.02 576.95 1099.55 550.80
00000569 00000068 924.59 189.02 360.78 509.22 966.33 397.01 1089.06 364.86 977.92 464.28 995.09 577.05 1100.52 550.68
00000570 00000069 924.51 189.59 360.93 507.94 965.89 396.85 1089.08 364.37 976.97 463.03 994.45 576.41 1099.58 549.79
00000571 00000070 924.39 188.69 360.75 507.74 965.39 396.33 1088.21 363.12 975.62 461.45 993.66 575.51 1098.76 548.38
00000572 00000071 923.87 189.22 361.09 506.73 965.09 395.61 1087.75 361.99 975.14 459.61 993.26 574.82 1097.94 547.38
00000573 00000072 923.92 190.38 360.12 505.17 964.73 395.68 1086.56 362.39 973.55 459.07 992.07 574.53 1095.97 547.35
00000574 00000073 923.87 190.90 360.90 504.91 964.47 395.96 1086.24 362.60 972.96 458.96 991.78 574.94 1095.51 547.70
00000575 00000074 924.14 189.60 361.72 506.46 964.34 397.47 1085.94 363.98 973.36 460.49 991.66 575.90 1095.13 548.56
00000576 00000075 923.95 190.34 362.56 504.42 963.77 398.61 1084.05 364.90 971.57 460.93 991.44 576.72 1094.71 549.19
00000577 00000076 924.50 189.65 361.49 504.69 963.27 399.65 1082.79 365.89 970.34 460.81 990.91 576.75 1093.84 549.13
00000578 00000077 924.66 189.99 361.69 504.61 963.22 399.70 1082.14 365.47 969.73 460.70 991.21 577.03 1093.99 549.02
00000579 00000078 924.31 189.38 362.43 505.02 963.25 399.80 1082.55 365.07 970.09 460.22 991.85 576.82 1094.45 548.42
00000580 00000079 924.46 189.19 362.06 505.83 963.78 398.45 1083.77 363.46 970.94 459.19 992.04 576.26 1094.41 547.71
00000581 00000080 923.99 189.83 362.60 505.29 964.93 396.83 1085.51 361.67 973.89 458.54 993.94 575.76 1095.88 547.07
00000582 00000081 924.61 189.11 363.50 505.69 965.99 397.30 1086.18 360.96 975.60 457.88 995.60 575.80 1097.31 546.32
00000583 00000082 925.53 188.09 364.14 507.30 966.27 397.64 1087.88 359.97 977.94 458.65 996.28 577.13 1099.41 546.72
00000584 00000083 926.30 187.19 366.57 508.00 966.52 398.42 1090.09 359.89 980.60 459.97 997.43 578.07 1102.54 546.98
00000585 00000084 929.02 187.91 364.63 510.54 968.61 398.71 1093.18 360.80 984.11 462.79 999.82 580.05 1105.53 549.35
00000586 00000085 929.33 188.00 364.56 513.75 969.34 400.11 1096.03 362.91 986.56 466.15 1002.11 581.41 1109.88 551.08
00000587 00000086 930.80 186.05 362.97 516.77 970.57 401.92 1098.85 364.48 989.97 468.53 1004.26 582.61 1115.17 551.96
00000588 00000087 931.31 185.16 363.61 518.68 972.71 408.49 1101.31 372.59 991.28 468.54 1003.79 581.99 1116.80 552.35
00000589 00000088 933.66 187.42 367.27 513.53 968.39 405.85 1102.32 377.07 985.15 473.81 1001.91 585.95 1117.67 563.56
00000590 00000089 931.35 187.39 368.92 517.55 972.56 415.80 1102.43 379.51 989.46 472.19 1002.36 586.98 1114.06 557.28
00000591 00000090 930.60 185.49 370.10 517.50 972.18 419.29 1101.34 382.98 987.68 472.90 1000.39 587.20 1111.72 557.57
00000592 00000091 931.89 185.52 370.64 518.60 972.37 419.62 1102.84 384.23 988.81 474.47 1000.14 588.22 1111.05 559.42
00000593 00000092 933.87 186.13 367.93 520.02 971.02 416.98 1099.14 382.09 987.84 477.84 1000.50 590.23 1110.27 561.77
00000594 00000093 933.83 183.53 366.16 523.91 971.36 413.06 1098.00 381.34 986.89 481.60 999.69 590.02 1108.16 564.30
00000595 00000094 934.82 184.50 363.87 523.93 970.74 409.51 1097.08 381.13 985.93 485.20 998.81 590.65 1104.74 567.64
00000596 00000095 935.21 185.84 361.65 525.27 970.50 408.78 1096.36 383.78 983.87 488.34 997.05 592.93 1101.01 572.64
00000597 00000096 935.21 187.68 361.41 526.87 968.33 409.27 1093.72 384.86 980.15 492.18 996.30 597.15 1098.11 577.42
00000598 00000097 932.67 191.46 362.42 528.91 967.38 409.83 1090.01 387.23 976.69 493.96 997.02 599.58 1095.12 581.09
00000599 00000098 932.16 193.06 360.57 529.84 966.90 409.66 1086.44 389.84 973.40 497.55 996.77 601.15 1092.81 584.66
00000600 00000099 931.99 196.56 358.07 527.21 965.85 410.20 1082.95 391.61 969.77 500.12 996.18 602.78 1089.57 587.13
00000601 00000100 930.84 196.15 357.77 528.19 964.99 411.02 1081.72 392.77 968.09 500.64 995.55 602.69 1089.38 587.17
00000602 00000101 929.59 195.17 358.15 529.11 964.07 410.84 1081.01 393.16 966.47 499.93 994.20 602.31 1087.76 587.21
00000603 00000102 927.27 195.57 356.36 525.54 962.31 410.50 1079.28 393.22 964.25 499.52 990.64 601.75 1083.38 587.12
00000604 00000103 926.90 191.71 357.71 526.11 960.47 410.51 1078.48 393.03 963.45 499.70 987.58 600.73 1080.83 586.23
00000605 00000104 926.75 189.40 354.70 524.01 958.34 408.46 1074.32 391.65 960.88 498.73 982.81 598.60 1074.41 584.78
00000606 00000105 925.70 187.91 352.40 523.95 956.71 406.73 1071.80 389.84 958.76 496.43 981.85 596.13 1072.98 582.11
00000607 00000106 921.78 181.19 358.57 531.27 948.89 401.78 1073.07 391.23 949.09 496.17 980.26 594.60 1074.41 588.06
00000608 00000107 920.57 180.89 356.07 532.34 946.09 400.76 1072.36 390.16 950.22 495.08 976.01 593.12 1073.38 587.04
00000609 00000108 920.45 178.87 356.34 534.43 944.50 400.70 1070.63 389.26 946.85 494.02 974.09 592.90 1071.75 586.37
00000610 00000109 920.50 177.83 356.15 534.36 942.38 400.72 1068.89 388.16 944.18 494.09 972.44 593.09 1070.69 585.84
CROP_BBOX: 687 0 1543 868
