Video ID: 	1C2AHZ1mYyI
H: 	1080
W: 	1920
FPS: 	25.0

FRAME INDEX X0 Y0 W H [Landmarks (5 Points)]

00003951 00000000 886.32 98.60 344.12 516.62 960.75 289.34 1123.27 272.96 1043.99 373.15 994.79 485.77 1113.19 475.54
00003952 00000001 886.26 98.78 343.77 515.45 961.06 291.01 1123.71 273.51 1044.88 375.45 996.38 486.60 1114.74 475.41
00003953 00000002 886.15 98.13 343.91 515.02 960.21 291.43 1123.39 273.64 1044.12 376.19 995.57 486.37 1114.59 474.92
00003954 00000003 885.41 97.99 344.09 514.42 958.42 291.51 1121.78 274.75 1041.32 374.93 991.31 484.05 1111.92 473.58
00003955 00000004 886.43 98.11 340.27 514.43 958.65 297.83 1116.50 281.32 1038.51 375.21 988.69 481.64 1110.05 472.07
00003956 00000005 883.50 102.36 339.88 514.55 953.94 301.20 1112.61 284.81 1029.92 373.77 982.34 481.67 1109.10 472.11
00003957 DELETE   882.16 102.00 339.46 514.49 948.71 297.03 1108.71 282.92 1022.42 375.16 976.49 481.68 1104.12 473.88
00003958 00000007 868.10 88.06 347.17 521.55 939.89 298.92 1096.93 286.14 1005.76 376.84 969.63 479.05 1096.14 469.81
00003959 DELETE   866.79 96.85 347.46 512.61 935.44 297.89 1093.37 284.18 1004.75 377.90 967.52 484.47 1091.83 472.20
00003960 DELETE   862.28 98.79 347.00 510.98 929.37 299.03 1088.17 284.42 999.01 381.05 959.61 486.25 1086.56 473.48
00003961 DELETE   858.11 102.06 347.71 510.04 926.62 301.07 1082.94 286.11 994.52 380.54 956.97 488.66 1078.70 476.23
00003962 00000011 853.77 100.57 348.34 513.32 919.72 299.86 1077.52 288.03 981.23 379.72 946.91 487.92 1068.35 478.99
00003963 00000012 853.09 102.68 348.42 516.49 919.51 300.00 1076.22 291.81 979.77 383.77 943.24 489.73 1065.45 483.94
00003964 00000013 852.66 103.46 348.07 517.28 918.18 300.59 1075.29 293.41 976.80 386.60 941.07 491.12 1063.74 486.33
00003965 00000014 851.99 104.13 348.44 517.40 918.43 300.80 1074.85 295.19 976.67 388.05 939.83 490.11 1063.21 486.61
00003966 00000015 853.78 104.36 347.10 516.56 918.99 300.34 1076.27 294.95 978.08 388.17 941.03 490.67 1065.89 487.16
00003967 00000016 856.21 103.80 346.64 520.77 919.20 300.39 1077.84 296.55 976.81 391.03 939.87 492.35 1069.78 489.87
00003968 00000017 858.76 104.58 346.57 524.25 921.98 301.02 1081.33 298.05 979.76 393.65 940.78 492.05 1078.22 489.85
00003969 00000018 860.80 104.22 346.55 525.25 924.36 301.42 1083.28 297.97 982.96 395.13 942.26 492.27 1083.77 489.42
00003970 00000019 862.38 106.30 346.13 521.83 925.52 301.43 1083.99 296.52 985.76 395.33 942.98 491.61 1087.61 487.45
00003971 00000020 863.37 105.50 345.97 521.74 926.27 301.89 1085.81 295.81 987.94 394.32 943.77 491.30 1090.58 486.12
00003972 00000021 865.07 105.80 345.56 520.18 927.08 302.33 1087.16 294.81 989.56 395.13 945.53 491.25 1092.41 484.93
00003973 00000022 862.36 111.02 350.47 516.78 929.67 301.43 1091.00 298.98 994.86 391.01 945.66 480.38 1093.67 479.38
00003974 00000023 863.47 111.68 349.89 516.70 930.62 302.00 1091.60 299.59 995.51 390.88 946.59 480.19 1094.86 479.19
00003975 00000024 863.43 111.55 350.07 516.51 930.74 302.13 1091.54 300.04 995.58 392.21 946.68 480.59 1094.31 479.91
00003976 00000025 862.89 111.65 351.06 515.57 930.49 302.34 1091.94 301.03 995.05 392.79 945.56 480.94 1093.33 480.90
00003977 00000026 866.10 104.63 346.96 519.45 928.83 303.27 1090.08 296.41 991.15 398.23 945.25 491.63 1092.53 485.92
00003978 00000027 865.72 105.46 347.41 516.41 929.28 303.95 1091.70 297.61 992.74 397.99 944.28 490.74 1092.99 485.51
00003979 00000028 865.81 104.75 347.98 515.18 930.04 304.24 1093.46 298.01 994.93 398.67 944.70 489.96 1094.33 484.85
00003980 00000029 861.87 110.91 352.62 509.67 935.41 304.86 1097.12 304.18 1003.80 392.85 947.29 480.30 1094.74 480.94
00003981 00000030 863.29 111.78 352.27 511.31 936.81 304.86 1097.28 304.62 1003.69 392.99 949.24 481.61 1094.82 482.78
00003982 00000031 865.65 112.57 350.66 518.55 936.34 305.50 1097.61 304.98 1000.72 394.47 950.57 484.69 1097.03 485.59
00003983 00000032 865.01 112.06 350.33 520.14 935.33 307.40 1097.42 306.49 999.03 396.74 950.49 488.13 1097.49 488.56
00003984 00000033 864.73 110.41 350.65 523.27 934.32 308.47 1097.05 307.94 997.10 398.98 949.96 490.49 1097.37 491.14
00003985 00000034 865.90 105.92 348.17 534.09 933.23 310.02 1094.37 304.66 994.43 405.47 950.27 500.81 1096.92 496.26
00003986 00000035 864.02 105.76 349.21 537.72 932.23 311.10 1093.24 305.09 993.86 405.87 950.84 503.87 1095.39 498.91
00003987 00000036 862.28 102.89 350.49 538.29 931.62 312.30 1092.81 306.89 993.93 408.30 951.83 504.88 1091.20 500.68
00003988 00000037 860.95 102.29 351.18 525.87 928.20 311.96 1091.67 306.51 993.49 409.09 949.91 502.46 1087.65 498.35
00003989 00000038 862.13 102.78 351.40 521.63 928.43 311.43 1092.82 305.33 994.62 409.05 949.64 502.06 1088.62 497.43
00003990 00000039 863.55 104.94 350.68 521.12 930.14 311.44 1094.36 304.86 995.61 407.85 950.30 502.44 1089.82 497.57
00003991 00000040 865.47 106.16 349.30 522.92 933.03 312.72 1095.56 305.98 997.96 409.61 952.39 503.30 1092.53 498.33
00003992 00000041 867.29 107.88 347.99 520.00 933.54 313.15 1094.95 306.15 998.34 409.54 950.53 500.44 1096.41 494.93
00003993 00000042 867.52 108.20 347.59 519.54 932.55 313.75 1094.64 306.11 997.50 409.67 949.41 500.50 1098.45 494.35
00003994 00000043 867.80 109.70 347.11 517.43 931.81 314.08 1094.07 305.87 997.23 409.84 948.58 499.72 1099.63 493.03
00003995 00000044 868.39 109.63 346.99 520.51 932.12 313.82 1094.82 305.46 996.80 409.33 949.14 500.25 1101.12 493.38
00003996 00000045 866.92 113.57 349.44 525.51 935.42 311.42 1097.22 308.82 996.98 404.12 953.11 492.89 1103.85 491.43
00003997 00000046 867.74 113.01 348.73 531.65 936.30 311.56 1098.76 308.27 998.03 404.20 953.83 494.64 1107.41 492.48
00003998 00000047 868.66 113.38 348.09 530.22 937.06 315.41 1097.20 310.74 998.37 404.43 955.21 494.53 1109.47 491.19
00003999 00000048 866.58 115.82 348.14 522.88 940.16 324.58 1096.90 321.27 1003.75 407.17 957.37 493.28 1107.87 491.10
00004000 00000049 871.80 111.46 342.96 523.52 935.86 322.45 1094.60 310.77 1000.41 411.20 953.49 502.17 1108.77 492.25
00004001 00000050 869.84 110.63 345.94 520.83 933.09 319.30 1094.60 308.65 999.11 410.89 951.26 501.82 1106.28 492.80
00004002 00000051 868.33 110.67 348.32 520.00 932.75 316.80 1096.33 307.63 999.26 411.39 950.27 501.63 1104.49 493.92
00004003 00000052 867.45 109.05 349.23 523.31 932.84 315.24 1097.11 308.71 997.88 411.87 949.47 502.56 1102.05 497.07
00004004 00000053 866.64 109.77 349.28 523.37 932.71 315.17 1097.23 309.75 997.02 412.59 948.42 503.81 1099.12 499.51
00004005 00000054 866.04 111.51 349.09 521.83 931.52 314.17 1096.35 309.58 995.87 413.03 946.96 504.25 1097.28 500.73
00004006 00000055 863.08 109.20 351.34 530.09 929.97 313.52 1094.80 309.01 994.78 412.91 947.73 505.49 1096.14 501.88
00004007 00000056 862.57 109.27 351.06 535.09 929.51 313.53 1093.91 308.89 994.40 412.77 947.27 506.88 1095.76 503.08
00004008 00000057 862.18 109.56 350.70 534.36 928.82 313.57 1093.48 309.12 994.38 413.38 946.71 506.82 1095.45 503.23
00004009 00000058 862.46 110.39 350.03 530.05 928.78 313.28 1093.81 309.12 995.22 413.69 946.85 506.14 1095.03 502.85
00004010 00000059 863.28 111.81 348.39 522.76 929.01 312.87 1094.92 309.07 996.09 413.80 945.71 504.86 1094.18 502.18
00004011 00000060 863.21 111.82 348.80 521.13 928.87 312.90 1094.74 309.40 995.74 414.13 946.18 505.17 1091.96 502.79
00004012 00000061 862.87 110.93 349.43 520.68 928.91 312.74 1094.74 309.69 994.45 413.79 945.57 505.31 1089.56 503.41
00004013 00000062 861.55 109.81 350.70 521.72 928.48 312.30 1094.19 309.56 994.19 413.55 945.95 504.96 1088.21 503.26
00004014 00000063 860.10 107.51 352.24 526.97 928.30 310.98 1093.56 308.84 993.14 412.21 946.47 504.75 1086.48 503.48
00004015 00000064 859.07 107.03 353.31 532.42 928.65 312.09 1092.09 309.27 992.57 410.98 948.55 505.08 1085.34 503.09
00004016 00000065 858.39 104.88 354.74 534.48 929.06 313.81 1090.75 309.01 992.86 408.99 951.40 506.85 1081.64 503.27
00004017 00000066 857.56 103.24 355.83 536.96 930.27 314.72 1090.46 309.07 993.00 407.89 955.85 508.37 1078.96 504.09
00004018 00000067 858.90 102.01 354.71 538.18 930.04 314.03 1091.16 307.93 992.14 407.31 956.84 510.58 1078.44 505.93
00004019 00000068 859.94 101.95 354.93 536.94 929.89 313.33 1092.21 306.49 991.60 407.55 955.01 508.57 1081.94 503.40
00004020 00000069 861.83 107.14 353.05 527.74 932.04 309.55 1094.44 309.49 997.32 405.23 953.23 504.17 1079.92 505.82
00004021 00000070 863.46 108.08 352.45 525.77 933.46 309.51 1095.99 309.67 998.81 405.86 954.30 502.22 1081.85 504.03
00004022 00000071 865.92 109.74 351.20 520.09 935.21 309.22 1096.86 311.00 998.26 404.83 952.64 496.86 1083.07 500.01
00004023 00000072 867.53 110.53 350.25 516.93 936.23 308.65 1096.92 311.14 998.73 403.28 952.71 493.69 1083.33 497.48
00004024 00000073 869.52 111.40 348.67 515.75 937.26 308.80 1097.79 310.77 998.72 402.78 953.61 494.08 1083.33 497.55
00004025 00000074 870.01 110.30 348.79 518.65 937.40 307.73 1098.91 310.23 998.48 402.97 952.76 495.41 1082.52 499.49
00004026 00000075 869.37 109.15 348.87 525.47 935.68 305.80 1099.78 308.98 994.05 402.18 948.92 496.63 1086.62 501.30
00004027 00000076 869.21 107.35 348.32 534.17 934.84 305.36 1102.21 307.57 993.81 400.92 948.70 498.65 1092.61 502.25
00004028 00000077 866.30 109.79 348.74 525.70 934.29 306.51 1101.00 309.36 994.58 399.97 945.87 495.33 1091.63 499.39
00004029 00000078 866.51 107.54 347.24 525.26 932.33 305.18 1097.01 302.85 992.06 402.38 945.06 498.61 1092.19 496.97
00004030 00000079 868.42 107.17 344.11 523.47 934.97 313.21 1095.36 309.57 993.45 401.74 944.72 497.14 1094.00 494.23
00004031 00000080 867.31 106.37 344.76 525.24 935.53 313.25 1094.77 309.15 995.24 401.09 946.73 496.68 1095.08 493.44
00004032 00000081 866.88 105.45 346.45 531.83 934.92 308.35 1095.88 304.52 993.43 397.26 947.62 497.18 1093.92 493.96
00004033 00000082 864.25 110.05 351.27 523.79 933.83 304.51 1097.59 306.75 995.89 394.44 946.75 488.27 1092.07 491.62
00004034 00000083 864.95 109.45 351.11 522.83 934.59 304.83 1098.97 307.03 997.43 394.14 946.98 488.22 1092.56 491.64
00004035 00000084 865.93 110.52 350.14 519.85 935.54 305.22 1100.79 307.00 998.64 394.35 947.96 488.28 1093.05 491.59
00004036 00000085 866.79 110.52 349.83 519.35 936.52 305.28 1101.96 306.94 999.48 394.46 949.18 488.56 1093.44 491.89
00004037 00000086 867.11 110.89 349.72 519.38 936.83 304.65 1102.30 305.99 1000.05 394.28 950.73 488.25 1093.86 491.38
00004038 00000087 867.93 111.60 349.41 517.86 938.00 304.46 1102.32 305.91 1001.09 394.12 951.72 487.09 1093.82 490.35
00004039 00000088 868.74 112.47 349.20 515.06 938.75 304.68 1102.69 305.29 1002.46 394.00 952.76 486.86 1094.34 489.42
00004040 00000089 869.65 112.46 348.97 512.73 940.18 304.46 1103.11 304.98 1004.09 393.47 954.05 485.28 1094.30 487.79
00004041 00000090 869.31 112.44 349.68 510.97 940.73 304.66 1104.15 305.15 1005.73 393.78 954.20 485.01 1093.89 487.47
00004042 00000091 870.10 111.74 349.13 510.48 941.87 304.44 1104.84 305.02 1007.16 394.26 954.88 485.03 1093.65 487.59
00004043 00000092 870.68 111.93 348.53 509.69 942.74 304.56 1105.82 305.51 1008.05 395.38 955.72 484.96 1093.80 487.77
00004044 00000093 871.74 111.54 347.89 510.77 943.71 304.60 1107.16 305.44 1009.05 395.22 956.56 485.27 1094.50 488.14
00004045 00000094 874.87 111.36 345.47 513.56 945.39 303.18 1109.41 304.36 1009.16 395.17 957.94 485.89 1096.36 489.24
00004046 00000095 878.25 111.63 342.29 518.49 946.73 302.26 1111.79 302.19 1009.04 395.02 960.30 488.41 1100.08 490.76
00004047 00000096 881.79 111.74 340.31 520.72 948.80 300.78 1115.89 299.82 1010.23 392.45 962.23 490.15 1103.06 491.93
00004048 00000097 885.67 109.72 338.67 524.54 951.54 299.81 1119.00 297.00 1012.94 391.51 965.13 492.54 1104.89 492.94
00004049 00000098 886.92 106.23 339.26 527.82 953.10 298.09 1121.53 294.79 1016.70 392.91 968.35 495.02 1104.75 494.96
00004050 00000099 888.92 104.89 338.87 528.87 954.86 297.78 1121.98 292.86 1019.43 391.43 972.65 495.12 1105.81 493.95
00004051 00000100 889.32 102.16 340.82 527.54 958.43 297.39 1121.73 291.02 1026.26 388.74 980.63 493.40 1107.74 490.98
00004052 00000101 891.33 101.73 339.25 525.34 960.03 297.06 1124.36 290.00 1028.64 385.95 979.30 490.08 1111.63 487.42
00004053 00000102 891.55 101.48 340.84 525.09 962.51 296.35 1126.40 288.66 1032.73 383.51 982.36 489.50 1113.24 486.25
00004054 00000103 892.23 100.96 340.23 525.70 963.99 296.32 1127.77 288.45 1034.96 383.47 984.44 489.78 1114.88 486.34
00004055 00000104 892.74 100.78 338.91 524.94 964.19 297.88 1128.54 290.09 1035.68 385.01 983.43 489.93 1116.68 486.94
00004056 00000105 892.44 101.00 339.60 525.31 963.64 298.76 1127.75 289.48 1036.18 385.72 984.91 490.89 1117.90 486.49
00004057 00000106 892.46 103.01 339.01 520.66 963.09 299.52 1128.33 290.02 1036.37 384.92 982.69 489.33 1118.75 485.04
00004058 00000107 892.63 104.13 338.64 512.32 963.01 299.59 1129.39 290.54 1037.23 384.10 979.51 485.69 1120.24 481.89
00004059 00000108 891.94 103.94 338.93 508.73 962.06 297.91 1128.48 288.94 1035.36 382.12 976.43 483.15 1119.02 479.45
00004060 00000109 891.38 104.68 338.49 507.54 960.11 295.09 1126.28 285.35 1032.42 378.00 974.77 480.88 1115.89 476.78
00004061 00000110 890.18 105.44 340.59 509.95 956.44 293.84 1122.21 282.89 1027.84 375.71 973.90 481.33 1109.55 476.30
00004062 00000111 889.46 105.26 342.44 515.71 955.43 292.58 1116.98 280.64 1022.66 372.88 974.60 481.90 1103.48 475.87
00004063 00000112 890.35 106.06 341.59 516.07 954.87 290.52 1113.05 277.61 1019.96 370.12 975.71 480.96 1099.81 474.01
00004064 00000113 890.59 105.17 342.46 517.84 953.66 290.86 1112.78 274.57 1019.30 367.39 977.13 482.06 1100.97 472.49
00004065 00000114 891.07 104.37 342.96 518.18 953.61 292.51 1114.37 272.89 1020.31 364.07 977.56 482.20 1104.98 470.36
00004066 00000115 889.36 100.45 343.28 519.71 951.82 293.41 1115.22 270.95 1020.50 361.92 978.72 485.61 1105.50 471.82
00004067 00000116 885.92 96.22 346.43 520.16 945.63 293.81 1109.89 272.63 1012.80 360.18 973.31 486.47 1099.13 473.28
00004068 00000117 880.93 96.32 347.12 521.80 938.98 292.73 1100.87 272.64 1005.80 359.70 970.29 485.48 1092.72 473.11
00004069 DELETE   875.71 98.30 349.04 519.48 933.97 292.43 1092.61 274.02 1000.68 363.91 968.69 485.75 1086.45 473.96
00004070 DELETE   873.11 96.67 349.97 520.09 928.48 295.73 1087.24 276.77 990.96 365.86 960.75 484.84 1085.90 471.99
00004071 00000120 870.32 98.47 350.61 518.99 926.47 296.23 1083.01 278.17 987.30 368.29 959.38 485.96 1082.24 473.52
00004072 00000121 867.71 100.04 351.77 518.62 924.95 295.40 1081.91 277.64 986.22 367.72 957.66 486.64 1078.63 474.40
00004073 00000122 867.04 102.80 351.01 518.09 924.14 296.59 1082.61 280.86 983.87 369.54 952.47 486.17 1081.33 475.61
00004074 00000123 868.56 103.48 348.31 518.43 923.15 296.14 1084.63 279.37 976.43 374.22 950.71 493.74 1083.46 480.01
00004075 00000124 866.33 105.40 350.66 520.06 922.31 297.29 1081.12 280.70 980.69 368.82 950.82 487.09 1084.14 475.92
00004076 00000125 865.92 105.07 351.24 520.54 921.55 297.03 1078.26 279.88 980.51 370.41 953.19 488.09 1080.29 476.28
00004077 00000126 863.44 100.00 353.54 517.37 921.71 301.33 1081.37 278.06 977.70 373.76 958.77 495.29 1076.83 476.51
00004078 00000127 863.42 99.28 353.49 513.81 920.72 302.30 1081.11 277.28 976.85 374.42 957.11 495.32 1077.44 475.15
00004079 00000128 863.65 99.41 352.49 513.71 921.63 301.55 1080.01 278.81 975.71 373.98 956.72 493.91 1072.80 475.57
00004080 00000129 864.71 99.38 351.91 514.72 923.61 300.41 1080.45 279.74 976.79 373.13 957.40 492.19 1070.64 475.69
00004081 00000130 864.61 98.93 352.29 509.51 921.38 301.26 1078.67 279.67 974.19 374.27 953.46 489.73 1071.17 472.59
00004082 00000131 865.38 99.79 351.35 508.88 920.20 301.57 1078.73 280.01 971.57 373.73 950.79 488.94 1072.98 471.73
00004083 00000132 865.69 100.23 350.95 510.57 919.68 302.21 1077.20 280.08 971.12 374.65 951.90 491.15 1072.35 473.56
00004084 00000133 865.34 100.26 352.16 510.27 919.89 303.55 1077.40 280.89 972.04 375.98 952.75 493.01 1070.59 475.09
00004085 00000134 866.49 99.38 352.31 511.03 920.52 305.35 1078.09 280.73 971.90 376.65 954.68 495.62 1071.43 475.97
00004086 00000135 866.60 99.86 353.31 511.12 921.91 305.47 1079.51 281.69 974.82 377.82 956.47 494.51 1074.05 475.44
00004087 00000136 869.12 99.21 351.22 514.41 924.12 303.62 1082.48 282.95 977.41 378.89 956.90 493.71 1077.40 477.18
00004088 00000137 869.98 103.06 351.02 514.85 926.00 301.33 1081.96 286.45 983.51 375.93 954.47 485.93 1080.58 475.94
00004089 00000138 867.00 93.22 353.25 521.22 925.81 303.92 1082.81 287.91 977.74 382.00 951.50 482.20 1083.53 469.94
00004090 00000139 867.78 94.12 353.90 515.29 925.60 302.41 1084.90 287.04 977.88 379.88 950.34 477.00 1086.42 465.08
00004091 00000140 868.18 93.57 353.92 514.73 926.66 301.04 1085.92 285.75 979.52 377.98 951.36 475.86 1087.40 464.14
00004092 00000141 874.61 104.02 350.73 506.38 929.64 298.40 1089.12 285.01 987.05 371.05 953.27 475.32 1088.50 466.38
00004093 00000142 876.43 104.28 350.60 507.76 930.61 297.64 1088.83 283.46 987.31 369.65 955.09 475.15 1088.63 465.81
00004094 00000143 876.41 102.97 351.60 509.33 931.32 296.63 1087.68 281.93 989.25 367.90 957.55 474.88 1085.54 465.26
00004095 00000144 876.55 100.08 350.70 509.78 931.65 295.19 1086.13 280.25 989.93 366.32 958.24 474.62 1080.37 464.79
00004096 00000145 876.16 97.65 351.42 510.40 930.39 294.09 1084.56 279.65 986.58 364.72 955.34 471.87 1079.02 462.45
00004097 00000146 875.38 95.21 351.30 510.30 928.95 291.90 1083.03 276.54 983.08 360.16 953.31 469.81 1077.38 459.69
00004098 00000147 874.43 93.36 353.15 509.82 928.20 289.88 1083.51 274.86 981.26 358.43 950.40 469.05 1075.98 459.13
00004099 00000148 875.75 92.55 353.53 510.12 929.18 288.48 1084.75 274.66 980.99 357.74 949.60 467.99 1074.90 459.18
00004100 00000149 877.68 92.15 354.08 510.35 930.24 288.53 1086.96 275.63 981.76 359.10 948.74 467.85 1075.90 459.94
00004101 00000150 880.60 92.92 354.25 510.30 932.98 290.94 1090.43 278.04 984.28 362.15 951.17 469.64 1079.61 461.89
00004102 00000151 885.84 93.53 352.19 510.40 938.78 289.41 1097.87 278.37 990.53 364.13 954.30 469.70 1083.37 464.00
00004103 00000152 891.48 94.13 350.40 510.67 946.61 289.03 1107.07 278.12 999.45 366.06 960.44 472.95 1089.70 467.64
00004104 00000153 894.72 92.01 351.13 514.07 952.02 291.91 1114.05 275.19 1008.42 367.14 970.32 478.77 1100.39 468.72
00004105 00000154 897.79 91.42 350.96 514.49 957.37 292.55 1118.99 274.34 1016.89 367.95 977.26 478.67 1109.32 466.98
00004106 00000155 899.23 89.26 350.45 516.04 959.65 292.26 1121.17 273.62 1020.73 367.91 980.56 477.49 1113.64 465.22
00004107 00000156 898.97 88.24 350.71 516.52 959.35 291.54 1122.11 273.90 1019.72 367.61 978.42 476.01 1113.87 464.35
00004108 00000157 897.36 90.59 350.68 514.34 956.71 291.60 1119.11 273.84 1014.88 366.71 975.05 475.83 1109.96 464.28
00004109 00000158 896.19 92.37 350.38 513.07 952.25 293.12 1114.14 275.10 1007.59 366.15 969.06 474.21 1108.47 462.48
00004110 00000159 892.77 95.18 351.76 510.24 947.49 294.14 1108.86 278.14 1000.74 365.61 963.21 472.61 1103.35 462.31
00004111 00000160 889.88 96.53 352.09 508.22 944.24 293.81 1104.44 279.85 995.81 365.44 958.76 469.41 1099.90 460.52
00004112 00000161 888.48 95.86 351.91 508.12 942.47 294.03 1102.24 280.38 994.81 366.45 957.93 468.15 1100.33 459.37
00004113 00000162 889.52 97.55 351.70 507.10 944.71 294.50 1104.79 280.54 997.40 366.39 958.91 467.52 1102.96 458.57
00004114 00000163 891.05 98.86 350.81 506.43 946.89 295.89 1108.45 279.91 1002.51 367.70 962.31 468.88 1107.79 458.47
00004115 00000164 892.57 98.86 349.69 507.41 949.38 298.03 1110.92 280.16 1006.91 369.15 965.25 469.51 1114.01 457.63
00004116 00000165 891.92 99.84 349.78 506.37 948.59 300.49 1109.98 281.26 1007.20 370.33 965.58 470.48 1115.88 457.45
00004117 00000166 890.19 102.93 349.36 503.24 946.52 302.78 1106.40 283.35 1003.87 371.26 963.28 470.82 1113.99 457.48
00004118 00000167 888.04 105.67 349.55 501.92 942.93 302.40 1100.18 284.27 997.67 371.53 960.06 468.78 1109.59 456.02
