Video ID: 	5IBa88VkM6g
H: 	1080
W: 	1920
FPS: 	29.97002997002997

FRAME INDEX X0 Y0 W H [Landmarks (5 Points)]

00029455 00000000 429.31 197.98 510.95 710.28 571.66 395.71 834.44 375.70 744.67 571.92 629.12 713.96 824.81 694.55
00029456 00000001 425.50 199.71 514.02 705.85 569.91 395.97 833.04 375.10 744.15 573.17 630.10 714.67 824.43 694.48
00029457 00000002 425.26 198.70 512.27 705.89 569.28 396.48 831.26 374.93 742.79 572.30 630.42 713.83 824.26 692.95
00029458 00000003 424.80 196.79 513.19 704.04 567.66 396.48 831.16 372.93 742.50 570.49 629.10 712.66 825.18 690.13
00029459 00000004 427.71 195.23 515.18 704.80 570.25 394.08 835.96 372.34 744.22 569.76 631.33 710.88 829.27 689.86
00029460 00000005 437.37 190.62 510.53 707.84 575.96 394.75 840.66 369.35 749.71 564.98 637.23 709.55 835.76 686.14
00029461 00000006 437.21 186.86 517.66 710.56 585.07 395.63 847.08 368.93 762.65 560.21 644.87 708.54 841.14 684.45
00029462 00000007 444.38 175.40 516.98 721.13 594.37 396.25 855.17 370.25 768.63 560.17 650.56 706.90 846.06 683.57
00029463 DELETE   446.93 175.36 519.93 718.43 601.20 396.24 861.32 369.54 773.05 559.29 657.39 708.69 851.87 684.54
00029464 00000009 458.40 180.93 506.95 712.17 605.14 395.65 861.69 380.59 771.42 565.08 653.79 701.43 848.00 687.43
00029465 00000010 459.46 180.02 511.93 713.12 608.31 391.25 869.58 379.93 776.11 567.75 657.06 700.23 853.95 688.93
00029466 00000011 466.60 176.61 510.49 718.42 610.87 387.91 873.78 377.38 778.67 570.90 660.85 699.88 857.96 689.01
00029467 00000012 470.08 169.02 508.94 724.93 614.86 386.07 877.68 376.33 781.25 568.89 663.40 698.12 859.82 688.07
00029468 00000013 467.68 170.82 512.55 724.43 616.08 384.75 879.62 374.97 784.18 568.32 664.89 698.10 862.39 687.83
00029469 00000014 468.15 170.04 512.38 725.89 616.38 384.23 878.96 374.89 783.37 567.62 665.05 697.33 861.58 687.41
00029470 00000015 465.18 170.76 514.93 725.11 615.39 382.89 878.82 374.46 782.59 567.11 663.99 697.42 861.34 688.20
00029471 00000016 465.03 169.53 514.25 727.24 613.35 382.60 877.19 374.81 780.42 568.26 661.87 698.48 858.87 689.93
00029472 00000017 461.75 173.94 515.01 723.82 610.50 383.12 874.76 375.74 778.36 569.70 659.66 699.58 856.53 691.37
00029473 00000018 455.92 178.11 519.01 721.19 609.55 383.38 874.56 377.70 778.67 569.90 657.96 699.79 855.49 692.94
00029474 00000019 454.92 178.82 519.31 721.68 608.25 383.78 872.97 377.05 776.95 570.55 657.68 700.85 854.33 693.29
00029475 00000020 455.86 179.06 517.42 722.26 608.09 384.68 872.43 378.37 777.03 570.39 655.77 701.74 852.70 694.64
00029476 00000021 460.84 181.36 510.28 720.45 607.43 386.02 870.70 379.06 774.53 569.93 655.17 702.19 850.34 694.72
00029477 00000022 458.19 180.52 512.46 721.70 606.99 385.60 870.02 378.51 775.37 569.43 654.77 702.17 850.39 694.61
00029478 00000023 460.10 179.52 509.85 723.94 607.23 385.68 869.57 378.35 774.86 568.84 654.83 703.28 849.71 695.65
00029479 00000024 462.70 180.79 507.66 722.74 607.74 386.09 869.67 379.11 774.29 569.23 654.52 702.99 849.09 695.66
00029480 00000025 465.02 183.95 506.07 718.48 607.76 386.32 869.72 378.94 773.98 568.90 655.73 703.06 849.80 695.35
00029481 00000026 468.06 183.85 504.63 717.13 609.35 386.72 871.33 379.51 775.42 568.86 656.45 702.90 850.76 695.36
00029482 00000027 463.25 183.36 510.65 717.03 608.56 386.44 872.33 379.11 776.83 570.43 657.85 703.19 853.18 695.32
00029483 00000028 463.09 180.64 511.51 720.68 609.26 386.87 872.84 379.14 777.79 571.47 658.64 703.93 853.83 695.80
00029484 00000029 465.55 180.88 510.78 720.52 609.81 386.53 873.29 379.63 777.10 571.60 658.85 703.54 853.72 696.12
00029485 00000030 464.34 182.78 511.46 720.24 609.55 387.07 872.67 379.30 777.89 571.65 658.78 704.48 853.74 696.35
00029486 00000031 464.99 181.93 509.81 723.23 609.60 386.78 871.49 379.55 776.55 570.97 657.33 704.25 852.04 696.74
00029487 00000032 460.11 179.44 514.66 729.43 608.35 386.81 870.59 379.56 776.43 570.40 656.34 704.53 851.97 696.92
00029488 00000033 456.32 166.87 519.10 743.85 611.81 390.64 868.68 381.29 776.67 566.37 657.07 707.23 852.63 698.06
00029489 00000034 456.32 160.24 516.02 752.31 611.91 390.48 865.44 377.93 777.99 564.00 655.44 707.23 849.49 695.53
00029490 00000035 461.10 168.95 511.85 746.04 610.10 392.24 865.17 380.19 776.73 564.30 655.66 708.31 849.55 697.11
00029491 00000036 455.87 170.20 517.04 749.27 610.46 390.04 865.11 379.71 777.61 566.52 655.03 708.67 849.80 699.07
00029492 00000037 462.60 178.10 510.47 739.57 609.51 392.22 865.16 380.67 776.75 567.29 655.77 709.86 850.25 699.20
00029493 00000038 464.32 176.98 510.11 743.35 608.39 390.40 865.26 378.88 775.61 567.81 656.91 711.76 850.34 701.18
00029494 00000039 461.55 177.71 512.94 745.28 608.07 388.53 864.98 378.83 775.40 568.84 656.45 711.92 849.40 702.82
00029495 00000040 459.21 169.79 515.98 755.46 608.83 386.23 864.65 377.11 775.24 567.25 657.23 712.12 849.37 703.57
00029496 00000041 460.96 169.67 513.85 755.75 608.57 386.70 864.78 377.75 773.84 566.77 658.04 712.30 849.97 703.82
00029497 00000042 459.46 167.77 515.35 760.21 608.44 385.30 863.94 376.19 773.63 565.30 658.01 712.98 849.17 704.38
00029498 00000043 458.73 162.12 516.89 765.01 609.71 385.03 865.21 376.98 773.96 564.65 658.62 712.87 849.08 705.14
00029499 00000044 455.28 145.67 522.37 783.35 612.10 387.76 867.12 377.78 775.74 562.59 660.30 714.48 851.77 705.22
00029500 00000045 450.09 142.14 523.82 785.80 615.79 394.35 873.26 378.17 781.13 562.42 663.10 718.61 855.61 703.58
00029501 00000046 459.52 149.62 520.94 780.20 614.56 387.80 869.76 377.13 779.47 564.41 663.90 715.63 855.46 705.77
00029502 00000047 453.14 147.57 529.26 783.23 614.92 387.93 871.88 377.59 782.41 565.02 663.49 716.18 856.80 706.42
00029503 00000048 457.19 143.20 527.47 788.38 617.04 386.95 875.47 378.22 784.40 565.19 663.06 715.15 859.29 706.73
00029504 00000049 457.48 142.35 529.94 789.85 620.39 387.80 879.08 378.76 789.37 567.33 666.33 716.45 864.15 707.66
00029505 00000050 462.94 149.55 520.38 782.71 628.29 394.16 885.39 377.74 794.55 564.45 672.50 718.60 868.34 703.59
00029506 00000051 464.03 141.16 521.85 790.92 633.38 393.57 888.22 377.60 798.38 562.10 681.25 718.51 873.70 703.62
00029507 00000052 473.20 132.73 517.25 796.86 640.51 392.68 894.77 376.90 806.18 558.70 686.43 716.85 879.57 702.19
00029508 00000053 481.22 132.24 514.87 795.19 648.53 393.42 901.75 378.68 814.70 558.58 691.35 713.43 887.56 699.40
00029509 00000054 489.37 134.54 515.80 795.93 652.25 385.64 907.32 371.46 825.82 555.74 699.73 715.19 901.28 700.69
00029510 00000055 499.30 132.28 512.11 796.56 659.31 384.87 915.07 370.90 835.09 552.38 703.17 712.46 907.55 698.44
00029511 00000056 502.33 128.59 515.06 798.44 667.47 386.24 920.34 372.67 836.84 552.51 710.17 708.58 911.94 694.64
00029512 00000057 512.92 130.73 508.59 786.40 673.37 386.66 924.93 374.57 839.17 549.81 714.94 705.13 914.19 692.28
00029513 00000058 517.22 127.41 503.46 773.10 675.26 388.05 928.03 375.01 839.06 550.61 721.09 701.91 919.51 688.07
00029514 00000059 518.35 131.73 502.92 758.31 673.30 390.00 930.03 376.52 838.17 554.08 719.51 699.85 921.30 686.20
00029515 00000060 515.94 141.92 504.50 742.81 670.57 390.40 929.41 378.95 838.56 557.17 716.37 698.72 919.73 686.87
00029516 00000061 517.34 140.00 503.69 742.06 666.04 392.08 927.28 381.22 833.52 561.85 709.85 698.21 917.40 687.28
00029517 00000062 517.33 150.46 501.25 729.64 660.14 391.19 925.58 380.91 827.74 564.15 703.14 699.41 914.56 688.71
00029518 00000063 507.77 159.85 509.54 722.88 653.50 395.90 922.20 381.48 824.90 566.06 698.65 702.37 913.89 688.03
00029519 DELETE   506.11 164.45 508.82 711.49 647.94 398.66 917.11 384.46 815.08 567.78 692.39 700.21 909.47 686.18
00029520 00000065 506.07 179.85 506.59 704.61 640.38 398.80 909.76 382.83 807.20 569.48 684.33 700.38 905.60 684.87
00029521 00000066 501.91 186.16 511.39 708.55 635.57 399.81 903.64 385.19 800.75 569.81 680.42 701.70 899.26 687.27
00029522 DELETE   498.99 181.32 511.23 733.43 638.32 400.63 900.62 385.76 804.16 569.51 677.02 709.29 893.12 695.46
00029523 00000068 497.39 179.01 508.93 743.27 638.57 401.98 900.43 389.16 807.72 573.85 677.01 714.00 890.95 702.23
00029524 00000069 493.68 169.82 510.55 758.62 646.90 410.78 905.42 394.27 815.32 579.64 680.76 716.62 892.01 701.48
00029525 DELETE   493.38 156.09 516.14 780.75 655.06 410.58 909.19 394.17 819.91 581.49 686.01 720.19 894.25 705.01
00029526 00000071 486.15 153.76 526.94 794.92 661.45 410.33 914.88 392.26 828.57 580.65 693.17 727.48 898.06 710.08
00029527 00000072 490.18 158.25 521.43 799.69 667.57 411.20 917.53 395.57 835.91 574.52 695.29 728.04 901.52 712.37
00029528 00000073 497.40 160.14 512.43 796.98 671.47 409.16 918.78 393.84 838.40 572.10 699.13 728.24 904.41 712.85
00029529 00000074 494.55 151.73 516.26 799.35 673.23 408.57 920.65 394.06 840.95 569.89 702.34 725.29 906.16 710.74
00029530 00000075 496.06 153.17 515.18 786.60 669.72 406.76 919.37 390.32 836.37 571.48 703.40 723.03 903.95 706.91
00029531 00000076 492.97 160.09 513.63 773.92 662.34 406.70 914.82 386.96 834.24 567.81 700.79 720.99 902.76 702.33
00029532 00000077 486.82 169.05 514.54 758.96 655.08 405.53 909.87 384.07 827.04 571.00 699.87 721.60 897.19 701.76
00029533 00000078 488.75 169.79 508.67 762.35 649.27 401.31 903.26 378.87 819.82 566.55 699.61 723.96 892.72 703.35
00029534 00000079 480.47 161.25 514.66 767.09 643.27 400.38 899.77 379.01 817.34 564.72 697.33 723.71 889.90 704.06
00029535 00000080 485.43 171.37 511.73 751.31 634.92 392.30 891.81 373.70 808.96 565.88 696.73 719.85 886.80 701.86
00029536 00000081 476.93 170.17 516.80 749.42 629.89 389.87 885.46 371.09 800.13 563.71 693.55 714.53 881.66 696.09
00029537 00000082 475.77 170.38 513.74 738.99 626.62 383.15 883.48 370.35 794.98 562.98 686.85 706.66 873.85 693.45
00029538 00000083 479.15 158.18 504.38 739.55 622.37 381.22 883.48 369.35 787.56 560.08 681.78 700.60 869.59 688.26
00029539 00000084 462.36 154.24 516.30 741.89 617.64 379.58 878.53 367.91 779.40 554.61 670.55 694.57 862.31 682.25
00029540 00000085 456.01 152.63 516.46 739.82 609.83 378.55 870.80 365.97 770.20 551.25 656.98 687.48 854.78 674.39
00029541 00000086 456.23 140.97 512.03 734.85 597.50 373.75 862.99 360.53 768.64 538.69 648.06 685.48 853.23 674.41
00029542 00000087 448.53 130.21 518.25 739.64 590.69 371.71 856.55 358.19 760.15 534.76 635.04 679.66 848.14 668.56
00029543 00000088 444.81 120.93 520.57 745.16 581.04 370.68 853.30 354.15 750.86 535.87 625.60 677.30 846.45 663.26
00029544 00000089 433.03 115.43 533.48 751.35 574.15 373.28 841.59 345.86 740.33 522.40 629.56 673.64 839.12 647.79
00029545 00000090 430.86 118.79 530.47 747.29 569.03 371.49 835.48 342.44 735.08 521.19 625.24 671.32 834.44 644.26
00029546 00000091 426.99 126.12 527.23 742.98 564.65 369.47 832.50 341.15 731.78 519.79 624.62 674.06 832.08 647.45
00029547 00000092 423.49 130.58 526.20 761.68 561.73 369.00 826.39 341.70 725.98 519.56 615.17 680.37 824.60 654.82
00029548 00000093 424.96 124.94 524.72 782.54 556.84 369.19 821.32 341.43 715.75 519.32 613.70 689.76 821.93 663.46
00029549 00000094 414.66 120.51 531.83 796.32 551.05 368.17 817.45 341.74 708.79 522.32 606.48 692.88 819.40 667.43
00029550 00000095 408.38 123.13 534.18 796.76 546.56 368.70 811.17 345.41 697.70 522.67 597.20 691.85 810.71 669.36
00029551 00000096 405.97 120.09 532.58 794.47 542.24 369.60 806.01 347.29 691.15 523.64 591.48 690.27 804.22 669.08
00029552 00000097 409.88 118.16 523.31 782.35 540.32 370.72 802.76 347.92 688.42 524.00 588.21 686.80 798.62 665.80
00029553 00000098 413.03 118.14 518.07 767.93 536.71 373.01 800.63 350.09 684.33 525.89 585.99 682.26 798.51 661.09
00029554 00000099 409.18 111.84 523.34 755.46 534.95 373.00 800.22 349.38 684.94 525.97 585.50 673.11 797.86 651.05
00029555 00000100 407.06 113.17 529.19 750.71 533.72 373.78 800.32 348.39 684.85 528.36 583.81 670.71 799.13 647.27
00029556 00000101 411.19 116.07 529.80 740.82 528.44 371.03 804.60 354.15 683.84 529.49 578.66 671.37 801.87 657.35
00029557 00000102 413.04 119.77 524.39 739.73 536.65 374.16 805.15 349.78 687.81 530.49 585.44 671.37 802.49 648.56
00029558 00000103 415.06 127.06 526.96 737.19 539.12 373.82 808.70 349.95 690.45 532.00 586.30 671.61 803.12 649.39
00029559 00000104 417.54 120.85 527.89 741.29 541.89 372.56 815.52 350.27 696.01 532.88 590.12 672.54 808.76 651.22
00029560 00000105 423.30 129.05 524.77 737.32 549.05 373.73 822.04 352.00 705.85 529.57 598.21 674.24 815.97 653.24
00029561 00000106 433.56 127.24 520.41 735.97 558.13 375.48 825.84 354.63 712.32 529.11 609.95 674.96 820.67 654.76
00029562 00000107 431.40 112.95 531.36 766.21 565.94 378.71 833.21 357.41 724.62 531.30 620.03 683.74 831.50 663.51
00029563 00000108 444.70 132.73 520.70 754.25 578.54 381.22 842.79 362.54 733.79 536.33 631.89 690.69 835.59 672.53
00029564 00000109 446.85 116.70 522.87 783.74 593.98 378.77 858.42 362.77 754.69 553.23 635.97 697.47 842.82 682.62
00029565 00000110 444.11 137.28 527.36 783.09 603.18 381.17 865.92 365.55 767.89 554.52 640.14 705.20 850.17 690.42
00029566 00000111 449.06 142.46 522.62 772.49 606.16 384.22 872.70 367.59 774.14 557.31 643.26 705.11 858.07 689.61
CROP_BBOX: 121 0 1306 1080
