Video ID: 	6TogdarInzQ
H: 	1080
W: 	1920
FPS: 	29.97002997002997

FRAME INDEX X0 Y0 W H [Landmarks (5 Points)]

00000371 00000000 666.82 264.99 398.36 550.00 798.66 457.76 1000.20 468.29 926.83 558.17 817.26 668.73 986.28 677.60
00000372 00000001 661.72 269.25 400.20 546.29 797.01 464.11 995.79 474.83 923.29 565.41 807.05 667.28 977.11 675.99
00000373 00000002 658.48 271.05 403.49 553.46 793.10 464.82 996.86 478.90 920.35 571.29 794.15 662.24 979.59 674.84
00000374 00000003 658.91 273.62 406.75 556.36 791.16 465.45 996.76 476.80 917.29 576.44 791.54 661.06 984.14 671.29
00000375 00000004 655.64 274.80 409.75 548.24 791.45 461.74 999.45 476.24 917.24 575.69 786.55 654.47 984.18 667.63
00000376 00000005 653.04 272.90 410.39 540.76 793.61 456.69 996.70 474.64 917.94 570.49 786.06 646.09 979.00 662.16
00000377 00000006 649.15 265.09 412.73 545.18 794.02 453.37 996.78 471.30 916.72 564.57 786.94 645.85 979.42 662.25
00000378 00000007 646.86 258.60 412.15 548.63 792.11 451.71 993.74 469.35 915.42 561.70 789.72 647.29 975.59 662.95
00000379 00000008 651.32 256.84 405.69 551.14 792.23 456.80 993.23 468.72 919.06 565.11 804.09 663.65 974.79 673.92
00000380 00000009 656.09 259.67 403.41 549.95 793.61 459.80 991.46 468.79 916.32 569.72 809.62 668.44 975.30 676.06
00000381 00000010 664.34 260.31 400.79 555.13 794.32 462.78 992.02 469.59 912.53 577.21 816.91 675.39 977.92 680.38
00000382 00000011 678.52 262.83 400.18 546.91 805.84 455.78 1000.76 469.76 913.10 566.29 823.76 666.14 976.08 677.85
00000383 00000012 687.19 261.15 400.05 540.95 811.93 447.62 1007.46 464.22 915.79 560.40 825.76 659.75 973.43 673.02
00000384 00000013 715.57 257.21 390.06 528.33 841.31 435.02 1032.35 460.44 936.99 544.52 842.45 646.09 980.79 666.80
00000385 00000014 743.89 267.60 388.12 510.60 875.43 425.99 1054.79 459.81 959.61 531.28 863.05 633.36 995.91 662.24
00000386 00000015 758.93 269.02 394.63 510.67 897.76 425.98 1079.33 469.00 978.05 533.22 874.22 622.44 1005.63 657.61
00000387 00000016 793.34 277.54 392.88 493.76 942.97 427.44 1115.94 487.12 1010.49 527.50 898.82 611.20 1033.61 660.23
00000388 DELETE   810.69 293.10 404.38 494.70 972.03 439.80 1138.75 504.21 1041.39 551.05 926.48 622.76 1052.51 675.69
00000389 00000018 820.21 306.99 403.82 492.56 978.01 446.92 1145.35 514.27 1044.79 560.18 927.70 633.31 1054.96 688.80
00000390 00000019 836.45 309.88 403.09 508.37 994.81 469.23 1160.73 537.77 1056.09 582.37 939.97 656.04 1068.36 713.44
00000391 00000020 846.19 321.78 402.64 485.00 1000.27 469.94 1161.32 537.06 1064.64 587.88 953.88 652.28 1070.44 706.75
00000392 00000021 845.07 315.14 399.79 485.26 994.59 464.95 1160.19 529.57 1064.19 583.49 952.37 650.02 1073.13 702.45
00000393 00000022 826.64 290.32 393.14 501.49 977.76 452.71 1149.68 506.06 1053.89 560.28 945.85 637.04 1079.27 680.93
00000394 00000023 812.41 286.60 388.28 490.86 957.74 434.26 1136.16 479.71 1045.08 542.84 938.19 631.56 1076.40 670.01
00000395 00000024 804.41 286.62 390.99 488.19 947.06 431.94 1130.71 473.00 1041.24 536.93 932.08 628.40 1076.46 663.05
00000396 00000025 795.23 264.94 383.62 516.33 928.88 430.67 1117.14 464.63 1029.28 534.73 916.43 630.31 1070.45 659.63
00000397 00000026 771.27 268.00 390.23 525.38 904.04 437.33 1094.58 463.53 1010.19 541.98 895.53 637.59 1061.25 659.91
00000398 00000027 762.16 266.53 392.26 526.75 893.48 437.46 1084.70 462.87 998.46 543.57 887.71 638.82 1055.82 660.21
00000399 00000028 753.22 255.48 388.24 545.73 871.54 443.52 1073.24 454.76 981.20 555.64 872.85 648.61 1054.16 658.58
00000400 00000029 739.39 251.81 391.10 546.40 857.29 447.30 1059.27 455.01 967.67 556.73 863.45 652.32 1042.50 658.94
00000401 00000030 733.17 251.66 394.33 541.23 852.45 444.20 1055.45 454.36 962.31 551.98 856.96 647.57 1036.41 656.13
00000402 00000031 732.35 253.95 395.32 535.41 852.43 443.48 1054.32 455.19 959.65 549.11 855.49 644.13 1034.57 654.02
00000403 DELETE   726.12 260.33 399.57 535.19 851.41 447.36 1046.85 462.41 955.77 547.36 848.36 639.00 1030.59 652.37
00000404 00000033 722.19 274.69 402.22 547.36 846.21 448.34 1044.99 468.14 952.05 566.85 836.94 647.16 1022.67 663.37
00000405 00000034 720.32 284.54 403.52 554.62 842.93 454.18 1042.15 476.71 945.49 579.37 825.88 654.87 1018.07 674.24
00000406 00000035 705.32 299.68 399.72 561.46 821.89 462.59 1023.56 489.94 927.17 586.66 802.96 674.58 995.82 697.20
00000407 00000036 686.38 275.81 405.31 577.14 806.76 456.12 1006.11 482.40 909.93 578.64 793.02 669.13 981.40 691.31
00000408 00000037 682.07 265.10 404.39 576.09 799.09 451.41 1002.60 475.13 899.98 567.62 789.87 663.97 978.67 683.69
00000409 00000038 676.12 265.53 391.28 544.01 788.63 438.05 984.05 449.12 887.57 543.82 785.47 644.71 964.40 655.17
00000410 00000039 661.76 250.17 387.36 526.75 778.25 426.68 971.02 441.74 876.06 519.98 775.28 622.37 948.55 635.07
00000411 00000040 654.76 239.71 383.68 523.20 773.70 419.71 965.95 439.05 871.91 507.27 769.60 609.92 940.11 626.44
00000412 00000041 635.14 240.56 383.74 496.00 757.82 404.66 940.24 417.47 853.19 491.95 762.35 593.15 913.39 603.08
00000413 00000042 613.13 225.59 383.81 502.89 733.10 397.62 926.15 413.38 835.44 477.83 744.28 579.61 906.87 592.43
00000414 00000043 612.68 227.83 373.54 493.17 731.14 394.39 912.42 407.99 829.75 470.37 735.86 575.96 892.95 588.01
00000415 00000044 593.06 218.63 376.55 490.02 715.12 383.51 896.94 397.42 815.13 462.51 720.73 568.77 875.70 581.39
00000416 00000045 578.85 215.18 369.62 482.08 694.71 383.00 879.32 397.74 791.70 459.06 704.54 562.90 859.25 576.14
00000417 00000046 568.13 216.89 372.81 476.45 682.31 384.91 870.56 396.10 779.91 456.91 694.24 562.53 852.81 572.59
00000418 00000047 552.00 209.38 374.49 482.44 667.62 379.40 856.52 388.61 768.44 457.78 681.37 559.22 841.51 567.08
00000419 00000048 545.57 202.68 372.27 492.43 656.27 376.01 844.36 375.61 761.53 456.52 671.18 563.41 833.40 564.25
00000420 00000049 534.96 202.61 375.80 495.19 651.11 374.96 836.36 377.35 754.51 456.06 663.51 561.70 823.61 564.41
00000421 00000050 521.39 195.76 382.59 503.36 638.11 374.38 827.22 379.31 743.27 460.27 652.76 565.65 812.16 569.82
00000422 00000051 515.45 192.45 382.52 505.50 629.38 374.67 824.13 380.55 734.09 464.98 644.39 568.04 809.68 573.25
00000423 00000052 513.29 186.42 384.62 514.62 628.37 373.75 823.01 381.26 733.06 466.52 643.38 570.78 805.82 577.03
00000424 00000053 509.96 181.52 389.32 532.22 625.51 373.23 822.98 379.26 732.82 470.02 641.55 577.60 805.82 582.23
00000425 00000054 507.28 183.76 395.22 539.23 626.52 378.57 824.89 383.04 737.64 478.27 644.68 585.06 807.83 588.79
00000426 00000055 506.64 183.33 398.09 541.47 627.00 380.13 829.51 384.58 740.33 482.59 643.48 586.27 812.46 590.14
00000427 00000056 508.22 182.38 400.52 543.81 629.64 381.53 831.75 388.56 740.43 487.01 645.49 589.64 810.93 595.81
00000428 00000057 511.55 193.68 400.36 539.05 632.55 388.79 832.85 393.97 742.63 497.59 650.29 597.19 813.67 602.03
00000429 00000058 516.28 206.02 399.66 535.67 630.27 396.32 832.84 397.42 742.15 512.23 650.65 607.04 813.74 607.40
00000430 00000059 518.25 211.16 404.22 552.43 625.85 411.26 837.20 409.78 742.15 532.36 646.01 623.42 825.99 621.18
00000431 00000060 524.95 209.86 407.27 563.65 630.76 417.69 842.10 414.41 746.06 536.50 651.32 633.37 830.77 629.45
00000432 00000061 528.91 213.16 409.66 560.18 635.02 414.19 847.20 413.36 749.07 535.01 653.28 630.92 833.52 629.38
00000433 00000062 538.69 200.16 411.66 562.03 654.77 395.64 861.93 410.75 759.53 514.35 667.12 609.54 843.34 622.15
00000434 00000063 551.98 199.25 414.22 549.80 679.40 389.96 880.59 412.70 779.34 497.37 681.11 592.69 851.42 612.14
00000435 DELETE   565.02 190.22 413.09 551.86 692.22 385.21 891.87 408.37 788.39 493.46 692.21 585.68 862.80 605.69
00000436 DELETE   582.77 196.84 407.70 533.43 722.98 374.20 916.19 404.40 823.32 485.14 714.26 574.43 878.62 600.99
00000437 00000066 603.72 207.61 404.21 522.82 747.19 367.88 940.61 409.14 848.87 482.15 726.83 569.23 894.59 603.17
00000438 00000067 607.68 207.52 405.25 520.65 755.74 367.50 947.22 412.15 856.18 480.68 733.77 565.87 898.23 602.31
00000439 00000068 613.80 207.80 400.17 516.84 760.24 367.70 951.12 414.73 856.67 477.64 737.07 562.73 899.90 600.80
00000440 00000069 613.47 211.03 395.58 508.44 753.89 367.35 941.28 411.53 845.13 473.56 732.62 558.69 892.63 594.26
00000441 00000070 614.76 214.63 393.75 501.22 750.56 366.13 936.64 408.84 838.71 471.99 730.27 556.88 886.83 591.32
00000442 00000071 612.81 211.38 393.26 501.98 747.82 367.19 933.58 409.50 832.95 471.01 724.28 554.34 881.96 588.48
00000443 00000072 612.71 215.06 391.92 496.60 747.77 367.46 932.35 410.82 831.73 471.53 722.96 552.17 881.55 587.20
00000444 00000073 614.12 216.98 390.83 493.29 748.76 368.43 933.16 412.39 832.63 470.19 723.59 551.96 882.24 587.46
00000445 00000074 616.89 216.12 390.87 496.87 752.89 370.41 935.40 415.33 836.14 469.34 726.68 553.71 884.20 590.23
00000446 00000075 619.36 217.73 393.04 504.04 757.46 369.75 941.82 421.48 840.12 470.73 725.53 555.79 887.37 598.15
00000447 00000076 622.89 216.43 392.01 510.55 757.94 366.59 946.23 421.40 839.38 471.07 723.40 557.94 892.02 603.00
00000448 00000077 625.61 216.04 392.85 521.98 760.24 362.93 954.69 421.82 842.07 471.27 720.32 561.05 897.39 610.00
00000449 00000078 629.93 212.94 393.10 525.25 762.96 361.30 957.66 420.72 844.06 466.20 720.53 558.77 899.29 608.64
00000450 00000079 634.19 211.44 391.97 520.88 766.82 360.89 960.61 420.77 846.51 463.37 721.73 555.87 899.46 606.48
00000451 00000080 642.64 203.65 394.00 516.33 779.23 360.56 970.26 420.71 859.09 459.62 735.91 550.30 905.95 601.58
00000452 00000081 646.57 204.37 395.45 512.89 785.83 361.29 974.40 417.17 870.59 458.91 748.72 551.39 914.54 599.47
00000453 00000082 648.69 204.63 398.74 514.77 787.61 360.96 976.26 416.08 871.95 462.42 752.74 553.44 917.87 601.03
00000454 00000083 651.11 212.67 398.42 518.12 787.77 365.12 978.82 419.19 876.24 469.03 756.70 560.82 924.65 607.64
00000455 00000084 652.55 217.63 401.44 514.07 786.96 368.21 982.40 424.96 877.19 478.66 751.89 568.75 926.15 617.97
00000456 00000085 654.89 217.96 401.12 517.25 788.55 371.43 984.40 426.58 879.25 481.75 754.13 570.88 930.73 618.85
00000457 00000086 661.78 222.37 398.53 518.33 795.82 377.29 991.41 432.23 888.58 486.14 764.25 574.56 939.70 622.23
00000458 00000087 669.87 221.57 405.16 524.22 811.02 377.63 1004.05 428.42 903.32 491.48 777.02 573.27 951.49 615.76
00000459 00000088 674.36 221.24 402.25 524.16 818.90 379.95 1008.89 431.66 912.21 490.33 785.41 574.37 955.55 617.76
00000460 00000089 682.20 226.57 401.28 521.60 832.37 381.14 1022.98 437.66 929.21 491.09 801.81 576.94 968.95 623.78
00000461 00000090 687.83 227.35 400.53 520.82 841.75 385.65 1033.11 440.59 943.78 496.62 813.48 583.02 977.50 628.77
00000462 00000091 688.80 230.51 400.28 524.95 843.77 390.35 1032.70 444.23 946.98 503.29 816.52 587.85 978.78 632.87
00000463 00000092 692.71 251.70 396.18 509.38 845.66 404.83 1026.26 457.48 939.39 522.08 807.74 599.12 966.76 642.09
00000464 00000093 685.45 257.37 392.02 511.40 827.07 412.87 1008.87 459.90 913.02 539.86 786.23 601.51 960.75 640.62
00000465 00000094 682.19 251.18 396.10 524.38 811.45 414.17 1004.19 459.26 903.67 538.82 780.58 605.74 962.70 646.24
00000466 00000095 670.01 251.07 391.41 521.03 796.00 415.26 990.25 457.62 887.57 539.95 766.82 604.97 951.03 642.76
00000467 00000096 667.72 234.73 390.75 530.40 795.20 402.00 989.20 448.13 888.00 519.93 767.74 596.93 946.43 637.23
00000468 00000097 668.78 228.53 387.49 527.54 797.47 395.72 991.12 442.25 894.36 501.51 774.42 593.24 945.10 633.40
00000469 00000098 667.79 221.03 388.82 524.82 801.27 388.82 991.36 432.69 906.18 483.00 785.29 587.94 944.51 625.57
00000470 00000099 664.63 222.47 389.99 520.19 795.56 387.12 986.39 427.20 899.77 483.70 781.36 586.85 941.24 621.54
00000471 00000100 660.82 221.35 392.58 523.24 792.02 389.07 983.17 429.18 895.20 490.33 778.93 591.75 938.30 625.63
00000472 00000101 655.98 222.58 394.29 531.47 780.78 400.91 981.71 435.88 884.69 515.72 771.54 613.97 931.27 642.54
00000473 00000102 649.72 230.00 393.26 531.11 774.01 402.60 973.17 437.29 875.52 527.51 766.66 619.02 917.29 647.26
00000474 00000103 647.29 231.08 391.15 523.22 772.75 401.88 973.01 435.92 875.84 525.58 764.93 614.53 919.88 642.44
00000475 00000104 641.41 235.15 392.90 510.85 769.56 396.02 967.82 428.74 869.86 518.53 762.09 603.48 916.44 630.02
00000476 00000105 638.06 234.32 391.66 513.23 766.45 398.38 962.46 429.45 866.30 519.41 760.71 606.33 910.15 631.05
00000477 00000106 635.20 237.33 391.32 512.37 764.44 401.06 959.31 431.33 865.21 522.97 760.20 610.09 907.83 633.88
00000478 00000107 627.34 238.51 393.26 516.71 757.99 406.67 950.03 438.38 857.78 529.68 751.12 617.23 901.24 642.10
00000479 00000108 620.25 237.83 392.99 524.43 749.08 409.89 938.84 440.93 845.87 531.51 736.55 621.70 890.28 646.10
00000480 00000109 617.47 242.01 391.19 524.83 743.42 408.84 931.40 438.19 839.57 532.55 729.86 617.96 886.98 641.28
00000481 00000110 617.15 238.80 388.30 527.85 733.64 406.98 930.55 431.65 835.67 525.32 727.84 616.60 894.53 638.62
00000482 00000111 617.27 239.19 386.55 525.70 733.79 407.15 928.80 432.11 833.66 525.16 727.91 614.46 893.31 636.95
00000483 00000112 616.01 237.50 384.03 517.83 731.73 409.79 926.12 434.80 829.20 528.55 726.94 612.43 890.91 634.86
00000484 00000113 609.56 239.17 383.48 516.88 722.89 413.76 918.90 436.08 821.97 537.31 719.74 614.75 887.91 634.74
00000485 00000114 603.68 241.22 381.45 523.97 712.90 422.17 905.55 442.77 808.15 538.86 708.37 621.54 876.11 639.45
00000486 00000115 597.22 243.32 383.83 524.74 703.64 426.32 895.74 445.95 795.18 542.71 699.38 624.41 867.06 640.98
00000487 00000116 580.38 230.09 394.99 538.02 675.98 429.45 867.64 451.54 753.19 546.25 667.01 616.35 847.58 635.15
00000488 00000117 549.19 202.44 404.47 556.49 634.06 413.00 825.28 436.48 696.38 532.32 630.69 604.68 806.99 622.35
00000489 00000118 549.02 209.41 395.69 546.91 617.76 408.45 801.10 431.42 665.76 524.65 611.03 602.82 781.28 619.71
00000490 00000119 532.80 218.12 381.85 525.36 580.65 421.20 751.76 424.87 615.37 523.77 590.19 608.69 746.53 611.73
00000491 00000120 527.40 213.24 381.74 525.98 571.40 422.15 741.69 420.53 606.70 521.92 586.21 611.89 739.12 610.20
00000492 00000121 523.43 213.82 384.40 520.11 567.90 420.02 738.48 418.50 602.65 517.68 580.40 609.33 733.47 607.67
00000493 00000122 519.71 209.57 385.58 521.67 562.49 411.27 726.90 417.66 587.33 512.36 565.50 598.68 719.15 603.56
00000494 00000123 518.37 203.98 385.85 516.72 553.29 406.85 709.55 410.33 564.40 505.29 553.69 599.83 697.11 601.01
00000495 00000124 520.64 208.75 380.76 511.28 552.58 410.49 706.73 410.07 563.29 505.33 553.52 602.40 694.09 600.62
00000496 00000125 520.49 218.42 374.36 506.82 551.87 421.26 708.53 415.59 573.18 511.12 563.27 611.91 702.66 606.73
00000497 00000126 524.88 226.91 374.31 515.06 557.98 436.71 718.81 424.60 587.75 522.74 579.29 623.84 724.32 613.89
00000498 00000127 527.96 246.04 373.00 505.46 563.48 448.46 722.76 429.76 596.89 529.68 588.81 631.22 734.92 615.65
00000499 00000128 531.99 251.68 374.37 509.68 572.37 468.19 726.38 437.98 607.42 534.84 601.10 642.68 746.67 617.49
00000500 00000129 538.45 255.94 370.96 507.07 578.86 473.40 732.27 445.97 615.37 545.68 607.98 644.88 753.88 621.95
00000501 00000130 540.36 253.18 371.16 509.37 582.24 474.86 738.66 447.56 623.47 549.99 614.09 646.12 761.30 623.44
00000502 00000131 547.11 261.53 373.42 507.00 594.90 476.81 754.83 449.88 641.93 553.28 627.01 648.83 774.54 627.14
00000503 00000132 560.73 269.30 369.46 500.86 602.59 470.06 763.41 447.18 647.61 552.93 635.30 642.60 777.96 622.83
00000504 00000133 553.57 266.97 375.61 505.33 600.96 478.91 757.15 452.68 645.38 555.14 635.48 649.98 777.01 628.69
00000505 00000134 560.84 263.28 364.10 507.14 599.49 473.57 749.00 452.00 632.82 553.12 630.25 645.43 760.00 626.06
00000506 00000135 562.40 258.79 362.58 517.13 601.71 480.19 739.40 452.60 626.72 554.45 628.81 652.25 762.12 628.73
00000507 00000136 560.56 263.75 362.48 510.97 611.56 470.68 749.50 455.66 639.37 558.96 639.43 652.65 760.96 640.02
00000508 00000137 573.77 274.64 359.39 500.72 625.00 470.18 771.21 456.48 659.11 558.75 654.46 652.41 784.16 641.04
00000509 00000138 578.30 274.78 368.91 500.28 631.42 468.23 781.87 453.95 669.96 553.55 657.91 651.13 792.47 640.17
00000510 00000139 578.93 273.59 371.43 499.47 630.63 468.63 781.29 454.71 667.71 553.75 656.05 651.25 791.21 640.45
00000511 00000140 583.67 272.26 373.00 504.80 631.08 471.68 780.96 452.69 663.74 552.05 658.29 653.90 793.82 638.96
00000512 00000141 585.16 271.30 370.50 504.08 629.82 472.49 779.49 453.06 661.46 552.92 658.57 653.38 795.11 637.95
00000513 00000142 587.91 271.24 368.76 505.80 632.28 472.53 782.11 454.13 664.01 553.77 660.27 652.51 797.72 638.07
00000514 00000143 595.74 268.81 367.23 504.17 637.67 470.64 792.59 454.36 673.02 555.72 663.58 650.90 806.78 637.91
00000515 00000144 603.18 264.06 373.37 501.94 646.43 471.04 800.83 454.80 680.81 554.96 670.70 648.36 812.23 634.92
00000516 00000145 607.53 259.03 371.91 505.01 649.85 469.74 802.13 454.27 680.66 553.18 672.86 646.31 813.48 633.42
00000517 00000146 613.42 249.26 368.14 512.54 645.71 457.97 805.54 445.13 682.83 556.18 673.46 643.80 808.61 636.07
00000518 00000147 618.57 246.21 365.51 506.36 649.12 450.32 807.59 438.50 682.48 546.37 671.48 636.20 807.12 629.45
00000519 00000148 619.79 249.12 366.04 497.22 652.81 445.37 810.34 435.93 684.30 538.91 670.85 630.59 807.26 625.42
00000520 00000149 626.26 245.13 373.84 498.47 666.10 442.08 820.12 437.32 687.48 519.35 675.83 623.36 809.19 617.97
00000521 00000150 628.92 226.87 376.21 515.46 681.00 424.29 843.31 427.87 707.97 504.82 679.53 610.33 827.85 611.72
00000522 00000151 630.80 222.15 376.46 516.83 687.56 419.54 851.37 423.58 719.40 500.08 684.94 603.41 839.38 605.25
00000523 00000152 634.47 216.49 383.83 506.35 703.21 405.59 879.25 413.90 752.16 488.54 697.43 591.93 862.83 598.53
00000524 00000153 642.09 211.50 378.99 502.16 718.34 396.01 904.83 412.91 777.37 477.99 710.06 576.60 879.94 591.28
00000525 00000154 645.50 210.33 382.09 505.03 725.11 395.10 913.15 412.87 784.63 477.47 716.84 575.57 888.39 590.92
00000526 00000155 645.85 214.32 382.43 506.28 730.04 395.53 919.22 415.25 792.03 480.46 721.12 575.90 893.60 592.96
00000527 00000156 643.88 222.87 383.25 509.81 727.16 414.82 905.47 422.92 788.61 499.50 724.56 595.29 887.01 602.23
00000528 00000157 641.52 228.51 381.46 509.19 723.17 418.68 902.01 426.62 785.95 507.26 722.25 600.76 883.09 607.46
00000529 00000158 634.02 234.88 381.38 510.30 717.08 423.12 899.06 431.62 785.54 514.75 718.29 607.95 879.85 614.65
00000530 00000159 625.14 238.44 384.00 510.13 710.84 422.82 897.10 431.88 786.16 517.62 716.15 612.75 876.60 619.14
00000531 00000160 623.19 239.00 382.67 511.69 708.74 421.99 895.22 431.10 785.20 518.83 714.00 613.79 874.49 620.23
00000532 00000161 612.63 238.61 387.55 512.17 700.12 425.04 891.96 431.39 780.86 519.96 707.96 616.58 873.66 622.11
00000533 00000162 610.70 237.89 388.18 509.32 703.18 430.33 892.60 433.43 786.59 518.69 711.99 615.70 877.36 618.38
CROP_BBOX: 358 0 1397 1040
