Video ID: 	Z2LIsBbYt94
H: 	1080
W: 	1920
FPS: 	25.0

FRAME INDEX X0 Y0 W H [Landmarks (5 Points)]

00008537 00000000 948.55 131.24 368.14 507.77 1026.42 334.20 1181.18 355.62 1059.08 400.44 1008.63 498.49 1139.61 518.82
00008538 DELETE   946.67 129.26 365.65 511.60 1021.99 333.64 1174.01 351.75 1053.75 399.55 1006.44 502.84 1132.07 520.38
00008539 DELETE   944.08 125.88 357.96 507.91 1013.84 330.89 1157.83 346.87 1042.13 399.65 999.91 503.83 1114.35 519.14
00008540 00000003 936.69 124.18 356.85 506.98 1001.91 328.46 1140.97 344.04 1026.97 402.83 989.87 504.40 1099.20 518.28
00008541 00000004 931.07 125.56 359.24 505.35 996.05 328.86 1133.14 343.36 1021.24 401.69 985.34 503.75 1093.76 516.50
00008542 00000005 930.43 126.23 359.89 507.96 996.18 330.58 1134.66 344.28 1022.51 403.56 985.79 505.70 1095.80 517.91
00008543 00000006 932.29 125.50 356.28 511.65 997.73 333.24 1135.05 343.77 1025.39 405.00 990.12 509.20 1097.57 519.09
00008544 00000007 933.19 125.48 354.52 513.78 998.87 334.58 1135.54 343.56 1027.56 404.13 992.09 511.28 1098.22 520.24
00008545 00000008 934.28 126.59 352.58 516.44 999.59 335.01 1135.85 342.44 1027.65 404.36 993.53 512.86 1098.78 520.87
00008546 00000009 934.22 127.33 352.59 519.38 999.00 336.24 1136.81 343.02 1027.33 405.69 991.81 515.53 1097.92 523.15
00008547 00000010 933.27 129.08 354.54 519.47 999.26 337.78 1139.82 345.50 1028.44 407.03 991.69 516.29 1101.40 524.48
00008548 00000011 934.02 126.90 354.83 516.41 999.59 337.87 1141.25 346.75 1030.24 407.78 993.49 514.30 1105.69 523.25
00008549 00000012 935.88 126.84 354.26 507.99 1000.45 336.17 1142.27 347.62 1030.34 407.33 993.07 509.85 1106.96 520.56
00008550 00000013 940.26 130.20 350.50 502.37 998.47 336.50 1149.42 346.69 1021.47 401.63 990.29 507.99 1104.40 517.24
00008551 00000014 936.54 127.78 354.37 507.13 1000.92 336.24 1144.11 348.11 1030.76 408.56 993.11 510.10 1108.68 521.14
00008552 00000015 936.65 127.49 353.99 508.15 1001.64 336.08 1144.56 347.10 1032.47 408.33 994.89 510.40 1109.28 520.91
00008553 00000016 935.56 128.35 353.91 513.25 1001.51 336.62 1143.03 345.67 1032.92 408.87 995.42 513.54 1105.60 522.82
00008554 00000017 934.90 127.40 354.02 518.33 1000.90 337.15 1143.18 345.29 1032.45 408.93 993.71 516.50 1102.87 525.26
00008555 00000018 935.67 127.39 354.13 512.17 1001.52 336.45 1145.01 346.49 1033.81 409.24 995.64 512.83 1109.01 522.74
00008556 00000019 936.29 127.41 354.03 507.60 1002.46 335.52 1144.82 347.00 1033.43 408.02 996.11 508.26 1110.85 519.13
00008557 00000020 938.77 126.98 353.93 510.26 1007.08 334.38 1154.15 346.54 1040.49 407.27 999.41 508.71 1117.01 520.54
00008558 00000021 939.69 130.34 354.72 521.46 1010.66 340.51 1164.29 346.57 1051.27 408.17 1007.91 515.16 1130.63 522.71
00008559 00000022 939.11 130.86 355.31 530.56 1013.68 343.79 1170.13 349.90 1059.86 410.96 1014.43 518.72 1143.91 526.31
00008560 00000023 940.41 138.36 354.58 528.65 1013.05 353.48 1162.60 350.44 1046.38 408.79 1017.65 524.17 1141.08 521.94
00008561 DELETE   938.92 134.48 351.61 519.29 1005.92 345.90 1148.39 344.25 1030.10 406.61 1005.48 516.54 1127.93 515.92
00008562 DELETE   929.52 131.32 350.79 516.23 992.21 345.89 1131.77 339.83 1016.25 399.56 993.10 515.02 1112.47 511.11
00008563 00000026 913.84 126.28 357.91 513.75 974.44 339.34 1125.78 336.35 1012.97 405.98 979.27 505.02 1109.43 506.03
00008564 00000027 909.60 122.26 362.09 509.82 969.96 336.77 1125.67 335.70 1008.32 404.96 975.76 503.46 1108.84 505.34
00008565 00000028 909.78 120.88 361.81 513.54 972.10 338.14 1128.00 333.42 1014.03 403.33 981.88 506.99 1113.76 505.93
00008566 00000029 908.67 119.81 361.72 517.45 973.15 341.50 1127.06 330.09 1021.85 405.15 993.21 512.34 1121.93 505.31
00008567 DELETE   904.59 119.85 361.05 521.91 970.22 346.58 1119.03 328.38 1022.08 408.60 996.56 517.41 1119.89 504.95
00008568 00000031 896.52 124.94 360.05 522.28 960.35 354.71 1107.89 332.78 1013.27 415.14 990.65 524.45 1112.90 508.83
00008569 DELETE   886.49 125.46 361.24 527.62 949.04 354.83 1095.49 333.64 1001.31 413.90 980.15 526.35 1101.98 511.07
00008570 00000033 878.59 126.68 362.32 528.81 938.42 357.21 1079.94 334.35 988.29 416.53 972.91 531.62 1088.84 515.05
00008571 00000034 872.32 128.06 359.23 527.46 930.29 361.35 1068.89 335.97 978.04 419.37 968.04 537.15 1079.11 518.71
00008572 00000035 865.23 127.59 361.24 528.33 924.62 361.59 1061.54 337.67 970.60 419.80 962.83 537.27 1071.68 519.99
00008573 00000036 864.24 120.88 367.36 533.24 927.73 370.92 1067.13 332.98 960.96 413.26 966.48 541.48 1070.57 509.88
00008574 00000037 861.76 119.29 365.94 533.42 924.56 370.38 1062.98 332.21 958.36 413.95 962.84 541.01 1066.14 509.35
00008575 00000038 859.61 119.19 365.50 531.74 922.60 369.64 1060.21 331.98 956.77 414.15 960.26 540.20 1063.72 509.08
00008576 00000039 857.69 118.57 366.10 532.95 921.36 368.90 1059.15 331.66 956.25 414.57 958.80 540.03 1063.03 509.26
00008577 00000040 856.51 119.73 366.60 533.78 920.66 369.10 1058.51 332.21 955.53 414.57 957.82 541.17 1060.98 510.56
00008578 00000041 855.53 119.18 367.07 535.23 920.06 369.13 1058.48 332.09 955.39 414.71 957.38 541.87 1061.23 511.08
00008579 00000042 856.05 119.71 365.78 534.00 920.34 368.81 1058.55 332.03 955.45 414.12 957.10 541.27 1060.70 510.75
00008580 00000043 855.22 119.02 364.84 535.84 919.48 368.04 1057.41 331.42 954.25 413.97 955.96 541.62 1060.34 511.12
00008581 00000044 855.13 119.89 362.21 533.85 918.25 366.85 1056.29 331.36 953.24 414.03 954.38 540.73 1058.69 511.27
00008582 00000045 854.08 120.11 361.94 532.70 916.68 365.66 1054.74 330.21 951.88 413.45 952.83 539.34 1058.52 509.93
00008583 00000046 853.59 119.07 361.63 532.92 916.13 364.97 1054.48 329.96 951.44 413.25 951.99 538.33 1058.37 509.28
00008584 00000047 851.99 120.13 361.43 532.81 914.91 365.98 1053.44 330.36 951.29 413.39 951.37 538.52 1058.63 508.82
00008585 00000048 851.07 119.39 361.31 532.55 913.33 366.47 1052.25 330.33 950.84 413.71 950.79 538.57 1058.63 508.53
00008586 00000049 850.19 118.50 361.38 534.01 912.05 367.08 1051.37 330.19 950.20 414.81 950.72 538.95 1059.36 508.16
00008587 00000050 849.78 119.62 362.04 533.89 911.40 367.82 1051.18 329.83 949.82 415.08 950.71 539.87 1060.50 508.09
00008588 00000051 849.72 119.31 362.45 535.21 911.54 367.72 1051.03 329.28 949.67 415.18 950.70 539.59 1061.67 507.34
00008589 00000052 849.64 119.80 362.93 537.21 911.37 367.74 1050.47 328.58 948.61 415.25 950.66 539.74 1063.14 506.61
00008590 00000053 850.36 119.74 362.69 536.60 911.56 367.80 1050.56 329.07 948.73 415.61 950.81 539.71 1062.62 507.00
00008591 00000054 851.12 120.18 362.21 536.26 912.22 367.72 1050.53 329.32 948.52 415.41 950.63 539.35 1062.01 506.93
00008592 00000055 852.03 121.42 362.83 536.20 913.52 367.74 1051.86 329.36 949.65 415.13 951.36 539.12 1063.22 506.69
00008593 00000056 853.01 122.27 363.01 536.69 914.45 367.37 1052.21 328.90 949.84 414.94 951.88 539.40 1063.93 506.82
00008594 00000057 852.75 122.87 363.03 539.69 914.42 367.92 1051.51 328.13 948.80 414.86 952.61 541.07 1064.25 507.14
00008595 00000058 853.43 122.06 363.11 536.31 914.57 367.04 1051.91 328.58 948.37 414.17 951.21 539.58 1061.97 507.06
00008596 00000059 854.44 121.07 363.31 538.02 915.45 366.11 1052.50 327.58 948.31 413.16 951.41 538.92 1062.75 506.28
00008597 00000060 854.57 121.30 365.03 542.64 915.46 365.78 1052.56 325.86 947.56 412.13 951.79 539.57 1065.52 505.57
00008598 00000061 853.69 121.21 364.83 544.41 914.65 366.10 1051.86 324.40 947.83 411.45 952.52 540.58 1067.31 504.95
00008599 00000062 853.86 119.90 362.72 536.29 914.07 363.84 1051.01 326.04 947.23 410.54 948.51 534.49 1061.86 502.57
00008600 00000063 854.44 119.18 361.14 531.09 913.08 362.03 1049.66 327.15 945.48 410.85 943.22 530.26 1056.50 501.19
00008601 00000064 854.25 118.26 360.58 531.31 912.33 359.90 1048.50 326.22 943.92 409.93 940.55 528.24 1052.09 500.31
00008602 00000065 856.29 118.08 358.66 524.57 913.29 360.30 1049.62 326.79 945.80 411.24 941.21 526.94 1053.37 499.69
00008603 00000066 857.24 117.58 359.19 525.47 914.36 360.15 1051.03 325.20 947.18 409.51 942.99 528.56 1054.30 500.23
00008604 00000067 856.19 119.43 360.44 527.98 917.59 361.32 1054.94 325.63 951.17 406.75 949.10 530.74 1058.29 501.38
00008605 00000068 857.17 117.92 359.75 529.31 918.20 363.52 1053.84 328.30 950.50 408.18 951.72 531.96 1059.34 502.95
00008606 00000069 857.26 117.22 362.05 538.62 919.09 363.25 1055.38 326.36 951.36 408.30 954.58 534.63 1065.11 503.61
00008607 00000070 857.66 117.72 363.46 540.51 921.12 363.39 1058.13 325.14 953.50 407.51 956.62 536.56 1067.84 504.36
00008608 00000071 858.21 116.90 363.47 539.25 921.75 363.17 1058.85 325.07 954.31 407.16 957.32 536.46 1067.79 504.59
00008609 00000072 860.24 118.07 358.88 526.51 920.90 361.43 1059.20 325.83 954.25 406.98 952.99 532.09 1065.05 503.16
00008610 00000073 861.54 117.84 356.86 518.58 919.68 358.51 1059.25 326.07 953.47 409.04 948.32 526.79 1064.32 500.63
00008611 00000074 863.84 117.16 355.02 513.93 919.44 357.79 1060.22 325.56 953.29 410.47 946.68 524.43 1065.68 498.45
00008612 00000075 864.31 116.41 355.70 514.83 920.48 357.77 1061.23 324.68 954.68 409.85 948.15 524.22 1066.76 497.48
00008613 00000076 865.06 115.41 355.55 516.40 921.67 356.89 1062.03 324.14 956.07 410.00 949.43 524.33 1066.65 497.95
00008614 00000077 866.70 116.05 356.13 516.32 922.93 359.85 1063.27 324.78 955.55 409.29 952.93 527.52 1067.82 499.05
00008615 00000078 866.86 116.36 356.88 519.37 923.95 361.80 1063.71 324.76 956.17 407.75 956.53 529.59 1068.66 499.32
00008616 00000079 867.05 116.27 356.63 519.99 924.72 362.05 1064.06 325.11 956.72 407.49 958.06 530.61 1067.76 500.42
00008617 00000080 866.60 116.55 357.35 524.05 925.94 362.23 1065.46 325.92 959.09 407.40 959.97 531.90 1068.81 502.20
00008618 00000081 867.47 118.09 356.76 523.68 927.79 362.68 1066.54 326.81 959.75 406.86 962.23 533.41 1069.11 504.06
00008619 00000082 867.47 118.57 358.13 525.76 928.39 363.36 1067.12 327.55 960.49 407.53 962.92 534.62 1069.85 505.28
00008620 00000083 867.70 119.71 358.15 524.38 929.09 363.48 1067.23 328.47 960.26 407.84 962.55 534.45 1068.88 505.84
00008621 00000084 869.03 119.30 357.14 523.82 927.87 362.41 1066.34 327.68 957.86 408.12 959.53 531.13 1069.01 502.66
00008622 00000085 871.83 120.10 353.96 515.73 927.99 360.14 1066.50 328.15 956.11 408.11 956.21 526.28 1067.66 500.11
00008623 00000086 871.48 119.47 354.77 518.63 929.21 360.84 1067.37 328.74 956.72 407.86 958.02 527.53 1067.87 501.20
00008624 00000087 872.12 120.08 355.67 523.00 931.39 362.05 1069.86 328.60 959.74 407.67 961.65 530.62 1071.95 503.12
00008625 00000088 872.36 120.44 355.64 523.95 932.22 361.42 1070.69 328.42 960.69 407.16 962.59 530.37 1072.25 503.17
00008626 00000089 869.14 123.11 353.72 521.75 926.43 351.67 1065.26 333.18 969.37 410.68 957.63 524.92 1072.25 512.01
00008627 00000090 869.53 122.76 354.41 520.56 926.96 350.96 1065.22 332.15 969.52 409.36 957.54 524.18 1072.11 510.97
00008628 00000091 869.82 123.06 353.13 516.89 927.76 350.17 1065.07 331.96 970.27 408.34 957.35 522.33 1070.61 509.75
00008629 00000092 869.79 123.40 352.21 515.86 927.84 350.01 1064.86 332.15 970.09 408.14 957.12 522.59 1069.28 510.42
00008630 00000093 870.03 121.40 352.77 520.58 928.06 349.21 1065.79 331.71 970.63 408.10 957.78 523.31 1070.64 511.41
00008631 00000094 872.39 120.00 351.53 525.26 930.07 347.59 1066.71 331.00 972.46 407.56 960.18 522.48 1072.70 511.27
00008632 00000095 873.35 120.06 350.83 526.90 930.73 348.20 1067.10 331.07 973.02 407.20 960.79 524.43 1071.88 513.03
00008633 00000096 873.95 119.09 351.38 526.82 931.03 348.29 1068.79 331.15 973.57 406.86 959.72 524.98 1072.26 513.60
00008634 00000097 874.18 120.34 350.24 525.56 931.03 349.23 1068.27 332.22 972.92 407.40 959.93 526.25 1071.23 515.08
00008635 00000098 874.76 121.86 348.64 524.95 931.08 351.31 1068.50 334.04 972.85 408.63 959.58 528.66 1069.64 517.48
00008636 00000099 875.18 123.32 349.41 526.48 931.23 352.40 1068.13 335.42 972.39 411.21 959.04 530.13 1068.55 519.29
00008637 00000100 877.21 124.66 349.42 524.38 932.64 352.32 1070.05 338.18 972.66 413.71 958.42 529.46 1068.59 520.88
00008638 00000101 878.47 125.79 349.98 520.92 933.26 351.79 1072.96 338.92 972.58 414.61 956.65 528.98 1068.38 521.28
00008639 00000102 879.87 126.68 351.45 520.04 934.31 351.57 1075.14 339.58 972.70 415.44 955.70 529.87 1067.93 522.84
00008640 00000103 881.97 129.82 352.33 526.08 935.81 357.02 1078.21 346.06 973.41 421.91 955.55 536.69 1068.93 530.32
00008641 00000104 887.59 134.16 355.47 532.52 943.57 367.61 1081.74 355.97 962.32 424.36 957.40 542.73 1060.17 532.68
00008642 00000105 890.44 145.69 353.08 530.86 945.57 370.05 1082.26 366.83 961.96 434.74 953.20 547.11 1056.59 544.00
00008643 00000106 893.22 157.86 349.32 522.58 942.29 375.12 1082.20 378.67 961.41 446.60 947.41 552.93 1055.14 555.22
00008644 00000107 896.12 164.87 354.01 519.96 942.33 378.46 1085.42 389.74 962.53 458.75 947.19 557.67 1055.91 565.91
00008645 00000108 903.56 162.15 347.18 523.00 944.04 375.06 1077.00 383.06 962.14 464.75 952.64 559.28 1063.48 568.58
00008646 DELETE   903.19 157.97 348.18 520.53 951.31 365.10 1088.65 374.46 968.19 440.86 955.73 550.88 1053.76 557.06
00008647 00000110 909.48 139.68 346.98 533.50 955.49 357.53 1091.61 359.04 967.74 424.01 960.95 541.60 1058.73 541.75
00008648 00000111 910.29 130.39 351.59 531.31 960.64 352.97 1101.28 348.64 975.46 410.94 963.88 531.88 1065.02 528.28
00008649 00000112 912.34 119.74 353.03 529.12 961.74 340.84 1100.80 336.45 985.76 412.28 968.73 520.38 1080.93 520.68
00008650 00000113 919.57 134.06 351.91 522.81 971.39 347.24 1111.64 343.60 986.76 407.05 971.43 526.81 1071.46 524.12
00008651 00000114 924.59 133.84 351.55 522.61 973.89 347.61 1117.78 348.14 991.50 410.88 971.98 528.35 1073.41 529.29
00008652 00000115 928.57 134.42 349.96 515.82 973.43 349.71 1119.98 351.72 991.37 413.99 970.47 525.50 1077.58 527.75
00008653 00000116 930.80 134.99 348.92 518.78 974.81 352.50 1122.63 357.00 991.00 416.04 971.63 526.96 1080.19 530.83
00008654 00000117 931.96 135.39 349.32 524.52 976.14 354.35 1124.87 356.53 995.08 415.98 975.73 532.18 1082.06 533.98
00008655 00000118 931.95 134.82 350.65 528.21 977.88 355.53 1127.92 357.11 999.72 416.51 979.43 535.11 1083.97 536.39
00008656 00000119 932.99 134.17 350.20 530.90 978.95 354.97 1129.96 356.48 1002.14 416.39 980.63 536.66 1085.03 537.90
00008657 00000120 934.00 134.60 349.99 530.66 980.74 353.25 1131.75 355.72 1004.00 416.17 981.69 536.32 1086.45 538.40
00008658 00000121 935.69 133.65 350.06 524.89 981.79 352.24 1132.16 355.80 1003.27 416.47 981.98 531.92 1089.33 534.95
00008659 00000122 936.59 134.33 351.29 517.73 983.58 350.27 1133.38 355.40 1004.48 415.83 981.48 526.10 1092.39 530.56
00008660 00000123 937.38 135.71 350.87 515.91 985.34 349.08 1134.38 355.60 1006.22 416.69 981.53 524.86 1091.25 530.56
00008661 00000124 937.38 135.54 351.63 520.52 985.45 350.36 1134.69 355.69 1007.28 416.86 981.92 528.34 1088.77 533.06
00008662 00000125 938.22 135.66 350.58 521.64 986.87 351.16 1136.58 355.92 1009.60 416.95 984.22 531.02 1090.38 535.26
00008663 00000126 939.14 135.12 350.60 522.78 987.71 350.85 1137.58 355.42 1009.81 416.60 985.42 531.84 1091.37 535.91
00008664 00000127 939.99 134.49 350.14 519.97 987.95 350.37 1138.09 355.48 1009.76 416.60 985.78 529.83 1092.88 534.35
00008665 00000128 939.84 136.22 350.41 519.03 988.35 350.73 1138.36 356.13 1009.64 417.04 985.61 529.52 1093.23 534.32
00008666 00000129 939.95 135.17 350.58 524.05 988.62 351.34 1139.84 356.39 1010.99 417.85 987.17 531.99 1095.39 536.37
00008667 00000130 941.01 134.95 349.31 523.74 989.78 352.29 1140.12 356.73 1013.11 418.48 989.47 532.21 1096.23 536.03
00008668 00000131 941.66 133.62 349.19 526.27 990.61 352.63 1141.61 356.76 1015.46 418.46 991.39 533.42 1097.81 536.88
00008669 00000132 941.88 132.66 349.11 526.32 990.67 351.97 1141.71 356.18 1015.15 417.82 991.16 532.75 1097.89 536.30
00008670 00000133 942.14 132.52 349.09 526.43 991.06 351.82 1142.02 355.99 1016.01 417.86 991.93 532.59 1098.32 536.10
00008671 00000134 942.45 132.76 348.31 525.86 990.74 353.18 1141.45 356.46 1015.82 418.28 991.94 533.65 1097.18 536.49
00008672 00000135 944.93 141.84 349.26 518.77 1004.26 359.57 1137.95 361.94 1010.36 419.66 995.00 529.33 1098.52 532.45
00008673 00000136 943.28 142.83 349.68 520.10 1003.48 359.96 1136.62 362.52 1009.14 419.13 994.52 529.73 1097.97 532.85
00008674 00000137 944.26 140.38 349.67 519.62 1003.87 359.28 1136.85 361.38 1009.58 418.57 994.37 528.86 1097.64 531.81
00008675 00000138 944.70 137.66 350.00 517.62 1004.28 357.05 1137.24 358.91 1010.30 416.29 993.93 527.47 1096.35 530.59
00008676 00000139 939.48 135.20 349.58 518.95 988.00 352.17 1138.83 355.73 1011.15 415.18 986.67 530.02 1093.74 533.25
00008677 00000140 938.38 135.66 349.66 518.40 986.68 351.98 1137.02 354.60 1009.71 413.40 984.97 529.97 1091.19 532.45
00008678 00000141 942.28 138.31 350.26 517.01 1001.44 357.09 1133.55 357.94 1007.60 415.13 990.51 527.44 1093.02 529.97
00008679 00000142 940.12 138.88 351.84 519.64 1001.37 357.83 1132.47 360.48 1007.84 417.21 990.63 527.30 1092.31 530.99
00008680 00000143 940.01 137.48 352.70 519.28 1000.22 358.05 1132.56 361.80 1005.69 419.08 989.55 526.09 1094.12 530.67
00008681 00000144 941.41 140.03 351.28 516.03 1000.58 358.07 1133.22 361.78 1006.85 419.23 989.52 526.40 1094.30 530.99
00008682 00000145 941.05 141.11 351.26 518.22 999.42 358.90 1133.96 361.10 1008.40 420.25 990.92 529.82 1096.72 533.13
00008683 00000146 941.35 141.71 350.93 517.71 1000.77 359.76 1135.61 360.78 1011.10 419.78 993.32 531.17 1097.74 533.40
00008684 00000147 940.07 141.56 351.77 519.21 1001.62 359.29 1136.74 359.90 1012.97 417.80 994.27 531.36 1097.26 533.21
00008685 00000148 941.30 138.75 351.01 521.48 1003.03 358.86 1138.48 358.23 1014.54 416.40 996.17 531.65 1099.49 532.57
00008686 00000149 942.49 137.51 350.87 524.81 1006.84 359.15 1142.82 357.68 1019.53 415.36 1000.64 531.71 1103.80 531.82
00008687 00000150 944.67 138.35 352.27 527.54 1013.75 356.09 1150.42 353.21 1027.74 409.31 1008.07 531.06 1109.96 529.75
00008688 00000151 946.16 138.29 352.06 530.44 1017.03 355.51 1155.85 350.76 1033.91 407.02 1014.32 532.00 1117.23 528.68
00008689 00000152 944.15 134.48 349.82 526.16 1014.74 353.15 1161.50 352.77 1054.38 411.78 1015.51 526.81 1131.78 529.54
00008690 00000153 944.97 135.63 351.16 525.46 1018.76 352.97 1167.57 353.56 1060.69 410.64 1018.20 524.71 1137.10 528.35
00008691 DELETE   945.10 133.45 353.45 529.49 1020.67 352.44 1171.69 354.04 1065.87 412.43 1021.14 525.35 1141.63 529.86
00008692 00000155 945.85 132.68 353.53 530.43 1021.64 352.65 1173.89 354.19 1068.19 412.62 1022.61 525.70 1143.36 530.26
00008693 00000156 946.86 133.72 351.92 528.97 1024.00 354.19 1175.11 355.65 1071.75 414.52 1024.76 526.87 1143.49 531.55
00008694 00000157 946.34 134.51 352.80 525.81 1024.69 354.14 1176.62 357.10 1074.15 416.71 1025.58 525.79 1145.28 531.63
00008695 00000158 943.89 133.83 354.13 524.48 1022.44 353.48 1176.58 358.15 1073.60 418.33 1025.09 524.88 1147.02 531.87
00008696 00000159 942.72 133.95 353.72 523.96 1020.84 354.51 1175.03 359.25 1072.25 418.73 1024.00 525.65 1145.60 532.64
00008697 00000160 941.58 135.94 353.87 524.30 1020.55 355.95 1172.99 359.90 1072.02 419.66 1023.86 528.35 1143.17 534.69
00008698 00000161 938.63 139.82 355.82 526.31 1019.67 359.77 1170.74 363.13 1071.23 424.13 1022.47 532.77 1139.63 538.45
00008699 00000162 936.14 140.52 357.95 525.92 1016.82 362.89 1169.50 368.40 1068.53 429.18 1018.67 535.00 1136.40 541.97
00008700 00000163 935.81 150.11 360.79 527.32 1018.79 367.50 1166.88 374.30 1059.92 428.88 1016.88 542.50 1130.47 548.72
00008701 00000164 936.95 155.76 358.86 523.85 1018.45 373.78 1165.28 378.99 1060.61 435.09 1017.73 545.88 1133.44 550.85
00008702 00000165 936.45 161.10 358.71 520.62 1018.01 379.14 1165.17 386.42 1060.41 443.21 1015.75 549.56 1133.91 556.14
00008703 00000166 937.49 172.30 354.74 514.39 1014.29 379.91 1164.17 395.20 1065.03 458.45 1016.72 551.63 1135.30 565.73
