Video ID: 	HQhcpqI9JbQ
H: 	1080
W: 	1920
FPS: 	25.0

FRAME INDEX X0 Y0 W H [Landmarks (5 Points)]

00002410 00000000 919.84 298.58 453.72 587.44 1053.81 503.57 1264.66 518.91 1167.30 632.22 1045.96 703.33 1244.96 714.79
00002411 DELETE   917.30 268.38 452.33 603.91 1054.01 500.56 1268.90 511.03 1168.12 628.76 1046.11 704.77 1242.62 713.86
00002412 DELETE   917.09 266.45 450.28 599.57 1053.55 499.69 1268.99 509.69 1169.30 629.40 1048.44 705.70 1240.64 714.59
00002413 DELETE   920.59 293.95 447.86 577.53 1053.89 506.75 1264.75 520.34 1170.60 630.88 1053.95 710.33 1243.13 720.12
00002414 00000004 920.45 322.24 448.74 553.42 1054.31 520.12 1264.58 529.20 1172.19 641.83 1056.47 719.21 1244.56 725.76
00002415 00000005 920.83 322.60 449.83 551.67 1057.30 520.34 1267.41 530.28 1176.36 647.13 1059.31 721.56 1243.34 728.85
00002416 DELETE   921.08 320.28 452.59 552.34 1058.16 512.19 1269.99 523.72 1178.22 642.21 1061.01 720.60 1243.02 729.03
00002417 DELETE   921.35 300.03 449.29 568.22 1059.16 507.44 1271.16 520.93 1178.66 634.13 1060.36 716.21 1242.94 725.86
00002418 00000008 921.61 286.25 447.47 578.76 1058.92 500.53 1271.29 516.68 1177.44 630.40 1059.96 713.88 1240.15 725.60
00002419 00000009 918.23 273.84 449.43 605.84 1062.19 498.49 1272.82 513.22 1176.53 629.61 1058.84 717.74 1234.07 731.81
00002420 00000010 919.03 282.76 450.28 599.96 1062.97 500.40 1271.94 517.05 1174.67 633.36 1058.66 720.65 1231.54 736.44
00002421 00000011 919.69 287.25 447.84 600.24 1063.17 501.69 1269.12 518.77 1175.13 634.85 1058.36 722.74 1231.45 739.00
00002422 00000012 916.06 297.36 447.10 594.12 1061.24 504.77 1265.36 519.94 1175.31 632.65 1057.40 722.95 1231.58 737.32
00002423 00000013 918.48 302.78 450.44 590.71 1057.81 509.15 1262.77 524.04 1176.03 629.46 1053.03 718.59 1237.95 730.03
00002424 00000014 918.42 302.37 448.29 591.88 1057.80 505.27 1261.85 519.32 1176.78 628.49 1052.27 717.34 1237.64 728.19
00002425 00000015 916.68 290.92 443.85 601.56 1060.89 500.18 1262.60 515.30 1175.47 632.02 1053.81 718.19 1230.96 732.74
00002426 00000016 916.46 295.18 449.19 596.87 1056.12 504.52 1260.62 519.98 1174.04 630.47 1049.04 716.10 1236.58 728.02
00002427 00000017 914.09 294.63 450.12 596.94 1054.13 505.09 1259.95 521.35 1171.85 630.56 1046.72 716.10 1236.33 728.75
00002428 00000018 910.40 289.29 449.72 597.93 1049.15 503.77 1258.08 521.45 1167.44 630.55 1042.61 716.74 1232.25 730.55
00002429 00000019 910.19 290.67 448.98 598.51 1047.76 503.11 1258.17 521.39 1166.60 631.39 1040.06 716.73 1231.41 731.09
00002430 DELETE   908.06 294.19 449.51 597.04 1046.15 502.65 1255.96 520.25 1165.16 630.04 1038.28 715.89 1229.89 729.81
00002431 00000021 906.70 294.79 448.87 595.28 1043.35 502.39 1254.36 519.98 1161.88 628.35 1036.30 715.52 1229.09 729.56
00002432 00000022 905.94 292.27 449.72 598.72 1042.34 500.97 1252.74 519.38 1160.27 626.00 1035.02 714.09 1227.20 728.71
00002433 00000023 905.91 297.06 446.89 587.79 1039.06 500.00 1250.03 517.51 1157.14 623.62 1033.08 713.55 1224.91 727.43
00002434 00000024 904.74 296.07 444.78 588.95 1037.93 497.84 1248.56 515.56 1156.33 622.14 1032.77 712.83 1223.10 726.70
00002435 00000025 905.04 295.15 444.34 587.09 1036.48 498.57 1248.30 517.14 1153.00 621.94 1031.97 713.73 1222.18 728.25
00002436 00000026 901.99 279.35 450.49 596.82 1034.13 500.78 1249.42 514.48 1145.67 629.07 1030.83 713.33 1216.99 725.06
00002437 00000027 901.14 299.30 443.48 582.53 1031.70 500.20 1244.42 520.08 1145.97 623.08 1026.54 715.55 1217.29 731.21
00002438 00000028 902.49 294.34 444.05 588.40 1033.66 501.53 1246.94 521.26 1148.38 623.56 1029.13 715.71 1219.55 731.31
00002439 00000029 902.06 294.87 444.49 589.75 1032.97 501.77 1246.12 521.24 1147.66 623.72 1028.59 715.93 1219.57 731.29
00002440 DELETE   901.70 300.83 443.31 582.60 1031.01 501.17 1244.74 520.87 1145.02 623.29 1025.80 715.48 1217.92 731.01
00002441 00000031 902.03 295.18 443.80 589.69 1031.27 499.10 1244.62 518.68 1145.14 621.48 1026.97 714.30 1219.25 729.50
00002442 00000032 901.65 295.76 443.20 587.83 1030.85 499.00 1244.04 519.17 1144.65 621.27 1025.30 712.99 1218.16 728.87
00002443 00000033 903.20 292.84 443.11 589.05 1032.10 498.97 1243.97 518.75 1145.48 620.19 1027.51 712.33 1218.83 727.85
00002444 00000034 901.90 274.91 451.64 595.78 1033.26 499.29 1250.93 510.31 1144.79 626.18 1028.90 708.87 1220.32 718.83
00002445 00000035 902.91 277.08 450.46 589.00 1034.86 498.58 1253.23 509.37 1147.64 625.51 1031.25 708.04 1222.59 717.87
00002446 00000036 902.45 272.91 450.98 594.98 1034.64 498.52 1252.73 508.91 1147.77 625.32 1031.21 707.94 1222.67 717.36
00002447 00000037 906.24 284.39 443.49 585.42 1035.92 496.40 1250.91 513.70 1153.07 619.09 1034.24 707.77 1225.96 721.36
00002448 00000038 909.08 282.95 443.46 589.24 1038.10 496.90 1251.87 512.64 1154.56 620.31 1035.50 707.08 1227.62 719.28
00002449 00000039 909.40 284.44 446.60 591.32 1040.24 497.86 1253.36 512.79 1156.73 621.41 1037.07 707.83 1229.22 719.36
00002450 00000040 910.81 279.03 447.70 595.82 1041.45 498.97 1254.48 512.72 1157.66 620.33 1040.31 707.36 1232.34 717.61
00002451 00000041 910.43 280.44 448.27 595.62 1041.32 499.45 1254.00 512.94 1157.43 621.80 1040.46 708.02 1231.96 718.09
00002452 00000042 911.70 287.38 450.57 594.52 1043.12 501.15 1254.69 513.23 1158.28 623.09 1041.36 708.55 1235.34 717.52
00002453 00000043 911.35 283.61 450.31 596.77 1043.33 500.57 1255.27 513.25 1158.91 623.55 1040.97 708.03 1234.86 717.47
00002454 00000044 911.96 281.90 448.42 597.84 1042.42 501.42 1254.94 514.35 1158.30 625.27 1041.25 710.00 1234.73 719.56
00002455 00000045 911.02 272.86 454.17 605.69 1043.76 501.89 1259.81 508.74 1156.23 628.65 1042.08 711.03 1238.64 716.53
00002456 00000046 910.79 270.70 454.24 608.07 1043.74 502.28 1259.69 508.66 1156.33 628.14 1042.65 711.04 1239.23 716.12
00002457 00000047 912.98 288.79 451.13 597.07 1042.87 504.63 1253.27 516.84 1156.94 626.81 1040.65 710.46 1236.11 719.49
00002458 00000048 910.81 288.85 447.15 592.84 1039.92 504.69 1252.00 518.24 1155.21 625.97 1038.95 710.31 1234.17 720.53
00002459 00000049 910.87 301.67 447.33 580.89 1039.59 509.76 1251.38 524.32 1154.07 632.29 1038.81 717.23 1231.22 728.65
00002460 00000050 911.38 302.02 447.22 582.69 1039.64 509.36 1251.92 523.97 1153.86 632.95 1038.33 717.09 1232.19 728.53
00002461 00000051 912.16 302.14 448.05 583.23 1040.75 511.21 1252.52 525.39 1155.71 634.72 1038.05 717.57 1233.13 728.72
00002462 00000052 910.68 309.33 448.56 574.42 1039.17 510.36 1251.58 524.21 1154.42 632.89 1036.44 715.14 1232.11 726.32
00002463 00000053 909.61 309.62 448.76 573.14 1037.83 509.24 1250.87 523.62 1153.09 630.51 1034.73 711.79 1233.31 723.36
00002464 DELETE   909.61 308.00 448.96 574.69 1037.30 508.99 1250.81 523.21 1152.88 630.07 1033.89 710.21 1234.93 721.54
00002465 00000055 909.00 305.45 446.26 569.00 1035.49 507.82 1249.04 523.86 1149.88 629.03 1029.58 705.60 1231.67 718.68
00002466 00000056 906.58 296.58 446.91 575.91 1033.25 507.33 1247.93 524.10 1147.82 627.31 1026.20 702.92 1230.56 716.43
00002467 00000057 906.93 289.90 448.12 583.87 1033.78 506.23 1248.55 522.80 1148.69 625.82 1026.07 700.80 1232.32 713.96
00002468 DELETE   906.21 296.29 447.00 578.78 1033.04 503.93 1246.85 520.02 1146.35 625.54 1024.19 698.41 1230.85 711.27
00002469 00000059 905.78 294.85 447.94 583.48 1032.10 504.47 1247.03 521.26 1145.81 626.05 1023.91 700.49 1231.62 713.85
00002470 00000060 906.54 288.29 449.52 582.52 1031.32 504.32 1247.12 520.85 1145.39 625.65 1025.79 699.43 1232.40 712.46
00002471 00000061 906.06 290.12 449.82 584.53 1031.08 503.15 1246.09 518.09 1145.90 624.87 1027.14 697.42 1235.76 709.03
00002472 00000062 908.23 286.92 451.18 584.47 1034.45 501.41 1250.98 511.94 1152.63 625.08 1032.17 693.09 1245.00 700.74
00002473 DELETE   910.71 287.29 452.94 586.89 1035.62 502.79 1252.10 507.75 1155.24 625.21 1035.98 692.21 1253.16 694.93
00002474 00000064 915.53 288.97 455.98 588.62 1040.84 503.43 1256.53 504.31 1158.49 622.35 1044.95 694.69 1260.50 693.73
00002475 00000065 922.49 286.72 452.72 591.58 1044.26 503.99 1260.66 502.13 1160.55 622.86 1050.79 696.85 1266.19 693.64
00002476 DELETE   931.24 287.29 449.77 587.23 1049.68 501.48 1266.56 496.71 1166.88 623.38 1061.18 697.20 1273.48 691.08
00002477 00000067 938.81 286.34 452.23 577.44 1058.94 501.80 1279.56 496.20 1173.16 618.03 1072.07 700.29 1274.00 696.01
00002478 00000068 945.78 278.87 451.33 587.43 1064.42 504.85 1281.70 495.41 1178.70 617.94 1081.15 702.90 1281.00 695.48
00002479 DELETE   955.68 286.92 455.32 586.06 1073.04 509.20 1289.31 496.69 1184.23 622.15 1090.93 708.74 1290.98 699.32
00002480 00000070 970.29 288.17 454.16 581.37 1083.08 516.60 1305.37 503.41 1194.25 631.09 1101.25 715.16 1305.98 704.56
00002481 00000071 982.69 311.00 455.72 579.86 1095.90 523.48 1315.45 518.18 1213.31 640.93 1115.42 723.11 1327.74 717.37
00002482 00000072 991.51 314.80 464.28 578.62 1105.48 532.87 1324.96 524.20 1221.87 654.37 1127.36 732.69 1336.82 723.91
00002483 00000073 994.58 281.60 470.30 621.16 1114.73 542.02 1335.26 528.63 1230.57 658.47 1136.63 741.14 1340.55 729.76
00002484 DELETE   1000.43 299.07 468.17 595.78 1124.45 541.10 1342.97 529.26 1238.68 656.12 1144.93 736.62 1342.68 726.76
00002485 00000075 1008.78 276.38 463.01 596.49 1132.05 530.11 1352.88 515.39 1249.76 642.91 1153.92 724.19 1352.56 712.56
00002486 DELETE   1015.36 267.20 459.09 587.06 1134.57 513.13 1363.37 503.05 1254.14 631.72 1159.00 714.10 1359.57 705.80
00002487 DELETE   1010.06 223.33 469.21 619.12 1138.99 504.66 1358.97 500.63 1255.69 621.09 1152.37 695.03 1348.03 690.94
00002488 DELETE   1009.66 224.31 473.34 612.62 1139.51 491.60 1358.67 485.58 1254.44 611.82 1149.36 680.12 1350.37 675.40
00002489 00000079 1011.28 237.28 471.97 596.45 1139.15 486.03 1357.78 481.04 1254.11 608.78 1151.86 676.09 1352.10 671.83
00002490 00000080 1009.86 233.79 472.10 604.72 1138.86 491.79 1357.57 487.27 1252.16 614.11 1149.09 680.56 1349.54 676.97
00002491 00000081 1009.20 230.55 469.80 617.30 1137.64 497.31 1356.29 492.21 1251.13 618.16 1148.54 688.15 1348.77 683.98
00002492 00000082 1007.89 229.96 469.50 617.98 1137.13 496.82 1355.17 491.70 1249.98 616.17 1148.24 686.81 1348.24 682.61
00002493 00000083 1007.85 223.34 467.64 614.53 1136.75 489.61 1354.03 486.79 1250.63 610.56 1145.54 676.88 1346.19 674.83
00002494 00000084 1009.11 208.77 463.99 611.65 1131.83 478.94 1349.17 472.39 1246.74 598.98 1144.09 664.20 1348.27 659.53
00002495 00000085 1006.92 202.14 460.65 597.87 1126.37 464.78 1347.51 448.85 1244.30 576.96 1150.67 657.35 1349.26 644.73
00002496 00000086 1009.90 199.66 454.47 581.97 1130.56 444.27 1354.94 436.21 1247.24 557.41 1151.58 639.59 1351.47 633.25
00002497 00000087 1006.20 169.87 461.97 606.46 1127.33 434.75 1346.32 426.30 1241.32 546.97 1142.45 625.09 1341.96 617.91
00002498 DELETE   1008.22 186.39 460.53 575.06 1124.40 423.29 1345.27 413.46 1239.44 541.48 1147.94 618.25 1342.03 609.85
00002499 00000089 1000.25 164.24 465.50 588.28 1120.27 413.47 1337.77 393.49 1237.01 528.49 1159.86 613.27 1344.54 596.43
00002500 DELETE   991.51 178.66 469.74 564.82 1106.98 400.22 1327.21 382.26 1222.53 512.08 1153.55 600.37 1336.66 584.68
00002501 00000091 988.82 174.16 465.32 565.84 1109.15 385.19 1321.63 372.13 1226.40 500.28 1145.84 588.00 1334.56 573.97
00002502 00000092 980.50 153.80 468.06 577.33 1099.60 366.72 1316.21 351.83 1221.70 489.92 1144.66 579.98 1331.73 564.36
00002503 00000093 973.68 155.29 465.24 572.15 1085.34 353.57 1302.73 336.83 1205.88 481.69 1135.73 573.29 1322.57 556.37
00002504 00000094 964.87 147.64 469.70 564.43 1073.83 338.55 1295.65 318.90 1197.07 469.86 1128.72 561.26 1318.03 541.60
00002505 00000095 957.55 134.61 469.43 573.29 1060.70 327.22 1285.14 301.22 1185.37 457.90 1118.48 557.75 1306.13 532.17
00002506 DELETE   948.83 104.94 468.02 596.63 1049.07 310.72 1276.33 282.24 1173.23 439.74 1109.29 550.90 1286.64 523.26
00002507 00000097 939.52 102.64 468.19 584.10 1039.40 304.44 1262.59 275.91 1157.98 427.90 1098.62 539.37 1275.59 511.84
00002508 DELETE   935.05 94.46 463.46 586.72 1034.68 305.14 1252.86 274.24 1151.98 420.60 1090.13 535.13 1268.86 505.56
00002509 00000099 919.35 96.15 473.24 585.73 1020.83 307.70 1247.42 279.75 1145.02 416.98 1079.08 538.58 1270.01 512.31
00002510 00000100 909.40 103.70 471.25 588.13 1009.03 313.11 1237.13 285.07 1133.17 422.88 1069.37 546.26 1258.38 519.71
00002511 00000101 902.81 116.40 471.03 586.97 1001.58 322.95 1227.28 293.91 1120.63 438.30 1065.12 561.74 1247.81 533.53
00002512 DELETE   893.29 140.55 477.06 597.07 1000.89 335.15 1220.63 307.11 1118.75 449.43 1062.22 577.45 1240.38 550.75
00002513 00000103 889.64 138.76 478.11 623.78 999.64 341.52 1219.55 315.09 1118.19 453.65 1057.28 585.98 1240.73 560.71
00002514 00000104 889.78 149.55 474.62 616.99 997.12 349.43 1220.03 324.86 1115.39 461.98 1058.27 598.35 1237.16 574.44
00002515 00000105 890.58 148.05 473.04 620.15 998.94 353.46 1223.37 331.39 1119.27 465.45 1059.07 600.55 1238.50 578.98
00002516 00000106 890.62 149.88 472.94 622.16 1000.03 356.47 1224.96 333.64 1121.86 469.08 1061.49 604.61 1240.20 582.34
00002517 00000107 890.28 146.20 474.90 625.52 1001.34 355.85 1227.08 334.04 1124.01 468.49 1061.16 603.37 1241.04 581.94
00002518 00000108 893.12 145.36 472.46 629.79 1003.92 354.79 1230.47 335.62 1125.83 470.89 1061.59 604.51 1241.85 585.27
00002519 00000109 894.91 143.42 470.02 624.24 1004.39 353.73 1231.15 335.14 1126.27 468.74 1061.76 601.90 1241.47 583.13
00002520 00000110 896.02 147.26 470.23 623.63 1005.34 353.99 1232.88 337.01 1126.93 470.44 1061.67 604.14 1241.04 586.65
00002521 00000111 900.39 134.38 466.14 631.91 1007.86 352.51 1236.28 336.75 1130.27 468.93 1062.36 602.21 1243.23 585.76
00002522 00000112 899.73 145.56 466.77 623.25 1007.36 354.77 1234.73 337.92 1128.03 470.57 1061.97 604.43 1242.53 587.14
00002523 00000113 904.16 139.73 463.46 619.12 1009.24 353.17 1236.66 337.23 1131.22 468.81 1062.50 600.77 1245.58 584.14
00002524 00000114 907.00 137.39 462.97 612.04 1013.69 351.45 1240.65 336.97 1135.92 468.72 1063.71 597.50 1246.93 582.33
00002525 00000115 907.66 137.16 463.31 614.62 1015.69 352.67 1243.44 338.72 1138.90 469.25 1063.60 596.95 1248.13 582.24
00002526 00000116 909.17 145.25 462.85 613.02 1016.75 353.82 1244.34 338.98 1141.15 470.93 1063.97 599.90 1248.17 584.47
00002527 00000117 913.36 148.93 460.46 613.90 1019.06 355.49 1247.60 341.19 1142.56 473.77 1065.63 604.30 1249.83 589.27
00002528 00000118 915.68 160.44 459.65 603.73 1018.88 362.10 1246.22 346.36 1140.44 477.25 1065.11 607.33 1251.35 591.11
00002529 00000119 918.40 158.40 459.85 606.08 1020.98 364.18 1248.36 348.64 1141.90 478.12 1066.13 607.68 1254.20 591.57
00002530 00000120 920.57 165.14 462.09 609.76 1023.88 369.93 1251.81 353.35 1144.72 485.12 1068.66 615.31 1256.36 598.36
00002531 00000121 920.14 163.81 466.35 617.28 1030.51 372.68 1253.26 358.09 1146.11 496.06 1070.50 616.64 1256.77 600.82
00002532 00000122 917.59 167.30 467.34 618.28 1029.10 373.95 1252.11 359.37 1145.91 497.22 1070.91 617.94 1257.45 602.06
00002533 00000123 919.27 172.66 466.45 610.87 1029.70 377.48 1251.83 361.68 1145.99 500.55 1072.42 618.57 1258.03 601.84
00002534 00000124 920.04 178.04 468.47 605.00 1030.68 378.66 1254.13 362.03 1148.65 504.10 1073.87 617.93 1261.10 600.43
00002535 00000125 919.35 171.46 467.25 611.18 1028.58 376.12 1252.90 361.67 1145.37 503.32 1069.45 615.79 1260.27 600.02
00002536 00000126 919.71 177.46 468.17 607.53 1029.32 377.08 1253.15 361.92 1146.82 503.89 1071.16 618.46 1258.81 602.27
00002537 00000127 920.63 176.63 468.07 609.87 1031.18 378.05 1254.05 361.48 1149.24 502.50 1074.54 619.93 1259.41 602.62
00002538 00000128 919.99 173.10 467.15 617.85 1030.01 378.02 1252.98 361.11 1147.13 500.96 1072.06 619.81 1259.60 602.33
00002539 00000129 921.10 174.87 465.15 616.39 1029.89 379.24 1252.48 361.21 1147.61 502.43 1072.53 620.91 1260.10 602.53
00002540 00000130 922.37 179.20 465.52 612.20 1031.19 380.27 1253.22 362.43 1148.02 502.36 1072.54 620.74 1260.85 602.62
00002541 00000131 922.25 183.13 465.21 607.62 1031.37 381.68 1251.37 363.77 1146.73 503.19 1072.59 620.85 1258.60 602.61
00002542 00000132 922.18 181.34 467.36 603.97 1030.83 380.51 1250.94 363.98 1146.33 505.43 1075.57 621.60 1255.83 604.21
00002543 00000133 922.87 178.34 465.99 601.72 1029.92 380.97 1250.10 363.71 1146.36 505.59 1079.51 625.42 1253.96 607.30
00002544 00000134 922.47 179.80 466.60 599.32 1029.79 381.71 1250.70 363.29 1147.90 504.85 1083.30 628.59 1254.72 609.56
00002545 00000135 922.92 180.98 464.78 599.41 1031.12 384.91 1251.02 365.51 1149.52 505.23 1084.53 630.73 1253.10 611.01
00002546 00000136 921.05 178.49 464.39 600.68 1029.33 384.26 1250.07 366.32 1147.64 506.21 1081.97 630.25 1250.93 611.61
00002547 00000137 924.57 182.60 462.74 602.37 1030.35 390.39 1252.20 371.08 1149.97 511.35 1082.50 637.45 1252.62 617.72
00002548 00000138 924.97 181.52 462.47 599.77 1030.97 389.15 1252.80 370.84 1150.20 511.94 1082.38 634.51 1252.96 615.55
00002549 00000139 925.48 187.03 461.13 602.08 1030.61 390.89 1252.00 374.37 1147.74 513.83 1078.52 638.14 1248.65 620.70
00002550 00000140 923.74 188.65 463.42 602.92 1030.46 391.55 1251.97 374.65 1149.53 514.12 1079.85 640.48 1247.61 622.77
00002551 00000141 922.28 188.06 466.48 605.28 1028.55 391.88 1252.69 373.23 1150.43 515.85 1083.25 646.04 1248.34 626.76
00002552 00000142 921.10 192.83 465.43 600.75 1025.55 394.94 1252.74 377.12 1148.04 520.37 1079.72 647.42 1251.02 628.68
00002553 00000143 919.82 189.02 467.46 607.13 1023.80 393.64 1251.31 378.07 1144.76 520.71 1075.55 645.78 1250.72 628.66
00002554 00000144 920.30 190.87 468.05 612.76 1022.56 396.82 1253.13 380.32 1144.24 522.09 1073.30 651.04 1252.86 633.43
00002555 00000145 924.48 193.03 467.62 614.79 1024.22 398.67 1254.33 381.13 1144.45 521.27 1075.74 653.59 1254.24 635.06
00002556 00000146 924.88 192.43 469.06 619.73 1027.39 398.15 1255.74 378.59 1148.44 519.38 1079.32 651.73 1257.86 631.72
00002557 00000147 925.55 195.55 464.74 612.39 1027.47 399.10 1253.64 380.93 1146.86 521.00 1074.47 646.02 1258.53 627.12
00002558 00000148 926.03 196.11 463.98 609.94 1027.73 397.03 1252.21 379.51 1145.67 521.03 1074.00 640.38 1260.21 621.99
00002559 00000149 925.38 194.88 463.14 609.99 1028.14 397.34 1252.13 379.39 1146.98 521.47 1074.71 639.69 1261.42 620.81
00002560 00000150 923.95 192.64 464.07 612.32 1027.61 396.28 1251.66 378.69 1146.61 521.46 1073.32 637.77 1261.02 619.17
00002561 00000151 927.33 188.95 461.92 611.51 1029.80 396.41 1254.33 377.82 1148.77 520.52 1074.82 637.53 1263.02 618.26
00002562 00000152 925.28 184.51 463.81 615.84 1029.72 395.91 1255.17 378.21 1148.86 520.24 1072.79 637.11 1261.39 618.55
00002563 00000153 923.11 189.84 465.88 607.04 1026.56 393.96 1253.64 378.75 1145.31 522.49 1068.89 634.70 1260.41 618.10
00002564 00000154 922.10 190.72 466.14 610.03 1026.87 395.68 1253.85 380.42 1145.57 522.15 1066.48 635.02 1260.65 618.49
00002565 00000155 919.59 187.24 467.29 611.11 1026.01 393.89 1253.25 379.60 1144.97 521.80 1065.00 633.19 1259.44 617.30
00002566 00000156 919.38 195.17 467.77 608.68 1026.16 396.60 1252.74 382.75 1144.92 523.59 1065.29 636.29 1259.15 620.83
00002567 00000157 917.78 199.47 467.78 603.06 1024.92 396.84 1252.30 383.48 1143.08 523.89 1063.14 635.86 1259.64 620.91
00002568 00000158 914.35 198.99 468.83 602.24 1021.82 395.63 1249.87 382.73 1139.38 524.49 1063.36 637.34 1256.31 622.60
00002569 00000159 913.32 195.83 469.02 603.82 1019.16 397.13 1247.70 382.99 1136.01 526.32 1065.13 639.94 1256.08 624.07
00002570 00000160 908.75 192.17 468.98 599.00 1014.65 395.86 1243.62 382.01 1133.63 527.86 1067.78 640.43 1252.83 624.82
00002571 00000161 905.03 201.70 469.87 591.84 1013.45 399.37 1241.10 386.80 1132.09 530.41 1068.92 644.98 1248.25 630.52
00002572 00000162 904.80 199.87 467.70 592.82 1010.70 400.29 1238.87 387.70 1128.57 530.60 1067.09 646.70 1246.22 632.46
00002573 00000163 902.17 205.66 465.08 589.27 1006.25 403.37 1234.58 389.48 1124.72 530.81 1063.75 650.28 1242.97 635.04
