Video ID: 	lH6FLK73Jfs
H: 	1080
W: 	1920
FPS: 	23.976023976023978

FRAME INDEX X0 Y0 W H [Landmarks (5 Points)]

00011355 00000000 606.83 166.53 536.06 692.32 753.49 455.23 1007.26 406.12 916.33 569.49 791.97 663.09 1047.17 622.41
00011356 00000001 608.89 161.03 537.20 696.40 759.30 451.53 1012.59 403.19 923.33 567.14 796.39 659.86 1051.15 619.88
00011357 00000002 611.00 161.93 536.44 694.96 762.67 450.96 1016.34 403.98 926.24 568.14 797.94 659.60 1052.43 620.91
00011358 00000003 613.32 160.23 535.38 699.92 765.19 450.49 1018.60 403.49 929.63 567.75 800.40 660.83 1055.91 622.11
00011359 00000004 615.46 159.52 534.07 706.54 768.05 448.95 1017.80 401.97 932.28 564.47 804.16 661.94 1057.63 623.01
00011360 00000005 617.91 156.21 535.05 714.81 771.53 445.00 1019.63 400.14 934.51 561.89 807.86 662.39 1059.38 625.12
00011361 00000006 619.21 152.81 535.93 716.45 773.84 438.87 1023.09 397.12 937.31 557.96 809.98 660.93 1059.98 626.22
00011362 00000007 620.69 145.46 534.21 710.20 774.82 429.91 1027.67 389.77 940.04 551.98 811.07 654.02 1061.32 620.53
00011363 00000008 626.01 147.67 534.77 684.20 778.63 422.03 1035.09 385.35 942.85 544.55 817.57 646.32 1062.65 615.69
00011364 00000009 629.87 141.33 531.34 682.23 784.19 415.26 1040.26 381.30 949.31 536.29 819.81 639.42 1065.31 610.96
00011365 00000010 632.34 137.20 531.48 681.81 787.21 412.79 1042.50 377.31 953.96 532.72 821.76 635.99 1068.64 606.45
00011366 00000011 631.90 137.15 530.52 677.76 786.44 411.20 1041.86 376.33 952.87 530.68 820.03 632.83 1067.40 603.85
00011367 00000012 629.27 134.44 531.34 679.77 780.41 409.96 1036.92 373.23 946.80 529.21 816.82 632.68 1064.65 601.91
00011368 00000013 624.86 134.20 535.23 682.05 773.69 410.25 1032.35 376.02 936.44 530.67 811.52 636.57 1055.82 607.56
00011369 00000014 617.81 131.80 534.08 694.03 763.24 414.04 1024.28 382.94 922.30 533.81 803.61 644.42 1048.18 617.31
00011370 00000015 609.73 137.09 538.21 720.08 758.30 420.88 1012.34 387.15 915.56 540.56 798.80 654.81 1043.57 625.84
00011371 00000016 606.12 143.64 538.69 733.25 758.54 429.00 1006.63 392.74 916.52 548.19 797.07 663.96 1042.37 633.08
00011372 00000017 606.66 147.83 537.30 732.31 759.49 433.36 1008.38 397.53 918.81 551.96 798.55 668.02 1044.47 637.49
00011373 00000018 608.93 152.79 534.55 715.93 764.34 439.12 1016.62 404.61 925.41 556.58 801.24 668.13 1046.65 638.69
00011374 00000019 611.79 154.71 531.87 703.49 771.31 445.63 1025.22 408.33 936.93 563.49 803.46 665.32 1050.76 634.49
00011375 DELETE   613.92 159.64 530.33 693.23 777.60 451.43 1029.69 411.95 944.77 568.79 806.75 663.35 1053.19 631.32
00011376 00000021 611.30 165.09 529.97 686.80 777.11 459.53 1031.26 419.50 945.95 571.34 804.78 664.83 1052.65 632.22
00011377 00000022 609.56 168.05 527.19 683.85 774.31 461.26 1027.08 420.99 941.93 571.96 801.56 666.37 1048.15 633.64
00011378 00000023 598.22 166.98 535.57 684.16 762.85 457.91 1020.58 416.89 931.91 571.66 793.40 667.64 1042.67 633.75
00011379 00000024 589.23 169.13 539.46 683.45 753.63 457.79 1011.06 415.31 923.34 570.68 786.52 669.13 1033.76 633.59
00011380 00000025 584.69 171.51 539.55 677.54 744.42 455.63 1005.25 414.54 912.81 571.16 780.35 670.17 1027.91 635.62
00011381 00000026 582.54 164.59 536.86 686.14 736.62 453.55 996.65 414.06 900.49 569.79 773.82 671.15 1021.65 637.42
00011382 00000027 577.43 161.11 538.61 690.97 725.58 441.46 988.53 403.24 887.96 566.68 766.11 668.07 1017.58 635.06
00011383 00000028 571.87 157.57 539.14 690.42 715.75 429.41 980.35 395.42 876.95 564.20 759.18 664.95 1007.84 634.93
00011384 00000029 572.30 157.20 530.96 683.77 709.85 420.96 973.13 389.10 867.53 559.47 750.95 658.70 997.20 628.94
00011385 00000030 564.92 148.07 535.61 683.70 700.27 412.56 965.37 388.04 851.56 546.64 741.50 653.25 984.03 632.25
00011386 00000031 560.46 141.15 537.73 689.38 693.40 408.44 957.45 384.02 842.46 543.06 734.10 648.82 976.49 627.63
00011387 00000032 557.74 133.76 537.57 695.77 688.91 405.61 951.91 380.59 836.77 540.07 730.57 646.65 971.82 624.73
00011388 00000033 555.60 134.21 537.15 694.39 686.00 402.13 945.50 376.38 831.89 537.24 726.45 640.54 969.43 617.70
00011389 00000034 554.25 134.33 536.81 691.99 683.83 400.77 943.30 373.75 830.02 532.74 725.38 638.61 968.75 614.45
00011390 00000035 552.51 131.09 536.48 692.80 682.19 398.88 941.81 371.37 829.23 530.94 724.76 636.64 967.98 611.99
00011391 00000036 551.63 127.70 533.65 693.50 680.70 397.74 940.42 370.16 828.01 528.48 723.32 635.77 966.05 610.87
00011392 00000037 549.56 127.64 533.69 692.97 679.29 396.79 938.72 368.46 826.86 526.20 722.19 634.35 964.85 608.60
00011393 00000038 548.34 129.42 533.14 688.34 677.35 396.34 936.79 367.57 824.05 524.60 720.13 633.34 962.11 607.10
00011394 00000039 545.52 130.33 530.36 684.57 673.46 400.09 932.36 368.42 819.63 529.35 714.36 630.11 955.37 603.80
00011395 00000040 543.89 130.51 530.84 683.51 671.16 400.64 930.10 368.28 817.06 526.97 713.04 630.50 953.26 603.39
00011396 00000041 542.78 128.25 530.15 684.45 668.45 401.58 928.47 368.08 814.67 527.91 710.95 631.08 952.65 603.12
00011397 00000042 539.60 128.26 531.97 684.07 665.63 401.60 926.36 367.00 812.95 527.91 709.70 631.18 951.81 602.15
00011398 00000043 538.02 125.93 532.67 685.53 663.60 400.65 924.82 365.96 811.01 526.74 707.65 630.02 951.31 600.86
00011399 00000044 537.43 123.42 532.37 687.16 662.04 400.05 924.24 365.69 809.48 526.24 706.07 629.83 950.66 600.99
00011400 00000045 537.21 123.00 532.48 687.31 661.45 399.51 923.98 365.85 808.59 526.56 704.87 629.46 950.03 601.19
00011401 00000046 538.75 122.12 530.92 686.96 661.65 399.20 924.35 365.42 808.32 526.10 705.14 629.40 949.79 601.14
00011402 00000047 539.55 121.95 531.15 688.38 662.71 399.28 924.69 365.62 809.14 525.54 705.94 629.38 950.49 601.18
00011403 00000048 539.86 122.37 531.22 686.71 663.11 398.62 925.11 365.07 809.57 524.40 706.67 629.04 950.46 600.90
00011404 00000049 540.49 119.47 531.65 687.44 664.33 397.35 925.29 363.65 810.54 523.13 708.60 627.63 951.07 599.42
00011405 00000050 541.03 119.74 531.18 686.48 664.31 397.57 925.53 363.38 810.65 522.33 708.98 627.93 951.32 599.33
00011406 00000051 541.07 118.39 530.97 686.62 664.46 397.17 925.37 363.02 810.72 521.67 709.02 627.17 951.01 598.60
00011407 00000052 540.34 117.60 531.40 686.96 664.05 396.19 924.75 361.99 810.53 521.14 708.68 626.25 950.96 597.62
00011408 00000053 540.18 117.61 531.79 687.19 663.96 395.93 924.19 361.74 810.21 520.91 708.94 626.30 950.68 597.65
00011409 00000054 539.54 115.93 532.24 688.94 663.71 396.18 924.37 362.15 810.14 520.73 708.77 626.70 950.54 598.19
00011410 00000055 540.55 117.56 531.33 687.18 664.32 396.66 924.50 362.79 810.29 521.66 708.83 626.52 950.61 598.19
00011411 00000056 540.95 116.97 532.12 689.28 663.94 397.23 925.30 363.48 809.86 522.25 708.50 627.86 951.28 599.71
00011412 00000057 541.36 116.64 531.29 689.52 664.16 397.49 925.16 363.97 809.79 522.34 708.18 627.74 950.85 599.78
00011413 00000058 541.50 118.43 531.28 687.54 664.30 397.24 925.10 363.86 809.80 522.25 708.77 627.61 950.73 599.72
00011414 00000059 541.89 116.97 530.65 689.12 664.58 397.39 925.73 363.94 810.34 522.71 708.78 627.78 951.16 599.92
00011415 00000060 542.81 117.36 529.99 689.04 665.45 397.22 926.05 364.05 810.80 522.56 709.46 627.95 951.34 600.31
00011416 00000061 543.11 118.94 530.95 687.91 666.52 397.89 927.17 364.77 811.96 522.83 710.41 628.80 951.42 601.18
00011417 00000062 544.27 118.18 530.47 689.61 666.68 397.97 927.33 364.70 811.78 523.01 710.30 628.69 952.16 600.97
00011418 00000063 542.60 115.77 531.82 691.28 665.57 394.40 926.41 361.09 811.27 519.61 710.75 627.49 951.73 599.64
00011419 00000064 543.93 105.60 530.89 700.49 663.58 389.48 926.18 356.61 808.51 513.53 708.70 624.60 952.25 597.09
00011420 00000065 542.77 99.87 533.02 705.15 661.12 386.16 925.16 353.43 805.22 506.62 704.40 621.27 951.38 593.64
00011421 00000066 539.88 98.31 534.68 707.16 656.85 384.31 922.71 351.96 801.10 504.11 697.99 619.77 948.58 592.40
00011422 00000067 536.32 99.45 534.06 704.89 650.13 387.36 918.90 353.29 795.29 508.35 692.97 622.97 945.09 594.04
00011423 00000068 535.33 107.05 530.72 700.65 647.25 390.90 914.02 359.60 789.81 518.28 689.68 626.39 939.12 599.63
00011424 00000069 533.05 109.86 531.72 701.07 642.33 395.16 908.69 363.86 782.03 524.94 685.59 630.32 933.95 603.36
00011425 00000070 533.03 117.52 531.60 695.87 641.05 399.89 905.61 367.87 778.86 529.73 685.13 635.89 931.08 608.17
00011426 00000071 533.69 121.18 531.23 692.69 640.76 400.85 905.15 368.85 778.39 530.84 686.29 638.44 930.72 610.75
00011427 00000072 532.38 112.99 534.13 696.21 641.50 395.02 907.69 362.07 781.02 523.31 691.35 637.80 930.55 609.50
00011428 00000073 533.74 103.32 535.99 702.48 644.62 388.32 909.40 354.54 785.07 512.81 698.74 636.07 932.11 607.44
00011429 00000074 534.56 94.76 538.53 704.94 646.71 382.98 912.47 349.26 787.10 505.43 701.28 630.39 932.62 602.12
00011430 00000075 534.90 93.98 538.29 697.85 649.20 383.21 914.36 349.23 790.39 506.46 703.10 626.99 933.10 598.50
00011431 00000076 529.67 99.23 540.74 699.28 645.87 392.21 913.23 355.62 789.58 525.42 704.64 634.93 931.12 604.27
00011432 00000077 530.55 120.36 542.05 694.70 644.86 411.54 909.01 371.83 786.28 544.92 701.66 650.71 931.98 616.90
00011433 00000078 529.57 139.29 542.86 683.14 643.92 422.14 906.01 385.86 781.00 556.58 698.47 660.29 925.78 629.16
00011434 00000079 529.41 133.24 540.30 682.02 640.02 419.45 900.80 382.46 774.29 548.50 694.82 655.12 920.34 623.41
00011435 00000080 529.44 129.36 541.20 675.43 636.90 409.88 900.18 371.19 772.35 538.03 695.28 647.74 921.31 614.60
00011436 00000081 531.65 126.70 542.52 678.74 639.46 409.63 902.15 369.12 775.76 538.48 699.46 647.20 925.75 612.70
00011437 00000082 528.35 134.13 550.04 683.31 644.73 419.67 905.65 374.57 785.36 551.26 710.02 657.94 932.85 619.43
00011438 00000083 527.16 152.92 554.28 681.59 641.17 428.57 907.59 391.45 785.25 574.92 713.30 675.61 936.94 644.17
00011439 00000084 526.30 161.82 553.47 679.56 640.46 437.36 908.33 401.65 783.12 582.58 709.45 682.96 934.00 652.77
00011440 00000085 526.25 158.91 554.07 680.27 639.41 431.55 906.72 396.89 780.71 574.68 708.57 678.75 932.18 649.35
00011441 00000086 529.80 141.60 554.29 684.26 641.13 421.36 907.83 386.84 781.29 561.76 708.91 667.08 932.61 637.37
00011442 00000087 533.81 133.20 549.60 688.20 648.52 420.51 906.87 376.34 785.63 548.73 713.28 660.79 932.08 623.08
00011443 00000088 537.18 144.00 549.61 679.76 648.24 417.17 911.69 381.77 789.46 559.48 718.06 663.14 939.07 632.67
00011444 00000089 536.88 154.81 550.53 684.31 651.13 428.48 914.32 394.20 793.48 577.51 719.61 675.72 942.19 647.22
00011445 00000090 536.27 169.73 549.26 673.14 651.69 436.31 914.71 403.35 792.65 587.82 718.69 681.93 939.43 654.88
00011446 00000091 537.15 172.51 548.51 670.51 651.47 435.10 915.04 402.88 791.50 586.79 716.85 680.37 938.93 653.93
00011447 00000092 539.04 162.14 548.77 678.65 651.16 429.53 915.24 397.92 790.26 577.95 715.77 675.96 939.78 649.70
00011448 00000093 542.09 154.35 547.66 683.07 652.57 425.17 915.15 393.62 790.28 572.86 717.39 672.22 940.55 645.77
00011449 00000094 543.10 151.89 548.67 684.50 652.65 421.73 915.62 389.71 790.94 569.05 717.85 668.28 944.59 641.34
00011450 00000095 543.25 149.70 548.68 688.54 653.59 420.52 916.48 389.44 791.84 569.28 717.98 668.16 944.21 642.05
00011451 00000096 543.49 149.50 549.33 688.19 654.58 419.91 918.06 389.09 793.04 568.94 719.22 668.73 943.87 642.81
00011452 00000097 544.68 147.99 548.79 689.40 655.89 419.27 918.77 388.92 794.21 567.33 719.85 667.28 944.58 641.64
00011453 00000098 546.34 144.79 549.91 692.69 660.11 425.87 920.20 394.61 796.29 565.46 721.00 667.63 946.37 640.93
00011454 00000099 548.30 145.30 547.65 692.21 665.74 435.75 921.02 403.56 800.37 562.67 722.74 668.17 947.25 640.49
00011455 00000100 550.50 146.30 545.82 690.36 666.95 428.88 921.70 395.49 803.30 562.40 728.70 668.08 949.31 639.55
00011456 00000101 550.93 143.44 547.91 692.77 666.89 424.19 924.71 390.53 805.81 561.93 731.71 668.38 953.26 639.81
00011457 00000102 552.79 146.20 548.75 688.91 666.72 419.34 926.70 385.46 806.38 558.51 733.25 666.39 954.89 637.73
00011458 00000103 554.02 146.21 546.73 685.88 668.72 415.65 927.80 381.96 808.82 554.13 735.59 662.76 956.61 633.89
00011459 00000104 556.14 146.37 546.98 682.08 671.17 413.17 929.68 379.93 810.43 550.92 738.24 659.90 956.91 631.31
00011460 00000105 559.05 144.33 546.16 683.25 673.56 411.90 930.66 378.70 812.15 549.79 740.18 658.05 957.82 629.56
00011461 00000106 559.94 139.94 545.93 686.30 675.67 410.57 930.92 377.04 813.43 546.22 741.51 656.53 957.12 627.64
00011462 00000107 561.41 141.10 545.90 683.73 676.28 408.70 932.13 374.78 813.51 544.96 743.01 657.09 957.16 627.84
00011463 00000108 563.60 136.61 544.71 687.88 677.50 408.12 931.86 373.94 813.79 541.88 744.02 655.40 957.55 625.78
00011464 00000109 565.55 135.57 543.33 686.58 678.96 406.74 934.05 371.95 815.55 538.84 745.05 654.52 959.12 624.26
00011465 00000110 566.27 135.53 543.38 685.19 679.92 405.05 935.18 370.65 816.30 536.63 746.52 653.90 957.98 623.88
00011466 00000111 566.72 134.84 543.87 686.49 680.80 402.76 937.21 368.43 817.79 535.32 748.19 654.53 958.48 624.52
00011467 00000112 567.20 135.25 544.01 686.06 681.62 401.49 937.80 366.79 818.09 532.73 749.16 653.19 959.35 622.69
00011468 00000113 566.61 135.27 545.18 686.56 680.78 400.24 938.44 365.31 817.80 531.12 750.25 653.69 960.32 622.84
00011469 00000114 565.65 133.04 546.53 689.86 680.00 399.93 938.02 364.44 816.43 528.39 749.11 653.85 960.59 622.55
00011470 00000115 565.56 130.25 546.78 693.13 679.69 398.98 938.30 363.36 815.79 526.53 749.30 654.39 960.87 623.06
00011471 00000116 567.29 125.50 544.36 696.91 680.34 396.57 938.60 361.40 815.26 523.89 750.18 654.14 960.33 623.38
00011472 00000117 568.34 119.98 543.31 703.35 681.19 394.62 939.00 359.24 814.48 519.17 749.49 653.98 959.53 623.16
00011473 00000118 572.45 111.82 540.58 707.91 683.88 391.64 944.13 354.60 818.72 509.05 750.14 651.48 962.77 619.08
00011474 00000119 577.46 94.73 537.17 726.38 693.83 386.78 955.71 347.46 830.73 497.88 749.08 646.72 973.92 612.99
00011475 00000120 583.90 101.24 530.61 701.83 698.60 375.36 964.45 343.81 839.41 489.32 758.46 635.53 978.53 606.70
00011476 00000121 585.85 88.43 533.81 714.12 707.18 374.09 974.60 338.88 851.94 488.39 758.73 627.64 993.10 597.23
00011477 00000122 588.93 86.42 533.34 713.67 713.67 372.82 976.49 335.19 860.17 484.21 766.90 625.35 998.60 593.08
00011478 00000123 587.50 88.62 536.50 719.58 714.34 377.14 975.87 335.18 863.10 486.21 773.71 631.81 1003.26 595.97
00011479 00000124 585.03 99.95 536.09 729.22 710.70 384.48 971.90 342.30 858.33 496.53 774.62 647.20 998.52 610.97
00011480 00000125 576.33 103.10 540.48 729.32 702.24 387.18 957.01 349.04 843.53 502.37 766.35 653.21 978.88 619.73
00011481 00000126 572.25 108.93 542.60 726.61 696.37 387.97 951.86 350.70 836.05 505.38 760.22 656.17 973.62 623.43
00011482 00000127 571.87 105.84 543.90 731.86 698.97 385.75 953.76 348.23 840.07 503.15 764.03 655.85 976.34 622.95
00011483 00000128 576.21 103.93 541.92 738.17 708.40 384.45 961.24 346.88 851.56 499.21 774.65 656.33 982.39 623.52
00011484 00000129 580.24 104.56 540.37 744.57 718.09 383.58 968.31 344.52 865.93 493.64 785.54 658.71 993.38 624.65
00011485 00000130 582.50 106.40 540.46 740.38 726.53 379.82 971.66 340.15 875.14 486.04 798.11 658.95 997.93 624.61
00011486 00000131 585.22 103.48 536.87 731.19 728.30 377.44 973.34 337.18 876.56 484.20 799.07 653.49 999.95 618.44
00011487 00000132 585.45 99.01 535.67 727.37 724.19 380.47 978.69 337.96 878.59 490.81 794.65 645.34 1005.95 608.76
00011488 00000133 583.80 94.18 533.67 716.19 718.96 377.15 977.78 333.99 874.47 488.67 786.57 638.63 1003.51 601.79
00011489 00000134 582.32 94.16 533.33 712.52 716.12 376.70 974.80 333.10 870.91 486.70 785.00 638.37 999.27 601.11
00011490 00000135 580.29 93.09 535.64 713.00 713.84 378.15 972.92 332.05 870.16 485.92 783.58 638.40 1003.16 599.04
00011491 00000136 585.86 91.88 528.50 709.66 719.86 390.24 976.48 344.28 873.42 483.41 780.27 635.95 1004.86 596.59
00011492 00000137 582.75 90.64 531.60 708.17 716.55 386.00 976.88 339.72 872.52 482.22 780.60 635.38 1004.52 595.85
00011493 00000138 579.99 88.70 533.71 713.38 715.94 378.20 973.39 333.21 871.02 479.69 784.69 637.62 999.09 599.35
00011494 00000139 578.22 92.03 534.80 727.71 717.12 377.17 970.13 331.12 871.63 476.67 793.50 647.12 996.63 608.06
00011495 00000140 574.78 95.96 535.25 726.31 718.83 371.01 963.14 329.67 867.31 470.31 797.78 651.57 981.59 615.50
00011496 00000141 573.78 95.01 535.03 732.03 718.17 370.30 964.15 329.61 866.70 470.99 795.80 654.92 978.63 619.62
00011497 00000142 573.38 98.86 536.10 715.85 710.69 372.50 965.78 331.12 865.65 476.19 788.40 649.58 980.80 613.72
00011498 00000143 572.00 95.28 536.57 705.36 708.96 371.64 965.51 332.14 866.03 478.00 786.07 639.05 982.71 603.89
00011499 00000144 570.85 92.76 535.20 700.18 708.31 369.11 963.59 328.90 865.55 477.78 788.06 635.05 981.31 599.03
00011500 00000145 570.06 94.31 535.16 696.39 707.08 368.63 963.95 327.66 865.37 478.61 786.73 634.15 982.91 597.20
00011501 00000146 570.07 95.14 533.66 697.33 707.00 369.46 964.27 329.39 865.12 479.27 784.77 634.72 983.43 598.48
00011502 00000147 572.19 98.08 532.45 695.16 707.17 371.68 965.97 332.04 865.43 479.05 780.96 634.58 985.34 598.71
00011503 00000148 570.89 100.96 534.70 699.74 709.02 372.83 964.69 333.19 866.05 479.37 783.30 636.09 985.10 600.37
00011504 00000149 571.83 102.51 535.70 702.56 709.83 373.71 965.68 333.93 866.89 481.45 783.29 638.65 986.64 603.04
00011505 00000150 572.65 104.08 535.34 700.54 709.88 374.26 966.63 334.72 867.49 482.80 782.02 639.01 987.30 603.53
00011506 00000151 572.12 104.67 535.22 704.79 709.66 374.42 965.69 333.92 867.17 482.40 783.28 641.41 987.13 605.39
00011507 00000152 571.37 103.17 536.15 715.28 709.83 374.45 966.27 334.07 867.14 483.05 782.91 645.59 987.11 610.09
00011508 00000153 573.16 106.22 534.82 710.38 711.52 377.80 968.34 337.68 869.53 485.06 782.71 644.96 989.51 609.65
00011509 00000154 575.62 104.39 535.63 703.12 715.28 378.27 972.03 339.30 874.56 486.63 784.75 641.54 991.01 607.03
00011510 00000155 577.61 105.19 534.82 699.19 719.37 378.07 975.11 339.35 879.11 485.38 789.01 640.46 991.86 606.22
00011511 00000156 580.09 104.89 534.90 701.36 723.18 378.25 979.47 339.74 883.13 483.83 791.79 640.96 995.41 606.99
00011512 00000157 584.34 96.46 529.34 720.36 731.94 384.23 985.10 342.59 891.63 487.86 797.53 643.83 1010.65 608.14
00011513 00000158 591.22 96.49 523.36 720.90 739.62 385.17 989.26 343.92 901.08 487.51 803.22 644.33 1016.01 609.11
00011514 00000159 594.98 98.48 523.90 721.00 744.54 385.06 992.10 343.21 906.99 486.65 808.01 644.31 1018.79 608.74
00011515 00000160 597.87 97.49 523.84 720.91 749.04 382.79 995.98 342.67 911.89 486.38 811.46 642.15 1021.72 608.07
00011516 00000161 597.99 94.03 523.51 724.25 751.99 379.87 997.88 340.83 916.37 483.44 812.97 639.72 1024.02 606.96
00011517 00000162 599.04 93.06 524.00 731.51 754.76 375.97 999.91 337.43 921.60 479.56 819.06 641.86 1028.22 609.43
00011518 00000163 598.95 90.26 525.11 735.96 760.52 364.19 1004.63 331.87 924.38 472.90 823.41 644.50 1025.29 614.89
00011519 00000164 599.66 89.81 524.51 738.45 767.21 360.04 1008.99 330.89 934.99 465.41 830.85 643.51 1027.98 616.21
00011520 00000165 600.26 85.92 525.40 736.40 770.79 354.78 1012.80 328.90 937.81 461.28 833.35 634.99 1028.68 609.72
00011521 00000166 599.29 80.65 525.62 723.92 773.54 351.74 1016.89 328.35 940.48 456.77 835.36 621.50 1030.99 597.72
00011522 00000167 595.94 73.38 525.72 716.17 771.98 352.31 1014.77 328.45 940.45 459.00 834.42 613.16 1031.03 592.58
00011523 00000168 595.73 75.16 527.38 714.33 774.53 354.63 1019.10 331.30 945.96 461.96 835.04 614.64 1036.84 594.40
00011524 00000169 594.96 81.51 529.15 713.79 776.63 358.50 1024.65 335.84 952.13 469.69 835.07 619.62 1042.39 599.64
00011525 00000170 592.11 85.37 532.83 720.99 781.00 363.52 1029.63 342.34 960.65 477.42 835.46 623.89 1047.00 605.00
