Video ID: 	f7kXHltPEFA
H: 	2026
W: 	3840
FPS: 	24.0

FRAME INDEX X0 Y0 W H [Landmarks (5 Points)]

00003292 00000000 2038.25 289.87 694.53 999.38 2124.08 682.11 2415.37 700.01 2171.15 882.38 2155.42 1072.85 2349.52 1086.52
00003293 00000001 2030.09 289.02 699.26 1018.42 2106.87 691.13 2396.76 690.43 2162.58 898.89 2135.34 1076.79 2352.56 1078.46
00003294 00000002 2026.61 289.93 692.72 1029.74 2107.94 688.59 2396.54 693.31 2159.14 898.48 2137.41 1075.86 2357.88 1081.25
00003295 00000003 2028.89 298.58 696.42 1022.69 2115.18 674.39 2405.35 694.32 2142.30 895.44 2141.25 1078.70 2357.47 1097.07
00003296 00000004 2031.41 295.08 694.58 1019.04 2114.78 678.71 2403.70 700.78 2155.34 890.67 2146.81 1073.97 2351.53 1088.85
00003297 00000005 2032.28 294.03 699.16 1003.95 2117.14 677.55 2407.88 700.87 2160.09 885.65 2146.90 1068.76 2347.53 1085.99
00003298 00000006 2035.82 289.22 698.72 1005.62 2120.64 679.26 2411.58 700.16 2165.35 882.77 2151.31 1067.17 2352.23 1082.66
00003299 00000007 2042.35 287.77 691.27 1005.94 2126.12 676.67 2414.87 693.69 2171.76 876.62 2157.05 1066.10 2353.70 1078.19
00003300 00000008 2049.82 276.67 690.69 1008.65 2133.21 670.36 2423.71 687.63 2180.96 870.38 2166.02 1059.14 2358.85 1072.10
00003301 00000009 2056.35 267.61 691.23 1015.20 2138.92 666.74 2428.73 682.30 2184.78 862.78 2172.83 1055.63 2365.79 1067.18
00003302 00000010 2062.43 265.96 685.60 1009.81 2146.41 657.50 2430.45 671.34 2190.94 850.75 2180.68 1048.46 2368.58 1058.46
00003303 00000011 2075.80 265.52 677.43 1000.61 2157.99 643.83 2435.42 659.91 2196.51 836.62 2186.21 1035.38 2366.76 1047.34
00003304 00000012 2080.81 248.81 679.74 1010.09 2169.12 631.52 2440.97 647.97 2200.07 822.77 2194.42 1017.95 2372.39 1030.14
00003305 00000013 2084.50 230.75 688.72 1016.98 2178.01 627.92 2445.70 634.64 2200.26 805.49 2200.99 1003.51 2383.09 1008.29
00003306 00000014 2090.75 196.88 689.69 1036.38 2172.33 610.90 2467.08 613.68 2223.95 803.06 2192.04 993.27 2417.40 996.47
00003307 00000015 2093.23 198.52 690.73 1013.44 2169.72 597.90 2462.09 609.91 2202.20 776.51 2183.22 971.88 2403.82 987.49
00003308 00000016 2096.06 188.09 688.92 1008.24 2173.65 584.46 2457.75 599.40 2195.15 759.23 2178.01 959.86 2385.79 978.32
00003309 00000017 2099.26 172.55 682.19 1018.49 2174.30 602.97 2446.57 610.06 2194.10 736.17 2176.93 960.58 2373.47 963.86
00003310 00000018 2093.78 174.29 685.24 1017.06 2168.58 608.84 2443.00 612.51 2191.55 735.73 2174.98 965.22 2372.04 965.47
00003311 00000019 2082.69 186.33 682.80 1015.67 2159.99 607.49 2437.10 616.95 2188.60 750.22 2166.48 971.39 2367.06 975.60
00003312 DELETE   2077.76 190.58 679.64 1022.08 2153.76 616.07 2430.91 605.80 2212.37 781.18 2171.18 991.56 2359.06 984.72
00003313 DELETE   2063.20 217.57 688.70 1014.97 2135.47 625.07 2417.78 629.72 2186.64 817.81 2149.47 1009.16 2346.89 1014.59
00003314 00000022 2055.99 238.78 685.15 1020.63 2123.18 645.81 2410.06 657.31 2176.06 848.63 2154.35 1036.51 2351.36 1045.30
00003315 00000023 2047.00 271.47 696.35 999.74 2133.36 669.92 2419.63 684.85 2178.41 861.94 2168.45 1049.77 2358.56 1061.40
00003316 00000024 2053.22 289.42 691.83 994.28 2136.55 686.56 2419.14 699.59 2183.47 882.07 2177.29 1062.44 2371.74 1070.95
00003317 00000025 2057.34 300.48 699.10 993.01 2140.79 691.63 2425.97 708.65 2190.28 890.84 2181.86 1061.98 2383.64 1072.23
00003318 00000026 2068.54 298.07 697.24 1005.12 2149.43 693.43 2430.91 705.34 2195.82 886.60 2192.39 1062.76 2393.19 1068.25
00003319 00000027 2079.08 292.38 688.15 1009.45 2149.53 686.16 2417.04 697.02 2194.90 884.56 2189.94 1057.43 2402.97 1069.58
00003320 00000028 2085.34 284.21 688.89 1015.49 2168.33 667.15 2441.37 680.15 2203.83 862.55 2213.78 1050.63 2396.30 1056.71
00003321 00000029 2089.19 267.40 696.10 1002.41 2172.64 653.71 2444.83 666.81 2209.32 847.87 2210.16 1036.89 2391.08 1044.61
00003322 00000030 2096.22 243.36 692.85 1000.11 2181.39 643.27 2448.68 652.56 2215.54 827.97 2211.19 1017.70 2386.53 1023.75
00003323 00000031 2103.93 226.92 683.42 1007.83 2188.87 637.58 2451.45 638.12 2215.32 805.89 2210.36 1006.81 2384.50 1006.99
00003324 00000032 2100.89 208.33 683.23 1024.57 2190.70 627.10 2453.01 628.61 2210.82 793.18 2208.48 996.07 2386.56 997.53
00003325 00000033 2101.36 201.86 678.76 1024.67 2187.85 619.90 2451.68 617.01 2201.42 774.13 2202.12 988.14 2384.93 986.36
00003326 00000034 2096.11 199.74 683.45 1013.79 2162.35 604.67 2449.12 612.16 2189.03 778.03 2179.52 979.23 2386.71 991.50
00003327 00000035 2095.38 197.66 674.20 1003.03 2159.63 602.50 2437.58 606.90 2185.04 766.62 2172.31 967.52 2379.33 977.77
00003328 00000036 2080.39 189.90 674.92 1001.99 2157.28 594.45 2412.48 600.54 2188.94 761.54 2167.14 957.80 2374.65 967.05
00003329 00000037 2076.79 181.70 677.71 1017.48 2148.61 606.23 2425.50 594.38 2194.35 765.31 2160.17 971.18 2362.77 963.30
00003330 00000038 2058.84 182.20 684.70 1016.03 2130.36 608.98 2412.22 598.10 2176.42 772.10 2138.15 976.49 2345.64 969.75
00003331 00000039 2047.68 194.20 687.99 1011.23 2119.45 615.07 2400.36 606.74 2164.09 786.54 2125.45 986.75 2327.79 982.31
00003332 00000040 2038.42 217.81 692.87 1014.02 2110.03 627.18 2391.81 628.49 2154.66 810.57 2122.83 1008.56 2316.93 1011.57
00003333 DELETE   2036.44 252.96 691.58 1020.89 2102.17 644.25 2390.59 654.99 2151.48 841.86 2131.50 1040.09 2321.50 1048.78
00003334 DELETE   2038.97 282.19 695.29 1025.76 2124.26 669.14 2411.81 682.17 2164.44 862.95 2156.71 1069.24 2347.78 1078.93
00003335 00000043 2049.31 296.46 687.53 1017.31 2127.89 685.85 2418.38 699.92 2171.77 887.51 2163.23 1092.09 2355.79 1101.16
00003336 00000044 2059.00 310.69 686.27 1003.93 2133.08 694.72 2424.40 711.13 2178.98 898.55 2170.09 1090.79 2368.09 1100.77
00003337 00000045 2066.80 307.11 688.38 991.92 2141.16 698.54 2428.45 716.19 2188.45 897.30 2176.94 1080.10 2372.43 1091.12
00003338 00000046 2072.89 298.91 691.10 991.89 2150.08 689.14 2434.72 707.76 2196.55 888.68 2186.78 1070.07 2378.09 1081.70
00003339 00000047 2078.11 288.95 687.27 989.52 2158.69 678.03 2437.05 694.66 2198.47 874.39 2196.33 1060.01 2379.87 1070.23
00003340 00000048 2087.04 271.94 680.51 989.14 2167.39 660.73 2438.60 676.85 2204.61 855.68 2201.81 1044.50 2374.31 1055.18
00003341 00000049 2088.68 267.15 691.37 987.15 2172.79 649.03 2442.30 664.31 2208.61 838.72 2203.77 1034.16 2371.04 1044.78
00003342 00000050 2090.77 251.84 687.18 991.96 2176.35 634.33 2441.81 652.10 2204.73 821.44 2199.45 1019.46 2361.35 1032.37
00003343 00000051 2088.33 228.29 683.01 1007.02 2176.62 626.36 2445.86 642.50 2199.26 807.58 2191.39 1013.67 2352.84 1026.72
00003344 00000052 2086.54 225.72 682.00 1002.64 2175.49 624.85 2444.13 640.16 2193.03 801.10 2183.50 1004.35 2351.31 1017.52
00003345 00000053 2082.68 229.06 682.29 999.83 2172.16 623.90 2440.66 641.26 2188.88 799.04 2180.32 1001.75 2346.91 1016.50
00003346 00000054 2073.10 226.02 682.84 1012.13 2164.92 627.27 2437.79 646.28 2184.83 806.74 2177.00 1009.44 2342.36 1025.49
00003347 00000055 2067.81 235.74 683.17 1012.43 2161.07 636.53 2437.65 655.95 2186.89 820.57 2173.39 1025.16 2340.98 1041.52
00003348 00000056 2059.26 259.23 683.97 1005.60 2148.77 651.09 2427.27 664.86 2180.08 835.47 2169.71 1044.45 2339.21 1055.23
00003349 00000057 2057.10 272.86 688.17 1009.83 2143.70 667.08 2429.07 682.13 2182.14 856.20 2171.12 1061.48 2349.71 1072.65
00003350 00000058 2059.63 285.67 691.77 1012.84 2141.94 679.98 2430.83 695.53 2184.61 873.95 2176.11 1069.62 2361.25 1080.21
00003351 00000059 2062.07 295.88 688.99 1010.86 2141.92 685.30 2434.75 700.53 2187.67 881.70 2178.43 1077.22 2372.76 1086.77
00003352 00000060 2064.59 300.42 689.98 1006.81 2142.50 683.12 2434.09 699.98 2188.50 882.72 2180.46 1073.80 2379.81 1083.88
00003353 00000061 2067.98 291.64 684.85 1011.25 2145.85 677.88 2435.44 694.86 2191.31 878.11 2186.02 1071.00 2377.26 1081.54
00003354 00000062 2070.41 281.32 687.63 1015.42 2154.27 670.01 2438.98 687.08 2195.43 866.14 2190.12 1062.47 2376.88 1073.53
00003355 00000063 2075.38 269.83 677.32 1017.08 2158.55 657.18 2438.88 672.33 2195.85 850.45 2192.95 1054.46 2371.05 1064.55
00003356 00000064 2076.98 266.90 674.86 1009.45 2162.99 647.46 2438.27 662.66 2198.39 839.46 2196.45 1044.77 2366.97 1055.11
00003357 00000065 2078.55 252.37 677.69 1019.79 2167.15 632.32 2442.40 654.92 2195.44 829.56 2191.87 1033.37 2362.01 1050.29
00003358 00000066 2079.08 236.81 680.34 1024.32 2168.40 625.46 2441.33 646.26 2189.72 812.33 2188.17 1021.67 2356.21 1037.69
00003359 DELETE   2083.70 218.23 676.11 1021.82 2180.81 635.88 2436.24 654.56 2191.68 795.72 2188.87 998.31 2353.54 1013.30
00003360 DELETE   2087.43 199.98 674.53 1030.59 2182.82 634.88 2440.51 642.16 2187.04 773.44 2184.95 987.69 2360.99 993.90
00003361 00000069 2087.76 197.03 674.53 1027.43 2183.61 615.08 2443.70 620.89 2187.71 759.56 2179.92 975.32 2367.38 980.93
00003362 00000070 2082.33 182.30 671.57 1023.75 2168.51 588.36 2425.74 601.78 2197.36 758.27 2167.73 953.70 2378.49 970.15
00003363 00000071 2082.53 179.00 673.96 1022.50 2167.17 578.92 2425.37 594.32 2193.36 751.48 2164.69 946.48 2374.82 964.74
00003364 00000072 2081.30 178.97 672.54 1022.71 2165.90 574.46 2422.74 591.42 2190.83 746.68 2164.01 943.64 2372.17 963.42
00003365 00000073 2079.23 180.13 671.63 1023.85 2165.16 571.36 2421.21 589.39 2187.55 743.45 2165.25 943.46 2368.11 964.76
00003366 00000074 2078.13 179.62 668.62 1026.24 2163.04 568.30 2420.09 588.11 2185.80 742.11 2165.30 942.23 2368.29 964.86
00003367 00000075 2076.61 187.73 672.14 1034.30 2177.04 579.53 2436.04 592.86 2165.54 733.81 2165.04 955.20 2356.60 968.04
00003368 00000076 2072.98 185.99 673.16 1030.39 2165.50 584.63 2432.01 594.86 2161.17 741.76 2156.54 960.92 2355.84 971.52
00003369 00000077 2058.54 171.72 692.32 1030.32 2139.48 594.12 2415.11 590.84 2176.51 754.24 2140.68 965.72 2337.45 965.93
00003370 00000078 2049.14 175.26 685.48 1025.80 2129.92 602.25 2406.28 598.11 2169.05 761.06 2129.69 968.56 2326.64 967.80
00003371 00000079 2047.49 183.19 681.59 1019.05 2122.62 605.38 2399.24 602.52 2162.79 775.44 2124.70 976.91 2321.00 976.99
00003372 00000080 2037.61 191.22 691.03 1022.11 2112.22 616.79 2388.54 611.93 2154.92 789.88 2116.74 989.10 2313.17 987.51
00003373 00000081 2034.02 209.97 693.04 1012.05 2106.79 620.88 2386.64 623.76 2152.14 812.96 2115.16 1001.34 2314.92 1005.84
00003374 00000082 2031.86 228.83 692.80 1009.12 2099.91 627.90 2381.39 633.91 2144.15 827.22 2120.67 1017.35 2316.60 1023.26
00003375 00000083 2028.95 237.98 692.54 1025.93 2098.09 637.91 2383.83 647.60 2142.87 839.13 2125.85 1028.81 2326.62 1036.48
00003376 00000084 2032.07 245.96 695.77 1025.75 2102.51 642.91 2391.59 658.09 2148.06 849.08 2135.68 1030.17 2346.39 1041.74
00003377 00000085 2044.49 250.48 692.16 1030.70 2110.05 645.19 2400.14 662.92 2154.02 856.10 2143.43 1033.05 2357.41 1046.74
00003378 00000086 2052.43 241.95 680.60 1038.33 2121.04 643.85 2409.23 661.30 2162.33 857.40 2152.98 1027.84 2371.89 1041.08
00003379 00000087 2064.53 243.22 682.95 1030.10 2150.40 643.12 2418.63 661.04 2170.96 839.19 2176.96 1016.83 2378.68 1030.42
00003380 00000088 2074.32 248.67 677.73 1018.97 2161.72 637.36 2425.17 657.84 2175.64 831.08 2183.87 1006.07 2385.94 1020.93
00003381 00000089 2079.40 240.35 674.94 1022.82 2169.17 630.30 2435.39 655.67 2182.05 827.10 2182.58 1001.21 2385.42 1020.38
00003382 00000090 2080.32 238.19 682.92 1027.29 2172.22 627.90 2435.04 653.54 2184.17 822.18 2185.60 1001.58 2377.56 1021.04
00003383 00000091 2082.12 235.29 684.40 1036.02 2173.31 627.83 2433.28 654.13 2179.44 821.55 2190.30 1007.96 2371.89 1027.71
00003384 00000092 2081.63 231.99 677.38 1034.61 2170.91 625.15 2433.14 651.26 2177.85 818.62 2187.10 1012.84 2360.09 1032.76
00003385 00000093 2080.31 234.23 669.77 1012.10 2166.82 627.13 2428.79 652.84 2172.82 813.57 2174.65 1010.13 2343.34 1030.85
00003386 00000094 2075.69 222.25 678.19 1015.89 2160.32 623.71 2424.75 648.72 2165.71 807.63 2163.30 1006.90 2331.54 1028.48
00003387 00000095 2078.74 212.98 685.02 1005.43 2142.38 614.26 2417.81 625.34 2185.61 816.83 2146.80 1003.50 2335.13 1013.95
00003388 00000096 2071.32 197.79 685.74 1007.69 2138.70 609.52 2412.45 610.96 2182.13 792.88 2147.47 993.92 2325.78 996.93
00003389 00000097 2067.54 189.15 685.07 1003.21 2132.58 601.56 2406.29 596.39 2174.29 776.38 2145.01 983.09 2324.05 981.20
00003390 00000098 2060.01 173.32 690.98 1017.65 2127.20 585.48 2406.95 582.88 2165.31 759.85 2136.04 970.25 2323.50 970.91
00003391 00000099 2051.88 166.22 690.54 1013.51 2118.66 580.16 2396.71 575.84 2148.46 745.87 2120.08 956.86 2314.97 957.05
00003392 00000100 2044.97 165.96 694.83 1018.02 2114.97 579.38 2390.77 576.92 2140.89 743.27 2114.40 955.61 2306.29 957.21
00003393 00000101 2037.62 175.47 697.04 1019.94 2110.09 586.34 2387.74 586.90 2135.10 752.79 2111.29 963.34 2299.10 966.91
00003394 00000102 2031.54 184.63 694.86 1029.91 2108.71 602.91 2382.77 602.70 2146.57 774.57 2123.01 985.06 2298.40 986.69
00003395 00000103 2024.89 199.58 704.01 1026.92 2101.42 614.75 2382.77 619.26 2139.42 797.25 2111.06 992.54 2306.88 998.09
00003396 00000104 2027.32 214.21 698.13 1014.59 2100.46 619.42 2380.75 633.05 2138.01 816.67 2105.53 998.42 2307.97 1011.16
00003397 00000105 2030.10 223.16 696.55 1012.15 2101.28 624.09 2379.22 640.44 2136.16 827.24 2110.52 1004.51 2310.53 1018.62
00003398 00000106 2029.68 228.05 693.24 1011.11 2100.37 622.68 2382.63 640.35 2135.46 830.14 2111.81 1008.25 2314.55 1023.18
00003399 00000107 2031.12 223.49 694.06 1012.38 2100.85 620.56 2383.39 637.42 2137.47 829.27 2112.90 1005.92 2315.42 1020.44
00003400 00000108 2032.56 216.06 695.71 1012.88 2104.07 615.70 2384.94 633.25 2140.04 822.70 2109.55 998.55 2315.61 1014.12
00003401 00000109 2032.23 210.37 695.63 1013.99 2106.58 611.61 2385.89 627.36 2142.62 812.74 2105.33 993.76 2311.62 1008.58
00003402 00000110 2033.31 206.05 698.73 1010.42 2103.59 612.72 2385.21 624.92 2140.77 813.10 2106.34 990.26 2312.96 1002.17
00003403 00000111 2034.49 201.57 697.12 1026.01 2105.00 614.16 2386.18 627.34 2139.82 813.22 2110.95 992.45 2317.14 1005.06
00003404 00000112 2043.78 206.69 691.23 1054.22 2113.56 613.72 2393.39 628.91 2146.88 818.60 2127.26 1011.59 2324.09 1025.51
00003405 00000113 2044.52 214.85 697.95 1046.86 2111.31 615.24 2394.13 631.68 2148.14 825.75 2130.01 1018.06 2328.42 1032.65
00003406 00000114 2041.12 216.55 699.39 1032.77 2107.61 618.87 2390.18 636.47 2146.23 827.87 2119.98 1013.01 2320.89 1028.58
00003407 00000115 2040.66 217.99 700.16 1023.25 2108.25 619.37 2390.26 636.69 2146.14 826.88 2120.20 1008.70 2322.08 1023.92
00003408 00000116 2042.72 215.17 694.90 1019.86 2109.15 617.36 2392.34 634.14 2147.61 824.49 2119.16 1007.83 2321.39 1022.71
00003409 00000117 2044.73 214.11 692.81 1017.29 2111.01 617.24 2393.99 631.60 2150.35 822.21 2119.39 1007.66 2322.54 1020.83
00003410 00000118 2047.14 212.34 691.59 1019.98 2114.20 615.71 2396.98 630.38 2153.43 821.31 2121.87 1007.47 2325.06 1020.95
00003411 00000119 2046.43 213.12 691.56 1015.91 2114.45 616.86 2399.43 632.87 2153.94 821.74 2120.59 1003.52 2325.96 1018.18
00003412 00000120 2048.32 214.60 689.75 1020.86 2116.61 616.33 2402.18 633.48 2157.51 822.65 2122.01 1008.11 2322.25 1023.81
00003413 00000121 2053.53 213.01 684.24 1032.55 2121.52 618.97 2404.89 635.44 2161.77 824.74 2128.34 1015.97 2326.55 1031.02
00003414 00000122 2054.67 215.92 685.49 1031.31 2123.20 619.64 2407.46 635.92 2165.15 823.34 2130.86 1017.82 2327.10 1032.66
00003415 00000123 2057.37 215.88 683.62 1026.22 2126.68 620.27 2409.53 634.89 2167.93 818.17 2133.60 1017.86 2324.64 1031.31
00003416 00000124 2053.14 215.50 684.84 1025.79 2124.41 618.80 2410.06 631.19 2168.68 815.32 2132.66 1019.75 2323.40 1031.48
00003417 00000125 2050.42 207.35 683.27 1044.68 2123.12 619.37 2406.28 629.19 2163.12 810.67 2131.71 1023.37 2321.31 1032.99
00003418 00000126 2044.24 205.25 685.89 1055.63 2116.47 618.04 2406.15 628.78 2157.20 810.79 2125.05 1026.78 2322.27 1036.93
00003419 00000127 2044.65 209.81 680.43 1065.07 2111.98 619.60 2402.72 631.30 2149.15 811.44 2118.40 1032.39 2317.60 1043.42
00003420 00000128 2042.04 210.77 684.86 1068.92 2107.38 623.03 2401.09 635.61 2145.00 815.83 2115.85 1034.31 2315.20 1046.17
00003421 00000129 2041.08 219.60 685.02 1064.22 2105.43 625.76 2398.64 644.13 2143.80 826.24 2113.70 1035.35 2309.41 1052.10
00003422 00000130 2039.65 226.15 683.75 1052.60 2106.38 626.65 2394.71 648.52 2142.99 829.98 2113.49 1033.00 2306.58 1052.19
00003423 00000131 2035.82 228.86 683.95 1046.14 2102.76 630.53 2391.70 654.55 2140.72 833.68 2107.80 1033.62 2301.41 1054.30
00003424 00000132 2033.88 236.03 687.57 1036.20 2101.71 634.06 2390.77 658.23 2143.12 836.94 2107.17 1033.88 2299.20 1054.63
00003425 00000133 2034.27 237.30 686.89 1033.62 2101.88 634.56 2392.11 657.69 2144.95 836.94 2108.14 1034.50 2299.82 1054.36
00003426 00000134 2036.74 231.26 684.85 1036.81 2104.86 632.37 2393.58 653.80 2148.03 832.54 2109.99 1033.62 2301.64 1052.24
00003427 00000135 2039.88 224.76 683.09 1036.65 2105.93 629.55 2393.18 647.83 2148.54 827.22 2108.19 1030.47 2300.52 1046.91
00003428 00000136 2044.13 219.49 680.85 1036.54 2110.64 623.55 2397.41 641.35 2153.07 822.68 2109.94 1025.29 2304.03 1041.74
00003429 00000137 2045.71 219.85 679.92 1031.29 2116.07 622.15 2403.07 638.15 2159.64 817.98 2116.89 1024.32 2306.85 1039.29
00003430 00000138 2046.84 219.39 681.43 1030.83 2119.61 620.35 2406.24 635.08 2161.80 813.96 2120.35 1023.92 2309.32 1037.84
00003431 00000139 2051.43 217.42 679.70 1032.46 2122.96 621.34 2408.35 636.76 2166.10 813.63 2123.22 1022.96 2311.65 1037.62
00003432 00000140 2053.63 220.02 680.10 1031.73 2125.03 622.81 2411.71 638.98 2168.96 815.51 2124.78 1023.90 2314.95 1039.35
00003433 00000141 2057.74 221.66 680.21 1033.15 2127.83 625.57 2414.09 642.65 2172.10 817.27 2129.09 1026.48 2317.67 1042.52
00003434 00000142 2059.26 218.38 679.89 1040.48 2129.09 627.96 2414.84 644.92 2172.68 817.92 2130.89 1028.01 2318.36 1044.06
00003435 00000143 2061.59 217.12 676.27 1042.99 2131.10 629.14 2415.27 646.82 2174.91 819.39 2132.40 1028.98 2318.74 1045.80
00003436 00000144 2061.94 215.98 673.78 1044.75 2131.70 628.94 2417.38 648.22 2175.97 821.11 2132.53 1029.22 2320.27 1047.39
00003437 00000145 2052.46 227.65 679.95 1036.91 2144.80 633.32 2422.75 655.91 2158.47 812.34 2140.91 1028.76 2314.78 1049.26
00003438 00000146 2052.59 228.03 678.82 1038.56 2144.51 635.24 2423.61 657.73 2158.68 813.77 2140.69 1030.87 2316.19 1051.29
00003439 00000147 2051.69 228.34 680.19 1041.13 2144.35 635.05 2424.31 659.87 2159.96 816.97 2139.98 1031.70 2316.22 1054.06
00003440 00000148 2051.00 229.74 678.46 1040.01 2145.36 635.76 2424.89 661.31 2160.14 817.40 2139.57 1032.46 2315.12 1055.38
00003441 00000149 2050.81 229.64 679.67 1039.84 2145.78 637.61 2423.61 661.92 2160.84 817.44 2141.17 1033.18 2315.12 1055.09
00003442 00000150 2052.73 229.05 679.59 1037.91 2146.71 637.03 2425.39 660.09 2160.42 813.81 2141.05 1030.96 2315.95 1051.86
00003443 00000151 2055.87 227.35 679.15 1031.50 2149.35 630.34 2426.78 655.75 2160.93 807.60 2142.42 1020.71 2319.38 1043.17
00003444 00000152 2063.12 213.41 679.13 1036.72 2140.33 622.08 2429.95 644.10 2184.80 812.14 2134.27 1015.54 2334.50 1035.39
00003445 00000153 2061.17 209.08 684.63 1037.33 2141.07 616.69 2432.40 639.95 2185.03 809.21 2133.75 1007.78 2337.87 1028.66
00003446 00000154 2061.75 209.48 687.05 1036.05 2144.26 617.25 2433.55 637.72 2187.36 803.26 2135.46 1003.10 2338.71 1021.90
00003447 00000155 2062.22 209.30 686.67 1038.66 2145.88 615.23 2436.91 637.46 2190.28 806.84 2140.04 1000.84 2347.35 1020.87
00003448 00000156 2063.57 210.52 681.05 1054.66 2145.38 615.55 2439.83 642.73 2188.97 819.90 2148.11 1009.29 2363.79 1032.69
00003449 00000157 2066.16 233.37 679.14 1038.09 2142.41 625.91 2438.16 653.39 2191.07 838.01 2157.60 1019.12 2375.75 1041.90
00003450 00000158 2063.56 268.86 685.86 1004.84 2151.39 653.41 2431.03 674.50 2185.09 839.11 2169.06 1028.76 2368.62 1044.63
