Video ID: 	oFvB-1XKlmE
H: 	1080
W: 	1920
FPS: 	25.0

FRAME INDEX X0 Y0 W H [Landmarks (5 Points)]

00003474 00000000 693.46 148.22 419.12 612.84 879.98 423.98 1058.41 403.51 1025.25 545.51 884.92 622.45 1046.91 608.14
00003475 00000001 700.53 174.18 425.51 606.66 889.99 440.46 1072.18 433.35 1030.85 562.92 902.48 642.89 1049.89 638.74
00003476 00000002 717.20 172.71 416.81 625.47 900.50 467.46 1075.02 456.68 1036.15 583.28 910.41 657.58 1056.22 650.12
00003477 DELETE   726.84 195.68 415.46 620.02 910.93 473.61 1087.82 463.39 1046.14 598.68 914.85 667.20 1061.54 661.53
00003478 00000004 723.65 222.42 423.98 591.71 918.79 479.96 1085.95 461.92 1053.74 604.21 918.53 670.71 1066.61 659.20
00003479 00000005 730.41 201.82 415.54 607.71 918.13 474.32 1091.97 460.21 1055.67 600.30 916.11 658.81 1069.92 650.89
00003480 DELETE   729.72 179.37 411.11 615.93 912.37 471.85 1085.26 453.05 1051.93 584.16 917.02 645.44 1073.64 632.09
00003481 DELETE   716.92 199.29 415.24 589.72 906.76 453.86 1073.44 441.45 1045.84 565.62 916.50 636.73 1064.36 628.83
00003482 00000008 707.58 190.60 418.52 594.45 897.32 446.57 1069.93 427.98 1043.14 557.95 910.52 634.73 1062.86 621.69
00003483 00000009 704.12 199.18 414.83 586.18 889.37 441.36 1060.89 423.80 1033.87 556.14 904.88 634.66 1057.97 622.50
00003484 00000010 682.82 186.52 428.51 608.09 884.09 449.43 1056.72 420.91 1035.34 562.88 885.17 640.95 1042.08 619.61
00003485 00000011 679.11 193.99 427.61 607.05 880.06 460.06 1051.72 425.96 1032.58 571.59 882.87 650.06 1039.63 624.46
00003486 00000012 701.33 188.69 404.01 614.51 876.79 478.97 1048.35 438.76 1024.13 583.57 888.61 654.46 1051.41 624.65
00003487 00000013 697.52 190.28 404.81 623.67 875.74 491.97 1046.66 446.91 1031.77 597.75 891.98 670.29 1053.03 636.97
00003488 00000014 679.77 200.73 422.07 615.79 879.28 492.39 1046.89 439.81 1040.07 605.40 892.24 685.23 1046.28 645.38
00003489 00000015 679.36 206.48 418.85 611.40 877.55 495.24 1042.33 441.22 1039.41 603.19 891.59 685.96 1043.79 645.23
00003490 00000016 676.63 204.76 419.13 612.03 874.03 495.76 1038.39 438.35 1036.85 599.77 886.76 682.87 1040.69 639.71
00003491 00000017 684.86 190.39 407.28 618.78 867.69 500.47 1036.88 442.89 1026.28 588.37 890.46 671.79 1045.73 629.18
00003492 00000018 677.06 181.81 409.05 620.18 866.61 495.16 1031.91 436.78 1025.43 579.68 890.41 668.19 1040.38 624.87
00003493 00000019 675.99 176.73 410.31 622.65 868.62 484.60 1035.26 428.47 1028.42 572.14 893.11 665.65 1039.91 623.99
00003494 00000020 675.63 184.58 408.22 611.51 874.77 474.84 1037.11 422.63 1034.29 563.76 898.59 660.66 1039.84 622.71
00003495 00000021 677.14 181.94 409.41 613.61 876.24 474.22 1039.37 420.76 1037.01 562.70 897.46 658.26 1041.87 619.09
00003496 00000022 678.61 175.87 408.74 621.26 879.27 476.92 1042.42 421.09 1042.53 563.55 897.44 660.12 1043.13 619.15
00003497 00000023 681.35 189.59 410.17 609.64 881.47 478.70 1046.98 423.76 1045.25 571.77 900.44 663.91 1046.89 624.06
00003498 00000024 683.09 183.54 411.31 621.98 884.88 486.34 1047.93 426.58 1048.93 580.03 898.28 667.27 1046.73 623.68
00003499 00000025 691.87 185.80 405.26 622.99 888.70 490.77 1052.67 430.99 1054.74 583.00 903.90 671.57 1052.42 628.12
00003500 00000026 693.90 204.40 406.24 608.62 892.49 490.84 1058.21 431.97 1062.86 587.02 908.88 676.91 1057.16 634.46
00003501 00000027 687.59 227.83 422.23 587.99 904.32 495.28 1060.95 438.40 1070.43 589.73 913.89 690.55 1053.42 649.66
00003502 00000028 688.35 207.86 425.34 616.51 914.08 497.17 1070.81 445.84 1076.86 602.20 921.09 694.40 1055.41 655.94
00003503 00000029 698.15 234.86 421.78 589.39 921.96 498.96 1074.01 453.81 1078.33 604.63 936.18 699.01 1061.99 665.84
00003504 00000030 703.35 237.70 421.50 584.92 925.93 501.32 1080.54 456.20 1083.34 605.94 943.52 700.94 1067.32 667.65
00003505 00000031 705.31 233.63 420.33 584.57 925.33 503.55 1082.82 455.07 1087.09 602.49 946.42 697.94 1074.70 661.63
00003506 00000032 705.70 228.62 420.63 581.77 924.05 499.51 1082.48 449.94 1086.47 596.64 942.30 689.50 1078.76 652.58
00003507 00000033 706.59 233.71 419.09 574.06 921.26 493.73 1082.47 444.50 1086.26 592.56 936.42 684.19 1078.14 648.28
00003508 00000034 708.67 226.20 415.30 583.41 922.30 491.38 1080.14 446.26 1081.47 590.23 940.14 686.27 1076.12 652.62
00003509 00000035 709.40 219.98 414.59 591.53 923.77 492.77 1082.26 446.27 1086.42 591.40 945.63 692.28 1078.74 657.31
00003510 00000036 706.98 228.47 419.04 588.57 928.02 499.33 1085.27 453.54 1089.01 600.86 951.92 700.45 1076.06 665.98
00003511 00000037 706.72 235.60 420.83 585.57 927.94 504.35 1087.41 457.96 1091.53 605.69 950.64 703.74 1076.27 669.27
00003512 00000038 706.12 236.68 418.70 582.30 927.86 502.83 1082.20 456.05 1087.21 603.33 948.89 700.62 1072.05 665.79
00003513 00000039 705.42 226.95 418.21 590.27 922.67 498.56 1075.92 449.29 1082.13 596.14 932.77 691.24 1067.31 655.03
00003514 00000040 702.11 220.91 419.94 592.28 917.03 495.23 1073.11 441.61 1079.74 591.15 923.57 684.42 1066.22 645.04
00003515 00000041 696.34 204.48 422.20 609.00 915.17 489.27 1076.71 433.20 1083.69 593.25 919.21 682.50 1064.00 640.86
00003516 00000042 696.93 202.83 421.34 606.28 913.33 486.86 1075.83 429.26 1082.67 588.73 922.75 680.19 1067.34 636.91
00003517 00000043 695.48 202.84 419.57 604.98 913.56 484.59 1071.38 427.11 1083.03 582.42 923.71 675.90 1064.92 632.82
00003518 00000044 689.30 195.22 420.89 607.84 910.49 481.41 1067.56 423.79 1079.63 576.79 920.76 673.92 1059.27 630.42
00003519 00000045 684.17 189.08 422.62 608.84 905.88 476.99 1060.94 419.75 1074.55 566.52 917.21 666.48 1054.75 623.21
00003520 00000046 692.82 195.17 408.68 593.85 895.32 472.27 1061.17 412.53 1066.83 561.43 921.30 659.97 1064.91 615.63
00003521 00000047 684.12 182.90 411.90 605.65 891.47 469.23 1055.03 413.75 1061.79 556.76 917.05 659.08 1058.32 617.75
00003522 00000048 679.86 179.05 409.86 605.44 888.95 468.37 1052.76 414.43 1056.84 554.64 909.45 656.01 1050.99 616.06
00003523 00000049 679.81 173.68 406.42 608.58 888.92 472.83 1049.61 415.09 1053.54 556.27 902.73 653.47 1043.41 611.02
00003524 00000050 679.35 173.02 408.28 607.40 888.15 474.85 1051.05 414.29 1053.60 556.30 899.81 652.69 1043.49 608.17
00003525 00000051 680.04 171.06 405.54 605.44 888.62 475.84 1049.00 414.79 1052.14 556.15 895.64 649.72 1038.29 605.31
00003526 00000052 680.79 179.37 407.62 594.96 888.65 472.01 1049.81 412.20 1049.70 556.29 892.38 644.63 1038.56 601.46
00003527 00000053 679.93 185.31 410.78 585.17 885.64 464.67 1051.27 407.25 1047.34 552.65 890.39 637.52 1042.56 596.40
00003528 00000054 675.21 182.93 412.62 581.92 882.22 460.40 1049.74 403.66 1045.79 548.78 890.96 635.66 1043.77 594.48
00003529 00000055 673.47 188.80 410.67 573.05 881.22 457.24 1050.41 401.06 1045.98 547.95 890.37 636.01 1040.96 595.82
00003530 00000056 671.62 179.46 410.70 580.99 880.86 455.33 1047.86 400.31 1044.88 543.79 899.74 638.19 1042.06 597.47
00003531 00000057 664.60 179.17 412.56 574.03 879.07 457.53 1040.90 402.19 1049.70 555.17 895.75 639.17 1028.94 598.89
00003532 00000058 663.23 174.83 412.29 577.76 879.43 457.19 1038.65 401.83 1048.40 552.70 897.46 639.44 1025.82 599.07
00003533 00000059 662.33 171.27 413.84 583.58 879.44 455.65 1037.91 401.53 1047.62 550.74 896.94 639.77 1024.68 600.45
00003534 00000060 663.70 169.46 413.62 589.33 881.10 454.91 1037.22 401.38 1047.74 550.51 898.99 640.65 1026.04 601.47
00003535 00000061 668.52 174.15 414.42 595.22 881.11 449.02 1041.61 400.69 1045.52 538.25 906.21 641.23 1042.12 605.17
00003536 00000062 668.06 172.76 415.02 600.42 882.25 449.86 1040.57 400.68 1045.70 538.44 902.27 640.64 1039.18 604.47
00003537 00000063 668.86 172.12 414.65 601.70 884.16 451.39 1040.52 399.99 1046.35 539.13 898.90 637.38 1037.51 599.72
00003538 00000064 670.36 171.82 414.82 602.91 885.35 452.38 1040.97 399.17 1047.33 539.81 896.99 635.97 1037.99 597.04
00003539 00000065 671.65 174.39 413.88 599.70 886.21 451.58 1041.18 399.58 1047.05 540.51 896.68 634.90 1037.14 597.18
00003540 00000066 670.28 177.24 417.13 596.74 885.17 448.34 1041.16 398.20 1045.61 539.16 895.71 633.49 1036.05 597.48
00003541 00000067 667.63 168.02 419.55 606.45 884.00 448.97 1038.86 394.68 1046.03 534.39 892.47 631.87 1034.34 592.62
00003542 00000068 666.35 167.87 418.25 602.52 880.47 444.71 1035.38 392.10 1041.27 531.11 891.44 629.74 1032.96 591.68
00003543 00000069 663.36 167.49 418.29 601.41 878.12 442.08 1032.49 389.51 1039.09 525.76 889.76 628.12 1031.05 590.18
00003544 00000070 654.55 155.37 419.01 604.39 876.38 445.33 1025.52 389.27 1041.00 536.17 883.53 625.78 1020.82 585.17
00003545 00000071 652.20 161.32 421.18 595.54 871.68 441.19 1023.35 386.21 1036.81 534.00 881.17 621.79 1022.53 581.64
00003546 00000072 650.54 150.89 423.82 606.51 872.40 439.73 1020.49 384.59 1034.38 531.05 880.45 620.45 1022.16 579.87
00003547 00000073 647.96 148.59 425.87 607.42 870.50 439.05 1017.72 384.55 1031.69 528.14 878.77 617.92 1021.19 577.78
00003548 00000074 646.03 146.54 427.97 609.15 866.42 435.19 1016.10 381.99 1027.76 524.64 876.59 614.88 1022.64 575.43
00003549 00000075 644.23 142.62 428.24 613.21 860.58 432.18 1012.34 380.50 1020.79 522.90 874.05 616.09 1020.71 577.10
00003550 00000076 639.29 150.68 429.13 605.32 848.97 430.97 1005.51 383.79 1006.17 517.51 867.12 616.01 1014.49 579.80
00003551 00000077 637.74 167.28 419.28 592.83 829.88 430.42 996.04 390.76 985.16 522.53 847.92 614.04 1004.39 584.36
00003552 DELETE   632.21 155.22 415.39 611.39 813.60 421.93 984.83 387.18 966.00 523.65 827.37 618.30 988.76 592.93
00003553 DELETE   614.37 175.10 417.49 600.32 783.46 421.36 963.33 397.93 923.29 531.14 799.26 618.91 965.94 600.57
00003554 00000080 605.29 170.18 414.74 609.39 765.69 425.69 942.72 401.77 901.67 538.94 781.87 619.36 949.06 601.31
00003555 00000081 597.60 167.94 417.84 616.86 751.61 431.00 929.83 409.20 884.34 543.05 772.84 623.86 936.90 607.13
00003556 00000082 595.11 200.90 423.41 594.05 757.19 431.77 935.54 420.49 879.82 555.75 770.15 627.17 934.90 617.06
00003557 00000083 596.77 190.27 418.46 601.63 750.34 439.51 926.81 421.82 875.71 561.72 770.48 630.65 930.55 617.76
00003558 00000084 597.36 186.43 417.97 602.16 750.31 439.19 927.13 420.98 875.71 560.07 770.36 629.18 930.76 615.79
00003559 00000085 600.44 176.51 415.13 600.59 751.58 436.52 927.07 418.04 877.77 555.86 771.53 623.88 931.02 610.23
00003560 00000086 603.17 155.58 417.39 612.24 751.43 432.78 937.18 410.71 886.39 546.07 776.91 623.36 945.04 605.96
00003561 00000087 612.35 161.28 415.74 607.50 762.92 426.38 948.86 406.74 895.69 549.84 780.44 620.81 948.39 606.53
00003562 00000088 617.81 160.95 422.96 612.55 779.63 428.00 961.89 410.52 908.35 548.24 797.30 627.91 953.53 614.09
00003563 00000089 638.49 157.78 412.88 619.11 800.22 423.99 979.50 410.46 929.39 544.25 812.51 623.40 974.92 613.97
00003564 00000090 642.52 178.25 412.65 597.88 807.52 429.25 984.25 416.26 936.60 555.89 820.38 624.23 977.38 615.59
00003565 00000091 643.90 181.09 412.97 597.77 809.74 433.87 986.31 421.99 938.96 559.64 830.41 629.56 981.39 621.28
00003566 00000092 631.99 190.97 422.65 590.26 804.17 436.09 988.01 420.36 940.30 561.93 825.04 638.91 977.68 624.59
00003567 00000093 632.46 188.55 423.15 592.47 801.84 434.87 985.10 419.79 936.16 557.96 828.46 641.83 977.29 627.38
00003568 00000094 633.33 178.96 424.43 603.03 803.56 432.90 986.29 418.48 939.59 556.13 829.20 641.99 978.12 628.10
00003569 00000095 635.22 174.29 422.89 604.78 807.09 429.39 987.16 414.60 943.39 551.86 834.28 639.58 979.98 625.50
00003570 00000096 647.67 158.71 410.87 613.11 816.52 422.46 988.68 411.16 947.38 540.77 844.14 630.56 982.76 622.38
00003571 00000097 647.99 157.83 411.02 605.14 816.17 416.31 987.68 405.25 946.06 531.85 842.58 620.87 986.17 612.59
00003572 DELETE   647.46 171.85 416.06 577.89 814.09 406.93 987.87 396.23 940.51 529.48 839.08 608.18 986.35 600.67
00003573 00000099 650.94 141.19 412.21 601.96 814.82 399.42 985.47 389.15 938.84 517.91 835.37 603.82 980.92 596.39
00003574 00000100 658.63 111.57 408.38 633.46 812.28 396.30 988.34 391.69 932.71 510.19 833.85 594.80 976.76 592.65
00003575 00000101 657.10 113.69 412.56 629.86 806.28 385.08 985.28 386.93 921.55 503.74 824.70 588.42 969.07 591.85
00003576 00000102 656.70 110.01 419.30 636.26 801.22 382.22 982.30 388.61 908.96 503.83 814.24 588.77 957.98 596.44
00003577 00000103 658.47 107.54 419.05 640.35 794.68 384.30 977.46 390.59 898.22 507.96 806.91 592.82 952.41 600.54
00003578 00000104 659.34 116.45 418.90 633.59 788.30 386.53 975.69 393.87 891.51 512.84 798.77 595.45 948.72 603.80
00003579 00000105 660.04 118.12 418.84 634.86 785.07 389.86 973.08 396.86 885.72 518.75 791.90 594.82 945.91 602.81
00003580 00000106 662.35 118.04 415.76 636.53 787.03 393.99 969.96 403.58 881.38 523.40 791.71 595.10 938.01 605.48
00003581 00000107 662.49 145.13 423.90 607.04 789.93 392.94 971.46 403.90 883.97 528.63 793.38 600.10 941.08 609.68
CROP_BBOX: 402 0 1491 1007
