Video ID: 	gCd7-4f0SfE
H: 	1080
W: 	1920
FPS: 	25.0

FRAME INDEX X0 Y0 W H [Landmarks (5 Points)]

00020453 00000000 866.84 193.87 456.88 732.33 964.29 467.74 1165.09 499.61 1027.56 609.13 949.31 738.29 1091.77 766.52
00020454 00000001 866.84 196.61 454.74 736.14 963.57 465.83 1161.50 497.57 1023.20 605.95 947.91 739.89 1086.27 768.15
00020455 00000002 864.01 193.32 452.33 728.60 951.08 462.34 1151.86 492.90 1011.78 602.91 938.45 735.35 1078.49 762.85
00020456 DELETE   849.61 185.64 470.36 724.30 937.43 458.08 1145.11 499.29 993.00 603.03 923.64 723.34 1073.87 758.87
00020457 DELETE   843.46 183.21 471.93 715.61 927.11 452.75 1137.33 493.39 979.25 597.83 912.80 713.99 1066.40 749.38
00020458 00000005 837.91 181.83 472.03 710.04 924.59 449.21 1133.82 489.51 973.59 589.58 906.74 705.81 1061.70 741.30
00020459 00000006 841.85 182.10 459.00 712.13 924.06 445.17 1127.11 476.28 978.66 582.99 911.46 709.31 1059.00 738.10
00020460 00000007 842.94 180.53 459.86 714.98 927.57 438.40 1130.28 470.71 981.17 575.76 913.42 702.80 1059.23 732.92
00020461 00000008 845.39 174.50 457.27 710.98 932.36 434.58 1132.60 466.10 987.02 566.32 918.13 695.10 1059.62 724.90
00020462 00000009 839.19 174.48 473.60 706.97 940.44 432.45 1144.68 465.07 991.71 564.83 921.04 691.00 1068.64 720.38
00020463 00000010 842.61 170.66 472.64 705.98 944.79 430.31 1149.90 460.86 999.59 563.28 926.59 688.23 1073.71 716.23
00020464 00000011 846.13 170.40 469.33 702.46 945.30 428.42 1152.58 458.82 1002.90 562.84 928.48 686.74 1077.43 714.62
00020465 00000012 846.77 171.42 467.35 693.18 943.85 426.08 1152.48 456.71 1003.21 561.23 928.51 684.66 1075.86 712.70
00020466 DELETE   849.48 168.61 457.40 688.83 937.28 425.27 1137.99 452.45 996.44 554.95 924.55 677.76 1063.96 704.01
00020467 00000014 842.02 163.59 465.80 693.82 934.07 423.28 1142.97 459.35 987.58 559.51 910.60 679.95 1062.05 709.74
00020468 00000015 836.51 161.13 469.18 702.01 923.51 425.24 1135.02 460.05 974.93 560.39 899.39 683.51 1054.95 712.83
00020469 00000016 840.53 166.27 455.04 697.77 915.56 425.11 1114.48 459.08 966.38 556.82 897.72 680.15 1035.03 712.84
00020470 00000017 836.66 168.81 451.26 692.57 913.29 424.29 1106.70 460.79 958.96 558.10 893.74 678.36 1025.73 713.07
00020471 00000018 834.11 168.46 450.50 697.50 909.59 423.99 1101.31 460.78 952.78 562.61 889.13 681.29 1018.93 716.57
00020472 00000019 832.85 168.12 452.56 706.05 909.28 423.92 1100.73 460.71 950.90 563.69 889.21 685.18 1020.39 720.32
00020473 00000020 832.44 169.30 454.05 707.32 910.53 426.49 1105.20 462.78 954.30 566.35 892.44 685.32 1034.39 719.32
00020474 00000021 827.34 171.94 459.98 707.38 910.32 431.50 1109.35 465.79 957.51 566.94 892.31 686.63 1045.86 718.10
00020475 00000022 826.31 174.44 458.95 704.28 911.99 435.23 1108.84 471.92 959.51 570.73 891.73 684.13 1051.12 717.21
00020476 00000023 825.56 181.03 461.85 694.24 912.88 436.02 1108.20 476.54 960.90 577.88 892.57 679.90 1054.87 715.75
00020477 00000024 824.60 186.28 463.27 698.53 913.17 440.28 1111.28 479.75 964.21 584.61 895.50 688.79 1060.65 723.60
00020478 00000025 826.67 185.28 460.28 708.11 909.97 447.43 1113.62 481.12 964.88 588.27 895.09 701.64 1058.28 732.11
00020479 00000026 831.39 186.18 457.62 709.42 909.45 450.46 1114.96 482.43 968.27 593.55 898.53 707.95 1062.02 737.01
00020480 00000027 831.02 185.34 460.90 704.55 916.81 452.22 1123.18 489.04 971.65 592.58 894.51 706.08 1060.74 735.84
00020481 00000028 832.92 186.62 463.09 703.00 919.75 454.39 1125.19 492.99 971.66 593.58 896.92 711.42 1057.25 742.63
00020482 00000029 834.67 183.46 464.38 708.56 921.55 455.78 1127.12 495.33 973.02 595.50 900.38 716.14 1056.77 748.10
00020483 00000030 835.38 185.82 463.64 709.22 922.60 457.76 1128.30 496.07 974.42 597.70 902.55 719.40 1056.46 750.59
00020484 00000031 841.28 186.23 452.85 709.00 915.51 456.07 1124.30 487.00 975.60 598.55 903.18 720.28 1053.02 749.22
00020485 00000032 836.16 184.70 463.12 709.66 923.31 455.03 1128.95 494.89 974.30 597.25 902.97 718.72 1054.92 751.29
00020486 00000033 842.63 187.63 451.30 706.54 918.66 450.04 1126.43 481.36 979.31 595.33 905.16 717.58 1052.93 746.96
00020487 00000034 843.00 183.92 454.16 706.32 921.70 448.48 1129.25 478.95 983.00 591.03 908.20 713.23 1055.83 742.00
00020488 00000035 844.77 181.97 453.85 706.51 922.54 444.67 1131.71 475.16 985.28 586.95 909.49 710.76 1059.03 739.47
00020489 00000036 845.58 180.13 457.00 705.88 926.74 441.29 1134.37 470.91 989.90 582.64 916.07 706.18 1066.09 733.97
00020490 00000037 845.65 174.81 459.83 700.90 934.75 440.62 1140.33 477.16 987.36 575.48 914.51 700.16 1071.29 729.32
00020491 00000038 848.19 171.67 459.65 697.75 934.28 439.17 1140.52 474.02 985.22 572.36 916.34 696.95 1074.93 724.59
00020492 00000039 849.59 165.84 461.04 696.25 935.74 438.77 1142.66 473.17 985.42 569.38 917.18 694.56 1075.81 721.87
00020493 00000040 845.20 173.50 469.11 694.60 940.86 437.05 1147.06 464.66 997.04 565.62 925.84 694.32 1077.58 719.16
00020494 00000041 845.45 170.67 470.16 693.19 941.62 433.22 1150.04 461.70 998.90 562.68 925.63 691.96 1078.61 717.53
00020495 00000042 847.84 169.35 468.20 689.20 941.44 430.19 1150.82 457.67 1001.22 560.38 926.87 690.10 1080.44 714.92
00020496 00000043 857.05 165.14 456.52 686.95 936.34 421.14 1143.58 451.10 998.13 556.21 928.62 684.06 1077.91 710.80
00020497 00000044 859.09 163.80 453.80 687.09 936.70 420.31 1143.44 451.52 998.15 557.45 928.75 683.18 1077.79 710.92
00020498 00000045 849.55 168.58 466.20 689.44 941.33 433.42 1150.69 461.41 1000.63 563.32 925.95 690.09 1080.09 715.43
00020499 00000046 852.66 168.28 464.53 691.12 934.48 433.76 1142.99 466.27 989.22 566.71 924.61 689.52 1072.14 718.52
00020500 00000047 850.22 167.80 455.66 699.98 931.55 444.10 1136.18 476.31 981.85 577.41 916.28 700.08 1075.30 725.41
00020501 00000048 846.57 177.79 463.00 699.08 928.29 446.20 1131.54 478.28 977.77 584.40 919.46 702.41 1067.00 730.45
00020502 00000049 840.78 180.02 464.37 702.91 922.52 449.75 1127.06 484.00 972.87 592.18 912.05 708.56 1061.08 738.16
00020503 00000050 841.77 185.74 450.13 704.14 910.22 454.22 1115.78 482.63 971.17 597.29 906.01 718.00 1057.18 744.31
00020504 00000051 835.43 182.21 461.67 709.46 918.42 455.20 1120.10 490.80 966.10 596.35 902.82 715.69 1056.71 744.35
00020505 00000052 840.24 185.90 452.46 713.16 913.43 454.24 1117.53 485.69 968.79 599.14 905.13 717.17 1059.22 745.98
00020506 00000053 839.05 186.11 454.19 725.08 916.83 453.69 1120.58 484.99 971.08 597.65 907.52 720.02 1063.27 748.56
00020507 00000054 840.34 185.06 458.65 741.46 921.51 454.44 1122.35 485.94 972.20 596.86 911.23 723.96 1065.25 752.53
00020508 00000055 836.19 185.65 471.59 743.94 926.11 458.17 1130.51 495.73 970.94 601.52 911.79 721.12 1073.85 753.58
00020509 00000056 840.06 191.21 457.08 735.70 922.38 457.41 1124.91 489.57 974.27 601.57 911.68 724.69 1072.93 753.42
00020510 00000057 835.94 191.04 458.14 726.43 919.24 458.50 1123.22 491.17 974.48 604.78 909.43 720.74 1071.90 749.87
00020511 00000058 836.32 192.90 452.98 713.97 914.44 459.00 1119.59 490.83 973.05 604.91 905.12 721.62 1061.20 750.60
00020512 00000059 838.33 189.66 451.19 711.85 910.12 459.71 1118.00 490.44 971.11 606.07 901.44 723.47 1056.12 751.88
00020513 00000060 837.92 188.62 451.16 707.85 908.82 458.83 1116.40 489.21 970.18 604.42 901.74 722.53 1054.39 750.65
00020514 00000061 836.81 187.50 451.42 703.71 909.42 458.70 1115.75 488.45 973.04 602.46 902.01 718.95 1055.16 746.64
00020515 00000062 835.21 188.04 454.74 703.81 909.66 456.35 1118.53 484.46 976.66 599.17 902.24 714.06 1062.87 740.38
00020516 00000063 832.65 183.07 466.41 707.89 919.55 454.19 1126.60 486.54 976.64 592.71 902.23 708.01 1069.83 733.91
00020517 00000064 839.68 180.75 460.41 712.40 920.48 454.27 1129.78 482.29 983.26 593.81 912.42 708.89 1077.75 734.51
00020518 00000065 848.21 181.80 468.74 708.32 933.94 452.46 1144.90 489.36 991.90 595.33 922.68 704.63 1085.10 736.69
00020519 00000066 852.61 179.99 470.96 713.25 943.03 452.45 1153.74 493.60 1003.82 596.12 928.60 703.82 1091.99 739.60
00020520 00000067 854.89 182.71 472.23 712.49 955.47 459.20 1163.58 493.47 1018.83 596.04 934.89 705.91 1103.87 736.42
00020521 DELETE   859.11 186.82 477.55 708.29 966.69 460.23 1179.64 494.88 1037.44 599.40 947.56 709.62 1118.76 740.77
00020522 DELETE   866.69 188.62 474.68 704.61 977.65 463.64 1194.27 495.81 1059.39 600.68 959.30 711.40 1136.07 740.59
00020523 DELETE   878.66 190.38 466.58 701.61 988.10 467.18 1198.86 500.13 1067.49 603.01 969.05 709.92 1140.80 739.69
00020524 00000071 886.90 193.93 461.54 698.13 998.92 466.29 1205.27 500.76 1076.55 603.18 981.29 710.01 1148.61 741.01
00020525 00000072 888.70 193.76 461.96 700.98 998.78 465.16 1208.93 495.55 1080.26 603.08 984.11 713.06 1152.09 740.88
00020526 00000073 889.48 191.46 461.43 704.31 998.28 462.98 1207.64 492.96 1077.94 602.56 983.87 713.07 1151.55 740.61
00020527 00000074 887.31 193.05 460.38 702.40 995.08 465.26 1202.82 498.06 1073.02 601.07 977.30 710.92 1145.91 740.67
00020528 00000075 882.97 192.88 463.89 702.25 990.24 463.90 1198.44 497.43 1065.70 599.89 971.09 709.31 1139.62 739.69
00020529 00000076 879.92 189.13 466.67 703.46 983.52 458.66 1193.90 489.24 1057.66 598.02 968.26 708.78 1136.07 736.68
00020530 00000077 878.19 186.87 467.66 702.81 979.78 450.76 1191.35 483.71 1053.17 594.37 964.27 703.85 1132.54 733.86
00020531 00000078 875.47 184.07 468.48 698.77 977.21 447.91 1187.03 480.69 1046.94 589.40 961.88 699.55 1128.34 729.43
00020532 00000079 869.09 186.12 470.17 694.40 973.22 444.79 1180.01 479.30 1040.92 586.80 955.67 694.73 1121.38 725.95
00020533 00000080 865.54 184.31 468.62 692.69 969.60 442.88 1176.72 477.29 1038.49 584.93 952.03 692.35 1116.73 723.45
00020534 00000081 861.48 181.10 466.12 695.14 965.67 441.29 1172.99 475.92 1034.84 585.78 948.56 691.03 1113.54 722.12
00020535 00000082 858.70 181.29 466.28 693.77 960.72 441.73 1168.51 475.15 1030.24 586.35 945.41 692.14 1109.69 722.08
00020536 00000083 854.51 181.49 467.56 694.22 956.75 441.61 1165.08 473.81 1026.32 586.79 943.60 693.56 1107.55 722.12
00020537 00000084 854.70 176.48 468.81 694.95 947.65 441.06 1163.59 477.93 1018.45 585.94 940.08 691.17 1102.20 723.82
00020538 00000085 854.82 177.71 468.17 693.48 944.82 441.39 1161.83 477.49 1016.31 586.85 938.27 691.74 1100.50 723.85
00020539 00000086 855.14 178.03 466.75 692.59 943.49 441.17 1159.91 476.57 1013.45 586.64 937.29 691.67 1099.68 723.21
00020540 00000087 853.35 180.39 467.53 690.63 942.33 442.44 1159.26 476.47 1013.29 587.28 937.62 693.06 1099.44 723.46
00020541 00000088 852.77 179.41 468.06 691.24 942.12 442.16 1159.20 476.23 1012.78 586.59 937.56 693.22 1099.02 723.61
00020542 00000089 853.05 177.99 467.90 693.94 942.37 442.11 1159.64 476.04 1013.18 586.84 938.44 694.23 1099.79 724.48
00020543 00000090 853.64 177.99 467.22 693.86 942.16 441.73 1159.45 475.93 1012.32 587.05 938.15 694.85 1098.83 725.33
00020544 00000091 853.77 176.07 467.64 702.06 942.86 440.65 1159.83 475.40 1011.89 585.81 938.02 697.03 1097.34 728.01
00020545 00000092 848.18 180.29 472.24 710.78 951.21 441.33 1156.98 470.73 1013.90 585.47 937.50 700.80 1094.49 727.33
00020546 00000093 850.79 176.73 464.14 727.06 950.61 440.30 1151.44 469.33 1009.57 584.68 941.40 708.67 1087.81 734.75
00020547 00000094 851.38 174.03 468.48 732.12 942.96 440.43 1153.99 477.23 1002.57 585.08 930.61 708.25 1085.27 740.92
00020548 00000095 851.77 176.84 467.27 728.80 940.19 447.73 1152.97 481.80 1002.89 593.03 931.35 715.26 1088.54 745.29
00020549 00000096 849.21 182.81 468.89 707.89 936.20 455.30 1150.98 489.90 1000.43 601.77 930.70 715.66 1089.53 745.58
00020550 00000097 846.55 185.04 467.01 700.41 931.91 458.86 1144.47 491.36 994.25 604.22 927.37 714.98 1087.54 742.76
00020551 00000098 840.63 185.90 469.40 702.23 926.90 461.92 1137.33 495.44 986.55 605.00 918.86 711.56 1082.97 740.02
00020552 00000099 835.31 189.66 467.25 702.85 923.07 463.92 1131.58 500.29 979.57 610.58 913.54 710.43 1079.97 741.07
00020553 00000100 832.89 188.39 469.27 707.77 920.68 465.04 1130.27 503.57 975.49 613.56 909.12 711.75 1077.43 744.24
00020554 00000101 832.35 187.41 469.29 717.27 919.82 467.24 1130.77 505.94 975.06 617.71 909.00 717.17 1077.99 749.87
00020555 00000102 830.58 196.54 470.88 713.43 920.69 470.64 1133.35 509.22 978.59 620.18 909.65 724.27 1074.77 756.99
00020556 00000103 829.59 197.64 471.77 720.31 921.49 474.07 1133.59 510.57 978.43 621.49 909.15 732.13 1070.70 763.22
00020557 00000104 829.31 200.03 471.40 718.10 920.98 474.75 1134.89 510.62 978.89 623.60 909.00 735.81 1069.46 766.33
00020558 00000105 830.58 197.87 470.24 717.34 922.14 473.43 1134.51 509.56 979.73 622.59 911.42 734.55 1070.16 765.15
00020559 00000106 832.81 193.29 469.89 720.37 923.09 471.49 1133.15 507.80 980.45 620.51 915.36 731.97 1071.94 762.80
00020560 00000107 834.23 189.66 467.45 717.11 922.28 466.80 1131.90 501.25 980.57 614.01 916.34 727.22 1072.84 756.39
00020561 00000108 837.46 185.60 469.10 704.24 922.01 460.74 1136.33 493.12 981.08 603.61 915.42 719.53 1074.04 747.07
00020562 00000109 838.04 176.37 469.16 707.00 922.97 452.32 1139.95 488.38 983.72 595.53 910.60 707.95 1075.30 738.80
00020563 00000110 837.89 161.82 468.79 716.95 923.41 443.54 1138.34 478.31 982.50 588.01 911.31 697.52 1076.09 727.33
00020564 00000111 827.51 165.79 470.84 702.90 916.28 439.92 1138.22 468.31 982.66 576.32 900.09 695.37 1076.04 720.18
00020565 00000112 827.98 153.59 467.98 707.65 915.56 431.05 1129.40 463.08 970.93 567.98 895.04 684.10 1065.44 709.82
00020566 00000113 823.46 157.97 459.53 693.95 900.60 424.81 1117.61 453.80 969.61 562.64 892.99 678.58 1058.56 705.28
00020567 00000114 818.18 155.93 458.88 696.03 894.55 422.12 1109.46 450.78 959.60 561.43 887.46 675.79 1051.27 702.19
00020568 00000115 807.17 149.80 464.42 701.60 886.50 423.08 1101.92 449.91 953.69 559.74 878.00 673.17 1046.10 698.15
00020569 00000116 792.41 155.77 476.54 705.71 883.88 423.36 1100.86 455.15 949.56 560.56 868.88 671.58 1049.41 699.67
00020570 00000117 788.30 158.18 475.88 719.00 880.24 426.91 1090.97 456.86 938.52 566.72 865.76 677.55 1045.20 703.81
00020571 00000118 781.96 166.93 475.15 722.87 876.19 434.73 1088.59 465.52 934.18 574.64 859.00 682.55 1045.51 709.40
00020572 DELETE   776.99 164.82 475.17 733.02 873.42 439.23 1084.87 469.49 931.25 580.81 853.97 687.26 1041.54 713.58
00020573 DELETE   774.14 164.41 476.97 727.23 870.57 439.55 1083.42 469.33 928.31 580.01 851.06 685.22 1039.32 710.95
00020574 00000121 774.22 168.31 480.68 711.06 873.65 432.48 1086.07 463.15 932.17 570.22 854.72 676.91 1036.03 703.63
00020575 00000122 778.70 168.85 481.57 697.78 879.08 423.67 1091.56 457.32 941.00 563.21 860.09 668.61 1036.44 698.18
00020576 00000123 791.04 159.15 473.67 703.94 883.64 421.28 1094.77 453.53 946.41 559.31 869.53 670.48 1035.80 699.42
00020577 00000124 797.35 157.34 468.66 709.29 887.62 423.24 1096.06 453.30 951.49 562.04 874.48 677.83 1031.70 705.74
00020578 00000125 800.90 155.96 465.01 716.43 888.51 424.86 1095.76 453.43 951.10 565.98 878.35 686.36 1026.68 713.51
00020579 00000126 798.15 154.24 466.74 718.25 887.02 417.39 1092.39 446.26 949.45 558.35 877.96 685.12 1019.38 712.49
00020580 00000127 795.78 146.78 466.07 713.41 883.95 411.04 1091.05 440.76 944.26 548.15 871.17 674.84 1015.34 702.95
00020581 00000128 800.71 132.38 457.37 721.07 878.83 408.35 1083.86 431.67 936.49 540.93 868.63 672.42 1013.32 694.91
00020582 00000129 798.74 130.76 457.07 719.54 877.11 408.36 1083.73 434.37 933.50 543.76 865.33 670.75 1014.39 695.26
00020583 00000130 798.47 134.72 458.67 716.48 878.80 415.29 1082.24 438.75 935.29 550.51 870.95 675.14 1015.80 697.44
00020584 00000131 798.35 142.69 458.87 714.41 879.88 420.43 1082.09 444.99 934.96 557.31 874.37 683.36 1013.66 706.44
00020585 00000132 792.43 144.38 465.13 718.73 881.12 415.94 1090.29 444.37 942.53 557.21 871.16 684.43 1016.42 711.21
00020586 00000133 795.31 139.23 464.49 728.59 883.14 407.41 1090.79 436.86 946.23 547.15 873.63 682.43 1012.65 710.33
00020587 00000134 800.36 139.17 467.97 730.44 887.02 399.50 1091.52 425.13 943.51 532.86 878.13 674.94 1013.74 700.12
00020588 00000135 806.90 136.00 465.14 728.08 889.13 399.34 1094.80 422.69 946.14 530.88 881.46 674.77 1017.72 698.29
00020589 00000136 817.31 125.02 456.21 723.27 893.15 399.49 1093.16 419.44 947.45 529.13 887.16 668.21 1022.38 688.13
00020590 00000137 816.50 123.54 457.97 714.14 891.84 399.81 1097.94 419.90 950.94 530.06 885.63 662.42 1034.40 682.16
00020591 00000138 814.08 126.28 459.64 707.80 892.54 400.26 1096.78 422.65 949.33 530.11 883.23 658.39 1035.58 679.84
00020592 00000139 812.69 125.17 460.78 713.62 893.26 403.84 1098.65 428.61 949.52 532.93 880.48 658.33 1037.72 681.75
00020593 00000140 815.06 124.83 460.32 716.49 896.13 401.42 1101.99 426.83 953.17 533.36 883.32 659.03 1041.41 682.91
00020594 00000141 818.02 120.47 459.77 715.79 898.16 398.04 1105.40 421.96 956.01 529.23 886.26 655.63 1045.72 678.23
00020595 00000142 821.53 123.32 460.04 705.78 901.31 392.78 1108.06 416.04 961.00 524.01 891.50 649.49 1049.09 671.58
00020596 00000143 822.66 117.92 461.51 699.46 905.64 385.44 1112.34 407.89 972.66 516.42 896.10 640.27 1057.23 661.36
00020597 00000144 827.45 107.02 459.70 696.74 908.02 380.55 1117.14 401.57 972.77 500.51 894.39 628.11 1060.64 648.01
00020598 00000145 832.40 107.94 457.00 694.50 909.36 375.13 1120.37 398.57 976.85 495.31 892.32 621.28 1059.44 643.48
00020599 00000146 833.50 109.98 457.24 701.54 914.10 376.74 1116.24 402.29 975.67 502.99 898.26 624.76 1051.69 649.12
00020600 00000147 836.11 115.37 454.37 707.20 910.07 382.09 1112.18 407.77 973.54 516.90 899.43 640.43 1047.80 664.93
00020601 00000148 837.73 118.51 452.95 711.22 907.96 388.30 1111.65 413.83 967.61 526.73 900.51 651.79 1047.59 675.96
00020602 00000149 836.22 123.15 452.52 711.23 908.59 393.38 1113.44 421.51 968.19 536.37 901.07 658.07 1044.54 684.38
00020603 00000150 839.41 128.77 448.16 715.94 910.10 401.62 1112.11 430.88 966.76 548.42 905.18 672.15 1041.88 699.33
00020604 00000151 834.90 137.96 451.93 716.37 910.32 414.78 1113.43 444.95 971.77 557.97 904.09 679.88 1041.54 708.94
00020605 00000152 835.61 142.84 452.68 713.80 908.06 422.28 1112.30 453.46 966.67 567.56 903.06 684.14 1045.18 713.62
00020606 00000153 829.42 150.55 454.23 718.26 905.31 432.54 1109.74 461.76 965.85 581.06 902.70 691.15 1051.50 718.89
00020607 00000154 827.66 156.54 454.61 718.56 903.81 435.38 1110.56 465.23 965.18 585.98 899.57 693.80 1052.99 721.95
00020608 00000155 826.33 158.24 456.07 723.39 904.72 434.63 1109.80 462.91 965.77 583.88 901.58 693.49 1055.00 720.25
00020609 00000156 826.07 152.78 458.69 723.66 908.21 423.44 1110.77 455.68 963.56 572.23 901.20 682.69 1053.62 712.56
00020610 00000157 824.73 143.87 461.72 724.35 908.29 417.78 1113.59 451.55 964.99 565.49 899.58 675.83 1059.01 706.45
00020611 00000158 825.19 142.22 461.14 721.76 910.54 414.55 1114.80 449.67 967.34 560.52 900.06 669.51 1061.67 700.97
00020612 00000159 825.52 142.37 460.27 718.40 911.97 411.89 1115.93 447.68 968.70 557.98 900.51 665.51 1062.22 697.49
00020613 00000160 827.06 142.12 458.89 715.43 912.81 411.19 1115.97 446.76 969.01 557.61 902.21 664.10 1062.81 695.80
00020614 00000161 829.03 136.77 458.89 714.56 912.63 409.29 1117.10 444.72 970.49 557.19 903.27 662.37 1064.33 693.86
00020615 00000162 833.24 130.54 455.12 714.72 911.01 404.69 1118.31 433.70 972.07 550.82 903.94 662.69 1064.65 689.08
00020616 00000163 832.30 116.65 465.39 735.40 915.61 399.94 1129.37 435.00 969.03 544.35 904.38 654.93 1073.18 685.28
00020617 00000164 831.32 126.49 463.37 716.64 923.27 401.30 1130.46 434.10 978.60 542.56 904.57 655.64 1074.57 681.97
00020618 00000165 840.54 117.94 462.12 725.04 922.62 397.09 1136.05 434.08 976.69 541.31 908.99 653.48 1071.07 685.34
00020619 00000166 840.30 118.99 462.35 732.16 925.98 405.28 1135.77 441.61 977.12 547.87 909.67 666.52 1063.21 697.90
00020620 00000167 840.57 145.24 454.58 713.15 916.98 420.65 1118.93 453.30 975.89 563.77 909.86 680.75 1042.38 712.24
