Video ID: 	haeb50MFuso
H: 	1080
W: 	1920
FPS: 	23.976023976023978

FRAME INDEX X0 Y0 W H [Landmarks (5 Points)]

00008138 00000000 564.57 214.80 399.95 599.52 642.28 458.52 813.94 454.73 712.70 566.76 674.02 662.62 820.35 658.30
00008139 00000001 561.69 216.27 398.67 600.62 636.81 457.34 808.11 454.82 704.60 568.88 670.18 664.33 816.22 660.90
00008140 00000002 560.87 214.49 395.83 607.12 632.82 458.12 804.22 457.25 696.23 572.25 663.22 668.27 810.90 666.02
00008141 00000003 559.94 216.49 393.56 608.25 631.52 462.48 802.88 464.02 691.89 574.13 657.35 669.73 807.39 669.18
00008142 00000004 556.69 220.84 395.70 604.13 631.89 464.88 801.75 469.08 693.50 577.78 655.41 671.97 801.09 673.95
00008143 00000005 553.46 227.25 397.87 592.32 629.93 470.56 803.66 476.44 695.42 584.51 651.65 673.16 796.79 677.07
00008144 00000006 552.56 230.59 402.35 585.83 632.32 474.18 812.58 481.71 704.29 591.95 651.34 674.09 802.20 679.57
00008145 00000007 553.81 232.03 408.03 583.95 640.79 470.96 825.53 478.60 720.09 593.92 657.54 671.30 811.80 677.26
00008146 DELETE   560.72 231.84 411.27 584.18 658.38 467.44 837.71 468.12 744.75 587.54 685.33 674.59 826.63 674.46
00008147 DELETE   570.03 219.77 413.12 594.52 676.54 464.23 860.82 462.16 773.18 583.83 707.07 674.61 854.13 671.22
00008148 DELETE   577.74 209.72 412.45 601.85 693.04 463.28 878.39 456.71 800.09 577.53 722.61 669.65 876.85 663.18
00008149 00000011 590.75 203.58 403.25 599.26 708.97 459.78 895.06 450.37 820.10 571.01 736.20 663.51 892.62 655.73
00008150 00000012 596.86 203.36 401.65 592.82 719.61 454.38 904.63 442.87 835.54 563.38 748.76 659.43 901.83 650.15
00008151 00000013 601.17 201.55 399.83 590.49 725.97 449.58 911.53 434.81 847.56 557.87 757.64 656.54 911.36 644.58
00008152 00000014 604.93 189.64 399.24 602.83 732.91 448.17 918.19 433.56 850.81 556.38 766.77 647.86 919.95 636.85
00008153 00000015 605.94 187.42 397.90 601.77 737.08 446.08 921.64 428.76 858.79 554.92 774.72 649.23 925.39 635.70
00008154 00000016 610.03 187.66 394.35 595.74 743.05 444.01 925.30 427.35 864.68 553.29 780.31 647.03 926.66 634.15
00008155 00000017 613.69 186.54 392.69 594.42 748.06 443.69 927.98 427.79 869.17 549.95 785.03 644.83 928.62 632.41
00008156 00000018 613.40 185.81 394.17 594.25 749.92 442.90 929.03 427.87 870.89 547.88 785.42 644.27 927.58 632.73
00008157 00000019 612.39 188.60 394.64 593.86 750.90 444.33 931.35 429.48 873.67 549.98 784.11 644.59 929.53 633.23
00008158 00000020 613.73 187.98 395.17 598.24 752.48 444.93 932.99 430.99 875.56 551.04 783.64 645.75 930.64 634.99
00008159 00000021 617.71 191.88 393.21 605.21 758.08 438.96 932.98 425.46 882.01 545.96 787.96 652.98 923.70 641.65
00008160 00000022 618.93 188.89 394.47 609.05 760.09 438.43 934.67 424.35 884.49 544.64 792.28 652.23 926.05 640.42
00008161 00000023 619.34 187.63 397.25 609.69 765.47 437.51 936.69 424.27 887.94 544.78 795.46 650.52 926.89 638.92
00008162 00000024 616.14 180.03 398.38 608.30 765.08 442.99 942.27 429.80 888.08 552.19 792.49 647.74 935.93 637.28
00008163 00000025 616.52 181.14 398.42 603.46 765.74 443.86 944.72 431.14 889.48 553.32 794.42 648.80 937.38 638.72
00008164 00000026 616.64 182.41 398.06 601.95 766.22 444.70 945.40 432.17 889.92 554.35 794.59 649.54 937.52 639.65
00008165 00000027 617.99 181.48 397.59 605.63 767.91 445.09 945.90 433.61 889.97 555.31 797.09 652.31 936.57 643.40
00008166 00000028 617.22 184.78 399.27 603.89 770.77 446.90 948.34 436.75 891.92 558.99 799.09 654.87 936.20 647.05
00008167 00000029 622.07 191.08 395.97 605.14 773.67 442.30 945.86 431.48 897.70 554.53 805.76 657.80 930.69 648.68
00008168 00000030 625.05 190.68 394.56 604.54 779.55 443.68 950.56 437.28 902.80 554.37 809.73 656.65 934.25 651.00
00008169 00000031 629.44 201.30 394.67 595.80 790.28 445.66 960.32 443.77 912.49 557.30 814.00 659.87 936.14 657.85
00008170 00000032 633.03 205.62 396.99 590.92 791.30 448.78 968.15 450.43 916.09 561.60 813.76 662.45 943.36 663.18
00008171 00000033 633.01 209.26 397.91 588.41 790.53 450.88 968.82 452.91 915.59 564.44 811.80 663.72 943.98 664.80
00008172 00000034 629.88 209.92 398.39 590.95 786.89 451.57 964.74 453.43 910.64 565.09 806.59 662.69 940.03 663.86
00008173 00000035 626.77 208.91 399.37 588.80 782.09 450.88 959.47 451.15 904.76 566.22 804.15 662.52 936.32 662.34
00008174 00000036 624.81 213.89 400.38 582.82 780.12 453.40 958.28 453.35 903.66 568.35 803.27 664.23 935.14 663.90
00008175 00000037 624.95 215.21 402.34 592.39 785.31 454.63 960.96 457.04 906.62 574.09 804.17 668.99 933.04 670.74
00008176 00000038 629.16 220.39 401.17 594.84 789.62 465.03 961.29 465.31 910.88 579.89 811.83 678.08 937.30 678.31
00008177 00000039 635.57 226.71 396.56 588.13 794.98 477.48 966.11 475.69 914.31 590.19 815.35 685.93 943.36 685.04
00008178 00000040 636.33 230.70 397.99 583.13 796.65 483.90 968.70 482.24 914.41 593.98 815.44 688.55 943.44 687.57
00008179 00000041 635.58 230.99 400.01 585.12 794.36 485.18 969.07 484.97 912.94 596.29 811.74 690.56 942.96 690.83
00008180 00000042 638.02 229.07 403.12 588.39 796.72 484.69 971.62 486.25 914.23 598.42 811.89 690.44 944.15 692.03
00008181 00000043 642.89 227.65 404.35 587.70 804.29 486.58 979.62 488.40 921.30 600.66 817.40 689.52 952.79 690.99
00008182 00000044 645.95 228.46 409.20 588.93 812.41 487.35 987.58 491.81 929.92 602.39 822.91 691.04 957.89 694.53
00008183 00000045 648.55 230.40 408.63 591.67 817.95 488.45 989.58 494.86 934.56 601.03 824.81 690.20 959.19 695.18
00008184 00000046 647.47 231.28 409.73 589.81 815.49 489.74 988.01 497.12 931.35 601.82 819.55 686.98 958.81 693.08
00008185 00000047 645.73 234.57 409.47 584.90 812.83 489.45 982.77 497.74 924.19 601.54 817.45 686.92 952.20 693.75
00008186 00000048 642.96 234.59 411.26 584.18 810.12 489.99 981.84 497.84 922.71 601.71 815.25 687.35 951.27 693.88
00008187 00000049 647.11 234.94 408.92 583.81 814.46 490.26 985.62 498.76 927.36 603.95 817.46 685.46 955.90 692.66
00008188 00000050 649.61 238.31 408.90 582.39 820.60 486.96 994.81 495.09 938.33 605.03 816.86 680.77 964.16 688.41
00008189 00000051 649.94 236.63 408.65 586.88 824.98 484.28 995.57 492.12 942.22 604.06 816.00 676.99 964.52 684.82
00008190 00000052 647.05 231.71 411.31 594.93 820.58 482.44 990.18 490.33 937.48 601.69 813.31 679.83 958.36 687.59
00008191 00000053 643.54 226.79 411.89 604.98 818.88 479.77 983.61 488.73 933.27 597.90 813.40 683.06 950.66 691.09
00008192 00000054 645.33 220.84 410.46 606.89 820.03 475.60 985.07 485.22 933.89 593.91 819.93 684.92 950.45 693.11
00008193 00000055 647.44 222.96 408.33 601.56 821.64 473.86 988.07 484.70 936.73 588.36 823.55 683.47 952.85 692.67
00008194 00000056 648.42 221.95 408.65 601.43 823.15 472.23 992.38 484.03 939.84 586.82 823.21 680.50 957.21 690.51
00008195 00000057 649.34 223.97 408.53 595.75 824.15 471.88 995.50 485.75 941.85 586.68 819.68 673.99 960.79 686.12
00008196 00000058 649.99 225.82 408.36 592.39 824.34 473.82 995.35 487.68 941.51 588.64 818.70 671.96 962.32 684.21
00008197 00000059 648.75 228.29 408.85 590.41 824.73 474.52 995.10 488.39 941.32 590.00 817.89 671.47 961.65 683.83
00008198 00000060 650.38 228.11 407.96 588.62 825.36 475.58 996.06 488.32 942.37 590.77 821.72 673.95 962.86 685.29
00008199 00000061 651.21 228.85 409.26 589.93 829.59 474.72 999.49 486.47 947.10 590.85 826.71 675.88 965.12 686.17
00008200 00000062 653.35 225.96 408.09 595.91 835.46 473.29 1002.19 482.64 955.41 592.54 830.35 678.38 967.01 687.05
00008201 00000063 657.63 224.37 405.67 599.69 843.33 469.15 1009.91 480.23 967.01 592.55 836.51 680.72 971.34 690.93
00008202 00000064 660.99 225.90 406.59 598.09 849.32 466.51 1014.25 478.99 974.75 589.58 841.64 679.68 974.95 691.14
00008203 00000065 668.28 225.83 400.20 599.24 854.87 464.08 1013.54 480.30 970.64 589.65 842.04 674.22 967.83 688.92
00008204 00000066 670.23 221.68 399.92 604.44 858.88 464.36 1016.82 480.95 977.16 590.22 845.29 674.84 970.68 689.73
00008205 00000067 671.94 220.43 398.96 606.50 861.44 463.37 1019.49 481.04 980.70 589.01 845.60 674.42 971.13 690.22
00008206 00000068 673.25 219.71 399.16 609.34 864.38 462.76 1020.53 481.23 982.58 588.72 845.57 673.82 970.59 690.30
00008207 00000069 674.55 219.10 398.98 612.36 865.83 462.26 1021.95 481.78 983.87 589.40 844.59 673.38 971.13 690.62
00008208 00000070 674.10 220.06 399.99 614.03 867.39 461.85 1023.16 482.45 986.33 590.11 842.39 673.63 971.03 691.87
00008209 00000071 673.25 220.95 400.73 616.09 867.21 459.20 1022.50 480.70 986.91 590.08 838.67 673.42 968.34 692.53
00008210 00000072 672.43 221.16 400.42 616.96 866.14 459.10 1020.32 481.65 984.97 590.03 834.84 671.61 966.08 691.71
00008211 00000073 670.72 222.64 400.74 616.67 864.25 460.32 1018.10 482.91 982.35 590.11 830.90 670.05 964.01 690.32
00008212 00000074 669.11 224.17 402.10 612.71 862.98 459.65 1016.83 481.80 981.57 589.76 831.21 668.72 965.15 688.73
00008213 00000075 669.12 225.95 401.15 609.16 860.78 461.57 1015.36 482.63 978.06 587.51 831.28 666.61 966.28 685.48
00008214 00000076 668.24 225.52 400.95 608.85 859.53 461.82 1014.90 483.12 976.00 588.60 833.12 669.34 966.12 688.34
00008215 00000077 666.63 225.86 401.99 608.90 857.41 462.05 1012.06 481.92 972.83 588.95 835.45 671.64 965.41 689.47
00008216 00000078 663.51 225.07 405.57 606.13 856.69 466.92 1016.06 479.89 981.48 585.17 844.92 678.64 978.98 691.16
00008217 00000079 660.50 224.41 407.44 603.57 852.91 465.58 1013.60 480.56 976.45 583.18 843.94 676.83 977.22 690.48
00008218 00000080 657.62 225.91 408.29 597.09 847.16 465.67 1010.31 481.10 969.57 582.58 840.23 673.64 974.80 686.97
00008219 00000081 655.76 229.48 407.34 587.15 841.45 470.53 1006.32 485.76 960.80 585.24 835.06 671.16 971.38 684.41
00008220 00000082 655.42 231.73 406.88 581.03 837.65 472.61 1003.81 486.87 954.87 589.68 829.80 667.67 970.32 680.45
00008221 00000083 653.61 232.41 408.86 582.33 834.90 473.46 1002.70 487.89 952.17 589.32 827.55 669.07 968.37 681.96
00008222 00000084 652.07 228.17 409.61 588.06 831.50 474.28 999.93 489.99 946.85 590.21 828.58 674.82 964.70 688.03
00008223 00000085 649.82 230.72 406.75 580.39 828.42 481.57 995.39 496.80 940.27 590.72 823.79 675.02 955.97 688.10
00008224 00000086 645.38 232.03 407.39 580.68 822.57 484.32 990.04 498.48 935.13 593.97 821.09 678.69 952.32 690.86
00008225 00000087 644.88 235.08 405.18 581.83 822.48 487.58 985.70 500.12 933.67 596.58 822.74 681.40 953.13 692.08
00008226 00000088 644.01 235.08 405.37 584.14 821.80 486.20 985.35 499.00 934.91 596.84 820.72 681.69 952.70 692.79
00008227 00000089 641.98 236.36 407.12 585.89 820.29 487.54 982.95 498.98 932.83 598.92 818.67 682.42 951.24 692.31
00008228 00000090 638.97 236.69 409.06 586.43 819.01 486.35 981.38 498.04 930.79 599.23 817.91 683.02 948.52 693.06
00008229 00000091 636.97 233.24 409.29 586.21 813.85 483.97 981.43 495.64 927.39 598.61 817.80 684.72 947.08 694.53
00008230 00000092 635.00 228.93 408.22 593.99 811.94 482.77 978.07 493.71 926.83 597.92 815.91 687.59 942.40 697.02
00008231 00000093 628.87 228.13 411.20 600.81 809.36 479.76 974.13 490.62 924.04 596.87 811.28 690.04 935.47 699.43
00008232 00000094 624.31 228.74 412.99 601.42 804.68 478.57 968.48 490.27 918.56 597.82 804.08 687.88 929.69 698.07
00008233 00000095 622.50 231.25 409.45 593.58 802.55 482.41 966.38 494.60 915.58 598.51 802.89 686.48 927.78 697.11
00008234 00000096 620.17 232.60 408.97 591.35 802.67 485.87 964.60 495.01 915.62 600.06 804.33 688.75 925.96 696.99
00008235 00000097 617.33 233.45 409.04 592.14 802.23 488.00 963.56 495.52 916.22 601.95 802.22 688.67 925.01 695.57
00008236 00000098 617.15 234.20 407.82 593.38 805.93 490.34 964.72 496.58 921.35 602.24 805.38 689.97 926.49 695.72
00008237 00000099 618.16 235.88 406.41 589.72 810.28 490.04 967.44 501.01 924.60 601.21 807.76 688.13 925.98 697.91
00008238 00000100 615.69 237.39 405.07 587.41 810.69 490.88 965.55 500.15 926.17 600.81 811.78 689.85 925.36 698.31
00008239 00000101 613.12 235.34 406.07 589.27 804.34 492.51 963.12 496.53 921.43 601.64 807.25 691.55 924.94 695.70
00008240 00000102 607.88 233.53 407.26 589.13 798.15 491.06 958.11 496.64 914.18 600.71 798.95 687.70 917.66 693.28
00008241 00000103 600.74 233.92 409.54 586.13 789.50 491.07 951.86 495.08 904.31 602.22 788.26 685.17 910.95 689.80
00008242 DELETE   597.37 233.08 409.25 586.25 771.81 491.73 941.33 496.42 886.76 599.84 772.13 681.34 905.02 686.85
00008243 00000105 596.49 233.59 404.26 584.32 763.01 490.14 932.01 495.13 875.14 601.47 761.57 678.53 898.13 684.62
00008244 00000106 595.77 231.24 402.92 584.43 754.68 488.74 925.14 493.96 864.46 600.23 756.49 676.78 895.42 682.80
00008245 00000107 590.65 232.95 404.58 586.89 748.32 493.08 919.61 496.40 861.35 601.79 754.85 686.22 897.80 689.42
00008246 00000108 590.13 230.85 404.27 590.60 743.83 490.71 914.10 494.04 855.37 599.51 756.22 690.58 894.27 693.16
00008247 00000109 590.45 229.96 404.85 593.49 744.27 490.20 914.16 492.64 855.30 598.00 755.24 689.50 893.53 691.50
00008248 00000110 591.61 228.26 405.28 591.99 742.52 489.18 915.59 490.85 855.02 599.17 753.20 686.67 896.01 688.45
00008249 00000111 596.51 228.48 404.15 589.44 745.74 481.05 917.92 484.67 854.69 597.25 752.09 676.37 895.88 680.44
00008250 00000112 602.17 227.70 403.12 590.26 751.59 483.23 922.70 483.95 861.57 598.89 760.50 677.01 903.02 678.71
00008251 00000113 608.53 228.44 402.66 589.59 755.94 486.36 929.53 481.65 870.27 597.18 767.97 675.64 914.68 673.00
00008252 00000114 614.94 227.65 403.10 590.00 767.77 485.53 939.58 478.78 885.92 590.15 783.70 675.29 927.84 671.68
00008253 00000115 622.71 224.79 397.56 593.37 779.65 482.82 949.04 474.24 900.47 587.43 796.99 676.26 938.29 670.36
00008254 00000116 629.61 227.73 392.91 587.15 789.43 482.76 955.08 472.74 910.57 586.56 806.55 675.69 944.94 668.42
00008255 00000117 638.01 225.44 390.64 586.52 794.85 479.46 962.75 471.26 916.68 583.97 811.27 673.14 952.36 667.40
00008256 00000118 646.10 223.83 387.51 584.49 800.37 480.42 967.30 471.77 921.00 583.10 816.58 672.88 956.60 666.85
00008257 00000119 649.48 222.48 390.01 583.77 802.01 482.20 971.10 471.25 923.07 583.97 819.46 673.78 960.85 665.86
00008258 00000120 652.53 220.15 390.53 583.70 804.73 477.64 973.61 466.95 926.23 584.34 826.18 676.00 962.21 667.94
00008259 00000121 655.97 218.05 389.90 586.08 804.58 474.48 973.81 462.25 925.72 582.36 827.14 673.64 963.95 664.60
00008260 00000122 657.10 212.67 392.47 588.04 801.11 469.92 974.93 457.69 923.14 575.85 825.52 670.36 965.33 661.08
00008261 00000123 658.12 208.16 394.70 590.67 797.72 466.81 973.89 453.32 921.13 572.69 821.96 665.81 967.69 655.55
00008262 00000124 661.32 204.82 396.51 592.94 795.93 462.69 976.16 449.42 920.82 570.65 818.59 660.91 972.17 651.43
00008263 00000125 666.69 204.19 396.10 594.94 796.55 461.63 977.89 447.52 920.11 570.60 819.17 657.63 979.11 647.35
00008264 00000126 672.66 204.25 398.38 593.30 800.79 461.50 983.77 447.01 925.60 569.13 823.77 654.30 987.41 643.42
00008265 00000127 676.63 199.59 402.43 596.47 808.82 463.36 995.38 447.90 927.84 570.01 834.28 648.67 998.00 636.51
00008266 00000128 688.09 207.51 400.04 592.22 820.50 455.43 1001.61 444.79 940.24 565.09 847.27 655.51 999.14 646.24
00008267 00000129 694.21 205.41 403.57 593.52 829.21 453.68 1011.24 443.68 948.96 562.13 855.48 653.55 1008.94 644.85
00008268 00000130 703.97 200.55 404.43 596.73 839.34 454.39 1020.81 443.28 960.82 563.51 867.67 654.85 1020.54 645.03
00008269 00000131 711.07 201.07 402.67 595.89 848.70 456.57 1027.45 440.67 972.37 563.62 878.95 656.92 1028.10 643.20
00008270 00000132 718.46 200.02 400.13 593.69 852.09 458.42 1032.40 440.86 976.60 563.52 882.56 657.26 1032.84 642.68
00008271 00000133 720.03 199.48 399.87 596.06 849.93 459.69 1029.42 440.30 973.62 565.37 882.51 658.59 1033.49 642.75
00008272 00000134 719.89 203.52 399.45 592.32 847.64 462.07 1025.49 439.21 971.11 569.08 886.09 663.52 1032.93 644.26
00008273 00000135 722.29 202.53 396.79 588.79 847.50 462.57 1027.25 438.25 971.97 568.83 889.00 665.51 1034.32 645.03
00008274 00000136 728.49 200.28 392.82 584.14 850.61 462.08 1032.41 436.30 975.78 566.93 893.52 664.84 1038.49 643.36
00008275 00000137 733.63 195.87 391.48 586.59 857.76 463.13 1037.31 432.95 985.80 561.97 901.43 660.27 1047.63 635.11
00008276 00000138 739.01 194.73 389.19 582.17 867.12 462.70 1045.41 430.06 998.70 556.42 913.63 659.63 1056.13 632.72
00008277 00000139 745.29 199.62 386.51 574.54 875.08 462.64 1051.15 428.30 1010.07 556.50 917.18 655.88 1063.28 628.35
00008278 00000140 746.99 196.51 390.26 583.53 882.59 461.74 1060.91 433.33 1010.45 559.78 927.49 645.77 1078.64 622.57
00008279 00000141 749.29 201.95 390.81 580.12 884.48 465.63 1064.08 436.52 1012.65 563.32 926.23 646.18 1082.65 622.06
00008280 00000142 750.62 204.40 392.63 580.56 884.54 468.51 1065.64 439.85 1011.47 566.62 923.14 647.19 1083.06 623.42
00008281 00000143 751.53 207.12 392.27 579.87 883.27 469.56 1066.10 441.28 1009.75 570.25 918.90 647.20 1082.74 623.71
00008282 00000144 750.31 207.55 394.05 578.77 882.58 468.39 1065.65 441.63 1007.95 569.44 917.71 646.41 1081.35 624.25
00008283 00000145 749.05 213.20 392.73 570.10 872.86 467.40 1056.82 444.30 1001.97 570.95 905.62 653.95 1068.99 635.33
00008284 00000146 746.00 212.25 394.73 577.25 869.31 466.88 1053.49 445.82 996.90 570.79 899.50 654.56 1064.94 637.63
00008285 00000147 743.55 207.78 396.62 585.31 867.18 462.71 1052.65 444.74 992.65 569.69 894.29 654.41 1059.50 640.20
00008286 00000148 741.44 208.15 398.35 583.62 866.54 460.40 1051.15 443.84 992.00 566.84 892.62 653.49 1056.04 640.47
00008287 00000149 741.56 205.80 397.78 585.98 866.72 458.58 1051.37 443.54 990.96 565.88 891.51 653.23 1053.74 641.57
00008288 00000150 739.47 205.12 396.13 587.74 866.16 459.91 1049.66 447.19 989.72 566.78 888.58 654.85 1048.89 645.48
00008289 00000151 738.24 205.41 394.60 588.81 865.92 461.73 1049.53 450.65 989.19 569.25 886.58 656.88 1046.05 649.22
00008290 00000152 736.13 205.74 395.74 590.75 867.08 461.78 1049.36 452.66 990.14 571.99 886.89 658.99 1043.45 652.84
00008291 00000153 734.28 207.53 395.82 590.37 871.07 466.03 1049.36 459.57 993.43 574.38 887.69 659.83 1041.67 655.82
00008292 00000154 732.96 210.84 394.65 589.85 874.36 468.97 1051.68 463.91 996.96 575.34 889.49 662.88 1041.55 660.04
00008293 00000155 731.36 211.06 394.49 590.69 875.84 468.94 1051.76 464.88 998.43 575.32 890.69 665.46 1038.51 663.16
00008294 00000156 727.32 212.68 396.97 589.75 879.08 467.10 1053.17 466.78 1000.67 573.55 891.12 664.43 1036.39 664.61
00008295 00000157 726.08 213.22 396.60 587.53 881.05 465.99 1053.85 465.50 1002.70 572.94 892.36 663.70 1035.23 663.39
00008296 00000158 722.33 211.94 398.74 588.75 882.07 462.55 1053.32 463.36 1003.46 570.87 893.61 662.77 1032.95 663.30
00008297 00000159 719.82 211.16 398.92 586.72 883.28 460.83 1053.55 462.20 1005.62 567.60 893.83 660.47 1032.15 661.43
00008298 00000160 717.73 210.82 397.57 586.41 885.69 459.18 1054.41 461.50 1009.23 566.01 895.25 659.21 1030.84 660.95
00008299 00000161 716.77 210.16 396.58 587.35 887.39 458.21 1054.96 460.41 1011.79 564.90 896.08 659.14 1030.52 660.94
00008300 00000162 715.53 209.27 394.91 589.09 887.69 456.79 1053.91 459.40 1011.90 562.69 895.68 658.35 1028.71 660.51
00008301 00000163 714.81 208.42 393.40 593.86 889.37 456.62 1052.19 459.00 1013.35 562.74 895.92 659.88 1025.50 662.20
00008302 00000164 715.52 209.47 391.44 597.13 891.08 458.54 1052.54 459.37 1016.31 564.42 896.60 662.43 1025.92 663.75
00008303 00000165 715.25 209.44 390.81 597.31 891.71 458.06 1052.45 459.50 1017.01 564.07 895.91 663.04 1023.85 665.00
00008304 00000166 715.50 211.50 389.28 593.90 891.47 458.92 1052.51 459.92 1017.25 563.84 896.59 663.15 1023.75 664.79
00008305 00000167 716.48 211.84 387.10 590.58 889.96 458.68 1052.61 458.91 1016.19 564.10 899.29 665.81 1024.13 666.69
00008306 00000168 715.94 211.60 386.94 591.82 888.31 459.98 1053.17 459.27 1016.19 566.22 901.55 670.27 1025.60 670.16
00008307 00000169 714.11 212.51 389.31 591.30 884.42 462.48 1051.88 460.57 1013.22 567.88 903.14 673.87 1027.38 672.33
