Video ID: 	bm9y2jis43U
H: 	2160
W: 	3840
FPS: 	25.0

FRAME INDEX X0 Y0 W H [Landmarks (5 Points)]

00002716 00000000 1637.26 579.72 421.26 586.66 1773.23 807.94 1956.00 814.48 1871.98 945.68 1770.67 1033.10 1932.59 1038.15
00002717 00000001 1644.07 579.20 412.30 593.01 1773.63 816.29 1953.85 822.34 1866.43 955.04 1770.94 1037.96 1928.49 1043.07
00002718 00000002 1660.42 576.01 391.72 601.97 1764.97 819.56 1952.93 822.61 1863.56 952.79 1772.46 1034.23 1931.98 1037.20
00002719 00000003 1646.46 574.72 406.91 591.46 1763.01 812.58 1949.70 813.65 1859.07 944.27 1771.98 1030.33 1925.21 1031.21
00002720 00000004 1640.90 563.34 405.82 609.47 1761.99 800.77 1946.32 803.76 1855.92 939.11 1764.60 1023.69 1923.45 1026.04
00002721 00000005 1625.55 565.14 413.40 602.64 1759.76 795.40 1937.10 795.14 1859.49 926.42 1763.52 1020.65 1923.70 1020.01
00002722 00000006 1607.83 559.51 427.12 607.25 1744.76 798.75 1930.45 799.77 1852.35 933.81 1762.14 1035.55 1907.69 1033.63
00002723 00000007 1602.01 563.16 427.68 590.64 1745.46 806.64 1924.93 803.25 1854.42 929.31 1758.89 1023.14 1911.39 1018.00
00002724 00000008 1604.50 559.14 420.84 609.78 1737.37 804.70 1923.36 803.70 1851.44 928.32 1751.89 1027.46 1905.05 1026.27
00002725 00000009 1609.29 552.51 412.25 617.18 1733.48 801.71 1921.19 800.96 1846.81 925.45 1749.21 1030.76 1899.95 1030.10
00002726 DELETE   1606.09 551.89 417.85 610.56 1730.92 793.99 1920.65 794.55 1842.26 915.75 1749.70 1027.07 1896.33 1027.11
00002727 00000011 1602.92 544.78 422.70 622.22 1729.17 791.66 1915.40 790.31 1844.04 906.54 1746.82 1023.10 1902.26 1019.82
00002728 00000012 1595.03 545.63 432.25 607.51 1731.61 787.89 1921.14 786.27 1848.80 901.05 1754.33 1013.33 1911.14 1009.12
00002729 00000013 1608.29 552.54 424.60 592.75 1740.32 778.91 1924.50 779.38 1849.19 891.79 1757.21 1002.30 1910.44 1000.03
00002730 00000014 1608.86 549.56 428.91 592.55 1746.42 770.19 1927.79 770.83 1853.23 890.98 1759.62 999.60 1913.15 997.42
00002731 00000015 1606.46 541.04 429.06 596.37 1745.99 765.87 1927.86 766.05 1854.13 887.88 1757.34 994.20 1914.33 992.01
00002732 00000016 1605.69 537.00 427.98 598.79 1745.34 763.02 1925.62 763.25 1852.12 883.72 1756.39 990.78 1911.02 988.84
00002733 00000017 1603.81 535.14 427.88 597.11 1740.71 760.84 1922.06 761.17 1845.99 877.48 1752.04 984.88 1906.18 983.23
00002734 DELETE   1600.29 535.18 429.95 597.17 1732.60 758.56 1914.78 758.52 1834.04 874.53 1747.12 984.20 1897.55 982.72
00002735 DELETE   1596.03 539.55 429.86 591.36 1719.31 758.31 1903.97 759.04 1815.59 873.65 1736.69 986.98 1884.00 987.10
00002736 00000020 1592.35 536.53 429.90 592.44 1715.50 758.26 1894.83 759.97 1803.05 867.91 1735.14 981.62 1870.12 982.56
00002737 00000021 1589.50 536.36 430.99 590.02 1712.50 756.10 1889.73 758.66 1797.28 861.03 1733.47 977.35 1861.91 978.69
00002738 00000022 1591.21 535.32 430.50 589.73 1712.82 754.29 1891.46 756.59 1799.02 859.59 1733.85 976.73 1865.68 977.83
00002739 00000023 1594.03 535.09 430.29 591.70 1714.05 752.73 1895.87 755.09 1801.79 858.93 1729.89 977.63 1873.72 979.07
00002740 00000024 1598.18 540.82 429.41 590.25 1716.86 754.88 1900.08 757.59 1805.15 861.83 1729.28 979.53 1878.03 981.54
00002741 00000025 1600.80 541.67 430.15 595.81 1723.63 760.81 1904.37 763.42 1813.91 869.78 1736.20 984.20 1883.18 985.92
00002742 00000026 1605.63 541.94 427.28 602.93 1729.83 760.93 1910.35 763.45 1822.98 877.74 1734.59 986.93 1893.75 987.98
00002743 00000027 1606.11 542.76 427.77 603.79 1734.21 765.83 1910.57 765.14 1824.51 874.93 1736.75 982.56 1896.48 981.19
00002744 00000028 1605.20 541.47 426.49 600.36 1729.58 763.46 1909.85 760.82 1821.07 866.17 1734.62 978.00 1898.20 975.55
00002745 00000029 1604.23 537.99 425.80 594.75 1724.32 759.77 1907.97 756.71 1817.61 861.36 1730.35 975.96 1896.00 973.80
00002746 00000030 1602.62 534.13 430.27 596.44 1713.62 758.12 1908.56 754.56 1815.00 862.52 1727.58 974.51 1895.13 971.78
00002747 00000031 1604.68 536.43 430.12 594.41 1723.33 756.16 1908.72 754.35 1815.56 861.24 1731.24 978.18 1895.14 977.05
00002748 DELETE   1610.42 538.29 431.19 596.21 1732.20 758.55 1915.60 759.25 1823.19 871.86 1740.29 981.71 1899.05 981.72
00002749 DELETE   1618.84 541.00 430.21 604.66 1742.08 764.01 1923.52 766.00 1833.88 877.34 1748.99 988.06 1906.55 988.66
00002750 DELETE   1629.37 544.62 426.55 605.66 1748.88 767.51 1930.83 773.09 1839.25 884.53 1754.32 993.92 1909.87 997.66
00002751 00000035 1630.55 553.82 429.22 602.55 1750.25 773.93 1941.20 779.10 1844.70 891.65 1757.73 998.13 1915.44 1001.35
00002752 00000036 1633.24 557.19 431.27 597.84 1756.66 776.16 1947.32 783.03 1851.55 892.95 1764.38 1002.35 1917.51 1006.72
00002753 00000037 1635.93 559.39 432.68 595.51 1762.66 776.53 1950.98 783.51 1856.86 893.01 1769.41 1002.77 1920.41 1007.26
00002754 00000038 1639.60 561.54 431.48 590.90 1767.28 776.04 1953.25 782.59 1860.55 890.43 1773.93 999.96 1924.73 1004.08
00002755 00000039 1642.42 561.06 429.42 591.69 1770.56 774.66 1956.16 781.32 1864.82 888.70 1775.34 998.19 1929.37 1002.53
00002756 00000040 1644.67 560.76 427.78 591.05 1772.52 773.63 1959.37 779.34 1868.77 886.63 1776.62 997.44 1933.69 1001.01
00002757 00000041 1646.88 558.39 428.26 588.04 1776.01 771.69 1963.45 777.33 1873.36 886.35 1780.31 997.58 1938.25 1001.03
00002758 00000042 1647.96 559.15 429.59 584.31 1779.80 771.81 1967.15 779.28 1877.49 886.64 1784.03 995.32 1940.82 1000.31
00002759 00000043 1650.86 559.02 428.19 584.81 1782.15 772.65 1968.09 779.91 1878.60 887.19 1785.68 994.09 1941.75 999.18
00002760 00000044 1651.53 561.85 427.24 581.74 1783.05 773.61 1968.68 782.45 1879.66 887.31 1785.22 994.32 1940.83 1000.72
00002761 00000045 1650.83 564.11 426.89 579.09 1782.71 774.36 1968.31 783.80 1879.74 888.16 1784.17 995.88 1938.62 1002.75
00002762 00000046 1649.26 565.87 427.52 578.16 1782.31 773.83 1967.15 783.12 1878.66 888.23 1783.96 995.44 1937.61 1002.09
00002763 00000047 1646.06 564.29 429.21 579.07 1780.84 772.93 1965.90 782.29 1877.13 885.18 1782.59 993.30 1936.61 999.97
00002764 00000048 1642.52 559.69 429.83 581.80 1777.60 771.82 1963.16 778.32 1874.89 885.15 1780.43 993.49 1936.81 997.75
00002765 00000049 1638.51 565.06 430.63 578.08 1777.81 778.45 1961.94 786.07 1873.81 883.90 1777.36 992.86 1933.60 998.40
00002766 00000050 1635.15 566.43 430.35 579.74 1773.93 781.26 1960.44 789.01 1871.21 886.57 1775.76 995.47 1930.30 1000.92
00002767 00000051 1632.95 564.29 430.62 587.16 1768.51 780.40 1956.78 785.97 1867.61 887.40 1771.70 997.61 1928.00 1001.34
00002768 00000052 1629.91 559.71 432.08 587.49 1761.00 776.41 1945.52 781.20 1858.58 886.60 1768.82 995.77 1924.36 999.04
00002769 00000053 1627.48 551.95 431.89 598.32 1756.53 773.92 1940.76 778.11 1853.27 885.25 1764.98 996.18 1920.51 998.78
00002770 00000054 1626.69 550.85 430.13 598.27 1755.13 773.79 1936.81 776.68 1850.52 887.56 1763.56 995.86 1918.15 997.37
00002771 00000055 1624.55 551.64 428.07 599.01 1752.40 773.72 1934.80 777.23 1848.86 885.78 1759.88 996.23 1916.25 998.08
00002772 00000056 1624.50 550.69 426.07 599.36 1751.29 773.39 1932.90 776.94 1847.03 887.59 1758.65 996.82 1914.61 998.58
00002773 00000057 1624.00 549.72 425.45 601.62 1750.50 771.98 1931.60 774.92 1846.47 886.80 1757.07 997.37 1914.76 998.68
00002774 00000058 1620.25 556.14 428.60 594.27 1749.39 780.30 1932.65 782.47 1845.98 885.34 1758.79 997.84 1915.44 998.93
00002775 00000059 1620.70 555.94 429.01 592.70 1749.54 780.97 1932.84 783.07 1846.21 885.47 1759.10 997.00 1915.98 998.08
00002776 00000060 1621.47 554.59 429.69 594.62 1749.72 778.25 1932.66 779.00 1845.77 885.14 1759.79 995.61 1916.44 995.63
00002777 00000061 1623.07 550.61 428.89 597.64 1750.58 773.11 1933.52 774.61 1846.99 885.75 1760.39 994.84 1915.62 995.15
00002778 00000062 1624.44 547.79 428.65 599.61 1751.22 772.01 1933.08 772.75 1847.52 886.23 1760.50 994.57 1916.32 994.31
00002779 00000063 1625.66 547.12 426.66 600.31 1751.36 771.23 1932.77 771.67 1847.49 886.52 1760.26 995.01 1916.06 994.51
00002780 00000064 1625.62 546.50 426.30 600.40 1751.43 770.49 1932.72 771.13 1848.15 886.94 1760.13 995.05 1915.90 994.63
00002781 00000065 1625.36 545.24 426.34 600.80 1751.85 769.32 1932.77 770.64 1848.50 887.12 1760.23 994.56 1915.50 994.62
00002782 00000066 1624.46 545.30 426.15 600.97 1751.11 768.58 1931.72 769.82 1847.85 886.74 1758.18 994.03 1915.18 994.06
00002783 00000067 1622.17 544.14 426.95 601.22 1749.68 768.83 1930.71 769.18 1847.05 885.32 1756.90 993.57 1916.32 992.91
00002784 00000068 1621.04 543.89 427.05 600.91 1748.99 768.50 1929.67 768.74 1846.30 884.05 1756.55 993.46 1915.76 992.65
00002785 00000069 1621.66 542.04 425.12 601.40 1749.13 767.24 1928.45 767.85 1845.37 885.01 1754.95 992.20 1914.94 991.78
00002786 00000070 1620.42 541.73 425.71 601.89 1747.79 766.71 1927.28 767.23 1844.10 884.52 1753.08 991.54 1914.41 991.06
00002787 00000071 1617.64 541.38 427.19 602.60 1746.35 767.61 1925.98 767.35 1843.28 883.05 1753.21 991.21 1913.24 989.94
00002788 00000072 1615.78 540.39 428.53 604.29 1745.79 767.13 1925.54 767.12 1843.29 882.78 1752.10 991.72 1912.77 990.62
00002789 00000073 1615.70 539.63 427.48 606.58 1745.50 767.08 1924.95 767.12 1843.10 882.64 1750.62 992.16 1912.39 991.17
00002790 00000074 1614.89 542.10 427.53 604.60 1744.16 767.65 1924.59 767.40 1842.40 883.38 1749.01 994.05 1912.60 992.82
00002791 00000075 1615.59 543.45 427.18 605.73 1744.37 767.54 1924.85 767.89 1842.34 884.26 1749.73 996.01 1911.97 995.06
00002792 00000076 1615.61 542.48 427.94 613.49 1744.61 767.58 1924.84 767.24 1843.27 883.34 1750.11 997.36 1912.78 995.93
00002793 00000077 1615.36 541.87 427.54 613.04 1744.59 767.56 1924.67 766.98 1843.70 882.23 1750.28 996.64 1912.77 994.99
00002794 00000078 1615.85 542.91 425.68 603.81 1744.23 768.39 1924.16 767.94 1841.94 881.07 1750.08 992.66 1912.24 991.19
00002795 00000079 1616.37 542.99 424.72 598.61 1742.82 767.34 1923.90 767.48 1840.64 882.29 1747.14 991.05 1913.28 990.37
00002796 00000080 1616.09 542.94 424.25 597.76 1742.70 766.24 1923.45 765.82 1840.24 882.47 1745.91 987.19 1914.02 986.24
00002797 00000081 1616.37 543.49 423.13 596.51 1743.04 765.48 1923.01 765.38 1840.61 882.60 1744.11 986.53 1914.55 985.95
00002798 00000082 1615.46 543.17 422.79 596.54 1741.74 765.26 1922.78 764.92 1839.85 879.89 1742.46 984.82 1913.93 984.22
00002799 00000083 1612.92 538.38 427.93 608.40 1743.71 763.71 1923.15 763.65 1842.45 878.61 1747.70 983.70 1912.38 982.91
00002800 00000084 1615.91 533.59 431.94 620.18 1749.33 762.56 1930.15 760.69 1851.44 876.50 1757.71 989.41 1920.01 986.83
00002801 00000085 1620.86 536.68 430.48 616.58 1756.65 761.80 1938.82 761.31 1860.73 878.19 1761.49 991.11 1930.16 990.26
00002802 00000086 1621.62 539.89 432.29 609.43 1760.33 762.56 1943.88 762.51 1866.26 879.83 1766.19 992.01 1935.32 991.19
00002803 00000087 1621.77 540.21 433.12 608.12 1761.43 763.41 1945.52 763.28 1867.94 881.73 1768.54 992.03 1935.07 991.11
00002804 00000088 1621.72 541.62 435.61 607.37 1763.19 764.90 1947.78 765.47 1869.74 881.10 1771.32 991.69 1935.71 991.29
00002805 00000089 1623.39 545.48 434.06 597.47 1765.50 766.65 1951.04 766.57 1873.80 881.59 1774.27 991.17 1940.55 990.17
00002806 00000090 1625.03 548.53 433.13 593.70 1768.95 766.73 1954.10 767.09 1877.58 883.37 1778.03 991.87 1943.26 991.02
00002807 00000091 1625.28 551.84 432.84 591.64 1772.05 768.96 1956.57 768.80 1881.42 885.12 1782.98 993.46 1945.43 991.88
00002808 00000092 1625.75 552.27 432.23 592.20 1772.85 771.49 1957.18 770.52 1881.64 887.43 1784.16 995.34 1945.71 993.14
00002809 00000093 1624.76 548.15 431.48 595.66 1763.83 772.48 1948.30 771.94 1869.79 887.18 1772.87 994.56 1937.82 993.20
00002810 DELETE   1620.14 553.73 426.12 590.86 1746.40 773.81 1928.23 774.89 1842.64 886.89 1752.55 991.16 1916.99 991.26
00002811 DELETE   1603.31 554.03 426.19 584.99 1713.56 770.17 1906.71 771.15 1805.03 881.02 1722.84 981.40 1889.85 982.65
00002812 DELETE   1593.57 547.13 427.70 586.24 1697.85 765.36 1889.99 763.92 1783.19 873.59 1709.52 977.41 1875.61 976.89
00002813 00000097 1587.73 542.38 429.31 588.56 1690.96 764.77 1884.44 760.78 1779.16 870.04 1706.19 977.65 1872.48 974.97
00002814 00000098 1584.09 541.89 429.01 587.93 1688.06 765.50 1882.45 758.06 1780.07 868.71 1707.81 978.16 1874.57 972.66
00002815 00000099 1582.02 546.38 425.61 582.44 1686.06 764.72 1872.05 753.68 1776.20 867.25 1704.62 980.45 1869.50 972.55
00002816 00000100 1576.99 541.91 424.68 584.97 1678.56 768.69 1861.54 758.02 1763.87 870.50 1697.65 980.56 1858.03 972.80
00002817 00000101 1573.10 543.38 424.99 582.82 1672.75 773.25 1857.03 763.39 1755.10 872.64 1693.83 982.66 1847.73 975.53
00002818 00000102 1572.25 547.22 426.23 584.06 1673.64 773.69 1857.86 764.72 1756.31 873.60 1692.39 984.07 1847.19 977.89
00002819 00000103 1572.29 545.42 431.44 595.18 1683.90 774.81 1870.40 766.94 1772.09 879.34 1704.00 993.05 1857.36 986.67
00002820 DELETE   1579.86 551.24 434.81 605.53 1693.91 777.58 1882.30 770.08 1785.33 884.78 1715.33 1003.53 1873.54 996.96
00002821 DELETE   1589.00 552.53 434.71 611.32 1704.86 780.11 1894.55 773.00 1797.85 886.96 1723.84 1007.86 1884.22 1001.81
00002822 00000106 1596.95 554.87 429.19 611.02 1710.56 783.09 1898.23 775.69 1803.88 889.99 1726.29 1008.99 1890.48 1002.87
00002823 00000107 1595.28 555.89 430.53 609.60 1707.50 785.31 1896.79 777.58 1800.28 890.08 1724.61 1008.09 1887.65 1001.74
00002824 00000108 1593.61 558.63 431.28 601.97 1708.74 784.87 1895.87 780.47 1798.46 890.41 1722.92 1004.01 1884.56 1000.54
00002825 00000109 1594.25 556.64 429.23 599.12 1709.76 785.99 1896.58 782.99 1799.25 888.84 1722.35 1001.60 1883.86 999.21
00002826 00000110 1598.78 556.00 423.99 594.76 1713.10 781.57 1897.97 777.78 1802.58 888.44 1723.88 997.59 1886.63 994.61
00002827 00000111 1601.10 555.79 422.57 591.83 1715.64 777.06 1901.45 772.25 1808.88 885.40 1726.70 995.15 1891.69 990.94
00002828 00000112 1600.31 553.23 426.55 592.38 1718.69 773.00 1904.41 768.84 1813.98 881.87 1728.86 991.52 1895.74 987.72
00002829 00000113 1601.67 552.35 425.63 589.24 1719.84 770.50 1905.10 766.42 1815.53 881.52 1729.38 990.37 1896.84 986.84
00002830 00000114 1604.03 550.02 425.74 593.26 1723.81 769.34 1907.66 765.90 1818.76 879.77 1732.34 988.55 1898.03 985.39
00002831 00000115 1605.54 547.29 425.32 594.27 1726.59 767.10 1909.74 764.00 1822.44 879.54 1731.74 987.32 1901.17 984.40
00002832 00000116 1607.20 547.06 427.18 593.74 1730.61 766.00 1913.17 764.29 1826.11 880.56 1736.81 987.21 1901.62 985.19
00002833 00000117 1607.78 545.86 427.64 597.24 1731.84 765.39 1914.03 763.80 1827.67 880.41 1737.55 986.76 1902.72 984.59
00002834 00000118 1609.00 544.91 426.51 598.09 1733.26 765.15 1914.89 763.24 1829.61 881.12 1738.26 987.92 1904.92 985.47
00002835 00000119 1611.03 545.13 426.40 595.53 1735.71 765.54 1916.44 763.36 1831.87 880.58 1743.90 987.70 1905.75 984.82
00002836 00000120 1613.06 546.90 425.37 594.96 1738.58 768.68 1917.84 765.59 1833.02 877.19 1751.28 987.39 1905.40 983.36
00002837 00000121 1612.72 549.77 427.38 592.88 1740.55 774.36 1918.70 772.67 1834.22 876.33 1756.56 989.09 1904.22 985.98
00002838 00000122 1613.66 548.64 427.69 591.30 1741.59 771.90 1919.50 770.75 1835.14 877.62 1758.44 988.93 1903.50 986.21
00002839 00000123 1613.55 548.18 428.69 592.39 1742.20 770.21 1921.29 768.82 1837.59 878.72 1760.10 991.01 1903.95 987.97
00002840 00000124 1615.73 546.39 427.00 591.79 1743.89 766.50 1923.10 767.32 1840.00 880.18 1760.33 991.04 1904.57 989.57
00002841 00000125 1614.94 542.12 428.76 596.48 1744.74 765.50 1922.95 766.18 1841.18 877.53 1762.22 990.11 1904.08 988.43
00002842 00000126 1614.68 540.83 430.56 598.37 1744.92 765.46 1923.39 766.02 1841.60 877.35 1763.77 991.36 1904.41 989.53
00002843 00000127 1615.09 540.73 430.34 598.35 1744.94 765.17 1923.24 765.47 1841.33 877.27 1762.82 990.66 1905.78 988.68
00002844 00000128 1614.75 542.54 429.91 591.65 1743.41 765.03 1922.35 765.33 1839.74 877.77 1761.12 989.10 1904.70 987.31
00002845 00000129 1614.01 543.04 429.56 593.55 1741.03 765.63 1920.38 765.50 1836.36 876.58 1756.97 989.56 1903.46 987.68
00002846 00000130 1614.94 543.36 428.08 594.49 1741.14 765.58 1920.40 765.87 1836.73 879.17 1756.34 991.78 1903.77 990.18
00002847 00000131 1614.96 542.89 425.98 598.62 1739.60 765.76 1920.09 765.99 1835.62 880.71 1750.59 994.69 1904.76 993.28
00002848 00000132 1614.30 543.93 426.43 596.09 1738.45 765.30 1920.24 765.80 1834.52 880.67 1751.07 994.03 1903.32 992.88
00002849 00000133 1613.93 544.00 427.00 596.23 1737.35 765.48 1919.52 765.96 1833.21 879.44 1751.40 994.85 1901.15 993.61
00002850 00000134 1613.60 543.88 428.42 599.70 1738.28 766.90 1918.47 765.50 1834.37 879.78 1755.99 997.08 1901.60 994.02
00002851 00000135 1613.14 544.85 427.56 602.02 1735.63 767.47 1921.69 766.08 1835.85 884.65 1756.12 998.75 1902.87 996.33
00002852 00000136 1612.58 545.68 428.02 599.67 1735.94 768.03 1922.74 766.58 1837.70 884.01 1756.81 998.88 1905.06 996.40
00002853 00000137 1613.84 544.05 427.49 599.41 1739.47 766.88 1918.97 766.23 1835.55 880.05 1754.81 995.96 1902.06 993.40
00002854 00000138 1614.47 543.11 426.89 599.42 1740.09 766.88 1919.74 766.46 1836.80 880.68 1755.31 995.96 1903.06 993.59
00002855 00000139 1615.13 542.70 426.19 600.62 1740.08 766.67 1920.14 765.73 1836.28 880.25 1753.67 994.96 1905.10 992.30
00002856 00000140 1615.98 541.90 424.70 601.28 1740.65 766.51 1920.88 765.08 1837.71 880.72 1751.43 994.69 1907.42 991.74
00002857 00000141 1614.02 546.86 425.04 598.18 1739.68 773.72 1920.42 771.28 1837.22 880.48 1747.91 994.74 1909.93 991.74
00002858 00000142 1614.83 548.13 424.38 597.20 1739.38 774.80 1920.96 772.63 1835.96 881.08 1749.61 995.09 1909.24 992.19
00002859 00000143 1614.33 547.43 427.04 595.86 1740.45 772.84 1922.32 770.79 1837.80 879.76 1755.72 993.87 1909.57 990.44
00002860 00000144 1616.01 544.50 426.06 600.84 1742.45 769.53 1922.81 767.22 1840.67 881.18 1757.41 994.29 1911.99 990.41
00002861 00000145 1616.37 545.15 425.26 598.34 1741.74 768.80 1922.85 766.52 1840.10 880.20 1756.40 992.89 1912.53 989.14
00002862 00000146 1616.28 544.29 425.27 595.06 1741.44 768.07 1923.13 766.55 1839.63 880.78 1755.11 992.15 1911.77 989.19
00002863 00000147 1616.52 544.62 424.36 594.64 1741.48 768.52 1922.59 767.56 1838.93 881.80 1754.32 992.14 1909.61 989.76
00002864 00000148 1615.96 543.49 424.41 593.57 1740.73 768.42 1922.83 767.73 1838.86 882.90 1754.42 992.69 1909.48 990.54
00002865 00000149 1615.85 544.15 424.16 590.45 1739.85 768.24 1922.39 768.46 1837.81 883.58 1755.07 992.53 1906.67 991.08
00002866 00000150 1615.08 544.62 425.11 594.56 1739.79 768.53 1921.03 768.34 1836.91 882.50 1756.02 994.04 1905.33 992.05
00002867 00000151 1614.06 544.63 426.42 596.64 1739.17 767.84 1921.14 768.04 1836.65 883.02 1754.77 995.23 1905.18 993.48
00002868 00000152 1614.31 545.53 425.88 597.68 1740.08 769.50 1920.07 768.67 1836.97 883.00 1754.47 996.31 1904.58 993.78
00002869 00000153 1612.78 550.39 426.11 597.77 1739.97 778.38 1918.78 776.66 1835.03 880.94 1753.57 996.78 1904.08 993.71
00002870 00000154 1612.81 549.65 427.01 602.30 1740.58 779.15 1919.64 776.84 1836.47 881.81 1753.54 997.85 1906.62 994.22
00002871 00000155 1613.57 548.03 425.94 603.99 1739.40 774.46 1920.46 771.27 1837.20 881.98 1751.91 996.86 1909.17 992.50
00002872 00000156 1613.11 544.60 426.26 602.75 1738.25 770.12 1920.65 767.40 1837.37 880.02 1746.28 995.27 1911.53 991.85
00002873 00000157 1613.61 542.95 424.25 596.41 1736.61 767.73 1918.98 764.68 1835.02 880.21 1742.31 994.28 1909.61 991.03
00002874 00000158 1610.82 544.22 425.94 593.47 1733.72 767.52 1918.04 763.84 1833.66 879.98 1742.30 994.08 1909.62 990.26
00002875 00000159 1609.56 541.26 429.72 599.68 1735.92 765.01 1918.33 760.84 1834.71 875.04 1748.80 990.39 1908.50 985.66
00002876 00000160 1612.81 539.71 427.76 598.27 1739.98 762.16 1921.52 758.70 1838.86 871.96 1750.83 985.61 1911.81 981.49
00002877 00000161 1616.93 533.48 429.26 599.88 1745.34 760.63 1925.90 758.15 1842.81 868.96 1755.48 980.29 1914.99 977.55
